3998.69854 0.01391
3997.41278 0.01305
3996.12703 0.01312
3994.84127 0.01396
3993.55552 0.01476
3992.26976 0.01502
3990.98401 0.01471
3989.69825 0.01404
3988.41250 0.01329
3987.12674 0.01266
3985.84099 0.01213
3984.55523 0.01143
3983.26948 0.01019
3981.98372 0.00836
3980.69797 0.00659
3979.41221 0.00586
3978.12646 0.00644
3976.84070 0.00723
3975.55495 0.00664
3974.26919 0.00435
3972.98344 0.00181
3971.69768 0.00093
3970.41193 0.00245
3969.12617 0.00550
3967.84042 0.00828
3966.55466 0.00926
3965.26891 0.00831
3963.98315 0.00690
3962.69740 0.00671
3961.41164 0.00792
3960.12589 0.00908
3958.84013 0.00892
3957.55437 0.00782
3956.26862 0.00717
3954.98286 0.00750
3953.69711 0.00794
3952.41135 0.00742
3951.12560 0.00603
3949.83984 0.00477
3948.55409 0.00443
3947.26833 0.00488
3945.98258 0.00532
3944.69682 0.00511
3943.41107 0.00434
3942.12531 0.00372
3940.83956 0.00383
3939.55380 0.00456
3938.26805 0.00542
3936.98229 0.00632
3935.69654 0.00763
3934.41078 0.00979
3933.12503 0.01279
3931.83927 0.01609
3930.55352 0.01871
3929.26776 0.01959
3927.98201 0.01809
3926.69625 0.01447
3925.41050 0.01002
3924.12474 0.00657
3922.83899 0.00535
3921.55323 0.00627
3920.26748 0.00835
3918.98172 0.01092
3917.69596 0.01396
3916.41021 0.01719
3915.12445 0.01951
3913.83870 0.01985
3912.55294 0.01828
3911.26719 0.01594
3909.98143 0.01360
3908.69568 0.01078
3907.40992 0.00674
3906.12417 0.00209
3904.83841 -0.00114
3903.55266 -0.00124
3902.26690 0.00183
3900.98115 0.00657
3899.69539 0.01097
3898.40964 0.01353
3897.12388 0.01403
3895.83813 0.01360
3894.55237 0.01306
3893.26662 0.01147
3891.98086 0.00728
3890.69511 0.00116
3889.40935 -0.00345
3888.12360 -0.00333
3886.83784 0.00134
3885.55209 0.00746
3884.26633 0.01208
3882.98058 0.01441
3881.69482 0.01512
3880.40907 0.01468
3879.12331 0.01293
3877.83755 0.00971
3876.55180 0.00545
3875.26604 0.00154
3873.98029 -0.00024
3872.69453 0.00076
3871.40878 0.00298
3870.12302 0.00441
3868.83727 0.00522
3867.55151 0.00746
3866.26576 0.01155
3864.98000 0.01469
3863.69425 0.01359
3862.40849 0.00822
3861.12274 0.00184
3859.83698 -0.00197
3858.55123 -0.00214
3857.26547 -0.00026
3855.97972 0.00112
3854.69396 0.00054
3853.40821 -0.00164
3852.12245 -0.00399
3850.83670 -0.00539
3849.55094 -0.00574
3848.26519 -0.00601
3846.97943 -0.00748
3845.69368 -0.01037
3844.40792 -0.01319
3843.12217 -0.01400
3841.83641 -0.01251
3840.55066 -0.01058
3839.26490 -0.01037
3837.97915 -0.01215
3836.69339 -0.01425
3835.40763 -0.01510
3834.12188 -0.01475
3832.83612 -0.01397
3831.55037 -0.01279
3830.26461 -0.01073
3828.97886 -0.00819
3827.69310 -0.00624
3826.40735 -0.00494
3825.12159 -0.00306
3823.83584 -0.00026
3822.55008 0.00163
3821.26433 0.00075
3819.97857 -0.00213
3818.69282 -0.00447
3817.40706 -0.00511
3816.12131 -0.00541
3814.83555 -0.00743
3813.54980 -0.01173
3812.26404 -0.01685
3810.97829 -0.02032
3809.69253 -0.02014
3808.40678 -0.01645
3807.12102 -0.01183
3805.83527 -0.00953
3804.54951 -0.01079
3803.26376 -0.01396
3801.97800 -0.01573
3800.69225 -0.01355
3799.40649 -0.00753
3798.12074 -0.00052
3796.83498 0.00411
3795.54922 0.00510
3794.26347 0.00327
3792.97771 -0.00048
3791.69196 -0.00606
3790.40620 -0.01266
3789.12045 -0.01759
3787.83469 -0.01810
3786.54894 -0.01421
3785.26318 -0.00899
3783.97743 -0.00584
3782.69167 -0.00589
3781.40592 -0.00770
3780.12016 -0.00916
3778.83441 -0.00959
3777.54865 -0.01007
3776.26290 -0.01184
3774.97714 -0.01456
3773.69139 -0.01652
3772.40563 -0.01671
3771.11988 -0.01626
3769.83412 -0.01749
3768.54837 -0.02132
3767.26261 -0.02583
3765.97686 -0.02771
3764.69110 -0.02522
3763.40535 -0.01990
3762.11959 -0.01557
3760.83384 -0.01545
3759.54808 -0.01975
3758.26233 -0.02563
3756.97657 -0.02963
3755.69081 -0.02993
3754.40506 -0.02663
3753.11930 -0.02027
3751.83355 -0.01150
3750.54779 -0.00211
3749.26204 0.00451
3747.97628 0.00536
3746.69053 0.00055
3745.40477 -0.00643
3744.11902 -0.01137
3742.83326 -0.01275
3741.54751 -0.01219
3740.26175 -0.01177
3738.97600 -0.01143
3737.69024 -0.00992
3736.40449 -0.00742
3735.11873 -0.00581
3733.83298 -0.00613
3732.54722 -0.00723
3731.26147 -0.00797
3729.97571 -0.00922
3728.68996 -0.01219
3727.40420 -0.01554
3726.11845 -0.01601
3724.83269 -0.01207
3723.54694 -0.00559
3722.26118 0.00007
3720.97543 0.00295
3719.68967 0.00325
3718.40392 0.00249
3717.11816 0.00237
3715.83241 0.00372
3714.54665 0.00535
3713.26089 0.00447
3711.97514 -0.00067
3710.68938 -0.00842
3709.40363 -0.01524
3708.11787 -0.01926
3706.83212 -0.02144
3705.54636 -0.02296
3704.26061 -0.02307
3702.97485 -0.02087
3701.68910 -0.01819
3700.40334 -0.01845
3699.11759 -0.02222
3697.83183 -0.02567
3696.54608 -0.02500
3695.26032 -0.02075
3693.97457 -0.01613
3692.68881 -0.01282
3691.40306 -0.01043
3690.11730 -0.00883
3688.83155 -0.00903
3687.54579 -0.01221
3686.26004 -0.01863
3684.97428 -0.02705
3683.68853 -0.03502
3682.40277 -0.04015
3681.11702 -0.04109
3679.83126 -0.03799
3678.54551 -0.03241
3677.25975 -0.02731
3675.97400 -0.02576
3674.68824 -0.02805
3673.40248 -0.03098
3672.11673 -0.03141
3670.83097 -0.02944
3669.54522 -0.02725
3668.25946 -0.02595
3666.97371 -0.02538
3665.68795 -0.02605
3664.40220 -0.02912
3663.11644 -0.03451
3661.83069 -0.04068
3660.54493 -0.04640
3659.25918 -0.05122
3657.97342 -0.05411
3656.68767 -0.05366
3655.40191 -0.05043
3654.11616 -0.04744
3652.83040 -0.04707
3651.54465 -0.04868
3650.25889 -0.05004
3648.97314 -0.05017
3647.68738 -0.04989
3646.40163 -0.05048
3645.11587 -0.05227
3643.83012 -0.05413
3642.54436 -0.05405
3641.25861 -0.05084
3639.97285 -0.04571
3638.68710 -0.04169
3637.40134 -0.04157
3636.11559 -0.04641
3634.82983 -0.05519
3633.54408 -0.06502
3632.25832 -0.07190
3630.97256 -0.07283
3629.68681 -0.06794
3628.40105 -0.06036
3627.11530 -0.05374
3625.82954 -0.05003
3624.54379 -0.04934
3623.25803 -0.05095
3621.97228 -0.05382
3620.68652 -0.05689
3619.40077 -0.05939
3618.11501 -0.06059
3616.82926 -0.05932
3615.54350 -0.05473
3614.25775 -0.04801
3612.97199 -0.04269
3611.68624 -0.04199
3610.40048 -0.04583
3609.11473 -0.05125
3607.82897 -0.05583
3606.54322 -0.06019
3605.25746 -0.06604
3603.97171 -0.07205
3602.68595 -0.07360
3601.40020 -0.06806
3600.11444 -0.05910
3598.82869 -0.05373
3597.54293 -0.05506
3596.25718 -0.05972
3594.97142 -0.06273
3593.68567 -0.06268
3592.39991 -0.06136
3591.11415 -0.06031
3589.82840 -0.05936
3588.54264 -0.05790
3587.25689 -0.05611
3585.97113 -0.05467
3584.68538 -0.05402
3583.39962 -0.05426
3582.11387 -0.05539
3580.82811 -0.05733
3579.54236 -0.05987
3578.25660 -0.06332
3576.97085 -0.06826
3575.68509 -0.07439
3574.39934 -0.08002
3573.11358 -0.08306
3571.82783 -0.08218
3570.54207 -0.07725
3569.25632 -0.06998
3567.97056 -0.06461
3566.68481 -0.06575
3565.39905 -0.07383
3564.11330 -0.08349
3562.82754 -0.08824
3561.54179 -0.08649
3560.25603 -0.08241
3558.97028 -0.08165
3557.68452 -0.08673
3556.39877 -0.09556
3555.11301 -0.10310
3553.82726 -0.10496
3552.54150 -0.10093
3551.25574 -0.09546
3549.96999 -0.09399
3548.68423 -0.09827
3547.39848 -0.10516
3546.11272 -0.10999
3544.82697 -0.11092
3543.54121 -0.11001
3542.25546 -0.11014
3540.96970 -0.11177
3539.68395 -0.11327
3538.39819 -0.11376
3537.11244 -0.11443
3535.82668 -0.11658
3534.54093 -0.11897
3533.25517 -0.11845
3531.96942 -0.11389
3530.68366 -0.10860
3529.39791 -0.10769
3528.11215 -0.11252
3526.82640 -0.11896
3525.54064 -0.12150
3524.25489 -0.11840
3522.96913 -0.11265
3521.68338 -0.10867
3520.39762 -0.10870
3519.11187 -0.11163
3517.82611 -0.11431
3516.54036 -0.11434
3515.25460 -0.11222
3513.96885 -0.11089
3512.68309 -0.11285
3511.39734 -0.11768
3510.11158 -0.12278
3508.82582 -0.12614
3507.54007 -0.12784
3506.25431 -0.12854
3504.96856 -0.12789
3503.68280 -0.12527
3502.39705 -0.12115
3501.11129 -0.11660
3499.82554 -0.11205
3498.53978 -0.10787
3497.25403 -0.10562
3495.96827 -0.10731
3494.68252 -0.11328
3493.39676 -0.12140
3492.11101 -0.12850
3490.82525 -0.13218
3489.53950 -0.13159
3488.25374 -0.12721
3486.96799 -0.12063
3485.68223 -0.11439
3484.39648 -0.11124
3483.11072 -0.11257
3481.82497 -0.11770
3480.53921 -0.12465
3479.25346 -0.13094
3477.96770 -0.13374
3476.68195 -0.13114
3475.39619 -0.12479
3474.11044 -0.12007
3472.82468 -0.12146
3471.53893 -0.12780
3470.25317 -0.13369
3468.96741 -0.13520
3467.68166 -0.13273
3466.39590 -0.12868
3465.11015 -0.12466
3463.82439 -0.12167
3462.53864 -0.12093
3461.25288 -0.12293
3459.96713 -0.12626
3458.68137 -0.12865
3457.39562 -0.12883
3456.10986 -0.12667
3454.82411 -0.12259
3453.53835 -0.11786
3452.25260 -0.11499
3450.96684 -0.11664
3449.68109 -0.12349
3448.39533 -0.13327
3447.10958 -0.14157
3445.82382 -0.14425
3444.53807 -0.13996
3443.25231 -0.13129
3441.96656 -0.12330
3440.68080 -0.12036
3439.39505 -0.12317
3438.10929 -0.12818
3436.82354 -0.13052
3435.53778 -0.12845
3434.25203 -0.12448
3432.96627 -0.12167
3431.68052 -0.11945
3430.39476 -0.11470
3429.10900 -0.10624
3427.82325 -0.09699
3426.53749 -0.09136
3425.25174 -0.09133
3423.96598 -0.09485
3422.68023 -0.09775
3421.39447 -0.09710
3420.10872 -0.09315
3418.82296 -0.08815
3417.53721 -0.08352
3416.25145 -0.07912
3414.96570 -0.07497
3413.67994 -0.07248
3412.39419 -0.07289
3411.10843 -0.07518
3409.82268 -0.07704
3408.53692 -0.07784
3407.25117 -0.07922
3405.96541 -0.08244
3404.67966 -0.08601
3403.39390 -0.08723
3402.10815 -0.08563
3400.82239 -0.08378
3399.53664 -0.08408
3398.25088 -0.08541
3396.96513 -0.08527
3395.67937 -0.08257
3394.39362 -0.07872
3393.10786 -0.07580
3391.82211 -0.07449
3390.53635 -0.07449
3389.25060 -0.07579
3387.96484 -0.07802
3386.67908 -0.07888
3385.39333 -0.07510
3384.10757 -0.06577
3382.82182 -0.05412
3381.53606 -0.04508
3380.25031 -0.04114
3378.96455 -0.04131
3377.67880 -0.04330
3376.39304 -0.04553
3375.10729 -0.04691
3373.82153 -0.04656
3372.53578 -0.04462
3371.25002 -0.04266
3369.96427 -0.04213
3368.67851 -0.04293
3367.39276 -0.04367
3366.10700 -0.04323
3364.82125 -0.04165
3363.53549 -0.03953
3362.24974 -0.03708
3360.96398 -0.03431
3359.67823 -0.03189
3358.39247 -0.03109
3357.10672 -0.03205
3355.82096 -0.03273
3354.53521 -0.03071
3353.24945 -0.02576
3351.96370 -0.01993
3350.67794 -0.01519
3349.39219 -0.01197
3348.10643 -0.00986
3346.82067 -0.00890
3345.53492 -0.00945
3344.24916 -0.01138
3342.96341 -0.01392
3341.67765 -0.01587
3340.39190 -0.01593
3339.10614 -0.01321
3337.82039 -0.00829
3336.53463 -0.00346
3335.24888 -0.00103
3333.96312 -0.00142
3332.67737 -0.00315
3331.39161 -0.00438
3330.10586 -0.00407
3328.82010 -0.00231
3327.53435 -0.00035
3326.24859 0.00016
3324.96284 -0.00112
3323.67708 -0.00233
3322.39133 -0.00113
3321.10557 0.00267
3319.81982 0.00677
3318.53406 0.00879
3317.24831 0.00856
3315.96255 0.00784
3314.67680 0.00821
3313.39104 0.00980
3312.10529 0.01200
3310.81953 0.01456
3309.53378 0.01766
3308.24802 0.02128
3306.96227 0.02465
3305.67651 0.02642
3304.39075 0.02564
3303.10500 0.02304
3301.81924 0.02095
3300.53349 0.02148
3299.24773 0.02457
3297.96198 0.02834
3296.67622 0.03120
3295.39047 0.03308
3294.10471 0.03462
3292.81896 0.03593
3291.53320 0.03677
3290.24745 0.03722
3288.96169 0.03754
3287.67594 0.03738
3286.39018 0.03629
3285.10443 0.03530
3283.81867 0.03681
3282.53292 0.04209
3281.24716 0.04910
3279.96141 0.05383
3278.67565 0.05403
3277.38990 0.05108
3276.10414 0.04829
3274.81839 0.04767
3273.53263 0.04878
3272.24688 0.05003
3270.96112 0.05044
3269.67537 0.04989
3268.38961 0.04869
3267.10386 0.04730
3265.81810 0.04638
3264.53234 0.04653
3263.24659 0.04808
3261.96083 0.05110
3260.67508 0.05521
3259.38932 0.05940
3258.10357 0.06239
3256.81781 0.06332
3255.53206 0.06172
3254.24630 0.05752
3252.96055 0.05189
3251.67479 0.04798
3250.38904 0.04913
3249.10328 0.05580
3247.81753 0.06453
3246.53177 0.07078
3245.24602 0.07274
3243.96026 0.07191
3242.67451 0.07037
3241.38875 0.06831
3240.10300 0.06499
3238.81724 0.06106
3237.53149 0.05868
3236.24573 0.05933
3234.95998 0.06223
3233.67422 0.06529
3232.38847 0.06717
3231.10271 0.06817
3229.81696 0.06954
3228.53120 0.07187
3227.24545 0.07461
3225.95969 0.07668
3224.67393 0.07737
3223.38818 0.07665
3222.10242 0.07514
3220.81667 0.07422
3219.53091 0.07526
3218.24516 0.07812
3216.95940 0.08080
3215.67365 0.08109
3214.38789 0.07873
3213.10214 0.07560
3211.81638 0.07388
3210.53063 0.07420
3209.24487 0.07538
3207.95912 0.07596
3206.67336 0.07582
3205.38761 0.07614
3204.10185 0.07769
3202.81610 0.07979
3201.53034 0.08119
3200.24459 0.08123
3198.95883 0.07996
3197.67308 0.07785
3196.38732 0.07596
3195.10157 0.07580
3193.81581 0.07819
3192.53006 0.08222
3191.24430 0.08597
3189.95855 0.08810
3188.67279 0.08868
3187.38704 0.08843
3186.10128 0.08774
3184.81553 0.08644
3183.52977 0.08452
3182.24401 0.08252
3180.95826 0.08108
3179.67250 0.08036
3178.38675 0.08001
3177.10099 0.07979
3175.81524 0.07986
3174.52948 0.08036
3173.24373 0.08113
3171.95797 0.08179
3170.67222 0.08203
3169.38646 0.08180
3168.10071 0.08129
3166.81495 0.08079
3165.52920 0.08037
3164.24344 0.07980
3162.95769 0.07905
3161.67193 0.07861
3160.38618 0.07891
3159.10042 0.07968
3157.81467 0.08030
3156.52891 0.08061
3155.24316 0.08095
3153.95740 0.08149
3152.67165 0.08199
3151.38589 0.08229
3150.10014 0.08254
3148.81438 0.08301
3147.52863 0.08358
3146.24287 0.08359
3144.95712 0.08247
3143.67136 0.08097
3142.38560 0.08107
3141.09985 0.08404
3139.81409 0.08869
3138.52834 0.09228
3137.24258 0.09311
3135.95683 0.09156
3134.67107 0.08893
3133.38532 0.08621
3132.09956 0.08398
3130.81381 0.08273
3129.52805 0.08274
3128.24230 0.08381
3126.95654 0.08529
3125.67079 0.08658
3124.38503 0.08746
3123.09928 0.08795
3121.81352 0.08794
3120.52777 0.08727
3119.24201 0.08600
3117.95626 0.08447
3116.67050 0.08304
3115.38475 0.08201
3114.09899 0.08172
3112.81324 0.08234
3111.52748 0.08358
3110.24173 0.08480
3108.95597 0.08550
3107.67022 0.08560
3106.38446 0.08545
3105.09871 0.08543
3103.81295 0.08563
3102.52719 0.08572
3101.24144 0.08541
3099.95568 0.08476
3098.66993 0.08406
3097.38417 0.08358
3096.09842 0.08360
3094.81266 0.08443
3093.52691 0.08595
3092.24115 0.08759
3090.95540 0.08871
3089.66964 0.08909
3088.38389 0.08878
3087.09813 0.08792
3085.81238 0.08696
3084.52662 0.08666
3083.24087 0.08737
3081.95511 0.08831
3080.66936 0.08816
3079.38360 0.08665
3078.09785 0.08508
3076.81209 0.08485
3075.52634 0.08601
3074.24058 0.08773
3072.95483 0.08957
3071.66907 0.09151
3070.38332 0.09318
3069.09756 0.09364
3067.81181 0.09235
3066.52605 0.08980
3065.24030 0.08716
3063.95454 0.08543
3062.66879 0.08500
3061.38303 0.08556
3060.09727 0.08650
3058.81152 0.08749
3057.52576 0.08868
3056.24001 0.09014
3054.95425 0.09144
3053.66850 0.09182
3052.38274 0.09101
3051.09699 0.08972
3049.81123 0.08912
3048.52548 0.08956
3047.23972 0.09004
3045.95397 0.08912
3044.66821 0.08651
3043.38246 0.08370
3042.09670 0.08262
3040.81095 0.08382
3039.52519 0.08609
3038.23944 0.08772
3036.95368 0.08799
3035.66793 0.08738
3034.38217 0.08669
3033.09642 0.08641
3031.81066 0.08670
3030.52491 0.08756
3029.23915 0.08873
3027.95340 0.08976
3026.66764 0.09024
3025.38189 0.09009
3024.09613 0.08950
3022.81038 0.08889
3021.52462 0.08865
3020.23886 0.08890
3018.95311 0.08935
3017.66735 0.08962
3016.38160 0.08941
3015.09584 0.08851
3013.81009 0.08688
3012.52433 0.08504
3011.23858 0.08390
3009.95282 0.08405
3008.66707 0.08514
3007.38131 0.08623
3006.09556 0.08672
3004.80980 0.08678
3003.52405 0.08682
3002.23829 0.08689
3000.95254 0.08676
2999.66678 0.08645
2998.38103 0.08635
2997.09527 0.08655
2995.80952 0.08669
2994.52376 0.08638
2993.23801 0.08554
2991.95225 0.08449
2990.66650 0.08382
2989.38074 0.08391
2988.09499 0.08439
2986.80923 0.08445
2985.52348 0.08381
2984.23772 0.08322
2982.95197 0.08351
2981.66621 0.08465
2980.38046 0.08592
2979.09470 0.08676
2977.80894 0.08714
2976.52319 0.08729
2975.23743 0.08744
2973.95168 0.08779
2972.66592 0.08840
2971.38017 0.08900
2970.09441 0.08930
2968.80866 0.08968
2967.52290 0.09105
2966.23715 0.09384
2964.95139 0.09721
2963.66564 0.09982
2962.37988 0.10114
2961.09413 0.10166
2959.80837 0.10180
2958.52262 0.10154
2957.23686 0.10096
2955.95111 0.10055
2954.66535 0.10049
2953.37960 0.10043
2952.09384 0.10011
2950.80809 0.09997
2949.52233 0.10060
2948.23658 0.10187
2946.95082 0.10305
2945.66507 0.10372
2944.37931 0.10405
2943.09356 0.10413
2941.80780 0.10377
2940.52205 0.10299
2939.23629 0.10231
2937.95053 0.10202
2936.66478 0.10175
2935.37902 0.10116
2934.09327 0.10075
2932.80751 0.10134
2931.52176 0.10300
2930.23600 0.10482
2928.95025 0.10591
2927.66449 0.10611
2926.37874 0.10585
2925.09298 0.10560
2923.80723 0.10553
2922.52147 0.10544
2921.23572 0.10492
2919.94996 0.10368
2918.66421 0.10190
2917.37845 0.10014
2916.09270 0.09883
2914.80694 0.09794
2913.52119 0.09726
2912.23543 0.09679
2910.94968 0.09677
2909.66392 0.09706
2908.37817 0.09713
2907.09241 0.09650
2905.80666 0.09533
2904.52090 0.09427
2903.23515 0.09379
2901.94939 0.09382
2900.66364 0.09381
2899.37788 0.09325
2898.09212 0.09195
2896.80637 0.09023
2895.52061 0.08875
2894.23486 0.08808
2892.94910 0.08824
2891.66335 0.08879
2890.37759 0.08937
2889.09184 0.08996
2887.80608 0.09044
2886.52033 0.09047
2885.23457 0.08987
2883.94882 0.08903
2882.66306 0.08860
2881.37731 0.08878
2880.09155 0.08917
2878.80580 0.08923
2877.52004 0.08888
2876.23429 0.08843
2874.94853 0.08812
2873.66278 0.08784
2872.37702 0.08744
2871.09127 0.08703
2869.80551 0.08685
2868.51976 0.08717
2867.23400 0.08812
2865.94825 0.08941
2864.66249 0.09032
2863.37674 0.09029
2862.09098 0.08956
2860.80523 0.08880
2859.51947 0.08813
2858.23372 0.08716
2856.94796 0.08585
2855.66220 0.08487
2854.37645 0.08486
2853.09069 0.08578
2851.80494 0.08698
2850.51918 0.08778
2849.23343 0.08780
2847.94767 0.08700
2846.66192 0.08551
2845.37616 0.08365
2844.09041 0.08192
2842.80465 0.08086
2841.51890 0.08059
2840.23314 0.08057
2838.94739 0.08015
2837.66163 0.07922
2836.37588 0.07822
2835.09012 0.07761
2833.80437 0.07753
2832.51861 0.07790
2831.23286 0.07850
2829.94710 0.07897
2828.66135 0.07889
2827.37559 0.07808
2826.08984 0.07680
2824.80408 0.07554
2823.51833 0.07469
2822.23257 0.07431
2820.94682 0.07415
2819.66106 0.07389
2818.37531 0.07333
2817.08955 0.07241
2815.80379 0.07136
2814.51804 0.07062
2813.23228 0.07056
2811.94653 0.07114
2810.66077 0.07192
2809.37502 0.07241
2808.08926 0.07235
2806.80351 0.07169
2805.51775 0.07065
2804.23200 0.06976
2802.94624 0.06967
2801.66049 0.07054
2800.37473 0.07185
2799.08898 0.07266
2797.80322 0.07239
2796.51747 0.07129
2795.23171 0.07017
2793.94596 0.06964
2792.66020 0.06967
2791.37445 0.06991
2790.08869 0.07019
2788.80294 0.07042
2787.51718 0.07031
2786.23143 0.06955
2784.94567 0.06824
2783.65992 0.06701
2782.37416 0.06655
2781.08841 0.06692
2779.80265 0.06758
2778.51690 0.06792
2777.23114 0.06789
2775.94538 0.06790
2774.65963 0.06827
2773.37387 0.06882
2772.08812 0.06912
2770.80236 0.06898
2769.51661 0.06861
2768.23085 0.06834
2766.94510 0.06826
2765.65934 0.06823
2764.37359 0.06806
2763.08783 0.06769
2761.80208 0.06712
2760.51632 0.06647
2759.23057 0.06609
2757.94481 0.06626
2756.65906 0.06677
2755.37330 0.06708
2754.08755 0.06684
2752.80179 0.06624
2751.51604 0.06575
2750.23028 0.06562
2748.94453 0.06577
2747.65877 0.06588
2746.37302 0.06569
2745.08726 0.06524
2743.80151 0.06472
2742.51575 0.06432
2741.23000 0.06419
2739.94424 0.06437
2738.65849 0.06474
2737.37273 0.06507
2736.08698 0.06522
2734.80122 0.06520
2733.51546 0.06507
2732.22971 0.06491
2730.94395 0.06479
2729.65820 0.06482
2728.37244 0.06495
2727.08669 0.06500
2725.80093 0.06475
2724.51518 0.06425
2723.22942 0.06387
2721.94367 0.06399
2720.65791 0.06451
2719.37216 0.06482
2718.08640 0.06436
2716.80065 0.06317
2715.51489 0.06190
2714.22914 0.06110
2712.94338 0.06092
2711.65763 0.06117
2710.37187 0.06162
2709.08612 0.06208
2707.80036 0.06247
2706.51461 0.06284
2705.22885 0.06331
2703.94310 0.06377
2702.65734 0.06381
2701.37159 0.06316
2700.08583 0.06209
2698.80008 0.06126
2697.51432 0.06105
2696.22857 0.06124
2694.94281 0.06128
2693.65705 0.06095
2692.37130 0.06043
2691.08554 0.06008
2689.79979 0.06008
2688.51403 0.06034
2687.22828 0.06061
2685.94252 0.06068
2684.65677 0.06054
2683.37101 0.06042
2682.08526 0.06059
2680.79950 0.06094
2679.51375 0.06097
2678.22799 0.06032
2676.94224 0.05924
2675.65648 0.05840
2674.37073 0.05834
2673.08497 0.05898
2671.79922 0.05978
2670.51346 0.06013
2669.22771 0.05982
2667.94195 0.05912
2666.65620 0.05858
2665.37044 0.05849
2664.08469 0.05874
2662.79893 0.05896
2661.51318 0.05895
2660.22742 0.05884
2658.94167 0.05891
2657.65591 0.05929
2656.37016 0.05983
2655.08440 0.06020
2653.79865 0.06016
2652.51289 0.05986
2651.22713 0.05963
2649.94138 0.05948
2648.65562 0.05906
2647.36987 0.05817
2646.08411 0.05724
2644.79836 0.05694
2643.51260 0.05747
2642.22685 0.05841
2640.94109 0.05914
2639.65534 0.05941
2638.36958 0.05940
2637.08383 0.05934
2635.79807 0.05917
2634.51232 0.05863
2633.22656 0.05766
2631.94081 0.05657
2630.65505 0.05576
2629.36930 0.05536
2628.08354 0.05522
2626.79779 0.05512
2625.51203 0.05499
2624.22628 0.05483
2622.94052 0.05453
2621.65477 0.05400
2620.36901 0.05340
2619.08326 0.05309
2617.79750 0.05328
2616.51175 0.05391
2615.22599 0.05474
2613.94024 0.05532
2612.65448 0.05520
2611.36872 0.05427
2610.08297 0.05309
2608.79721 0.05241
2607.51146 0.05255
2606.22570 0.05319
2604.93995 0.05372
2603.65419 0.05363
2602.36844 0.05288
2601.08268 0.05198
2599.79693 0.05162
2598.51117 0.05206
2597.22542 0.05297
2595.93966 0.05385
2594.65391 0.05433
2593.36815 0.05418
2592.08240 0.05342
2590.79664 0.05238
2589.51089 0.05156
2588.22513 0.05130
2586.93938 0.05165
2585.65362 0.05237
2584.36787 0.05310
2583.08211 0.05351
2581.79636 0.05347
2580.51060 0.05305
2579.22485 0.05243
2577.93909 0.05175
2576.65334 0.05105
2575.36758 0.05045
2574.08183 0.05029
2572.79607 0.05079
2571.51031 0.05155
2570.22456 0.05183
2568.93880 0.05120
2567.65305 0.04998
2566.36729 0.04875
2565.08154 0.04803
2563.79578 0.04798
2562.51003 0.04842
2561.22427 0.04903
2559.93852 0.04958
2558.65276 0.04997
2557.36701 0.05001
2556.08125 0.04966
2554.79550 0.04933
2553.50974 0.04938
2552.22399 0.04954
2550.93823 0.04917
2549.65248 0.04834
2548.36672 0.04792
2547.08097 0.04849
2545.79521 0.04955
2544.50946 0.05010
2543.22370 0.04977
2541.93795 0.04908
2540.65219 0.04882
2539.36644 0.04927
2538.08068 0.05003
2536.79493 0.05032
2535.50917 0.04969
2534.22342 0.04847
2532.93766 0.04746
2531.65191 0.04725
2530.36615 0.04770
2529.08039 0.04822
2527.79464 0.04838
2526.50888 0.04811
2525.22313 0.04758
2523.93737 0.04706
2522.65162 0.04682
2521.36586 0.04697
2520.08011 0.04726
2518.79435 0.04727
2517.50860 0.04676
2516.22284 0.04594
2514.93709 0.04528
2513.65133 0.04509
2512.36558 0.04532
2511.07982 0.04569
2509.79407 0.04594
2508.50831 0.04604
2507.22256 0.04609
2505.93680 0.04623
2504.65105 0.04656
2503.36529 0.04691
2502.07954 0.04695
2500.79378 0.04657
2499.50803 0.04600
2498.22227 0.04556
2496.93652 0.04537
2495.65076 0.04529
2494.36501 0.04525
2493.07925 0.04539
2491.79350 0.04582
2490.50774 0.04631
2489.22198 0.04652
2487.93623 0.04634
2486.65047 0.04591
2485.36472 0.04536
2484.07896 0.04474
2482.79321 0.04425
2481.50745 0.04427
2480.22170 0.04495
2478.93594 0.04599
2477.65019 0.04683
2476.36443 0.04705
2475.07868 0.04665
2473.79292 0.04614
2472.50717 0.04611
2471.22141 0.04657
2469.93566 0.04697
2468.64990 0.04678
2467.36415 0.04607
2466.07839 0.04537
2464.79264 0.04513
2463.50688 0.04549
2462.22113 0.04620
2460.93537 0.04676
2459.64962 0.04675
2458.36386 0.04618
2457.07811 0.04557
2455.79235 0.04532
2454.50660 0.04533
2453.22084 0.04521
2451.93509 0.04493
2450.64933 0.04486
2449.36357 0.04513
2448.07782 0.04521
2446.79206 0.04457
2445.50631 0.04350
2444.22055 0.04297
2442.93480 0.04347
2441.64904 0.04441
2440.36329 0.04479
2439.07753 0.04430
2437.79178 0.04348
2436.50602 0.04304
2435.22027 0.04322
2433.93451 0.04378
2432.64876 0.04440
2431.36300 0.04480
2430.07725 0.04479
2428.79149 0.04433
2427.50574 0.04347
2426.21998 0.04242
2424.93423 0.04148
2423.64847 0.04098
2422.36272 0.04108
2421.07696 0.04161
2419.79121 0.04220
2418.50545 0.04253
2417.21970 0.04249
2415.93394 0.04222
2414.64819 0.04193
2413.36243 0.04181
2412.07668 0.04185
2410.79092 0.04190
2409.50517 0.04175
2408.21941 0.04123
2406.93365 0.04046
2405.64790 0.03982
2404.36214 0.03979
2403.07639 0.04049
2401.79063 0.04143
2400.50488 0.04199
2399.21912 0.04195
2397.93337 0.04174
2396.64761 0.04175
2395.36186 0.04207
2394.07610 0.04248
2392.79035 0.04266
2391.50459 0.04248
2390.21884 0.04207
2388.93308 0.04172
2387.64733 0.04165
2386.36157 0.04184
2385.07582 0.04211
2383.79006 0.04238
2382.50431 0.04265
2381.21855 0.04276
2379.93280 0.04244
2378.64704 0.04167
2377.36129 0.04086
2376.07553 0.04056
2374.78978 0.04089
2373.50402 0.04164
2372.21827 0.04242
2370.93251 0.04287
2369.64676 0.04259
2368.36100 0.04169
2367.07524 0.04060
2365.78949 0.04002
2364.50373 0.04013
2363.21798 0.04068
2361.93222 0.04138
2360.64647 0.04205
2359.36071 0.04228
2358.07496 0.04210
2356.78920 0.04170
2355.50345 0.04114
2354.21769 0.04063
2352.93194 0.04030
2351.64618 0.04046
2350.36043 0.04090
2349.07467 0.04107
2347.78892 0.04084
2346.50316 0.04085
2345.21741 0.04100
2343.93165 0.04058
2342.64590 0.03979
2341.36014 0.04005
2340.07439 0.04130
2338.78863 0.04135
2337.50288 0.03986
2336.21712 0.03991
2334.93137 0.04120
2333.64561 0.04093
2332.35986 0.03968
2331.07410 0.04028
2329.78835 0.04108
2328.50259 0.04031
2327.21684 0.04119
2325.93108 0.04290
2324.64532 0.04259
2323.35957 0.04180
2322.07381 0.04132
2320.78806 0.03987
2319.50230 0.03925
2318.21655 0.03966
2316.93079 0.03959
2315.64504 0.03986
2314.35928 0.04029
2313.07353 0.04034
2311.78777 0.04068
2310.50202 0.04092
2309.21626 0.04108
2307.93051 0.04136
2306.64475 0.04125
2305.35900 0.04085
2304.07324 0.04015
2302.78749 0.03934
2301.50173 0.03879
2300.21598 0.03836
2298.93022 0.03804
2297.64447 0.03781
2296.35871 0.03774
2295.07296 0.03783
2293.78720 0.03792
2292.50145 0.03810
2291.21569 0.03855
2289.92994 0.03943
2288.64418 0.04050
2287.35843 0.04121
2286.07267 0.04113
2284.78691 0.04026
2283.50116 0.03899
2282.21540 0.03789
2280.92965 0.03735
2279.64389 0.03725
2278.35814 0.03709
2277.07238 0.03646
2275.78663 0.03533
2274.50087 0.03405
2273.21512 0.03299
2271.92936 0.03236
2270.64361 0.03209
2269.35785 0.03208
2268.07210 0.03249
2266.78634 0.03360
2265.50059 0.03535
2264.21483 0.03707
2262.92908 0.03811
2261.64332 0.03833
2260.35757 0.03802
2259.07181 0.03754
2257.78606 0.03707
2256.50030 0.03654
2255.21455 0.03585
2253.92879 0.03507
2252.64304 0.03451
2251.35728 0.03451
2250.07153 0.03523
2248.78577 0.03618
2247.50002 0.03635
2246.21426 0.03501
2244.92850 0.03264
2243.64275 0.03074
2242.35699 0.03051
2241.07124 0.03169
2239.78548 0.03293
2238.49973 0.03326
2237.21397 0.03281
2235.92822 0.03224
2234.64246 0.03201
2233.35671 0.03217
2232.07095 0.03241
2230.78520 0.03213
2229.49944 0.03104
2228.21369 0.02972
2226.92793 0.02938
2225.64218 0.03065
2224.35642 0.03280
2223.07067 0.03441
2221.78491 0.03453
2220.49916 0.03305
2219.21340 0.03024
2217.92765 0.02660
2216.64189 0.02324
2215.35614 0.02153
2214.07038 0.02209
2212.78463 0.02410
2211.49887 0.02626
2210.21312 0.02798
2208.92736 0.02947
2207.64161 0.03093
2206.35585 0.03213
2205.07010 0.03268
2203.78434 0.03228
2202.49858 0.03088
2201.21283 0.02885
2199.92707 0.02692
2198.64132 0.02563
2197.35556 0.02491
2196.06981 0.02442
2194.78405 0.02400
2193.49830 0.02380
2192.21254 0.02401
2190.92679 0.02476
2189.64103 0.02620
2188.35528 0.02814
2187.06952 0.02962
2185.78377 0.02929
2184.49801 0.02681
2183.21226 0.02370
2181.92650 0.02202
2180.64075 0.02222
2179.35499 0.02273
2178.06924 0.02191
2176.78348 0.01984
2175.49773 0.01805
2174.21197 0.01781
2172.92622 0.01932
2171.64046 0.02208
2170.35471 0.02535
2169.06895 0.02810
2167.78320 0.02898
2166.49744 0.02732
2165.21169 0.02397
2163.92593 0.02080
2162.64017 0.01887
2161.35442 0.01780
2160.06866 0.01693
2158.78291 0.01665
2157.49715 0.01756
2156.21140 0.01912
2154.92564 0.02029
2153.63989 0.02105
2152.35413 0.02232
2151.06838 0.02447
2149.78262 0.02650
2148.49687 0.02701
2147.21111 0.02596
2145.92536 0.02480
2144.63960 0.02479
2143.35385 0.02556
2142.06809 0.02593
2140.78234 0.02552
2139.49658 0.02501
2138.21083 0.02498
2136.92507 0.02521
2135.63932 0.02532
2134.35356 0.02525
2133.06781 0.02511
2131.78205 0.02492
2130.49630 0.02489
2129.21054 0.02531
2127.92479 0.02622
2126.63903 0.02704
2125.35328 0.02706
2124.06752 0.02602
2122.78176 0.02428
2121.49601 0.02258
2120.21025 0.02162
2118.92450 0.02173
2117.63874 0.02268
2116.35299 0.02398
2115.06723 0.02516
2113.78148 0.02593
2112.49572 0.02627
2111.20997 0.02639
2109.92421 0.02652
2108.63846 0.02669
2107.35270 0.02665
2106.06695 0.02619
2104.78119 0.02524
2103.49544 0.02405
2102.20968 0.02307
2100.92393 0.02285
2099.63817 0.02518
2098.35242 0.02630
2097.06666 0.02585
2095.78091 0.02481
2094.49515 0.02379
2093.20940 0.02286
2091.92364 0.02182
2090.63789 0.02065
2089.35213 0.01968
2088.06638 0.01932
2086.78062 0.01981
2085.49487 0.02091
2084.20911 0.02211
2082.92336 0.02293
2081.63760 0.02328
2080.35184 0.02342
2079.06609 0.02349
2077.78033 0.02354
2076.49458 0.02372
2075.20882 0.02423
2073.92307 0.02498
2072.63731 0.02540
2071.35156 0.02498
2070.06580 0.02381
2068.78005 0.02256
2067.49429 0.02185
2066.20854 0.02172
2064.92278 0.02173
2063.63703 0.02136
2062.35127 0.02037
2061.06552 0.01889
2059.77976 0.01743
2058.49401 0.01666
2057.20825 0.01684
2055.92250 0.01755
2054.63674 0.01820
2053.35099 0.01868
2052.06523 0.01920
2050.77948 0.01968
2049.49372 0.01967
2048.20797 0.01901
2046.92221 0.01812
2045.63646 0.01749
2044.35070 0.01712
2043.06495 0.01690
2041.77919 0.01713
2040.49343 0.01842
2039.20768 0.02078
2037.92192 0.02328
2036.63617 0.02461
2035.35041 0.02414
2034.06466 0.02223
2032.77890 0.01971
2031.49315 0.01734
2030.20739 0.01565
2028.92164 0.01503
2027.63588 0.01547
2026.35013 0.01640
2025.06437 0.01706
2023.77862 0.01729
2022.49286 0.01752
2021.20711 0.01811
2019.92135 0.01882
2018.63560 0.01936
2017.34984 0.01988
2016.06409 0.02067
2014.77833 0.02146
2013.49258 0.02166
2012.20682 0.02122
2010.92107 0.02089
2009.63531 0.02142
2008.34956 0.02257
2007.06380 0.02316
2005.77805 0.02215
2004.49229 0.01964
2003.20654 0.01671
2001.92078 0.01431
2000.63503 0.01280
1999.34927 0.01229
1998.06351 0.01291
1996.77776 0.01452
1995.49200 0.01644
1994.20625 0.01793
1992.92049 0.01882
1991.63474 0.01944
1990.34898 0.02006
1989.06323 0.02059
1987.77747 0.02079
1986.49172 0.02069
1985.20596 0.02084
1983.92021 0.02201
1982.63445 0.02446
1981.34870 0.02739
1980.06294 0.02930
1978.77719 0.02923
1977.49143 0.02774
1976.20568 0.02649
1974.91992 0.02643
1973.63417 0.02694
1972.34841 0.02678
1971.06266 0.02559
1969.77690 0.02415
1968.49115 0.02330
1967.20539 0.02310
1965.91964 0.02318
1964.63388 0.02361
1963.34813 0.02472
1962.06237 0.02628
1960.77662 0.02722
1959.49086 0.02655
1958.20510 0.02433
1956.91935 0.02155
1955.63359 0.01933
1954.34784 0.01825
1953.06208 0.01850
1951.77633 0.02000
1950.49057 0.02221
1949.20482 0.02419
1947.91906 0.02505
1946.63331 0.02468
1945.34755 0.02386
1944.06180 0.02356
1942.77604 0.02404
1941.49029 0.02477
1940.20453 0.02514
1938.91878 0.02502
1937.63302 0.02470
1936.34727 0.02450
1935.06151 0.02448
1933.77576 0.02446
1932.49000 0.02427
1931.20425 0.02399
1929.91849 0.02388
1928.63274 0.02406
1927.34698 0.02435
1926.06123 0.02439
1924.77547 0.02402
1923.48972 0.02335
1922.20396 0.02270
1920.91821 0.02244
1919.63245 0.02279
1918.34669 0.02364
1917.06094 0.02455
1915.77518 0.02505
1914.48943 0.02500
1913.20367 0.02452
1911.91792 0.02386
1910.63216 0.02320
1909.34641 0.02273
1908.06065 0.02258
1906.77490 0.02280
1905.48914 0.02330
1904.20339 0.02383
1902.91763 0.02412
1901.63188 0.02406
1900.34612 0.02381
1899.06037 0.02369
1897.77461 0.02389
1896.48886 0.02434
1895.20310 0.02479
1893.91735 0.02498
1892.63159 0.02487
1891.34584 0.02457
1890.06008 0.02427
1888.77433 0.02417
1887.48857 0.02430
1886.20282 0.02452
1884.91706 0.02456
1883.63131 0.02428
1882.34555 0.02379
1881.05980 0.02338
1879.77404 0.02329
1878.48829 0.02352
1877.20253 0.02379
1875.91677 0.02390
1874.63102 0.02388
1873.34526 0.02394
1872.05951 0.02417
1870.77375 0.02442
1869.48800 0.02442
1868.20224 0.02411
1866.91649 0.02362
1865.63073 0.02320
1864.34498 0.02302
1863.05922 0.02304
1861.77347 0.02311
1860.48771 0.02310
1859.20196 0.02304
1857.91620 0.02305
1856.63045 0.02321
1855.34469 0.02342
1854.05894 0.02352
1852.77318 0.02339
1851.48743 0.02308
1850.20167 0.02285
1848.91592 0.02286
1847.63016 0.02305
1846.34441 0.02320
1845.05865 0.02319
1843.77290 0.02309
1842.48714 0.02296
1841.20139 0.02282
1839.91563 0.02264
1838.62988 0.02246
1837.34412 0.02236
1836.05836 0.02233
1834.77261 0.02230
1833.48685 0.02227
1832.20110 0.02236
1830.91534 0.02265
1829.62959 0.02304
1828.34383 0.02334
1827.05808 0.02350
1825.77232 0.02360
1824.48657 0.02377
1823.20081 0.02403
1821.91506 0.02434
1820.62930 0.02458
1819.34355 0.02458
1818.05779 0.02423
1816.77204 0.02356
1815.48628 0.02278
1814.20053 0.02215
1812.91477 0.02183
1811.62902 0.02185
1810.34326 0.02209
1809.05751 0.02237
1807.77175 0.02251
1806.48600 0.02248
1805.20024 0.02236
1803.91449 0.02224
1802.62873 0.02218
1801.34298 0.02216
1800.05722 0.02218
1798.77147 0.02224
1797.48571 0.02240
1796.19995 0.02271
1794.91420 0.02311
1793.62844 0.02343
1792.34269 0.02350
1791.05693 0.02332
1789.77118 0.02306
1788.48542 0.02294
1787.19967 0.02303
1785.91391 0.02321
1784.62816 0.02337
1783.34240 0.02344
1782.05665 0.02343
1780.77089 0.02335
1779.48514 0.02319
1778.19938 0.02294
1776.91363 0.02272
1775.62787 0.02267
1774.34212 0.02282
1773.05636 0.02303
1771.77061 0.02315
1770.48485 0.02309
1769.19910 0.02290
1767.91334 0.02265
1766.62759 0.02247
1765.34183 0.02243
1764.05608 0.02253
1762.77032 0.02268
1761.48457 0.02277
1760.19881 0.02281
1758.91306 0.02281
1757.62730 0.02278
1756.34155 0.02269
1755.05579 0.02257
1753.77003 0.02256
1752.48428 0.02267
1751.19852 0.02282
1749.91277 0.02284
1748.62701 0.02267
1747.34126 0.02244
1746.05550 0.02230
1744.76975 0.02232
1743.48399 0.02244
1742.19824 0.02256
1740.91248 0.02258
1739.62673 0.02255
1738.34097 0.02264
1737.05522 0.02299
1735.76946 0.02355
1734.48371 0.02406
1733.19795 0.02425
1731.91220 0.02410
1730.62644 0.02384
1729.34069 0.02367
1728.05493 0.02365
1726.76918 0.02371
1725.48342 0.02373
1724.19767 0.02371
1722.91191 0.02372
1721.62616 0.02391
1720.34040 0.02437
1719.05465 0.02501
1717.76889 0.02558
1716.48314 0.02587
1715.19738 0.02594
1713.91162 0.02600
1712.62587 0.02620
1711.34011 0.02658
1710.05436 0.02707
1708.76860 0.02762
1707.48285 0.02816
1706.19709 0.02869
1704.91134 0.02927
1703.62558 0.03001
1702.33983 0.03092
1701.05407 0.03188
1699.76832 0.03278
1698.48256 0.03361
1697.19681 0.03440
1695.91105 0.03508
1694.62530 0.03559
1693.33954 0.03598
1692.05379 0.03646
1690.76803 0.03714
1689.48228 0.03803
1688.19652 0.03914
1686.91077 0.04045
1685.62501 0.04180
1684.33926 0.04289
1683.05350 0.04359
1681.76775 0.04409
1680.48199 0.04476
1679.19624 0.04572
1677.91048 0.04686
1676.62473 0.04793
1675.33897 0.04877
1674.05322 0.04941
1672.76746 0.05004
1671.48170 0.05083
1670.19595 0.05178
1668.91019 0.05278
1667.62444 0.05368
1666.33868 0.05451
1665.05293 0.05533
1663.76717 0.05614
1662.48142 0.05686
1661.19566 0.05743
1659.90991 0.05786
1658.62415 0.05831
1657.33840 0.05902
1656.05264 0.06014
1654.76689 0.06140
1653.48113 0.06227
1652.19538 0.06242
1650.90962 0.06206
1649.62387 0.06176
1648.33811 0.06186
1647.05236 0.06222
1645.76660 0.06243
1644.48085 0.06231
1643.19509 0.06197
1641.90934 0.06159
1640.62358 0.06128
1639.33783 0.06113
1638.05207 0.06111
1636.76632 0.06108
1635.48056 0.06077
1634.19481 0.06005
1632.90905 0.05909
1631.62329 0.05819
1630.33754 0.05750
1629.05178 0.05698
1627.76603 0.05650
1626.48027 0.05599
1625.19452 0.05544
1623.90876 0.05482
1622.62301 0.05411
1621.33725 0.05339
1620.05150 0.05280
1618.76574 0.05240
1617.47999 0.05204
1616.19423 0.05153
1614.90848 0.05084
1613.62272 0.05013
1612.33697 0.04957
1611.05121 0.04920
1609.76546 0.04892
1608.47970 0.04862
1607.19395 0.04829
1605.90819 0.04799
1604.62244 0.04774
1603.33668 0.04755
1602.05093 0.04744
1600.76517 0.04740
1599.47942 0.04743
1598.19366 0.04748
1596.90791 0.04753
1595.62215 0.04759
1594.33640 0.04765
1593.05064 0.04774
1591.76488 0.04787
1590.47913 0.04804
1589.19337 0.04826
1587.90762 0.04848
1586.62186 0.04870
1585.33611 0.04892
1584.05035 0.04917
1582.76460 0.04950
1581.47884 0.04993
1580.19309 0.05050
1578.90733 0.05123
1577.62158 0.05204
1576.33582 0.05275
1575.05007 0.05323
1573.76431 0.05359
1572.47856 0.05404
1571.19280 0.05470
1569.90705 0.05540
1568.62129 0.05598
1567.33554 0.05635
1566.04978 0.05657
1564.76403 0.05682
1563.47827 0.05729
1562.19252 0.05810
1560.90676 0.05910
1559.62101 0.05996
1558.33525 0.06038
1557.04950 0.06042
1555.76374 0.06043
1554.47799 0.06066
1553.19223 0.06112
1551.90648 0.06161
1550.62072 0.06201
1549.33496 0.06228
1548.04921 0.06245
1546.76345 0.06258
1545.47770 0.06270
1544.19194 0.06284
1542.90619 0.06302
1541.62043 0.06317
1540.33468 0.06311
1539.04892 0.06273
1537.76317 0.06214
1536.47741 0.06161
1535.19166 0.06135
1533.90590 0.06131
1532.62015 0.06130
1531.33439 0.06121
1530.04864 0.06109
1528.76288 0.06104
1527.47713 0.06109
1526.19137 0.06127
1524.90562 0.06158
1523.61986 0.06202
1522.33411 0.06250
1521.04835 0.06287
1519.76260 0.06310
1518.47684 0.06329
1517.19109 0.06354
1515.90533 0.06394
1514.61958 0.06447
1513.33382 0.06511
1512.04807 0.06588
1510.76231 0.06686
1509.47655 0.06808
1508.19080 0.06940
1506.90504 0.07052
1505.61929 0.07123
1504.33353 0.07159
1503.04778 0.07189
1501.76202 0.07237
1500.47627 0.07305
1499.19051 0.07376
1497.90476 0.07434
1496.61900 0.07474
1495.33325 0.07493
1494.04749 0.07504
1492.76174 0.07521
1491.47598 0.07554
1490.19023 0.07599
1488.90447 0.07649
1487.61872 0.07699
1486.33296 0.07756
1485.04721 0.07831
1483.76145 0.07926
1482.47570 0.08039
1481.18994 0.08160
1479.90419 0.08288
1478.61843 0.08421
1477.33268 0.08566
1476.04692 0.08723
1474.76117 0.08882
1473.47541 0.09029
1472.18966 0.09152
1470.90390 0.09250
1469.61814 0.09334
1468.33239 0.09417
1467.04663 0.09501
1465.76088 0.09581
1464.47512 0.09653
1463.18937 0.09722
1461.90361 0.09804
1460.61786 0.09916
1459.33210 0.10062
1458.04635 0.10215
1456.76059 0.10338
1455.47484 0.10410
1454.18908 0.10443
1452.90333 0.10464
1451.61757 0.10489
1450.33182 0.10516
1449.04606 0.10532
1447.76031 0.10522
1446.47455 0.10481
1445.18880 0.10410
1443.90304 0.10313
1442.61729 0.10197
1441.33153 0.10074
1440.04578 0.09962
1438.76002 0.09871
1437.47427 0.09799
1436.18851 0.09741
1434.90276 0.09696
1433.61700 0.09675
1432.33125 0.09690
1431.04549 0.09744
1429.75974 0.09830
1428.47398 0.09939
1427.18822 0.10067
1425.90247 0.10211
1424.61671 0.10369
1423.33096 0.10543
1422.04520 0.10730
1420.75945 0.10915
1419.47369 0.11081
1418.18794 0.11212
1416.90218 0.11311
1415.61643 0.11391
1414.33067 0.11462
1413.04492 0.11523
1411.75916 0.11561
1410.47341 0.11567
1409.18765 0.11533
1407.90190 0.11462
1406.61614 0.11361
1405.33039 0.11235
1404.04463 0.11086
1402.75888 0.10915
1401.47312 0.10725
1400.18737 0.10520
1398.90161 0.10300
1397.61586 0.10068
1396.33010 0.09828
1395.04435 0.09580
1393.75859 0.09327
1392.47284 0.09073
1391.18708 0.08830
1389.90133 0.08607
1388.61557 0.08403
1387.32981 0.08206
1386.04406 0.08006
1384.75830 0.07803
1383.47255 0.07606
1382.18679 0.07420
1380.90104 0.07240
1379.61528 0.07061
1378.32953 0.06880
1377.04377 0.06698
1375.75802 0.06516
1374.47226 0.06330
1373.18651 0.06138
1371.90075 0.05945
1370.61500 0.05758
1369.32924 0.05580
1368.04349 0.05411
1366.75773 0.05249
1365.47198 0.05096
1364.18622 0.04956
1362.90047 0.04827
1361.61471 0.04706
1360.32896 0.04590
1359.04320 0.04480
1357.75745 0.04381
1356.47169 0.04293
1355.18594 0.04213
1353.90018 0.04141
1352.61443 0.04075
1351.32867 0.04018
1350.04292 0.03968
1348.75716 0.03923
1347.47141 0.03880
1346.18565 0.03835
1344.89989 0.03792
1343.61414 0.03749
1342.32838 0.03708
1341.04263 0.03668
1339.75687 0.03630
1338.47112 0.03595
1337.18536 0.03564
1335.89961 0.03534
1334.61385 0.03502
1333.32810 0.03469
1332.04234 0.03435
1330.75659 0.03401
1329.47083 0.03368
1328.18508 0.03339
1326.89932 0.03314
1325.61357 0.03291
1324.32781 0.03269
1323.04206 0.03245
1321.75630 0.03221
1320.47055 0.03195
1319.18479 0.03169
1317.89904 0.03144
1316.61328 0.03121
1315.32753 0.03100
1314.04177 0.03079
1312.75602 0.03053
1311.47026 0.03023
1310.18451 0.02995
1308.89875 0.02974
1307.61300 0.02957
1306.32724 0.02940
1305.04148 0.02922
1303.75573 0.02904
1302.46997 0.02889
1301.18422 0.02875
1299.89846 0.02857
1298.61271 0.02836
1297.32695 0.02813
1296.04120 0.02793
1294.75544 0.02775
1293.46969 0.02761
1292.18393 0.02747
1290.89818 0.02734
1289.61242 0.02719
1288.32667 0.02703
1287.04091 0.02689
1285.75516 0.02681
1284.46940 0.02683
1283.18365 0.02688
1281.89789 0.02689
1280.61214 0.02683
1279.32638 0.02673
1278.04063 0.02662
1276.75487 0.02655
1275.46912 0.02652
1274.18336 0.02658
1272.89761 0.02677
1271.61185 0.02717
1270.32610 0.02785
1269.04034 0.02891
1267.75459 0.03037
1266.46883 0.03220
1265.18307 0.03422
1263.89732 0.03615
1262.61156 0.03766
1261.32581 0.03845
1260.04005 0.03837
1258.75430 0.03748
1257.46854 0.03600
1256.18279 0.03424
1254.89703 0.03249
1253.61128 0.03094
1252.32552 0.02968
1251.03977 0.02871
1249.75401 0.02797
1248.46826 0.02737
1247.18250 0.02683
1245.89675 0.02634
1244.61099 0.02592
1243.32524 0.02561
1242.03948 0.02541
1240.75373 0.02528
1239.46797 0.02515
1238.18222 0.02498
1236.89646 0.02476
1235.61071 0.02449
1234.32495 0.02421
1233.03920 0.02395
1231.75344 0.02375
1230.46769 0.02361
1229.18193 0.02351
1227.89618 0.02339
1226.61042 0.02322
1225.32467 0.02297
1224.03891 0.02269
1222.75315 0.02241
1221.46740 0.02221
1220.18164 0.02208
1218.89589 0.02200
1217.61013 0.02190
1216.32438 0.02174
1215.03862 0.02156
1213.75287 0.02140
1212.46711 0.02130
1211.18136 0.02126
1209.89560 0.02124
1208.60985 0.02123
1207.32409 0.02124
1206.03834 0.02128
1204.75258 0.02133
1203.46683 0.02136
1202.18107 0.02135
1200.89532 0.02114
1199.60956 0.02072
1198.32381 0.02064
1197.03805 0.02057
1195.75230 0.02047
1194.46654 0.02034
1193.18079 0.02022
1191.89503 0.02013
1190.60928 0.02009
1189.32352 0.02007
1188.03777 0.02005
1186.75201 0.02000
1185.46626 0.01992
1184.18050 0.01980
1182.89474 0.01967
1181.60899 0.01959
1180.32323 0.01959
1179.03748 0.01963
1177.75172 0.01967
1176.46597 0.01970
1175.18021 0.01978
1173.89446 0.01990
1172.60870 0.02000
1171.32295 0.02007
1170.03719 0.02014
1168.75144 0.02028
1167.46568 0.02049
1166.17993 0.02074
1164.89417 0.02098
1163.60842 0.02123
1162.32266 0.02149
1161.03691 0.02173
1159.75115 0.02194
1158.46540 0.02215
1157.17964 0.02241
1155.89389 0.02274
1154.60813 0.02311
1153.32238 0.02348
1152.03662 0.02386
1150.75087 0.02430
1149.46511 0.02481
1148.17936 0.02536
1146.89360 0.02593
1145.60785 0.02655
1144.32209 0.02724
1143.03633 0.02802
1141.75058 0.02885
1140.46482 0.02977
1139.17907 0.03079
1137.89331 0.03196
1136.60756 0.03326
1135.32180 0.03468
1134.03605 0.03621
1132.75029 0.03789
1131.46454 0.03978
1130.17878 0.04188
1128.89303 0.04418
1127.60727 0.04665
1126.32152 0.04929
1125.03576 0.05214
1123.75001 0.05522
1122.46425 0.05854
1121.17850 0.06209
1119.89274 0.06585
1118.60699 0.06976
1117.32123 0.07373
1116.03548 0.07774
1114.74972 0.08176
1113.46397 0.08583
1112.17821 0.08995
1110.89246 0.09410
1109.60670 0.09826
1108.32095 0.10242
1107.03519 0.10649
1105.74944 0.11043
1104.46368 0.11424
1103.17793 0.11803
1101.89217 0.12187
1100.60641 0.12576
1099.32066 0.12955
1098.03490 0.13313
1096.74915 0.13646
1095.46339 0.13962
1094.17764 0.14263
1092.89188 0.14545
1091.60613 0.14803
1090.32037 0.15031
1089.03462 0.15235
1087.74886 0.15422
1086.46311 0.15602
1085.17735 0.15782
1083.89160 0.15968
1082.60584 0.16161
1081.32009 0.16369
1080.03433 0.16603
1078.74858 0.16871
1077.46282 0.17170
1076.17707 0.17496
1074.89131 0.17844
1073.60556 0.18210
1072.31980 0.18593
1071.03405 0.18988
1069.74829 0.19392
1068.46254 0.19805
1067.17678 0.20225
1065.89103 0.20654
1064.60527 0.21093
1063.31952 0.21544
1062.03376 0.22003
1060.74800 0.22461
1059.46225 0.22913
1058.17649 0.23360
1056.89074 0.23804
1055.60498 0.24251
1054.31923 0.24700
1053.03347 0.25149
1051.74772 0.25598
1050.46196 0.26049
1049.17621 0.26506
1047.89045 0.26970
1046.60470 0.27444
1045.31894 0.27930
1044.03319 0.28426
1042.74743 0.28927
1041.46168 0.29427
1040.17592 0.29925
1038.89017 0.30423
1037.60441 0.30925
1036.31866 0.31429
1035.03290 0.31931
1033.74715 0.32420
1032.46139 0.32885
1031.17564 0.33315
1029.88988 0.33703
1028.60413 0.34046
1027.31837 0.34345
1026.03262 0.34604
1024.74686 0.34824
1023.46111 0.35007
1022.17535 0.35145
1020.88960 0.35224
1019.60384 0.35236
1018.31808 0.35179
1017.03233 0.35065
1015.74657 0.34907
1014.46082 0.34703
1013.17506 0.34442
1011.88931 0.34112
1010.60355 0.33716
1009.31780 0.33261
1008.03204 0.32754
1006.74629 0.32196
1005.46053 0.31586
1004.17478 0.30929
1002.88902 0.30230
1001.60327 0.29500
1000.31751 0.28750
999.03176 0.27987
997.74600 0.27211
996.46025 0.26419
995.17449 0.25612
993.88874 0.24800
992.60298 0.23995
991.31723 0.23206
990.03147 0.22434
988.74572 0.21681
987.45996 0.20951
986.17421 0.20247
984.88845 0.19565
983.60270 0.18904
982.31694 0.18262
981.03119 0.17643
979.74543 0.17052
978.45967 0.16489
977.17392 0.15958
975.88816 0.15467
974.60241 0.15029
973.31665 0.14653
972.03090 0.14341
970.74514 0.14095
969.45939 0.13924
968.17363 0.13841
966.88788 0.13850
965.60212 0.13937
964.31637 0.14067
963.03061 0.14196
961.74486 0.14279
960.45910 0.14280
959.17335 0.14180
957.88759 0.13975
956.60184 0.13685
955.31608 0.13340
954.03033 0.12976
952.74457 0.12620
951.45882 0.12283
950.17306 0.11960
948.88731 0.11644
947.60155 0.11328
946.31580 0.11017
945.03004 0.10716
943.74429 0.10427
942.45853 0.10147
941.17278 0.09874
939.88702 0.09612
938.60126 0.09372
937.31551 0.09161
936.02975 0.08973
934.74400 0.08794
933.45824 0.08610
932.17249 0.08422
930.88673 0.08238
929.60098 0.08067
928.31522 0.07915
927.02947 0.07785
925.74371 0.07674
924.45796 0.07573
923.17220 0.07472
921.88645 0.07368
920.60069 0.07264
919.31494 0.07162
918.02918 0.07061
916.74343 0.06964
915.45767 0.06874
914.17192 0.06793
912.88616 0.06719
911.60041 0.06645
910.31465 0.06568
909.02890 0.06493
907.74314 0.06430
906.45739 0.06380
905.17163 0.06335
903.88588 0.06283
902.60012 0.06215
901.31437 0.06135
900.02861 0.06056
898.74286 0.05986
897.45710 0.05931
896.17134 0.05886
894.88559 0.05851
893.59983 0.05824
892.31408 0.05800
891.02832 0.05780
889.74257 0.05771
888.45681 0.05786
887.17106 0.05840
885.88530 0.05947
884.59955 0.06127
883.31379 0.06387
882.02804 0.06703
880.74228 0.07019
879.45653 0.07274
878.17077 0.07446
876.88502 0.07572
875.59926 0.07704
874.31351 0.07858
873.02775 0.07992
871.74200 0.08046
870.45624 0.07997
869.17049 0.07869
867.88473 0.07699
866.59898 0.07504
865.31322 0.07290
864.02747 0.07065
862.74171 0.06841
861.45596 0.06632
860.17020 0.06446
858.88445 0.06283
857.59869 0.06145
856.31293 0.06030
855.02718 0.05935
853.74142 0.05852
852.45567 0.05772
851.16991 0.05689
849.88416 0.05607
848.59840 0.05537
847.31265 0.05484
846.02689 0.05447
844.74114 0.05414
843.45538 0.05377
842.16963 0.05335
840.88387 0.05288
839.59812 0.05236
838.31236 0.05185
837.02661 0.05139
835.74085 0.05102
834.45510 0.05075
833.16934 0.05059
831.88359 0.05060
830.59783 0.05079
829.31208 0.05111
828.02632 0.05157
826.74057 0.05220
825.45481 0.05305
824.16906 0.05407
822.88330 0.05510
821.59755 0.05595
820.31179 0.05657
819.02604 0.05705
817.74028 0.05751
816.45452 0.05799
815.16877 0.05847
813.88301 0.05899
812.59726 0.05964
811.31150 0.06047
810.02575 0.06147
808.73999 0.06251
807.45424 0.06344
806.16848 0.06419
804.88273 0.06478
803.59697 0.06525
802.31122 0.06561
801.02546 0.06579
799.73971 0.06571
798.45395 0.06539
797.16820 0.06488
795.88244 0.06423
794.59669 0.06341
793.31093 0.06238
792.02518 0.06119
790.73942 0.05992
789.45367 0.05859
788.16791 0.05722
786.88216 0.05581
785.59640 0.05444
784.31065 0.05317
783.02489 0.05201
781.73914 0.05095
780.45338 0.05002
779.16763 0.04928
777.88187 0.04879
776.59612 0.04848
775.31036 0.04821
774.02460 0.04791
772.73885 0.04758
771.45309 0.04725
770.16734 0.04694
768.88158 0.04667
767.59583 0.04644
766.31007 0.04622
765.02432 0.04602
763.73856 0.04586
762.45281 0.04578
761.16705 0.04575
759.88130 0.04568
758.59554 0.04556
757.30979 0.04549
756.02403 0.04554
754.73828 0.04564
753.45252 0.04565
752.16677 0.04548
750.88101 0.04520
749.59526 0.04492
748.30950 0.04470
747.02375 0.04456
745.73799 0.04449
744.45224 0.04443
743.16648 0.04432
741.88073 0.04419
740.59497 0.04412
739.30922 0.04410
738.02346 0.04402
736.73771 0.04381
735.45195 0.04352
734.16619 0.04329
732.88044 0.04318
731.59468 0.04316
730.30893 0.04318
729.02317 0.04320
727.73742 0.04316
726.45166 0.04309
725.16591 0.04304
723.88015 0.04309
722.59440 0.04326
721.30864 0.04343
720.02289 0.04349
718.73713 0.04342
717.45138 0.04325
716.16562 0.04306
714.87987 0.04290
713.59411 0.04283
712.30836 0.04283
711.02260 0.04287
709.73685 0.04290
708.45109 0.04291
707.16534 0.04292
705.87958 0.04293
704.59383 0.04295
703.30807 0.04297
702.02232 0.04298
700.73656 0.04298
699.45081 0.04296
698.16505 0.04290
696.87930 0.04284
695.59354 0.04281
694.30779 0.04278
693.02203 0.04272
691.73627 0.04262
690.45052 0.04251
689.16476 0.04244
687.87901 0.04237
686.59325 0.04228
685.30750 0.04212
684.02174 0.04193
682.73599 0.04175
681.45023 0.04161
680.16448 0.04150
678.87872 0.04141
677.59297 0.04136
676.30721 0.04138
675.02146 0.04146
673.73570 0.04153
672.44995 0.04160
671.16419 0.04167
669.87844 0.04177
668.59268 0.04176
667.30693 0.04167
666.02117 0.04169
664.73542 0.04156
663.44966 0.04141
662.16391 0.04127
660.87815 0.04112
659.59240 0.04098
658.30664 0.04083
657.02089 0.04069
655.73513 0.04060
654.44938 0.04059
653.16362 0.04067
651.87786 0.04081
650.59211 0.04100
649.30635 0.04119
648.02060 0.04138
646.73484 0.04154
645.44909 0.04171
644.16333 0.04192
642.87758 0.04217
641.59182 0.04242
640.30607 0.04269
639.02031 0.04301
637.73456 0.04343
636.44880 0.04392
635.16305 0.04442
633.87729 0.04486
632.59154 0.04519
631.30578 0.04569
630.02003 0.04754
628.73427 0.05018
627.44852 0.04907
626.16276 0.05217
624.87701 0.05842
623.59125 0.06501
622.30550 0.07066
621.01974 0.07449
619.73399 0.07630
618.44823 0.07672
617.16248 0.07649
615.87672 0.07615
614.59097 0.07654
613.30521 0.07881
612.01945 0.08362
610.73370 0.09048
609.44794 0.09820
608.16219 0.10597
606.87643 0.11354
605.59068 0.12065
604.30492 0.12658
603.01917 0.13049
601.73341 0.13187
600.44766 0.13080
599.16190 0.12784
597.87615 0.12376
596.59039 0.11932
595.30464 0.11505
594.01888 0.11124
592.73313 0.10797
591.44737 0.10525
590.16162 0.10313
588.87586 0.10172
587.59011 0.10116
586.30435 0.10149
585.01860 0.10263
583.73284 0.10445
582.44709 0.10688
581.16133 0.10995
579.87558 0.11361
578.58982 0.11767
577.30407 0.12188
576.01831 0.12606
574.73256 0.13014
573.44680 0.13416
572.16105 0.13824
570.87529 0.14262
569.58953 0.14748
568.30378 0.15277
567.01802 0.15825
565.73227 0.16354
564.44651 0.16822
563.16076 0.17181
561.87500 0.17383
560.58925 0.17384
559.30349 0.17161
558.01774 0.16719
556.73198 0.16098
555.44623 0.15364
554.16047 0.14591
552.87472 0.13833
551.58896 0.13120
550.30321 0.12463
549.01745 0.11866
547.73170 0.11328
546.44594 0.10838
545.16019 0.10376
543.87443 0.09929
542.58868 0.09494
541.30292 0.09083
540.01717 0.08712
538.73141 0.08393
537.44566 0.08126
536.15990 0.07896
534.87415 0.07682
533.58839 0.07467
532.30264 0.07248
531.01688 0.07035
529.73112 0.06838
528.44537 0.06663
527.15961 0.06507
525.87386 0.06366
524.58810 0.06231
523.30235 0.06092
522.01659 0.05943
520.73084 0.05790
519.44508 0.05645
518.15933 0.05512
516.87357 0.05387
515.58782 0.05265
514.30206 0.05149
513.01631 0.05042
511.73055 0.04946
510.44480 0.04863
509.15904 0.04790
507.87329 0.04724
506.58753 0.04661
505.30178 0.04599
504.01602 0.04534
502.73027 0.04465
501.44451 0.04392
500.15876 0.04319
498.87300 0.04254
497.58725 0.04202
496.30149 0.04162
495.01574 0.04125
493.72998 0.04083
492.44423 0.04038
491.15847 0.03997
489.87271 0.03963
488.58696 0.03935
487.30120 0.03910
486.01545 0.03885
484.72969 0.03858
483.44394 0.03832
482.15818 0.03811
480.87243 0.03805
479.58667 0.03813
478.30092 0.03829
477.01516 0.03847
475.72941 0.03866
474.44365 0.03886
473.15790 0.03906
471.87214 0.03920
470.58639 0.03923
469.30063 0.03911
468.01488 0.03882
466.72912 0.03840
465.44337 0.03790
464.15761 0.03741
462.87186 0.03690
461.58610 0.03636
460.30035 0.03578
459.01459 0.03521
457.72884 0.03467
456.44308 0.03418
455.15733 0.03369
453.87157 0.03320
452.58582 0.03275
451.30006 0.03234
450.01431 0.03200
448.72855 0.03171
447.44279 0.03149
446.15704 0.03136
444.87128 0.03131
443.58553 0.03130
442.29977 0.03125
441.01402 0.03114
439.72826 0.03096
438.44251 0.03073
437.15675 0.03045
435.87100 0.03013
434.58524 0.02982
433.29949 0.02957
432.01373 0.02942
430.72798 0.02934
429.44222 0.02931
428.15647 0.02931
426.87071 0.02930
425.58496 0.02924
424.29920 0.02913
423.01345 0.02896
421.72769 0.02876
420.44194 0.02857
419.15618 0.02837
417.87043 0.02816
416.58467 0.02797
415.29892 0.02784
414.01316 0.02780
412.72741 0.02787
411.44165 0.02800
410.15590 0.02815
408.87014 0.02826
407.58438 0.02834
406.29863 0.02844
405.01287 0.02856
403.72712 0.02871
402.44136 0.02887
401.15561 0.02905
399.86985 0.02925
