3998.69854 0.06430
3997.41278 0.06484
3996.12703 0.06573
3994.84127 0.06575
3993.55552 0.06346
3992.26976 0.05937
3990.98401 0.05592
3989.69825 0.05506
3988.41250 0.05649
3987.12674 0.05851
3985.84099 0.06011
3984.55523 0.06154
3983.26948 0.06340
3981.98372 0.06573
3980.69797 0.06790
3979.41221 0.06901
3978.12646 0.06856
3976.84070 0.06678
3975.55495 0.06427
3974.26919 0.06137
3972.98344 0.05861
3971.69768 0.05741
3970.41193 0.05912
3969.12617 0.06312
3967.84042 0.06685
3966.55466 0.06830
3965.26891 0.06774
3963.98315 0.06693
3962.69740 0.06711
3961.41164 0.06819
3960.12589 0.06933
3958.84013 0.06972
3957.55437 0.06898
3956.26862 0.06722
3954.98286 0.06472
3953.69711 0.06165
3952.41135 0.05814
3951.12560 0.05486
3949.83984 0.05297
3948.55409 0.05320
3947.26833 0.05489
3945.98258 0.05625
3944.69682 0.05600
3943.41107 0.05466
3942.12531 0.05422
3940.83956 0.05667
3939.55380 0.06235
3938.26805 0.06952
3936.98229 0.07524
3935.69654 0.07738
3934.41078 0.07607
3933.12503 0.07327
3931.83927 0.07078
3930.55352 0.06882
3929.26776 0.06657
3927.98201 0.06357
3926.69625 0.06032
3925.41050 0.05756
3924.12474 0.05580
3922.83899 0.05557
3921.55323 0.05739
3920.26748 0.06080
3918.98172 0.06410
3917.69596 0.06598
3916.41021 0.06692
3915.12445 0.06843
3913.83870 0.07109
3912.55294 0.07408
3911.26719 0.07630
3909.98143 0.07717
3908.69568 0.07683
3907.40992 0.07601
3906.12417 0.07594
3904.83841 0.07756
3903.55266 0.08063
3902.26690 0.08373
3900.98115 0.08541
3899.69539 0.08552
3898.40964 0.08520
3897.12388 0.08540
3895.83813 0.08581
3894.55237 0.08511
3893.26662 0.08280
3891.98086 0.08032
3890.69511 0.07984
3889.40935 0.08157
3888.12360 0.08306
3886.83784 0.08190
3885.55209 0.07848
3884.26633 0.07527
3882.98058 0.07372
3881.69482 0.07315
3880.40907 0.07248
3879.12331 0.07135
3877.83755 0.06979
3876.55180 0.06835
3875.26604 0.06874
3873.98029 0.07269
3872.69453 0.07945
3871.40878 0.08586
3870.12302 0.08942
3868.83727 0.09040
3867.55151 0.09063
3866.26576 0.09078
3864.98000 0.08959
3863.69425 0.08571
3862.40849 0.07970
3861.12274 0.07398
3859.83698 0.07104
3858.55123 0.07153
3857.26547 0.07401
3855.97972 0.07599
3854.69396 0.07566
3853.40821 0.07309
3852.12245 0.07027
3850.83670 0.06939
3849.55094 0.07086
3848.26519 0.07289
3846.97943 0.07338
3845.69368 0.07254
3844.40792 0.07286
3843.12217 0.07617
3841.83641 0.08077
3840.55066 0.08290
3839.26490 0.08084
3837.97915 0.07670
3836.69339 0.07368
3835.40763 0.07245
3834.12188 0.07116
3832.83612 0.06864
3831.55037 0.06608
3830.26461 0.06542
3828.97886 0.06733
3827.69310 0.07115
3826.40735 0.07600
3825.12159 0.08067
3823.83584 0.08294
3822.55008 0.08092
3821.26433 0.07547
3819.97857 0.07004
3818.69282 0.06779
3817.40706 0.06935
3816.12131 0.07317
3814.83555 0.07672
3813.54980 0.07790
3812.26404 0.07676
3810.97829 0.07569
3809.69253 0.07693
3808.40678 0.08002
3807.12102 0.08261
3805.83527 0.08306
3804.54951 0.08176
3803.26376 0.08021
3801.97800 0.07977
3800.69225 0.08083
3799.40649 0.08255
3798.12074 0.08367
3796.83498 0.08387
3795.54922 0.08364
3794.26347 0.08281
3792.97771 0.08040
3791.69196 0.07625
3790.40620 0.07211
3789.12045 0.07028
3787.83469 0.07117
3786.54894 0.07317
3785.26318 0.07463
3783.97743 0.07547
3782.69167 0.07673
3781.40592 0.07902
3780.12016 0.08198
3778.83441 0.08491
3777.54865 0.08756
3776.26290 0.08996
3774.97714 0.09183
3773.69139 0.09236
3772.40563 0.09077
3771.11988 0.08693
3769.83412 0.08167
3768.54837 0.07697
3767.26261 0.07502
3765.97686 0.07651
3764.69110 0.08001
3763.40535 0.08340
3762.11959 0.08572
3760.83384 0.08723
3759.54808 0.08819
3758.26233 0.08853
3756.97657 0.08830
3755.69081 0.08793
3754.40506 0.08786
3753.11930 0.08825
3751.83355 0.08881
3750.54779 0.08961
3749.26204 0.09159
3747.97628 0.09563
3746.69053 0.10085
3745.40477 0.10447
3744.11902 0.10375
3742.83326 0.09821
3741.54751 0.09039
3740.26175 0.08450
3738.97600 0.08341
3737.69024 0.08648
3736.40449 0.09038
3735.11873 0.09249
3733.83298 0.09266
3732.54722 0.09253
3731.26147 0.09363
3729.97571 0.09615
3728.68996 0.09900
3727.40420 0.10074
3726.11845 0.10079
3724.83269 0.09969
3723.54694 0.09823
3722.26118 0.09650
3720.97543 0.09405
3719.68967 0.09097
3718.40392 0.08877
3717.11816 0.08981
3715.83241 0.09499
3714.54665 0.10165
3713.26089 0.10469
3711.97514 0.10098
3710.68938 0.09274
3709.40363 0.08595
3708.11787 0.08497
3706.83212 0.08903
3705.54636 0.09338
3704.26061 0.09372
3702.97485 0.08947
3701.68910 0.08351
3700.40334 0.08006
3699.11759 0.08238
3697.83183 0.09063
3696.54608 0.10140
3695.26032 0.11055
3693.97457 0.11669
3692.68881 0.12078
3691.40306 0.12307
3690.11730 0.12214
3688.83155 0.11668
3687.54579 0.10714
3686.26004 0.09547
3684.97428 0.08421
3683.68853 0.07620
3682.40277 0.07402
3681.11702 0.07881
3679.83126 0.08846
3678.54551 0.09733
3677.25975 0.09967
3675.97400 0.09472
3674.68824 0.08767
3673.40248 0.08439
3672.11673 0.08622
3670.83097 0.09064
3669.54522 0.09511
3668.25946 0.09845
3666.97371 0.09949
3665.68795 0.09703
3664.40220 0.09160
3663.11644 0.08597
3661.83069 0.08293
3660.54493 0.08302
3659.25918 0.08484
3657.97342 0.08692
3656.68767 0.08844
3655.40191 0.08867
3654.11616 0.08686
3652.83040 0.08319
3651.54465 0.07924
3650.25889 0.07697
3648.97314 0.07656
3647.68738 0.07583
3646.40163 0.07272
3645.11587 0.06888
3643.83012 0.06985
3642.54436 0.07971
3641.25861 0.09584
3639.97285 0.11012
3638.68710 0.11571
3637.40134 0.11241
3636.11559 0.10573
3634.82983 0.10165
3633.54408 0.10228
3632.25832 0.10540
3630.97256 0.10709
3629.68681 0.10536
3628.40105 0.10178
3627.11530 0.09942
3625.82954 0.09932
3624.54379 0.09970
3623.25803 0.09912
3621.97228 0.09904
3620.68652 0.10192
3619.40077 0.10747
3618.11501 0.11260
3616.82926 0.11479
3615.54350 0.11416
3614.25775 0.11227
3612.97199 0.11056
3611.68624 0.11024
3610.40048 0.11222
3609.11473 0.11639
3607.82897 0.12082
3606.54322 0.12381
3605.25746 0.12603
3603.97171 0.12947
3602.68595 0.13448
3601.40020 0.13893
3600.11444 0.14023
3598.82869 0.13770
3597.54293 0.13266
3596.25718 0.12727
3594.97142 0.12352
3593.68567 0.12258
3592.39991 0.12407
3591.11415 0.12651
3589.82840 0.12912
3588.54264 0.13279
3587.25689 0.13843
3585.97113 0.14491
3584.68538 0.14960
3583.39962 0.15102
3582.11387 0.14996
3580.82811 0.14768
3579.54236 0.14417
3578.25660 0.13896
3576.97085 0.13263
3575.68509 0.12702
3574.39934 0.12417
3573.11358 0.12561
3571.82783 0.13156
3570.54207 0.13965
3569.25632 0.14535
3567.97056 0.14541
3566.68481 0.14133
3565.39905 0.13815
3564.11330 0.13934
3562.82754 0.14365
3561.54179 0.14662
3560.25603 0.14409
3558.97028 0.13490
3557.68452 0.12219
3556.39877 0.11248
3555.11301 0.11194
3553.82726 0.12132
3552.54150 0.13459
3551.25574 0.14342
3549.96999 0.14376
3548.68423 0.13790
3547.39848 0.13113
3546.11272 0.12741
3544.82697 0.12801
3543.54121 0.13273
3542.25546 0.14096
3540.96970 0.15121
3539.68395 0.16050
3538.39819 0.16554
3537.11244 0.16543
3535.82668 0.16332
3534.54093 0.16434
3533.25517 0.17042
3531.96942 0.17691
3530.68366 0.17617
3529.39791 0.16580
3528.11215 0.15207
3526.82640 0.14401
3525.54064 0.14527
3524.25489 0.15266
3522.96913 0.16096
3521.68338 0.16708
3520.39762 0.17060
3519.11187 0.17241
3517.82611 0.17313
3516.54036 0.17211
3515.25460 0.16826
3513.96885 0.16225
3512.68309 0.15706
3511.39734 0.15567
3510.11158 0.15869
3508.82582 0.16460
3507.54007 0.17124
3506.25431 0.17641
3504.96856 0.17831
3503.68280 0.17700
3502.39705 0.17545
3501.11129 0.17735
3499.82554 0.18290
3498.53978 0.18774
3497.25403 0.18696
3495.96827 0.17997
3494.68252 0.17081
3493.39676 0.16435
3492.11101 0.16309
3490.82525 0.16698
3489.53950 0.17463
3488.25374 0.18382
3486.96799 0.19107
3485.68223 0.19207
3484.39648 0.18428
3483.11072 0.16987
3481.82497 0.15529
3480.53921 0.14682
3479.25346 0.14632
3477.96770 0.15145
3476.68195 0.15891
3475.39619 0.16661
3474.11044 0.17312
3472.82468 0.17683
3471.53893 0.17679
3470.25317 0.17373
3468.96741 0.16967
3467.68166 0.16649
3466.39590 0.16481
3465.11015 0.16394
3463.82439 0.16281
3462.53864 0.16125
3461.25288 0.16014
3459.96713 0.16010
3458.68137 0.16065
3457.39562 0.16144
3456.10986 0.16345
3454.82411 0.16783
3453.53835 0.17359
3452.25260 0.17767
3450.96684 0.17749
3449.68109 0.17315
3448.39533 0.16719
3447.10958 0.16253
3445.82382 0.16056
3444.53807 0.16073
3443.25231 0.16167
3441.96656 0.16230
3440.68080 0.16228
3439.39505 0.16197
3438.10929 0.16219
3436.82354 0.16328
3435.53778 0.16454
3434.25203 0.16515
3432.96627 0.16574
3431.68052 0.16831
3430.39476 0.17422
3429.10900 0.18219
3427.82325 0.18827
3426.53749 0.18832
3425.25174 0.18182
3423.96598 0.17273
3422.68023 0.16644
3421.39447 0.16567
3420.10872 0.16950
3418.82296 0.17481
3417.53721 0.17795
3416.25145 0.17636
3414.96570 0.17052
3413.67994 0.16378
3412.39419 0.15927
3411.10843 0.15722
3409.82268 0.15582
3408.53692 0.15362
3407.25117 0.15068
3405.96541 0.14817
3404.67966 0.14711
3403.39390 0.14628
3402.10815 0.14323
3400.82239 0.13929
3399.53664 0.13340
3398.25088 0.12650
3396.96513 0.12088
3395.67937 0.11769
3394.39362 0.11761
3393.10786 0.12105
3391.82211 0.12695
3390.53635 0.13257
3389.25060 0.13554
3387.96484 0.13577
3386.67908 0.13504
3385.39333 0.13470
3384.10757 0.13443
3382.82182 0.13324
3381.53606 0.13118
3380.25031 0.12949
3378.96455 0.12880
3377.67880 0.12820
3376.39304 0.12661
3375.10729 0.12445
3373.82153 0.12346
3372.53578 0.12461
3371.25002 0.12694
3369.96427 0.12819
3368.67851 0.12679
3367.39276 0.12306
3366.10700 0.11900
3364.82125 0.11689
3363.53549 0.11760
3362.24974 0.11998
3360.96398 0.12159
3359.67823 0.12078
3358.39247 0.11858
3357.10672 0.11812
3355.82096 0.12140
3354.53521 0.12666
3353.24945 0.12988
3351.96370 0.12918
3350.67794 0.12656
3349.39219 0.12502
3348.10643 0.12508
3346.82067 0.12498
3345.53492 0.12342
3344.24916 0.12074
3342.96341 0.11784
3341.67765 0.11525
3340.39190 0.11358
3339.10614 0.11347
3337.82039 0.11438
3336.53463 0.11445
3335.24888 0.11237
3333.96312 0.10899
3332.67737 0.10611
3331.39161 0.10418
3330.10586 0.10193
3328.82010 0.09850
3327.53435 0.09506
3326.24859 0.09378
3324.96284 0.09575
3323.67708 0.10020
3322.39133 0.10538
3321.10557 0.10968
3319.81982 0.11209
3318.53406 0.11215
3317.24831 0.11006
3315.96255 0.10662
3314.67680 0.10322
3313.39104 0.10142
3312.10529 0.10221
3310.81953 0.10502
3309.53378 0.10783
3308.24802 0.10868
3306.96227 0.10761
3305.67651 0.10680
3304.39075 0.10822
3303.10500 0.11125
3301.81924 0.11303
3300.53349 0.11151
3299.24773 0.10771
3297.96198 0.10473
3296.67622 0.10474
3295.39047 0.10724
3294.10471 0.11001
3292.81896 0.11109
3291.53320 0.11010
3290.24745 0.10794
3288.96169 0.10567
3287.67594 0.10354
3286.39018 0.10149
3285.10443 0.10012
3283.81867 0.10058
3282.53292 0.10299
3281.24716 0.10567
3279.96141 0.10664
3278.67565 0.10560
3277.38990 0.10390
3276.10414 0.10290
3274.81839 0.10277
3273.53263 0.10270
3272.24688 0.10183
3270.96112 0.09963
3269.67537 0.09621
3268.38961 0.09249
3267.10386 0.09004
3265.81810 0.09009
3264.53234 0.09220
3263.24659 0.09438
3261.96083 0.09491
3260.67508 0.09395
3259.38932 0.09321
3258.10357 0.09371
3256.81781 0.09447
3255.53206 0.09377
3254.24630 0.09154
3252.96055 0.08978
3251.67479 0.09031
3250.38904 0.09245
3249.10328 0.09378
3247.81753 0.09279
3246.53177 0.09025
3245.24602 0.08781
3243.96026 0.08613
3242.67451 0.08448
3241.38875 0.08214
3240.10300 0.07975
3238.81724 0.07895
3237.53149 0.08059
3236.24573 0.08357
3234.95998 0.08573
3233.67422 0.08591
3232.38847 0.08491
3231.10271 0.08454
3229.81696 0.08588
3228.53120 0.08833
3227.24545 0.09019
3225.95969 0.09003
3224.67393 0.08776
3223.38818 0.08469
3222.10242 0.08250
3220.81667 0.08210
3219.53091 0.08312
3218.24516 0.08437
3216.95940 0.08495
3215.67365 0.08488
3214.38789 0.08469
3213.10214 0.08457
3211.81638 0.08412
3210.53063 0.08290
3209.24487 0.08113
3207.95912 0.07975
3206.67336 0.07948
3205.38761 0.07974
3204.10185 0.07915
3202.81610 0.07738
3201.53034 0.07547
3200.24459 0.07436
3198.95883 0.07384
3197.67308 0.07373
3196.38732 0.07473
3195.10157 0.07746
3193.81581 0.08100
3192.53006 0.08368
3191.24430 0.08482
3189.95855 0.08506
3188.67279 0.08518
3187.38704 0.08512
3186.10128 0.08448
3184.81553 0.08317
3183.52977 0.08146
3182.24401 0.07946
3180.95826 0.07706
3179.67250 0.07441
3178.38675 0.07223
3177.10099 0.07137
3175.81524 0.07207
3174.52948 0.07369
3173.24373 0.07517
3171.95797 0.07549
3170.67222 0.07416
3169.38646 0.07140
3168.10071 0.06805
3166.81495 0.06510
3165.52920 0.06316
3164.24344 0.06224
3162.95769 0.06187
3161.67193 0.06155
3160.38618 0.06133
3159.10042 0.06195
3157.81467 0.06386
3156.52891 0.06631
3155.24316 0.06772
3153.95740 0.06741
3152.67165 0.06622
3151.38589 0.06534
3150.10014 0.06499
3148.81438 0.06481
3147.52863 0.06486
3146.24287 0.06546
3144.95712 0.06633
3143.67136 0.06657
3142.38560 0.06579
3141.09985 0.06468
3139.81409 0.06433
3138.52834 0.06515
3137.24258 0.06646
3135.95683 0.06715
3134.67107 0.06662
3133.38532 0.06528
3132.09956 0.06407
3130.81381 0.06360
3129.52805 0.06362
3128.24230 0.06355
3126.95654 0.06326
3125.67079 0.06305
3124.38503 0.06283
3123.09928 0.06192
3121.81352 0.05998
3120.52777 0.05791
3119.24201 0.05704
3117.95626 0.05786
3116.67050 0.05990
3115.38475 0.06248
3114.09899 0.06499
3112.81324 0.06666
3111.52748 0.06672
3110.24173 0.06495
3108.95597 0.06187
3107.67022 0.05851
3106.38446 0.05603
3105.09871 0.05509
3103.81295 0.05543
3102.52719 0.05616
3101.24144 0.05659
3099.95568 0.05652
3098.66993 0.05594
3097.38417 0.05506
3096.09842 0.05445
3094.81266 0.05473
3093.52691 0.05611
3092.24115 0.05834
3090.95540 0.06091
3089.66964 0.06303
3088.38389 0.06384
3087.09813 0.06300
3085.81238 0.06105
3084.52662 0.05883
3083.24087 0.05682
3081.95511 0.05509
3080.66936 0.05387
3079.38360 0.05375
3078.09785 0.05500
3076.81209 0.05696
3075.52634 0.05845
3074.24058 0.05892
3072.95483 0.05878
3071.66907 0.05844
3070.38332 0.05771
3069.09756 0.05628
3067.81181 0.05453
3066.52605 0.05328
3065.24030 0.05299
3063.95454 0.05344
3062.66879 0.05405
3061.38303 0.05418
3060.09727 0.05359
3058.81152 0.05265
3057.52576 0.05203
3056.24001 0.05184
3054.95425 0.05153
3053.66850 0.05074
3052.38274 0.04998
3051.09699 0.05011
3049.81123 0.05122
3048.52548 0.05239
3047.23972 0.05257
3045.95397 0.05154
3044.66821 0.04991
3043.38246 0.04837
3042.09670 0.04726
3040.81095 0.04661
3039.52519 0.04646
3038.23944 0.04699
3036.95368 0.04844
3035.66793 0.05062
3034.38217 0.05267
3033.09642 0.05353
3031.81066 0.05297
3030.52491 0.05180
3029.23915 0.05087
3027.95340 0.05029
3026.66764 0.04963
3025.38189 0.04901
3024.09613 0.04926
3022.81038 0.05084
3021.52462 0.05301
3020.23886 0.05432
3018.95311 0.05381
3017.66735 0.05172
3016.38160 0.04896
3015.09584 0.04637
3013.81009 0.04443
3012.52433 0.04329
3011.23858 0.04306
3009.95282 0.04384
3008.66707 0.04558
3007.38131 0.04790
3006.09556 0.05008
3004.80980 0.05134
3003.52405 0.05076
3002.23829 0.04827
3000.95254 0.04728
2999.66678 0.04803
2998.38103 0.04739
2997.09527 0.04694
2995.80952 0.04668
2994.52376 0.04694
2993.23801 0.04796
2991.95225 0.04931
2990.66650 0.05032
2989.38074 0.05074
2988.09499 0.05070
2986.80923 0.05031
2985.52348 0.04972
2984.23772 0.04930
2982.95197 0.04932
2981.66621 0.04965
2980.38046 0.04984
2979.09470 0.04970
2977.80894 0.04944
2976.52319 0.04939
2975.23743 0.04966
2973.95168 0.04998
2972.66592 0.04988
2971.38017 0.04903
2970.09441 0.04770
2968.80866 0.04675
2967.52290 0.04688
2966.23715 0.04798
2964.95139 0.04932
2963.66564 0.05047
2962.37988 0.05147
2961.09413 0.05235
2959.80837 0.05278
2958.52262 0.05253
2957.23686 0.05182
2955.95111 0.05115
2954.66535 0.05082
2953.37960 0.05075
2952.09384 0.05054
2950.80809 0.04996
2949.52233 0.04918
2948.23658 0.04880
2946.95082 0.04926
2945.66507 0.05046
2944.37931 0.05189
2943.09356 0.05300
2941.80780 0.05350
2940.52205 0.05330
2939.23629 0.05240
2937.95053 0.05099
2936.66478 0.04968
2935.37902 0.04942
2934.09327 0.05084
2932.80751 0.05324
2931.52176 0.05485
2930.23600 0.05422
2928.95025 0.05168
2927.66449 0.04891
2926.37874 0.04739
2925.09298 0.04735
2923.80723 0.04808
2922.52147 0.04876
2921.23572 0.04890
2919.94996 0.04845
2918.66421 0.04766
2917.37845 0.04674
2916.09270 0.04580
2914.80694 0.04509
2913.52119 0.04511
2912.23543 0.04613
2910.94968 0.04761
2909.66392 0.04871
2908.37817 0.04919
2907.09241 0.04950
2905.80666 0.04983
2904.52090 0.04976
2903.23515 0.04889
2901.94939 0.04750
2900.66364 0.04623
2899.37788 0.04535
2898.09212 0.04469
2896.80637 0.04426
2895.52061 0.04431
2894.23486 0.04495
2892.94910 0.04587
2891.66335 0.04663
2890.37759 0.04708
2889.09184 0.04729
2887.80608 0.04720
2886.52033 0.04661
2885.23457 0.04563
2883.94882 0.04482
2882.66306 0.04460
2881.37731 0.04476
2880.09155 0.04474
2878.80580 0.04430
2877.52004 0.04378
2876.23429 0.04350
2874.94853 0.04331
2873.66278 0.04289
2872.37702 0.04220
2871.09127 0.04148
2869.80551 0.04093
2868.51976 0.04060
2867.23400 0.04046
2865.94825 0.04036
2864.66249 0.04011
2863.37674 0.03967
2862.09098 0.03920
2860.80523 0.03879
2859.51947 0.03828
2858.23372 0.03760
2856.94796 0.03717
2855.66220 0.03767
2854.37645 0.03922
2853.09069 0.04105
2851.80494 0.04206
2850.51918 0.04182
2849.23343 0.04070
2847.94767 0.03939
2846.66192 0.03834
2845.37616 0.03779
2844.09041 0.03782
2842.80465 0.03826
2841.51890 0.03866
2840.23314 0.03870
2838.94739 0.03852
2837.66163 0.03854
2836.37588 0.03887
2835.09012 0.03926
2833.80437 0.03935
2832.51861 0.03898
2831.23286 0.03824
2829.94710 0.03748
2828.66135 0.03702
2827.37559 0.03691
2826.08984 0.03684
2824.80408 0.03648
2823.51833 0.03589
2822.23257 0.03549
2820.94682 0.03560
2819.66106 0.03614
2818.37531 0.03666
2817.08955 0.03675
2815.80379 0.03629
2814.51804 0.03557
2813.23228 0.03502
2811.94653 0.03493
2810.66077 0.03526
2809.37502 0.03573
2808.08926 0.03597
2806.80351 0.03582
2805.51775 0.03535
2804.23200 0.03489
2802.94624 0.03483
2801.66049 0.03531
2800.37473 0.03599
2799.08898 0.03626
2797.80322 0.03581
2796.51747 0.03492
2795.23171 0.03409
2793.94596 0.03353
2792.66020 0.03325
2791.37445 0.03313
2790.08869 0.03303
2788.80294 0.03282
2787.51718 0.03249
2786.23143 0.03210
2784.94567 0.03168
2783.65992 0.03130
2782.37416 0.03124
2781.08841 0.03176
2779.80265 0.03274
2778.51690 0.03362
2777.23114 0.03399
2775.94538 0.03387
2774.65963 0.03364
2773.37387 0.03354
2772.08812 0.03351
2770.80236 0.03339
2769.51661 0.03315
2768.23085 0.03293
2766.94510 0.03279
2765.65934 0.03270
2764.37359 0.03252
2763.08783 0.03221
2761.80208 0.03192
2760.51632 0.03196
2759.23057 0.03243
2757.94481 0.03303
2756.65906 0.03326
2755.37330 0.03283
2754.08755 0.03191
2752.80179 0.03091
2751.51604 0.03028
2750.23028 0.03027
2748.94453 0.03076
2747.65877 0.03123
2746.37302 0.03121
2745.08726 0.03078
2743.80151 0.03053
2742.51575 0.03089
2741.23000 0.03164
2739.94424 0.03220
2738.65849 0.03228
2737.37273 0.03207
2736.08698 0.03192
2734.80122 0.03196
2733.51546 0.03210
2732.22971 0.03225
2730.94395 0.03232
2729.65820 0.03228
2728.37244 0.03209
2727.08669 0.03165
2725.80093 0.03099
2724.51518 0.03035
2723.22942 0.03011
2721.94367 0.03038
2720.65791 0.03083
2719.37216 0.03084
2718.08640 0.03013
2716.80065 0.02909
2715.51489 0.02846
2714.22914 0.02868
2712.94338 0.02960
2711.65763 0.03074
2710.37187 0.03167
2709.08612 0.03217
2707.80036 0.03224
2706.51461 0.03210
2705.22885 0.03192
2703.94310 0.03163
2702.65734 0.03109
2701.37159 0.03040
2700.08583 0.02991
2698.80008 0.02989
2697.51432 0.03018
2696.22857 0.03040
2694.94281 0.03020
2693.65705 0.02961
2692.37130 0.02891
2691.08554 0.02840
2689.79979 0.02826
2688.51403 0.02855
2687.22828 0.02916
2685.94252 0.02974
2684.65677 0.02998
2683.37101 0.02984
2682.08526 0.02943
2680.79950 0.02882
2679.51375 0.02814
2678.22799 0.02750
2676.94224 0.02710
2675.65648 0.02714
2674.37073 0.02772
2673.08497 0.02868
2671.79922 0.02948
2670.51346 0.02967
2669.22771 0.02940
2667.94195 0.02939
2666.65620 0.03025
2665.37044 0.03189
2664.08469 0.03372
2662.79893 0.03524
2661.51318 0.03634
2660.22742 0.03712
2658.94167 0.03767
2657.65591 0.03803
2656.37016 0.03828
2655.08440 0.03850
2653.79865 0.03878
2652.51289 0.03912
2651.22713 0.03944
2649.94138 0.03949
2648.65562 0.03913
2647.36987 0.03857
2646.08411 0.03832
2644.79836 0.03862
2643.51260 0.03924
2642.22685 0.03966
2640.94109 0.03967
2639.65534 0.03950
2638.36958 0.03952
2637.08383 0.03976
2635.79807 0.03983
2634.51232 0.03928
2633.22656 0.03809
2631.94081 0.03667
2630.65505 0.03560
2629.36930 0.03531
2628.08354 0.03577
2626.79779 0.03642
2625.51203 0.03669
2624.22628 0.03651
2622.94052 0.03633
2621.65477 0.03650
2620.36901 0.03677
2619.08326 0.03657
2617.79750 0.03564
2616.51175 0.03443
2615.22599 0.03370
2613.94024 0.03379
2612.65448 0.03432
2611.36872 0.03472
2610.08297 0.03479
2608.79721 0.03462
2607.51146 0.03436
2606.22570 0.03404
2604.93995 0.03358
2603.65419 0.03296
2602.36844 0.03224
2601.08268 0.03167
2599.79693 0.03163
2598.51117 0.03238
2597.22542 0.03372
2595.93966 0.03486
2594.65391 0.03488
2593.36815 0.03365
2592.08240 0.03200
2590.79664 0.03094
2589.51089 0.03076
2588.22513 0.03104
2586.93938 0.03125
2585.65362 0.03113
2584.36787 0.03075
2583.08211 0.03033
2581.79636 0.03007
2580.51060 0.02991
2579.22485 0.02966
2577.93909 0.02920
2576.65334 0.02865
2575.36758 0.02831
2574.08183 0.02837
2572.79607 0.02866
2571.51031 0.02856
2570.22456 0.02761
2568.93880 0.02614
2567.65305 0.02511
2566.36729 0.02514
2565.08154 0.02592
2563.79578 0.02659
2562.51003 0.02669
2561.22427 0.02655
2559.93852 0.02673
2558.65276 0.02727
2557.36701 0.02765
2556.08125 0.02739
2554.79550 0.02663
2553.50974 0.02591
2552.22399 0.02553
2550.93823 0.02542
2549.65248 0.02546
2548.36672 0.02568
2547.08097 0.02597
2545.79521 0.02593
2544.50946 0.02529
2543.22370 0.02434
2541.93795 0.02378
2540.65219 0.02414
2539.36644 0.02530
2538.08068 0.02658
2536.79493 0.02720
2535.50917 0.02686
2534.22342 0.02599
2532.93766 0.02536
2531.65191 0.02544
2530.36615 0.02598
2529.08039 0.02628
2527.79464 0.02603
2526.50888 0.02555
2525.22313 0.02531
2523.93737 0.02527
2522.65162 0.02500
2521.36586 0.02438
2520.08011 0.02377
2518.79435 0.02354
2517.50860 0.02362
2516.22284 0.02362
2514.93709 0.02329
2513.65133 0.02273
2512.36558 0.02232
2511.07982 0.02236
2509.79407 0.02257
2508.50831 0.02238
2507.22256 0.02162
2505.93680 0.02099
2504.65105 0.02138
2503.36529 0.02281
2502.07954 0.02440
2500.79378 0.02519
2499.50803 0.02490
2498.22227 0.02404
2496.93652 0.02331
2495.65076 0.02306
2494.36501 0.02316
2493.07925 0.02327
2491.79350 0.02321
2490.50774 0.02294
2489.22198 0.02240
2487.93623 0.02153
2486.65047 0.02042
2485.36472 0.01940
2484.07896 0.01893
2482.79321 0.01930
2481.50745 0.02046
2480.22170 0.02194
2478.93594 0.02304
2477.65019 0.02319
2476.36443 0.02232
2475.07868 0.02104
2473.79292 0.02025
2472.50717 0.02038
2471.22141 0.02104
2469.93566 0.02146
2468.64990 0.02136
2467.36415 0.02114
2466.07839 0.02138
2464.79264 0.02226
2463.50688 0.02348
2462.22113 0.02455
2460.93537 0.02507
2459.64962 0.02492
2458.36386 0.02427
2457.07811 0.02361
2455.79235 0.02336
2454.50660 0.02342
2453.22084 0.02335
2451.93509 0.02296
2450.64933 0.02249
2449.36357 0.02202
2448.07782 0.02140
2446.79206 0.02069
2445.50631 0.02053
2444.22055 0.02136
2442.93480 0.02273
2441.64904 0.02365
2440.36329 0.02349
2439.07753 0.02249
2437.79178 0.02132
2436.50602 0.02051
2435.22027 0.02017
2433.93451 0.02011
2432.64876 0.02018
2431.36300 0.02027
2430.07725 0.02019
2428.79149 0.01973
2427.50574 0.01893
2426.21998 0.01815
2424.93423 0.01773
2423.64847 0.01784
2422.36272 0.01839
2421.07696 0.01910
2419.79121 0.01956
2418.50545 0.01950
2417.21970 0.01899
2415.93394 0.01846
2414.64819 0.01822
2413.36243 0.01830
2412.07668 0.01845
2410.79092 0.01833
2409.50517 0.01770
2408.21941 0.01662
2406.93365 0.01555
2405.64790 0.01503
2404.36214 0.01527
2403.07639 0.01598
2401.79063 0.01681
2400.50488 0.01734
2399.21912 0.01501
2397.93337 0.01593
2396.64761 0.01633
2395.36186 0.01582
2394.07610 0.01557
2392.79035 0.01576
2391.50459 0.01605
2390.21884 0.01611
2388.93308 0.01585
2387.64733 0.01544
2386.36157 0.01511
2385.07582 0.01507
2383.79006 0.01531
2382.50431 0.01561
2381.21855 0.01565
2379.93280 0.01535
2378.64704 0.01484
2377.36129 0.01452
2376.07553 0.01466
2374.78978 0.01508
2373.50402 0.01537
2372.21827 0.01524
2370.93251 0.01481
2369.64676 0.01439
2368.36100 0.01426
2367.07524 0.01447
2365.78949 0.01472
2364.50373 0.01499
2363.21798 0.01564
2361.93222 0.01638
2360.64647 0.01681
2359.36071 0.01707
2358.07496 0.01722
2356.78920 0.01740
2355.50345 0.01780
2354.21769 0.01835
2352.93194 0.01893
2351.64618 0.01920
2350.36043 0.01929
2349.07467 0.01954
2347.78892 0.01982
2346.50316 0.01965
2345.21741 0.01950
2343.93165 0.01994
2342.64590 0.02076
2341.36014 0.02050
2340.07439 0.01939
2338.78863 0.01943
2337.50288 0.02068
2336.21712 0.02090
2334.93137 0.02034
2333.64561 0.02072
2332.35986 0.02177
2331.07410 0.02188
2329.78835 0.02364
2328.50259 0.02884
2327.21684 0.03515
2325.93108 0.04079
2324.64532 0.04434
2323.35957 0.04404
2322.07381 0.04056
2320.78806 0.03714
2319.50230 0.03464
2318.21655 0.03310
2316.93079 0.03286
2315.64504 0.03331
2314.35928 0.03406
2313.07353 0.03453
2311.78777 0.03398
2310.50202 0.03293
2309.21626 0.03193
2307.93051 0.03110
2306.64475 0.03052
2305.35900 0.02997
2304.07324 0.02970
2302.78749 0.02990
2301.50173 0.03034
2300.21598 0.03068
2298.93022 0.03057
2297.64447 0.03015
2296.35871 0.02987
2295.07296 0.03024
2293.78720 0.03140
2292.50145 0.03309
2291.21569 0.03498
2289.92994 0.03679
2288.64418 0.03827
2287.35843 0.03903
2286.07267 0.03878
2284.78691 0.03768
2283.50116 0.03623
2282.21540 0.03489
2280.92965 0.03368
2279.64389 0.03250
2278.35814 0.03134
2277.07238 0.03027
2275.78663 0.02932
2274.50087 0.02852
2273.21512 0.02802
2271.92936 0.02780
2270.64361 0.02746
2269.35785 0.02663
2268.07210 0.02554
2266.78634 0.02497
2265.50059 0.02552
2264.21483 0.02702
2262.92908 0.02869
2261.64332 0.02982
2260.35757 0.03019
2259.07181 0.02983
2257.78606 0.02881
2256.50030 0.02729
2255.21455 0.02564
2253.92879 0.02438
2252.64304 0.02418
2251.35728 0.02574
2250.07153 0.02817
2248.78577 0.02784
2247.50002 0.02801
2246.21426 0.02742
2244.92850 0.02663
2243.64275 0.02612
2242.35699 0.02568
2241.07124 0.02478
2239.78548 0.02334
2238.49973 0.02202
2237.21397 0.02157
2235.92822 0.02206
2234.64246 0.02285
2233.35671 0.02337
2232.07095 0.02355
2230.78520 0.02361
2229.49944 0.02373
2228.21369 0.02414
2226.92793 0.02496
2225.64218 0.02581
2224.35642 0.02574
2223.07067 0.02425
2221.78491 0.02189
2220.49916 0.01954
2219.21340 0.01745
2217.92765 0.01563
2216.64189 0.01461
2215.35614 0.01485
2214.07038 0.01583
2212.78463 0.01660
2211.49887 0.01715
2210.21312 0.01820
2208.92736 0.01975
2207.64161 0.02083
2206.35585 0.02081
2205.07010 0.02015
2203.78434 0.01959
2202.49858 0.01929
2201.21283 0.01902
2199.92707 0.01866
2198.64132 0.01825
2197.35556 0.01794
2196.06981 0.01798
2194.78405 0.01863
2193.49830 0.01982
2192.21254 0.02111
2190.92679 0.02215
2189.64103 0.02311
2188.35528 0.02434
2187.06952 0.02550
2185.78377 0.02523
2184.49801 0.02229
2183.21226 0.01739
2181.92650 0.01315
2180.64075 0.01135
2179.35499 0.01085
2178.06924 0.00930
2176.78348 0.00665
2175.49773 0.00551
2174.21197 0.00777
2172.92622 0.01250
2171.64046 0.01730
2170.35471 0.02075
2169.06895 0.02276
2167.78320 0.02380
2166.49744 0.02465
2165.21169 0.02619
2163.92593 0.02792
2162.64017 0.02649
2161.35442 0.01785
2160.06866 0.00274
2158.78291 -0.01156
2157.49715 -0.01781
2156.21140 -0.01590
2154.92564 -0.01079
2153.63989 -0.00646
2152.35413 -0.00351
2151.06838 -0.00094
2149.78262 0.00140
2148.49687 0.00278
2147.21111 0.00276
2145.92536 0.00175
2144.63960 0.00046
2143.35385 -0.00075
2142.06809 -0.00173
2140.78234 -0.00235
2139.49658 -0.00265
2138.21083 -0.00322
2136.92507 -0.00471
2135.63932 -0.00690
2134.35356 -0.00854
2133.06781 -0.00854
2131.78205 -0.00692
2130.49630 -0.00440
2129.21054 -0.00152
2127.92479 0.00150
2126.63903 0.00422
2125.35328 0.00593
2124.06752 0.00649
2122.78176 0.00660
2121.49601 0.00720
2120.21025 0.00858
2118.92450 0.01045
2117.63874 0.01231
2116.35299 0.01381
2115.06723 0.01486
2113.78148 0.01569
2112.49572 0.01651
2111.20997 0.01718
2109.92421 0.01741
2108.63846 0.01710
2107.35270 0.01643
2106.06695 0.01562
2104.78119 0.01498
2103.49544 0.01482
2102.20968 0.01510
2100.92393 0.01565
2099.63817 0.02141
2098.35242 0.02218
2097.06666 0.01899
2095.78091 0.01512
2094.49515 0.01217
2093.20940 0.01066
2091.92364 0.01028
2090.63789 0.01047
2089.35213 0.01092
2088.06638 0.01163
2086.78062 0.01278
2085.49487 0.01459
2084.20911 0.01708
2082.92336 0.01992
2081.63760 0.02247
2080.35184 0.02420
2079.06609 0.02505
2077.78033 0.02543
2076.49458 0.02588
2075.20882 0.02663
2073.92307 0.02745
2072.63731 0.02790
2071.35156 0.02762
2070.06580 0.02650
2068.78005 0.02476
2067.49429 0.02297
2066.20854 0.02166
2064.92278 0.02093
2063.63703 0.02040
2062.35127 0.01961
2061.06552 0.01859
2059.77976 0.01775
2058.49401 0.01723
2057.20825 0.01673
2055.92250 0.01651
2054.63674 0.01808
2053.35099 0.02269
2052.06523 0.02917
2050.77948 0.03409
2049.49372 0.03494
2048.20797 0.03249
2046.92221 0.02942
2045.63646 0.02750
2044.35070 0.02675
2043.06495 0.02678
2041.77919 0.02771
2040.49343 0.02971
2039.20768 0.03227
2037.92192 0.03417
2036.63617 0.03451
2035.35041 0.03335
2034.06466 0.03128
2032.77890 0.02873
2031.49315 0.02583
2030.20739 0.02290
2028.92164 0.02037
2027.63588 0.01837
2026.35013 0.01680
2025.06437 0.01574
2023.77862 0.01548
2022.49286 0.01605
2021.20711 0.01686
2019.92135 0.01713
2018.63560 0.01667
2017.34984 0.01590
2016.06409 0.01543
2014.77833 0.01569
2013.49258 0.01702
2012.20682 0.01938
2010.92107 0.02187
2009.63531 0.02284
2008.34956 0.02110
2007.06380 0.01690
2005.77805 0.01169
2004.49229 0.00692
2003.20654 0.00323
2001.92078 0.00048
2000.63503 -0.00156
1999.34927 -0.00264
1998.06351 -0.00211
1996.77776 0.00044
1995.49200 0.00456
1994.20625 0.00895
1992.92049 0.01224
1991.63474 0.01383
1990.34898 0.01416
1989.06323 0.01426
1987.77747 0.01485
1986.49172 0.01617
1985.20596 0.01850
1983.92021 0.02243
1982.63445 0.02807
1981.34870 0.03400
1980.06294 0.03759
1978.77719 0.03698
1977.49143 0.03273
1976.20568 0.02725
1974.91992 0.02262
1973.63417 0.01949
1972.34841 0.01752
1971.06266 0.01628
1969.77690 0.01550
1968.49115 0.01498
1967.20539 0.01456
1965.91964 0.01421
1964.63388 0.01388
1963.34813 0.01326
1962.06237 0.01191
1960.77662 0.00975
1959.49086 0.00732
1958.20510 0.00533
1956.91935 0.00410
1955.63359 0.00350
1954.34784 0.00337
1953.06208 0.00387
1951.77633 0.00528
1950.49057 0.00745
1949.20482 0.00962
1947.91906 0.01096
1946.63331 0.01125
1945.34755 0.01098
1944.06180 0.01082
1942.77604 0.01107
1941.49029 0.01155
1940.20453 0.01192
1938.91878 0.01210
1937.63302 0.01228
1936.34727 0.01257
1935.06151 0.01287
1933.77576 0.01296
1932.49000 0.01273
1931.20425 0.01232
1929.91849 0.01190
1928.63274 0.01156
1927.34698 0.01121
1926.06123 0.01070
1924.77547 0.01005
1923.48972 0.00954
1922.20396 0.00957
1920.91821 0.01022
1919.63245 0.01125
1918.34669 0.01228
1917.06094 0.01306
1915.77518 0.01354
1914.48943 0.01379
1913.20367 0.01380
1911.91792 0.01338
1910.63216 0.01244
1909.34641 0.01135
1908.06065 0.01075
1906.77490 0.01096
1905.48914 0.01173
1904.20339 0.01254
1902.91763 0.01309
1901.63188 0.01341
1900.34612 0.01364
1899.06037 0.01385
1897.77461 0.01397
1896.48886 0.01395
1895.20310 0.01378
1893.91735 0.01357
1892.63159 0.01338
1891.34584 0.01325
1890.06008 0.01319
1888.77433 0.01324
1887.48857 0.01342
1886.20282 0.01360
1884.91706 0.01365
1883.63131 0.01350
1882.34555 0.01328
1881.05980 0.01317
1879.77404 0.01322
1878.48829 0.01330
1877.20253 0.01319
1875.91677 0.01284
1874.63102 0.01250
1873.34526 0.01243
1872.05951 0.01262
1870.77375 0.01284
1869.48800 0.01291
1868.20224 0.01283
1866.91649 0.01277
1865.63073 0.01282
1864.34498 0.01296
1863.05922 0.01308
1861.77347 0.01306
1860.48771 0.01289
1859.20196 0.01268
1857.91620 0.01264
1856.63045 0.01280
1855.34469 0.01299
1854.05894 0.01293
1852.77318 0.01246
1851.48743 0.01174
1850.20167 0.01121
1848.91592 0.01128
1847.63016 0.01197
1846.34441 0.01282
1845.05865 0.01322
1843.77290 0.01293
1842.48714 0.01217
1841.20139 0.01138
1839.91563 0.01079
1838.62988 0.01046
1837.34412 0.01038
1836.05836 0.01054
1834.77261 0.01093
1833.48685 0.01146
1832.20110 0.01195
1830.91534 0.01231
1829.62959 0.01259
1828.34383 0.01290
1827.05808 0.01328
1825.77232 0.01377
1824.48657 0.01440
1823.20081 0.01508
1821.91506 0.01537
1820.62930 0.01475
1819.34355 0.01309
1818.05779 0.01092
1816.77204 0.00908
1815.48628 0.00807
1814.20053 0.00783
1812.91477 0.00803
1811.62902 0.00840
1810.34326 0.00882
1809.05751 0.00915
1807.77175 0.00934
1806.48600 0.00952
1805.20024 0.00988
1803.91449 0.01049
1802.62873 0.01114
1801.34298 0.01157
1800.05722 0.01168
1798.77147 0.01167
1797.48571 0.01188
1796.19995 0.01246
1794.91420 0.01317
1793.62844 0.01363
1792.34269 0.01357
1791.05693 0.01307
1789.77118 0.01250
1788.48542 0.01224
1787.19967 0.01244
1785.91391 0.01299
1784.62816 0.01360
1783.34240 0.01401
1782.05665 0.01406
1780.77089 0.01369
1779.48514 0.01299
1778.19938 0.01227
1776.91363 0.01192
1775.62787 0.01204
1774.34212 0.01238
1773.05636 0.01259
1771.77061 0.01252
1770.48485 0.01225
1769.19910 0.01191
1767.91334 0.01161
1766.62759 0.01151
1765.34183 0.01169
1764.05608 0.01203
1762.77032 0.01233
1761.48457 0.01248
1760.19881 0.01248
1758.91306 0.01229
1757.62730 0.01196
1756.34155 0.01169
1755.05579 0.01177
1753.77003 0.01222
1752.48428 0.01278
1751.19852 0.01308
1749.91277 0.01292
1748.62701 0.01236
1747.34126 0.01166
1746.05550 0.01114
1744.76975 0.01101
1743.48399 0.01119
1742.19824 0.01135
1740.91248 0.01132
1739.62673 0.01135
1738.34097 0.01189
1737.05522 0.01297
1735.76946 0.01400
1734.48371 0.01430
1733.19795 0.01374
1731.91220 0.01277
1730.62644 0.01189
1729.34069 0.01142
1728.05493 0.01138
1726.76918 0.01153
1725.48342 0.01161
1724.19767 0.01164
1722.91191 0.01197
1721.62616 0.01290
1720.34040 0.01433
1719.05465 0.01566
1717.76889 0.01627
1716.48314 0.01597
1715.19738 0.01513
1713.91162 0.01429
1712.62587 0.01386
1711.34011 0.01402
1710.05436 0.01468
1708.76860 0.01554
1707.48285 0.01630
1706.19709 0.01705
1704.91134 0.01813
1703.62558 0.01968
1702.33983 0.02138
1701.05407 0.02287
1699.76832 0.02403
1698.48256 0.02489
1697.19681 0.02534
1695.91105 0.02527
1694.62530 0.02489
1693.33954 0.02454
1692.05379 0.02453
1690.76803 0.02516
1689.48228 0.02682
1688.19652 0.02949
1686.91077 0.03236
1685.62501 0.03439
1684.33926 0.03495
1683.05350 0.03438
1681.76775 0.03359
1680.48199 0.03351
1679.19624 0.03447
1677.91048 0.03611
1676.62473 0.03781
1675.33897 0.03912
1674.05322 0.04009
1672.76746 0.04100
1671.48170 0.04193
1670.19595 0.04276
1668.91019 0.04343
1667.62444 0.04407
1666.33868 0.04483
1665.05293 0.04570
1663.76717 0.04647
1662.48142 0.04689
1661.19566 0.04693
1659.90991 0.04696
1658.62415 0.04772
1657.33840 0.04981
1656.05264 0.05283
1654.76689 0.05532
1653.48113 0.05600
1652.19538 0.05497
1650.90962 0.05347
1649.62387 0.05257
1648.33811 0.05251
1647.05236 0.05285
1645.76660 0.05299
1644.48085 0.05269
1643.19509 0.05215
1641.90934 0.05180
1640.62358 0.05207
1639.33783 0.05304
1638.05207 0.05418
1636.76632 0.05465
1635.48056 0.05399
1634.19481 0.05243
1632.90905 0.05068
1631.62329 0.04925
1630.33754 0.04836
1629.05178 0.04793
1627.76603 0.04770
1626.48027 0.04739
1625.19452 0.04675
1623.90876 0.04573
1622.62301 0.04464
1621.33725 0.04395
1620.05150 0.04383
1618.76574 0.04386
1617.47999 0.04345
1616.19423 0.04237
1614.90848 0.04092
1613.62272 0.03957
1612.33697 0.03861
1611.05121 0.03808
1609.76546 0.03781
1608.47970 0.03758
1607.19395 0.03728
1605.90819 0.03693
1604.62244 0.03660
1603.33668 0.03634
1602.05093 0.03615
1600.76517 0.03599
1599.47942 0.03588
1598.19366 0.03582
1596.90791 0.03582
1595.62215 0.03583
1594.33640 0.03585
1593.05064 0.03587
1591.76488 0.03591
1590.47913 0.03598
1589.19337 0.03610
1587.90762 0.03623
1586.62186 0.03634
1585.33611 0.03638
1584.05035 0.03636
1582.76460 0.03647
1581.47884 0.03703
1580.19309 0.03823
1578.90733 0.03974
1577.62158 0.04089
1576.33582 0.04121
1575.05007 0.04089
1573.76431 0.04057
1572.47856 0.04071
1571.19280 0.04122
1569.90705 0.04173
1568.62129 0.04189
1567.33554 0.04162
1566.04978 0.04126
1564.76403 0.04155
1563.47827 0.04307
1562.19252 0.04554
1560.90676 0.04787
1559.62101 0.04904
1558.33525 0.04877
1557.04950 0.04761
1555.76374 0.04638
1554.47799 0.04566
1553.19223 0.04554
1551.90648 0.04582
1550.62072 0.04617
1549.33496 0.04642
1548.04921 0.04664
1546.76345 0.04702
1545.47770 0.04780
1544.19194 0.04905
1542.90619 0.05043
1541.62043 0.05133
1540.33468 0.05116
1539.04892 0.05002
1537.76317 0.04865
1536.47741 0.04776
1535.19166 0.04751
1533.90590 0.04763
1532.62015 0.04783
1531.33439 0.04800
1530.04864 0.04816
1528.76288 0.04836
1527.47713 0.04870
1526.19137 0.04931
1524.90562 0.05016
1523.61986 0.05104
1522.33411 0.05158
1521.04835 0.05161
1519.76260 0.05128
1518.47684 0.05086
1517.19109 0.05054
1515.90533 0.05038
1514.61958 0.05035
1513.33382 0.05056
1512.04807 0.05130
1510.76231 0.05282
1509.47655 0.05487
1508.19080 0.05657
1506.90504 0.05710
1505.61929 0.05636
1504.33353 0.05502
1503.04778 0.05398
1501.76202 0.05386
1500.47627 0.05463
1499.19051 0.05575
1497.90476 0.05656
1496.61900 0.05676
1495.33325 0.05649
1494.04749 0.05621
1492.76174 0.05629
1491.47598 0.05669
1490.19023 0.05715
1488.90447 0.05742
1487.61872 0.05747
1486.33296 0.05746
1485.04721 0.05760
1483.76145 0.05795
1482.47570 0.05846
1481.18994 0.05902
1479.90419 0.05967
1478.61843 0.06052
1477.33268 0.06170
1476.04692 0.06313
1474.76117 0.06446
1473.47541 0.06526
1472.18966 0.06541
1470.90390 0.06519
1469.61814 0.06507
1468.33239 0.06535
1467.04663 0.06592
1465.76088 0.06644
1464.47512 0.06672
1463.18937 0.06701
1461.90361 0.06785
1460.61786 0.06947
1459.33210 0.07148
1458.04635 0.07303
1456.76059 0.07354
1455.47484 0.07309
1454.18908 0.07231
1452.90333 0.07182
1451.61757 0.07182
1450.33182 0.07219
1449.04606 0.07256
1447.76031 0.07264
1446.47455 0.07234
1445.18880 0.07174
1443.90304 0.07102
1442.61729 0.07040
1441.33153 0.07014
1440.04578 0.07028
1438.76002 0.07054
1437.47427 0.07053
1436.18851 0.07014
1434.90276 0.06958
1433.61700 0.06917
1432.33125 0.06911
1431.04549 0.06941
1429.75974 0.06997
1428.47398 0.07067
1427.18822 0.07144
1425.90247 0.07228
1424.61671 0.07332
1423.33096 0.07465
1422.04520 0.07617
1420.75945 0.07753
1419.47369 0.07838
1418.18794 0.07868
1416.90218 0.07868
1415.61643 0.07869
1414.33067 0.07890
1413.04492 0.07929
1411.75916 0.07969
1410.47341 0.07996
1409.18765 0.08007
1407.90190 0.08000
1406.61614 0.07973
1405.33039 0.07922
1404.04463 0.07852
1402.75888 0.07773
1401.47312 0.07690
1400.18737 0.07605
1398.90161 0.07519
1397.61586 0.07425
1396.33010 0.07311
1395.04435 0.07168
1393.75859 0.07004
1392.47284 0.06844
1391.18708 0.06711
1389.90133 0.06603
1388.61557 0.06502
1387.32981 0.06389
1386.04406 0.06256
1384.75830 0.06111
1383.47255 0.05969
1382.18679 0.05836
1380.90104 0.05710
1379.61528 0.05587
1378.32953 0.05465
1377.04377 0.05341
1375.75802 0.05211
1374.47226 0.05075
1373.18651 0.04934
1371.90075 0.04793
1370.61500 0.04652
1369.32924 0.04517
1368.04349 0.04393
1366.75773 0.04285
1365.47198 0.04192
1364.18622 0.04105
1362.90047 0.04015
1361.61471 0.03916
1360.32896 0.03812
1359.04320 0.03708
1357.75745 0.03615
1356.47169 0.03539
1355.18594 0.03478
1353.90018 0.03428
1352.61443 0.03383
1351.32867 0.03341
1350.04292 0.03301
1348.75716 0.03263
1347.47141 0.03225
1346.18565 0.03186
1344.89989 0.03149
1343.61414 0.03121
1342.32838 0.03102
1341.04263 0.03089
1339.75687 0.03075
1338.47112 0.03058
1337.18536 0.03039
1335.89961 0.03016
1334.61385 0.02991
1333.32810 0.02960
1332.04234 0.02927
1330.75659 0.02898
1329.47083 0.02875
1328.18508 0.02856
1326.89932 0.02837
1325.61357 0.02814
1324.32781 0.02788
1323.04206 0.02761
1321.75630 0.02735
1320.47055 0.02711
1319.18479 0.02685
1317.89904 0.02654
1316.61328 0.02620
1315.32753 0.02587
1314.04177 0.02558
1312.75602 0.02533
1311.47026 0.02512
1310.18451 0.02495
1308.89875 0.02479
1307.61300 0.02460
1306.32724 0.02434
1305.04148 0.02404
1303.75573 0.02375
1302.46997 0.02348
1301.18422 0.02321
1299.89846 0.02294
1298.61271 0.02265
1297.32695 0.02237
1296.04120 0.02214
1294.75544 0.02197
1293.46969 0.02187
1292.18393 0.02180
1290.89818 0.02172
1289.61242 0.02158
1288.32667 0.02139
1287.04091 0.02117
1285.75516 0.02097
1284.46940 0.02082
1283.18365 0.02075
1281.89789 0.02072
1280.61214 0.02066
1279.32638 0.02054
1278.04063 0.02038
1276.75487 0.02022
1275.46912 0.02010
1274.18336 0.02005
1272.89761 0.02002
1271.61185 0.02001
1270.32610 0.02000
1269.04034 0.01998
1267.75459 0.01997
1266.46883 0.01997
1265.18307 0.02001
1263.89732 0.02007
1262.61156 0.02010
1261.32581 0.02008
1260.04005 0.01999
1258.75430 0.01986
1257.46854 0.01972
1256.18279 0.01961
1254.89703 0.01954
1253.61128 0.01951
1252.32552 0.01952
1251.03977 0.01960
1249.75401 0.01972
1248.46826 0.01981
1247.18250 0.01984
1245.89675 0.01982
1244.61099 0.01977
1243.32524 0.01975
1242.03948 0.01975
1240.75373 0.01975
1239.46797 0.01970
1238.18222 0.01958
1236.89646 0.01942
1235.61071 0.01925
1234.32495 0.01909
1233.03920 0.01894
1231.75344 0.01876
1230.46769 0.01852
1229.18193 0.01824
1227.89618 0.01797
1226.61042 0.01776
1225.32467 0.01757
1224.03891 0.01737
1222.75315 0.01714
1221.46740 0.01693
1220.18164 0.01678
1218.89589 0.01669
1217.61013 0.01661
1216.32438 0.01649
1215.03862 0.01635
1213.75287 0.01623
1212.46711 0.01618
1211.18136 0.01622
1209.89560 0.01634
1208.60985 0.01651
1207.32409 0.01669
1206.03834 0.01686
1204.75258 0.01703
1203.46683 0.01725
1202.18107 0.01757
1200.89532 0.01747
1199.60956 0.01633
1198.32381 0.01624
1197.03805 0.01612
1195.75230 0.01593
1194.46654 0.01571
1193.18079 0.01550
1191.89503 0.01534
1190.60928 0.01523
1189.32352 0.01514
1188.03777 0.01503
1186.75201 0.01488
1185.46626 0.01470
1184.18050 0.01452
1182.89474 0.01437
1181.60899 0.01429
1180.32323 0.01426
1179.03748 0.01425
1177.75172 0.01420
1176.46597 0.01415
1175.18021 0.01414
1173.89446 0.01420
1172.60870 0.01430
1171.32295 0.01442
1170.03719 0.01456
1168.75144 0.01467
1167.46568 0.01476
1166.17993 0.01481
1164.89417 0.01484
1163.60842 0.01487
1162.32266 0.01492
1161.03691 0.01499
1159.75115 0.01506
1158.46540 0.01511
1157.17964 0.01517
1155.89389 0.01529
1154.60813 0.01547
1153.32238 0.01569
1152.03662 0.01595
1150.75087 0.01628
1149.46511 0.01669
1148.17936 0.01713
1146.89360 0.01755
1145.60785 0.01792
1144.32209 0.01828
1143.03633 0.01867
1141.75058 0.01912
1140.46482 0.01964
1139.17907 0.02021
1137.89331 0.02085
1136.60756 0.02157
1135.32180 0.02239
1134.03605 0.02330
1132.75029 0.02428
1131.46454 0.02534
1130.17878 0.02650
1128.89303 0.02775
1127.60727 0.02914
1126.32152 0.03068
1125.03576 0.03239
1123.75001 0.03424
1122.46425 0.03618
1121.17850 0.03817
1119.89274 0.04019
1118.60699 0.04226
1117.32123 0.04441
1116.03548 0.04663
1114.74972 0.04889
1113.46397 0.05113
1112.17821 0.05332
1110.89246 0.05550
1109.60670 0.05768
1108.32095 0.05985
1107.03519 0.06200
1105.74944 0.06408
1104.46368 0.06611
1103.17793 0.06810
1101.89217 0.07007
1100.60641 0.07200
1099.32066 0.07386
1098.03490 0.07563
1096.74915 0.07730
1095.46339 0.07887
1094.17764 0.08031
1092.89188 0.08158
1091.60613 0.08269
1090.32037 0.08368
1089.03462 0.08463
1087.74886 0.08559
1086.46311 0.08659
1085.17735 0.08770
1083.89160 0.08893
1082.60584 0.09025
1081.32009 0.09163
1080.03433 0.09308
1078.74858 0.09461
1077.46282 0.09625
1076.17707 0.09800
1074.89131 0.09986
1073.60556 0.10185
1072.31980 0.10394
1071.03405 0.10605
1069.74829 0.10813
1068.46254 0.11018
1067.17678 0.11226
1065.89103 0.11441
1064.60527 0.11664
1063.31952 0.11890
1062.03376 0.12114
1060.74800 0.12333
1059.46225 0.12546
1058.17649 0.12753
1056.89074 0.12954
1055.60498 0.13153
1054.31923 0.13351
1053.03347 0.13551
1051.74772 0.13756
1050.46196 0.13964
1049.17621 0.14174
1047.89045 0.14382
1046.60470 0.14587
1045.31894 0.14794
1044.03319 0.15005
1042.74743 0.15218
1041.46168 0.15431
1040.17592 0.15643
1038.89017 0.15853
1037.60441 0.16063
1036.31866 0.16273
1035.03290 0.16479
1033.74715 0.16674
1032.46139 0.16854
1031.17564 0.17017
1029.88988 0.17164
1028.60413 0.17295
1027.31837 0.17407
1026.03262 0.17503
1024.74686 0.17585
1023.46111 0.17653
1022.17535 0.17702
1020.88960 0.17723
1019.60384 0.17717
1018.31808 0.17686
1017.03233 0.17634
1015.74657 0.17563
1014.46082 0.17470
1013.17506 0.17356
1011.88931 0.17218
1010.60355 0.17058
1009.31780 0.16879
1008.03204 0.16680
1006.74629 0.16459
1005.46053 0.16216
1004.17478 0.15953
1002.88902 0.15676
1001.60327 0.15388
1000.31751 0.15094
999.03176 0.14797
997.74600 0.14496
996.46025 0.14185
995.17449 0.13859
993.88874 0.13519
992.60298 0.13178
991.31723 0.12846
990.03147 0.12528
988.74572 0.12218
987.45996 0.11907
986.17421 0.11594
984.88845 0.11283
983.60270 0.10976
982.31694 0.10677
981.03119 0.10386
979.74543 0.10102
978.45967 0.09825
977.17392 0.09560
975.88816 0.09318
974.60241 0.09111
973.31665 0.08940
972.03090 0.08799
970.74514 0.08684
969.45939 0.08599
968.17363 0.08550
966.88788 0.08537
965.60212 0.08554
964.31637 0.08586
963.03061 0.08612
961.74486 0.08616
960.45910 0.08589
959.17335 0.08530
957.88759 0.08435
956.60184 0.08303
955.31608 0.08140
954.03033 0.07964
952.74457 0.07792
951.45882 0.07635
950.17306 0.07487
948.88731 0.07337
947.60155 0.07182
946.31580 0.07027
945.03004 0.06883
943.74429 0.06752
942.45853 0.06630
941.17278 0.06514
939.88702 0.06402
938.60126 0.06293
937.31551 0.06187
936.02975 0.06086
934.74400 0.05989
933.45824 0.05893
932.17249 0.05794
930.88673 0.05694
929.60098 0.05596
928.31522 0.05504
927.02947 0.05416
925.74371 0.05334
924.45796 0.05258
923.17220 0.05190
921.88645 0.05131
920.60069 0.05080
919.31494 0.05034
918.02918 0.04989
916.74343 0.04946
915.45767 0.04903
914.17192 0.04855
912.88616 0.04796
911.60041 0.04728
910.31465 0.04660
909.02890 0.04599
907.74314 0.04545
906.45739 0.04492
905.17163 0.04435
903.88588 0.04375
902.60012 0.04315
901.31437 0.04258
900.02861 0.04208
898.74286 0.04165
897.45710 0.04130
896.17134 0.04102
894.88559 0.04077
893.59983 0.04051
892.31408 0.04017
891.02832 0.03983
889.74257 0.03962
888.45681 0.03965
887.17106 0.03998
885.88530 0.04064
884.59955 0.04169
883.31379 0.04315
882.02804 0.04485
880.74228 0.04646
879.45653 0.04775
878.17077 0.04876
876.88502 0.04974
875.59926 0.05086
874.31351 0.05204
873.02775 0.05297
871.74200 0.05339
870.45624 0.05325
869.17049 0.05266
867.88473 0.05173
866.59898 0.05050
865.31322 0.04902
864.02747 0.04738
862.74171 0.04575
861.45596 0.04427
860.17020 0.04302
858.88445 0.04197
857.59869 0.04109
856.31293 0.04042
855.02718 0.03997
853.74142 0.03963
852.45567 0.03926
851.16991 0.03878
849.88416 0.03823
848.59840 0.03773
847.31265 0.03729
846.02689 0.03691
844.74114 0.03656
843.45538 0.03623
842.16963 0.03594
840.88387 0.03569
839.59812 0.03550
838.31236 0.03539
837.02661 0.03541
835.74085 0.03557
834.45510 0.03584
833.16934 0.03614
831.88359 0.03638
830.59783 0.03648
829.31208 0.03642
828.02632 0.03620
826.74057 0.03588
825.45481 0.03553
824.16906 0.03524
822.88330 0.03503
821.59755 0.03485
820.31179 0.03462
819.02604 0.03427
817.74028 0.03384
816.45452 0.03338
815.16877 0.03295
813.88301 0.03259
812.59726 0.03232
811.31150 0.03211
810.02575 0.03191
808.73999 0.03171
807.45424 0.03152
806.16848 0.03136
804.88273 0.03127
803.59697 0.03136
802.31122 0.03174
801.02546 0.03236
799.73971 0.03303
798.45395 0.03350
797.16820 0.03365
795.88244 0.03355
794.59669 0.03334
793.31093 0.03310
792.02518 0.03290
790.73942 0.03274
789.45367 0.03262
788.16791 0.03247
786.88216 0.03223
785.59640 0.03194
784.31065 0.03169
783.02489 0.03159
781.73914 0.03163
780.45338 0.03175
779.16763 0.03189
777.88187 0.03203
776.59612 0.03218
775.31036 0.03229
774.02460 0.03233
772.73885 0.03233
771.45309 0.03235
770.16734 0.03236
768.88158 0.03236
767.59583 0.03232
766.31007 0.03224
765.02432 0.03215
763.73856 0.03209
762.45281 0.03213
761.16705 0.03224
759.88130 0.03233
758.59554 0.03233
757.30979 0.03233
756.02403 0.03245
754.73828 0.03273
753.45252 0.03302
752.16677 0.03318
750.88101 0.03321
749.59526 0.03318
748.30950 0.03317
747.02375 0.03324
745.73799 0.03338
744.45224 0.03355
743.16648 0.03361
741.88073 0.03341
740.59497 0.03293
739.30922 0.03230
738.02346 0.03169
736.73771 0.03119
735.45195 0.03085
734.16619 0.03063
732.88044 0.03052
731.59468 0.03053
730.30893 0.03066
729.02317 0.03083
727.73742 0.03092
726.45166 0.03090
725.16591 0.03076
723.88015 0.02998
722.59440 0.03021
721.30864 0.03042
720.02289 0.03034
718.73713 0.03014
717.45138 0.02988
716.16562 0.02960
714.87987 0.02937
713.59411 0.02932
712.30836 0.02950
711.02260 0.02985
709.73685 0.03026
708.45109 0.03062
707.16534 0.03089
705.87958 0.03108
704.59383 0.03123
703.30807 0.03138
702.02232 0.03156
700.73656 0.03176
699.45081 0.03196
698.16505 0.03212
696.87930 0.03221
695.59354 0.03224
694.30779 0.03221
693.02203 0.03218
691.73627 0.03214
690.45052 0.03209
689.16476 0.03200
687.87901 0.03185
686.59325 0.03166
685.30750 0.03148
684.02174 0.03133
682.73599 0.03120
681.45023 0.03112
680.16448 0.03107
678.87872 0.03107
677.59297 0.03111
676.30721 0.03120
675.02146 0.03133
673.73570 0.03144
672.44995 0.03148
671.16419 0.03143
669.87844 0.03135
668.59268 0.03133
667.30693 0.03130
666.02117 0.03115
664.73542 0.03101
663.44966 0.03085
662.16391 0.03072
660.87815 0.03068
659.59240 0.03071
658.30664 0.03068
657.02089 0.03053
655.73513 0.03031
654.44938 0.03014
653.16362 0.03006
651.87786 0.03004
650.59211 0.03004
649.30635 0.03008
648.02060 0.03016
646.73484 0.03024
645.44909 0.03029
644.16333 0.03028
642.87758 0.03024
641.59182 0.03019
640.30607 0.03014
639.02031 0.03013
637.73456 0.03024
636.44880 0.03058
635.16305 0.03119
633.87729 0.03202
632.59154 0.03329
631.30578 0.03729
630.02003 0.04796
628.73427 0.05773
627.44852 0.05277
626.16276 0.06103
624.87701 0.07708
623.59125 0.09099
622.30550 0.09952
621.01974 0.10172
619.73399 0.09803
618.44823 0.09033
617.16248 0.08116
615.87672 0.07321
614.59097 0.06886
613.30521 0.06928
612.01945 0.07339
610.73370 0.07855
609.44794 0.08288
608.16219 0.08658
606.87643 0.09055
605.59068 0.09440
604.30492 0.09666
603.01917 0.09625
601.73341 0.09350
600.44766 0.08957
599.16190 0.08549
597.87615 0.08171
596.59039 0.07834
595.30464 0.07550
594.01888 0.07328
592.73313 0.07171
591.44737 0.07062
590.16162 0.06989
588.87586 0.06954
587.59011 0.06969
586.30435 0.07036
585.01860 0.07140
583.73284 0.07261
582.44709 0.07393
581.16133 0.07542
579.87558 0.07710
578.58982 0.07889
577.30407 0.08072
576.01831 0.08260
574.73256 0.08461
573.44680 0.08686
572.16105 0.08942
570.87529 0.09234
569.58953 0.09544
568.30378 0.09836
567.01802 0.10072
565.73227 0.10243
564.44651 0.10363
563.16076 0.10443
561.87500 0.10474
560.58925 0.10435
559.30349 0.10310
558.01774 0.10099
556.73198 0.09822
555.44623 0.09505
554.16047 0.09177
552.87472 0.08858
551.58896 0.08557
550.30321 0.08271
549.01745 0.07994
547.73170 0.07725
546.44594 0.07471
545.16019 0.07229
543.87443 0.06992
542.58868 0.06755
541.30292 0.06528
540.01717 0.06325
538.73141 0.06158
537.44566 0.06019
536.15990 0.05896
534.87415 0.05776
533.58839 0.05659
532.30264 0.05551
531.01688 0.05455
529.73112 0.05363
528.44537 0.05264
527.15961 0.05154
525.87386 0.05043
524.58810 0.04937
523.30235 0.04839
522.01659 0.04743
520.73084 0.04647
519.44508 0.04552
518.15933 0.04464
516.87357 0.04384
515.58782 0.04311
514.30206 0.04240
513.01631 0.04167
511.73055 0.04097
510.44480 0.04033
509.15904 0.03974
507.87329 0.03917
506.58753 0.03857
505.30178 0.03793
504.01602 0.03728
502.73027 0.03669
501.44451 0.03618
500.15876 0.03575
498.87300 0.03540
497.58725 0.03511
496.30149 0.03486
495.01574 0.03465
493.72998 0.03449
492.44423 0.03435
491.15847 0.03420
489.87271 0.03399
488.58696 0.03367
487.30120 0.03327
486.01545 0.03282
484.72969 0.03239
483.44394 0.03202
482.15818 0.03173
480.87243 0.03152
479.58667 0.03138
478.30092 0.03131
477.01516 0.03131
475.72941 0.03137
474.44365 0.03143
473.15790 0.03146
471.87214 0.03143
470.58639 0.03136
469.30063 0.03123
468.01488 0.03104
466.72912 0.03077
465.44337 0.03042
464.15761 0.03002
462.87186 0.02961
461.58610 0.02919
460.30035 0.02878
459.01459 0.02840
457.72884 0.02805
456.44308 0.02774
455.15733 0.02743
453.87157 0.02709
452.58582 0.02670
451.30006 0.02630
450.01431 0.02593
448.72855 0.02561
447.44279 0.02537
446.15704 0.02522
444.87128 0.02515
443.58553 0.02511
442.29977 0.02504
441.01402 0.02491
439.72826 0.02472
438.44251 0.02453
437.15675 0.02440
435.87100 0.02431
434.58524 0.02421
433.29949 0.02407
432.01373 0.02388
430.72798 0.02365
429.44222 0.02339
428.15647 0.02311
426.87071 0.02285
425.58496 0.02266
424.29920 0.02258
423.01345 0.02260
421.72769 0.02269
420.44194 0.02274
419.15618 0.02264
417.87043 0.02236
416.58467 0.02197
415.29892 0.02158
414.01316 0.02129
412.72741 0.02114
411.44165 0.02110
410.15590 0.02112
408.87014 0.02111
407.58438 0.02107
406.29863 0.02100
405.01287 0.02096
403.72712 0.02095
402.44136 0.02099
401.15561 0.02106
399.86985 0.02113
