3998.69854 -0.01319
3997.41278 -0.01017
3996.12703 -0.00723
3994.84127 -0.00591
3993.55552 -0.00714
3992.26976 -0.00994
3990.98401 -0.01257
3989.69825 -0.01403
3988.41250 -0.01417
3987.12674 -0.01304
3985.84099 -0.01113
3984.55523 -0.00972
3983.26948 -0.01013
3981.98372 -0.01224
3980.69797 -0.01426
3979.41221 -0.01424
3978.12646 -0.01199
3976.84070 -0.00915
3975.55495 -0.00785
3974.26919 -0.00904
3972.98344 -0.01199
3971.69768 -0.01499
3970.41193 -0.01681
3969.12617 -0.01749
3967.84042 -0.01756
3966.55466 -0.01680
3965.26891 -0.01442
3963.98315 -0.01054
3962.69740 -0.00680
3961.41164 -0.00518
3960.12589 -0.00655
3958.84013 -0.01018
3957.55437 -0.01420
3956.26862 -0.01677
3954.98286 -0.01715
3953.69711 -0.01581
3952.41135 -0.01352
3951.12560 -0.01065
3949.83984 -0.00759
3948.55409 -0.00548
3947.26833 -0.00580
3945.98258 -0.00916
3944.69682 -0.01429
3943.41107 -0.01861
3942.12531 -0.02010
3940.83956 -0.01868
3939.55380 -0.01576
3938.26805 -0.01272
3936.98229 -0.01013
3935.69654 -0.00823
3934.41078 -0.00742
3933.12503 -0.00801
3931.83927 -0.01009
3930.55352 -0.01361
3929.26776 -0.01837
3927.98201 -0.02364
3926.69625 -0.02798
3925.41050 -0.02994
3924.12474 -0.02908
3922.83899 -0.02630
3921.55323 -0.02304
3920.26748 -0.02009
3918.98172 -0.01733
3917.69596 -0.01457
3916.41021 -0.01226
3915.12445 -0.01117
3913.83870 -0.01134
3912.55294 -0.01187
3911.26719 -0.01198
3909.98143 -0.01207
3908.69568 -0.01313
3907.40992 -0.01538
3906.12417 -0.01770
3904.83841 -0.01856
3903.55266 -0.01710
3902.26690 -0.01360
3900.98115 -0.00947
3899.69539 -0.00681
3898.40964 -0.00703
3897.12388 -0.00949
3895.83813 -0.01178
3894.55237 -0.01211
3893.26662 -0.01109
3891.98086 -0.01085
3890.69511 -0.01251
3889.40935 -0.01510
3888.12360 -0.01693
3886.83784 -0.01750
3885.55209 -0.01762
3884.26633 -0.01797
3882.98058 -0.01823
3881.69482 -0.01792
3880.40907 -0.01760
3879.12331 -0.01871
3877.83755 -0.02189
3876.55180 -0.02578
3875.26604 -0.02772
3873.98029 -0.02643
3872.69453 -0.02380
3871.40878 -0.02325
3870.12302 -0.02565
3868.83727 -0.02801
3867.55151 -0.02674
3866.26576 -0.02213
3864.98000 -0.01827
3863.69425 -0.01863
3862.40849 -0.02286
3861.12274 -0.02805
3859.83698 -0.03172
3858.55123 -0.03306
3857.26547 -0.03228
3855.97972 -0.02996
3854.69396 -0.02706
3853.40821 -0.02471
3852.12245 -0.02359
3850.83670 -0.02352
3849.55094 -0.02396
3848.26519 -0.02487
3846.97943 -0.02680
3845.69368 -0.03009
3844.40792 -0.03404
3843.12217 -0.03706
3841.83641 -0.03779
3840.55066 -0.03614
3839.26490 -0.03345
3837.97915 -0.03144
3836.69339 -0.03100
3835.40763 -0.03202
3834.12188 -0.03406
3832.83612 -0.03634
3831.55037 -0.03784
3830.26461 -0.03777
3828.97886 -0.03598
3827.69310 -0.03263
3826.40735 -0.02784
3825.12159 -0.02225
3823.83584 -0.01759
3822.55008 -0.01612
3821.26433 -0.01914
3819.97857 -0.02587
3818.69282 -0.03351
3817.40706 -0.03864
3816.12131 -0.03960
3814.83555 -0.03767
3813.54980 -0.03526
3812.26404 -0.03312
3810.97829 -0.02997
3809.69253 -0.02502
3808.40678 -0.01959
3807.12102 -0.01596
3805.83527 -0.01520
3804.54951 -0.01614
3803.26376 -0.01659
3801.97800 -0.01561
3800.69225 -0.01453
3799.40649 -0.01543
3798.12074 -0.01853
3796.83498 -0.02175
3795.54922 -0.02345
3794.26347 -0.02459
3792.97771 -0.02733
3791.69196 -0.03185
3790.40620 -0.03561
3789.12045 -0.03579
3787.83469 -0.03202
3786.54894 -0.02648
3785.26318 -0.02193
3783.97743 -0.01972
3782.69167 -0.01920
3781.40592 -0.01882
3780.12016 -0.01813
3778.83441 -0.01845
3777.54865 -0.02097
3776.26290 -0.02475
3774.97714 -0.02775
3773.69139 -0.02970
3772.40563 -0.03256
3771.11988 -0.03749
3769.83412 -0.04278
3768.54837 -0.04549
3767.26261 -0.04450
3765.97686 -0.04101
3764.69110 -0.03660
3763.40535 -0.03211
3762.11959 -0.02837
3760.83384 -0.02683
3759.54808 -0.02848
3758.26233 -0.03232
3756.97657 -0.03555
3755.69081 -0.03549
3754.40506 -0.03123
3753.11930 -0.02411
3751.83355 -0.01732
3750.54779 -0.01423
3749.26204 -0.01607
3747.97628 -0.02064
3746.69053 -0.02427
3745.40477 -0.02560
3744.11902 -0.02698
3742.83326 -0.03132
3741.54751 -0.03772
3740.26175 -0.04207
3738.97600 -0.04205
3737.69024 -0.03974
3736.40449 -0.03874
3735.11873 -0.04000
3733.83298 -0.04191
3732.54722 -0.04291
3731.26147 -0.04258
3729.97571 -0.04058
3728.68996 -0.03636
3727.40420 -0.03017
3726.11845 -0.02348
3724.83269 -0.01817
3723.54694 -0.01581
3722.26118 -0.01743
3720.97543 -0.02288
3719.68967 -0.03008
3718.40392 -0.03604
3717.11816 -0.03927
3715.83241 -0.04072
3714.54665 -0.04173
3713.26089 -0.04204
3711.97514 -0.04065
3710.68938 -0.03831
3709.40363 -0.03771
3708.11787 -0.04071
3706.83212 -0.04623
3705.54636 -0.05140
3704.26061 -0.05383
3702.97485 -0.05267
3701.68910 -0.04850
3700.40334 -0.04294
3699.11759 -0.03783
3697.83183 -0.03431
3696.54608 -0.03249
3695.26032 -0.03186
3693.97457 -0.03160
3692.68881 -0.03106
3691.40306 -0.03057
3690.11730 -0.03130
3688.83155 -0.03421
3687.54579 -0.03884
3686.26004 -0.04364
3684.97428 -0.04726
3683.68853 -0.04927
3682.40277 -0.04974
3681.11702 -0.04859
3679.83126 -0.04574
3678.54551 -0.04201
3677.25975 -0.03885
3675.97400 -0.03677
3674.68824 -0.03452
3673.40248 -0.03083
3672.11673 -0.02675
3670.83097 -0.02480
3669.54522 -0.02598
3668.25946 -0.02871
3666.97371 -0.03143
3665.68795 -0.03465
3664.40220 -0.03908
3663.11644 -0.04314
3661.83069 -0.04450
3660.54493 -0.04363
3659.25918 -0.04351
3657.97342 -0.04583
3656.68767 -0.04981
3655.40191 -0.05463
3654.11616 -0.06067
3652.83040 -0.06734
3651.54465 -0.07250
3650.25889 -0.07508
3648.97314 -0.07688
3647.68738 -0.08035
3646.40163 -0.08518
3645.11587 -0.08786
3643.83012 -0.08458
3642.54436 -0.07483
3641.25861 -0.06204
3639.97285 -0.05072
3638.68710 -0.04353
3637.40134 -0.04145
3636.11559 -0.04519
3634.82983 -0.05451
3633.54408 -0.06585
3632.25832 -0.07343
3630.97256 -0.07412
3629.68681 -0.07012
3628.40105 -0.06573
3627.11530 -0.06268
3625.82954 -0.06024
3624.54379 -0.05822
3623.25803 -0.05754
3621.97228 -0.05803
3620.68652 -0.05838
3619.40077 -0.05837
3618.11501 -0.05932
3616.82926 -0.06181
3615.54350 -0.06439
3614.25775 -0.06523
3612.97199 -0.06396
3611.68624 -0.06152
3610.40048 -0.05928
3609.11473 -0.05885
3607.82897 -0.06188
3606.54322 -0.06864
3605.25746 -0.07700
3603.97171 -0.08366
3602.68595 -0.08699
3601.40020 -0.08803
3600.11444 -0.08833
3598.82869 -0.08777
3597.54293 -0.08568
3596.25718 -0.08309
3594.97142 -0.08220
3593.68567 -0.08370
3592.39991 -0.08602
3591.11415 -0.08769
3589.82840 -0.08903
3588.54264 -0.09066
3587.25689 -0.09139
3585.97113 -0.08906
3584.68538 -0.08352
3583.39962 -0.07725
3582.11387 -0.07283
3580.82811 -0.07080
3579.54236 -0.07041
3578.25660 -0.07133
3576.97085 -0.07372
3575.68509 -0.07727
3574.39934 -0.08105
3573.11358 -0.08385
3571.82783 -0.08492
3570.54207 -0.08497
3569.25632 -0.08617
3567.97056 -0.09004
3566.68481 -0.09540
3565.39905 -0.09951
3564.11330 -0.10151
3562.82754 -0.10346
3561.54179 -0.10728
3560.25603 -0.11193
3558.97028 -0.11460
3557.68452 -0.11407
3556.39877 -0.11121
3555.11301 -0.10663
3553.82726 -0.09999
3552.54150 -0.09270
3551.25574 -0.08914
3549.96999 -0.09316
3548.68423 -0.10355
3547.39848 -0.11408
3546.11272 -0.11817
3544.82697 -0.11343
3543.54121 -0.10284
3542.25546 -0.09233
3540.96970 -0.08681
3539.68395 -0.08764
3538.39819 -0.09270
3537.11244 -0.09826
3535.82668 -0.10085
3534.54093 -0.09867
3533.25517 -0.09281
3531.96942 -0.08733
3530.68366 -0.08693
3529.39791 -0.09307
3528.11215 -0.10217
3526.82640 -0.10854
3525.54064 -0.10920
3524.25489 -0.10569
3522.96913 -0.10177
3521.68338 -0.10029
3520.39762 -0.10177
3519.11187 -0.10472
3517.82611 -0.10739
3516.54036 -0.10995
3515.25460 -0.11425
3513.96885 -0.12070
3512.68309 -0.12648
3511.39734 -0.12801
3510.11158 -0.12464
3508.82582 -0.11865
3507.54007 -0.11224
3506.25431 -0.10609
3504.96856 -0.10057
3503.68280 -0.09681
3502.39705 -0.09533
3501.11129 -0.09445
3499.82554 -0.09153
3498.53978 -0.08622
3497.25403 -0.08144
3495.96827 -0.08047
3494.68252 -0.08362
3493.39676 -0.08845
3492.11101 -0.09236
3490.82525 -0.09443
3489.53950 -0.09516
3488.25374 -0.09508
3486.96799 -0.09395
3485.68223 -0.09143
3484.39648 -0.08837
3483.11072 -0.08666
3481.82497 -0.08742
3480.53921 -0.09006
3479.25346 -0.09323
3477.96770 -0.09580
3476.68195 -0.09670
3475.39619 -0.09528
3474.11044 -0.09254
3472.82468 -0.09089
3471.53893 -0.09193
3470.25317 -0.09481
3468.96741 -0.09737
3467.68166 -0.09844
3466.39590 -0.09817
3465.11015 -0.09674
3463.82439 -0.09374
3462.53864 -0.08960
3461.25288 -0.08609
3459.96713 -0.08465
3458.68137 -0.08438
3457.39562 -0.08290
3456.10986 -0.07906
3454.82411 -0.07423
3453.53835 -0.07109
3452.25260 -0.07161
3450.96684 -0.07550
3449.68109 -0.08021
3448.39533 -0.08274
3447.10958 -0.08212
3445.82382 -0.07970
3444.53807 -0.07714
3443.25231 -0.07505
3441.96656 -0.07362
3440.68080 -0.07301
3439.39505 -0.07250
3438.10929 -0.07016
3436.82354 -0.06484
3435.53778 -0.05782
3434.25203 -0.05164
3432.96627 -0.04715
3431.68052 -0.04276
3430.39476 -0.03669
3429.10900 -0.02945
3427.82325 -0.02327
3426.53749 -0.01965
3425.25174 -0.01806
3423.96598 -0.01704
3422.68023 -0.01594
3421.39447 -0.01528
3420.10872 -0.01551
3418.82296 -0.01584
3417.53721 -0.01482
3416.25145 -0.01273
3414.96570 -0.01260
3413.67994 -0.01720
3412.39419 -0.02470
3411.10843 -0.02911
3409.82268 -0.02620
3408.53692 -0.01832
3407.25117 -0.01217
3405.96541 -0.01204
3404.67966 -0.01638
3403.39390 -0.02101
3402.10815 -0.02302
3400.82239 -0.01970
3399.53664 -0.01459
3398.25088 -0.01026
3396.96513 -0.00580
3395.67937 -0.00070
3394.39362 0.00407
3393.10786 0.00728
3391.82211 0.00823
3390.53635 0.00706
3389.25060 0.00486
3387.96484 0.00365
3386.67908 0.00557
3385.39333 0.01116
3384.10757 0.01835
3382.82182 0.02408
3381.53606 0.02718
3380.25031 0.02880
3378.96455 0.02995
3377.67880 0.03005
3376.39304 0.02892
3375.10729 0.02842
3373.82153 0.03058
3372.53578 0.03471
3371.25002 0.03755
3369.96427 0.03661
3368.67851 0.03260
3367.39276 0.02905
3366.10700 0.02957
3364.82125 0.03533
3363.53549 0.04455
3362.24974 0.05373
3360.96398 0.05946
3359.67823 0.06007
3358.39247 0.05697
3357.10672 0.05416
3355.82096 0.05481
3354.53521 0.05812
3353.24945 0.06056
3351.96370 0.06019
3350.67794 0.05880
3349.39219 0.05942
3348.10643 0.06284
3346.82067 0.06731
3345.53492 0.07102
3344.24916 0.07395
3342.96341 0.07712
3341.67765 0.08090
3340.39190 0.08433
3339.10614 0.08611
3337.82039 0.08566
3336.53463 0.08345
3335.24888 0.08065
3333.96312 0.07855
3332.67737 0.07825
3331.39161 0.08004
3330.10586 0.08295
3328.82010 0.08499
3327.53435 0.08471
3326.24859 0.08263
3324.96284 0.08072
3323.67708 0.08023
3322.39133 0.08052
3321.10557 0.08039
3319.81982 0.07999
3318.53406 0.08075
3317.24831 0.08345
3315.96255 0.08704
3314.67680 0.08987
3313.39104 0.09194
3312.10529 0.09504
3310.81953 0.10018
3309.53378 0.10585
3308.24802 0.10954
3306.96227 0.11050
3305.67651 0.11028
3304.39075 0.11061
3303.10500 0.11176
3301.81924 0.11266
3300.53349 0.11215
3299.24773 0.11003
3297.96198 0.10746
3296.67622 0.10636
3295.39047 0.10805
3294.10471 0.11238
3292.81896 0.11801
3291.53320 0.12341
3290.24745 0.12735
3288.96169 0.12888
3287.67594 0.12781
3286.39018 0.12535
3285.10443 0.12357
3283.81867 0.12356
3282.53292 0.12436
3281.24716 0.12450
3279.96141 0.12422
3278.67565 0.12514
3277.38990 0.12789
3276.10414 0.13079
3274.81839 0.13175
3273.53263 0.13071
3272.24688 0.12941
3270.96112 0.12891
3269.67537 0.12837
3268.38961 0.12655
3267.10386 0.12420
3265.81810 0.12388
3264.53234 0.12749
3263.24659 0.13414
3261.96083 0.14075
3260.67508 0.14452
3259.38932 0.14476
3258.10357 0.14265
3256.81781 0.13961
3255.53206 0.13647
3254.24630 0.13400
3252.96055 0.13349
3251.67479 0.13571
3250.38904 0.13959
3249.10328 0.14287
3247.81753 0.14424
3246.53177 0.14428
3245.24602 0.14415
3243.96026 0.14397
3242.67451 0.14285
3241.38875 0.14033
3240.10300 0.13730
3238.81724 0.13537
3237.53149 0.13555
3236.24573 0.13743
3234.95998 0.13951
3233.67422 0.14045
3232.38847 0.14017
3231.10271 0.13989
3229.81696 0.14098
3228.53120 0.14367
3227.24545 0.14684
3225.95969 0.14878
3224.67393 0.14822
3223.38818 0.14534
3222.10242 0.14177
3220.81667 0.13938
3219.53091 0.13850
3218.24516 0.13789
3216.95940 0.13666
3215.67365 0.13545
3214.38789 0.13529
3213.10214 0.13606
3211.81638 0.13683
3210.53063 0.13723
3209.24487 0.13793
3207.95912 0.13962
3206.67336 0.14188
3205.38761 0.14318
3204.10185 0.14243
3202.81610 0.14034
3201.53034 0.13887
3200.24459 0.13896
3198.95883 0.13970
3197.67308 0.13988
3196.38732 0.13970
3195.10157 0.14040
3193.81581 0.14244
3192.53006 0.14483
3191.24430 0.14610
3189.95855 0.14581
3188.67279 0.14488
3187.38704 0.14440
3186.10128 0.14441
3184.81553 0.14414
3183.52977 0.14315
3182.24401 0.14183
3180.95826 0.14070
3179.67250 0.13974
3178.38675 0.13858
3177.10099 0.13733
3175.81524 0.13685
3174.52948 0.13793
3173.24373 0.14016
3171.95797 0.14171
3170.67222 0.14087
3169.38646 0.13772
3168.10071 0.13415
3166.81495 0.13205
3165.52920 0.13167
3164.24344 0.13177
3162.95769 0.13117
3161.67193 0.12985
3160.38618 0.12867
3159.10042 0.12816
3157.81467 0.12794
3156.52891 0.12722
3155.24316 0.12592
3153.95740 0.12491
3152.67165 0.12518
3151.38589 0.12664
3150.10014 0.12810
3148.81438 0.12863
3147.52863 0.12866
3146.24287 0.12927
3144.95712 0.13056
3143.67136 0.13167
3142.38560 0.13206
3141.09985 0.13207
3139.81409 0.13202
3138.52834 0.13163
3137.24258 0.13071
3135.95683 0.12965
3134.67107 0.12872
3133.38532 0.12750
3132.09956 0.12560
3130.81381 0.12352
3129.52805 0.12235
3128.24230 0.12277
3126.95654 0.12459
3125.67079 0.12700
3124.38503 0.12903
3123.09928 0.12987
3121.81352 0.12936
3120.52777 0.12813
3119.24201 0.12719
3117.95626 0.12713
3116.67050 0.12797
3115.38475 0.12941
3114.09899 0.13105
3112.81324 0.13239
3111.52748 0.13265
3110.24173 0.13113
3108.95597 0.12790
3107.67022 0.12408
3106.38446 0.12118
3105.09871 0.11975
3103.81295 0.11902
3102.52719 0.11794
3101.24144 0.11664
3099.95568 0.11627
3098.66993 0.11761
3097.38417 0.12020
3096.09842 0.12286
3094.81266 0.12473
3093.52691 0.12563
3092.24115 0.12571
3090.95540 0.12507
3089.66964 0.12387
3088.38389 0.12237
3087.09813 0.12079
3085.81238 0.11942
3084.52662 0.11874
3083.24087 0.11903
3081.95511 0.11977
3080.66936 0.11988
3079.38360 0.11903
3078.09785 0.11808
3076.81209 0.11806
3075.52634 0.11904
3074.24058 0.12022
3072.95483 0.12087
3071.66907 0.12082
3070.38332 0.12034
3069.09756 0.11985
3067.81181 0.11955
3066.52605 0.11920
3065.24030 0.11831
3063.95454 0.11687
3062.66879 0.11559
3061.38303 0.11530
3060.09727 0.11602
3058.81152 0.11702
3057.52576 0.11767
3056.24001 0.11803
3054.95425 0.11830
3053.66850 0.11827
3052.38274 0.11771
3051.09699 0.11703
3049.81123 0.11688
3048.52548 0.11720
3047.23972 0.11698
3045.95397 0.11533
3044.66821 0.11245
3043.38246 0.10959
3042.09670 0.10799
3040.81095 0.10787
3039.52519 0.10846
3038.23944 0.10901
3036.95368 0.10947
3035.66793 0.10997
3034.38217 0.11016
3033.09642 0.10957
3031.81066 0.10865
3030.52491 0.10860
3029.23915 0.11002
3027.95340 0.11199
3026.66764 0.11288
3025.38189 0.11188
3024.09613 0.10957
3022.81038 0.10740
3021.52462 0.10651
3020.23886 0.10699
3018.95311 0.10790
3017.66735 0.10806
3016.38160 0.10691
3015.09584 0.10485
3013.81009 0.10295
3012.52433 0.10223
3011.23858 0.10305
3009.95282 0.10496
3008.66707 0.10710
3007.38131 0.10873
3006.09556 0.10961
3004.80980 0.10977
3003.52405 0.10883
3002.23829 0.10674
3000.95254 0.10616
2999.66678 0.10681
2998.38103 0.10548
2997.09527 0.10402
2995.80952 0.10297
2994.52376 0.10269
2993.23801 0.10296
2991.95225 0.10329
2990.66650 0.10358
2989.38074 0.10416
2988.09499 0.10522
2986.80923 0.10610
2985.52348 0.10613
2984.23772 0.10547
2982.95197 0.10497
2981.66621 0.10510
2980.38046 0.10563
2979.09470 0.10627
2977.80894 0.10695
2976.52319 0.10751
2975.23743 0.10762
2973.95168 0.10709
2972.66592 0.10609
2971.38017 0.10486
2970.09441 0.10378
2968.80866 0.10345
2967.52290 0.10440
2966.23715 0.10650
2964.95139 0.10894
2963.66564 0.11095
2962.37988 0.11233
2961.09413 0.11336
2959.80837 0.11431
2958.52262 0.11512
2957.23686 0.11563
2955.95111 0.11577
2954.66535 0.11542
2953.37960 0.11451
2952.09384 0.11332
2950.80809 0.11255
2949.52233 0.11256
2948.23658 0.11296
2946.95082 0.11324
2945.66507 0.11349
2944.37931 0.11397
2943.09356 0.11427
2941.80780 0.11373
2940.52205 0.11263
2939.23629 0.11197
2937.95053 0.11221
2936.66478 0.11280
2935.37902 0.11335
2934.09327 0.11432
2932.80751 0.11614
2931.52176 0.11820
2930.23600 0.11933
2928.95025 0.11912
2927.66449 0.11822
2926.37874 0.11742
2925.09298 0.11696
2923.80723 0.11670
2922.52147 0.11652
2921.23572 0.11617
2919.94996 0.11527
2918.66421 0.11370
2917.37845 0.11183
2916.09270 0.11018
2914.80694 0.10898
2913.52119 0.10809
2912.23543 0.10737
2910.94968 0.10685
2909.66392 0.10658
2908.37817 0.10647
2907.09241 0.10644
2905.80666 0.10638
2904.52090 0.10611
2903.23515 0.10550
2901.94939 0.10465
2900.66364 0.10395
2899.37788 0.10358
2898.09212 0.10328
2896.80637 0.10265
2895.52061 0.10164
2894.23486 0.10055
2892.94910 0.09970
2891.66335 0.09916
2890.37759 0.09879
2889.09184 0.09836
2887.80608 0.09776
2886.52033 0.09718
2885.23457 0.09692
2883.94882 0.09710
2882.66306 0.09766
2881.37731 0.09839
2880.09155 0.09890
2878.80580 0.09876
2877.52004 0.09798
2876.23429 0.09708
2874.94853 0.09655
2873.66278 0.09641
2872.37702 0.09631
2871.09127 0.09610
2869.80551 0.09603
2868.51976 0.09632
2867.23400 0.09680
2865.94825 0.09697
2864.66249 0.09660
2863.37674 0.09604
2862.09098 0.09584
2860.80523 0.09603
2859.51947 0.09585
2858.23372 0.09455
2856.94796 0.09234
2855.66220 0.09045
2854.37645 0.08989
2853.09069 0.09051
2851.80494 0.09127
2850.51918 0.09132
2849.23343 0.09058
2847.94767 0.08943
2846.66192 0.08826
2845.37616 0.08732
2844.09041 0.08659
2842.80465 0.08587
2841.51890 0.08505
2840.23314 0.08428
2838.94739 0.08382
2837.66163 0.08371
2836.37588 0.08363
2835.09012 0.08329
2833.80437 0.08273
2832.51861 0.08217
2831.23286 0.08170
2829.94710 0.08128
2828.66135 0.08088
2827.37559 0.08055
2826.08984 0.08027
2824.80408 0.07997
2823.51833 0.07969
2822.23257 0.07959
2820.94682 0.07962
2819.66106 0.07957
2818.37531 0.07923
2817.08955 0.07859
2815.80379 0.07765
2814.51804 0.07651
2813.23228 0.07536
2811.94653 0.07452
2810.66077 0.07414
2809.37502 0.07422
2808.08926 0.07460
2806.80351 0.07502
2805.51775 0.07522
2804.23200 0.07510
2802.94624 0.07487
2801.66049 0.07486
2800.37473 0.07507
2799.08898 0.07494
2797.80322 0.07393
2796.51747 0.07223
2795.23171 0.07070
2793.94596 0.07004
2792.66020 0.07024
2791.37445 0.07089
2790.08869 0.07160
2788.80294 0.07200
2787.51718 0.07173
2786.23143 0.07069
2784.94567 0.06930
2783.65992 0.06825
2782.37416 0.06798
2781.08841 0.06841
2779.80265 0.06909
2778.51690 0.06963
2777.23114 0.06990
2775.94538 0.06997
2774.65963 0.06999
2773.37387 0.07003
2772.08812 0.07002
2770.80236 0.06979
2769.51661 0.06928
2768.23085 0.06868
2766.94510 0.06823
2765.65934 0.06799
2764.37359 0.06780
2763.08783 0.06750
2761.80208 0.06711
2760.51632 0.06686
2759.23057 0.06700
2757.94481 0.06747
2756.65906 0.06800
2755.37330 0.06824
2754.08755 0.06812
2752.80179 0.06781
2751.51604 0.06759
2750.23028 0.06751
2748.94453 0.06728
2747.65877 0.06658
2746.37302 0.06550
2745.08726 0.06468
2743.80151 0.06462
2742.51575 0.06520
2741.23000 0.06585
2739.94424 0.06616
2738.65849 0.06606
2737.37273 0.06564
2736.08698 0.06501
2734.80122 0.06430
2733.51546 0.06371
2732.22971 0.06338
2730.94395 0.06335
2729.65820 0.06353
2728.37244 0.06373
2727.08669 0.06377
2725.80093 0.06357
2724.51518 0.06333
2723.22942 0.06333
2721.94367 0.06363
2720.65791 0.06385
2719.37216 0.06348
2718.08640 0.06245
2716.80065 0.06118
2715.51489 0.06021
2714.22914 0.05973
2712.94338 0.05966
2711.65763 0.05989
2710.37187 0.06033
2709.08612 0.06075
2707.80036 0.06090
2706.51461 0.06079
2705.22885 0.06066
2703.94310 0.06069
2702.65734 0.06075
2701.37159 0.06063
2700.08583 0.06036
2698.80008 0.06014
2697.51432 0.06004
2696.22857 0.05986
2694.94281 0.05939
2693.65705 0.05875
2692.37130 0.05825
2691.08554 0.05809
2689.79979 0.05820
2688.51403 0.05843
2687.22828 0.05862
2685.94252 0.05865
2684.65677 0.05860
2683.37101 0.05863
2682.08526 0.05878
2680.79950 0.05873
2679.51375 0.05817
2678.22799 0.05726
2676.94224 0.05650
2675.65648 0.05626
2674.37073 0.05656
2673.08497 0.05718
2671.79922 0.05774
2670.51346 0.05778
2669.22771 0.05710
2667.94195 0.05595
2666.65620 0.05484
2665.37044 0.05413
2664.08469 0.05388
2662.79893 0.05392
2661.51318 0.05404
2660.22742 0.05405
2658.94167 0.05394
2657.65591 0.05380
2656.37016 0.05366
2655.08440 0.05337
2653.79865 0.05289
2652.51289 0.05245
2651.22713 0.05237
2649.94138 0.05263
2648.65562 0.05276
2647.36987 0.05237
2646.08411 0.05144
2644.79836 0.05031
2643.51260 0.04943
2642.22685 0.04919
2640.94109 0.04971
2639.65534 0.05063
2638.36958 0.05124
2637.08383 0.05111
2635.79807 0.05040
2634.51232 0.04959
2633.22656 0.04910
2631.94081 0.04912
2630.65505 0.04961
2629.36930 0.05026
2628.08354 0.05068
2626.79779 0.05073
2625.51203 0.05048
2624.22628 0.05008
2622.94052 0.04957
2621.65477 0.04896
2620.36901 0.04832
2619.08326 0.04771
2617.79750 0.04712
2616.51175 0.04661
2615.22599 0.04633
2613.94024 0.04643
2612.65448 0.04682
2611.36872 0.04711
2610.08297 0.04701
2608.79721 0.04657
2607.51146 0.04618
2606.22570 0.04615
2604.93995 0.04640
2603.65419 0.04656
2602.36844 0.04631
2601.08268 0.04575
2599.79693 0.04538
2598.51117 0.04575
2597.22542 0.04690
2595.93966 0.04818
2594.65391 0.04872
2593.36815 0.04815
2592.08240 0.04685
2590.79664 0.04544
2589.51089 0.04423
2588.22513 0.04330
2586.93938 0.04288
2585.65362 0.04337
2584.36787 0.04479
2583.08211 0.04659
2581.79636 0.04791
2580.51060 0.04831
2579.22485 0.04808
2577.93909 0.04784
2576.65334 0.04790
2575.36758 0.04811
2574.08183 0.04810
2572.79607 0.04760
2571.51031 0.04654
2570.22456 0.04513
2568.93880 0.04379
2567.65305 0.04289
2566.36729 0.04253
2565.08154 0.04262
2563.79578 0.04308
2562.51003 0.04376
2561.22427 0.04439
2559.93852 0.04475
2558.65276 0.04489
2557.36701 0.04504
2556.08125 0.04544
2554.79550 0.04610
2553.50974 0.04679
2552.22399 0.04719
2550.93823 0.04704
2549.65248 0.04647
2548.36672 0.04587
2547.08097 0.04561
2545.79521 0.04565
2544.50946 0.04558
2543.22370 0.04509
2541.93795 0.04440
2540.65219 0.04400
2539.36644 0.04407
2538.08068 0.04426
2536.79493 0.04416
2535.50917 0.04379
2534.22342 0.04357
2532.93766 0.04386
2531.65191 0.04461
2530.36615 0.04531
2529.08039 0.04544
2527.79464 0.04508
2526.50888 0.04489
2525.22313 0.04540
2523.93737 0.04633
2522.65162 0.04698
2521.36586 0.04702
2520.08011 0.04667
2518.79435 0.04624
2517.50860 0.04571
2516.22284 0.04495
2514.93709 0.04404
2513.65133 0.04331
2512.36558 0.04301
2511.07982 0.04296
2509.79407 0.04265
2508.50831 0.04185
2507.22256 0.04108
2505.93680 0.04123
2504.65105 0.04252
2503.36529 0.04410
2502.07954 0.04484
2500.79378 0.04447
2499.50803 0.04371
2498.22227 0.04341
2496.93652 0.04381
2495.65076 0.04439
2494.36501 0.04451
2493.07925 0.04402
2491.79350 0.04321
2490.50774 0.04242
2489.22198 0.04177
2487.93623 0.04133
2486.65047 0.04117
2485.36472 0.04131
2484.07896 0.04161
2482.79321 0.04203
2481.50745 0.04263
2480.22170 0.04328
2478.93594 0.04358
2477.65019 0.04319
2476.36443 0.04229
2475.07868 0.04141
2473.79292 0.04092
2472.50717 0.04072
2471.22141 0.04060
2469.93566 0.04057
2468.64990 0.04064
2467.36415 0.04052
2466.07839 0.03984
2464.79264 0.03879
2463.50688 0.03817
2462.22113 0.03844
2460.93537 0.03925
2459.64962 0.04002
2458.36386 0.04064
2457.07811 0.04133
2455.79235 0.04195
2454.50660 0.04193
2453.22084 0.04116
2451.93509 0.04033
2450.64933 0.04021
2449.36357 0.04072
2448.07782 0.04109
2446.79206 0.04097
2445.50631 0.04082
2444.22055 0.04126
2442.93480 0.04216
2441.64904 0.04279
2440.36329 0.04251
2439.07753 0.04129
2437.79178 0.03967
2436.50602 0.03846
2435.22027 0.03821
2433.93451 0.03885
2432.64876 0.03973
2431.36300 0.04023
2430.07725 0.04019
2428.79149 0.03980
2427.50574 0.03931
2426.21998 0.03884
2424.93423 0.03848
2423.64847 0.03833
2422.36272 0.03840
2421.07696 0.03858
2419.79121 0.03879
2418.50545 0.03908
2417.21970 0.03945
2415.93394 0.03974
2414.64819 0.03980
2413.36243 0.03962
2412.07668 0.03932
2410.79092 0.03890
2409.50517 0.03836
2408.21941 0.03777
2406.93365 0.03740
2405.64790 0.03754
2404.36214 0.03837
2403.07639 0.03962
2401.79063 0.04073
2400.50488 0.04105
2399.21912 0.03825
2397.93337 0.03872
2396.64761 0.03929
2395.36186 0.03941
2394.07610 0.03985
2392.79035 0.04049
2391.50459 0.04089
2390.21884 0.04079
2388.93308 0.04033
2387.64733 0.03970
2386.36157 0.03909
2385.07582 0.03870
2383.79006 0.03871
2382.50431 0.03907
2381.21855 0.03943
2379.93280 0.03942
2378.64704 0.03907
2377.36129 0.03877
2376.07553 0.03899
2374.78978 0.03976
2373.50402 0.04075
2372.21827 0.04150
2370.93251 0.04177
2369.64676 0.04154
2368.36100 0.04093
2367.07524 0.04017
2365.78949 0.03952
2364.50373 0.03915
2363.21798 0.03907
2361.93222 0.03910
2360.64647 0.03913
2359.36071 0.03913
2358.07496 0.03920
2356.78920 0.03929
2355.50345 0.03925
2354.21769 0.03901
2352.93194 0.03871
2351.64618 0.03854
2350.36043 0.03845
2349.07467 0.03827
2347.78892 0.03796
2346.50316 0.03773
2345.21741 0.03760
2343.93165 0.03742
2342.64590 0.03716
2341.36014 0.03705
2340.07439 0.03714
2338.78863 0.03711
2337.50288 0.03685
2336.21712 0.03677
2334.93137 0.03665
2333.64561 0.03585
2332.35986 0.03450
2331.07410 0.03325
2329.78835 0.03185
2328.50259 0.02998
2327.21684 0.02838
2325.93108 0.02724
2324.64532 0.02649
2323.35957 0.02671
2322.07381 0.02791
2320.78806 0.02934
2319.50230 0.03080
2318.21655 0.03195
2316.93079 0.03254
2315.64504 0.03307
2314.35928 0.03372
2313.07353 0.03426
2311.78777 0.03450
2310.50202 0.03424
2309.21626 0.03376
2307.93051 0.03338
2306.64475 0.03294
2305.35900 0.03225
2304.07324 0.03132
2302.78749 0.03044
2301.50173 0.02980
2300.21598 0.02912
2298.93022 0.02810
2297.64447 0.02683
2296.35871 0.02580
2295.07296 0.02546
2293.78720 0.02575
2292.50145 0.02629
2291.21569 0.02671
2289.92994 0.02693
2288.64418 0.02703
2287.35843 0.02705
2286.07267 0.02707
2284.78691 0.02724
2283.50116 0.02771
2282.21540 0.02836
2280.92965 0.02879
2279.64389 0.02871
2278.35814 0.02824
2277.07238 0.02781
2275.78663 0.02756
2274.50087 0.02720
2273.21512 0.02641
2271.92936 0.02526
2270.64361 0.02413
2269.35785 0.02335
2268.07210 0.02313
2266.78634 0.02351
2265.50059 0.02435
2264.21483 0.02531
2262.92908 0.02605
2261.64332 0.02636
2260.35757 0.02612
2259.07181 0.02542
2257.78606 0.02468
2256.50030 0.02439
2255.21455 0.02474
2253.92879 0.02554
2252.64304 0.02662
2251.35728 0.02843
2250.07153 0.03107
2248.78577 0.03198
2247.50002 0.03235
2246.21426 0.03180
2244.92850 0.03028
2243.64275 0.02824
2242.35699 0.02638
2241.07124 0.02519
2239.78548 0.02477
2238.49973 0.02503
2237.21397 0.02580
2235.92822 0.02666
2234.64246 0.02698
2233.35671 0.02638
2232.07095 0.02502
2230.78520 0.02334
2229.49944 0.02179
2228.21369 0.02089
2226.92793 0.02117
2225.64218 0.02258
2224.35642 0.02404
2223.07067 0.02441
2221.78491 0.02350
2220.49916 0.02204
2219.21340 0.02074
2217.92765 0.01998
2216.64189 0.01998
2215.35614 0.02065
2214.07038 0.02152
2212.78463 0.02226
2211.49887 0.02324
2210.21312 0.02481
2208.92736 0.02631
2207.64161 0.02642
2206.35585 0.02466
2205.07010 0.02210
2203.78434 0.02021
2202.49858 0.01956
2201.21283 0.01978
2199.92707 0.02018
2198.64132 0.02014
2197.35556 0.01937
2196.06981 0.01822
2194.78405 0.01754
2193.49830 0.01779
2192.21254 0.01877
2190.92679 0.02007
2189.64103 0.02136
2188.35528 0.02204
2187.06952 0.02144
2185.78377 0.01969
2184.49801 0.01793
2183.21226 0.01737
2181.92650 0.01812
2180.64075 0.01912
2179.35499 0.01904
2178.06924 0.01737
2176.78348 0.01487
2175.49773 0.01299
2174.21197 0.01277
2172.92622 0.01415
2171.64046 0.01622
2170.35471 0.01772
2169.06895 0.01767
2167.78320 0.01593
2166.49744 0.01355
2165.21169 0.01247
2163.92593 0.01411
2162.64017 0.01814
2161.35442 0.02292
2160.06866 0.02721
2158.78291 0.03107
2157.49715 0.03445
2156.21140 0.03611
2154.92564 0.03498
2153.63989 0.03182
2152.35413 0.02903
2151.06838 0.02868
2149.78262 0.03072
2148.49687 0.03320
2147.21111 0.03410
2145.92536 0.03295
2144.63960 0.03060
2143.35385 0.02816
2142.06809 0.02647
2140.78234 0.02596
2139.49658 0.02645
2138.21083 0.02730
2136.92507 0.02805
2135.63932 0.02875
2134.35356 0.02954
2133.06781 0.03020
2131.78205 0.03032
2130.49630 0.02978
2129.21054 0.02895
2127.92479 0.02830
2126.63903 0.02790
2125.35328 0.02733
2124.06752 0.02612
2122.78176 0.02429
2121.49601 0.02238
2120.21025 0.02103
2118.92450 0.02058
2117.63874 0.02079
2116.35299 0.02103
2115.06723 0.02092
2113.78148 0.02074
2112.49572 0.02096
2111.20997 0.02164
2109.92421 0.02237
2108.63846 0.02269
2107.35270 0.02229
2106.06695 0.02113
2104.78119 0.01955
2103.49544 0.01824
2102.20968 0.01779
2100.92393 0.01837
2099.63817 0.02181
2098.35242 0.02323
2097.06666 0.02326
2095.78091 0.02294
2094.49515 0.02245
2093.20940 0.02173
2091.92364 0.02060
2090.63789 0.01903
2089.35213 0.01733
2088.06638 0.01605
2086.78062 0.01561
2085.49487 0.01591
2084.20911 0.01644
2082.92336 0.01685
2081.63760 0.01706
2080.35184 0.01710
2079.06609 0.01697
2077.78033 0.01693
2076.49458 0.01739
2075.20882 0.01833
2073.92307 0.01920
2072.63731 0.01949
2071.35156 0.01925
2070.06580 0.01881
2068.78005 0.01837
2067.49429 0.01800
2066.20854 0.01780
2064.92278 0.01772
2063.63703 0.01730
2062.35127 0.01596
2061.06552 0.01381
2059.77976 0.01180
2058.49401 0.01095
2057.20825 0.01121
2055.92250 0.01138
2054.63674 0.01027
2053.35099 0.00801
2052.06523 0.00602
2050.77948 0.00572
2049.49372 0.00721
2048.20797 0.00936
2046.92221 0.01114
2045.63646 0.01234
2044.35070 0.01315
2043.06495 0.01352
2041.77919 0.01343
2040.49343 0.01337
2039.20768 0.01391
2037.92192 0.01506
2036.63617 0.01625
2035.35041 0.01695
2034.06466 0.01725
2032.77890 0.01761
2031.49315 0.01823
2030.20739 0.01867
2028.92164 0.01826
2027.63588 0.01692
2026.35013 0.01537
2025.06437 0.01451
2023.77862 0.01463
2022.49286 0.01532
2021.20711 0.01607
2019.92135 0.01679
2018.63560 0.01766
2017.34984 0.01865
2016.06409 0.01927
2014.77833 0.01889
2013.49258 0.01747
2012.20682 0.01596
2010.92107 0.01589
2009.63531 0.01817
2008.34956 0.02200
2007.06380 0.02520
2005.77805 0.02593
2004.49229 0.02407
2003.20654 0.02100
2001.92078 0.01815
2000.63503 0.01632
1999.34927 0.01567
1998.06351 0.01598
1996.77776 0.01669
1995.49200 0.01712
1994.20625 0.01695
1992.92049 0.01635
1991.63474 0.01561
1990.34898 0.01479
1989.06323 0.01392
1987.77747 0.01336
1986.49172 0.01341
1985.20596 0.01382
1983.92021 0.01402
1982.63445 0.01392
1981.34870 0.01422
1980.06294 0.01567
1978.77719 0.01830
1977.49143 0.02136
1976.20568 0.02384
1974.91992 0.02509
1973.63417 0.02516
1972.34841 0.02485
1971.06266 0.02506
1969.77690 0.02608
1968.49115 0.02733
1967.20539 0.02780
1965.91964 0.02706
1964.63388 0.02568
1963.34813 0.02472
1962.06237 0.02481
1960.77662 0.02564
1959.49086 0.02626
1958.20510 0.02580
1956.91935 0.02408
1955.63359 0.02176
1954.34784 0.02003
1953.06208 0.01981
1951.77633 0.02098
1950.49057 0.02249
1949.20482 0.02326
1947.91906 0.02315
1946.63331 0.02285
1945.34755 0.02301
1944.06180 0.02359
1942.77604 0.02409
1941.49029 0.02421
1940.20453 0.02406
1938.91878 0.02392
1937.63302 0.02396
1936.34727 0.02416
1935.06151 0.02434
1933.77576 0.02433
1932.49000 0.02414
1931.20425 0.02398
1929.91849 0.02404
1928.63274 0.02426
1927.34698 0.02440
1926.06123 0.02424
1924.77547 0.02375
1923.48972 0.02304
1922.20396 0.02237
1920.91821 0.02203
1919.63245 0.02220
1918.34669 0.02269
1917.06094 0.02309
1915.77518 0.02309
1914.48943 0.02271
1913.20367 0.02216
1911.91792 0.02161
1910.63216 0.02119
1909.34641 0.02096
1908.06065 0.02096
1906.77490 0.02111
1905.48914 0.02129
1904.20339 0.02146
1902.91763 0.02160
1901.63188 0.02170
1900.34612 0.02173
1899.06037 0.02182
1897.77461 0.02209
1896.48886 0.02248
1895.20310 0.02276
1893.91735 0.02268
1892.63159 0.02228
1891.34584 0.02185
1890.06008 0.02175
1888.77433 0.02208
1887.48857 0.02265
1886.20282 0.02308
1884.91706 0.02302
1883.63131 0.02239
1882.34555 0.02148
1881.05980 0.02076
1879.77404 0.02050
1878.48829 0.02062
1877.20253 0.02084
1875.91677 0.02095
1874.63102 0.02095
1873.34526 0.02098
1872.05951 0.02108
1870.77375 0.02118
1869.48800 0.02123
1868.20224 0.02117
1866.91649 0.02097
1865.63073 0.02061
1864.34498 0.02021
1863.05922 0.01992
1861.77347 0.01983
1860.48771 0.01987
1859.20196 0.01999
1857.91620 0.02019
1856.63045 0.02054
1855.34469 0.02101
1854.05894 0.02139
1852.77318 0.02140
1851.48743 0.02093
1850.20167 0.02025
1848.91592 0.01977
1847.63016 0.01979
1846.34441 0.02023
1845.05865 0.02079
1843.77290 0.02115
1842.48714 0.02116
1841.20139 0.02083
1839.91563 0.02033
1838.62988 0.01995
1837.34412 0.01986
1836.05836 0.01999
1834.77261 0.02016
1833.48685 0.02028
1832.20110 0.02043
1830.91534 0.02069
1829.62959 0.02089
1828.34383 0.02079
1827.05808 0.02044
1825.77232 0.02018
1824.48657 0.02033
1823.20081 0.02092
1821.91506 0.02176
1820.62930 0.02268
1819.34355 0.02347
1818.05779 0.02382
1816.77204 0.02347
1815.48628 0.02253
1814.20053 0.02140
1812.91477 0.02053
1811.62902 0.02005
1810.34326 0.01984
1809.05751 0.01967
1807.77175 0.01945
1806.48600 0.01925
1805.20024 0.01918
1803.91449 0.01927
1802.62873 0.01943
1801.34298 0.01942
1800.05722 0.01909
1798.77147 0.01851
1797.48571 0.01803
1796.19995 0.01806
1794.91420 0.01869
1793.62844 0.01953
1792.34269 0.01998
1791.05693 0.01979
1789.77118 0.01922
1788.48542 0.01876
1787.19967 0.01867
1785.91391 0.01886
1784.62816 0.01909
1783.34240 0.01923
1782.05665 0.01930
1780.77089 0.01929
1779.48514 0.01914
1778.19938 0.01884
1776.91363 0.01856
1775.62787 0.01853
1774.34212 0.01881
1773.05636 0.01919
1771.77061 0.01934
1770.48485 0.01917
1769.19910 0.01875
1767.91334 0.01824
1766.62759 0.01776
1765.34183 0.01747
1764.05608 0.01749
1762.77032 0.01774
1761.48457 0.01801
1760.19881 0.01813
1758.91306 0.01807
1757.62730 0.01792
1756.34155 0.01777
1755.05579 0.01779
1753.77003 0.01806
1752.48428 0.01847
1751.19852 0.01874
1749.91277 0.01860
1748.62701 0.01809
1747.34126 0.01748
1746.05550 0.01708
1744.76975 0.01700
1743.48399 0.01715
1742.19824 0.01734
1740.91248 0.01738
1739.62673 0.01724
1738.34097 0.01717
1737.05522 0.01759
1735.76946 0.01856
1734.48371 0.01961
1733.19795 0.02005
1731.91220 0.01970
1730.62644 0.01893
1729.34069 0.01834
1728.05493 0.01816
1726.76918 0.01822
1725.48342 0.01819
1724.19767 0.01798
1722.91191 0.01775
1721.62616 0.01786
1720.34040 0.01858
1719.05465 0.01980
1717.76889 0.02095
1716.48314 0.02150
1715.19738 0.02136
1713.91162 0.02096
1712.62587 0.02071
1711.34011 0.02089
1710.05436 0.02147
1708.76860 0.02228
1707.48285 0.02307
1706.19709 0.02368
1704.91134 0.02427
1703.62558 0.02519
1702.33983 0.02664
1701.05407 0.02843
1699.76832 0.03014
1698.48256 0.03156
1697.19681 0.03273
1695.91105 0.03365
1694.62530 0.03421
1693.33954 0.03445
1692.05379 0.03470
1690.76803 0.03533
1689.48228 0.03659
1688.19652 0.03852
1686.91077 0.04094
1685.62501 0.04342
1684.33926 0.04522
1683.05350 0.04590
1681.76775 0.04584
1680.48199 0.04596
1679.19624 0.04692
1677.91048 0.04869
1676.62473 0.05071
1675.33897 0.05238
1674.05322 0.05355
1672.76746 0.05450
1671.48170 0.05560
1670.19595 0.05690
1668.91019 0.05817
1667.62444 0.05920
1666.33868 0.06014
1665.05293 0.06128
1663.76717 0.06265
1662.48142 0.06394
1661.19566 0.06474
1659.90991 0.06502
1658.62415 0.06521
1657.33840 0.06612
1656.05264 0.06820
1654.76689 0.07092
1653.48113 0.07297
1652.19538 0.07337
1650.90962 0.07245
1649.62387 0.07146
1648.33811 0.07147
1647.05236 0.07237
1645.76660 0.07318
1644.48085 0.07319
1643.19509 0.07255
1641.90934 0.07183
1640.62358 0.07151
1639.33783 0.07176
1638.05207 0.07241
1636.76632 0.07297
1635.48056 0.07281
1634.19481 0.07169
1632.90905 0.06995
1631.62329 0.06821
1630.33754 0.06690
1629.05178 0.06598
1627.76603 0.06518
1626.48027 0.06430
1625.19452 0.06325
1623.90876 0.06196
1622.62301 0.06044
1621.33725 0.05896
1620.05150 0.05792
1618.76574 0.05742
1617.47999 0.05702
1616.19423 0.05613
1614.90848 0.05461
1613.62272 0.05285
1612.33697 0.05143
1611.05121 0.05057
1609.76546 0.05005
1608.47970 0.04952
1607.19395 0.04882
1605.90819 0.04804
1604.62244 0.04733
1603.33668 0.04677
1602.05093 0.04635
1600.76517 0.04601
1599.47942 0.04572
1598.19366 0.04550
1596.90791 0.04538
1595.62215 0.04538
1594.33640 0.04544
1593.05064 0.04551
1591.76488 0.04555
1590.47913 0.04561
1589.19337 0.04575
1587.90762 0.04597
1586.62186 0.04627
1585.33611 0.04656
1584.05035 0.04676
1582.76460 0.04685
1581.47884 0.04701
1580.19309 0.04758
1578.90733 0.04875
1577.62158 0.05028
1576.33582 0.05152
1575.05007 0.05201
1573.76431 0.05199
1572.47856 0.05216
1571.19280 0.05290
1569.90705 0.05396
1568.62129 0.05478
1567.33554 0.05496
1566.04978 0.05467
1564.76403 0.05446
1563.47827 0.05498
1562.19252 0.05651
1560.90676 0.05865
1559.62101 0.06057
1558.33525 0.06143
1557.04950 0.06119
1555.76374 0.06059
1554.47799 0.06038
1553.19223 0.06071
1551.90648 0.06124
1550.62072 0.06165
1549.33496 0.06184
1548.04921 0.06189
1546.76345 0.06190
1545.47770 0.06201
1544.19194 0.06239
1542.90619 0.06312
1541.62043 0.06398
1540.33468 0.06441
1539.04892 0.06398
1537.76317 0.06287
1536.47741 0.06179
1535.19166 0.06132
1533.90590 0.06140
1532.62015 0.06155
1531.33439 0.06144
1530.04864 0.06114
1528.76288 0.06091
1527.47713 0.06087
1526.19137 0.06098
1524.90562 0.06124
1523.61986 0.06165
1522.33411 0.06207
1521.04835 0.06223
1519.76260 0.06201
1518.47684 0.06162
1517.19109 0.06133
1515.90533 0.06126
1514.61958 0.06126
1513.33382 0.06123
1512.04807 0.06129
1510.76231 0.06180
1509.47655 0.06298
1508.19080 0.06452
1506.90504 0.06569
1505.61929 0.06587
1504.33353 0.06506
1503.04778 0.06395
1501.76202 0.06338
1500.47627 0.06364
1499.19051 0.06444
1497.90476 0.06517
1496.61900 0.06542
1495.33325 0.06510
1494.04749 0.06455
1492.76174 0.06423
1491.47598 0.06439
1490.19023 0.06484
1488.90447 0.06521
1487.61872 0.06536
1486.33296 0.06541
1485.04721 0.06559
1483.76145 0.06603
1482.47570 0.06667
1481.18994 0.06736
1479.90419 0.06806
1478.61843 0.06887
1477.33268 0.06997
1476.04692 0.07138
1474.76117 0.07292
1473.47541 0.07423
1472.18966 0.07501
1470.90390 0.07532
1469.61814 0.07547
1468.33239 0.07588
1467.04663 0.07668
1465.76088 0.07762
1464.47512 0.07831
1463.18937 0.07868
1461.90361 0.07913
1460.61786 0.08021
1459.33210 0.08207
1458.04635 0.08421
1456.76059 0.08578
1455.47484 0.08635
1454.18908 0.08623
1452.90333 0.08609
1451.61757 0.08634
1450.33182 0.08693
1449.04606 0.08751
1447.76031 0.08779
1446.47455 0.08766
1445.18880 0.08714
1443.90304 0.08633
1442.61729 0.08536
1441.33153 0.08448
1440.04578 0.08390
1438.76002 0.08365
1437.47427 0.08347
1436.18851 0.08308
1434.90276 0.08243
1433.61700 0.08179
1432.33125 0.08152
1431.04549 0.08175
1429.75974 0.08231
1428.47398 0.08299
1427.18822 0.08371
1425.90247 0.08449
1424.61671 0.08539
1423.33096 0.08651
1422.04520 0.08790
1420.75945 0.08945
1419.47369 0.09086
1418.18794 0.09185
1416.90218 0.09242
1415.61643 0.09280
1414.33067 0.09327
1413.04492 0.09387
1411.75916 0.09444
1410.47341 0.09479
1409.18765 0.09486
1407.90190 0.09466
1406.61614 0.09423
1405.33039 0.09358
1404.04463 0.09272
1402.75888 0.09169
1401.47312 0.09054
1400.18737 0.08933
1398.90161 0.08807
1397.61586 0.08674
1396.33010 0.08528
1395.04435 0.08364
1393.75859 0.08180
1392.47284 0.07988
1391.18708 0.07810
1389.90133 0.07660
1388.61557 0.07532
1387.32981 0.07402
1386.04406 0.07249
1384.75830 0.07076
1383.47255 0.06902
1382.18679 0.06742
1380.90104 0.06598
1379.61528 0.06459
1378.32953 0.06319
1377.04377 0.06179
1375.75802 0.06038
1374.47226 0.05889
1373.18651 0.05730
1371.90075 0.05564
1370.61500 0.05400
1369.32924 0.05246
1368.04349 0.05105
1366.75773 0.04977
1365.47198 0.04862
1364.18622 0.04755
1362.90047 0.04652
1361.61471 0.04544
1360.32896 0.04430
1359.04320 0.04316
1357.75745 0.04213
1356.47169 0.04127
1355.18594 0.04057
1353.90018 0.04002
1352.61443 0.03958
1351.32867 0.03921
1350.04292 0.03882
1348.75716 0.03840
1347.47141 0.03797
1346.18565 0.03758
1344.89989 0.03726
1343.61414 0.03700
1342.32838 0.03677
1341.04263 0.03650
1339.75687 0.03618
1338.47112 0.03581
1337.18536 0.03542
1335.89961 0.03506
1334.61385 0.03473
1333.32810 0.03443
1332.04234 0.03411
1330.75659 0.03376
1329.47083 0.03338
1328.18508 0.03303
1326.89932 0.03273
1325.61357 0.03247
1324.32781 0.03220
1323.04206 0.03192
1321.75630 0.03163
1320.47055 0.03138
1319.18479 0.03116
1317.89904 0.03096
1316.61328 0.03072
1315.32753 0.03045
1314.04177 0.03013
1312.75602 0.02980
1311.47026 0.02948
1310.18451 0.02919
1308.89875 0.02894
1307.61300 0.02873
1306.32724 0.02857
1305.04148 0.02841
1303.75573 0.02825
1302.46997 0.02807
1301.18422 0.02790
1299.89846 0.02774
1298.61271 0.02757
1297.32695 0.02739
1296.04120 0.02719
1294.75544 0.02699
1293.46969 0.02682
1292.18393 0.02668
1290.89818 0.02660
1289.61242 0.02656
1288.32667 0.02655
1287.04091 0.02653
1285.75516 0.02650
1284.46940 0.02648
1283.18365 0.02646
1281.89789 0.02645
1280.61214 0.02638
1279.32638 0.02627
1278.04063 0.02616
1276.75487 0.02606
1275.46912 0.02597
1274.18336 0.02585
1272.89761 0.02569
1271.61185 0.02551
1270.32610 0.02535
1269.04034 0.02519
1267.75459 0.02506
1266.46883 0.02494
1265.18307 0.02488
1263.89732 0.02488
1262.61156 0.02493
1261.32581 0.02500
1260.04005 0.02503
1258.75430 0.02500
1257.46854 0.02494
1256.18279 0.02490
1254.89703 0.02490
1253.61128 0.02494
1252.32552 0.02495
1251.03977 0.02493
1249.75401 0.02489
1248.46826 0.02486
1247.18250 0.02485
1245.89675 0.02486
1244.61099 0.02487
1243.32524 0.02489
1242.03948 0.02492
1240.75373 0.02491
1239.46797 0.02482
1238.18222 0.02467
1236.89646 0.02449
1235.61071 0.02433
1234.32495 0.02417
1233.03920 0.02397
1231.75344 0.02371
1230.46769 0.02340
1229.18193 0.02306
1227.89618 0.02273
1226.61042 0.02241
1225.32467 0.02209
1224.03891 0.02177
1222.75315 0.02145
1221.46740 0.02117
1220.18164 0.02093
1218.89589 0.02072
1217.61013 0.02050
1216.32438 0.02024
1215.03862 0.01994
1213.75287 0.01966
1212.46711 0.01946
1211.18136 0.01935
1209.89560 0.01933
1208.60985 0.01937
1207.32409 0.01943
1206.03834 0.01948
1204.75258 0.01949
1203.46683 0.01947
1202.18107 0.01950
1200.89532 0.01938
1199.60956 0.01868
1198.32381 0.01856
1197.03805 0.01845
1195.75230 0.01828
1194.46654 0.01804
1193.18079 0.01777
1191.89503 0.01753
1190.60928 0.01733
1189.32352 0.01716
1188.03777 0.01698
1186.75201 0.01675
1185.46626 0.01649
1184.18050 0.01624
1182.89474 0.01606
1181.60899 0.01599
1180.32323 0.01601
1179.03748 0.01605
1177.75172 0.01606
1176.46597 0.01604
1175.18021 0.01603
1173.89446 0.01603
1172.60870 0.01601
1171.32295 0.01601
1170.03719 0.01605
1168.75144 0.01617
1167.46568 0.01633
1166.17993 0.01648
1164.89417 0.01662
1163.60842 0.01673
1162.32266 0.01680
1161.03691 0.01681
1159.75115 0.01674
1158.46540 0.01667
1157.17964 0.01668
1155.89389 0.01680
1154.60813 0.01695
1153.32238 0.01707
1152.03662 0.01719
1150.75087 0.01736
1149.46511 0.01760
1148.17936 0.01788
1146.89360 0.01814
1145.60785 0.01838
1144.32209 0.01864
1143.03633 0.01896
1141.75058 0.01939
1140.46482 0.01991
1139.17907 0.02055
1137.89331 0.02130
1136.60756 0.02218
1135.32180 0.02316
1134.03605 0.02423
1132.75029 0.02538
1131.46454 0.02663
1130.17878 0.02799
1128.89303 0.02945
1127.60727 0.03105
1126.32152 0.03282
1125.03576 0.03480
1123.75001 0.03696
1122.46425 0.03924
1121.17850 0.04161
1119.89274 0.04408
1118.60699 0.04669
1117.32123 0.04942
1116.03548 0.05222
1114.74972 0.05505
1113.46397 0.05788
1112.17821 0.06070
1110.89246 0.06349
1109.60670 0.06623
1108.32095 0.06893
1107.03519 0.07155
1105.74944 0.07410
1104.46368 0.07656
1103.17793 0.07895
1101.89217 0.08123
1100.60641 0.08341
1099.32066 0.08549
1098.03490 0.08752
1096.74915 0.08951
1095.46339 0.09146
1094.17764 0.09335
1092.89188 0.09513
1091.60613 0.09674
1090.32037 0.09816
1089.03462 0.09935
1087.74886 0.10034
1086.46311 0.10122
1085.17735 0.10213
1083.89160 0.10314
1082.60584 0.10426
1081.32009 0.10550
1080.03433 0.10687
1078.74858 0.10844
1077.46282 0.11021
1076.17707 0.11217
1074.89131 0.11427
1073.60556 0.11651
1072.31980 0.11885
1071.03405 0.12126
1069.74829 0.12372
1068.46254 0.12620
1067.17678 0.12872
1065.89103 0.13128
1064.60527 0.13389
1063.31952 0.13655
1062.03376 0.13925
1060.74800 0.14195
1059.46225 0.14463
1058.17649 0.14726
1056.89074 0.14987
1055.60498 0.15247
1054.31923 0.15508
1053.03347 0.15768
1051.74772 0.16024
1050.46196 0.16278
1049.17621 0.16534
1047.89045 0.16797
1046.60470 0.17065
1045.31894 0.17336
1044.03319 0.17608
1042.74743 0.17878
1041.46168 0.18147
1040.17592 0.18417
1038.89017 0.18688
1037.60441 0.18964
1036.31866 0.19241
1035.03290 0.19514
1033.74715 0.19772
1032.46139 0.20013
1031.17564 0.20236
1029.88988 0.20446
1028.60413 0.20641
1027.31837 0.20813
1026.03262 0.20955
1024.74686 0.21068
1023.46111 0.21154
1022.17535 0.21214
1020.88960 0.21245
1019.60384 0.21245
1018.31808 0.21218
1017.03233 0.21169
1015.74657 0.21096
1014.46082 0.20998
1013.17506 0.20871
1011.88931 0.20719
1010.60355 0.20544
1009.31780 0.20342
1008.03204 0.20108
1006.74629 0.19842
1005.46053 0.19547
1004.17478 0.19227
1002.88902 0.18885
1001.60327 0.18525
1000.31751 0.18151
999.03176 0.17765
997.74600 0.17367
996.46025 0.16959
995.17449 0.16545
993.88874 0.16125
992.60298 0.15701
991.31723 0.15273
990.03147 0.14847
988.74572 0.14425
987.45996 0.14010
986.17421 0.13604
984.88845 0.13210
983.60270 0.12828
982.31694 0.12457
981.03119 0.12102
979.74543 0.11766
978.45967 0.11451
977.17392 0.11158
975.88816 0.10886
974.60241 0.10640
973.31665 0.10424
972.03090 0.10242
970.74514 0.10100
969.45939 0.10007
968.17363 0.09970
966.88788 0.09987
965.60212 0.10047
964.31637 0.10130
963.03061 0.10213
961.74486 0.10275
960.45910 0.10292
959.17335 0.10247
957.88759 0.10135
956.60184 0.09967
955.31608 0.09766
954.03033 0.09551
952.74457 0.09338
951.45882 0.09133
950.17306 0.08934
948.88731 0.08732
947.60155 0.08525
946.31580 0.08318
945.03004 0.08121
943.74429 0.07936
942.45853 0.07762
941.17278 0.07596
939.88702 0.07433
938.60126 0.07275
937.31551 0.07129
936.02975 0.06998
934.74400 0.06877
933.45824 0.06757
932.17249 0.06632
930.88673 0.06504
929.60098 0.06381
928.31522 0.06268
927.02947 0.06172
925.74371 0.06094
924.45796 0.06025
923.17220 0.05951
921.88645 0.05862
920.60069 0.05767
919.31494 0.05679
918.02918 0.05604
916.74343 0.05538
915.45767 0.05471
914.17192 0.05402
912.88616 0.05333
911.60041 0.05275
910.31465 0.05228
909.02890 0.05191
907.74314 0.05153
906.45739 0.05111
905.17163 0.05062
903.88588 0.05006
902.60012 0.04944
901.31437 0.04878
900.02861 0.04816
898.74286 0.04764
897.45710 0.04722
896.17134 0.04688
894.88559 0.04659
893.59983 0.04630
892.31408 0.04601
891.02832 0.04574
889.74257 0.04558
888.45681 0.04560
887.17106 0.04588
885.88530 0.04649
884.59955 0.04761
883.31379 0.04937
882.02804 0.05158
880.74228 0.05379
879.45653 0.05554
878.17077 0.05669
876.88502 0.05753
875.59926 0.05842
874.31351 0.05945
873.02775 0.06035
871.74200 0.06076
870.45624 0.06052
869.17049 0.05977
867.88473 0.05872
866.59898 0.05754
865.31322 0.05628
864.02747 0.05498
862.74171 0.05367
861.45596 0.05237
860.17020 0.05110
858.88445 0.04990
857.59869 0.04882
856.31293 0.04792
855.02718 0.04717
853.74142 0.04649
852.45567 0.04583
851.16991 0.04515
849.88416 0.04448
848.59840 0.04387
847.31265 0.04338
846.02689 0.04302
844.74114 0.04275
843.45538 0.04246
842.16963 0.04209
840.88387 0.04164
839.59812 0.04114
838.31236 0.04065
837.02661 0.04021
835.74085 0.03978
834.45510 0.03935
833.16934 0.03898
831.88359 0.03869
830.59783 0.03847
829.31208 0.03827
828.02632 0.03809
826.74057 0.03795
825.45481 0.03785
824.16906 0.03776
822.88330 0.03768
821.59755 0.03760
820.31179 0.03755
819.02604 0.03756
817.74028 0.03765
816.45452 0.03776
815.16877 0.03780
813.88301 0.03773
812.59726 0.03758
811.31150 0.03743
810.02575 0.03735
808.73999 0.03735
807.45424 0.03740
806.16848 0.03741
804.88273 0.03731
803.59697 0.03714
802.31122 0.03690
801.02546 0.03659
799.73971 0.03621
798.45395 0.03586
797.16820 0.03568
795.88244 0.03566
794.59669 0.03568
793.31093 0.03565
792.02518 0.03556
790.73942 0.03549
789.45367 0.03546
788.16791 0.03543
786.88216 0.03540
785.59640 0.03534
784.31065 0.03526
783.02489 0.03523
781.73914 0.03527
780.45338 0.03541
779.16763 0.03560
777.88187 0.03574
776.59612 0.03576
775.31036 0.03564
774.02460 0.03546
772.73885 0.03531
771.45309 0.03524
770.16734 0.03520
768.88158 0.03511
767.59583 0.03498
766.31007 0.03484
765.02432 0.03476
763.73856 0.03478
762.45281 0.03490
761.16705 0.03505
759.88130 0.03517
758.59554 0.03523
757.30979 0.03527
756.02403 0.03530
754.73828 0.03534
753.45252 0.03534
752.16677 0.03525
750.88101 0.03506
749.59526 0.03482
748.30950 0.03461
747.02375 0.03454
745.73799 0.03458
744.45224 0.03464
743.16648 0.03464
741.88073 0.03465
740.59497 0.03478
739.30922 0.03498
738.02346 0.03512
736.73771 0.03512
735.45195 0.03509
734.16619 0.03511
732.88044 0.03520
731.59468 0.03531
730.30893 0.03543
729.02317 0.03556
727.73742 0.03570
726.45166 0.03580
725.16591 0.03581
723.88015 0.03491
722.59440 0.03550
721.30864 0.03636
720.02289 0.03697
718.73713 0.03746
717.45138 0.03779
716.16562 0.03786
714.87987 0.03765
713.59411 0.03727
712.30836 0.03684
711.02260 0.03644
709.73685 0.03605
708.45109 0.03571
707.16534 0.03544
705.87958 0.03528
704.59383 0.03522
703.30807 0.03517
702.02232 0.03505
700.73656 0.03488
699.45081 0.03477
698.16505 0.03480
696.87930 0.03496
695.59354 0.03516
694.30779 0.03530
693.02203 0.03535
691.73627 0.03533
690.45052 0.03528
689.16476 0.03522
687.87901 0.03514
686.59325 0.03504
685.30750 0.03486
684.02174 0.03461
682.73599 0.03430
681.45023 0.03402
680.16448 0.03382
678.87872 0.03372
677.59297 0.03373
676.30721 0.03379
675.02146 0.03389
673.73570 0.03401
672.44995 0.03413
671.16419 0.03422
669.87844 0.03427
668.59268 0.03428
667.30693 0.03423
666.02117 0.03416
664.73542 0.03402
663.44966 0.03386
662.16391 0.03374
660.87815 0.03364
659.59240 0.03353
658.30664 0.03340
657.02089 0.03327
655.73513 0.03323
654.44938 0.03330
653.16362 0.03346
651.87786 0.03364
650.59211 0.03380
649.30635 0.03391
648.02060 0.03397
646.73484 0.03398
645.44909 0.03399
644.16333 0.03403
642.87758 0.03414
641.59182 0.03428
640.30607 0.03443
639.02031 0.03458
637.73456 0.03475
636.44880 0.03488
635.16305 0.03487
633.87729 0.03449
632.59154 0.03377
631.30578 0.03431
630.02003 0.03817
628.73427 0.03969
627.44852 0.03322
626.16276 0.03334
624.87701 0.03814
623.59125 0.04327
622.30550 0.04770
621.01974 0.05126
619.73399 0.05361
618.44823 0.05425
617.16248 0.05284
615.87672 0.04980
614.59097 0.04670
613.30521 0.04576
612.01945 0.04860
610.73370 0.05516
609.44794 0.06379
608.16219 0.07257
606.87643 0.08026
605.59068 0.08635
604.30492 0.09073
603.01917 0.09344
601.73341 0.09458
600.44766 0.09425
599.16190 0.09258
597.87615 0.08988
596.59039 0.08660
595.30464 0.08321
594.01888 0.08011
592.73313 0.07751
591.44737 0.07542
590.16162 0.07379
588.87586 0.07264
587.59011 0.07208
586.30435 0.07218
585.01860 0.07289
583.73284 0.07404
582.44709 0.07545
581.16133 0.07701
579.87558 0.07874
578.58982 0.08071
577.30407 0.08296
576.01831 0.08540
574.73256 0.08785
573.44680 0.09020
572.16105 0.09250
570.87529 0.09495
569.58953 0.09777
568.30378 0.10104
567.01802 0.10460
565.73227 0.10812
564.44651 0.11118
563.16076 0.11340
561.87500 0.11458
560.58925 0.11466
559.30349 0.11361
558.01774 0.11144
556.73198 0.10832
555.44623 0.10460
554.16047 0.10065
552.87472 0.09677
551.58896 0.09304
550.30321 0.08947
549.01745 0.08604
547.73170 0.08273
546.44594 0.07965
545.16019 0.07686
543.87443 0.07438
542.58868 0.07208
541.30292 0.06989
540.01717 0.06784
538.73141 0.06596
537.44566 0.06423
536.15990 0.06254
534.87415 0.06086
533.58839 0.05920
532.30264 0.05762
531.01688 0.05618
529.73112 0.05487
528.44537 0.05370
527.15961 0.05264
525.87386 0.05164
524.58810 0.05070
523.30235 0.04978
522.01659 0.04889
520.73084 0.04807
519.44508 0.04733
518.15933 0.04662
516.87357 0.04583
515.58782 0.04491
514.30206 0.04389
513.01631 0.04288
511.73055 0.04202
510.44480 0.04133
509.15904 0.04079
507.87329 0.04033
506.58753 0.03986
505.30178 0.03935
504.01602 0.03883
502.73027 0.03829
501.44451 0.03775
500.15876 0.03719
498.87300 0.03667
497.58725 0.03622
496.30149 0.03583
495.01574 0.03545
493.72998 0.03504
492.44423 0.03464
491.15847 0.03429
489.87271 0.03399
488.58696 0.03371
487.30120 0.03342
486.01545 0.03313
484.72969 0.03288
483.44394 0.03269
482.15818 0.03256
480.87243 0.03249
479.58667 0.03246
478.30092 0.03245
477.01516 0.03246
475.72941 0.03250
474.44365 0.03259
473.15790 0.03267
471.87214 0.03267
470.58639 0.03253
469.30063 0.03228
468.01488 0.03193
466.72912 0.03156
465.44337 0.03123
464.15761 0.03095
462.87186 0.03068
461.58610 0.03037
460.30035 0.02998
459.01459 0.02951
457.72884 0.02903
456.44308 0.02862
455.15733 0.02829
453.87157 0.02797
452.58582 0.02760
451.30006 0.02719
450.01431 0.02681
448.72855 0.02654
447.44279 0.02637
446.15704 0.02625
444.87128 0.02609
443.58553 0.02586
442.29977 0.02558
441.01402 0.02532
439.72826 0.02510
438.44251 0.02492
437.15675 0.02476
435.87100 0.02462
434.58524 0.02447
433.29949 0.02428
432.01373 0.02408
430.72798 0.02387
429.44222 0.02372
428.15647 0.02364
426.87071 0.02360
425.58496 0.02354
424.29920 0.02341
423.01345 0.02322
421.72769 0.02305
420.44194 0.02291
419.15618 0.02276
417.87043 0.02252
416.58467 0.02223
415.29892 0.02198
414.01316 0.02185
412.72741 0.02179
411.44165 0.02175
410.15590 0.02168
408.87014 0.02159
407.58438 0.02150
406.29863 0.02141
405.01287 0.02130
403.72712 0.02120
402.44136 0.02113
401.15561 0.02113
399.86985 0.02119
