3998.69854 0.01509
3997.41278 0.01613
3996.12703 0.01885
3994.84127 0.02303
3993.55552 0.02705
3992.26976 0.02925
3990.98401 0.02938
3989.69825 0.02901
3988.41250 0.02994
3987.12674 0.03217
3985.84099 0.03394
3984.55523 0.03354
3983.26948 0.03078
3981.98372 0.02693
3980.69797 0.02372
3979.41221 0.02194
3978.12646 0.02090
3976.84070 0.01939
3975.55495 0.01715
3974.26919 0.01507
3972.98344 0.01403
3971.69768 0.01442
3970.41193 0.01633
3969.12617 0.01945
3967.84042 0.02260
3966.55466 0.02406
3965.26891 0.02290
3963.98315 0.01986
3962.69740 0.01702
3961.41164 0.01617
3960.12589 0.01745
3958.84013 0.01938
3957.55437 0.02019
3956.26862 0.01931
3954.98286 0.01752
3953.69711 0.01625
3952.41135 0.01662
3951.12560 0.01868
3949.83984 0.02120
3948.55409 0.02226
3947.26833 0.02074
3945.98258 0.01740
3944.69682 0.01458
3943.41107 0.01433
3942.12531 0.01684
3940.83956 0.02045
3939.55380 0.02320
3938.26805 0.02425
3936.98229 0.02413
3935.69654 0.02398
3934.41078 0.02476
3933.12503 0.02667
3931.83927 0.02877
3930.55352 0.02951
3929.26776 0.02793
3927.98201 0.02456
3926.69625 0.02106
3925.41050 0.01872
3924.12474 0.01751
3922.83899 0.01689
3921.55323 0.01682
3920.26748 0.01761
3918.98172 0.01919
3917.69596 0.02103
3916.41021 0.02255
3915.12445 0.02323
3913.83870 0.02286
3912.55294 0.02172
3911.26719 0.01998
3909.98143 0.01720
3908.69568 0.01318
3907.40992 0.00954
3906.12417 0.00914
3904.83841 0.01308
3903.55266 0.01943
3902.26690 0.02527
3900.98115 0.02932
3899.69539 0.03174
3898.40964 0.03237
3897.12388 0.03060
3895.83813 0.02709
3894.55237 0.02390
3893.26662 0.02236
3891.98086 0.02193
3890.69511 0.02168
3889.40935 0.02210
3888.12360 0.02418
3886.83784 0.02740
3885.55209 0.02968
3884.26633 0.02950
3882.98058 0.02722
3881.69482 0.02417
3880.40907 0.02111
3879.12331 0.01806
3877.83755 0.01517
3876.55180 0.01337
3875.26604 0.01371
3873.98029 0.01589
3872.69453 0.01787
3871.40878 0.01753
3870.12302 0.01524
3868.83727 0.01394
3867.55151 0.01625
3866.26576 0.02130
3864.98000 0.02518
3863.69425 0.02515
3862.40849 0.02261
3861.12274 0.02105
3859.83698 0.02212
3858.55123 0.02450
3857.26547 0.02630
3855.97972 0.02693
3854.69396 0.02645
3853.40821 0.02460
3852.12245 0.02147
3850.83670 0.01815
3849.55094 0.01608
3848.26519 0.01523
3846.97943 0.01393
3845.69368 0.01073
3844.40792 0.00591
3843.12217 0.00128
3841.83641 -0.00158
3840.55066 -0.00204
3839.26490 -0.00025
3837.97915 0.00318
3836.69339 0.00709
3835.40763 0.01002
3834.12188 0.01111
3832.83612 0.01085
3831.55037 0.01019
3830.26461 0.00954
3828.97886 0.00894
3827.69310 0.00871
3826.40735 0.00910
3825.12159 0.00947
3823.83584 0.00878
3822.55008 0.00683
3821.26433 0.00462
3819.97857 0.00322
3818.69282 0.00303
3817.40706 0.00391
3816.12131 0.00536
3814.83555 0.00603
3813.54980 0.00466
3812.26404 0.00216
3810.97829 0.00185
3809.69253 0.00612
3808.40678 0.01293
3807.12102 0.01721
3805.83527 0.01608
3804.54951 0.01185
3803.26376 0.00908
3801.97800 0.00983
3800.69225 0.01280
3799.40649 0.01605
3798.12074 0.01878
3796.83498 0.02079
3795.54922 0.02135
3794.26347 0.01965
3792.97771 0.01610
3791.69196 0.01244
3790.40620 0.01045
3789.12045 0.01052
3787.83469 0.01160
3786.54894 0.01247
3785.26318 0.01272
3783.97743 0.01263
3782.69167 0.01252
3781.40592 0.01252
3780.12016 0.01235
3778.83441 0.01143
3777.54865 0.00940
3776.26290 0.00682
3774.97714 0.00508
3773.69139 0.00534
3772.40563 0.00748
3771.11988 0.01015
3769.83412 0.01199
3768.54837 0.01274
3767.26261 0.01294
3765.97686 0.01282
3764.69110 0.01197
3763.40535 0.01005
3762.11959 0.00710
3760.83384 0.00362
3759.54808 0.00066
3758.26233 -0.00038
3756.97657 0.00119
3755.69081 0.00494
3754.40506 0.01050
3753.11930 0.01799
3751.83355 0.02613
3750.54779 0.03152
3749.26204 0.03140
3747.97628 0.02680
3746.69053 0.02153
3745.40477 0.01839
3744.11902 0.01710
3742.83326 0.01583
3741.54751 0.01425
3740.26175 0.01388
3738.97600 0.01566
3737.69024 0.01811
3736.40449 0.01868
3735.11873 0.01654
3733.83298 0.01289
3732.54722 0.00920
3731.26147 0.00583
3729.97571 0.00301
3728.68996 0.00201
3727.40420 0.00419
3726.11845 0.00925
3724.83269 0.01498
3723.54694 0.01912
3722.26118 0.02100
3720.97543 0.02152
3719.68967 0.02218
3718.40392 0.02382
3717.11816 0.02562
3715.83241 0.02558
3714.54665 0.02252
3713.26089 0.01753
3711.97514 0.01269
3710.68938 0.00888
3709.40363 0.00570
3708.11787 0.00311
3706.83212 0.00227
3705.54636 0.00395
3704.26061 0.00730
3702.97485 0.01041
3701.68910 0.01184
3700.40334 0.01169
3699.11759 0.01137
3697.83183 0.01248
3696.54608 0.01555
3695.26032 0.02005
3693.97457 0.02531
3692.68881 0.03064
3691.40306 0.03435
3690.11730 0.03391
3688.83155 0.02752
3687.54579 0.01602
3686.26004 0.00292
3684.97428 -0.00753
3683.68853 -0.01277
3682.40277 -0.01262
3681.11702 -0.00804
3679.83126 -0.00032
3678.54551 0.00832
3677.25975 0.01455
3675.97400 0.01581
3674.68824 0.01292
3673.40248 0.00956
3672.11673 0.00892
3670.83097 0.01157
3669.54522 0.01601
3668.25946 0.02013
3666.97371 0.02153
3665.68795 0.01817
3664.40220 0.01001
3663.11644 0.00006
3661.83069 -0.00732
3660.54493 -0.00950
3659.25918 -0.00678
3657.97342 -0.00126
3656.68767 0.00477
3655.40191 0.00954
3654.11616 0.01178
3652.83040 0.01079
3651.54465 0.00677
3650.25889 0.00101
3648.97314 -0.00469
3647.68738 -0.00951
3646.40163 -0.01406
3645.11587 -0.01877
3643.83012 -0.02178
3642.54436 -0.02003
3641.25861 -0.01250
3639.97285 -0.00198
3638.68710 0.00690
3637.40134 0.01111
3636.11559 0.01081
3634.82983 0.00812
3633.54408 0.00526
3632.25832 0.00365
3630.97256 0.00353
3629.68681 0.00410
3628.40105 0.00464
3627.11530 0.00531
3625.82954 0.00633
3624.54379 0.00696
3623.25803 0.00657
3621.97228 0.00633
3620.68652 0.00783
3619.40077 0.01024
3618.11501 0.01107
3616.82926 0.01007
3615.54350 0.01032
3614.25775 0.01422
3612.97199 0.02001
3611.68624 0.02342
3610.40048 0.02180
3609.11473 0.01610
3607.82897 0.00939
3606.54322 0.00422
3605.25746 0.00132
3603.97171 0.00024
3602.68595 0.00073
3601.40020 0.00275
3600.11444 0.00549
3598.82869 0.00723
3597.54293 0.00671
3596.25718 0.00429
3594.97142 0.00140
3593.68567 -0.00059
3592.39991 -0.00123
3591.11415 -0.00141
3589.82840 -0.00276
3588.54264 -0.00572
3587.25689 -0.00826
3585.97113 -0.00730
3584.68538 -0.00156
3583.39962 0.00759
3582.11387 0.01729
3580.82811 0.02433
3579.54236 0.02563
3578.25660 0.01977
3576.97085 0.00895
3575.68509 -0.00154
3574.39934 -0.00734
3573.11358 -0.00796
3571.82783 -0.00557
3570.54207 -0.00185
3569.25632 0.00231
3567.97056 0.00537
3566.68481 0.00589
3565.39905 0.00454
3564.11330 0.00315
3562.82754 0.00147
3561.54179 -0.00288
3560.25603 -0.01081
3558.97028 -0.01968
3557.68452 -0.02567
3556.39877 -0.02663
3555.11301 -0.02226
3553.82726 -0.01364
3552.54150 -0.00406
3551.25574 0.00124
3549.96999 -0.00176
3548.68423 -0.01233
3547.39848 -0.02475
3546.11272 -0.03218
3544.82697 -0.03142
3543.54121 -0.02451
3542.25546 -0.01579
3540.96970 -0.00788
3539.68395 -0.00096
3538.39819 0.00474
3537.11244 0.00735
3535.82668 0.00556
3534.54093 0.00179
3533.25517 0.00097
3531.96942 0.00522
3530.68366 0.01073
3529.39791 0.01176
3528.11215 0.00723
3526.82640 0.00172
3525.54064 -0.00006
3524.25489 0.00225
3522.96913 0.00593
3521.68338 0.00869
3520.39762 0.00986
3519.11187 0.00967
3517.82611 0.00857
3516.54036 0.00678
3515.25460 0.00396
3513.96885 -0.00011
3512.68309 -0.00434
3511.39734 -0.00678
3510.11158 -0.00648
3508.82582 -0.00442
3507.54007 -0.00220
3506.25431 -0.00075
3504.96856 -0.00055
3503.68280 -0.00188
3502.39705 -0.00414
3501.11129 -0.00561
3499.82554 -0.00499
3498.53978 -0.00268
3497.25403 0.00027
3495.96827 0.00359
3494.68252 0.00731
3493.39676 0.01037
3492.11101 0.01120
3490.82525 0.01014
3489.53950 0.01024
3488.25374 0.01448
3486.96799 0.02221
3485.68223 0.02878
3484.39648 0.02919
3483.11072 0.02209
3481.82497 0.01052
3480.53921 -0.00039
3479.25346 -0.00621
3477.96770 -0.00506
3476.68195 0.00153
3475.39619 0.00953
3474.11044 0.01519
3472.82468 0.01753
3471.53893 0.01818
3470.25317 0.01905
3468.96741 0.02033
3467.68166 0.02070
3466.39590 0.01905
3465.11015 0.01590
3463.82439 0.01283
3462.53864 0.01089
3461.25288 0.00980
3459.96713 0.00888
3458.68137 0.00833
3457.39562 0.00943
3456.10986 0.01328
3454.82411 0.01914
3453.53835 0.02431
3452.25260 0.02623
3450.96684 0.02470
3449.68109 0.02169
3448.39533 0.01926
3447.10958 0.01794
3445.82382 0.01697
3444.53807 0.01527
3443.25231 0.01261
3441.96656 0.01029
3440.68080 0.01052
3439.39505 0.01464
3438.10929 0.02128
3436.82354 0.02668
3435.53778 0.02782
3434.25203 0.02571
3432.96627 0.02502
3431.68052 0.02976
3430.39476 0.03926
3429.10900 0.04911
3427.82325 0.05533
3426.53749 0.05717
3425.25174 0.05672
3423.96598 0.05677
3422.68023 0.05888
3421.39447 0.06235
3420.10872 0.06501
3418.82296 0.06519
3417.53721 0.06283
3416.25145 0.05873
3414.96570 0.05380
3413.67994 0.04926
3412.39419 0.04670
3411.10843 0.04715
3409.82268 0.05012
3408.53692 0.05361
3407.25117 0.05543
3405.96541 0.05503
3404.67966 0.05405
3403.39390 0.05368
3402.10815 0.05320
3400.82239 0.05332
3399.53664 0.05116
3398.25088 0.04692
3396.96513 0.04409
3395.67937 0.04495
3394.39362 0.04923
3393.10786 0.05449
3391.82211 0.05722
3390.53635 0.05497
3389.25060 0.04869
3387.96484 0.04240
3386.67908 0.04005
3385.39333 0.04260
3384.10757 0.04825
3382.82182 0.05476
3381.53606 0.06088
3380.25031 0.06578
3378.96455 0.06841
3377.67880 0.06843
3376.39304 0.06728
3375.10729 0.06729
3373.82153 0.06958
3372.53578 0.07305
3371.25002 0.07541
3369.96427 0.07498
3368.67851 0.07183
3367.39276 0.06763
3366.10700 0.06447
3364.82125 0.06375
3363.53549 0.06572
3362.24974 0.06928
3360.96398 0.07205
3359.67823 0.07221
3358.39247 0.07094
3357.10672 0.07202
3355.82096 0.07772
3354.53521 0.08563
3353.24945 0.09084
3351.96370 0.09100
3350.67794 0.08844
3349.39219 0.08719
3348.10643 0.08864
3346.82067 0.09085
3345.53492 0.09159
3344.24916 0.09090
3342.96341 0.09028
3341.67765 0.09064
3340.39190 0.09178
3339.10614 0.09311
3337.82039 0.09369
3336.53463 0.09227
3335.24888 0.08848
3333.96312 0.08372
3332.67737 0.08038
3331.39161 0.08039
3330.10586 0.08432
3328.82010 0.09117
3327.53435 0.09838
3326.24859 0.10278
3324.96284 0.10266
3323.67708 0.09919
3322.39133 0.09516
3321.10557 0.09237
3319.81982 0.09070
3318.53406 0.08968
3317.24831 0.08964
3315.96255 0.09066
3314.67680 0.09162
3313.39104 0.09170
3312.10529 0.09206
3310.81953 0.09448
3309.53378 0.09849
3308.24802 0.10139
3306.96227 0.10144
3305.67651 0.09983
3304.39075 0.09888
3303.10500 0.09935
3301.81924 0.10008
3300.53349 0.09975
3299.24773 0.09817
3297.96198 0.09597
3296.67622 0.09391
3295.39047 0.09301
3294.10471 0.09462
3292.81896 0.09921
3291.53320 0.10483
3290.24745 0.10803
3288.96169 0.10672
3287.67594 0.10218
3286.39018 0.09781
3285.10443 0.09614
3283.81867 0.09709
3282.53292 0.09889
3281.24716 0.10037
3279.96141 0.10202
3278.67565 0.10486
3277.38990 0.10866
3276.10414 0.11186
3274.81839 0.11327
3273.53263 0.11326
3272.24688 0.11315
3270.96112 0.11355
3269.67537 0.11381
3268.38961 0.11286
3267.10386 0.11030
3265.81810 0.10664
3264.53234 0.10271
3263.24659 0.09945
3261.96083 0.09804
3260.67508 0.09947
3259.38932 0.10361
3258.10357 0.10879
3256.81781 0.11247
3255.53206 0.11259
3254.24630 0.10907
3252.96055 0.10418
3251.67479 0.10107
3250.38904 0.10134
3249.10328 0.10373
3247.81753 0.10548
3246.53177 0.10510
3245.24602 0.10361
3243.96026 0.10297
3242.67451 0.10352
3241.38875 0.10375
3240.10300 0.10265
3238.81724 0.10141
3237.53149 0.10192
3236.24573 0.10396
3234.95998 0.10508
3233.67422 0.10348
3232.38847 0.10030
3231.10271 0.09847
3229.81696 0.09968
3228.53120 0.10293
3227.24545 0.10576
3225.95969 0.10635
3224.67393 0.10459
3223.38818 0.10198
3222.10242 0.10063
3220.81667 0.10160
3219.53091 0.10371
3218.24516 0.10444
3216.95940 0.10267
3215.67365 0.10008
3214.38789 0.09929
3213.10214 0.10083
3211.81638 0.10288
3210.53063 0.10341
3209.24487 0.10219
3207.95912 0.10043
3206.67336 0.09938
3205.38761 0.09967
3204.10185 0.10137
3202.81610 0.10411
3201.53034 0.10687
3200.24459 0.10833
3198.95883 0.10781
3197.67308 0.10585
3196.38732 0.10375
3195.10157 0.10259
3193.81581 0.10262
3192.53006 0.10324
3191.24430 0.10327
3189.95855 0.10196
3188.67279 0.10001
3187.38704 0.09911
3186.10128 0.10025
3184.81553 0.10243
3183.52977 0.10348
3182.24401 0.10195
3180.95826 0.09832
3179.67250 0.09449
3178.38675 0.09219
3177.10099 0.09185
3175.81524 0.09282
3174.52948 0.09438
3173.24373 0.09613
3171.95797 0.09769
3170.67222 0.09843
3169.38646 0.09795
3168.10071 0.09656
3166.81495 0.09508
3165.52920 0.09415
3164.24344 0.09380
3162.95769 0.09369
3161.67193 0.09360
3160.38618 0.09355
3159.10042 0.09369
3157.81467 0.09405
3156.52891 0.09443
3155.24316 0.09459
3153.95740 0.09464
3152.67165 0.09503
3151.38589 0.09576
3150.10014 0.09586
3148.81438 0.09435
3147.52863 0.09162
3146.24287 0.08907
3144.95712 0.08764
3143.67136 0.08717
3142.38560 0.08723
3141.09985 0.08772
3139.81409 0.08841
3138.52834 0.08860
3137.24258 0.08798
3135.95683 0.08730
3134.67107 0.08762
3133.38532 0.08909
3132.09956 0.09074
3130.81381 0.09155
3129.52805 0.09139
3128.24230 0.09093
3126.95654 0.09091
3125.67079 0.09144
3124.38503 0.09182
3123.09928 0.09106
3121.81352 0.08883
3120.52777 0.08583
3119.24201 0.08325
3117.95626 0.08190
3116.67050 0.08196
3115.38475 0.08331
3114.09899 0.08564
3112.81324 0.08843
3111.52748 0.09117
3110.24173 0.09346
3108.95597 0.09483
3107.67022 0.09454
3106.38446 0.09218
3105.09871 0.08831
3103.81295 0.08439
3102.52719 0.08180
3101.24144 0.08093
3099.95568 0.08117
3098.66993 0.08176
3097.38417 0.08247
3096.09842 0.08347
3094.81266 0.08471
3093.52691 0.08585
3092.24115 0.08661
3090.95540 0.08696
3089.66964 0.08697
3088.38389 0.08654
3087.09813 0.08568
3085.81238 0.08482
3084.52662 0.08461
3083.24087 0.08530
3081.95511 0.08624
3080.66936 0.08658
3079.38360 0.08614
3078.09785 0.08545
3076.81209 0.08503
3075.52634 0.08491
3074.24058 0.08494
3072.95483 0.08500
3071.66907 0.08492
3070.38332 0.08436
3069.09756 0.08318
3067.81181 0.08184
3066.52605 0.08109
3065.24030 0.08124
3063.95454 0.08165
3062.66879 0.08149
3061.38303 0.08080
3060.09727 0.08061
3058.81152 0.08181
3057.52576 0.08404
3056.24001 0.08596
3054.95425 0.08654
3053.66850 0.08583
3052.38274 0.08472
3051.09699 0.08409
3049.81123 0.08420
3048.52548 0.08457
3047.23972 0.08436
3045.95397 0.08295
3044.66821 0.08042
3043.38246 0.07760
3042.09670 0.07551
3040.81095 0.07455
3039.52519 0.07421
3038.23944 0.07373
3036.95368 0.07296
3035.66793 0.07224
3034.38217 0.07186
3033.09642 0.07180
3031.81066 0.07210
3030.52491 0.07279
3029.23915 0.07363
3027.95340 0.07422
3026.66764 0.07443
3025.38189 0.07466
3024.09613 0.07540
3022.81038 0.07673
3021.52462 0.07822
3020.23886 0.07938
3018.95311 0.07988
3017.66735 0.07955
3016.38160 0.07820
3015.09584 0.07578
3013.81009 0.07292
3012.52433 0.07082
3011.23858 0.07032
3009.95282 0.07117
3008.66707 0.07245
3007.38131 0.07350
3006.09556 0.07427
3004.80980 0.07478
3003.52405 0.07450
3002.23829 0.07335
3000.95254 0.07410
2999.66678 0.07617
2998.38103 0.07575
2997.09527 0.07453
2995.80952 0.07328
2994.52376 0.07276
2993.23801 0.07312
2991.95225 0.07395
2990.66650 0.07480
2989.38074 0.07544
2988.09499 0.07575
2986.80923 0.07568
2985.52348 0.07559
2984.23772 0.07601
2982.95197 0.07687
2981.66621 0.07724
2980.38046 0.07630
2979.09470 0.07451
2977.80894 0.07316
2976.52319 0.07298
2975.23743 0.07349
2973.95168 0.07382
2972.66592 0.07357
2971.38017 0.07299
2970.09441 0.07258
2968.80866 0.07289
2967.52290 0.07411
2966.23715 0.07586
2964.95139 0.07737
2963.66564 0.07836
2962.37988 0.07927
2961.09413 0.08062
2959.80837 0.08219
2958.52262 0.08334
2957.23686 0.08388
2955.95111 0.08412
2954.66535 0.08425
2953.37960 0.08407
2952.09384 0.08338
2950.80809 0.08233
2949.52233 0.08128
2948.23658 0.08055
2946.95082 0.08047
2945.66507 0.08109
2944.37931 0.08193
2943.09356 0.08224
2941.80780 0.08176
2940.52205 0.08104
2939.23629 0.08068
2937.95053 0.08056
2936.66478 0.08008
2935.37902 0.07921
2934.09327 0.07870
2932.80751 0.07921
2931.52176 0.08033
2930.23600 0.08097
2928.95025 0.08065
2927.66449 0.07995
2926.37874 0.07949
2925.09298 0.07917
2923.80723 0.07860
2922.52147 0.07784
2921.23572 0.07722
2919.94996 0.07679
2918.66421 0.07634
2917.37845 0.07580
2916.09270 0.07523
2914.80694 0.07463
2913.52119 0.07401
2912.23543 0.07350
2910.94968 0.07328
2909.66392 0.07333
2908.37817 0.07352
2907.09241 0.07377
2905.80666 0.07406
2904.52090 0.07430
2903.23515 0.07436
2901.94939 0.07417
2900.66364 0.07380
2899.37788 0.07340
2898.09212 0.07304
2896.80637 0.07266
2895.52061 0.07218
2894.23486 0.07149
2892.94910 0.07058
2891.66335 0.06959
2890.37759 0.06886
2889.09184 0.06850
2887.80608 0.06821
2886.52033 0.06763
2885.23457 0.06684
2883.94882 0.06642
2882.66306 0.06690
2881.37731 0.06814
2880.09155 0.06933
2878.80580 0.06968
2877.52004 0.06918
2876.23429 0.06850
2874.94853 0.06811
2873.66278 0.06771
2872.37702 0.06689
2871.09127 0.06590
2869.80551 0.06552
2868.51976 0.06611
2867.23400 0.06712
2865.94825 0.06758
2864.66249 0.06702
2863.37674 0.06589
2862.09098 0.06506
2860.80523 0.06484
2859.51947 0.06465
2858.23372 0.06385
2856.94796 0.06271
2855.66220 0.06230
2854.37645 0.06317
2853.09069 0.06460
2851.80494 0.06544
2850.51918 0.06525
2849.23343 0.06447
2847.94767 0.06359
2846.66192 0.06282
2845.37616 0.06227
2844.09041 0.06207
2842.80465 0.06214
2841.51890 0.06212
2840.23314 0.06173
2838.94739 0.06096
2837.66163 0.06004
2836.37588 0.05931
2835.09012 0.05900
2833.80437 0.05916
2832.51861 0.05955
2831.23286 0.05988
2829.94710 0.05991
2828.66135 0.05956
2827.37559 0.05888
2826.08984 0.05798
2824.80408 0.05704
2823.51833 0.05639
2822.23257 0.05646
2820.94682 0.05743
2819.66106 0.05882
2818.37531 0.05987
2817.08955 0.06017
2815.80379 0.05979
2814.51804 0.05896
2813.23228 0.05780
2811.94653 0.05654
2810.66077 0.05551
2809.37502 0.05498
2808.08926 0.05485
2806.80351 0.05476
2805.51775 0.05450
2804.23200 0.05428
2802.94624 0.05463
2801.66049 0.05570
2800.37473 0.05677
2799.08898 0.05709
2797.80322 0.05625
2796.51747 0.05486
2795.23171 0.05378
2793.94596 0.05330
2792.66020 0.05309
2791.37445 0.05285
2790.08869 0.05262
2788.80294 0.05253
2787.51718 0.05243
2786.23143 0.05202
2784.94567 0.05134
2783.65992 0.05087
2782.37416 0.05110
2781.08841 0.05201
2779.80265 0.05310
2778.51690 0.05382
2777.23114 0.05402
2775.94538 0.05391
2774.65963 0.05374
2773.37387 0.05369
2772.08812 0.05384
2770.80236 0.05414
2769.51661 0.05436
2768.23085 0.05427
2766.94510 0.05381
2765.65934 0.05308
2764.37359 0.05220
2763.08783 0.05131
2761.80208 0.05071
2760.51632 0.05057
2759.23057 0.05076
2757.94481 0.05092
2756.65906 0.05085
2755.37330 0.05065
2754.08755 0.05053
2752.80179 0.05061
2751.51604 0.05088
2750.23028 0.05119
2748.94453 0.05134
2747.65877 0.05113
2746.37302 0.05052
2745.08726 0.04970
2743.80151 0.04914
2742.51575 0.04928
2741.23000 0.05011
2739.94424 0.05107
2738.65849 0.05151
2737.37273 0.05126
2736.08698 0.05069
2734.80122 0.05027
2733.51546 0.05022
2732.22971 0.05043
2730.94395 0.05065
2729.65820 0.05060
2728.37244 0.05028
2727.08669 0.04990
2725.80093 0.04958
2724.51518 0.04928
2723.22942 0.04893
2721.94367 0.04862
2720.65791 0.04843
2719.37216 0.04827
2718.08640 0.04803
2716.80065 0.04779
2715.51489 0.04764
2714.22914 0.04749
2712.94338 0.04725
2711.65763 0.04708
2710.37187 0.04722
2709.08612 0.04755
2707.80036 0.04772
2706.51461 0.04764
2705.22885 0.04760
2703.94310 0.04789
2702.65734 0.04829
2701.37159 0.04837
2700.08583 0.04802
2698.80008 0.04764
2697.51432 0.04758
2696.22857 0.04768
2694.94281 0.04743
2693.65705 0.04671
2692.37130 0.04597
2691.08554 0.04568
2689.79979 0.04585
2688.51403 0.04618
2687.22828 0.04643
2685.94252 0.04651
2684.65677 0.04651
2683.37101 0.04660
2682.08526 0.04684
2680.79950 0.04699
2679.51375 0.04669
2678.22799 0.04592
2676.94224 0.04518
2675.65648 0.04499
2674.37073 0.04545
2673.08497 0.04618
2671.79922 0.04664
2670.51346 0.04647
2669.22771 0.04570
2667.94195 0.04474
2666.65620 0.04395
2665.37044 0.04340
2664.08469 0.04304
2662.79893 0.04289
2661.51318 0.04306
2660.22742 0.04344
2658.94167 0.04374
2657.65591 0.04373
2656.37016 0.04342
2655.08440 0.04295
2653.79865 0.04255
2652.51289 0.04244
2651.22713 0.04264
2649.94138 0.04278
2648.65562 0.04246
2647.36987 0.04177
2646.08411 0.04116
2644.79836 0.04095
2643.51260 0.04103
2642.22685 0.04117
2640.94109 0.04135
2639.65534 0.04163
2638.36958 0.04197
2637.08383 0.04219
2635.79807 0.04210
2634.51232 0.04170
2633.22656 0.04116
2631.94081 0.04061
2630.65505 0.04010
2629.36930 0.03973
2628.08354 0.03969
2626.79779 0.04005
2625.51203 0.04054
2624.22628 0.04076
2622.94052 0.04050
2621.65477 0.03993
2620.36901 0.03945
2619.08326 0.03935
2617.79750 0.03963
2616.51175 0.04012
2615.22599 0.04064
2613.94024 0.04096
2612.65448 0.04077
2611.36872 0.03991
2610.08297 0.03863
2608.79721 0.03737
2607.51146 0.03647
2606.22570 0.03604
2604.93995 0.03594
2603.65419 0.03577
2602.36844 0.03524
2601.08268 0.03465
2599.79693 0.03474
2598.51117 0.03584
2597.22542 0.03744
2595.93966 0.03871
2594.65391 0.03919
2593.36815 0.03905
2592.08240 0.03865
2590.79664 0.03820
2589.51089 0.03782
2588.22513 0.03771
2586.93938 0.03802
2585.65362 0.03862
2584.36787 0.03912
2583.08211 0.03924
2581.79636 0.03900
2580.51060 0.03861
2579.22485 0.03839
2577.93909 0.03857
2576.65334 0.03907
2575.36758 0.03947
2574.08183 0.03937
2572.79607 0.03873
2571.51031 0.03769
2570.22456 0.03641
2568.93880 0.03515
2567.65305 0.03432
2566.36729 0.03437
2565.08154 0.03539
2563.79578 0.03689
2562.51003 0.03805
2561.22427 0.03837
2559.93852 0.03807
2558.65276 0.03762
2557.36701 0.03714
2556.08125 0.03664
2554.79550 0.03636
2553.50974 0.03646
2552.22399 0.03652
2550.93823 0.03609
2549.65248 0.03546
2548.36672 0.03538
2547.08097 0.03608
2545.79521 0.03694
2544.50946 0.03718
2543.22370 0.03659
2541.93795 0.03563
2540.65219 0.03497
2539.36644 0.03506
2538.08068 0.03584
2536.79493 0.03695
2535.50917 0.03799
2534.22342 0.03881
2532.93766 0.03960
2531.65191 0.04060
2530.36615 0.04161
2529.08039 0.04199
2527.79464 0.04134
2526.50888 0.03999
2525.22313 0.03866
2523.93737 0.03767
2522.65162 0.03686
2521.36586 0.03615
2520.08011 0.03582
2518.79435 0.03617
2517.50860 0.03698
2516.22284 0.03750
2514.93709 0.03703
2513.65133 0.03569
2512.36558 0.03439
2511.07982 0.03394
2509.79407 0.03424
2508.50831 0.03461
2507.22256 0.03470
2505.93680 0.03481
2504.65105 0.03531
2503.36529 0.03612
2502.07954 0.03683
2500.79378 0.03725
2499.50803 0.03748
2498.22227 0.03766
2496.93652 0.03773
2495.65076 0.03760
2494.36501 0.03726
2493.07925 0.03680
2491.79350 0.03647
2490.50774 0.03650
2489.22198 0.03685
2487.93623 0.03705
2486.65047 0.03652
2485.36472 0.03520
2484.07896 0.03377
2482.79321 0.03312
2481.50745 0.03353
2480.22170 0.03437
2478.93594 0.03470
2477.65019 0.03420
2476.36443 0.03339
2475.07868 0.03309
2473.79292 0.03364
2472.50717 0.03468
2471.22141 0.03555
2469.93566 0.03583
2468.64990 0.03558
2467.36415 0.03524
2466.07839 0.03509
2464.79264 0.03509
2463.50688 0.03504
2462.22113 0.03491
2460.93537 0.03475
2459.64962 0.03452
2458.36386 0.03418
2457.07811 0.03382
2455.79235 0.03354
2454.50660 0.03335
2453.22084 0.03341
2451.93509 0.03398
2450.64933 0.03493
2449.36357 0.03564
2448.07782 0.03558
2446.79206 0.03497
2445.50631 0.03456
2444.22055 0.03482
2442.93480 0.03547
2441.64904 0.03581
2440.36329 0.03539
2439.07753 0.03432
2437.79178 0.03310
2436.50602 0.03228
2435.22027 0.03219
2433.93451 0.03279
2432.64876 0.03373
2431.36300 0.03452
2430.07725 0.03488
2428.79149 0.03490
2427.50574 0.03480
2426.21998 0.03472
2424.93423 0.03466
2423.64847 0.03468
2422.36272 0.03492
2421.07696 0.03530
2419.79121 0.03554
2418.50545 0.03543
2417.21970 0.03508
2415.93394 0.03479
2414.64819 0.03467
2413.36243 0.03456
2412.07668 0.03429
2410.79092 0.03384
2409.50517 0.03328
2408.21941 0.03261
2406.93365 0.03197
2405.64790 0.03157
2404.36214 0.03161
2403.07639 0.03207
2401.79063 0.03281
2400.50488 0.03338
2399.21912 0.03117
2397.93337 0.03194
2396.64761 0.03219
2395.36186 0.03179
2394.07610 0.03199
2392.79035 0.03288
2391.50459 0.03381
2390.21884 0.03422
2388.93308 0.03404
2387.64733 0.03359
2386.36157 0.03328
2385.07582 0.03328
2383.79006 0.03350
2382.50431 0.03362
2381.21855 0.03340
2379.93280 0.03288
2378.64704 0.03245
2377.36129 0.03255
2376.07553 0.03335
2374.78978 0.03456
2373.50402 0.03564
2372.21827 0.03612
2370.93251 0.03588
2369.64676 0.03513
2368.36100 0.03428
2367.07524 0.03355
2365.78949 0.03305
2364.50373 0.03281
2363.21798 0.03269
2361.93222 0.03277
2360.64647 0.03302
2359.36071 0.03322
2358.07496 0.03318
2356.78920 0.03282
2355.50345 0.03216
2354.21769 0.03147
2352.93194 0.03099
2351.64618 0.03080
2350.36043 0.03066
2349.07467 0.03030
2347.78892 0.02984
2346.50316 0.02978
2345.21741 0.03016
2343.93165 0.03060
2342.64590 0.03099
2341.36014 0.03161
2340.07439 0.03226
2338.78863 0.03210
2337.50288 0.03127
2336.21712 0.03121
2334.93137 0.03181
2333.64561 0.03180
2332.35986 0.03136
2331.07410 0.03144
2329.78835 0.03123
2328.50259 0.02987
2327.21684 0.02849
2325.93108 0.02721
2324.64532 0.02567
2323.35957 0.02484
2322.07381 0.02500
2320.78806 0.02533
2319.50230 0.02593
2318.21655 0.02664
2316.93079 0.02705
2315.64504 0.02761
2314.35928 0.02835
2313.07353 0.02891
2311.78777 0.02920
2310.50202 0.02907
2309.21626 0.02885
2307.93051 0.02887
2306.64475 0.02893
2305.35900 0.02882
2304.07324 0.02842
2302.78749 0.02788
2301.50173 0.02738
2300.21598 0.02681
2298.93022 0.02610
2297.64447 0.02533
2296.35871 0.02467
2295.07296 0.02424
2293.78720 0.02398
2292.50145 0.02384
2291.21569 0.02391
2289.92994 0.02430
2288.64418 0.02493
2287.35843 0.02546
2286.07267 0.02558
2284.78691 0.02537
2283.50116 0.02512
2282.21540 0.02503
2280.92965 0.02497
2279.64389 0.02477
2278.35814 0.02440
2277.07238 0.02398
2275.78663 0.02368
2274.50087 0.02364
2273.21512 0.02384
2271.92936 0.02392
2270.64361 0.02338
2269.35785 0.02226
2268.07210 0.02150
2266.78634 0.02203
2265.50059 0.02357
2264.21483 0.02487
2262.92908 0.02514
2261.64332 0.02468
2260.35757 0.02418
2259.07181 0.02391
2257.78606 0.02379
2256.50030 0.02383
2255.21455 0.02410
2253.92879 0.02460
2252.64304 0.02542
2251.35728 0.02707
2250.07153 0.02898
2248.78577 0.02815
2247.50002 0.02792
2246.21426 0.02669
2244.92850 0.02487
2243.64275 0.02345
2242.35699 0.02307
2241.07124 0.02351
2239.78548 0.02390
2238.49973 0.02360
2237.21397 0.02267
2235.92822 0.02177
2234.64246 0.02151
2233.35671 0.02183
2232.07095 0.02215
2230.78520 0.02200
2229.49944 0.02153
2228.21369 0.02135
2226.92793 0.02194
2225.64218 0.02321
2224.35642 0.02438
2223.07067 0.02456
2221.78491 0.02349
2220.49916 0.02178
2219.21340 0.02025
2217.92765 0.01939
2216.64189 0.01931
2215.35614 0.01988
2214.07038 0.02061
2212.78463 0.02087
2211.49887 0.02060
2210.21312 0.02064
2208.92736 0.02171
2207.64161 0.02331
2206.35585 0.02421
2205.07010 0.02385
2203.78434 0.02278
2202.49858 0.02182
2201.21283 0.02122
2199.92707 0.02070
2198.64132 0.01961
2197.35556 0.01740
2196.06981 0.01467
2194.78405 0.01326
2193.49830 0.01430
2192.21254 0.01649
2190.92679 0.01737
2189.64103 0.01622
2188.35528 0.01475
2187.06952 0.01468
2185.78377 0.01585
2184.49801 0.01697
2183.21226 0.01736
2181.92650 0.01723
2180.64075 0.01657
2179.35499 0.01484
2178.06924 0.01207
2176.78348 0.00947
2175.49773 0.00846
2174.21197 0.00938
2172.92622 0.01174
2171.64046 0.01502
2170.35471 0.01861
2169.06895 0.02138
2167.78320 0.02195
2166.49744 0.01970
2165.21169 0.01566
2163.92593 0.01228
2162.64017 0.01211
2161.35442 0.01593
2160.06866 0.02193
2158.78291 0.02708
2157.49715 0.02966
2156.21140 0.02982
2154.92564 0.02857
2153.63989 0.02722
2152.35413 0.02710
2151.06838 0.02840
2149.78262 0.02963
2148.49687 0.02898
2147.21111 0.02624
2145.92536 0.02300
2144.63960 0.02092
2143.35385 0.02050
2142.06809 0.02123
2140.78234 0.02233
2139.49658 0.02309
2138.21083 0.02318
2136.92507 0.02297
2135.63932 0.02315
2134.35356 0.02391
2133.06781 0.02479
2131.78205 0.02541
2130.49630 0.02586
2129.21054 0.02637
2127.92479 0.02677
2126.63903 0.02648
2125.35328 0.02502
2124.06752 0.02251
2122.78176 0.01974
2121.49601 0.01781
2120.21025 0.01739
2118.92450 0.01836
2117.63874 0.01999
2116.35299 0.02145
2115.06723 0.02222
2113.78148 0.02229
2112.49572 0.02203
2111.20997 0.02175
2109.92421 0.02139
2108.63846 0.02073
2107.35270 0.01976
2106.06695 0.01874
2104.78119 0.01792
2103.49544 0.01740
2102.20968 0.01707
2100.92393 0.01697
2099.63817 0.02156
2098.35242 0.02316
2097.06666 0.02282
2095.78091 0.02228
2094.49515 0.02136
2093.20940 0.01971
2091.92364 0.01757
2090.63789 0.01557
2089.35213 0.01422
2088.06638 0.01358
2086.78062 0.01341
2085.49487 0.01352
2084.20911 0.01390
2082.92336 0.01467
2081.63760 0.01586
2080.35184 0.01718
2079.06609 0.01819
2077.78033 0.01870
2076.49458 0.01900
2075.20882 0.01948
2073.92307 0.02021
2072.63731 0.02092
2071.35156 0.02131
2070.06580 0.02115
2068.78005 0.02037
2067.49429 0.01914
2066.20854 0.01778
2064.92278 0.01648
2063.63703 0.01522
2062.35127 0.01400
2061.06552 0.01304
2059.77976 0.01254
2058.49401 0.01244
2057.20825 0.01239
2055.92250 0.01198
2054.63674 0.01115
2053.35099 0.01045
2052.06523 0.01080
2050.77948 0.01263
2049.49372 0.01521
2048.20797 0.01722
2046.92221 0.01793
2045.63646 0.01773
2044.35070 0.01743
2043.06495 0.01758
2041.77919 0.01844
2040.49343 0.02006
2039.20768 0.02216
2037.92192 0.02415
2036.63617 0.02557
2035.35041 0.02617
2034.06466 0.02582
2032.77890 0.02441
2031.49315 0.02208
2030.20739 0.01927
2028.92164 0.01660
2027.63588 0.01480
2026.35013 0.01440
2025.06437 0.01541
2023.77862 0.01714
2022.49286 0.01868
2021.20711 0.01949
2019.92135 0.01959
2018.63560 0.01938
2017.34984 0.01922
2016.06409 0.01926
2014.77833 0.01955
2013.49258 0.02035
2012.20682 0.02219
2010.92107 0.02527
2009.63531 0.02880
2008.34956 0.03124
2007.06380 0.03131
2005.77805 0.02895
2004.49229 0.02504
2003.20654 0.02049
2001.92078 0.01591
2000.63503 0.01196
1999.34927 0.00946
1998.06351 0.00890
1996.77776 0.00989
1995.49200 0.01137
1994.20625 0.01246
1992.92049 0.01295
1991.63474 0.01316
1990.34898 0.01346
1989.06323 0.01397
1987.77747 0.01451
1986.49172 0.01490
1985.20596 0.01518
1983.92021 0.01588
1982.63445 0.01790
1981.34870 0.02191
1980.06294 0.02744
1978.77719 0.03273
1977.49143 0.03576
1976.20568 0.03564
1974.91992 0.03289
1973.63417 0.02889
1972.34841 0.02528
1971.06266 0.02340
1969.77690 0.02354
1968.49115 0.02475
1967.20539 0.02568
1965.91964 0.02570
1964.63388 0.02522
1963.34813 0.02502
1962.06237 0.02536
1960.77662 0.02567
1959.49086 0.02521
1958.20510 0.02379
1956.91935 0.02193
1955.63359 0.02036
1954.34784 0.01947
1953.06208 0.01933
1951.77633 0.01997
1950.49057 0.02134
1949.20482 0.02302
1947.91906 0.02431
1946.63331 0.02470
1945.34755 0.02426
1944.06180 0.02353
1942.77604 0.02303
1941.49029 0.02294
1940.20453 0.02320
1938.91878 0.02370
1937.63302 0.02440
1936.34727 0.02518
1935.06151 0.02574
1933.77576 0.02583
1932.49000 0.02547
1931.20425 0.02498
1929.91849 0.02465
1928.63274 0.02454
1927.34698 0.02449
1926.06123 0.02423
1924.77547 0.02351
1923.48972 0.02244
1922.20396 0.02150
1920.91821 0.02121
1919.63245 0.02167
1918.34669 0.02244
1917.06094 0.02301
1915.77518 0.02317
1914.48943 0.02303
1913.20367 0.02276
1911.91792 0.02242
1910.63216 0.02204
1909.34641 0.02178
1908.06065 0.02180
1906.77490 0.02214
1905.48914 0.02260
1904.20339 0.02291
1902.91763 0.02290
1901.63188 0.02266
1900.34612 0.02244
1899.06037 0.02244
1897.77461 0.02269
1896.48886 0.02302
1895.20310 0.02328
1893.91735 0.02339
1892.63159 0.02331
1891.34584 0.02302
1890.06008 0.02258
1888.77433 0.02218
1887.48857 0.02201
1886.20282 0.02204
1884.91706 0.02204
1883.63131 0.02183
1882.34555 0.02145
1881.05980 0.02116
1879.77404 0.02111
1878.48829 0.02120
1877.20253 0.02113
1875.91677 0.02077
1874.63102 0.02032
1873.34526 0.02020
1872.05951 0.02056
1870.77375 0.02116
1869.48800 0.02158
1868.20224 0.02162
1866.91649 0.02134
1865.63073 0.02098
1864.34498 0.02075
1863.05922 0.02072
1861.77347 0.02084
1860.48771 0.02106
1859.20196 0.02132
1857.91620 0.02159
1856.63045 0.02181
1855.34469 0.02188
1854.05894 0.02171
1852.77318 0.02126
1851.48743 0.02062
1850.20167 0.02005
1848.91592 0.01987
1847.63016 0.02023
1846.34441 0.02097
1845.05865 0.02163
1843.77290 0.02175
1842.48714 0.02121
1841.20139 0.02027
1839.91563 0.01939
1838.62988 0.01898
1837.34412 0.01911
1836.05836 0.01945
1834.77261 0.01969
1833.48685 0.01978
1832.20110 0.01998
1830.91534 0.02046
1829.62959 0.02105
1828.34383 0.02142
1827.05808 0.02149
1825.77232 0.02149
1824.48657 0.02175
1823.20081 0.02240
1821.91506 0.02331
1820.62930 0.02421
1819.34355 0.02470
1818.05779 0.02440
1816.77204 0.02323
1815.48628 0.02156
1814.20053 0.01999
1812.91477 0.01892
1811.62902 0.01839
1810.34326 0.01821
1809.05751 0.01815
1807.77175 0.01815
1806.48600 0.01819
1805.20024 0.01823
1803.91449 0.01825
1802.62873 0.01826
1801.34298 0.01825
1800.05722 0.01820
1798.77147 0.01811
1797.48571 0.01814
1796.19995 0.01854
1794.91420 0.01934
1793.62844 0.02022
1792.34269 0.02061
1791.05693 0.02024
1789.77118 0.01941
1788.48542 0.01871
1787.19967 0.01854
1785.91391 0.01884
1784.62816 0.01931
1783.34240 0.01962
1782.05665 0.01967
1780.77089 0.01943
1779.48514 0.01898
1778.19938 0.01849
1776.91363 0.01824
1775.62787 0.01846
1774.34212 0.01906
1773.05636 0.01964
1771.77061 0.01977
1770.48485 0.01937
1769.19910 0.01863
1767.91334 0.01786
1766.62759 0.01733
1765.34183 0.01718
1764.05608 0.01742
1762.77032 0.01779
1761.48457 0.01802
1760.19881 0.01799
1758.91306 0.01773
1757.62730 0.01739
1756.34155 0.01712
1755.05579 0.01715
1753.77003 0.01757
1752.48428 0.01822
1751.19852 0.01866
1749.91277 0.01853
1748.62701 0.01785
1747.34126 0.01700
1746.05550 0.01640
1744.76975 0.01622
1743.48399 0.01633
1742.19824 0.01643
1740.91248 0.01631
1739.62673 0.01607
1738.34097 0.01613
1737.05522 0.01692
1735.76946 0.01831
1734.48371 0.01954
1733.19795 0.01984
1731.91220 0.01914
1730.62644 0.01803
1729.34069 0.01724
1728.05493 0.01701
1726.76918 0.01707
1725.48342 0.01704
1724.19767 0.01685
1722.91191 0.01677
1721.62616 0.01725
1720.34040 0.01850
1719.05465 0.02017
1717.76889 0.02143
1716.48314 0.02163
1715.19738 0.02083
1713.91162 0.01976
1712.62587 0.01908
1711.34011 0.01915
1710.05436 0.01981
1708.76860 0.02062
1707.48285 0.02120
1706.19709 0.02154
1704.91134 0.02200
1703.62558 0.02299
1702.33983 0.02458
1701.05407 0.02639
1699.76832 0.02792
1698.48256 0.02903
1697.19681 0.02981
1695.91105 0.03026
1694.62530 0.03022
1693.33954 0.02976
1692.05379 0.02931
1690.76803 0.02943
1689.48228 0.03051
1688.19652 0.03262
1686.91077 0.03541
1685.62501 0.03814
1684.33926 0.03976
1683.05350 0.03985
1681.76775 0.03903
1680.48199 0.03847
1679.19624 0.03894
1677.91048 0.04036
1676.62473 0.04211
1675.33897 0.04358
1674.05322 0.04460
1672.76746 0.04549
1671.48170 0.04653
1670.19595 0.04764
1668.91019 0.04854
1667.62444 0.04912
1666.33868 0.04967
1665.05293 0.05049
1663.76717 0.05154
1662.48142 0.05236
1661.19566 0.05257
1659.90991 0.05229
1658.62415 0.05219
1657.33840 0.05323
1656.05264 0.05574
1654.76689 0.05884
1653.48113 0.06089
1652.19538 0.06087
1650.90962 0.05933
1649.62387 0.05780
1648.33811 0.05750
1647.05236 0.05824
1645.76660 0.05894
1644.48085 0.05880
1643.19509 0.05800
1641.90934 0.05725
1640.62358 0.05710
1639.33783 0.05773
1638.05207 0.05881
1636.76632 0.05967
1635.48056 0.05959
1634.19481 0.05839
1632.90905 0.05652
1631.62329 0.05476
1630.33754 0.05366
1629.05178 0.05322
1627.76603 0.05309
1626.48027 0.05285
1625.19452 0.05227
1623.90876 0.05124
1622.62301 0.04988
1621.33725 0.04863
1620.05150 0.04800
1618.76574 0.04803
1617.47999 0.04812
1616.19423 0.04754
1614.90848 0.04610
1613.62272 0.04430
1612.33697 0.04287
1611.05121 0.04212
1609.76546 0.04184
1608.47970 0.04162
1607.19395 0.04127
1605.90819 0.04082
1604.62244 0.04037
1603.33668 0.04001
1602.05093 0.03971
1600.76517 0.03945
1599.47942 0.03921
1598.19366 0.03902
1596.90791 0.03889
1595.62215 0.03885
1594.33640 0.03886
1593.05064 0.03889
1591.76488 0.03892
1590.47913 0.03894
1589.19337 0.03898
1587.90762 0.03905
1586.62186 0.03915
1585.33611 0.03921
1584.05035 0.03917
1582.76460 0.03908
1581.47884 0.03922
1580.19309 0.03994
1578.90733 0.04127
1577.62158 0.04280
1576.33582 0.04374
1575.05007 0.04370
1573.76431 0.04312
1572.47856 0.04283
1571.19280 0.04324
1569.90705 0.04401
1568.62129 0.04451
1567.33554 0.04437
1566.04978 0.04387
1564.76403 0.04369
1563.47827 0.04451
1562.19252 0.04651
1560.90676 0.04905
1559.62101 0.05105
1558.33525 0.05158
1557.04950 0.05066
1555.76374 0.04924
1554.47799 0.04830
1553.19223 0.04814
1551.90648 0.04845
1550.62072 0.04883
1549.33496 0.04906
1548.04921 0.04917
1546.76345 0.04932
1545.47770 0.04973
1544.19194 0.05057
1542.90619 0.05181
1541.62043 0.05307
1540.33468 0.05363
1539.04892 0.05303
1537.76317 0.05157
1536.47741 0.05016
1535.19166 0.04950
1533.90590 0.04956
1532.62015 0.04983
1531.33439 0.04988
1530.04864 0.04973
1528.76288 0.04966
1527.47713 0.04984
1526.19137 0.05026
1524.90562 0.05088
1523.61986 0.05161
1522.33411 0.05223
1521.04835 0.05244
1519.76260 0.05213
1518.47684 0.05151
1517.19109 0.05096
1515.90533 0.05067
1514.61958 0.05056
1513.33382 0.05056
1512.04807 0.05085
1510.76231 0.05176
1509.47655 0.05340
1508.19080 0.05531
1506.90504 0.05657
1505.61929 0.05652
1504.33353 0.05533
1503.04778 0.05392
1501.76202 0.05328
1500.47627 0.05373
1499.19051 0.05485
1497.90476 0.05586
1496.61900 0.05624
1495.33325 0.05589
1494.04749 0.05524
1492.76174 0.05487
1491.47598 0.05503
1490.19023 0.05551
1488.90447 0.05591
1487.61872 0.05604
1486.33296 0.05603
1485.04721 0.05610
1483.76145 0.05639
1482.47570 0.05684
1481.18994 0.05737
1479.90419 0.05798
1478.61843 0.05879
1477.33268 0.05996
1476.04692 0.06148
1474.76117 0.06310
1473.47541 0.06439
1472.18966 0.06504
1470.90390 0.06513
1469.61814 0.06505
1468.33239 0.06526
1467.04663 0.06588
1465.76088 0.06660
1464.47512 0.06703
1463.18937 0.06721
1461.90361 0.06765
1460.61786 0.06893
1459.33210 0.07107
1458.04635 0.07333
1456.76059 0.07473
1455.47484 0.07487
1454.18908 0.07425
1452.90333 0.07371
1451.61757 0.07368
1450.33182 0.07411
1449.04606 0.07459
1447.76031 0.07478
1446.47455 0.07456
1445.18880 0.07397
1443.90304 0.07313
1442.61729 0.07222
1441.33153 0.07150
1440.04578 0.07119
1438.76002 0.07123
1437.47427 0.07124
1436.18851 0.07087
1434.90276 0.07013
1433.61700 0.06937
1432.33125 0.06899
1431.04549 0.06916
1429.75974 0.06970
1428.47398 0.07039
1427.18822 0.07112
1425.90247 0.07192
1424.61671 0.07293
1423.33096 0.07425
1422.04520 0.07587
1420.75945 0.07752
1419.47369 0.07880
1418.18794 0.07950
1416.90218 0.07975
1415.61643 0.07987
1414.33067 0.08015
1413.04492 0.08059
1411.75916 0.08099
1410.47341 0.08115
1409.18765 0.08108
1407.90190 0.08082
1406.61614 0.08040
1405.33039 0.07978
1404.04463 0.07892
1402.75888 0.07788
1401.47312 0.07678
1400.18737 0.07571
1398.90161 0.07467
1397.61586 0.07360
1396.33010 0.07239
1395.04435 0.07095
1393.75859 0.06927
1392.47284 0.06750
1391.18708 0.06591
1389.90133 0.06466
1388.61557 0.06366
1387.32981 0.06263
1386.04406 0.06137
1384.75830 0.05992
1383.47255 0.05845
1382.18679 0.05711
1380.90104 0.05589
1379.61528 0.05473
1378.32953 0.05360
1377.04377 0.05249
1375.75802 0.05136
1374.47226 0.05016
1373.18651 0.04887
1371.90075 0.04752
1370.61500 0.04623
1369.32924 0.04505
1368.04349 0.04399
1366.75773 0.04301
1365.47198 0.04210
1364.18622 0.04125
1362.90047 0.04042
1361.61471 0.03955
1360.32896 0.03861
1359.04320 0.03765
1357.75745 0.03679
1356.47169 0.03609
1355.18594 0.03555
1353.90018 0.03508
1352.61443 0.03465
1351.32867 0.03422
1350.04292 0.03383
1348.75716 0.03347
1347.47141 0.03311
1346.18565 0.03274
1344.89989 0.03238
1343.61414 0.03208
1342.32838 0.03189
1341.04263 0.03175
1339.75687 0.03158
1338.47112 0.03133
1337.18536 0.03099
1335.89961 0.03064
1334.61385 0.03034
1333.32810 0.03012
1332.04234 0.02990
1330.75659 0.02964
1329.47083 0.02933
1328.18508 0.02903
1326.89932 0.02879
1325.61357 0.02858
1324.32781 0.02839
1323.04206 0.02818
1321.75630 0.02796
1320.47055 0.02772
1319.18479 0.02746
1317.89904 0.02719
1316.61328 0.02693
1315.32753 0.02670
1314.04177 0.02650
1312.75602 0.02630
1311.47026 0.02612
1310.18451 0.02596
1308.89875 0.02586
1307.61300 0.02577
1306.32724 0.02568
1305.04148 0.02556
1303.75573 0.02540
1302.46997 0.02522
1301.18422 0.02502
1299.89846 0.02480
1298.61271 0.02456
1297.32695 0.02433
1296.04120 0.02414
1294.75544 0.02399
1293.46969 0.02390
1292.18393 0.02385
1290.89818 0.02379
1289.61242 0.02369
1288.32667 0.02357
1287.04091 0.02344
1285.75516 0.02334
1284.46940 0.02329
1283.18365 0.02326
1281.89789 0.02322
1280.61214 0.02314
1279.32638 0.02301
1278.04063 0.02286
1276.75487 0.02274
1275.46912 0.02266
1274.18336 0.02262
1272.89761 0.02259
1271.61185 0.02257
1270.32610 0.02260
1269.04034 0.02272
1267.75459 0.02297
1266.46883 0.02330
1265.18307 0.02368
1263.89732 0.02405
1262.61156 0.02434
1261.32581 0.02448
1260.04005 0.02444
1258.75430 0.02422
1257.46854 0.02387
1256.18279 0.02348
1254.89703 0.02311
1253.61128 0.02280
1252.32552 0.02258
1251.03977 0.02240
1249.75401 0.02224
1248.46826 0.02210
1247.18250 0.02198
1245.89675 0.02190
1244.61099 0.02186
1243.32524 0.02184
1242.03948 0.02180
1240.75373 0.02173
1239.46797 0.02160
1238.18222 0.02144
1236.89646 0.02127
1235.61071 0.02111
1234.32495 0.02095
1233.03920 0.02076
1231.75344 0.02052
1230.46769 0.02024
1229.18193 0.01996
1227.89618 0.01970
1226.61042 0.01945
1225.32467 0.01920
1224.03891 0.01897
1222.75315 0.01876
1221.46740 0.01856
1220.18164 0.01837
1218.89589 0.01815
1217.61013 0.01792
1216.32438 0.01769
1215.03862 0.01750
1213.75287 0.01736
1212.46711 0.01727
1211.18136 0.01724
1209.89560 0.01724
1208.60985 0.01728
1207.32409 0.01733
1206.03834 0.01740
1204.75258 0.01749
1203.46683 0.01763
1202.18107 0.01787
1200.89532 0.01779
1199.60956 0.01685
1198.32381 0.01680
1197.03805 0.01671
1195.75230 0.01652
1194.46654 0.01629
1193.18079 0.01606
1191.89503 0.01587
1190.60928 0.01570
1189.32352 0.01556
1188.03777 0.01543
1186.75201 0.01531
1185.46626 0.01518
1184.18050 0.01505
1182.89474 0.01494
1181.60899 0.01489
1180.32323 0.01490
1179.03748 0.01493
1177.75172 0.01493
1176.46597 0.01493
1175.18021 0.01494
1173.89446 0.01496
1172.60870 0.01494
1171.32295 0.01491
1170.03719 0.01492
1168.75144 0.01500
1167.46568 0.01512
1166.17993 0.01524
1164.89417 0.01534
1163.60842 0.01542
1162.32266 0.01551
1161.03691 0.01559
1159.75115 0.01567
1158.46540 0.01573
1157.17964 0.01582
1155.89389 0.01596
1154.60813 0.01611
1153.32238 0.01626
1152.03662 0.01640
1150.75087 0.01657
1149.46511 0.01678
1148.17936 0.01705
1146.89360 0.01738
1145.60785 0.01775
1144.32209 0.01817
1143.03633 0.01865
1141.75058 0.01920
1140.46482 0.01980
1139.17907 0.02045
1137.89331 0.02116
1136.60756 0.02197
1135.32180 0.02288
1134.03605 0.02387
1132.75029 0.02495
1131.46454 0.02614
1130.17878 0.02749
1128.89303 0.02896
1127.60727 0.03055
1126.32152 0.03227
1125.03576 0.03414
1123.75001 0.03616
1122.46425 0.03833
1121.17850 0.04065
1119.89274 0.04312
1118.60699 0.04572
1117.32123 0.04841
1116.03548 0.05116
1114.74972 0.05396
1113.46397 0.05677
1112.17821 0.05956
1110.89246 0.06233
1109.60670 0.06510
1108.32095 0.06786
1107.03519 0.07058
1105.74944 0.07322
1104.46368 0.07578
1103.17793 0.07827
1101.89217 0.08071
1100.60641 0.08314
1099.32066 0.08552
1098.03490 0.08783
1096.74915 0.09004
1095.46339 0.09213
1094.17764 0.09407
1092.89188 0.09583
1091.60613 0.09741
1090.32037 0.09882
1089.03462 0.10008
1087.74886 0.10119
1086.46311 0.10219
1085.17735 0.10318
1083.89160 0.10426
1082.60584 0.10550
1081.32009 0.10696
1080.03433 0.10864
1078.74858 0.11053
1077.46282 0.11259
1076.17707 0.11480
1074.89131 0.11711
1073.60556 0.11952
1072.31980 0.12204
1071.03405 0.12465
1069.74829 0.12734
1068.46254 0.13004
1067.17678 0.13271
1065.89103 0.13539
1064.60527 0.13815
1063.31952 0.14101
1062.03376 0.14393
1060.74800 0.14686
1059.46225 0.14980
1058.17649 0.15273
1056.89074 0.15563
1055.60498 0.15845
1054.31923 0.16118
1053.03347 0.16387
1051.74772 0.16657
1050.46196 0.16932
1049.17621 0.17212
1047.89045 0.17497
1046.60470 0.17787
1045.31894 0.18078
1044.03319 0.18367
1042.74743 0.18653
1041.46168 0.18936
1040.17592 0.19216
1038.89017 0.19493
1037.60441 0.19768
1036.31866 0.20041
1035.03290 0.20313
1033.74715 0.20580
1032.46139 0.20831
1031.17564 0.21058
1029.88988 0.21260
1028.60413 0.21437
1027.31837 0.21591
1026.03262 0.21721
1024.74686 0.21828
1023.46111 0.21908
1022.17535 0.21956
1020.88960 0.21967
1019.60384 0.21940
1018.31808 0.21878
1017.03233 0.21784
1015.74657 0.21663
1014.46082 0.21520
1013.17506 0.21355
1011.88931 0.21165
1010.60355 0.20942
1009.31780 0.20680
1008.03204 0.20379
1006.74629 0.20043
1005.46053 0.19683
1004.17478 0.19309
1002.88902 0.18925
1001.60327 0.18531
1000.31751 0.18125
999.03176 0.17710
997.74600 0.17286
996.46025 0.16852
995.17449 0.16408
993.88874 0.15959
992.60298 0.15514
991.31723 0.15078
990.03147 0.14652
988.74572 0.14235
987.45996 0.13825
986.17421 0.13425
984.88845 0.13031
983.60270 0.12645
982.31694 0.12271
981.03119 0.11917
979.74543 0.11585
978.45967 0.11270
977.17392 0.10966
975.88816 0.10671
974.60241 0.10397
973.31665 0.10156
972.03090 0.09954
970.74514 0.09794
969.45939 0.09683
968.17363 0.09630
966.88788 0.09637
965.60212 0.09695
964.31637 0.09783
963.03061 0.09875
961.74486 0.09939
960.45910 0.09949
959.17335 0.09889
957.88759 0.09762
956.60184 0.09583
955.31608 0.09378
954.03033 0.09164
952.74457 0.08953
951.45882 0.08750
950.17306 0.08552
948.88731 0.08356
947.60155 0.08164
946.31580 0.07982
945.03004 0.07811
943.74429 0.07647
942.45853 0.07480
941.17278 0.07310
939.88702 0.07144
938.60126 0.06990
937.31551 0.06851
936.02975 0.06725
934.74400 0.06604
933.45824 0.06486
932.17249 0.06368
930.88673 0.06250
929.60098 0.06134
928.31522 0.06023
927.02947 0.05922
925.74371 0.05833
924.45796 0.05756
923.17220 0.05686
921.88645 0.05619
920.60069 0.05551
919.31494 0.05479
918.02918 0.05403
916.74343 0.05329
915.45767 0.05260
914.17192 0.05195
912.88616 0.05131
911.60041 0.05069
910.31465 0.05015
909.02890 0.04970
907.74314 0.04929
906.45739 0.04886
905.17163 0.04839
903.88588 0.04788
902.60012 0.04736
901.31437 0.04683
900.02861 0.04631
898.74286 0.04582
897.45710 0.04542
896.17134 0.04509
894.88559 0.04476
893.59983 0.04439
892.31408 0.04399
891.02832 0.04364
889.74257 0.04342
888.45681 0.04340
887.17106 0.04365
885.88530 0.04424
884.59955 0.04529
883.31379 0.04685
882.02804 0.04879
880.74228 0.05076
879.45653 0.05236
878.17077 0.05345
876.88502 0.05422
875.59926 0.05500
874.31351 0.05594
873.02775 0.05684
871.74200 0.05734
870.45624 0.05725
869.17049 0.05660
867.88473 0.05560
866.59898 0.05440
865.31322 0.05309
864.02747 0.05176
862.74171 0.05042
861.45596 0.04911
860.17020 0.04787
858.88445 0.04678
857.59869 0.04586
856.31293 0.04509
855.02718 0.04441
853.74142 0.04376
852.45567 0.04311
851.16991 0.04249
849.88416 0.04197
848.59840 0.04156
847.31265 0.04124
846.02689 0.04094
844.74114 0.04062
843.45538 0.04028
842.16963 0.03994
840.88387 0.03959
839.59812 0.03920
838.31236 0.03880
837.02661 0.03841
835.74085 0.03806
834.45510 0.03774
833.16934 0.03747
831.88359 0.03722
830.59783 0.03701
829.31208 0.03689
828.02632 0.03689
826.74057 0.03698
825.45481 0.03714
824.16906 0.03733
822.88330 0.03752
821.59755 0.03767
820.31179 0.03774
819.02604 0.03778
817.74028 0.03786
816.45452 0.03800
815.16877 0.03812
813.88301 0.03819
812.59726 0.03824
811.31150 0.03837
810.02575 0.03859
808.73999 0.03885
807.45424 0.03906
806.16848 0.03918
804.88273 0.03919
803.59697 0.03915
802.31122 0.03903
801.02546 0.03876
799.73971 0.03835
798.45395 0.03794
797.16820 0.03768
795.88244 0.03757
794.59669 0.03749
793.31093 0.03732
792.02518 0.03712
790.73942 0.03695
789.45367 0.03681
788.16791 0.03664
786.88216 0.03642
785.59640 0.03613
784.31065 0.03579
783.02489 0.03545
781.73914 0.03520
780.45338 0.03505
779.16763 0.03494
777.88187 0.03481
776.59612 0.03461
775.31036 0.03435
774.02460 0.03411
772.73885 0.03399
771.45309 0.03400
770.16734 0.03409
768.88158 0.03417
767.59583 0.03416
766.31007 0.03403
765.02432 0.03381
763.73856 0.03361
762.45281 0.03350
761.16705 0.03348
759.88130 0.03345
758.59554 0.03340
757.30979 0.03342
756.02403 0.03356
754.73828 0.03378
753.45252 0.03392
752.16677 0.03390
750.88101 0.03372
749.59526 0.03341
748.30950 0.03307
747.02375 0.03282
745.73799 0.03272
744.45224 0.03267
743.16648 0.03261
741.88073 0.03262
740.59497 0.03281
739.30922 0.03313
738.02346 0.03341
736.73771 0.03353
735.45195 0.03354
734.16619 0.03351
732.88044 0.03345
731.59468 0.03335
730.30893 0.03326
729.02317 0.03324
727.73742 0.03329
726.45166 0.03336
725.16591 0.03339
723.88015 0.03285
722.59440 0.03328
721.30864 0.03369
720.02289 0.03383
718.73713 0.03389
717.45138 0.03398
716.16562 0.03408
714.87987 0.03415
713.59411 0.03414
712.30836 0.03406
711.02260 0.03393
709.73685 0.03377
708.45109 0.03360
707.16534 0.03345
705.87958 0.03336
704.59383 0.03333
703.30807 0.03327
702.02232 0.03314
700.73656 0.03293
699.45081 0.03271
698.16505 0.03256
696.87930 0.03249
695.59354 0.03248
694.30779 0.03246
693.02203 0.03244
691.73627 0.03243
690.45052 0.03246
689.16476 0.03254
687.87901 0.03262
686.59325 0.03265
685.30750 0.03260
684.02174 0.03247
682.73599 0.03230
681.45023 0.03214
680.16448 0.03201
678.87872 0.03192
677.59297 0.03186
676.30721 0.03185
675.02146 0.03187
673.73570 0.03191
672.44995 0.03196
671.16419 0.03201
669.87844 0.03206
668.59268 0.03210
667.30693 0.03207
666.02117 0.03201
664.73542 0.03186
663.44966 0.03168
662.16391 0.03154
660.87815 0.03144
659.59240 0.03136
658.30664 0.03130
657.02089 0.03129
655.73513 0.03140
654.44938 0.03157
653.16362 0.03173
651.87786 0.03180
650.59211 0.03177
649.30635 0.03173
648.02060 0.03175
646.73484 0.03185
645.44909 0.03201
644.16333 0.03221
642.87758 0.03244
641.59182 0.03269
640.30607 0.03297
639.02031 0.03326
637.73456 0.03356
636.44880 0.03383
635.16305 0.03397
633.87729 0.03375
632.59154 0.03318
631.30578 0.03423
630.02003 0.04028
628.73427 0.04469
627.44852 0.03681
626.16276 0.04046
624.87701 0.05170
623.59125 0.06232
622.30550 0.06931
621.01974 0.07181
619.73399 0.07062
618.44823 0.06748
617.16248 0.06375
615.87672 0.06021
614.59097 0.05801
613.30521 0.05873
612.01945 0.06287
610.73370 0.06921
609.44794 0.07614
608.16219 0.08329
606.87643 0.09085
605.59068 0.09809
604.30492 0.10346
603.01917 0.10578
601.73341 0.10507
600.44766 0.10223
599.16190 0.09833
597.87615 0.09411
596.59039 0.09001
595.30464 0.08624
594.01888 0.08297
592.73313 0.08026
591.44737 0.07814
590.16162 0.07655
588.87586 0.07550
587.59011 0.07505
586.30435 0.07525
585.01860 0.07606
583.73284 0.07731
582.44709 0.07888
581.16133 0.08079
579.87558 0.08310
578.58982 0.08581
577.30407 0.08871
576.01831 0.09154
574.73256 0.09421
573.44680 0.09681
572.16105 0.09956
570.87529 0.10266
569.58953 0.10614
568.30378 0.10990
567.01802 0.11367
565.73227 0.11707
564.44651 0.11972
563.16076 0.12139
561.87500 0.12198
560.58925 0.12145
559.30349 0.11978
558.01774 0.11701
556.73198 0.11335
555.44623 0.10910
554.16047 0.10453
552.87472 0.09986
551.58896 0.09529
550.30321 0.09101
549.01745 0.08715
547.73170 0.08374
546.44594 0.08070
545.16019 0.07791
543.87443 0.07523
542.58868 0.07260
541.30292 0.07009
540.01717 0.06785
538.73141 0.06591
537.44566 0.06412
536.15990 0.06231
534.87415 0.06043
533.58839 0.05861
532.30264 0.05699
531.01688 0.05562
529.73112 0.05444
528.44537 0.05331
527.15961 0.05217
525.87386 0.05103
524.58810 0.04996
523.30235 0.04899
522.01659 0.04811
520.73084 0.04724
519.44508 0.04632
518.15933 0.04538
516.87357 0.04446
515.58782 0.04359
514.30206 0.04276
513.01631 0.04198
511.73055 0.04127
510.44480 0.04064
509.15904 0.04006
507.87329 0.03950
506.58753 0.03897
505.30178 0.03846
504.01602 0.03798
502.73027 0.03749
501.44451 0.03695
500.15876 0.03635
498.87300 0.03573
497.58725 0.03516
496.30149 0.03466
495.01574 0.03418
493.72998 0.03372
492.44423 0.03336
491.15847 0.03314
489.87271 0.03305
488.58696 0.03300
487.30120 0.03290
486.01545 0.03271
484.72969 0.03241
483.44394 0.03205
482.15818 0.03168
480.87243 0.03137
479.58667 0.03114
478.30092 0.03102
477.01516 0.03104
475.72941 0.03122
474.44365 0.03148
473.15790 0.03171
471.87214 0.03181
470.58639 0.03178
469.30063 0.03160
468.01488 0.03131
466.72912 0.03095
465.44337 0.03057
464.15761 0.03024
462.87186 0.02994
461.58610 0.02963
460.30035 0.02926
459.01459 0.02883
457.72884 0.02836
456.44308 0.02789
455.15733 0.02743
453.87157 0.02701
452.58582 0.02665
451.30006 0.02636
450.01431 0.02611
448.72855 0.02587
447.44279 0.02566
446.15704 0.02549
444.87128 0.02537
443.58553 0.02525
442.29977 0.02508
441.01402 0.02483
439.72826 0.02455
438.44251 0.02431
437.15675 0.02412
435.87100 0.02397
434.58524 0.02382
433.29949 0.02365
432.01373 0.02345
430.72798 0.02324
429.44222 0.02307
428.15647 0.02294
426.87071 0.02284
425.58496 0.02274
424.29920 0.02263
423.01345 0.02253
421.72769 0.02245
420.44194 0.02237
419.15618 0.02224
417.87043 0.02203
416.58467 0.02175
415.29892 0.02149
414.01316 0.02133
412.72741 0.02128
411.44165 0.02131
410.15590 0.02135
408.87014 0.02135
407.58438 0.02127
406.29863 0.02114
405.01287 0.02101
403.72712 0.02093
402.44136 0.02093
401.15561 0.02101
399.86985 0.02116
