3998.69854 0.05640
3997.41278 0.05904
3996.12703 0.06148
3994.84127 0.06300
3993.55552 0.06247
3992.26976 0.05949
3990.98401 0.05516
3989.69825 0.05127
3988.41250 0.04877
3987.12674 0.04739
3985.84099 0.04685
3984.55523 0.04753
3983.26948 0.04973
3981.98372 0.05330
3980.69797 0.05793
3979.41221 0.06280
3978.12646 0.06562
3976.84070 0.06389
3975.55495 0.05812
3974.26919 0.05201
3972.98344 0.04872
3971.69768 0.04810
3970.41193 0.04859
3969.12617 0.04988
3967.84042 0.05220
3966.55466 0.05465
3965.26891 0.05586
3963.98315 0.05568
3962.69740 0.05504
3961.41164 0.05461
3960.12589 0.05450
3958.84013 0.05478
3957.55437 0.05578
3956.26862 0.05739
3954.98286 0.05817
3953.69711 0.05615
3952.41135 0.05126
3951.12560 0.04638
3949.83984 0.04455
3948.55409 0.04586
3947.26833 0.04820
3945.98258 0.05047
3944.69682 0.05320
3943.41107 0.05637
3942.12531 0.05839
3940.83956 0.05805
3939.55380 0.05627
3938.26805 0.05525
3936.98229 0.05644
3935.69654 0.05938
3934.41078 0.06228
3933.12503 0.06340
3931.83927 0.06200
3930.55352 0.05851
3929.26776 0.05429
3927.98201 0.05105
3926.69625 0.04990
3925.41050 0.05050
3924.12474 0.05141
3922.83899 0.05120
3921.55323 0.04947
3920.26748 0.04709
3918.98172 0.04563
3917.69596 0.04652
3916.41021 0.05023
3915.12445 0.05610
3913.83870 0.06243
3912.55294 0.06703
3911.26719 0.06830
3909.98143 0.06626
3908.69568 0.06233
3907.40992 0.05824
3906.12417 0.05543
3904.83841 0.05484
3903.55266 0.05645
3902.26690 0.05926
3900.98115 0.06223
3899.69539 0.06482
3898.40964 0.06620
3897.12388 0.06530
3895.83813 0.06244
3894.55237 0.05957
3893.26662 0.05805
3891.98086 0.05725
3890.69511 0.05616
3889.40935 0.05528
3888.12360 0.05561
3886.83784 0.05674
3885.55209 0.05717
3884.26633 0.05624
3882.98058 0.05490
3881.69482 0.05441
3880.40907 0.05476
3879.12331 0.05446
3877.83755 0.05172
3876.55180 0.04629
3875.26604 0.04031
3873.98029 0.03716
3872.69453 0.03849
3871.40878 0.04233
3870.12302 0.04487
3868.83727 0.04433
3867.55151 0.04257
3866.26576 0.04261
3864.98000 0.04537
3863.69425 0.04932
3862.40849 0.05252
3861.12274 0.05434
3859.83698 0.05544
3858.55123 0.05668
3857.26547 0.05801
3855.97972 0.05823
3854.69396 0.05581
3853.40821 0.05037
3852.12245 0.04400
3850.83670 0.04066
3849.55094 0.04300
3848.26519 0.04944
3846.97943 0.05504
3845.69368 0.05590
3844.40792 0.05215
3843.12217 0.04650
3841.83641 0.04100
3840.55066 0.03630
3839.26490 0.03314
3837.97915 0.03296
3836.69339 0.03651
3835.40763 0.04233
3834.12188 0.04711
3832.83612 0.04842
3831.55037 0.04709
3830.26461 0.04637
3828.97886 0.04838
3827.69310 0.05216
3826.40735 0.05551
3825.12159 0.05758
3823.83584 0.05838
3822.55008 0.05682
3821.26433 0.05146
3819.97857 0.04344
3818.69282 0.03733
3817.40706 0.03772
3816.12131 0.04495
3814.83555 0.05431
3813.54980 0.05920
3812.26404 0.05642
3810.97829 0.04940
3809.69253 0.04547
3808.40678 0.04866
3807.12102 0.05521
3805.83527 0.05772
3804.54951 0.05301
3803.26376 0.04462
3801.97800 0.03855
3800.69225 0.03851
3799.40649 0.04423
3798.12074 0.05228
3796.83498 0.05871
3795.54922 0.06226
3794.26347 0.06433
3792.97771 0.06580
3791.69196 0.06566
3790.40620 0.06356
3789.12045 0.06164
3787.83469 0.06228
3786.54894 0.06569
3785.26318 0.07011
3783.97743 0.07312
3782.69167 0.07234
3781.40592 0.06700
3780.12016 0.05972
3778.83441 0.05519
3777.54865 0.05583
3776.26290 0.05956
3774.97714 0.06227
3773.69139 0.06202
3772.40563 0.05964
3771.11988 0.05593
3769.83412 0.05024
3768.54837 0.04293
3767.26261 0.03708
3765.97686 0.03608
3764.69110 0.03992
3763.40535 0.04540
3762.11959 0.04938
3760.83384 0.05069
3759.54808 0.04977
3758.26233 0.04825
3756.97657 0.04851
3755.69081 0.05191
3754.40506 0.05721
3753.11930 0.06198
3751.83355 0.06545
3750.54779 0.06854
3749.26204 0.07098
3747.97628 0.07063
3746.69053 0.06678
3745.40477 0.06252
3744.11902 0.06189
3742.83326 0.06522
3741.54751 0.06918
3740.26175 0.07104
3738.97600 0.07059
3737.69024 0.06826
3736.40449 0.06383
3735.11873 0.05792
3733.83298 0.05311
3732.54722 0.05217
3731.26147 0.05546
3729.97571 0.06072
3728.68996 0.06526
3727.40420 0.06838
3726.11845 0.07144
3724.83269 0.07553
3723.54694 0.07890
3722.26118 0.07844
3720.97543 0.07361
3719.68967 0.06754
3718.40392 0.06372
3717.11816 0.06253
3715.83241 0.06202
3714.54665 0.06048
3713.26089 0.05729
3711.97514 0.05246
3710.68938 0.04663
3709.40363 0.04103
3708.11787 0.03638
3706.83212 0.03300
3705.54636 0.03229
3704.26061 0.03618
3702.97485 0.04331
3701.68910 0.04825
3700.40334 0.04769
3699.11759 0.04568
3697.83183 0.04850
3696.54608 0.05575
3695.26032 0.06099
3693.97457 0.06110
3692.68881 0.05987
3691.40306 0.06119
3690.11730 0.06382
3688.83155 0.06473
3687.54579 0.06389
3686.26004 0.06275
3684.97428 0.06098
3683.68853 0.05780
3682.40277 0.05480
3681.11702 0.05486
3679.83126 0.05885
3678.54551 0.06503
3677.25975 0.07082
3675.97400 0.07409
3674.68824 0.07382
3673.40248 0.07053
3672.11673 0.06562
3670.83097 0.06040
3669.54522 0.05696
3668.25946 0.05824
3666.97371 0.06460
3665.68795 0.07088
3664.40220 0.07033
3663.11644 0.06198
3661.83069 0.05165
3660.54493 0.04548
3659.25918 0.04507
3657.97342 0.04893
3656.68767 0.05545
3655.40191 0.06298
3654.11616 0.06878
3652.83040 0.06947
3651.54465 0.06338
3650.25889 0.05298
3648.97314 0.04456
3647.68738 0.04329
3646.40163 0.04838
3645.11587 0.05437
3643.83012 0.05741
3642.54436 0.05866
3641.25861 0.06163
3639.97285 0.06785
3638.68710 0.07515
3637.40134 0.07885
3636.11559 0.07523
3634.82983 0.06505
3633.54408 0.05326
3632.25832 0.04500
3630.97256 0.04251
3629.68681 0.04541
3628.40105 0.05193
3627.11530 0.05938
3625.82954 0.06525
3624.54379 0.06887
3623.25803 0.07095
3621.97228 0.07216
3620.68652 0.07321
3619.40077 0.07540
3618.11501 0.07921
3616.82926 0.08268
3615.54350 0.08324
3614.25775 0.08040
3612.97199 0.07540
3611.68624 0.06919
3610.40048 0.06293
3609.11473 0.05946
3607.82897 0.06180
3606.54322 0.06993
3605.25746 0.08030
3603.97171 0.08852
3602.68595 0.09149
3601.40020 0.08814
3600.11444 0.07981
3598.82869 0.07030
3597.54293 0.06440
3596.25718 0.06506
3594.97142 0.07118
3593.68567 0.07805
3592.39991 0.08069
3591.11415 0.07770
3589.82840 0.07173
3588.54264 0.06671
3587.25689 0.06513
3585.97113 0.06789
3584.68538 0.07498
3583.39962 0.08524
3582.11387 0.09601
3580.82811 0.10349
3579.54236 0.10466
3578.25660 0.09920
3576.97085 0.08951
3575.68509 0.07889
3574.39934 0.07023
3573.11358 0.06600
3571.82783 0.06774
3570.54207 0.07416
3569.25632 0.08123
3567.97056 0.08575
3566.68481 0.08842
3565.39905 0.09206
3564.11330 0.09689
3562.82754 0.09948
3561.54179 0.09714
3560.25603 0.09165
3558.97028 0.08678
3557.68452 0.08323
3556.39877 0.07872
3555.11301 0.07355
3553.82726 0.07263
3552.54150 0.07954
3551.25574 0.09069
3549.96999 0.09793
3548.68423 0.09635
3547.39848 0.08789
3546.11272 0.07842
3544.82697 0.07319
3543.54121 0.07421
3542.25546 0.08001
3540.96970 0.08706
3539.68395 0.09195
3538.39819 0.09343
3537.11244 0.09270
3535.82668 0.09203
3534.54093 0.09338
3533.25517 0.09774
3531.96942 0.10408
3530.68366 0.10853
3529.39791 0.10637
3528.11215 0.09730
3526.82640 0.08750
3525.54064 0.08422
3524.25489 0.08855
3522.96913 0.09504
3521.68338 0.09767
3520.39762 0.09483
3519.11187 0.08975
3517.82611 0.08731
3516.54036 0.08941
3515.25460 0.09255
3513.96885 0.09181
3512.68309 0.08766
3511.39734 0.08578
3510.11158 0.08957
3508.82582 0.09575
3507.54007 0.09884
3506.25431 0.09769
3504.96856 0.09532
3503.68280 0.09464
3502.39705 0.09633
3501.11129 0.09971
3499.82554 0.10329
3498.53978 0.10493
3497.25403 0.10349
3495.96827 0.10064
3494.68252 0.10001
3493.39676 0.10415
3492.11101 0.11263
3490.82525 0.12223
3489.53950 0.12821
3488.25374 0.12665
3486.96799 0.11759
3485.68223 0.10576
3484.39648 0.09676
3483.11072 0.09230
3481.82497 0.08994
3480.53921 0.08683
3479.25346 0.08326
3477.96770 0.08213
3476.68195 0.08509
3475.39619 0.08992
3474.11044 0.09263
3472.82468 0.09244
3471.53893 0.09268
3470.25317 0.09596
3468.96741 0.10026
3467.68166 0.10182
3466.39590 0.10029
3465.11015 0.09869
3463.82439 0.09858
3462.53864 0.09820
3461.25288 0.09626
3459.96713 0.09514
3458.68137 0.09808
3457.39562 0.10435
3456.10986 0.10978
3454.82411 0.11207
3453.53835 0.11267
3452.25260 0.11242
3450.96684 0.10859
3449.68109 0.09883
3448.39533 0.08597
3447.10958 0.07593
3445.82382 0.07142
3444.53807 0.07031
3443.25231 0.06996
3441.96656 0.07057
3440.68080 0.07349
3439.39505 0.07851
3438.10929 0.08416
3436.82354 0.08951
3435.53778 0.09400
3434.25203 0.09684
3432.96627 0.09808
3431.68052 0.09974
3430.39476 0.10427
3429.10900 0.11172
3427.82325 0.11911
3426.53749 0.12236
3425.25174 0.11898
3423.96598 0.11067
3422.68023 0.10322
3421.39447 0.10200
3420.10872 0.10700
3418.82296 0.11344
3417.53721 0.11726
3416.25145 0.11838
3414.96570 0.11880
3413.67994 0.11936
3412.39419 0.11931
3411.10843 0.11809
3409.82268 0.11651
3408.53692 0.11584
3407.25117 0.11572
3405.96541 0.11418
3404.67966 0.11049
3403.39390 0.10701
3402.10815 0.10598
3400.82239 0.10538
3399.53664 0.10106
3398.25088 0.09300
3396.96513 0.08649
3395.67937 0.08606
3394.39362 0.09061
3393.10786 0.09579
3391.82211 0.09889
3390.53635 0.09935
3389.25060 0.09663
3387.96484 0.09072
3386.67908 0.08491
3385.39333 0.08481
3384.10757 0.09273
3382.82182 0.10440
3381.53606 0.11292
3380.25031 0.11514
3378.96455 0.11311
3377.67880 0.11038
3376.39304 0.10912
3375.10729 0.11023
3373.82153 0.11355
3372.53578 0.11711
3371.25002 0.11812
3369.96427 0.11534
3368.67851 0.10991
3367.39276 0.10409
3366.10700 0.10020
3364.82125 0.09945
3363.53549 0.10088
3362.24974 0.10179
3360.96398 0.10008
3359.67823 0.09584
3358.39247 0.09104
3357.10672 0.08881
3355.82096 0.09215
3354.53521 0.10067
3353.24945 0.10899
3351.96370 0.11117
3350.67794 0.10690
3349.39219 0.10161
3348.10643 0.10023
3346.82067 0.10260
3345.53492 0.10510
3344.24916 0.10495
3342.96341 0.10251
3341.67765 0.10054
3340.39190 0.10142
3339.10614 0.10483
3337.82039 0.10807
3336.53463 0.10878
3335.24888 0.10704
3333.96312 0.10477
3332.67737 0.10359
3331.39161 0.10356
3330.10586 0.10368
3328.82010 0.10288
3327.53435 0.10057
3326.24859 0.09691
3324.96284 0.09342
3323.67708 0.09276
3322.39133 0.09700
3321.10557 0.10515
3319.81982 0.11290
3318.53406 0.11583
3317.24831 0.11320
3315.96255 0.10811
3314.67680 0.10392
3313.39104 0.10150
3312.10529 0.10031
3310.81953 0.10075
3309.53378 0.10345
3308.24802 0.10713
3306.96227 0.10929
3305.67651 0.10937
3304.39075 0.10932
3303.10500 0.11079
3301.81924 0.11307
3300.53349 0.11424
3299.24773 0.11314
3297.96198 0.11009
3296.67622 0.10660
3295.39047 0.10460
3294.10471 0.10496
3292.81896 0.10649
3291.53320 0.10708
3290.24745 0.10578
3288.96169 0.10318
3287.67594 0.10002
3286.39018 0.09677
3285.10443 0.09459
3283.81867 0.09530
3282.53292 0.09923
3281.24716 0.10383
3279.96141 0.10557
3278.67565 0.10336
3277.38990 0.09965
3276.10414 0.09779
3274.81839 0.09876
3273.53263 0.10086
3272.24688 0.10228
3270.96112 0.10291
3269.67537 0.10321
3268.38961 0.10264
3267.10386 0.10042
3265.81810 0.09744
3264.53234 0.09581
3263.24659 0.09631
3261.96083 0.09771
3260.67508 0.09886
3259.38932 0.10041
3258.10357 0.10335
3256.81781 0.10649
3255.53206 0.10641
3254.24630 0.10109
3252.96055 0.09329
3251.67479 0.08909
3250.38904 0.09205
3249.10328 0.09952
3247.81753 0.10552
3246.53177 0.10671
3245.24602 0.10460
3243.96026 0.10252
3242.67451 0.10181
3241.38875 0.10112
3240.10300 0.09888
3238.81724 0.09561
3237.53149 0.09342
3236.24573 0.09361
3234.95998 0.09549
3233.67422 0.09753
3232.38847 0.09902
3231.10271 0.10025
3229.81696 0.10158
3228.53120 0.10298
3227.24545 0.10408
3225.95969 0.10453
3224.67393 0.10412
3223.38818 0.10273
3222.10242 0.10035
3220.81667 0.09744
3219.53091 0.09486
3218.24516 0.09320
3216.95940 0.09241
3215.67365 0.09225
3214.38789 0.09268
3213.10214 0.09350
3211.81638 0.09406
3210.53063 0.09386
3209.24487 0.09331
3207.95912 0.09345
3206.67336 0.09468
3205.38761 0.09597
3204.10185 0.09563
3202.81610 0.09325
3201.53034 0.09055
3200.24459 0.08970
3198.95883 0.09095
3197.67308 0.09257
3196.38732 0.09307
3195.10157 0.09295
3193.81581 0.09376
3192.53006 0.09587
3191.24430 0.09778
3189.95855 0.09795
3188.67279 0.09655
3187.38704 0.09508
3186.10128 0.09458
3184.81553 0.09475
3183.52977 0.09451
3182.24401 0.09298
3180.95826 0.09020
3179.67250 0.08736
3178.38675 0.08604
3177.10099 0.08698
3175.81524 0.08986
3174.52948 0.09361
3173.24373 0.09660
3171.95797 0.09703
3170.67222 0.09437
3169.38646 0.09006
3168.10071 0.08614
3166.81495 0.08370
3165.52920 0.08297
3164.24344 0.08409
3162.95769 0.08672
3161.67193 0.08938
3160.38618 0.09020
3159.10042 0.08850
3157.81467 0.08552
3156.52891 0.08336
3155.24316 0.08309
3153.95740 0.08380
3152.67165 0.08391
3151.38589 0.08311
3150.10014 0.08256
3148.81438 0.08304
3147.52863 0.08390
3146.24287 0.08412
3144.95712 0.08376
3143.67136 0.08390
3142.38560 0.08537
3141.09985 0.08778
3139.81409 0.08965
3138.52834 0.08969
3137.24258 0.08787
3135.95683 0.08536
3134.67107 0.08340
3133.38532 0.08230
3132.09956 0.08164
3130.81381 0.08114
3129.52805 0.08100
3128.24230 0.08160
3126.95654 0.08298
3125.67079 0.08464
3124.38503 0.08559
3123.09928 0.08494
3121.81352 0.08270
3120.52777 0.07997
3119.24201 0.07789
3117.95626 0.07668
3116.67050 0.07610
3115.38475 0.07642
3114.09899 0.07811
3112.81324 0.08091
3111.52748 0.08376
3110.24173 0.08555
3108.95597 0.08568
3107.67022 0.08407
3106.38446 0.08134
3105.09871 0.07865
3103.81295 0.07682
3102.52719 0.07569
3101.24144 0.07463
3099.95568 0.07363
3098.66993 0.07327
3097.38417 0.07375
3096.09842 0.07436
3094.81266 0.07440
3093.52691 0.07424
3092.24115 0.07492
3090.95540 0.07676
3089.66964 0.07885
3088.38389 0.08007
3087.09813 0.07990
3085.81238 0.07854
3084.52662 0.07669
3083.24087 0.07533
3081.95511 0.07485
3080.66936 0.07453
3079.38360 0.07342
3078.09785 0.07178
3076.81209 0.07095
3075.52634 0.07174
3074.24058 0.07362
3072.95483 0.07548
3071.66907 0.07656
3070.38332 0.07668
3069.09756 0.07617
3067.81181 0.07571
3066.52605 0.07585
3065.24030 0.07651
3063.95454 0.07720
3062.66879 0.07752
3061.38303 0.07748
3060.09727 0.07732
3058.81152 0.07750
3057.52576 0.07841
3056.24001 0.07986
3054.95425 0.08085
3053.66850 0.08038
3052.38274 0.07853
3051.09699 0.07667
3049.81123 0.07622
3048.52548 0.07735
3047.23972 0.07876
3045.95397 0.07897
3044.66821 0.07748
3043.38246 0.07500
3042.09670 0.07285
3040.81095 0.07206
3039.52519 0.07273
3038.23944 0.07388
3036.95368 0.07430
3035.66793 0.07363
3034.38217 0.07236
3033.09642 0.07107
3031.81066 0.06995
3030.52491 0.06916
3029.23915 0.06911
3027.95340 0.07010
3026.66764 0.07174
3025.38189 0.07301
3024.09613 0.07303
3022.81038 0.07178
3021.52462 0.07009
3020.23886 0.06880
3018.95311 0.06798
3017.66735 0.06712
3016.38160 0.06593
3015.09584 0.06474
3013.81009 0.06420
3012.52433 0.06463
3011.23858 0.06580
3009.95282 0.06710
3008.66707 0.06808
3007.38131 0.06874
3006.09556 0.06941
3004.80980 0.07027
3003.52405 0.07106
3002.23829 0.07119
3000.95254 0.07047
2999.66678 0.06941
2998.38103 0.06865
2997.09527 0.06823
2995.80952 0.06788
2994.52376 0.06758
2993.23801 0.06746
2991.95225 0.06735
2990.66650 0.06707
2989.38074 0.06697
2988.09499 0.06746
2986.80923 0.06813
2985.52348 0.06817
2984.23772 0.06766
2982.95197 0.06752
2981.66621 0.06838
2980.38046 0.06981
2979.09470 0.07102
2977.80894 0.07171
2976.52319 0.07210
2975.23743 0.07237
2973.95168 0.07252
2972.66592 0.07243
2971.38017 0.07216
2970.09441 0.07213
2968.80866 0.07290
2967.52290 0.07464
2966.23715 0.07677
2964.95139 0.07847
2963.66564 0.07943
2962.37988 0.07992
2961.09413 0.08020
2959.80837 0.08045
2958.52262 0.08100
2957.23686 0.08201
2955.95111 0.08304
2954.66535 0.08336
2953.37960 0.08279
2952.09384 0.08186
2950.80809 0.08108
2949.52233 0.08057
2948.23658 0.08019
2946.95082 0.07987
2945.66507 0.07975
2944.37931 0.08006
2943.09356 0.08070
2941.80780 0.08109
2940.52205 0.08078
2939.23629 0.08008
2937.95053 0.07967
2936.66478 0.07965
2935.37902 0.07973
2934.09327 0.08002
2932.80751 0.08114
2931.52176 0.08313
2930.23600 0.08505
2928.95025 0.08585
2927.66449 0.08558
2926.37874 0.08516
2925.09298 0.08522
2923.80723 0.08550
2922.52147 0.08540
2921.23572 0.08460
2919.94996 0.08315
2918.66421 0.08138
2917.37845 0.07990
2916.09270 0.07926
2914.80694 0.07931
2913.52119 0.07936
2912.23543 0.07899
2910.94968 0.07833
2909.66392 0.07759
2908.37817 0.07673
2907.09241 0.07590
2905.80666 0.07559
2904.52090 0.07599
2903.23515 0.07643
2901.94939 0.07601
2900.66364 0.07460
2899.37788 0.07291
2898.09212 0.07162
2896.80637 0.07091
2895.52061 0.07061
2894.23486 0.07043
2892.94910 0.07004
2891.66335 0.06930
2890.37759 0.06852
2889.09184 0.06816
2887.80608 0.06826
2886.52033 0.06835
2885.23457 0.06805
2883.94882 0.06769
2882.66306 0.06802
2881.37731 0.06926
2880.09155 0.07071
2878.80580 0.07135
2877.52004 0.07091
2876.23429 0.06999
2874.94853 0.06919
2873.66278 0.06849
2872.37702 0.06760
2871.09127 0.06667
2869.80551 0.06625
2868.51976 0.06667
2867.23400 0.06766
2865.94825 0.06854
2864.66249 0.06873
2863.37674 0.06815
2862.09098 0.06723
2860.80523 0.06648
2859.51947 0.06605
2858.23372 0.06567
2856.94796 0.06519
2855.66220 0.06490
2854.37645 0.06527
2853.09069 0.06638
2851.80494 0.06771
2850.51918 0.06857
2849.23343 0.06871
2847.94767 0.06823
2846.66192 0.06724
2845.37616 0.06587
2844.09041 0.06435
2842.80465 0.06301
2841.51890 0.06209
2840.23314 0.06155
2838.94739 0.06123
2837.66163 0.06097
2836.37588 0.06070
2835.09012 0.06039
2833.80437 0.05999
2832.51861 0.05940
2831.23286 0.05866
2829.94710 0.05792
2828.66135 0.05730
2827.37559 0.05683
2826.08984 0.05647
2824.80408 0.05624
2823.51833 0.05624
2822.23257 0.05655
2820.94682 0.05713
2819.66106 0.05772
2818.37531 0.05804
2817.08955 0.05800
2815.80379 0.05769
2814.51804 0.05714
2813.23228 0.05641
2811.94653 0.05569
2810.66077 0.05518
2809.37502 0.05486
2808.08926 0.05447
2806.80351 0.05389
2805.51775 0.05334
2804.23200 0.05319
2802.94624 0.05359
2801.66049 0.05441
2800.37473 0.05523
2799.08898 0.05554
2797.80322 0.05492
2796.51747 0.05349
2795.23171 0.05192
2793.94596 0.05086
2792.66020 0.05047
2791.37445 0.05058
2790.08869 0.05102
2788.80294 0.05161
2787.51718 0.05204
2786.23143 0.05199
2784.94567 0.05152
2783.65992 0.05103
2782.37416 0.05090
2781.08841 0.05116
2779.80265 0.05145
2778.51690 0.05140
2777.23114 0.05098
2775.94538 0.05052
2774.65963 0.05032
2773.37387 0.05045
2772.08812 0.05077
2770.80236 0.05104
2769.51661 0.05101
2768.23085 0.05060
2766.94510 0.04999
2765.65934 0.04944
2764.37359 0.04901
2763.08783 0.04859
2761.80208 0.04814
2760.51632 0.04784
2759.23057 0.04784
2757.94481 0.04810
2756.65906 0.04843
2755.37330 0.04870
2754.08755 0.04891
2752.80179 0.04908
2751.51604 0.04932
2750.23028 0.04971
2748.94453 0.05002
2747.65877 0.04977
2746.37302 0.04877
2745.08726 0.04744
2743.80151 0.04651
2742.51575 0.04636
2741.23000 0.04679
2739.94424 0.04735
2738.65849 0.04771
2737.37273 0.04786
2736.08698 0.04799
2734.80122 0.04823
2733.51546 0.04857
2732.22971 0.04892
2730.94395 0.04920
2729.65820 0.04939
2728.37244 0.04945
2727.08669 0.04937
2725.80093 0.04900
2724.51518 0.04825
2723.22942 0.04733
2721.94367 0.04682
2720.65791 0.04706
2719.37216 0.04765
2718.08640 0.04781
2716.80065 0.04719
2715.51489 0.04616
2714.22914 0.04542
2712.94338 0.04539
2711.65763 0.04600
2710.37187 0.04678
2709.08612 0.04712
2707.80036 0.04675
2706.51461 0.04612
2705.22885 0.04601
2703.94310 0.04669
2702.65734 0.04755
2701.37159 0.04786
2700.08583 0.04751
2698.80008 0.04700
2697.51432 0.04674
2696.22857 0.04663
2694.94281 0.04639
2693.65705 0.04601
2692.37130 0.04572
2691.08554 0.04566
2689.79979 0.04568
2688.51403 0.04556
2687.22828 0.04522
2685.94252 0.04479
2684.65677 0.04443
2683.37101 0.04426
2682.08526 0.04427
2680.79950 0.04419
2679.51375 0.04363
2678.22799 0.04255
2676.94224 0.04138
2675.65648 0.04068
2674.37073 0.04075
2673.08497 0.04152
2671.79922 0.04262
2670.51346 0.04347
2669.22771 0.04368
2667.94195 0.04337
2666.65620 0.04300
2665.37044 0.04291
2664.08469 0.04313
2662.79893 0.04352
2661.51318 0.04399
2660.22742 0.04449
2658.94167 0.04490
2657.65591 0.04508
2656.37016 0.04490
2655.08440 0.04442
2653.79865 0.04383
2652.51289 0.04339
2651.22713 0.04321
2649.94138 0.04309
2648.65562 0.04272
2647.36987 0.04202
2646.08411 0.04140
2644.79836 0.04135
2643.51260 0.04187
2642.22685 0.04258
2640.94109 0.04313
2639.65534 0.04350
2638.36958 0.04373
2637.08383 0.04375
2635.79807 0.04353
2634.51232 0.04307
2633.22656 0.04236
2631.94081 0.04151
2630.65505 0.04083
2629.36930 0.04077
2628.08354 0.04141
2626.79779 0.04236
2625.51203 0.04300
2624.22628 0.04307
2622.94052 0.04261
2621.65477 0.04177
2620.36901 0.04068
2619.08326 0.03967
2617.79750 0.03917
2616.51175 0.03939
2615.22599 0.04007
2613.94024 0.04064
2612.65448 0.04069
2611.36872 0.04016
2610.08297 0.03921
2608.79721 0.03810
2607.51146 0.03719
2606.22570 0.03686
2604.93995 0.03722
2603.65419 0.03781
2602.36844 0.03807
2601.08268 0.03799
2599.79693 0.03812
2598.51117 0.03890
2597.22542 0.04011
2595.93966 0.04116
2594.65391 0.04150
2593.36815 0.04096
2592.08240 0.03989
2590.79664 0.03885
2589.51089 0.03819
2588.22513 0.03799
2586.93938 0.03816
2585.65362 0.03846
2584.36787 0.03852
2583.08211 0.03832
2581.79636 0.03824
2580.51060 0.03858
2579.22485 0.03903
2577.93909 0.03903
2576.65334 0.03845
2575.36758 0.03774
2574.08183 0.03746
2572.79607 0.03778
2571.51031 0.03820
2570.22456 0.03801
2568.93880 0.03708
2567.65305 0.03596
2566.36729 0.03525
2565.08154 0.03506
2563.79578 0.03519
2562.51003 0.03545
2561.22427 0.03568
2559.93852 0.03572
2558.65276 0.03552
2557.36701 0.03526
2556.08125 0.03522
2554.79550 0.03562
2553.50974 0.03630
2552.22399 0.03660
2550.93823 0.03600
2549.65248 0.03489
2548.36672 0.03424
2547.08097 0.03456
2545.79521 0.03534
2544.50946 0.03565
2543.22370 0.03516
2541.93795 0.03439
2540.65219 0.03412
2539.36644 0.03456
2538.08068 0.03531
2536.79493 0.03583
2535.50917 0.03607
2534.22342 0.03638
2532.93766 0.03702
2531.65191 0.03796
2530.36615 0.03895
2529.08039 0.03972
2527.79464 0.04012
2526.50888 0.04013
2525.22313 0.03968
2523.93737 0.03858
2522.65162 0.03678
2521.36586 0.03475
2520.08011 0.03322
2518.79435 0.03249
2517.50860 0.03224
2516.22284 0.03211
2514.93709 0.03204
2513.65133 0.03224
2512.36558 0.03290
2511.07982 0.03398
2509.79407 0.03511
2508.50831 0.03572
2507.22256 0.03551
2505.93680 0.03471
2504.65105 0.03381
2503.36529 0.03309
2502.07954 0.03271
2500.79378 0.03278
2499.50803 0.03330
2498.22227 0.03393
2496.93652 0.03425
2495.65076 0.03425
2494.36501 0.03430
2493.07925 0.03464
2491.79350 0.03502
2490.50774 0.03496
2489.22198 0.03435
2487.93623 0.03346
2486.65047 0.03259
2485.36472 0.03176
2484.07896 0.03104
2482.79321 0.03064
2481.50745 0.03067
2480.22170 0.03089
2478.93594 0.03094
2477.65019 0.03066
2476.36443 0.03018
2475.07868 0.02988
2473.79292 0.03020
2472.50717 0.03127
2471.22141 0.03264
2469.93566 0.03351
2468.64990 0.03339
2467.36415 0.03255
2466.07839 0.03179
2464.79264 0.03171
2463.50688 0.03232
2462.22113 0.03314
2460.93537 0.03354
2459.64962 0.03318
2458.36386 0.03235
2457.07811 0.03182
2455.79235 0.03202
2454.50660 0.03253
2453.22084 0.03264
2451.93509 0.03241
2450.64933 0.03250
2449.36357 0.03314
2448.07782 0.03378
2446.79206 0.03400
2445.50631 0.03407
2444.22055 0.03436
2442.93480 0.03466
2441.64904 0.03445
2440.36329 0.03359
2439.07753 0.03243
2437.79178 0.03138
2436.50602 0.03069
2435.22027 0.03056
2433.93451 0.03112
2432.64876 0.03216
2431.36300 0.03309
2430.07725 0.03341
2428.79149 0.03307
2427.50574 0.03232
2426.21998 0.03146
2424.93423 0.03075
2423.64847 0.03049
2422.36272 0.03083
2421.07696 0.03152
2419.79121 0.03206
2418.50545 0.03204
2417.21970 0.03155
2415.93394 0.03101
2414.64819 0.03080
2413.36243 0.03084
2412.07668 0.03081
2410.79092 0.03042
2409.50517 0.02964
2408.21941 0.02862
2406.93365 0.02780
2405.64790 0.02768
2404.36214 0.02840
2403.07639 0.02953
2401.79063 0.03041
2400.50488 0.03076
2399.21912 0.03069
2397.93337 0.03043
2396.64761 0.03014
2395.36186 0.02997
2394.07610 0.03004
2392.79035 0.03026
2391.50459 0.03047
2390.21884 0.03055
2388.93308 0.03047
2387.64733 0.03027
2386.36157 0.03001
2385.07582 0.02987
2383.79006 0.03008
2382.50431 0.03067
2381.21855 0.03131
2379.93280 0.03152
2378.64704 0.03113
2377.36129 0.03049
2376.07553 0.03018
2374.78978 0.03045
2373.50402 0.03101
2372.21827 0.03143
2370.93251 0.03148
2369.64676 0.03122
2368.36100 0.03082
2367.07524 0.03038
2365.78949 0.02999
2364.50373 0.02968
2363.21798 0.02946
2361.93222 0.02937
2360.64647 0.02946
2359.36071 0.02973
2358.07496 0.02998
2356.78920 0.02996
2355.50345 0.02964
2354.21769 0.02928
2352.93194 0.02915
2351.64618 0.02931
2350.36043 0.02956
2349.07467 0.02973
2347.78892 0.02978
2346.50316 0.02978
2345.21741 0.02976
2343.93165 0.02971
2342.64590 0.02966
2341.36014 0.02973
2340.07439 0.03002
2338.78863 0.03049
2337.50288 0.03092
2336.21712 0.03111
2334.93137 0.03104
2333.64561 0.03080
2332.35986 0.03047
2331.07410 0.03010
2329.78835 0.02988
2328.50259 0.03006
2327.21684 0.03077
2325.93108 0.03171
2324.64532 0.03220
2323.35957 0.03174
2322.07381 0.03055
2320.78806 0.02939
2319.50230 0.02887
2318.21655 0.02908
2316.93079 0.02975
2315.64504 0.03063
2314.35928 0.03144
2313.07353 0.03186
2311.78777 0.03176
2310.50202 0.03143
2309.21626 0.03128
2307.93051 0.03141
2306.64475 0.03145
2305.35900 0.03097
2304.07324 0.02995
2302.78749 0.02880
2301.50173 0.02779
2300.21598 0.02687
2298.93022 0.02595
2297.64447 0.02527
2296.35871 0.02524
2295.07296 0.02603
2293.78720 0.02730
2292.50145 0.02851
2291.21569 0.02935
2289.92994 0.02997
2288.64418 0.03059
2287.35843 0.03111
2286.07267 0.03117
2284.78691 0.03049
2283.50116 0.02915
2282.21540 0.02763
2280.92965 0.02651
2279.64389 0.02602
2278.35814 0.02591
2277.07238 0.02576
2275.78663 0.02541
2274.50087 0.02496
2273.21512 0.02465
2271.92936 0.02460
2270.64361 0.02474
2269.35785 0.02471
2268.07210 0.02433
2266.78634 0.02391
2265.50059 0.02398
2264.21483 0.02459
2262.92908 0.02530
2261.64332 0.02577
2260.35757 0.02598
2259.07181 0.02609
2257.78606 0.02625
2256.50030 0.02643
2255.21455 0.02646
2253.92879 0.02642
2252.64304 0.02674
2251.35728 0.02777
2250.07153 0.02924
2248.78577 0.03028
2247.50002 0.03009
2246.21426 0.02856
2244.92850 0.02645
2243.64275 0.02484
2242.35699 0.02425
2241.07124 0.02426
2239.78548 0.02423
2238.49973 0.02410
2237.21397 0.02421
2235.92822 0.02456
2234.64246 0.02470
2233.35671 0.02424
2232.07095 0.02323
2230.78520 0.02184
2229.49944 0.02031
2228.21369 0.01925
2226.92793 0.01955
2225.64218 0.02153
2224.35642 0.02436
2223.07067 0.02645
2221.78491 0.02667
2220.49916 0.02497
2219.21340 0.02215
2217.92765 0.01930
2216.64189 0.01748
2215.35614 0.01726
2214.07038 0.01830
2212.78463 0.01973
2211.49887 0.02103
2210.21312 0.02226
2208.92736 0.02336
2207.64161 0.02370
2206.35585 0.02279
2205.07010 0.02100
2203.78434 0.01921
2202.49858 0.01812
2201.21283 0.01791
2199.92707 0.01837
2198.64132 0.01892
2197.35556 0.01882
2196.06981 0.01794
2194.78405 0.01679
2193.49830 0.01578
2192.21254 0.01480
2190.92679 0.01405
2189.64103 0.01439
2188.35528 0.01645
2187.06952 0.01965
2185.78377 0.02253
2184.49801 0.02397
2183.21226 0.02386
2181.92650 0.02285
2180.64075 0.02151
2179.35499 0.01959
2178.06924 0.01656
2176.78348 0.01282
2175.49773 0.00982
2174.21197 0.00880
2172.92622 0.00973
2171.64046 0.01178
2170.35471 0.01406
2169.06895 0.01594
2167.78320 0.01705
2166.49744 0.01709
2165.21169 0.01586
2163.92593 0.01354
2162.64017 0.01108
2161.35442 0.00951
2160.06866 0.00887
2158.78291 0.00843
2157.49715 0.00806
2156.21140 0.00839
2154.92564 0.00957
2153.63989 0.01131
2152.35413 0.01343
2151.06838 0.01574
2149.78262 0.01756
2148.49687 0.01810
2147.21111 0.01729
2145.92536 0.01582
2144.63960 0.01427
2143.35385 0.01287
2142.06809 0.01187
2140.78234 0.01183
2139.49658 0.01320
2138.21083 0.01566
2136.92507 0.01807
2135.63932 0.01925
2134.35356 0.01880
2133.06781 0.01736
2131.78205 0.01599
2130.49630 0.01550
2129.21054 0.01622
2127.92479 0.01794
2126.63903 0.01989
2125.35328 0.02102
2124.06752 0.02076
2122.78176 0.01952
2121.49601 0.01830
2120.21025 0.01776
2118.92450 0.01789
2117.63874 0.01825
2116.35299 0.01847
2115.06723 0.01846
2113.78148 0.01842
2112.49572 0.01868
2111.20997 0.01925
2109.92421 0.01982
2108.63846 0.02015
2107.35270 0.02026
2106.06695 0.02028
2104.78119 0.02002
2103.49544 0.01919
2102.20968 0.01792
2100.92393 0.01680
2099.63817 0.01620
2098.35242 0.01579
2097.06666 0.01511
2095.78091 0.01422
2094.49515 0.01371
2093.20940 0.01375
2091.92364 0.01383
2090.63789 0.01334
2089.35213 0.01231
2088.06638 0.01149
2086.78062 0.01169
2085.49487 0.01294
2084.20911 0.01446
2082.92336 0.01536
2081.63760 0.01549
2080.35184 0.01528
2079.06609 0.01507
2077.78033 0.01482
2076.49458 0.01448
2075.20882 0.01435
2073.92307 0.01481
2072.63731 0.01595
2071.35156 0.01735
2070.06580 0.01830
2068.78005 0.01825
2067.49429 0.01725
2066.20854 0.01598
2064.92278 0.01518
2063.63703 0.01495
2062.35127 0.01473
2061.06552 0.01394
2059.77976 0.01258
2058.49401 0.01119
2057.20825 0.01034
2055.92250 0.01019
2054.63674 0.01057
2053.35099 0.01116
2052.06523 0.01163
2050.77948 0.01155
2049.49372 0.01040
2048.20797 0.00804
2046.92221 0.00539
2045.63646 0.00403
2044.35070 0.00494
2043.06495 0.00760
2041.77919 0.01058
2040.49343 0.01276
2039.20768 0.01381
2037.92192 0.01403
2036.63617 0.01381
2035.35041 0.01331
2034.06466 0.01242
2032.77890 0.01128
2031.49315 0.01045
2030.20739 0.01048
2028.92164 0.01110
2027.63588 0.01133
2026.35013 0.01053
2025.06437 0.00924
2023.77862 0.00874
2022.49286 0.00966
2021.20711 0.01130
2019.92135 0.01254
2018.63560 0.01297
2017.34984 0.01265
2016.06409 0.01130
2014.77833 0.00868
2013.49258 0.00596
2012.20682 0.00533
2010.92107 0.00797
2009.63531 0.01254
2008.34956 0.01621
2007.06380 0.01706
2005.77805 0.01542
2004.49229 0.01309
2003.20654 0.01140
2001.92078 0.01043
2000.63503 0.00987
1999.34927 0.00987
1998.06351 0.01081
1996.77776 0.01231
1995.49200 0.01320
1994.20625 0.01271
1992.92049 0.01128
1991.63474 0.01010
1990.34898 0.00990
1989.06323 0.01042
1987.77747 0.01090
1986.49172 0.01096
1985.20596 0.01085
1983.92021 0.01101
1982.63445 0.01146
1981.34870 0.01173
1980.06294 0.01126
1978.77719 0.01004
1977.49143 0.00872
1976.20568 0.00819
1974.91992 0.00891
1973.63417 0.01084
1972.34841 0.01357
1971.06266 0.01632
1969.77690 0.01811
1968.49115 0.01835
1967.20539 0.01712
1965.91964 0.01507
1964.63388 0.01293
1963.34813 0.01137
1962.06237 0.01094
1960.77662 0.01171
1959.49086 0.01299
1958.20510 0.01363
1956.91935 0.01304
1955.63359 0.01175
1954.34784 0.01103
1953.06208 0.01168
1951.77633 0.01344
1950.49057 0.01530
1949.20482 0.01644
1947.91906 0.01658
1946.63331 0.01599
1945.34755 0.01512
1944.06180 0.01449
1942.77604 0.01434
1941.49029 0.01461
1940.20453 0.01495
1938.91878 0.01514
1937.63302 0.01525
1936.34727 0.01556
1935.06151 0.01607
1933.77576 0.01641
1932.49000 0.01624
1931.20425 0.01575
1929.91849 0.01539
1928.63274 0.01538
1927.34698 0.01554
1926.06123 0.01570
1924.77547 0.01585
1923.48972 0.01595
1922.20396 0.01590
1920.91821 0.01571
1919.63245 0.01566
1918.34669 0.01595
1917.06094 0.01639
1915.77518 0.01659
1914.48943 0.01643
1913.20367 0.01604
1911.91792 0.01556
1910.63216 0.01504
1909.34641 0.01466
1908.06065 0.01468
1906.77490 0.01521
1905.48914 0.01599
1904.20339 0.01669
1902.91763 0.01713
1901.63188 0.01727
1900.34612 0.01710
1899.06037 0.01671
1897.77461 0.01635
1896.48886 0.01628
1895.20310 0.01662
1893.91735 0.01718
1892.63159 0.01761
1891.34584 0.01758
1890.06008 0.01713
1888.77433 0.01668
1887.48857 0.01669
1886.20282 0.01714
1884.91706 0.01755
1883.63131 0.01746
1882.34555 0.01685
1881.05980 0.01619
1879.77404 0.01598
1878.48829 0.01627
1877.20253 0.01671
1875.91677 0.01689
1874.63102 0.01673
1873.34526 0.01645
1872.05951 0.01627
1870.77375 0.01620
1869.48800 0.01615
1868.20224 0.01610
1866.91649 0.01611
1865.63073 0.01622
1864.34498 0.01642
1863.05922 0.01661
1861.77347 0.01658
1860.48771 0.01626
1859.20196 0.01587
1857.91620 0.01572
1856.63045 0.01591
1855.34469 0.01623
1854.05894 0.01646
1852.77318 0.01641
1851.48743 0.01609
1850.20167 0.01563
1848.91592 0.01523
1847.63016 0.01501
1846.34441 0.01497
1845.05865 0.01513
1843.77290 0.01550
1842.48714 0.01588
1841.20139 0.01606
1839.91563 0.01600
1838.62988 0.01593
1837.34412 0.01603
1836.05836 0.01621
1834.77261 0.01625
1833.48685 0.01610
1832.20110 0.01595
1830.91534 0.01600
1829.62959 0.01623
1828.34383 0.01637
1827.05808 0.01627
1825.77232 0.01602
1824.48657 0.01587
1823.20081 0.01592
1821.91506 0.01610
1820.62930 0.01623
1819.34355 0.01623
1818.05779 0.01613
1816.77204 0.01602
1815.48628 0.01599
1814.20053 0.01607
1812.91477 0.01625
1811.62902 0.01644
1810.34326 0.01656
1809.05751 0.01654
1807.77175 0.01641
1806.48600 0.01625
1805.20024 0.01615
1803.91449 0.01615
1802.62873 0.01622
1801.34298 0.01629
1800.05722 0.01629
1798.77147 0.01624
1797.48571 0.01623
1796.19995 0.01637
1794.91420 0.01664
1793.62844 0.01692
1792.34269 0.01708
1791.05693 0.01709
1789.77118 0.01705
1788.48542 0.01704
1787.19967 0.01706
1785.91391 0.01706
1784.62816 0.01704
1783.34240 0.01702
1782.05665 0.01703
1780.77089 0.01702
1779.48514 0.01690
1778.19938 0.01665
1776.91363 0.01635
1775.62787 0.01614
1774.34212 0.01606
1773.05636 0.01610
1771.77061 0.01623
1770.48485 0.01639
1769.19910 0.01651
1767.91334 0.01655
1766.62759 0.01653
1765.34183 0.01649
1764.05608 0.01644
1762.77032 0.01641
1761.48457 0.01643
1760.19881 0.01651
1758.91306 0.01664
1757.62730 0.01672
1756.34155 0.01667
1755.05579 0.01652
1753.77003 0.01640
1752.48428 0.01639
1751.19852 0.01640
1749.91277 0.01632
1748.62701 0.01612
1747.34126 0.01587
1746.05550 0.01572
1744.76975 0.01568
1743.48399 0.01571
1742.19824 0.01575
1740.91248 0.01579
1739.62673 0.01588
1738.34097 0.01605
1737.05522 0.01623
1735.76946 0.01637
1734.48371 0.01651
1733.19795 0.01671
1731.91220 0.01698
1730.62644 0.01730
1729.34069 0.01760
1728.05493 0.01786
1726.76918 0.01803
1725.48342 0.01808
1724.19767 0.01802
1722.91191 0.01797
1721.62616 0.01801
1720.34040 0.01819
1719.05465 0.01848
1717.76889 0.01881
1716.48314 0.01916
1715.19738 0.01951
1713.91162 0.01983
1712.62587 0.02017
1711.34011 0.02058
1710.05436 0.02109
1708.76860 0.02170
1707.48285 0.02236
1706.19709 0.02298
1704.91134 0.02354
1703.62558 0.02413
1702.33983 0.02483
1701.05407 0.02568
1699.76832 0.02662
1698.48256 0.02760
1697.19681 0.02856
1695.91105 0.02951
1694.62530 0.03045
1693.33954 0.03137
1692.05379 0.03228
1690.76803 0.03315
1689.48228 0.03398
1688.19652 0.03479
1686.91077 0.03563
1685.62501 0.03654
1684.33926 0.03758
1683.05350 0.03872
1681.76775 0.03990
1680.48199 0.04108
1679.19624 0.04222
1677.91048 0.04328
1676.62473 0.04426
1675.33897 0.04514
1674.05322 0.04596
1672.76746 0.04680
1671.48170 0.04770
1670.19595 0.04867
1668.91019 0.04970
1667.62444 0.05075
1666.33868 0.05177
1665.05293 0.05271
1663.76717 0.05358
1662.48142 0.05442
1661.19566 0.05529
1659.90991 0.05616
1658.62415 0.05700
1657.33840 0.05778
1656.05264 0.05854
1654.76689 0.05927
1653.48113 0.05989
1652.19538 0.06032
1650.90962 0.06057
1649.62387 0.06074
1648.33811 0.06092
1647.05236 0.06115
1645.76660 0.06141
1644.48085 0.06165
1643.19509 0.06182
1641.90934 0.06188
1640.62358 0.06179
1639.33783 0.06156
1638.05207 0.06122
1636.76632 0.06081
1635.48056 0.06036
1634.19481 0.05985
1632.90905 0.05924
1631.62329 0.05853
1630.33754 0.05777
1629.05178 0.05704
1627.76603 0.05635
1626.48027 0.05564
1625.19452 0.05486
1623.90876 0.05405
1622.62301 0.05327
1621.33725 0.05256
1620.05150 0.05188
1618.76574 0.05117
1617.47999 0.05039
1616.19423 0.04958
1614.90848 0.04879
1613.62272 0.04812
1612.33697 0.04760
1611.05121 0.04721
1609.76546 0.04688
1608.47970 0.04656
1607.19395 0.04620
1605.90819 0.04582
1604.62244 0.04543
1603.33668 0.04511
1602.05093 0.04491
1600.76517 0.04482
1599.47942 0.04483
1598.19366 0.04487
1596.90791 0.04493
1595.62215 0.04500
1594.33640 0.04510
1593.05064 0.04525
1591.76488 0.04540
1590.47913 0.04552
1589.19337 0.04563
1587.90762 0.04580
1586.62186 0.04610
1585.33611 0.04653
1584.05035 0.04701
1582.76460 0.04747
1581.47884 0.04790
1580.19309 0.04830
1578.90733 0.04870
1577.62158 0.04911
1576.33582 0.04957
1575.05007 0.05007
1573.76431 0.05060
1572.47856 0.05115
1571.19280 0.05171
1569.90705 0.05229
1568.62129 0.05289
1567.33554 0.05345
1566.04978 0.05392
1564.76403 0.05432
1563.47827 0.05473
1562.19252 0.05523
1560.90676 0.05581
1559.62101 0.05641
1558.33525 0.05699
1557.04950 0.05749
1555.76374 0.05794
1554.47799 0.05837
1553.19223 0.05879
1551.90648 0.05921
1550.62072 0.05958
1549.33496 0.05986
1548.04921 0.06004
1546.76345 0.06011
1545.47770 0.06010
1544.19194 0.06005
1542.90619 0.05995
1541.62043 0.05979
1540.33468 0.05960
1539.04892 0.05941
1537.76317 0.05925
1536.47741 0.05913
1535.19166 0.05905
1533.90590 0.05899
1532.62015 0.05893
1531.33439 0.05887
1530.04864 0.05882
1528.76288 0.05879
1527.47713 0.05875
1526.19137 0.05873
1524.90562 0.05871
1523.61986 0.05872
1522.33411 0.05877
1521.04835 0.05882
1519.76260 0.05886
1518.47684 0.05891
1517.19109 0.05903
1515.90533 0.05924
1514.61958 0.05955
1513.33382 0.05994
1512.04807 0.06039
1510.76231 0.06093
1509.47655 0.06154
1508.19080 0.06217
1506.90504 0.06273
1505.61929 0.06318
1504.33353 0.06356
1503.04778 0.06392
1501.76202 0.06425
1500.47627 0.06453
1499.19051 0.06474
1497.90476 0.06491
1496.61900 0.06508
1495.33325 0.06523
1494.04749 0.06535
1492.76174 0.06549
1491.47598 0.06568
1490.19023 0.06592
1488.90447 0.06618
1487.61872 0.06648
1486.33296 0.06689
1485.04721 0.06742
1483.76145 0.06805
1482.47570 0.06873
1481.18994 0.06945
1479.90419 0.07023
1478.61843 0.07108
1477.33268 0.07203
1476.04692 0.07305
1474.76117 0.07405
1473.47541 0.07498
1472.18966 0.07586
1470.90390 0.07669
1469.61814 0.07746
1468.33239 0.07810
1467.04663 0.07858
1465.76088 0.07900
1464.47512 0.07948
1463.18937 0.08009
1461.90361 0.08083
1460.61786 0.08165
1459.33210 0.08253
1458.04635 0.08344
1456.76059 0.08432
1455.47484 0.08512
1454.18908 0.08581
1452.90333 0.08639
1451.61757 0.08686
1450.33182 0.08718
1449.04606 0.08736
1447.76031 0.08745
1446.47455 0.08745
1445.18880 0.08735
1443.90304 0.08710
1442.61729 0.08671
1441.33153 0.08626
1440.04578 0.08583
1438.76002 0.08545
1437.47427 0.08512
1436.18851 0.08487
1434.90276 0.08476
1433.61700 0.08483
1432.33125 0.08505
1431.04549 0.08540
1429.75974 0.08591
1428.47398 0.08663
1427.18822 0.08755
1425.90247 0.08862
1424.61671 0.08977
1423.33096 0.09096
1422.04520 0.09213
1420.75945 0.09328
1419.47369 0.09437
1418.18794 0.09537
1416.90218 0.09625
1415.61643 0.09703
1414.33067 0.09773
1413.04492 0.09827
1411.75916 0.09859
1410.47341 0.09866
1409.18765 0.09850
1407.90190 0.09814
1406.61614 0.09761
1405.33039 0.09691
1404.04463 0.09606
1402.75888 0.09507
1401.47312 0.09396
1400.18737 0.09271
1398.90161 0.09133
1397.61586 0.08982
1396.33010 0.08818
1395.04435 0.08642
1393.75859 0.08457
1392.47284 0.08270
1391.18708 0.08090
1389.90133 0.07922
1388.61557 0.07763
1387.32981 0.07608
1386.04406 0.07451
1384.75830 0.07292
1383.47255 0.07132
1382.18679 0.06972
1380.90104 0.06814
1379.61528 0.06658
1378.32953 0.06507
1377.04377 0.06359
1375.75802 0.06210
1374.47226 0.06055
1373.18651 0.05892
1371.90075 0.05726
1370.61500 0.05562
1369.32924 0.05405
1368.04349 0.05259
1366.75773 0.05120
1365.47198 0.04986
1364.18622 0.04857
1362.90047 0.04735
1361.61471 0.04625
1360.32896 0.04525
1359.04320 0.04435
1357.75745 0.04350
1356.47169 0.04270
1355.18594 0.04194
1353.90018 0.04126
1352.61443 0.04069
1351.32867 0.04021
1350.04292 0.03976
1348.75716 0.03933
1347.47141 0.03892
1346.18565 0.03852
1344.89989 0.03816
1343.61414 0.03785
1342.32838 0.03754
1341.04263 0.03717
1339.75687 0.03673
1338.47112 0.03626
1337.18536 0.03580
1335.89961 0.03542
1334.61385 0.03512
1333.32810 0.03489
1332.04234 0.03467
1330.75659 0.03438
1329.47083 0.03400
1328.18508 0.03359
1326.89932 0.03323
1325.61357 0.03296
1324.32781 0.03273
1323.04206 0.03252
1321.75630 0.03229
1320.47055 0.03206
1319.18479 0.03183
1317.89904 0.03158
1316.61328 0.03130
1315.32753 0.03100
1314.04177 0.03069
1312.75602 0.03041
1311.47026 0.03015
1310.18451 0.02991
1308.89875 0.02969
1307.61300 0.02945
1306.32724 0.02917
1305.04148 0.02889
1303.75573 0.02864
1302.46997 0.02846
1301.18422 0.02833
1299.89846 0.02818
1298.61271 0.02797
1297.32695 0.02770
1296.04120 0.02743
1294.75544 0.02721
1293.46969 0.02707
1292.18393 0.02697
1290.89818 0.02688
1289.61242 0.02678
1288.32667 0.02666
1287.04091 0.02654
1285.75516 0.02649
1284.46940 0.02651
1283.18365 0.02655
1281.89789 0.02655
1280.61214 0.02649
1279.32638 0.02639
1278.04063 0.02631
1276.75487 0.02626
1275.46912 0.02622
1274.18336 0.02618
1272.89761 0.02618
1271.61185 0.02630
1270.32610 0.02664
1269.04034 0.02726
1267.75459 0.02817
1266.46883 0.02930
1265.18307 0.03059
1263.89732 0.03191
1262.61156 0.03303
1261.32581 0.03370
1260.04005 0.03377
1258.75430 0.03327
1257.46854 0.03235
1256.18279 0.03124
1254.89703 0.03011
1253.61128 0.02908
1252.32552 0.02825
1251.03977 0.02763
1249.75401 0.02718
1248.46826 0.02683
1247.18250 0.02652
1245.89675 0.02623
1244.61099 0.02599
1243.32524 0.02579
1242.03948 0.02561
1240.75373 0.02544
1239.46797 0.02527
1238.18222 0.02511
1236.89646 0.02495
1235.61071 0.02480
1234.32495 0.02461
1233.03920 0.02438
1231.75344 0.02412
1230.46769 0.02387
1229.18193 0.02368
1227.89618 0.02355
1226.61042 0.02343
1225.32467 0.02329
1224.03891 0.02310
1222.75315 0.02286
1221.46740 0.02264
1220.18164 0.02249
1218.89589 0.02240
1217.61013 0.02236
1216.32438 0.02228
1215.03862 0.02216
1213.75287 0.02201
1212.46711 0.02189
1211.18136 0.02185
1209.89560 0.02189
1208.60985 0.02198
1207.32409 0.02208
1206.03834 0.02214
1204.75258 0.02213
1203.46683 0.02206
1202.18107 0.02198
1200.89532 0.02195
1199.60956 0.02195
1198.32381 0.02196
1197.03805 0.02191
1195.75230 0.02180
1194.46654 0.02163
1193.18079 0.02145
1191.89503 0.02130
1190.60928 0.02118
1189.32352 0.02108
1188.03777 0.02097
1186.75201 0.02087
1185.46626 0.02078
1184.18050 0.02068
1182.89474 0.02056
1181.60899 0.02047
1180.32323 0.02045
1179.03748 0.02049
1177.75172 0.02057
1176.46597 0.02066
1175.18021 0.02078
1173.89446 0.02094
1172.60870 0.02113
1171.32295 0.02132
1170.03719 0.02151
1168.75144 0.02169
1167.46568 0.02187
1166.17993 0.02202
1164.89417 0.02215
1163.60842 0.02227
1162.32266 0.02238
1161.03691 0.02245
1159.75115 0.02245
1158.46540 0.02243
1157.17964 0.02245
1155.89389 0.02255
1154.60813 0.02274
1153.32238 0.02298
1152.03662 0.02326
1150.75087 0.02361
1149.46511 0.02403
1148.17936 0.02448
1146.89360 0.02495
1145.60785 0.02540
1144.32209 0.02587
1143.03633 0.02641
1141.75058 0.02702
1140.46482 0.02770
1139.17907 0.02846
1137.89331 0.02931
1136.60756 0.03026
1135.32180 0.03131
1134.03605 0.03245
1132.75029 0.03372
1131.46454 0.03516
1130.17878 0.03677
1128.89303 0.03854
1127.60727 0.04046
1126.32152 0.04255
1125.03576 0.04481
1123.75001 0.04721
1122.46425 0.04971
1121.17850 0.05230
1119.89274 0.05502
1118.60699 0.05784
1117.32123 0.06074
1116.03548 0.06368
1114.74972 0.06666
1113.46397 0.06967
1112.17821 0.07271
1110.89246 0.07571
1109.60670 0.07867
1108.32095 0.08157
1107.03519 0.08442
1105.74944 0.08723
1104.46368 0.08999
1103.17793 0.09267
1101.89217 0.09526
1100.60641 0.09779
1099.32066 0.10028
1098.03490 0.10272
1096.74915 0.10506
1095.46339 0.10728
1094.17764 0.10935
1092.89188 0.11126
1091.60613 0.11300
1090.32037 0.11456
1089.03462 0.11598
1087.74886 0.11730
1086.46311 0.11861
1085.17735 0.11997
1083.89160 0.12143
1082.60584 0.12298
1081.32009 0.12461
1080.03433 0.12633
1078.74858 0.12817
1077.46282 0.13017
1076.17707 0.13232
1074.89131 0.13458
1073.60556 0.13690
1072.31980 0.13930
1071.03405 0.14176
1069.74829 0.14431
1068.46254 0.14693
1067.17678 0.14958
1065.89103 0.15225
1064.60527 0.15500
1063.31952 0.15786
1062.03376 0.16082
1060.74800 0.16377
1059.46225 0.16666
1058.17649 0.16947
1056.89074 0.17222
1055.60498 0.17487
1054.31923 0.17746
1053.03347 0.18002
1051.74772 0.18259
1050.46196 0.18518
1049.17621 0.18781
1047.89045 0.19051
1046.60470 0.19331
1045.31894 0.19620
1044.03319 0.19913
1042.74743 0.20209
1041.46168 0.20503
1040.17592 0.20793
1038.89017 0.21082
1037.60441 0.21375
1036.31866 0.21678
1035.03290 0.21986
1033.74715 0.22288
1032.46139 0.22567
1031.17564 0.22817
1029.88988 0.23040
1028.60413 0.23244
1027.31837 0.23433
1026.03262 0.23605
1024.74686 0.23757
1023.46111 0.23882
1022.17535 0.23977
1020.88960 0.24039
1019.60384 0.24066
1018.31808 0.24062
1017.03233 0.24033
1015.74657 0.23982
1014.46082 0.23908
1013.17506 0.23804
1011.88931 0.23663
1010.60355 0.23485
1009.31780 0.23272
1008.03204 0.23028
1006.74629 0.22753
1005.46053 0.22442
1004.17478 0.22096
1002.88902 0.21720
1001.60327 0.21322
1000.31751 0.20905
999.03176 0.20474
997.74600 0.20032
996.46025 0.19579
995.17449 0.19114
993.88874 0.18634
992.60298 0.18139
991.31723 0.17639
990.03147 0.17141
988.74572 0.16653
987.45996 0.16175
986.17421 0.15707
984.88845 0.15249
983.60270 0.14801
982.31694 0.14366
981.03119 0.13942
979.74543 0.13531
978.45967 0.13139
977.17392 0.12771
975.88816 0.12429
974.60241 0.12117
973.31665 0.11837
972.03090 0.11598
970.74514 0.11410
969.45939 0.11275
968.17363 0.11195
966.88788 0.11166
965.60212 0.11180
964.31637 0.11223
963.03061 0.11273
961.74486 0.11307
960.45910 0.11303
959.17335 0.11243
957.88759 0.11123
956.60184 0.10950
955.31608 0.10738
954.03033 0.10505
952.74457 0.10267
951.45882 0.10037
950.17306 0.09817
948.88731 0.09597
947.60155 0.09374
946.31580 0.09154
945.03004 0.08943
943.74429 0.08741
942.45853 0.08544
941.17278 0.08349
939.88702 0.08161
938.60126 0.07986
937.31551 0.07828
936.02975 0.07684
934.74400 0.07546
933.45824 0.07409
932.17249 0.07271
930.88673 0.07136
929.60098 0.07005
928.31522 0.06880
927.02947 0.06763
925.74371 0.06657
924.45796 0.06564
923.17220 0.06483
921.88645 0.06409
920.60069 0.06337
919.31494 0.06262
918.02918 0.06185
916.74343 0.06106
915.45767 0.06029
914.17192 0.05953
912.88616 0.05875
911.60041 0.05798
910.31465 0.05726
909.02890 0.05663
907.74314 0.05608
906.45739 0.05557
905.17163 0.05506
903.88588 0.05450
902.60012 0.05386
901.31437 0.05319
900.02861 0.05255
898.74286 0.05200
897.45710 0.05155
896.17134 0.05115
894.88559 0.05077
893.59983 0.05042
892.31408 0.05007
891.02832 0.04976
889.74257 0.04955
888.45681 0.04956
887.17106 0.04987
885.88530 0.05059
884.59955 0.05187
883.31379 0.05377
882.02804 0.05614
880.74228 0.05854
879.45653 0.06052
878.17077 0.06192
876.88502 0.06301
875.59926 0.06417
874.31351 0.06550
873.02775 0.06672
871.74200 0.06741
870.45624 0.06736
869.17049 0.06666
867.88473 0.06551
866.59898 0.06406
865.31322 0.06238
864.02747 0.06058
862.74171 0.05880
861.45596 0.05713
860.17020 0.05563
858.88445 0.05428
857.59869 0.05309
856.31293 0.05206
855.02718 0.05118
853.74142 0.05038
852.45567 0.04961
851.16991 0.04889
849.88416 0.04826
848.59840 0.04779
847.31265 0.04748
846.02689 0.04724
844.74114 0.04700
843.45538 0.04670
842.16963 0.04632
840.88387 0.04582
839.59812 0.04527
838.31236 0.04475
837.02661 0.04436
835.74085 0.04411
834.45510 0.04393
833.16934 0.04376
831.88359 0.04360
830.59783 0.04354
829.31208 0.04366
828.02632 0.04394
826.74057 0.04435
825.45481 0.04482
824.16906 0.04536
822.88330 0.04597
821.59755 0.04659
820.31179 0.04716
819.02604 0.04762
817.74028 0.04796
816.45452 0.04820
815.16877 0.04841
813.88301 0.04870
812.59726 0.04915
811.31150 0.04981
810.02575 0.05062
808.73999 0.05152
807.45424 0.05241
806.16848 0.05322
804.88273 0.05395
803.59697 0.05460
802.31122 0.05517
801.02546 0.05555
799.73971 0.05569
798.45395 0.05562
797.16820 0.05544
795.88244 0.05517
794.59669 0.05475
793.31093 0.05416
792.02518 0.05343
790.73942 0.05259
789.45367 0.05164
788.16791 0.05061
786.88216 0.04961
785.59640 0.04873
784.31065 0.04809
783.02489 0.04768
781.73914 0.04744
780.45338 0.04722
779.16763 0.04694
777.88187 0.04666
776.59612 0.04638
775.31036 0.04608
774.02460 0.04572
772.73885 0.04541
771.45309 0.04522
770.16734 0.04511
768.88158 0.04489
767.59583 0.04444
766.31007 0.04383
765.02432 0.04326
763.73856 0.04294
762.45281 0.04289
761.16705 0.04292
759.88130 0.04279
758.59554 0.04246
757.30979 0.04214
756.02403 0.04199
754.73828 0.04202
753.45252 0.04205
752.16677 0.04199
750.88101 0.04185
749.59526 0.04168
748.30950 0.04146
747.02375 0.04123
745.73799 0.04103
744.45224 0.04088
743.16648 0.04073
741.88073 0.04056
740.59497 0.04044
739.30922 0.04043
738.02346 0.04049
736.73771 0.04050
735.45195 0.04039
734.16619 0.04015
732.88044 0.03987
731.59468 0.03967
730.30893 0.03962
729.02317 0.03968
727.73742 0.03978
726.45166 0.03985
725.16591 0.03987
723.88015 0.03985
722.59440 0.03980
721.30864 0.03975
720.02289 0.03974
718.73713 0.03979
717.45138 0.03990
716.16562 0.04005
714.87987 0.04018
713.59411 0.04027
712.30836 0.04029
711.02260 0.04024
709.73685 0.04011
708.45109 0.03995
707.16534 0.03981
705.87958 0.03977
704.59383 0.03984
703.30807 0.03999
702.02232 0.04014
700.73656 0.04028
699.45081 0.04039
698.16505 0.04049
696.87930 0.04058
695.59354 0.04063
694.30779 0.04062
693.02203 0.04056
691.73627 0.04049
690.45052 0.04040
689.16476 0.04025
687.87901 0.04003
686.59325 0.03974
685.30750 0.03945
684.02174 0.03919
682.73599 0.03896
681.45023 0.03875
680.16448 0.03855
678.87872 0.03838
677.59297 0.03825
676.30721 0.03820
675.02146 0.03819
673.73570 0.03821
672.44995 0.03820
671.16419 0.03815
669.87844 0.03810
668.59268 0.03805
667.30693 0.03800
666.02117 0.03793
664.73542 0.03780
663.44966 0.03761
662.16391 0.03739
660.87815 0.03720
659.59240 0.03704
658.30664 0.03692
657.02089 0.03681
655.73513 0.03671
654.44938 0.03663
653.16362 0.03657
651.87786 0.03651
650.59211 0.03644
649.30635 0.03635
648.02060 0.03628
646.73484 0.03626
645.44909 0.03632
644.16333 0.03643
642.87758 0.03651
641.59182 0.03652
640.30607 0.03644
639.02031 0.03635
637.73456 0.03636
636.44880 0.03650
635.16305 0.03672
633.87729 0.03693
632.59154 0.03710
631.30578 0.03725
630.02003 0.03739
628.73427 0.03747
627.44852 0.03745
626.16276 0.03736
624.87701 0.03720
623.59125 0.03687
622.30550 0.03644
621.01974 0.03654
619.73399 0.03777
618.44823 0.03990
617.16248 0.04231
615.87672 0.04474
614.59097 0.04738
613.30521 0.05062
612.01945 0.05458
610.73370 0.05891
609.44794 0.06332
608.16219 0.06831
606.87643 0.07426
605.59068 0.08052
604.30492 0.08594
603.01917 0.08976
601.73341 0.09184
600.44766 0.09229
599.16190 0.09136
597.87615 0.08944
596.59039 0.08695
595.30464 0.08429
594.01888 0.08179
592.73313 0.07967
591.44737 0.07803
590.16162 0.07687
588.87586 0.07617
587.59011 0.07598
586.30435 0.07637
585.01860 0.07735
583.73284 0.07878
582.44709 0.08047
581.16133 0.08232
579.87558 0.08433
578.58982 0.08654
577.30407 0.08892
576.01831 0.09134
574.73256 0.09370
573.44680 0.09595
572.16105 0.09821
570.87529 0.10071
569.58953 0.10363
568.30378 0.10691
567.01802 0.11025
565.73227 0.11337
564.44651 0.11623
563.16076 0.11871
561.87500 0.12054
560.58925 0.12128
559.30349 0.12068
558.01774 0.11879
556.73198 0.11592
555.44623 0.11246
554.16047 0.10871
552.87472 0.10483
551.58896 0.10086
550.30321 0.09685
549.01745 0.09290
547.73170 0.08922
546.44594 0.08603
545.16019 0.08328
543.87443 0.08070
542.58868 0.07806
541.30292 0.07537
540.01717 0.07289
538.73141 0.07084
537.44566 0.06925
536.15990 0.06798
534.87415 0.06680
533.58839 0.06555
532.30264 0.06420
531.01688 0.06281
529.73112 0.06151
528.44537 0.06036
527.15961 0.05928
525.87386 0.05819
524.58810 0.05703
523.30235 0.05585
522.01659 0.05473
520.73084 0.05368
519.44508 0.05268
518.15933 0.05171
516.87357 0.05078
515.58782 0.04993
514.30206 0.04915
513.01631 0.04842
511.73055 0.04773
510.44480 0.04712
509.15904 0.04659
507.87329 0.04612
506.58753 0.04562
505.30178 0.04502
504.01602 0.04434
502.73027 0.04365
501.44451 0.04301
500.15876 0.04248
498.87300 0.04208
497.58725 0.04177
496.30149 0.04147
495.01574 0.04115
493.72998 0.04081
492.44423 0.04051
491.15847 0.04022
489.87271 0.03992
488.58696 0.03964
487.30120 0.03943
486.01545 0.03934
484.72969 0.03931
483.44394 0.03928
482.15818 0.03927
480.87243 0.03932
479.58667 0.03941
478.30092 0.03949
477.01516 0.03955
475.72941 0.03962
474.44365 0.03974
473.15790 0.03990
471.87214 0.04005
470.58639 0.04014
469.30063 0.04012
468.01488 0.03997
466.72912 0.03971
465.44337 0.03936
464.15761 0.03894
462.87186 0.03849
461.58610 0.03804
460.30035 0.03760
459.01459 0.03714
457.72884 0.03668
456.44308 0.03627
455.15733 0.03594
453.87157 0.03566
452.58582 0.03537
451.30006 0.03503
450.01431 0.03466
448.72855 0.03433
447.44279 0.03410
446.15704 0.03395
444.87128 0.03380
443.58553 0.03357
442.29977 0.03322
441.01402 0.03280
439.72826 0.03236
438.44251 0.03195
437.15675 0.03161
435.87100 0.03135
434.58524 0.03116
433.29949 0.03100
432.01373 0.03082
430.72798 0.03061
429.44222 0.03035
428.15647 0.03006
426.87071 0.02978
425.58496 0.02952
424.29920 0.02925
423.01345 0.02895
421.72769 0.02865
420.44194 0.02841
419.15618 0.02821
417.87043 0.02801
416.58467 0.02775
415.29892 0.02748
414.01316 0.02723
412.72741 0.02705
411.44165 0.02694
410.15590 0.02688
408.87014 0.02685
407.58438 0.02682
406.29863 0.02680
405.01287 0.02683
403.72712 0.02695
402.44136 0.02722
401.15561 0.02765
399.86985 0.02813
