3998.69854 -0.00691
3997.41278 -0.00655
3996.12703 -0.00649
3994.84127 -0.00766
3993.55552 -0.01048
3992.26976 -0.01397
3990.98401 -0.01693
3989.69825 -0.01916
3988.41250 -0.02071
3987.12674 -0.02051
3985.84099 -0.01727
3984.55523 -0.01153
3983.26948 -0.00578
3981.98372 -0.00197
3980.69797 0.00009
3979.41221 0.00144
3978.12646 0.00188
3976.84070 0.00028
3975.55495 -0.00339
3974.26919 -0.00725
3972.98344 -0.00923
3971.69768 -0.00883
3970.41193 -0.00714
3969.12617 -0.00556
3967.84042 -0.00489
3966.55466 -0.00533
3965.26891 -0.00654
3963.98315 -0.00782
3962.69740 -0.00841
3961.41164 -0.00805
3960.12589 -0.00717
3958.84013 -0.00655
3957.55437 -0.00683
3956.26862 -0.00811
3954.98286 -0.00985
3953.69711 -0.01089
3952.41135 -0.01009
3951.12560 -0.00733
3949.83984 -0.00398
3948.55409 -0.00182
3947.26833 -0.00169
3945.98258 -0.00322
3944.69682 -0.00572
3943.41107 -0.00888
3942.12531 -0.01248
3940.83956 -0.01580
3939.55380 -0.01760
3938.26805 -0.01702
3936.98229 -0.01453
3935.69654 -0.01161
3934.41078 -0.00944
3933.12503 -0.00827
3931.83927 -0.00834
3930.55352 -0.01023
3929.26776 -0.01403
3927.98201 -0.01837
3926.69625 -0.02128
3925.41050 -0.02181
3924.12474 -0.02038
3922.83899 -0.01779
3921.55323 -0.01448
3920.26748 -0.01082
3918.98172 -0.00763
3917.69596 -0.00556
3916.41021 -0.00432
3915.12445 -0.00303
3913.83870 -0.00148
3912.55294 -0.00054
3911.26719 -0.00122
3909.98143 -0.00351
3908.69568 -0.00644
3907.40992 -0.00871
3906.12417 -0.00918
3904.83841 -0.00754
3903.55266 -0.00469
3902.26690 -0.00205
3900.98115 -0.00038
3899.69539 0.00031
3898.40964 -0.00005
3897.12388 -0.00169
3895.83813 -0.00388
3894.55237 -0.00536
3893.26662 -0.00590
3891.98086 -0.00673
3890.69511 -0.00892
3889.40935 -0.01191
3888.12360 -0.01418
3886.83784 -0.01470
3885.55209 -0.01361
3884.26633 -0.01165
3882.98058 -0.00951
3881.69482 -0.00780
3880.40907 -0.00725
3879.12331 -0.00850
3877.83755 -0.01132
3876.55180 -0.01431
3875.26604 -0.01551
3873.98029 -0.01387
3872.69453 -0.01023
3871.40878 -0.00693
3870.12302 -0.00600
3868.83727 -0.00745
3867.55151 -0.00929
3866.26576 -0.01006
3864.98000 -0.01091
3863.69425 -0.01414
3862.40849 -0.01983
3861.12274 -0.02541
3859.83698 -0.02821
3858.55123 -0.02772
3857.26547 -0.02491
3855.97972 -0.02068
3854.69396 -0.01588
3853.40821 -0.01191
3852.12245 -0.01035
3850.83670 -0.01167
3849.55094 -0.01448
3848.26519 -0.01715
3846.97943 -0.01924
3845.69368 -0.02100
3844.40792 -0.02206
3843.12217 -0.02150
3841.83641 -0.01929
3840.55066 -0.01676
3839.26490 -0.01553
3837.97915 -0.01648
3836.69339 -0.01977
3835.40763 -0.02502
3834.12188 -0.03105
3832.83612 -0.03555
3831.55037 -0.03649
3830.26461 -0.03344
3828.97886 -0.02752
3827.69310 -0.02032
3826.40735 -0.01316
3825.12159 -0.00715
3823.83584 -0.00363
3822.55008 -0.00427
3821.26433 -0.00994
3819.97857 -0.01891
3818.69282 -0.02666
3817.40706 -0.02899
3816.12131 -0.02573
3814.83555 -0.02120
3813.54980 -0.01984
3812.26404 -0.02206
3810.97829 -0.02445
3809.69253 -0.02352
3808.40678 -0.01915
3807.12102 -0.01462
3805.83527 -0.01353
3804.54951 -0.01599
3803.26376 -0.01874
3801.97800 -0.01901
3800.69225 -0.01710
3799.40649 -0.01492
3798.12074 -0.01336
3796.83498 -0.01193
3795.54922 -0.01055
3794.26347 -0.00982
3792.97771 -0.00999
3791.69196 -0.01057
3790.40620 -0.01119
3789.12045 -0.01216
3787.83469 -0.01425
3786.54894 -0.01782
3785.26318 -0.02207
3783.97743 -0.02497
3782.69167 -0.02471
3781.40592 -0.02159
3780.12016 -0.01821
3778.83441 -0.01756
3777.54865 -0.02032
3776.26290 -0.02404
3774.97714 -0.02515
3773.69139 -0.02232
3772.40563 -0.01787
3771.11988 -0.01572
3769.83412 -0.01794
3768.54837 -0.02317
3767.26261 -0.02821
3765.97686 -0.03069
3764.69110 -0.03036
3763.40535 -0.02851
3762.11959 -0.02664
3760.83384 -0.02511
3759.54808 -0.02335
3758.26233 -0.02119
3756.97657 -0.01955
3755.69081 -0.01927
3754.40506 -0.01925
3753.11930 -0.01683
3751.83355 -0.01094
3750.54779 -0.00381
3749.26204 0.00107
3747.97628 0.00247
3746.69053 0.00214
3745.40477 0.00186
3744.11902 0.00079
3742.83326 -0.00381
3741.54751 -0.01214
3740.26175 -0.02027
3738.97600 -0.02392
3737.69024 -0.02302
3736.40449 -0.02136
3735.11873 -0.02206
3733.83298 -0.02481
3732.54722 -0.02703
3731.26147 -0.02710
3729.97571 -0.02572
3728.68996 -0.02431
3727.40420 -0.02318
3726.11845 -0.02150
3724.83269 -0.01844
3723.54694 -0.01393
3722.26118 -0.00894
3720.97543 -0.00538
3719.68967 -0.00474
3718.40392 -0.00671
3717.11816 -0.00956
3715.83241 -0.01162
3714.54665 -0.01247
3713.26089 -0.01262
3711.97514 -0.01266
3710.68938 -0.01291
3709.40363 -0.01344
3708.11787 -0.01447
3706.83212 -0.01595
3705.54636 -0.01723
3704.26061 -0.01741
3702.97485 -0.01679
3701.68910 -0.01713
3700.40334 -0.01955
3699.11759 -0.02260
3697.83183 -0.02346
3696.54608 -0.02104
3695.26032 -0.01687
3693.97457 -0.01304
3692.68881 -0.01044
3691.40306 -0.00894
3690.11730 -0.00842
3688.83155 -0.00997
3687.54579 -0.01518
3686.26004 -0.02368
3684.97428 -0.03182
3683.68853 -0.03551
3682.40277 -0.03443
3681.11702 -0.03192
3679.83126 -0.03065
3678.54551 -0.02990
3677.25975 -0.02774
3675.97400 -0.02418
3674.68824 -0.02093
3673.40248 -0.01909
3672.11673 -0.01831
3670.83097 -0.01744
3669.54522 -0.01587
3668.25946 -0.01414
3666.97371 -0.01405
3665.68795 -0.01762
3664.40220 -0.02510
3663.11644 -0.03419
3661.83069 -0.04188
3660.54493 -0.04630
3659.25918 -0.04641
3657.97342 -0.04154
3656.68767 -0.03295
3655.40191 -0.02504
3654.11616 -0.02301
3652.83040 -0.02827
3651.54465 -0.03734
3650.25889 -0.04550
3648.97314 -0.05053
3647.68738 -0.05269
3646.40163 -0.05226
3645.11587 -0.04861
3643.83012 -0.04137
3642.54436 -0.03217
3641.25861 -0.02383
3639.97285 -0.01883
3638.68710 -0.01838
3637.40134 -0.02206
3636.11559 -0.02766
3634.82983 -0.03261
3633.54408 -0.03583
3632.25832 -0.03782
3630.97256 -0.03922
3629.68681 -0.04003
3628.40105 -0.04027
3627.11530 -0.04050
3625.82954 -0.04168
3624.54379 -0.04436
3623.25803 -0.04762
3621.97228 -0.04892
3620.68652 -0.04649
3619.40077 -0.04183
3618.11501 -0.03847
3616.82926 -0.03784
3615.54350 -0.03780
3614.25775 -0.03598
3612.97199 -0.03280
3611.68624 -0.03043
3610.40048 -0.02970
3609.11473 -0.02947
3607.82897 -0.02892
3606.54322 -0.02897
3605.25746 -0.03117
3603.97171 -0.03577
3602.68595 -0.04137
3601.40020 -0.04580
3600.11444 -0.04704
3598.82869 -0.04467
3597.54293 -0.04095
3596.25718 -0.03935
3594.97142 -0.04073
3593.68567 -0.04211
3592.39991 -0.04064
3591.11415 -0.03769
3589.82840 -0.03699
3588.54264 -0.03938
3587.25689 -0.04184
3585.97113 -0.04166
3584.68538 -0.03917
3583.39962 -0.03588
3582.11387 -0.03202
3580.82811 -0.02744
3579.54236 -0.02370
3578.25660 -0.02342
3576.97085 -0.02761
3575.68509 -0.03426
3574.39934 -0.03984
3573.11358 -0.04173
3571.82783 -0.03934
3570.54207 -0.03382
3569.25632 -0.02748
3567.97056 -0.02307
3566.68481 -0.02272
3565.39905 -0.02673
3564.11330 -0.03352
3562.82754 -0.04111
3561.54179 -0.04861
3560.25603 -0.05647
3558.97028 -0.06559
3557.68452 -0.07569
3556.39877 -0.08424
3555.11301 -0.08699
3553.82726 -0.08111
3552.54150 -0.06867
3551.25574 -0.05656
3549.96999 -0.05176
3548.68423 -0.05590
3547.39848 -0.06367
3546.11272 -0.06679
3544.82697 -0.06052
3543.54121 -0.04740
3542.25546 -0.03505
3540.96970 -0.03006
3539.68395 -0.03329
3538.39819 -0.04043
3537.11244 -0.04619
3535.82668 -0.04771
3534.54093 -0.04492
3533.25517 -0.03974
3531.96942 -0.03571
3530.68366 -0.03684
3529.39791 -0.04441
3528.11215 -0.05435
3526.82640 -0.05990
3525.54064 -0.05781
3524.25489 -0.05120
3522.96913 -0.04595
3521.68338 -0.04519
3520.39762 -0.04724
3519.11187 -0.04780
3517.82611 -0.04380
3516.54036 -0.03579
3515.25460 -0.02696
3513.96885 -0.02006
3512.68309 -0.01603
3511.39734 -0.01528
3510.11158 -0.01854
3508.82582 -0.02516
3507.54007 -0.03199
3506.25431 -0.03559
3504.96856 -0.03560
3503.68280 -0.03460
3502.39705 -0.03410
3501.11129 -0.03222
3499.82554 -0.02621
3498.53978 -0.01660
3497.25403 -0.00733
3495.96827 -0.00189
3494.68252 -0.00061
3493.39676 -0.00174
3492.11101 -0.00386
3490.82525 -0.00665
3489.53950 -0.00991
3488.25374 -0.01271
3486.96799 -0.01382
3485.68223 -0.01302
3484.39648 -0.01175
3483.11072 -0.01195
3481.82497 -0.01414
3480.53921 -0.01669
3479.25346 -0.01702
3477.96770 -0.01358
3476.68195 -0.00716
3475.39619 -0.00054
3474.11044 0.00366
3472.82468 0.00500
3471.53893 0.00496
3470.25317 0.00456
3468.96741 0.00335
3467.68166 0.00107
3466.39590 -0.00073
3465.11015 -0.00015
3463.82439 0.00250
3462.53864 0.00491
3461.25288 0.00607
3459.96713 0.00786
3458.68137 0.01291
3457.39562 0.02162
3456.10986 0.03198
3454.82411 0.04129
3453.53835 0.04727
3452.25260 0.04838
3450.96684 0.04459
3449.68109 0.03839
3448.39533 0.03389
3447.10958 0.03431
3445.82382 0.03974
3444.53807 0.04738
3443.25231 0.05370
3441.96656 0.05650
3440.68080 0.05578
3439.39505 0.05343
3438.10929 0.05174
3436.82354 0.05150
3435.53778 0.05201
3434.25203 0.05346
3432.96627 0.05808
3431.68052 0.06765
3430.39476 0.08011
3429.10900 0.09013
3427.82325 0.09339
3426.53749 0.09009
3425.25174 0.08473
3423.96598 0.08265
3422.68023 0.08601
3421.39447 0.09246
3420.10872 0.09768
3418.82296 0.09944
3417.53721 0.09894
3416.25145 0.09828
3414.96570 0.09774
3413.67994 0.09656
3412.39419 0.09561
3411.10843 0.09764
3409.82268 0.10405
3408.53692 0.11244
3407.25117 0.11882
3405.96541 0.12155
3404.67966 0.12125
3403.39390 0.11705
3402.10815 0.10762
3400.82239 0.09781
3399.53664 0.09111
3398.25088 0.09042
3396.96513 0.09538
3395.67937 0.10185
3394.39362 0.10685
3393.10786 0.11121
3391.82211 0.11645
3390.53635 0.12122
3389.25060 0.12277
3387.96484 0.12134
3386.67908 0.12102
3385.39333 0.12573
3384.10757 0.13527
3382.82182 0.14583
3381.53606 0.15325
3380.25031 0.15542
3378.96455 0.15272
3377.67880 0.14793
3376.39304 0.14537
3375.10729 0.14816
3373.82153 0.15556
3372.53578 0.16339
3371.25002 0.16761
3369.96427 0.16735
3368.67851 0.16464
3367.39276 0.16209
3366.10700 0.16125
3364.82125 0.16259
3363.53549 0.16582
3362.24974 0.16975
3360.96398 0.17233
3359.67823 0.17180
3358.39247 0.16842
3357.10672 0.16493
3355.82096 0.16425
3354.53521 0.16690
3353.24945 0.17106
3351.96370 0.17524
3350.67794 0.17971
3349.39219 0.18497
3348.10643 0.19006
3346.82067 0.19329
3345.53492 0.19406
3344.24916 0.19314
3342.96341 0.19168
3341.67765 0.19076
3340.39190 0.19147
3339.10614 0.19408
3337.82039 0.19723
3336.53463 0.19905
3335.24888 0.19952
3333.96312 0.20045
3332.67737 0.20295
3331.39161 0.20561
3330.10586 0.20617
3328.82010 0.20406
3327.53435 0.20085
3326.24859 0.19863
3324.96284 0.19882
3323.67708 0.20181
3322.39133 0.20685
3321.10557 0.21186
3319.81982 0.21433
3318.53406 0.21297
3317.24831 0.20868
3315.96255 0.20369
3314.67680 0.19996
3313.39104 0.19859
3312.10529 0.20008
3310.81953 0.20393
3309.53378 0.20781
3308.24802 0.20861
3306.96227 0.20538
3305.67651 0.20090
3304.39075 0.19930
3303.10500 0.20225
3301.81924 0.20788
3300.53349 0.21298
3299.24773 0.21563
3297.96198 0.21573
3296.67622 0.21433
3295.39047 0.21289
3294.10471 0.21286
3292.81896 0.21478
3291.53320 0.21768
3290.24745 0.21974
3288.96169 0.21968
3287.67594 0.21755
3286.39018 0.21465
3285.10443 0.21287
3283.81867 0.21352
3282.53292 0.21636
3281.24716 0.21986
3279.96141 0.22275
3278.67565 0.22497
3277.38990 0.22695
3276.10414 0.22829
3274.81839 0.22791
3273.53263 0.22533
3272.24688 0.22165
3270.96112 0.21882
3269.67537 0.21806
3268.38961 0.21895
3267.10386 0.22021
3265.81810 0.22110
3264.53234 0.22186
3263.24659 0.22285
3261.96083 0.22382
3260.67508 0.22410
3259.38932 0.22337
3258.10357 0.22188
3256.81781 0.21995
3255.53206 0.21745
3254.24630 0.21420
3252.96055 0.21117
3251.67479 0.21041
3250.38904 0.21310
3249.10328 0.21764
3247.81753 0.22054
3246.53177 0.21959
3245.24602 0.21576
3243.96026 0.21161
3242.67451 0.20862
3241.38875 0.20657
3240.10300 0.20530
3238.81724 0.20575
3237.53149 0.20870
3236.24573 0.21335
3234.95998 0.21750
3233.67422 0.21925
3232.38847 0.21823
3231.10271 0.21561
3229.81696 0.21321
3228.53120 0.21235
3227.24545 0.21302
3225.95969 0.21424
3224.67393 0.21513
3223.38818 0.21541
3222.10242 0.21488
3220.81667 0.21332
3219.53091 0.21111
3218.24516 0.20960
3216.95940 0.21015
3215.67365 0.21274
3214.38789 0.21571
3213.10214 0.21676
3211.81638 0.21457
3210.53063 0.20949
3209.24487 0.20334
3207.95912 0.19821
3206.67336 0.19520
3205.38761 0.19399
3204.10185 0.19360
3202.81610 0.19336
3201.53034 0.19314
3200.24459 0.19306
3198.95883 0.19343
3197.67308 0.19461
3196.38732 0.19638
3195.10157 0.19778
3193.81581 0.19780
3192.53006 0.19630
3191.24430 0.19394
3189.95855 0.19145
3188.67279 0.18946
3187.38704 0.18850
3186.10128 0.18866
3184.81553 0.18928
3183.52977 0.18948
3182.24401 0.18887
3180.95826 0.18753
3179.67250 0.18556
3178.38675 0.18321
3177.10099 0.18129
3175.81524 0.18096
3174.52948 0.18275
3173.24373 0.18571
3171.95797 0.18786
3170.67222 0.18755
3169.38646 0.18469
3168.10071 0.18076
3166.81495 0.17769
3165.52920 0.17647
3164.24344 0.17657
3162.95769 0.17656
3161.67193 0.17541
3160.38618 0.17326
3159.10042 0.17124
3157.81467 0.17051
3156.52891 0.17122
3155.24316 0.17238
3153.95740 0.17290
3152.67165 0.17272
3151.38589 0.17269
3150.10014 0.17347
3148.81438 0.17461
3147.52863 0.17478
3146.24287 0.17279
3144.95712 0.16873
3143.67136 0.16435
3142.38560 0.16190
3141.09985 0.16237
3139.81409 0.16459
3138.52834 0.16632
3137.24258 0.16612
3135.95683 0.16417
3134.67107 0.16165
3133.38532 0.15954
3132.09956 0.15799
3130.81381 0.15672
3129.52805 0.15576
3128.24230 0.15566
3126.95654 0.15682
3125.67079 0.15880
3124.38503 0.16027
3123.09928 0.15983
3121.81352 0.15726
3120.52777 0.15387
3119.24201 0.15146
3117.95626 0.15110
3116.67050 0.15276
3115.38475 0.15579
3114.09899 0.15911
3112.81324 0.16149
3111.52748 0.16207
3110.24173 0.16091
3108.95597 0.15869
3107.67022 0.15614
3106.38446 0.15375
3105.09871 0.15179
3103.81295 0.15041
3102.52719 0.14983
3101.24144 0.15021
3099.95568 0.15131
3098.66993 0.15220
3097.38417 0.15219
3096.09842 0.15160
3094.81266 0.15144
3093.52691 0.15210
3092.24115 0.15289
3090.95540 0.15294
3089.66964 0.15209
3088.38389 0.15080
3087.09813 0.14933
3085.81238 0.14774
3084.52662 0.14640
3083.24087 0.14604
3081.95511 0.14678
3080.66936 0.14762
3079.38360 0.14747
3078.09785 0.14628
3076.81209 0.14496
3075.52634 0.14425
3074.24058 0.14398
3072.95483 0.14357
3071.66907 0.14284
3070.38332 0.14229
3069.09756 0.14246
3067.81181 0.14328
3066.52605 0.14405
3065.24030 0.14400
3063.95454 0.14281
3062.66879 0.14080
3061.38303 0.13875
3060.09727 0.13750
3058.81152 0.13757
3057.52576 0.13888
3056.24001 0.14080
3054.95425 0.14230
3053.66850 0.14244
3052.38274 0.14104
3051.09699 0.13902
3049.81123 0.13747
3048.52548 0.13650
3047.23972 0.13517
3045.95397 0.13277
3044.66821 0.12981
3043.38246 0.12777
3042.09670 0.12769
3040.81095 0.12925
3039.52519 0.13110
3038.23944 0.13204
3036.95368 0.13171
3035.66793 0.13026
3034.38217 0.12793
3033.09642 0.12532
3031.81066 0.12345
3030.52491 0.12305
3029.23915 0.12377
3027.95340 0.12445
3026.66764 0.12428
3025.38189 0.12333
3024.09613 0.12219
3022.81038 0.12145
3021.52462 0.12160
3020.23886 0.12282
3018.95311 0.12457
3017.66735 0.12565
3016.38160 0.12510
3015.09584 0.12303
3013.81009 0.12055
3012.52433 0.11893
3011.23858 0.11883
3009.95282 0.12009
3008.66707 0.12203
3007.38131 0.12384
3006.09556 0.12492
3004.80980 0.12491
3003.52405 0.12330
3002.23829 0.12044
3000.95254 0.11995
2999.66678 0.12173
2998.38103 0.12177
2997.09527 0.12082
2995.80952 0.11854
2994.52376 0.11564
2993.23801 0.11352
2991.95225 0.11315
2990.66650 0.11437
2989.38074 0.11621
2988.09499 0.11766
2986.80923 0.11835
2985.52348 0.11851
2984.23772 0.11847
2982.95197 0.11828
2981.66621 0.11776
2980.38046 0.11701
2979.09470 0.11661
2977.80894 0.11710
2976.52319 0.11837
2975.23743 0.11973
2973.95168 0.12042
2972.66592 0.12003
2971.38017 0.11866
2970.09441 0.11707
2968.80866 0.11632
2967.52290 0.11697
2966.23715 0.11860
2964.95139 0.12035
2963.66564 0.12175
2962.37988 0.12307
2961.09413 0.12469
2959.80837 0.12646
2958.52262 0.12766
2957.23686 0.12783
2955.95111 0.12737
2954.66535 0.12713
2953.37960 0.12734
2952.09384 0.12747
2950.80809 0.12698
2949.52233 0.12589
2948.23658 0.12461
2946.95082 0.12359
2945.66507 0.12318
2944.37931 0.12337
2943.09356 0.12370
2941.80780 0.12387
2940.52205 0.12410
2939.23629 0.12462
2937.95053 0.12500
2936.66478 0.12464
2935.37902 0.12380
2934.09327 0.12347
2932.80751 0.12409
2931.52176 0.12482
2930.23600 0.12448
2928.95025 0.12304
2927.66449 0.12174
2926.37874 0.12169
2925.09298 0.12263
2923.80723 0.12329
2922.52147 0.12273
2921.23572 0.12115
2919.94996 0.11939
2918.66421 0.11807
2917.37845 0.11720
2916.09270 0.11633
2914.80694 0.11506
2913.52119 0.11350
2912.23543 0.11222
2910.94968 0.11171
2909.66392 0.11197
2908.37817 0.11264
2907.09241 0.11340
2905.80666 0.11400
2904.52090 0.11415
2903.23515 0.11352
2901.94939 0.11203
2900.66364 0.10984
2899.37788 0.10723
2898.09212 0.10443
2896.80637 0.10186
2895.52061 0.10019
2894.23486 0.09989
2892.94910 0.10069
2891.66335 0.10180
2890.37759 0.10255
2889.09184 0.10276
2887.80608 0.10250
2886.52033 0.10165
2885.23457 0.10025
2883.94882 0.09889
2882.66306 0.09854
2881.37731 0.09951
2880.09155 0.10104
2878.80580 0.10197
2877.52004 0.10188
2876.23429 0.10121
2874.94853 0.10046
2873.66278 0.09968
2872.37702 0.09881
2871.09127 0.09811
2869.80551 0.09793
2868.51976 0.09827
2867.23400 0.09864
2865.94825 0.09853
2864.66249 0.09781
2863.37674 0.09673
2862.09098 0.09578
2860.80523 0.09518
2859.51947 0.09473
2858.23372 0.09402
2856.94796 0.09318
2855.66220 0.09287
2854.37645 0.09344
2853.09069 0.09429
2851.80494 0.09446
2850.51918 0.09366
2849.23343 0.09236
2847.94767 0.09104
2846.66192 0.08980
2845.37616 0.08863
2844.09041 0.08765
2842.80465 0.08700
2841.51890 0.08679
2840.23314 0.08696
2838.94739 0.08715
2837.66163 0.08687
2836.37588 0.08597
2835.09012 0.08482
2833.80437 0.08395
2832.51861 0.08353
2831.23286 0.08326
2829.94710 0.08279
2828.66135 0.08207
2827.37559 0.08130
2826.08984 0.08061
2824.80408 0.07993
2823.51833 0.07932
2822.23257 0.07908
2820.94682 0.07945
2819.66106 0.08013
2818.37531 0.08045
2817.08955 0.07996
2815.80379 0.07881
2814.51804 0.07732
2813.23228 0.07579
2811.94653 0.07449
2810.66077 0.07380
2809.37502 0.07383
2808.08926 0.07415
2806.80351 0.07422
2805.51775 0.07395
2804.23200 0.07374
2802.94624 0.07402
2801.66049 0.07478
2800.37473 0.07557
2799.08898 0.07573
2797.80322 0.07493
2796.51747 0.07352
2795.23171 0.07230
2793.94596 0.07172
2792.66020 0.07166
2791.37445 0.07187
2790.08869 0.07231
2788.80294 0.07282
2787.51718 0.07285
2786.23143 0.07195
2784.94567 0.07032
2783.65992 0.06882
2782.37416 0.06818
2781.08841 0.06855
2779.80265 0.06948
2778.51690 0.07036
2777.23114 0.07079
2775.94538 0.07074
2774.65963 0.07051
2773.37387 0.07038
2772.08812 0.07037
2770.80236 0.07022
2769.51661 0.06980
2768.23085 0.06925
2766.94510 0.06884
2765.65934 0.06860
2764.37359 0.06828
2763.08783 0.06767
2761.80208 0.06685
2760.51632 0.06615
2759.23057 0.06577
2757.94481 0.06564
2756.65906 0.06563
2755.37330 0.06574
2754.08755 0.06606
2752.80179 0.06649
2751.51604 0.06678
2750.23028 0.06675
2748.94453 0.06636
2747.65877 0.06560
2746.37302 0.06466
2745.08726 0.06395
2743.80151 0.06376
2742.51575 0.06398
2741.23000 0.06419
2739.94424 0.06417
2738.65849 0.06399
2737.37273 0.06377
2736.08698 0.06348
2734.80122 0.06318
2733.51546 0.06313
2732.22971 0.06353
2730.94395 0.06425
2729.65820 0.06498
2728.37244 0.06545
2727.08669 0.06556
2725.80093 0.06525
2724.51518 0.06455
2723.22942 0.06363
2721.94367 0.06282
2720.65791 0.06230
2719.37216 0.06189
2718.08640 0.06120
2716.80065 0.06010
2715.51489 0.05895
2714.22914 0.05834
2712.94338 0.05857
2711.65763 0.05941
2710.37187 0.06020
2709.08612 0.06035
2707.80036 0.05983
2706.51461 0.05916
2705.22885 0.05887
2703.94310 0.05898
2702.65734 0.05913
2701.37159 0.05909
2700.08583 0.05901
2698.80008 0.05911
2697.51432 0.05936
2696.22857 0.05949
2694.94281 0.05926
2693.65705 0.05873
2692.37130 0.05821
2691.08554 0.05808
2689.79979 0.05840
2688.51403 0.05886
2687.22828 0.05900
2685.94252 0.05856
2684.65677 0.05768
2683.37101 0.05677
2682.08526 0.05617
2680.79950 0.05591
2679.51375 0.05583
2678.22799 0.05580
2676.94224 0.05587
2675.65648 0.05608
2674.37073 0.05631
2673.08497 0.05641
2671.79922 0.05623
2670.51346 0.05581
2669.22771 0.05529
2667.94195 0.05480
2666.65620 0.05426
2665.37044 0.05351
2664.08469 0.05247
2662.79893 0.05119
2661.51318 0.04976
2660.22742 0.04829
2658.94167 0.04697
2657.65591 0.04606
2656.37016 0.04556
2655.08440 0.04523
2653.79865 0.04488
2652.51289 0.04459
2651.22713 0.04441
2649.94138 0.04411
2648.65562 0.04341
2647.36987 0.04242
2646.08411 0.04161
2644.79836 0.04136
2643.51260 0.04163
2642.22685 0.04214
2640.94109 0.04272
2639.65534 0.04334
2638.36958 0.04393
2637.08383 0.04427
2635.79807 0.04414
2634.51232 0.04351
2633.22656 0.04261
2631.94081 0.04177
2630.65505 0.04125
2629.36930 0.04112
2628.08354 0.04120
2626.79779 0.04121
2625.51203 0.04096
2624.22628 0.04044
2622.94052 0.03989
2621.65477 0.03961
2620.36901 0.03969
2619.08326 0.03993
2617.79750 0.04006
2616.51175 0.04022
2615.22599 0.04082
2613.94024 0.04191
2612.65448 0.04288
2611.36872 0.04306
2610.08297 0.04235
2608.79721 0.04130
2607.51146 0.04061
2606.22570 0.04052
2604.93995 0.04071
2603.65419 0.04067
2602.36844 0.04025
2601.08268 0.03982
2599.79693 0.03970
2598.51117 0.03992
2597.22542 0.04034
2595.93966 0.04089
2594.65391 0.04145
2593.36815 0.04176
2592.08240 0.04161
2590.79664 0.04115
2589.51089 0.04079
2588.22513 0.04072
2586.93938 0.04076
2585.65362 0.04071
2584.36787 0.04071
2583.08211 0.04104
2581.79636 0.04166
2580.51060 0.04213
2579.22485 0.04223
2577.93909 0.04218
2576.65334 0.04226
2575.36758 0.04236
2574.08183 0.04222
2572.79607 0.04167
2571.51031 0.04086
2570.22456 0.04001
2568.93880 0.03934
2567.65305 0.03906
2566.36729 0.03933
2565.08154 0.04011
2563.79578 0.04096
2562.51003 0.04131
2561.22427 0.04112
2559.93852 0.04090
2558.65276 0.04109
2557.36701 0.04164
2556.08125 0.04234
2554.79550 0.04308
2553.50974 0.04363
2552.22399 0.04358
2550.93823 0.04279
2549.65248 0.04166
2548.36672 0.04096
2547.08097 0.04114
2545.79521 0.04181
2544.50946 0.04208
2543.22370 0.04150
2541.93795 0.04067
2540.65219 0.04072
2539.36644 0.04205
2538.08068 0.04392
2536.79493 0.04524
2535.50917 0.04559
2534.22342 0.04539
2532.93766 0.04521
2531.65191 0.04511
2530.36615 0.04480
2529.08039 0.04418
2527.79464 0.04355
2526.50888 0.04332
2525.22313 0.04351
2523.93737 0.04372
2522.65162 0.04343
2521.36586 0.04251
2520.08011 0.04131
2518.79435 0.04036
2517.50860 0.03989
2516.22284 0.03970
2514.93709 0.03951
2513.65133 0.03936
2512.36558 0.03950
2511.07982 0.04001
2509.79407 0.04063
2508.50831 0.04084
2507.22256 0.04035
2505.93680 0.03942
2504.65105 0.03871
2503.36529 0.03867
2502.07954 0.03926
2500.79378 0.04009
2499.50803 0.04071
2498.22227 0.04087
2496.93652 0.04058
2495.65076 0.04014
2494.36501 0.03994
2493.07925 0.04016
2491.79350 0.04063
2490.50774 0.04106
2489.22198 0.04125
2487.93623 0.04111
2486.65047 0.04058
2485.36472 0.03972
2484.07896 0.03887
2482.79321 0.03853
2481.50745 0.03889
2480.22170 0.03963
2478.93594 0.04021
2477.65019 0.04027
2476.36443 0.03977
2475.07868 0.03898
2473.79292 0.03838
2472.50717 0.03831
2471.22141 0.03871
2469.93566 0.03921
2468.64990 0.03958
2467.36415 0.03985
2466.07839 0.04016
2464.79264 0.04043
2463.50688 0.04047
2462.22113 0.04011
2460.93537 0.03934
2459.64962 0.03841
2458.36386 0.03767
2457.07811 0.03734
2455.79235 0.03725
2454.50660 0.03704
2453.22084 0.03658
2451.93509 0.03623
2450.64933 0.03643
2449.36357 0.03713
2448.07782 0.03778
2446.79206 0.03796
2445.50631 0.03794
2444.22055 0.03835
2442.93480 0.03942
2441.64904 0.04060
2440.36329 0.04105
2439.07753 0.04039
2437.79178 0.03904
2436.50602 0.03783
2435.22027 0.03736
2433.93451 0.03760
2432.64876 0.03808
2431.36300 0.03843
2430.07725 0.03872
2428.79149 0.03915
2427.50574 0.03967
2426.21998 0.03997
2424.93423 0.03993
2423.64847 0.03978
2422.36272 0.03986
2421.07696 0.04016
2419.79121 0.04045
2418.50545 0.04055
2417.21970 0.04051
2415.93394 0.04043
2414.64819 0.04034
2413.36243 0.04025
2412.07668 0.04018
2410.79092 0.04009
2409.50517 0.03987
2408.21941 0.03939
2406.93365 0.03877
2405.64790 0.03835
2404.36214 0.03837
2403.07639 0.03873
2401.79063 0.03916
2400.50488 0.03930
2399.21912 0.03705
2397.93337 0.03841
2396.64761 0.03964
2395.36186 0.04021
2394.07610 0.04096
2392.79035 0.04188
2391.50459 0.04262
2390.21884 0.04292
2388.93308 0.04266
2387.64733 0.04188
2386.36157 0.04083
2385.07582 0.03995
2383.79006 0.03961
2382.50431 0.03987
2381.21855 0.04035
2379.93280 0.04066
2378.64704 0.04053
2377.36129 0.04045
2376.07553 0.04100
2374.78978 0.04194
2373.50402 0.04258
2372.21827 0.04249
2370.93251 0.04201
2369.64676 0.04146
2368.36100 0.04113
2367.07524 0.04092
2365.78949 0.04029
2364.50373 0.03929
2363.21798 0.03862
2361.93222 0.03835
2360.64647 0.03821
2359.36071 0.03803
2358.07496 0.03764
2356.78920 0.03704
2355.50345 0.03652
2354.21769 0.03633
2352.93194 0.03636
2351.64618 0.03610
2350.36043 0.03572
2349.07467 0.03550
2347.78892 0.03519
2346.50316 0.03452
2345.21741 0.03402
2343.93165 0.03399
2342.64590 0.03452
2341.36014 0.03436
2340.07439 0.03387
2338.78863 0.03436
2337.50288 0.03541
2336.21712 0.03572
2334.93137 0.03579
2333.64561 0.03616
2332.35986 0.03660
2331.07410 0.03545
2329.78835 0.03401
2328.50259 0.03147
2327.21684 0.02659
2325.93108 0.02056
2324.64532 0.01520
2323.35957 0.01229
2322.07381 0.01163
2320.78806 0.01284
2319.50230 0.01489
2318.21655 0.01677
2316.93079 0.01823
2315.64504 0.01951
2314.35928 0.02086
2313.07353 0.02191
2311.78777 0.02242
2310.50202 0.02265
2309.21626 0.02289
2307.93051 0.02313
2306.64475 0.02319
2305.35900 0.02284
2304.07324 0.02235
2302.78749 0.02210
2301.50173 0.02206
2300.21598 0.02177
2298.93022 0.02078
2297.64447 0.01920
2296.35871 0.01778
2295.07296 0.01714
2293.78720 0.01730
2292.50145 0.01772
2291.21569 0.01790
2289.92994 0.01762
2288.64418 0.01692
2287.35843 0.01607
2286.07267 0.01543
2284.78691 0.01528
2283.50116 0.01568
2282.21540 0.01644
2280.92965 0.01724
2279.64389 0.01779
2278.35814 0.01794
2277.07238 0.01773
2275.78663 0.01731
2274.50087 0.01683
2273.21512 0.01634
2271.92936 0.01587
2270.64361 0.01542
2269.35785 0.01515
2268.07210 0.01544
2266.78634 0.01650
2265.50059 0.01796
2264.21483 0.01911
2262.92908 0.01959
2261.64332 0.01965
2260.35757 0.01978
2259.07181 0.02022
2257.78606 0.02097
2256.50030 0.02186
2255.21455 0.02252
2253.92879 0.02268
2252.64304 0.02270
2251.35728 0.02356
2250.07153 0.02468
2248.78577 0.02288
2247.50002 0.02289
2246.21426 0.02243
2244.92850 0.02162
2243.64275 0.02094
2242.35699 0.02069
2241.07124 0.02067
2239.78548 0.02036
2238.49973 0.01960
2237.21397 0.01883
2235.92822 0.01853
2234.64246 0.01867
2233.35671 0.01888
2232.07095 0.01884
2230.78520 0.01839
2229.49944 0.01759
2228.21369 0.01689
2226.92793 0.01687
2225.64218 0.01764
2224.35642 0.01849
2223.07067 0.01861
2221.78491 0.01797
2220.49916 0.01727
2219.21340 0.01686
2217.92765 0.01641
2216.64189 0.01568
2215.35614 0.01506
2214.07038 0.01501
2212.78463 0.01563
2211.49887 0.01697
2210.21312 0.01925
2208.92736 0.02210
2207.64161 0.02419
2206.35585 0.02420
2205.07010 0.02212
2203.78434 0.01929
2202.49858 0.01723
2201.21283 0.01660
2199.92707 0.01694
2198.64132 0.01712
2197.35556 0.01630
2196.06981 0.01473
2194.78405 0.01338
2193.49830 0.01264
2192.21254 0.01195
2190.92679 0.01088
2189.64103 0.01002
2188.35528 0.01025
2187.06952 0.01129
2185.78377 0.01193
2184.49801 0.01178
2183.21226 0.01191
2181.92650 0.01299
2180.64075 0.01375
2179.35499 0.01245
2178.06924 0.00946
2176.78348 0.00706
2175.49773 0.00670
2174.21197 0.00770
2172.92622 0.00873
2171.64046 0.00948
2170.35471 0.01001
2169.06895 0.00961
2167.78320 0.00714
2166.49744 0.00248
2165.21169 -0.00280
2163.92593 -0.00618
2162.64017 -0.00502
2161.35442 0.00261
2160.06866 0.01624
2158.78291 0.03156
2157.49715 0.04270
2156.21140 0.04698
2154.92564 0.04598
2153.63989 0.04269
2152.35413 0.03930
2151.06838 0.03694
2149.78262 0.03584
2148.49687 0.03554
2147.21111 0.03535
2145.92536 0.03494
2144.63960 0.03435
2143.35385 0.03371
2142.06809 0.03316
2140.78234 0.03303
2139.49658 0.03372
2138.21083 0.03544
2136.92507 0.03800
2135.63932 0.04068
2134.35356 0.04257
2133.06781 0.04308
2131.78205 0.04227
2130.49630 0.04060
2129.21054 0.03856
2127.92479 0.03648
2126.63903 0.03440
2125.35328 0.03207
2124.06752 0.02930
2122.78176 0.02643
2121.49601 0.02429
2120.21025 0.02334
2118.92450 0.02315
2117.63874 0.02276
2116.35299 0.02170
2115.06723 0.02040
2113.78148 0.01961
2112.49572 0.01953
2111.20997 0.01965
2109.92421 0.01946
2108.63846 0.01891
2107.35270 0.01841
2106.06695 0.01828
2104.78119 0.01843
2103.49544 0.01857
2102.20968 0.01840
2100.92393 0.01822
2099.63817 0.02357
2098.35242 0.02615
2097.06666 0.02678
2095.78091 0.02689
2094.49515 0.02612
2093.20940 0.02431
2091.92364 0.02177
2090.63789 0.01881
2089.35213 0.01574
2088.06638 0.01315
2086.78062 0.01173
2085.49487 0.01161
2084.20911 0.01223
2082.92336 0.01298
2081.63760 0.01369
2080.35184 0.01448
2079.06609 0.01540
2077.78033 0.01641
2076.49458 0.01748
2075.20882 0.01849
2073.92307 0.01913
2072.63731 0.01904
2071.35156 0.01824
2070.06580 0.01719
2068.78005 0.01643
2067.49429 0.01608
2066.20854 0.01580
2064.92278 0.01521
2063.63703 0.01419
2062.35127 0.01281
2061.06552 0.01116
2059.77976 0.00938
2058.49401 0.00764
2057.20825 0.00585
2055.92250 0.00353
2054.63674 0.00029
2053.35099 -0.00325
2052.06523 -0.00529
2050.77948 -0.00424
2049.49372 -0.00023
2048.20797 0.00487
2046.92221 0.00904
2045.63646 0.01162
2044.35070 0.01307
2043.06495 0.01385
2041.77919 0.01393
2040.49343 0.01317
2039.20768 0.01199
2037.92192 0.01149
2036.63617 0.01265
2035.35041 0.01537
2034.06466 0.01836
2032.77890 0.02020
2031.49315 0.02037
2030.20739 0.01919
2028.92164 0.01734
2027.63588 0.01541
2026.35013 0.01398
2025.06437 0.01364
2023.77862 0.01473
2022.49286 0.01695
2021.20711 0.01947
2019.92135 0.02163
2018.63560 0.02334
2017.34984 0.02474
2016.06409 0.02567
2014.77833 0.02602
2013.49258 0.02615
2012.20682 0.02678
2010.92107 0.02843
2009.63531 0.03096
2008.34956 0.03354
2007.06380 0.03501
2005.77805 0.03438
2004.49229 0.03157
2003.20654 0.02737
2001.92078 0.02290
2000.63503 0.01903
1999.34927 0.01624
1998.06351 0.01473
1996.77776 0.01443
1995.49200 0.01491
1994.20625 0.01540
1992.92049 0.01520
1991.63474 0.01407
1990.34898 0.01227
1989.06323 0.01035
1987.77747 0.00877
1986.49172 0.00778
1985.20596 0.00729
1983.92021 0.00719
1982.63445 0.00802
1981.34870 0.01105
1980.06294 0.01729
1978.77719 0.02594
1977.49143 0.03417
1976.20568 0.03909
1974.91992 0.03989
1973.63417 0.03810
1972.34841 0.03601
1971.06266 0.03506
1969.77690 0.03532
1968.49115 0.03589
1967.20539 0.03589
1965.91964 0.03524
1964.63388 0.03476
1963.34813 0.03523
1962.06237 0.03664
1960.77662 0.03802
1959.49086 0.03825
1958.20510 0.03680
1956.91935 0.03404
1955.63359 0.03092
1954.34784 0.02842
1953.06208 0.02724
1951.77633 0.02762
1950.49057 0.02918
1949.20482 0.03089
1947.91906 0.03168
1946.63331 0.03127
1945.34755 0.03046
1944.06180 0.03032
1942.77604 0.03117
1941.49029 0.03242
1940.20453 0.03332
1938.91878 0.03370
1937.63302 0.03392
1936.34727 0.03421
1935.06151 0.03426
1933.77576 0.03363
1932.49000 0.03232
1931.20425 0.03088
1929.91849 0.02989
1928.63274 0.02951
1927.34698 0.02944
1926.06123 0.02924
1924.77547 0.02867
1923.48972 0.02776
1922.20396 0.02685
1920.91821 0.02639
1919.63245 0.02660
1918.34669 0.02729
1917.06094 0.02789
1915.77518 0.02794
1914.48943 0.02745
1913.20367 0.02669
1911.91792 0.02595
1910.63216 0.02534
1909.34641 0.02497
1908.06065 0.02494
1906.77490 0.02522
1905.48914 0.02560
1904.20339 0.02580
1902.91763 0.02569
1901.63188 0.02539
1900.34612 0.02518
1899.06037 0.02526
1897.77461 0.02558
1896.48886 0.02593
1895.20310 0.02618
1893.91735 0.02637
1892.63159 0.02651
1891.34584 0.02651
1890.06008 0.02629
1888.77433 0.02591
1887.48857 0.02561
1886.20282 0.02552
1884.91706 0.02551
1883.63131 0.02535
1882.34555 0.02500
1881.05980 0.02463
1879.77404 0.02444
1878.48829 0.02445
1877.20253 0.02448
1875.91677 0.02435
1874.63102 0.02411
1873.34526 0.02403
1872.05951 0.02436
1870.77375 0.02496
1869.48800 0.02543
1868.20224 0.02540
1866.91649 0.02486
1865.63073 0.02410
1864.34498 0.02347
1863.05922 0.02308
1861.77347 0.02291
1860.48771 0.02290
1859.20196 0.02305
1857.91620 0.02337
1856.63045 0.02379
1855.34469 0.02412
1854.05894 0.02417
1852.77318 0.02389
1851.48743 0.02341
1850.20167 0.02297
1848.91592 0.02288
1847.63016 0.02334
1846.34441 0.02424
1845.05865 0.02506
1843.77290 0.02520
1842.48714 0.02450
1841.20139 0.02338
1839.91563 0.02243
1838.62988 0.02206
1837.34412 0.02221
1836.05836 0.02249
1834.77261 0.02260
1833.48685 0.02263
1832.20110 0.02281
1830.91534 0.02325
1829.62959 0.02372
1828.34383 0.02397
1827.05808 0.02401
1825.77232 0.02404
1824.48657 0.02428
1823.20081 0.02488
1821.91506 0.02596
1820.62930 0.02752
1819.34355 0.02909
1818.05779 0.02983
1816.77204 0.02914
1815.48628 0.02722
1814.20053 0.02491
1812.91477 0.02306
1811.62902 0.02196
1810.34326 0.02137
1809.05751 0.02089
1807.77175 0.02034
1806.48600 0.01983
1805.20024 0.01958
1803.91449 0.01970
1802.62873 0.02009
1801.34298 0.02042
1800.05722 0.02038
1798.77147 0.01996
1797.48571 0.01955
1796.19995 0.01965
1794.91420 0.02041
1793.62844 0.02143
1792.34269 0.02200
1791.05693 0.02172
1789.77118 0.02088
1788.48542 0.02018
1787.19967 0.02006
1785.91391 0.02044
1784.62816 0.02096
1783.34240 0.02129
1782.05665 0.02134
1780.77089 0.02115
1779.48514 0.02073
1778.19938 0.02017
1776.91363 0.01973
1775.62787 0.01975
1774.34212 0.02027
1773.05636 0.02088
1771.77061 0.02108
1770.48485 0.02070
1769.19910 0.01999
1767.91334 0.01924
1766.62759 0.01863
1765.34183 0.01835
1764.05608 0.01850
1762.77032 0.01893
1761.48457 0.01926
1760.19881 0.01924
1758.91306 0.01895
1757.62730 0.01854
1756.34155 0.01819
1755.05579 0.01813
1753.77003 0.01860
1752.48428 0.01950
1751.19852 0.02027
1749.91277 0.02034
1748.62701 0.01968
1747.34126 0.01876
1746.05550 0.01818
1744.76975 0.01816
1743.48399 0.01855
1742.19824 0.01899
1740.91248 0.01914
1739.62673 0.01890
1738.34097 0.01877
1737.05522 0.01951
1735.76946 0.02126
1734.48371 0.02311
1733.19795 0.02377
1731.91220 0.02285
1730.62644 0.02112
1729.34069 0.01975
1728.05493 0.01920
1726.76918 0.01916
1725.48342 0.01908
1724.19767 0.01876
1722.91191 0.01848
1721.62616 0.01881
1720.34040 0.02018
1719.05465 0.02229
1717.76889 0.02410
1716.48314 0.02461
1715.19738 0.02377
1713.91162 0.02238
1712.62587 0.02131
1711.34011 0.02102
1710.05436 0.02146
1708.76860 0.02228
1707.48285 0.02305
1706.19709 0.02354
1704.91134 0.02404
1703.62558 0.02517
1702.33983 0.02724
1701.05407 0.02975
1699.76832 0.03187
1698.48256 0.03329
1697.19681 0.03424
1695.91105 0.03483
1694.62530 0.03477
1693.33954 0.03407
1692.05379 0.03332
1690.76803 0.03327
1689.48228 0.03434
1688.19652 0.03671
1686.91077 0.04019
1685.62501 0.04395
1684.33926 0.04644
1683.05350 0.04675
1681.76775 0.04556
1680.48199 0.04457
1679.19624 0.04500
1677.91048 0.04684
1676.62473 0.04923
1675.33897 0.05121
1674.05322 0.05247
1672.76746 0.05342
1671.48170 0.05463
1670.19595 0.05613
1668.91019 0.05746
1667.62444 0.05833
1666.33868 0.05903
1665.05293 0.06006
1663.76717 0.06139
1662.48142 0.06246
1661.19566 0.06274
1659.90991 0.06229
1658.62415 0.06187
1657.33840 0.06276
1656.05264 0.06575
1654.76689 0.07001
1653.48113 0.07329
1652.19538 0.07376
1650.90962 0.07183
1649.62387 0.06966
1648.33811 0.06923
1647.05236 0.07046
1645.76660 0.07171
1644.48085 0.07174
1643.19509 0.07070
1641.90934 0.06954
1640.62358 0.06905
1639.33783 0.06962
1638.05207 0.07105
1636.76632 0.07252
1635.48056 0.07290
1634.19481 0.07165
1632.90905 0.06934
1631.62329 0.06705
1630.33754 0.06561
1629.05178 0.06500
1627.76603 0.06468
1626.48027 0.06426
1625.19452 0.06352
1623.90876 0.06234
1622.62301 0.06070
1621.33725 0.05903
1620.05150 0.05806
1618.76574 0.05803
1617.47999 0.05827
1616.19423 0.05768
1614.90848 0.05584
1613.62272 0.05339
1612.33697 0.05138
1611.05121 0.05032
1609.76546 0.04994
1608.47970 0.04968
1607.19395 0.04927
1605.90819 0.04868
1604.62244 0.04805
1603.33668 0.04746
1602.05093 0.04695
1600.76517 0.04654
1599.47942 0.04624
1598.19366 0.04602
1596.90791 0.04587
1595.62215 0.04575
1594.33640 0.04567
1593.05064 0.04565
1591.76488 0.04568
1590.47913 0.04576
1589.19337 0.04584
1587.90762 0.04592
1586.62186 0.04600
1585.33611 0.04602
1584.05035 0.04593
1582.76460 0.04576
1581.47884 0.04577
1580.19309 0.04643
1578.90733 0.04799
1577.62158 0.05004
1576.33582 0.05151
1575.05007 0.05161
1573.76431 0.05077
1572.47856 0.05018
1571.19280 0.05056
1569.90705 0.05149
1568.62129 0.05208
1567.33554 0.05184
1566.04978 0.05102
1564.76403 0.05044
1563.47827 0.05102
1562.19252 0.05326
1560.90676 0.05662
1559.62101 0.05966
1558.33525 0.06079
1557.04950 0.05977
1555.76374 0.05786
1554.47799 0.05647
1553.19223 0.05607
1551.90648 0.05626
1550.62072 0.05651
1549.33496 0.05662
1548.04921 0.05661
1546.76345 0.05665
1545.47770 0.05700
1544.19194 0.05791
1542.90619 0.05943
1541.62043 0.06122
1540.33468 0.06231
1539.04892 0.06183
1537.76317 0.06001
1536.47741 0.05809
1535.19166 0.05718
1533.90590 0.05731
1532.62015 0.05773
1531.33439 0.05779
1530.04864 0.05753
1528.76288 0.05733
1527.47713 0.05742
1526.19137 0.05778
1524.90562 0.05847
1523.61986 0.05950
1522.33411 0.06055
1521.04835 0.06107
1519.76260 0.06084
1518.47684 0.06018
1517.19109 0.05959
1515.90533 0.05925
1514.61958 0.05899
1513.33382 0.05869
1512.04807 0.05866
1510.76231 0.05947
1509.47655 0.06142
1508.19080 0.06399
1506.90504 0.06588
1505.61929 0.06600
1504.33353 0.06435
1503.04778 0.06225
1501.76202 0.06115
1500.47627 0.06159
1499.19051 0.06300
1497.90476 0.06435
1496.61900 0.06489
1495.33325 0.06446
1494.04749 0.06357
1492.76174 0.06304
1491.47598 0.06326
1490.19023 0.06392
1488.90447 0.06444
1487.61872 0.06454
1486.33296 0.06438
1485.04721 0.06429
1483.76145 0.06443
1482.47570 0.06476
1481.18994 0.06517
1479.90419 0.06567
1478.61843 0.06637
1477.33268 0.06747
1476.04692 0.06901
1474.76117 0.07076
1473.47541 0.07223
1472.18966 0.07292
1470.90390 0.07279
1469.61814 0.07229
1468.33239 0.07216
1467.04663 0.07273
1465.76088 0.07361
1464.47512 0.07416
1463.18937 0.07423
1461.90361 0.07445
1460.61786 0.07567
1459.33210 0.07817
1458.04635 0.08109
1456.76059 0.08306
1455.47484 0.08336
1454.18908 0.08257
1452.90333 0.08186
1451.61757 0.08193
1450.33182 0.08277
1449.04606 0.08379
1447.76031 0.08444
1446.47455 0.08448
1445.18880 0.08402
1443.90304 0.08327
1442.61729 0.08245
1441.33153 0.08184
1440.04578 0.08175
1438.76002 0.08216
1437.47427 0.08262
1436.18851 0.08253
1434.90276 0.08177
1433.61700 0.08080
1432.33125 0.08030
1431.04549 0.08051
1429.75974 0.08112
1428.47398 0.08174
1427.18822 0.08225
1425.90247 0.08279
1424.61671 0.08352
1423.33096 0.08463
1422.04520 0.08617
1420.75945 0.08792
1419.47369 0.08939
1418.18794 0.09015
1416.90218 0.09025
1415.61643 0.09011
1414.33067 0.09018
1413.04492 0.09056
1411.75916 0.09101
1410.47341 0.09133
1409.18765 0.09144
1407.90190 0.09135
1406.61614 0.09104
1405.33039 0.09046
1404.04463 0.08963
1402.75888 0.08863
1401.47312 0.08763
1400.18737 0.08667
1398.90161 0.08573
1397.61586 0.08474
1396.33010 0.08361
1395.04435 0.08223
1393.75859 0.08056
1392.47284 0.07876
1391.18708 0.07714
1389.90133 0.07592
1388.61557 0.07498
1387.32981 0.07392
1386.04406 0.07246
1384.75830 0.07068
1383.47255 0.06888
1382.18679 0.06727
1380.90104 0.06584
1379.61528 0.06451
1378.32953 0.06323
1377.04377 0.06196
1375.75802 0.06069
1374.47226 0.05932
1373.18651 0.05784
1371.90075 0.05630
1370.61500 0.05479
1369.32924 0.05337
1368.04349 0.05205
1366.75773 0.05080
1365.47198 0.04965
1364.18622 0.04863
1362.90047 0.04767
1361.61471 0.04665
1360.32896 0.04553
1359.04320 0.04437
1357.75745 0.04330
1356.47169 0.04240
1355.18594 0.04165
1353.90018 0.04100
1352.61443 0.04042
1351.32867 0.03989
1350.04292 0.03941
1348.75716 0.03898
1347.47141 0.03856
1346.18565 0.03812
1344.89989 0.03768
1343.61414 0.03731
1342.32838 0.03704
1341.04263 0.03677
1339.75687 0.03641
1338.47112 0.03592
1337.18536 0.03540
1335.89961 0.03495
1334.61385 0.03465
1333.32810 0.03444
1332.04234 0.03420
1330.75659 0.03384
1329.47083 0.03338
1328.18508 0.03289
1326.89932 0.03245
1325.61357 0.03209
1324.32781 0.03178
1323.04206 0.03152
1321.75630 0.03128
1320.47055 0.03105
1319.18479 0.03081
1317.89904 0.03056
1316.61328 0.03032
1315.32753 0.03007
1314.04177 0.02983
1312.75602 0.02957
1311.47026 0.02928
1310.18451 0.02899
1308.89875 0.02875
1307.61300 0.02859
1306.32724 0.02850
1305.04148 0.02845
1303.75573 0.02838
1302.46997 0.02823
1301.18422 0.02801
1299.89846 0.02773
1298.61271 0.02744
1297.32695 0.02719
1296.04120 0.02700
1294.75544 0.02688
1293.46969 0.02683
1292.18393 0.02683
1290.89818 0.02686
1289.61242 0.02689
1288.32667 0.02687
1287.04091 0.02680
1285.75516 0.02674
1284.46940 0.02673
1283.18365 0.02675
1281.89789 0.02674
1280.61214 0.02667
1279.32638 0.02656
1278.04063 0.02644
1276.75487 0.02632
1275.46912 0.02616
1274.18336 0.02599
1272.89761 0.02582
1271.61185 0.02570
1270.32610 0.02563
1269.04034 0.02560
1267.75459 0.02562
1266.46883 0.02571
1265.18307 0.02589
1263.89732 0.02615
1262.61156 0.02641
1261.32581 0.02657
1260.04005 0.02659
1258.75430 0.02647
1257.46854 0.02629
1256.18279 0.02608
1254.89703 0.02587
1253.61128 0.02568
1252.32552 0.02553
1251.03977 0.02546
1249.75401 0.02546
1248.46826 0.02547
1247.18250 0.02545
1245.89675 0.02538
1244.61099 0.02528
1243.32524 0.02517
1242.03948 0.02508
1240.75373 0.02501
1239.46797 0.02495
1238.18222 0.02489
1236.89646 0.02480
1235.61071 0.02464
1234.32495 0.02440
1233.03920 0.02411
1231.75344 0.02379
1230.46769 0.02345
1229.18193 0.02311
1227.89618 0.02277
1226.61042 0.02244
1225.32467 0.02212
1224.03891 0.02180
1222.75315 0.02150
1221.46740 0.02119
1220.18164 0.02089
1218.89589 0.02059
1217.61013 0.02029
1216.32438 0.02002
1215.03862 0.01979
1213.75287 0.01964
1212.46711 0.01956
1211.18136 0.01954
1209.89560 0.01956
1208.60985 0.01959
1207.32409 0.01964
1206.03834 0.01971
1204.75258 0.01979
1203.46683 0.01993
1202.18107 0.02017
1200.89532 0.02004
1199.60956 0.01893
1198.32381 0.01879
1197.03805 0.01864
1195.75230 0.01845
1194.46654 0.01822
1193.18079 0.01797
1191.89503 0.01776
1190.60928 0.01760
1189.32352 0.01747
1188.03777 0.01733
1186.75201 0.01712
1185.46626 0.01685
1184.18050 0.01659
1182.89474 0.01642
1181.60899 0.01635
1180.32323 0.01631
1179.03748 0.01623
1177.75172 0.01610
1176.46597 0.01599
1175.18021 0.01592
1173.89446 0.01593
1172.60870 0.01599
1171.32295 0.01608
1170.03719 0.01622
1168.75144 0.01638
1167.46568 0.01656
1166.17993 0.01671
1164.89417 0.01683
1163.60842 0.01693
1162.32266 0.01702
1161.03691 0.01710
1159.75115 0.01714
1158.46540 0.01714
1157.17964 0.01716
1155.89389 0.01721
1154.60813 0.01728
1153.32238 0.01736
1152.03662 0.01744
1150.75087 0.01753
1149.46511 0.01764
1148.17936 0.01774
1146.89360 0.01786
1145.60785 0.01801
1144.32209 0.01825
1143.03633 0.01858
1141.75058 0.01898
1140.46482 0.01945
1139.17907 0.02005
1137.89331 0.02079
1136.60756 0.02167
1135.32180 0.02262
1134.03605 0.02361
1132.75029 0.02468
1131.46454 0.02588
1130.17878 0.02723
1128.89303 0.02875
1127.60727 0.03041
1126.32152 0.03223
1125.03576 0.03419
1123.75001 0.03626
1122.46425 0.03842
1121.17850 0.04065
1119.89274 0.04294
1118.60699 0.04531
1117.32123 0.04778
1116.03548 0.05038
1114.74972 0.05306
1113.46397 0.05578
1112.17821 0.05847
1110.89246 0.06113
1109.60670 0.06378
1108.32095 0.06641
1107.03519 0.06900
1105.74944 0.07148
1104.46368 0.07383
1103.17793 0.07607
1101.89217 0.07827
1100.60641 0.08045
1099.32066 0.08260
1098.03490 0.08468
1096.74915 0.08666
1095.46339 0.08853
1094.17764 0.09026
1092.89188 0.09183
1091.60613 0.09320
1090.32037 0.09439
1089.03462 0.09544
1087.74886 0.09641
1086.46311 0.09739
1085.17735 0.09842
1083.89160 0.09951
1082.60584 0.10070
1081.32009 0.10200
1080.03433 0.10347
1078.74858 0.10510
1077.46282 0.10689
1076.17707 0.10885
1074.89131 0.11096
1073.60556 0.11318
1072.31980 0.11547
1071.03405 0.11778
1069.74829 0.12010
1068.46254 0.12242
1067.17678 0.12472
1065.89103 0.12704
1064.60527 0.12943
1063.31952 0.13196
1062.03376 0.13459
1060.74800 0.13723
1059.46225 0.13983
1058.17649 0.14236
1056.89074 0.14484
1055.60498 0.14729
1054.31923 0.14972
1053.03347 0.15218
1051.74772 0.15467
1050.46196 0.15718
1049.17621 0.15972
1047.89045 0.16231
1046.60470 0.16494
1045.31894 0.16757
1044.03319 0.17019
1042.74743 0.17276
1041.46168 0.17531
1040.17592 0.17784
1038.89017 0.18040
1037.60441 0.18300
1036.31866 0.18566
1035.03290 0.18832
1033.74715 0.19086
1032.46139 0.19319
1031.17564 0.19527
1029.88988 0.19712
1028.60413 0.19876
1027.31837 0.20023
1026.03262 0.20150
1024.74686 0.20257
1023.46111 0.20340
1022.17535 0.20397
1020.88960 0.20422
1019.60384 0.20414
1018.31808 0.20377
1017.03233 0.20316
1015.74657 0.20239
1014.46082 0.20140
1013.17506 0.20013
1011.88931 0.19855
1010.60355 0.19667
1009.31780 0.19458
1008.03204 0.19228
1006.74629 0.18971
1005.46053 0.18681
1004.17478 0.18360
1002.88902 0.18019
1001.60327 0.17664
1000.31751 0.17302
999.03176 0.16933
997.74600 0.16557
996.46025 0.16173
995.17449 0.15781
993.88874 0.15382
992.60298 0.14977
991.31723 0.14573
990.03147 0.14175
988.74572 0.13788
987.45996 0.13411
986.17421 0.13043
984.88845 0.12681
983.60270 0.12329
982.31694 0.11986
981.03119 0.11653
979.74543 0.11334
978.45967 0.11033
977.17392 0.10752
975.88816 0.10492
974.60241 0.10254
973.31665 0.10039
972.03090 0.09851
970.74514 0.09701
969.45939 0.09601
968.17363 0.09557
966.88788 0.09564
965.60212 0.09610
964.31637 0.09676
963.03061 0.09742
961.74486 0.09783
960.45910 0.09780
959.17335 0.09721
957.88759 0.09609
956.60184 0.09455
955.31608 0.09276
954.03033 0.09087
952.74457 0.08903
951.45882 0.08727
950.17306 0.08553
948.88731 0.08372
947.60155 0.08185
946.31580 0.08000
945.03004 0.07824
943.74429 0.07653
942.45853 0.07482
941.17278 0.07311
939.88702 0.07147
938.60126 0.06994
937.31551 0.06859
936.02975 0.06739
934.74400 0.06629
933.45824 0.06518
932.17249 0.06402
930.88673 0.06282
929.60098 0.06166
928.31522 0.06060
927.02947 0.05964
925.74371 0.05874
924.45796 0.05788
923.17220 0.05705
921.88645 0.05624
920.60069 0.05545
919.31494 0.05465
918.02918 0.05387
916.74343 0.05316
915.45767 0.05251
914.17192 0.05188
912.88616 0.05121
911.60041 0.05056
910.31465 0.04998
909.02890 0.04955
907.74314 0.04926
906.45739 0.04902
905.17163 0.04870
903.88588 0.04826
902.60012 0.04773
901.31437 0.04720
900.02861 0.04671
898.74286 0.04629
897.45710 0.04596
896.17134 0.04574
894.88559 0.04555
893.59983 0.04531
892.31408 0.04500
891.02832 0.04467
889.74257 0.04443
888.45681 0.04437
887.17106 0.04454
885.88530 0.04508
884.59955 0.04614
883.31379 0.04774
882.02804 0.04970
880.74228 0.05165
879.45653 0.05328
878.17077 0.05453
876.88502 0.05557
875.59926 0.05665
874.31351 0.05784
873.02775 0.05895
871.74200 0.05967
870.45624 0.05980
869.17049 0.05936
867.88473 0.05851
866.59898 0.05739
865.31322 0.05612
864.02747 0.05481
862.74171 0.05350
861.45596 0.05218
860.17020 0.05084
858.88445 0.04955
857.59869 0.04844
856.31293 0.04759
855.02718 0.04693
853.74142 0.04631
852.45567 0.04566
851.16991 0.04499
849.88416 0.04439
848.59840 0.04391
847.31265 0.04352
846.02689 0.04316
844.74114 0.04279
843.45538 0.04240
842.16963 0.04197
840.88387 0.04147
839.59812 0.04088
838.31236 0.04024
837.02661 0.03961
835.74085 0.03902
834.45510 0.03847
833.16934 0.03794
831.88359 0.03744
830.59783 0.03704
829.31208 0.03679
828.02632 0.03671
826.74057 0.03677
825.45481 0.03693
824.16906 0.03711
822.88330 0.03727
821.59755 0.03737
820.31179 0.03750
819.02604 0.03775
817.74028 0.03816
816.45452 0.03859
815.16877 0.03885
813.88301 0.03887
812.59726 0.03876
811.31150 0.03869
810.02575 0.03875
808.73999 0.03896
807.45424 0.03922
806.16848 0.03942
804.88273 0.03950
803.59697 0.03939
802.31122 0.03899
801.02546 0.03825
799.73971 0.03728
798.45395 0.03641
797.16820 0.03597
795.88244 0.03597
794.59669 0.03618
793.31093 0.03641
792.02518 0.03661
790.73942 0.03681
789.45367 0.03695
788.16791 0.03694
786.88216 0.03671
785.59640 0.03637
784.31065 0.03604
783.02489 0.03583
781.73914 0.03575
780.45338 0.03574
779.16763 0.03581
777.88187 0.03593
776.59612 0.03605
775.31036 0.03610
774.02460 0.03608
772.73885 0.03600
771.45309 0.03591
770.16734 0.03582
768.88158 0.03575
767.59583 0.03568
766.31007 0.03555
765.02432 0.03538
763.73856 0.03526
762.45281 0.03527
761.16705 0.03536
759.88130 0.03539
758.59554 0.03529
757.30979 0.03515
756.02403 0.03508
754.73828 0.03510
753.45252 0.03514
752.16677 0.03507
750.88101 0.03488
749.59526 0.03461
748.30950 0.03434
747.02375 0.03413
745.73799 0.03396
744.45224 0.03382
743.16648 0.03379
741.88073 0.03405
740.59497 0.03469
739.30922 0.03554
738.02346 0.03630
736.73771 0.03678
735.45195 0.03694
734.16619 0.03687
732.88044 0.03671
731.59468 0.03663
730.30893 0.03676
729.02317 0.03702
727.73742 0.03728
726.45166 0.03743
725.16591 0.03748
723.88015 0.03705
722.59440 0.03736
721.30864 0.03751
720.02289 0.03745
718.73713 0.03743
717.45138 0.03755
716.16562 0.03782
714.87987 0.03811
713.59411 0.03829
712.30836 0.03828
711.02260 0.03805
709.73685 0.03768
708.45109 0.03724
707.16534 0.03686
705.87958 0.03656
704.59383 0.03632
703.30807 0.03609
702.02232 0.03582
700.73656 0.03548
699.45081 0.03510
698.16505 0.03479
696.87930 0.03460
695.59354 0.03455
694.30779 0.03456
693.02203 0.03459
691.73627 0.03464
690.45052 0.03472
689.16476 0.03483
687.87901 0.03494
686.59325 0.03500
685.30750 0.03501
684.02174 0.03499
682.73599 0.03489
681.45023 0.03476
680.16448 0.03460
678.87872 0.03448
677.59297 0.03441
676.30721 0.03438
675.02146 0.03437
673.73570 0.03437
672.44995 0.03434
671.16419 0.03427
669.87844 0.03418
668.59268 0.03414
667.30693 0.03422
666.02117 0.03429
664.73542 0.03426
663.44966 0.03409
662.16391 0.03388
660.87815 0.03370
659.59240 0.03356
658.30664 0.03343
657.02089 0.03331
655.73513 0.03325
654.44938 0.03322
653.16362 0.03321
651.87786 0.03317
650.59211 0.03311
649.30635 0.03307
648.02060 0.03310
646.73484 0.03316
645.44909 0.03317
644.16333 0.03313
642.87758 0.03309
641.59182 0.03312
640.30607 0.03323
639.02031 0.03336
637.73456 0.03344
636.44880 0.03338
635.16305 0.03299
633.87729 0.03192
632.59154 0.03012
631.30578 0.02970
630.02003 0.03448
628.73427 0.03746
627.44852 0.02706
626.16276 0.02992
624.87701 0.04216
623.59125 0.05526
622.30550 0.06566
621.01974 0.07104
619.73399 0.07051
618.44823 0.06570
617.16248 0.05957
615.87672 0.05477
614.59097 0.05314
613.30521 0.05588
612.01945 0.06323
610.73370 0.07387
609.44794 0.08514
608.16219 0.09474
606.87643 0.10186
605.59068 0.10677
604.30492 0.10984
603.01917 0.11111
601.73341 0.11043
600.44766 0.10780
599.16190 0.10366
597.87615 0.09878
596.59039 0.09397
595.30464 0.08970
594.01888 0.08607
592.73313 0.08299
591.44737 0.08033
590.16162 0.07809
588.87586 0.07640
587.59011 0.07545
586.30435 0.07531
585.01860 0.07586
583.73284 0.07688
582.44709 0.07818
581.16133 0.07967
579.87558 0.08139
578.58982 0.08331
577.30407 0.08539
576.01831 0.08750
574.73256 0.08958
573.44680 0.09168
572.16105 0.09399
570.87529 0.09682
569.58953 0.10034
568.30378 0.10440
567.01802 0.10845
565.73227 0.11189
564.44651 0.11438
563.16076 0.11589
561.87500 0.11645
560.58925 0.11602
559.30349 0.11454
558.01774 0.11207
556.73198 0.10892
555.44623 0.10548
554.16047 0.10197
552.87472 0.09841
551.58896 0.09478
550.30321 0.09116
549.01745 0.08774
547.73170 0.08467
546.44594 0.08196
545.16019 0.07950
543.87443 0.07710
542.58868 0.07465
541.30292 0.07221
540.01717 0.06995
538.73141 0.06801
537.44566 0.06634
536.15990 0.06483
534.87415 0.06335
533.58839 0.06186
532.30264 0.06039
531.01688 0.05899
529.73112 0.05775
528.44537 0.05666
527.15961 0.05566
525.87386 0.05466
524.58810 0.05363
523.30235 0.05263
522.01659 0.05167
520.73084 0.05075
519.44508 0.04984
518.15933 0.04894
516.87357 0.04806
515.58782 0.04721
514.30206 0.04640
513.01631 0.04566
511.73055 0.04502
510.44480 0.04446
509.15904 0.04390
507.87329 0.04330
506.58753 0.04265
505.30178 0.04200
504.01602 0.04137
502.73027 0.04076
501.44451 0.04017
500.15876 0.03961
498.87300 0.03908
497.58725 0.03859
496.30149 0.03811
495.01574 0.03766
493.72998 0.03729
492.44423 0.03700
491.15847 0.03676
489.87271 0.03652
488.58696 0.03628
487.30120 0.03604
486.01545 0.03579
484.72969 0.03552
483.44394 0.03525
482.15818 0.03503
480.87243 0.03485
479.58667 0.03466
478.30092 0.03441
477.01516 0.03418
475.72941 0.03409
474.44365 0.03417
473.15790 0.03432
471.87214 0.03443
470.58639 0.03444
469.30063 0.03437
468.01488 0.03419
466.72912 0.03387
465.44337 0.03341
464.15761 0.03288
462.87186 0.03235
461.58610 0.03186
460.30035 0.03142
459.01459 0.03102
457.72884 0.03060
456.44308 0.03017
455.15733 0.02974
453.87157 0.02935
452.58582 0.02902
451.30006 0.02874
450.01431 0.02847
448.72855 0.02818
447.44279 0.02789
446.15704 0.02761
444.87128 0.02734
443.58553 0.02710
442.29977 0.02684
441.01402 0.02658
439.72826 0.02633
438.44251 0.02612
437.15675 0.02592
435.87100 0.02570
434.58524 0.02545
433.29949 0.02520
432.01373 0.02498
430.72798 0.02480
429.44222 0.02465
428.15647 0.02451
426.87071 0.02435
425.58496 0.02417
424.29920 0.02401
423.01345 0.02393
421.72769 0.02397
420.44194 0.02403
419.15618 0.02396
417.87043 0.02365
416.58467 0.02319
415.29892 0.02275
414.01316 0.02246
412.72741 0.02233
411.44165 0.02229
410.15590 0.02226
408.87014 0.02219
407.58438 0.02207
406.29863 0.02192
405.01287 0.02175
403.72712 0.02162
402.44136 0.02156
401.15561 0.02162
399.86985 0.02179
