3998.69854 0.03375
3997.41278 0.03405
3996.12703 0.03580
3994.84127 0.03842
3993.55552 0.04008
3992.26976 0.03938
3990.98401 0.03692
3989.69825 0.03488
3988.41250 0.03500
3987.12674 0.03710
3985.84099 0.03970
3984.55523 0.04143
3983.26948 0.04197
3981.98372 0.04205
3980.69797 0.04262
3979.41221 0.04374
3978.12646 0.04422
3976.84070 0.04292
3975.55495 0.04009
3974.26919 0.03689
3972.98344 0.03396
3971.69768 0.03136
3970.41193 0.02980
3969.12617 0.03030
3967.84042 0.03227
3966.55466 0.03322
3965.26891 0.03153
3963.98315 0.02875
3962.69740 0.02821
3961.41164 0.03133
3960.12589 0.03630
3958.84013 0.04011
3957.55437 0.04141
3956.26862 0.04082
3954.98286 0.03920
3953.69711 0.03660
3952.41135 0.03308
3951.12560 0.02973
3949.83984 0.02810
3948.55409 0.02869
3947.26833 0.03045
3945.98258 0.03174
3944.69682 0.03197
3943.41107 0.03228
3942.12531 0.03431
3940.83956 0.03811
3939.55380 0.04159
3938.26805 0.04242
3936.98229 0.04014
3935.69654 0.03654
3934.41078 0.03447
3933.12503 0.03607
3931.83927 0.04079
3930.55352 0.04502
3929.26776 0.04479
3927.98201 0.03917
3926.69625 0.03079
3925.41050 0.02359
3924.12474 0.02053
3922.83899 0.02264
3921.55323 0.02866
3920.26748 0.03555
3918.98172 0.04024
3917.69596 0.04188
3916.41021 0.04223
3915.12445 0.04373
3913.83870 0.04694
3912.55294 0.05059
3911.26719 0.05354
3909.98143 0.05566
3908.69568 0.05668
3907.40992 0.05566
3906.12417 0.05250
3904.83841 0.04891
3903.55266 0.04694
3902.26690 0.04733
3900.98115 0.04978
3899.69539 0.05365
3898.40964 0.05770
3897.12388 0.06033
3895.83813 0.06075
3894.55237 0.05943
3893.26662 0.05697
3891.98086 0.05335
3890.69511 0.04866
3889.40935 0.04423
3888.12360 0.04225
3886.83784 0.04385
3885.55209 0.04773
3884.26633 0.05102
3882.98058 0.05185
3881.69482 0.05058
3880.40907 0.04869
3879.12331 0.04705
3877.83755 0.04532
3876.55180 0.04283
3875.26604 0.03987
3873.98029 0.03816
3872.69453 0.03928
3871.40878 0.04270
3870.12302 0.04619
3868.83727 0.04863
3867.55151 0.05133
3866.26576 0.05562
3864.98000 0.05977
3863.69425 0.06004
3862.40849 0.05495
3861.12274 0.04748
3859.83698 0.04228
3858.55123 0.04138
3857.26547 0.04291
3855.97972 0.04334
3854.69396 0.04050
3853.40821 0.03565
3852.12245 0.03295
3850.83670 0.03600
3849.55094 0.04433
3848.26519 0.05360
3846.97943 0.05916
3845.69368 0.05909
3844.40792 0.05480
3843.12217 0.04971
3841.83641 0.04671
3840.55066 0.04605
3839.26490 0.04571
3837.97915 0.04427
3836.69339 0.04233
3835.40763 0.04058
3834.12188 0.03828
3832.83612 0.03455
3831.55037 0.03051
3830.26461 0.02887
3828.97886 0.03137
3827.69310 0.03680
3826.40735 0.04193
3825.12159 0.04444
3823.83584 0.04444
3822.55008 0.04296
3821.26433 0.04047
3819.97857 0.03765
3818.69282 0.03642
3817.40706 0.03846
3816.12131 0.04324
3814.83555 0.04832
3813.54980 0.05118
3812.26404 0.05078
3810.97829 0.04845
3809.69253 0.04713
3808.40678 0.04853
3807.12102 0.05104
3805.83527 0.05200
3804.54951 0.05134
3803.26376 0.05138
3801.97800 0.05361
3800.69225 0.05768
3799.40649 0.06264
3798.12074 0.06750
3796.83498 0.07053
3795.54922 0.07024
3794.26347 0.06680
3792.97771 0.06131
3791.69196 0.05455
3790.40620 0.04789
3789.12045 0.04443
3787.83469 0.04678
3786.54894 0.05357
3785.26318 0.05991
3783.97743 0.06145
3782.69167 0.05775
3781.40592 0.05192
3780.12016 0.04768
3778.83441 0.04661
3777.54865 0.04771
3776.26290 0.04971
3774.97714 0.05324
3773.69139 0.05966
3772.40563 0.06776
3771.11988 0.07331
3769.83412 0.07306
3768.54837 0.06837
3767.26261 0.06400
3765.97686 0.06357
3764.69110 0.06656
3763.40535 0.06941
3762.11959 0.06907
3760.83384 0.06553
3759.54808 0.06166
3758.26233 0.06063
3756.97657 0.06317
3755.69081 0.06690
3754.40506 0.06874
3753.11930 0.06825
3751.83355 0.06822
3750.54779 0.07137
3749.26204 0.07681
3747.97628 0.08086
3746.69053 0.08121
3745.40477 0.07931
3744.11902 0.07795
3742.83326 0.07752
3741.54751 0.07601
3740.26175 0.07264
3738.97600 0.06941
3737.69024 0.06852
3736.40449 0.06952
3735.11873 0.07031
3733.83298 0.07001
3732.54722 0.06958
3731.26147 0.07009
3729.97571 0.07136
3728.68996 0.07237
3727.40420 0.07285
3726.11845 0.07410
3724.83269 0.07775
3723.54694 0.08347
3722.26118 0.08865
3720.97543 0.09081
3719.68967 0.08948
3718.40392 0.08559
3717.11816 0.07962
3715.83241 0.07154
3714.54665 0.06219
3713.26089 0.05388
3711.97514 0.04916
3710.68938 0.04911
3709.40363 0.05300
3708.11787 0.05918
3706.83212 0.06537
3705.54636 0.06900
3704.26061 0.06929
3702.97485 0.06870
3701.68910 0.07017
3700.40334 0.07379
3699.11759 0.07819
3697.83183 0.08351
3696.54608 0.09001
3695.26032 0.09538
3693.97457 0.09687
3692.68881 0.09512
3691.40306 0.09313
3690.11730 0.09253
3688.83155 0.09238
3687.54579 0.09051
3686.26004 0.08489
3684.97428 0.07587
3683.68853 0.06747
3682.40277 0.06467
3681.11702 0.06870
3679.83126 0.07657
3678.54551 0.08483
3677.25975 0.09156
3675.97400 0.09552
3674.68824 0.09573
3673.40248 0.09252
3672.11673 0.08731
3670.83097 0.08177
3669.54522 0.07784
3668.25946 0.07763
3666.97371 0.08152
3665.68795 0.08627
3664.40220 0.08721
3663.11644 0.08288
3661.83069 0.07661
3660.54493 0.07283
3659.25918 0.07304
3657.97342 0.07643
3656.68767 0.08253
3655.40191 0.09093
3654.11616 0.09926
3652.83040 0.10400
3651.54465 0.10336
3650.25889 0.09882
3648.97314 0.09412
3647.68738 0.09279
3646.40163 0.09532
3645.11587 0.09878
3643.83012 0.10076
3642.54436 0.10318
3641.25861 0.11002
3639.97285 0.12116
3638.68710 0.13086
3637.40134 0.13340
3636.11559 0.12851
3634.82983 0.12084
3633.54408 0.11523
3632.25832 0.11361
3630.97256 0.11478
3629.68681 0.11652
3628.40105 0.11845
3627.11530 0.12282
3625.82954 0.13106
3624.54379 0.13990
3623.25803 0.14374
3621.97228 0.14260
3620.68652 0.14391
3619.40077 0.15311
3618.11501 0.16542
3616.82926 0.17138
3615.54350 0.16877
3614.25775 0.16419
3612.97199 0.16385
3611.68624 0.16772
3610.40048 0.17276
3609.11473 0.17718
3607.82897 0.18017
3606.54322 0.18090
3605.25746 0.17998
3603.97171 0.18037
3602.68595 0.18484
3601.40020 0.19279
3600.11444 0.20080
3598.82869 0.20672
3597.54293 0.21180
3596.25718 0.21833
3594.97142 0.22601
3593.68567 0.23220
3592.39991 0.23526
3591.11415 0.23643
3589.82840 0.23767
3588.54264 0.23943
3587.25689 0.24102
3585.97113 0.24281
3584.68538 0.24667
3583.39962 0.25382
3582.11387 0.26356
3580.82811 0.27421
3579.54236 0.28413
3578.25660 0.29108
3576.97085 0.29197
3575.68509 0.28597
3574.39934 0.27725
3573.11358 0.27281
3571.82783 0.27662
3570.54207 0.28656
3569.25632 0.29668
3567.97056 0.30203
3566.68481 0.30150
3565.39905 0.29732
3564.11330 0.29236
3562.82754 0.28860
3561.54179 0.28791
3560.25603 0.29275
3558.97028 0.30409
3557.68452 0.31877
3556.39877 0.33070
3555.11301 0.33617
3553.82726 0.33737
3552.54150 0.34014
3551.25574 0.34830
3549.96999 0.36024
3548.68423 0.37077
3547.39848 0.37597
3546.11272 0.37663
3544.82697 0.37719
3543.54121 0.38148
3542.25546 0.38993
3540.96970 0.40073
3539.68395 0.41255
3538.39819 0.42521
3537.11244 0.43778
3535.82668 0.44769
3534.54093 0.45330
3533.25517 0.45654
3531.96942 0.46054
3530.68366 0.46413
3529.39791 0.46194
3528.11215 0.45228
3526.82640 0.44229
3525.54064 0.44178
3524.25489 0.45327
3522.96913 0.47096
3521.68338 0.48826
3520.39762 0.50307
3519.11187 0.51653
3517.82611 0.52959
3516.54036 0.54086
3515.25460 0.54645
3513.96885 0.54336
3512.68309 0.53440
3511.39734 0.52764
3510.11158 0.52908
3508.82582 0.53773
3507.54007 0.54892
3506.25431 0.56015
3504.96856 0.57087
3503.68280 0.57922
3502.39705 0.58327
3501.11129 0.58529
3499.82554 0.59041
3498.53978 0.59994
3497.25403 0.60929
3495.96827 0.61443
3494.68252 0.61729
3493.39676 0.62253
3492.11101 0.63102
3490.82525 0.63959
3489.53950 0.64596
3488.25374 0.65106
3486.96799 0.65728
3485.68223 0.66629
3484.39648 0.67750
3483.11072 0.68735
3481.82497 0.69134
3480.53921 0.68796
3479.25346 0.68012
3477.96770 0.67261
3476.68195 0.67007
3475.39619 0.67641
3474.11044 0.69327
3472.82468 0.71850
3471.53893 0.74684
3470.25317 0.77193
3468.96741 0.78769
3467.68166 0.79115
3466.39590 0.78576
3465.11015 0.77982
3463.82439 0.77962
3462.53864 0.78451
3461.25288 0.78943
3459.96713 0.79102
3458.68137 0.79055
3457.39562 0.79184
3456.10986 0.79786
3454.82411 0.80927
3453.53835 0.82430
3452.25260 0.83887
3450.96684 0.84738
3449.68109 0.84723
3448.39533 0.84344
3447.10958 0.84541
3445.82382 0.85714
3444.53807 0.87320
3443.25231 0.88658
3441.96656 0.89698
3440.68080 0.90826
3439.39505 0.92030
3438.10929 0.92839
3436.82354 0.92990
3435.53778 0.92749
3434.25203 0.92564
3432.96627 0.92759
3431.68052 0.93551
3430.39476 0.94993
3429.10900 0.96754
3427.82325 0.98196
3426.53749 0.98867
3425.25174 0.98828
3423.96598 0.98536
3422.68023 0.98494
3421.39447 0.98868
3420.10872 0.99336
3418.82296 0.99432
3417.53721 0.99115
3416.25145 0.98800
3414.96570 0.98760
3413.67994 0.98786
3412.39419 0.98590
3411.10843 0.98301
3409.82268 0.98308
3408.53692 0.98720
3407.25117 0.99215
3405.96541 0.99431
3404.67966 0.99374
3403.39390 0.99291
3402.10815 0.99175
3400.82239 0.98615
3399.53664 0.97363
3398.25088 0.95824
3396.96513 0.94697
3395.67937 0.94228
3394.39362 0.94062
3393.10786 0.93800
3391.82211 0.93361
3390.53635 0.92773
3389.25060 0.91979
3387.96484 0.91001
3386.67908 0.90118
3385.39333 0.89696
3384.10757 0.89780
3382.82182 0.89997
3381.53606 0.89929
3380.25031 0.89507
3378.96455 0.89017
3377.67880 0.88698
3376.39304 0.88435
3375.10729 0.87915
3373.82153 0.87005
3372.53578 0.85953
3371.25002 0.85154
3369.96427 0.84708
3368.67851 0.84269
3367.39276 0.83426
3366.10700 0.82165
3364.82125 0.80819
3363.53549 0.79682
3362.24974 0.78920
3360.96398 0.78636
3359.67823 0.78739
3358.39247 0.78864
3357.10672 0.78763
3355.82096 0.78621
3354.53521 0.78681
3353.24945 0.78702
3351.96370 0.78217
3350.67794 0.77225
3349.39219 0.76270
3348.10643 0.75795
3346.82067 0.75722
3345.53492 0.75697
3344.24916 0.75503
3342.96341 0.75100
3341.67765 0.74513
3340.39190 0.73833
3339.10614 0.73197
3337.82039 0.72546
3336.53463 0.71553
3335.24888 0.70071
3333.96312 0.68552
3332.67737 0.67747
3331.39161 0.67921
3330.10586 0.68583
3328.82010 0.68970
3327.53435 0.68629
3326.24859 0.67598
3324.96284 0.66317
3323.67708 0.65448
3322.39133 0.65453
3321.10557 0.66123
3319.81982 0.66659
3318.53406 0.66413
3317.24831 0.65493
3315.96255 0.64531
3314.67680 0.63977
3313.39104 0.63807
3312.10529 0.63782
3310.81953 0.63769
3309.53378 0.63749
3308.24802 0.63652
3306.96227 0.63317
3305.67651 0.62613
3304.39075 0.61604
3303.10500 0.60576
3301.81924 0.59807
3300.53349 0.59328
3299.24773 0.58929
3297.96198 0.58417
3296.67622 0.57771
3295.39047 0.57070
3294.10471 0.56380
3292.81896 0.55760
3291.53320 0.55281
3290.24745 0.54979
3288.96169 0.54807
3287.67594 0.54665
3286.39018 0.54492
3285.10443 0.54309
3283.81867 0.54144
3282.53292 0.53909
3281.24716 0.53442
3279.96141 0.52789
3278.67565 0.52323
3277.38990 0.52402
3276.10414 0.52892
3274.81839 0.53216
3273.53263 0.52969
3272.24688 0.52330
3270.96112 0.51735
3269.67537 0.51322
3268.38961 0.50894
3267.10386 0.50322
3265.81810 0.49739
3264.53234 0.49295
3263.24659 0.48942
3261.96083 0.48561
3260.67508 0.48192
3259.38932 0.47975
3258.10357 0.47921
3256.81781 0.47838
3255.53206 0.47524
3254.24630 0.46969
3252.96055 0.46324
3251.67479 0.45719
3250.38904 0.45198
3249.10328 0.44791
3247.81753 0.44555
3246.53177 0.44479
3245.24602 0.44420
3243.96026 0.44190
3242.67451 0.43712
3241.38875 0.43062
3240.10300 0.42418
3238.81724 0.41958
3237.53149 0.41759
3236.24573 0.41766
3234.95998 0.41827
3233.67422 0.41802
3232.38847 0.41647
3231.10271 0.41426
3229.81696 0.41219
3228.53120 0.41061
3227.24545 0.40952
3225.95969 0.40899
3224.67393 0.40847
3223.38818 0.40628
3222.10242 0.40095
3220.81667 0.39310
3219.53091 0.38506
3218.24516 0.37869
3216.95940 0.37424
3215.67365 0.37118
3214.38789 0.36909
3213.10214 0.36767
3211.81638 0.36655
3210.53063 0.36528
3209.24487 0.36330
3207.95912 0.36046
3206.67336 0.35756
3205.38761 0.35567
3204.10185 0.35466
3202.81610 0.35326
3201.53034 0.35092
3200.24459 0.34860
3198.95883 0.34702
3197.67308 0.34535
3196.38732 0.34242
3195.10157 0.33878
3193.81581 0.33626
3192.53006 0.33554
3191.24430 0.33518
3189.95855 0.33323
3188.67279 0.32930
3187.38704 0.32483
3186.10128 0.32158
3184.81553 0.32014
3183.52977 0.31980
3182.24401 0.31925
3180.95826 0.31745
3179.67250 0.31420
3178.38675 0.31024
3177.10099 0.30674
3175.81524 0.30460
3174.52948 0.30386
3173.24373 0.30356
3171.95797 0.30227
3170.67222 0.29921
3169.38646 0.29478
3168.10071 0.29007
3166.81495 0.28588
3165.52920 0.28241
3164.24344 0.27960
3162.95769 0.27746
3161.67193 0.27599
3160.38618 0.27519
3159.10042 0.27504
3157.81467 0.27523
3156.52891 0.27515
3155.24316 0.27414
3153.95740 0.27215
3152.67165 0.27001
3151.38589 0.26885
3150.10014 0.26897
3148.81438 0.26963
3147.52863 0.26990
3146.24287 0.26926
3144.95712 0.26711
3143.67136 0.26289
3142.38560 0.25728
3141.09985 0.25259
3139.81409 0.25068
3138.52834 0.25104
3137.24258 0.25161
3135.95683 0.25076
3134.67107 0.24817
3133.38532 0.24447
3132.09956 0.24101
3130.81381 0.23940
3129.52805 0.24005
3128.24230 0.24153
3126.95654 0.24195
3125.67079 0.24081
3124.38503 0.23882
3123.09928 0.23639
3121.81352 0.23325
3120.52777 0.22944
3119.24201 0.22577
3117.95626 0.22317
3116.67050 0.22213
3115.38475 0.22272
3114.09899 0.22447
3112.81324 0.22629
3111.52748 0.22721
3110.24173 0.22684
3108.95597 0.22513
3107.67022 0.22218
3106.38446 0.21869
3105.09871 0.21595
3103.81295 0.21474
3102.52719 0.21473
3101.24144 0.21518
3099.95568 0.21562
3098.66993 0.21559
3097.38417 0.21449
3096.09842 0.21229
3094.81266 0.20992
3093.52691 0.20828
3092.24115 0.20720
3090.95540 0.20575
3089.66964 0.20374
3088.38389 0.20216
3087.09813 0.20184
3085.81238 0.20219
3084.52662 0.20192
3083.24087 0.20080
3081.95511 0.19970
3080.66936 0.19910
3079.38360 0.19855
3078.09785 0.19746
3076.81209 0.19588
3075.52634 0.19446
3074.24058 0.19416
3072.95483 0.19561
3071.66907 0.19829
3070.38332 0.20055
3069.09756 0.20082
3067.81181 0.19885
3066.52605 0.19544
3065.24030 0.19167
3063.95454 0.18833
3062.66879 0.18576
3061.38303 0.18384
3060.09727 0.18226
3058.81152 0.18098
3057.52576 0.18021
3056.24001 0.18008
3054.95425 0.18024
3053.66850 0.18001
3052.38274 0.17895
3051.09699 0.17754
3049.81123 0.17669
3048.52548 0.17660
3047.23972 0.17639
3045.95397 0.17503
3044.66821 0.17222
3043.38246 0.16859
3042.09670 0.16533
3040.81095 0.16369
3039.52519 0.16417
3038.23944 0.16601
3036.95368 0.16775
3035.66793 0.16819
3034.38217 0.16690
3033.09642 0.16417
3031.81066 0.16097
3030.52491 0.15864
3029.23915 0.15795
3027.95340 0.15841
3026.66764 0.15882
3025.38189 0.15860
3024.09613 0.15819
3022.81038 0.15825
3021.52462 0.15864
3020.23886 0.15847
3018.95311 0.15707
3017.66735 0.15473
3016.38160 0.15220
3015.09584 0.14988
3013.81009 0.14776
3012.52433 0.14609
3011.23858 0.14548
3009.95282 0.14604
3008.66707 0.14704
3007.38131 0.14770
3006.09556 0.14807
3004.80980 0.14846
3003.52405 0.14865
3002.23829 0.14801
3000.95254 0.14635
2999.66678 0.14415
2998.38103 0.14195
2997.09527 0.13993
2995.80952 0.13829
2994.52376 0.13750
2993.23801 0.13776
2991.95225 0.13853
2990.66650 0.13888
2989.38074 0.13847
2988.09499 0.13783
2986.80923 0.13763
2985.52348 0.13794
2984.23772 0.13838
2982.95197 0.13865
2981.66621 0.13877
2980.38046 0.13892
2979.09470 0.13928
2977.80894 0.13977
2976.52319 0.14005
2975.23743 0.13989
2973.95168 0.13948
2972.66592 0.13919
2971.38017 0.13897
2970.09441 0.13860
2968.80866 0.13838
2967.52290 0.13915
2966.23715 0.14122
2964.95139 0.14396
2963.66564 0.14654
2962.37988 0.14879
2961.09413 0.15085
2959.80837 0.15252
2958.52262 0.15334
2957.23686 0.15312
2955.95111 0.15214
2954.66535 0.15082
2953.37960 0.14950
2952.09384 0.14851
2950.80809 0.14818
2949.52233 0.14844
2948.23658 0.14875
2946.95082 0.14864
2945.66507 0.14821
2944.37931 0.14793
2943.09356 0.14798
2941.80780 0.14816
2940.52205 0.14826
2939.23629 0.14816
2937.95053 0.14772
2936.66478 0.14696
2935.37902 0.14626
2934.09327 0.14611
2932.80751 0.14663
2931.52176 0.14737
2930.23600 0.14781
2928.95025 0.14783
2927.66449 0.14786
2926.37874 0.14842
2925.09298 0.14952
2923.80723 0.15051
2922.52147 0.15062
2921.23572 0.14951
2919.94996 0.14735
2918.66421 0.14461
2917.37845 0.14183
2916.09270 0.13937
2914.80694 0.13718
2913.52119 0.13510
2912.23543 0.13322
2910.94968 0.13191
2909.66392 0.13138
2908.37817 0.13142
2907.09241 0.13170
2905.80666 0.13188
2904.52090 0.13165
2903.23515 0.13066
2901.94939 0.12883
2900.66364 0.12654
2899.37788 0.12443
2898.09212 0.12292
2896.80637 0.12201
2895.52061 0.12145
2894.23486 0.12105
2892.94910 0.12057
2891.66335 0.11970
2890.37759 0.11819
2889.09184 0.11629
2887.80608 0.11468
2886.52033 0.11391
2885.23457 0.11394
2883.94882 0.11426
2882.66306 0.11444
2881.37731 0.11438
2880.09155 0.11401
2878.80580 0.11317
2877.52004 0.11195
2876.23429 0.11077
2874.94853 0.10988
2873.66278 0.10916
2872.37702 0.10849
2871.09127 0.10804
2869.80551 0.10793
2868.51976 0.10801
2867.23400 0.10816
2865.94825 0.10832
2864.66249 0.10822
2863.37674 0.10746
2862.09098 0.10614
2860.80523 0.10498
2859.51947 0.10449
2858.23372 0.10435
2856.94796 0.10392
2855.66220 0.10313
2854.37645 0.10248
2853.09069 0.10234
2851.80494 0.10240
2850.51918 0.10211
2849.23343 0.10127
2847.94767 0.09996
2846.66192 0.09828
2845.37616 0.09630
2844.09041 0.09431
2842.80465 0.09272
2841.51890 0.09176
2840.23314 0.09131
2838.94739 0.09104
2837.66163 0.09063
2836.37588 0.08988
2835.09012 0.08876
2833.80437 0.08743
2832.51861 0.08622
2831.23286 0.08545
2829.94710 0.08521
2828.66135 0.08520
2827.37559 0.08487
2826.08984 0.08377
2824.80408 0.08197
2823.51833 0.08008
2822.23257 0.07881
2820.94682 0.07844
2819.66106 0.07862
2818.37531 0.07878
2817.08955 0.07857
2815.80379 0.07799
2814.51804 0.07716
2813.23228 0.07604
2811.94653 0.07463
2810.66077 0.07323
2809.37502 0.07235
2808.08926 0.07217
2806.80351 0.07231
2805.51775 0.07225
2804.23200 0.07200
2802.94624 0.07196
2801.66049 0.07241
2800.37473 0.07316
2799.08898 0.07374
2797.80322 0.07369
2796.51747 0.07279
2795.23171 0.07124
2793.94596 0.06956
2792.66020 0.06822
2791.37445 0.06734
2790.08869 0.06682
2788.80294 0.06651
2787.51718 0.06623
2786.23143 0.06586
2784.94567 0.06544
2783.65992 0.06513
2782.37416 0.06506
2781.08841 0.06517
2779.80265 0.06519
2778.51690 0.06498
2777.23114 0.06463
2775.94538 0.06436
2774.65963 0.06411
2773.37387 0.06361
2772.08812 0.06280
2770.80236 0.06194
2769.51661 0.06137
2768.23085 0.06129
2766.94510 0.06164
2765.65934 0.06214
2764.37359 0.06237
2763.08783 0.06206
2761.80208 0.06134
2760.51632 0.06062
2759.23057 0.06023
2757.94481 0.06017
2756.65906 0.06009
2755.37330 0.05970
2754.08755 0.05912
2752.80179 0.05890
2751.51604 0.05939
2750.23028 0.06034
2748.94453 0.06106
2747.65877 0.06094
2746.37302 0.05991
2745.08726 0.05840
2743.80151 0.05707
2742.51575 0.05644
2741.23000 0.05654
2739.94424 0.05701
2738.65849 0.05739
2737.37273 0.05743
2736.08698 0.05711
2734.80122 0.05646
2733.51546 0.05554
2732.22971 0.05463
2730.94395 0.05420
2729.65820 0.05450
2728.37244 0.05527
2727.08669 0.05575
2725.80093 0.05529
2724.51518 0.05399
2723.22942 0.05269
2721.94367 0.05228
2720.65791 0.05291
2719.37216 0.05381
2718.08640 0.05403
2716.80065 0.05330
2715.51489 0.05214
2714.22914 0.05126
2712.94338 0.05102
2711.65763 0.05127
2710.37187 0.05161
2709.08612 0.05162
2707.80036 0.05121
2706.51461 0.05072
2705.22885 0.05059
2703.94310 0.05095
2702.65734 0.05144
2701.37159 0.05160
2700.08583 0.05129
2698.80008 0.05076
2697.51432 0.05039
2696.22857 0.05022
2694.94281 0.04989
2693.65705 0.04903
2692.37130 0.04783
2691.08554 0.04690
2689.79979 0.04668
2688.51403 0.04701
2687.22828 0.04742
2685.94252 0.04756
2684.65677 0.04746
2683.37101 0.04736
2682.08526 0.04737
2680.79950 0.04733
2679.51375 0.04693
2678.22799 0.04612
2676.94224 0.04526
2675.65648 0.04478
2674.37073 0.04488
2673.08497 0.04541
2671.79922 0.04603
2670.51346 0.04632
2669.22771 0.04604
2667.94195 0.04531
2666.65620 0.04455
2665.37044 0.04415
2664.08469 0.04418
2662.79893 0.04445
2661.51318 0.04467
2660.22742 0.04461
2658.94167 0.04430
2657.65591 0.04398
2656.37016 0.04393
2655.08440 0.04423
2653.79865 0.04471
2652.51289 0.04511
2651.22713 0.04526
2649.94138 0.04498
2648.65562 0.04426
2647.36987 0.04337
2646.08411 0.04273
2644.79836 0.04251
2643.51260 0.04246
2642.22685 0.04238
2640.94109 0.04236
2639.65534 0.04257
2638.36958 0.04294
2637.08383 0.04324
2635.79807 0.04338
2634.51232 0.04343
2633.22656 0.04333
2631.94081 0.04291
2630.65505 0.04202
2629.36930 0.04086
2628.08354 0.03994
2626.79779 0.03962
2625.51203 0.03979
2624.22628 0.04001
2622.94052 0.03986
2621.65477 0.03933
2620.36901 0.03868
2619.08326 0.03809
2617.79750 0.03749
2616.51175 0.03678
2615.22599 0.03612
2613.94024 0.03580
2612.65448 0.03581
2611.36872 0.03592
2610.08297 0.03606
2608.79721 0.03638
2607.51146 0.03695
2606.22570 0.03742
2604.93995 0.03734
2603.65419 0.03654
2602.36844 0.03530
2601.08268 0.03417
2599.79693 0.03364
2598.51117 0.03400
2597.22542 0.03515
2595.93966 0.03658
2594.65391 0.03749
2593.36815 0.03738
2592.08240 0.03654
2590.79664 0.03573
2589.51089 0.03534
2588.22513 0.03532
2586.93938 0.03552
2585.65362 0.03579
2584.36787 0.03570
2583.08211 0.03487
2581.79636 0.03373
2580.51060 0.03321
2579.22485 0.03370
2577.93909 0.03467
2576.65334 0.03532
2575.36758 0.03533
2574.08183 0.03485
2572.79607 0.03417
2571.51031 0.03344
2570.22456 0.03271
2568.93880 0.03197
2567.65305 0.03137
2566.36729 0.03121
2565.08154 0.03162
2563.79578 0.03236
2562.51003 0.03291
2561.22427 0.03303
2559.93852 0.03297
2558.65276 0.03312
2557.36701 0.03338
2556.08125 0.03338
2554.79550 0.03291
2553.50974 0.03218
2552.22399 0.03135
2550.93823 0.03044
2549.65248 0.02955
2548.36672 0.02896
2547.08097 0.02883
2545.79521 0.02895
2544.50946 0.02895
2543.22370 0.02870
2541.93795 0.02842
2540.65219 0.02852
2539.36644 0.02920
2538.08068 0.03013
2536.79493 0.03070
2535.50917 0.03063
2534.22342 0.03023
2532.93766 0.03000
2531.65191 0.03007
2530.36615 0.03025
2529.08039 0.03029
2527.79464 0.03002
2526.50888 0.02947
2525.22313 0.02900
2523.93737 0.02887
2522.65162 0.02892
2521.36586 0.02874
2520.08011 0.02832
2518.79435 0.02805
2517.50860 0.02810
2516.22284 0.02823
2514.93709 0.02813
2513.65133 0.02775
2512.36558 0.02741
2511.07982 0.02746
2509.79407 0.02793
2508.50831 0.02832
2507.22256 0.02805
2505.93680 0.02716
2504.65105 0.02637
2503.36529 0.02630
2502.07954 0.02691
2500.79378 0.02774
2499.50803 0.02849
2498.22227 0.02917
2496.93652 0.02986
2495.65076 0.03040
2494.36501 0.03055
2493.07925 0.03018
2491.79350 0.02941
2490.50774 0.02846
2489.22198 0.02755
2487.93623 0.02687
2486.65047 0.02656
2485.36472 0.02656
2484.07896 0.02659
2482.79321 0.02652
2481.50745 0.02648
2480.22170 0.02668
2478.93594 0.02689
2477.65019 0.02662
2476.36443 0.02566
2475.07868 0.02451
2473.79292 0.02399
2472.50717 0.02444
2471.22141 0.02526
2469.93566 0.02555
2468.64990 0.02511
2467.36415 0.02461
2466.07839 0.02474
2464.79264 0.02544
2463.50688 0.02615
2462.22113 0.02656
2460.93537 0.02673
2459.64962 0.02674
2458.36386 0.02665
2457.07811 0.02671
2455.79235 0.02704
2454.50660 0.02722
2453.22084 0.02674
2451.93509 0.02591
2450.64933 0.02567
2449.36357 0.02632
2448.07782 0.02704
2446.79206 0.02693
2445.50631 0.02609
2444.22055 0.02538
2442.93480 0.02534
2441.64904 0.02567
2440.36329 0.02577
2439.07753 0.02531
2437.79178 0.02444
2436.50602 0.02366
2435.22027 0.02337
2433.93451 0.02357
2432.64876 0.02383
2431.36300 0.02369
2430.07725 0.02299
2428.79149 0.02194
2427.50574 0.02093
2426.21998 0.02034
2424.93423 0.02043
2423.64847 0.02111
2422.36272 0.02201
2421.07696 0.02269
2419.79121 0.02295
2418.50545 0.02286
2417.21970 0.02266
2415.93394 0.02259
2414.64819 0.02276
2413.36243 0.02304
2412.07668 0.02318
2410.79092 0.02299
2409.50517 0.02238
2408.21941 0.02131
2406.93365 0.01989
2405.64790 0.01865
2404.36214 0.01832
2403.07639 0.01917
2401.79063 0.02067
2400.50488 0.02183
2399.21912 0.02208
2397.93337 0.02153
2396.64761 0.02076
2395.36186 0.02032
2394.07610 0.02046
2392.79035 0.02108
2391.50459 0.02184
2390.21884 0.02234
2388.93308 0.02238
2387.64733 0.02201
2386.36157 0.02147
2385.07582 0.02097
2383.79006 0.02063
2382.50431 0.02043
2381.21855 0.02027
2379.93280 0.02015
2378.64704 0.02019
2377.36129 0.02042
2376.07553 0.02072
2374.78978 0.02098
2373.50402 0.02117
2372.21827 0.02130
2370.93251 0.02133
2369.64676 0.02122
2368.36100 0.02102
2367.07524 0.02083
2365.78949 0.02068
2364.50373 0.02057
2363.21798 0.02051
2361.93222 0.02050
2360.64647 0.02062
2359.36071 0.02092
2358.07496 0.02134
2356.78920 0.02157
2355.50345 0.02140
2354.21769 0.02092
2352.93194 0.02054
2351.64618 0.02060
2350.36043 0.02100
2349.07467 0.02139
2347.78892 0.02152
2346.50316 0.02139
2345.21741 0.02109
2343.93165 0.02070
2342.64590 0.02030
2341.36014 0.02003
2340.07439 0.01999
2338.78863 0.02015
2337.50288 0.02047
2336.21712 0.02091
2334.93137 0.02139
2333.64561 0.02161
2332.35986 0.02138
2331.07410 0.02081
2329.78835 0.02036
2328.50259 0.02050
2327.21684 0.02132
2325.93108 0.02241
2324.64532 0.02309
2323.35957 0.02288
2322.07381 0.02187
2320.78806 0.02070
2319.50230 0.01999
2318.21655 0.01988
2316.93079 0.02021
2315.64504 0.02086
2314.35928 0.02182
2313.07353 0.02281
2311.78777 0.02334
2310.50202 0.02315
2309.21626 0.02249
2307.93051 0.02184
2306.64475 0.02133
2305.35900 0.02080
2304.07324 0.02017
2302.78749 0.01971
2301.50173 0.01969
2300.21598 0.01987
2298.93022 0.01968
2297.64447 0.01891
2296.35871 0.01808
2295.07296 0.01787
2293.78720 0.01838
2292.50145 0.01921
2291.21569 0.01996
2289.92994 0.02052
2288.64418 0.02093
2287.35843 0.02121
2286.07267 0.02133
2284.78691 0.02116
2283.50116 0.02056
2282.21540 0.01968
2280.92965 0.01889
2279.64389 0.01852
2278.35814 0.01849
2277.07238 0.01844
2275.78663 0.01802
2274.50087 0.01722
2273.21512 0.01643
2271.92936 0.01606
2270.64361 0.01604
2269.35785 0.01595
2268.07210 0.01568
2266.78634 0.01556
2265.50059 0.01576
2264.21483 0.01590
2262.92908 0.01564
2261.64332 0.01533
2260.35757 0.01555
2259.07181 0.01639
2257.78606 0.01725
2256.50030 0.01761
2255.21455 0.01748
2253.92879 0.01722
2252.64304 0.01711
2251.35728 0.01726
2250.07153 0.01778
2248.78577 0.01852
2247.50002 0.01885
2246.21426 0.01806
2244.92850 0.01622
2243.64275 0.01446
2242.35699 0.01383
2241.07124 0.01418
2239.78548 0.01453
2238.49973 0.01446
2237.21397 0.01455
2235.92822 0.01544
2234.64246 0.01698
2233.35671 0.01829
2232.07095 0.01848
2230.78520 0.01719
2229.49944 0.01495
2228.21369 0.01309
2226.92793 0.01280
2225.64218 0.01401
2224.35642 0.01546
2223.07067 0.01598
2221.78491 0.01551
2220.49916 0.01453
2219.21340 0.01314
2217.92765 0.01115
2216.64189 0.00905
2215.35614 0.00788
2214.07038 0.00803
2212.78463 0.00883
2211.49887 0.00971
2210.21312 0.01101
2208.92736 0.01309
2207.64161 0.01528
2206.35585 0.01646
2205.07010 0.01639
2203.78434 0.01574
2202.49858 0.01504
2201.21283 0.01419
2199.92707 0.01305
2198.64132 0.01177
2197.35556 0.01050
2196.06981 0.00942
2194.78405 0.00886
2193.49830 0.00908
2192.21254 0.00981
2190.92679 0.01061
2189.64103 0.01155
2188.35528 0.01297
2187.06952 0.01437
2185.78377 0.01436
2184.49801 0.01228
2183.21226 0.00934
2181.92650 0.00760
2180.64075 0.00778
2179.35499 0.00864
2178.06924 0.00865
2176.78348 0.00770
2175.49773 0.00674
2174.21197 0.00638
2172.92622 0.00642
2171.64046 0.00687
2170.35471 0.00830
2169.06895 0.01082
2167.78320 0.01328
2166.49744 0.01403
2165.21169 0.01270
2163.92593 0.01058
2162.64017 0.00926
2161.35442 0.00901
2160.06866 0.00888
2158.78291 0.00826
2157.49715 0.00779
2156.21140 0.00831
2154.92564 0.00969
2153.63989 0.01118
2152.35413 0.01238
2151.06838 0.01329
2149.78262 0.01373
2148.49687 0.01337
2147.21111 0.01248
2145.92536 0.01206
2144.63960 0.01275
2143.35385 0.01387
2142.06809 0.01413
2140.78234 0.01312
2139.49658 0.01161
2138.21083 0.01054
2136.92507 0.01007
2135.63932 0.00983
2134.35356 0.00959
2133.06781 0.00957
2131.78205 0.01004
2130.49630 0.01093
2129.21054 0.01188
2127.92479 0.01265
2126.63903 0.01326
2125.35328 0.01363
2124.06752 0.01329
2122.78176 0.01198
2121.49601 0.01032
2120.21025 0.00952
2118.92450 0.01015
2117.63874 0.01152
2116.35299 0.01242
2115.06723 0.01224
2113.78148 0.01125
2112.49572 0.01008
2111.20997 0.00919
2109.92421 0.00891
2108.63846 0.00937
2107.35270 0.01039
2106.06695 0.01154
2104.78119 0.01242
2103.49544 0.01287
2102.20968 0.01278
2100.92393 0.01197
2099.63817 0.01036
2098.35242 0.00825
2097.06666 0.00632
2095.78091 0.00534
2094.49515 0.00561
2093.20940 0.00670
2091.92364 0.00786
2090.63789 0.00852
2089.35213 0.00857
2088.06638 0.00832
2086.78062 0.00818
2085.49487 0.00828
2084.20911 0.00832
2082.92336 0.00795
2081.63760 0.00734
2080.35184 0.00702
2079.06609 0.00730
2077.78033 0.00805
2076.49458 0.00894
2075.20882 0.00975
2073.92307 0.01029
2072.63731 0.01048
2071.35156 0.01027
2070.06580 0.00960
2068.78005 0.00850
2067.49429 0.00736
2066.20854 0.00701
2064.92278 0.00795
2063.63703 0.00961
2062.35127 0.01056
2061.06552 0.00980
2059.77976 0.00783
2058.49401 0.00623
2057.20825 0.00598
2055.92250 0.00669
2054.63674 0.00733
2053.35099 0.00748
2052.06523 0.00744
2050.77948 0.00744
2049.49372 0.00706
2048.20797 0.00576
2046.92221 0.00375
2045.63646 0.00213
2044.35070 0.00183
2043.06495 0.00285
2041.77919 0.00452
2040.49343 0.00641
2039.20768 0.00846
2037.92192 0.01048
2036.63617 0.01190
2035.35041 0.01210
2034.06466 0.01095
2032.77890 0.00876
2031.49315 0.00612
2030.20739 0.00376
2028.92164 0.00241
2027.63588 0.00229
2026.35013 0.00297
2025.06437 0.00388
2023.77862 0.00494
2022.49286 0.00630
2021.20711 0.00770
2019.92135 0.00866
2018.63560 0.00912
2017.34984 0.00941
2016.06409 0.00953
2014.77833 0.00901
2013.49258 0.00768
2012.20682 0.00615
2010.92107 0.00539
2009.63531 0.00578
2008.34956 0.00688
2007.06380 0.00786
2005.77805 0.00833
2004.49229 0.00850
2003.20654 0.00851
2001.92078 0.00800
2000.63503 0.00663
1999.34927 0.00495
1998.06351 0.00413
1996.77776 0.00486
1995.49200 0.00658
1994.20625 0.00814
1992.92049 0.00885
1991.63474 0.00874
1990.34898 0.00797
1989.06323 0.00679
1987.77747 0.00576
1986.49172 0.00559
1985.20596 0.00633
1983.92021 0.00726
1982.63445 0.00765
1981.34870 0.00742
1980.06294 0.00696
1978.77719 0.00659
1977.49143 0.00650
1976.20568 0.00683
1974.91992 0.00764
1973.63417 0.00871
1972.34841 0.00958
1971.06266 0.01000
1969.77690 0.01031
1968.49115 0.01085
1967.20539 0.01119
1965.91964 0.01056
1964.63388 0.00901
1963.34813 0.00747
1962.06237 0.00679
1960.77662 0.00702
1959.49086 0.00766
1958.20510 0.00811
1956.91935 0.00804
1955.63359 0.00770
1954.34784 0.00768
1953.06208 0.00822
1951.77633 0.00898
1950.49057 0.00953
1949.20482 0.00974
1947.91906 0.00955
1946.63331 0.00883
1945.34755 0.00766
1944.06180 0.00656
1942.77604 0.00615
1941.49029 0.00658
1940.20453 0.00734
1938.91878 0.00781
1937.63302 0.00791
1936.34727 0.00810
1935.06151 0.00865
1933.77576 0.00922
1932.49000 0.00925
1931.20425 0.00854
1929.91849 0.00736
1928.63274 0.00623
1927.34698 0.00571
1926.06123 0.00606
1924.77547 0.00700
1923.48972 0.00787
1922.20396 0.00826
1920.91821 0.00821
1919.63245 0.00809
1918.34669 0.00809
1917.06094 0.00818
1915.77518 0.00826
1914.48943 0.00830
1913.20367 0.00824
1911.91792 0.00791
1910.63216 0.00732
1909.34641 0.00681
1908.06065 0.00674
1906.77490 0.00711
1905.48914 0.00765
1904.20339 0.00814
1902.91763 0.00853
1901.63188 0.00872
1900.34612 0.00862
1899.06037 0.00843
1897.77461 0.00843
1896.48886 0.00872
1895.20310 0.00914
1893.91735 0.00943
1892.63159 0.00948
1891.34584 0.00926
1890.06008 0.00887
1888.77433 0.00846
1887.48857 0.00820
1886.20282 0.00812
1884.91706 0.00809
1883.63131 0.00802
1882.34555 0.00797
1881.05980 0.00810
1879.77404 0.00845
1878.48829 0.00880
1877.20253 0.00889
1875.91677 0.00864
1874.63102 0.00823
1873.34526 0.00793
1872.05951 0.00792
1870.77375 0.00819
1869.48800 0.00860
1868.20224 0.00897
1866.91649 0.00913
1865.63073 0.00905
1864.34498 0.00884
1863.05922 0.00864
1861.77347 0.00851
1860.48771 0.00841
1859.20196 0.00835
1857.91620 0.00838
1856.63045 0.00850
1855.34469 0.00867
1854.05894 0.00879
1852.77318 0.00870
1851.48743 0.00838
1850.20167 0.00802
1848.91592 0.00787
1847.63016 0.00798
1846.34441 0.00816
1845.05865 0.00830
1843.77290 0.00844
1842.48714 0.00865
1841.20139 0.00878
1839.91563 0.00865
1838.62988 0.00828
1837.34412 0.00793
1836.05836 0.00778
1834.77261 0.00784
1833.48685 0.00805
1832.20110 0.00839
1830.91534 0.00887
1829.62959 0.00934
1828.34383 0.00956
1827.05808 0.00942
1825.77232 0.00898
1824.48657 0.00849
1823.20081 0.00821
1821.91506 0.00825
1820.62930 0.00850
1819.34355 0.00870
1818.05779 0.00873
1816.77204 0.00861
1815.48628 0.00844
1814.20053 0.00831
1812.91477 0.00834
1811.62902 0.00855
1810.34326 0.00885
1809.05751 0.00907
1807.77175 0.00907
1806.48600 0.00895
1805.20024 0.00886
1803.91449 0.00893
1802.62873 0.00911
1801.34298 0.00927
1800.05722 0.00928
1798.77147 0.00915
1797.48571 0.00898
1796.19995 0.00893
1794.91420 0.00906
1793.62844 0.00929
1792.34269 0.00947
1791.05693 0.00951
1789.77118 0.00946
1788.48542 0.00943
1787.19967 0.00947
1785.91391 0.00957
1784.62816 0.00965
1783.34240 0.00968
1782.05665 0.00967
1780.77089 0.00964
1779.48514 0.00953
1778.19938 0.00933
1776.91363 0.00908
1775.62787 0.00890
1774.34212 0.00886
1773.05636 0.00900
1771.77061 0.00923
1770.48485 0.00946
1769.19910 0.00958
1767.91334 0.00958
1766.62759 0.00955
1765.34183 0.00957
1764.05608 0.00965
1762.77032 0.00973
1761.48457 0.00978
1760.19881 0.00980
1758.91306 0.00976
1757.62730 0.00966
1756.34155 0.00953
1755.05579 0.00948
1753.77003 0.00962
1752.48428 0.00988
1751.19852 0.01012
1749.91277 0.01019
1748.62701 0.01008
1747.34126 0.00991
1746.05550 0.00977
1744.76975 0.00970
1743.48399 0.00964
1742.19824 0.00957
1740.91248 0.00952
1739.62673 0.00959
1738.34097 0.00977
1737.05522 0.01000
1735.76946 0.01021
1734.48371 0.01040
1733.19795 0.01061
1731.91220 0.01086
1730.62644 0.01112
1729.34069 0.01132
1728.05493 0.01141
1726.76918 0.01140
1725.48342 0.01137
1724.19767 0.01138
1722.91191 0.01147
1721.62616 0.01163
1720.34040 0.01187
1719.05465 0.01218
1717.76889 0.01255
1716.48314 0.01298
1715.19738 0.01349
1713.91162 0.01407
1712.62587 0.01466
1711.34011 0.01523
1710.05436 0.01577
1708.76860 0.01631
1707.48285 0.01690
1706.19709 0.01757
1704.91134 0.01835
1703.62558 0.01921
1702.33983 0.02016
1701.05407 0.02120
1699.76832 0.02229
1698.48256 0.02336
1697.19681 0.02437
1695.91105 0.02536
1694.62530 0.02634
1693.33954 0.02732
1692.05379 0.02826
1690.76803 0.02916
1689.48228 0.03004
1688.19652 0.03099
1686.91077 0.03201
1685.62501 0.03305
1684.33926 0.03403
1683.05350 0.03496
1681.76775 0.03592
1680.48199 0.03698
1679.19624 0.03810
1677.91048 0.03921
1676.62473 0.04020
1675.33897 0.04105
1674.05322 0.04181
1672.76746 0.04256
1671.48170 0.04339
1670.19595 0.04432
1668.91019 0.04532
1667.62444 0.04636
1666.33868 0.04736
1665.05293 0.04825
1663.76717 0.04904
1662.48142 0.04976
1661.19566 0.05046
1659.90991 0.05113
1658.62415 0.05174
1657.33840 0.05230
1656.05264 0.05284
1654.76689 0.05340
1653.48113 0.05400
1652.19538 0.05454
1650.90962 0.05498
1649.62387 0.05533
1648.33811 0.05563
1647.05236 0.05593
1645.76660 0.05621
1644.48085 0.05643
1643.19509 0.05653
1641.90934 0.05650
1640.62358 0.05636
1639.33783 0.05618
1638.05207 0.05600
1636.76632 0.05579
1635.48056 0.05545
1634.19481 0.05493
1632.90905 0.05423
1631.62329 0.05345
1630.33754 0.05266
1629.05178 0.05190
1627.76603 0.05116
1626.48027 0.05044
1625.19452 0.04970
1623.90876 0.04890
1622.62301 0.04807
1621.33725 0.04723
1620.05150 0.04636
1618.76574 0.04542
1617.47999 0.04441
1616.19423 0.04342
1614.90848 0.04252
1613.62272 0.04173
1612.33697 0.04099
1611.05121 0.04027
1609.76546 0.03959
1608.47970 0.03898
1607.19395 0.03844
1605.90819 0.03790
1604.62244 0.03733
1603.33668 0.03678
1602.05093 0.03633
1600.76517 0.03603
1599.47942 0.03582
1598.19366 0.03565
1596.90791 0.03547
1595.62215 0.03535
1594.33640 0.03532
1593.05064 0.03537
1591.76488 0.03544
1590.47913 0.03548
1589.19337 0.03553
1587.90762 0.03561
1586.62186 0.03576
1585.33611 0.03597
1584.05035 0.03622
1582.76460 0.03650
1581.47884 0.03683
1580.19309 0.03719
1578.90733 0.03758
1577.62158 0.03798
1576.33582 0.03840
1575.05007 0.03886
1573.76431 0.03933
1572.47856 0.03979
1571.19280 0.04025
1569.90705 0.04073
1568.62129 0.04121
1567.33554 0.04166
1566.04978 0.04204
1564.76403 0.04237
1563.47827 0.04270
1562.19252 0.04303
1560.90676 0.04337
1559.62101 0.04369
1558.33525 0.04404
1557.04950 0.04444
1555.76374 0.04485
1554.47799 0.04526
1553.19223 0.04561
1551.90648 0.04592
1550.62072 0.04620
1549.33496 0.04642
1548.04921 0.04657
1546.76345 0.04667
1545.47770 0.04677
1544.19194 0.04687
1542.90619 0.04694
1541.62043 0.04695
1540.33468 0.04693
1539.04892 0.04691
1537.76317 0.04692
1536.47741 0.04695
1535.19166 0.04703
1533.90590 0.04714
1532.62015 0.04724
1531.33439 0.04730
1530.04864 0.04731
1528.76288 0.04730
1527.47713 0.04732
1526.19137 0.04740
1524.90562 0.04754
1523.61986 0.04767
1522.33411 0.04780
1521.04835 0.04794
1519.76260 0.04814
1518.47684 0.04839
1517.19109 0.04868
1515.90533 0.04897
1514.61958 0.04931
1513.33382 0.04971
1512.04807 0.05013
1510.76231 0.05052
1509.47655 0.05083
1508.19080 0.05112
1506.90504 0.05142
1505.61929 0.05173
1504.33353 0.05202
1503.04778 0.05226
1501.76202 0.05243
1500.47627 0.05253
1499.19051 0.05261
1497.90476 0.05272
1496.61900 0.05287
1495.33325 0.05299
1494.04749 0.05303
1492.76174 0.05302
1491.47598 0.05306
1490.19023 0.05318
1488.90447 0.05333
1487.61872 0.05348
1486.33296 0.05363
1485.04721 0.05387
1483.76145 0.05422
1482.47570 0.05463
1481.18994 0.05507
1479.90419 0.05555
1478.61843 0.05610
1477.33268 0.05672
1476.04692 0.05735
1474.76117 0.05795
1473.47541 0.05847
1472.18966 0.05895
1470.90390 0.05938
1469.61814 0.05973
1468.33239 0.06002
1467.04663 0.06027
1465.76088 0.06057
1464.47512 0.06097
1463.18937 0.06144
1461.90361 0.06194
1460.61786 0.06244
1459.33210 0.06296
1458.04635 0.06354
1456.76059 0.06414
1455.47484 0.06470
1454.18908 0.06518
1452.90333 0.06555
1451.61757 0.06579
1450.33182 0.06591
1449.04606 0.06599
1447.76031 0.06603
1446.47455 0.06603
1445.18880 0.06594
1443.90304 0.06573
1442.61729 0.06543
1441.33153 0.06512
1440.04578 0.06487
1438.76002 0.06470
1437.47427 0.06458
1436.18851 0.06447
1434.90276 0.06440
1433.61700 0.06439
1432.33125 0.06448
1431.04549 0.06468
1429.75974 0.06500
1428.47398 0.06543
1427.18822 0.06596
1425.90247 0.06659
1424.61671 0.06732
1423.33096 0.06809
1422.04520 0.06884
1420.75945 0.06952
1419.47369 0.07015
1418.18794 0.07072
1416.90218 0.07124
1415.61643 0.07172
1414.33067 0.07215
1413.04492 0.07252
1411.75916 0.07280
1410.47341 0.07297
1409.18765 0.07301
1407.90190 0.07288
1406.61614 0.07259
1405.33039 0.07218
1404.04463 0.07169
1402.75888 0.07110
1401.47312 0.07043
1400.18737 0.06966
1398.90161 0.06883
1397.61586 0.06795
1396.33010 0.06699
1395.04435 0.06593
1393.75859 0.06478
1392.47284 0.06356
1391.18708 0.06235
1389.90133 0.06118
1388.61557 0.06006
1387.32981 0.05897
1386.04406 0.05787
1384.75830 0.05675
1383.47255 0.05562
1382.18679 0.05446
1380.90104 0.05325
1379.61528 0.05202
1378.32953 0.05076
1377.04377 0.04948
1375.75802 0.04816
1374.47226 0.04680
1373.18651 0.04543
1371.90075 0.04410
1370.61500 0.04283
1369.32924 0.04160
1368.04349 0.04042
1366.75773 0.03927
1365.47198 0.03814
1364.18622 0.03702
1362.90047 0.03594
1361.61471 0.03494
1360.32896 0.03401
1359.04320 0.03314
1357.75745 0.03233
1356.47169 0.03158
1355.18594 0.03093
1353.90018 0.03037
1352.61443 0.02990
1351.32867 0.02944
1350.04292 0.02899
1348.75716 0.02855
1347.47141 0.02813
1346.18565 0.02773
1344.89989 0.02738
1343.61414 0.02710
1342.32838 0.02687
1341.04263 0.02662
1339.75687 0.02629
1338.47112 0.02590
1337.18536 0.02551
1335.89961 0.02516
1334.61385 0.02483
1333.32810 0.02452
1332.04234 0.02423
1330.75659 0.02395
1329.47083 0.02365
1328.18508 0.02335
1326.89932 0.02307
1325.61357 0.02285
1324.32781 0.02266
1323.04206 0.02248
1321.75630 0.02231
1320.47055 0.02216
1319.18479 0.02201
1317.89904 0.02179
1316.61328 0.02148
1315.32753 0.02111
1314.04177 0.02075
1312.75602 0.02046
1311.47026 0.02028
1310.18451 0.02018
1308.89875 0.02007
1307.61300 0.01991
1306.32724 0.01967
1305.04148 0.01944
1303.75573 0.01923
1302.46997 0.01906
1301.18422 0.01889
1299.89846 0.01872
1298.61271 0.01853
1297.32695 0.01834
1296.04120 0.01815
1294.75544 0.01799
1293.46969 0.01788
1292.18393 0.01783
1290.89818 0.01783
1289.61242 0.01781
1288.32667 0.01772
1287.04091 0.01760
1285.75516 0.01750
1284.46940 0.01746
1283.18365 0.01746
1281.89789 0.01747
1280.61214 0.01744
1279.32638 0.01739
1278.04063 0.01733
1276.75487 0.01729
1275.46912 0.01724
1274.18336 0.01716
1272.89761 0.01704
1271.61185 0.01692
1270.32610 0.01683
1269.04034 0.01677
1267.75459 0.01669
1266.46883 0.01657
1265.18307 0.01643
1263.89732 0.01634
1262.61156 0.01632
1261.32581 0.01636
1260.04005 0.01641
1258.75430 0.01643
1257.46854 0.01640
1256.18279 0.01636
1254.89703 0.01634
1253.61128 0.01636
1252.32552 0.01641
1251.03977 0.01647
1249.75401 0.01651
1248.46826 0.01651
1247.18250 0.01646
1245.89675 0.01636
1244.61099 0.01627
1243.32524 0.01626
1242.03948 0.01633
1240.75373 0.01641
1239.46797 0.01641
1238.18222 0.01628
1236.89646 0.01608
1235.61071 0.01590
1234.32495 0.01578
1233.03920 0.01570
1231.75344 0.01559
1230.46769 0.01541
1229.18193 0.01518
1227.89618 0.01496
1226.61042 0.01478
1225.32467 0.01462
1224.03891 0.01440
1222.75315 0.01415
1221.46740 0.01392
1220.18164 0.01378
1218.89589 0.01371
1217.61013 0.01366
1216.32438 0.01355
1215.03862 0.01339
1213.75287 0.01321
1212.46711 0.01306
1211.18136 0.01296
1209.89560 0.01292
1208.60985 0.01294
1207.32409 0.01299
1206.03834 0.01304
1204.75258 0.01308
1203.46683 0.01309
1202.18107 0.01305
1200.89532 0.01300
1199.60956 0.01295
1198.32381 0.01287
1197.03805 0.01277
1195.75230 0.01266
1194.46654 0.01254
1193.18079 0.01241
1191.89503 0.01227
1190.60928 0.01215
1189.32352 0.01205
1188.03777 0.01196
1186.75201 0.01185
1185.46626 0.01171
1184.18050 0.01158
1182.89474 0.01152
1181.60899 0.01154
1180.32323 0.01159
1179.03748 0.01161
1177.75172 0.01158
1176.46597 0.01158
1175.18021 0.01165
1173.89446 0.01175
1172.60870 0.01183
1171.32295 0.01187
1170.03719 0.01187
1168.75144 0.01188
1167.46568 0.01192
1166.17993 0.01201
1164.89417 0.01214
1163.60842 0.01227
1162.32266 0.01236
1161.03691 0.01239
1159.75115 0.01239
1158.46540 0.01241
1157.17964 0.01249
1155.89389 0.01265
1154.60813 0.01284
1153.32238 0.01303
1152.03662 0.01321
1150.75087 0.01342
1149.46511 0.01366
1148.17936 0.01390
1146.89360 0.01412
1145.60785 0.01435
1144.32209 0.01462
1143.03633 0.01496
1141.75058 0.01535
1140.46482 0.01579
1139.17907 0.01626
1137.89331 0.01675
1136.60756 0.01726
1135.32180 0.01783
1134.03605 0.01845
1132.75029 0.01913
1131.46454 0.01989
1130.17878 0.02076
1128.89303 0.02171
1127.60727 0.02272
1126.32152 0.02377
1125.03576 0.02486
1123.75001 0.02599
1122.46425 0.02715
1121.17850 0.02834
1119.89274 0.02961
1118.60699 0.03097
1117.32123 0.03240
1116.03548 0.03383
1114.74972 0.03523
1113.46397 0.03661
1112.17821 0.03798
1110.89246 0.03936
1109.60670 0.04074
1108.32095 0.04213
1107.03519 0.04350
1105.74944 0.04483
1104.46368 0.04610
1103.17793 0.04734
1101.89217 0.04858
1100.60641 0.04983
1099.32066 0.05106
1098.03490 0.05221
1096.74915 0.05326
1095.46339 0.05423
1094.17764 0.05514
1092.89188 0.05597
1091.60613 0.05673
1090.32037 0.05743
1089.03462 0.05808
1087.74886 0.05867
1086.46311 0.05923
1085.17735 0.05981
1083.89160 0.06043
1082.60584 0.06110
1081.32009 0.06180
1080.03433 0.06251
1078.74858 0.06326
1077.46282 0.06405
1076.17707 0.06488
1074.89131 0.06578
1073.60556 0.06677
1072.31980 0.06782
1071.03405 0.06891
1069.74829 0.06999
1068.46254 0.07105
1067.17678 0.07211
1065.89103 0.07317
1064.60527 0.07425
1063.31952 0.07540
1062.03376 0.07658
1060.74800 0.07774
1059.46225 0.07887
1058.17649 0.07998
1056.89074 0.08112
1055.60498 0.08228
1054.31923 0.08344
1053.03347 0.08457
1051.74772 0.08563
1050.46196 0.08665
1049.17621 0.08767
1047.89045 0.08873
1046.60470 0.08982
1045.31894 0.09088
1044.03319 0.09190
1042.74743 0.09289
1041.46168 0.09388
1040.17592 0.09490
1038.89017 0.09591
1037.60441 0.09690
1036.31866 0.09789
1035.03290 0.09891
1033.74715 0.09994
1032.46139 0.10092
1031.17564 0.10182
1029.88988 0.10263
1028.60413 0.10341
1027.31837 0.10416
1026.03262 0.10485
1024.74686 0.10544
1023.46111 0.10596
1022.17535 0.10642
1020.88960 0.10685
1019.60384 0.10722
1018.31808 0.10752
1017.03233 0.10772
1015.74657 0.10786
1014.46082 0.10791
1013.17506 0.10783
1011.88931 0.10757
1010.60355 0.10717
1009.31780 0.10670
1008.03204 0.10623
1006.74629 0.10575
1005.46053 0.10521
1004.17478 0.10456
1002.88902 0.10379
1001.60327 0.10290
1000.31751 0.10196
999.03176 0.10101
997.74600 0.10007
996.46025 0.09907
995.17449 0.09797
993.88874 0.09672
992.60298 0.09539
991.31723 0.09407
990.03147 0.09278
988.74572 0.09149
987.45996 0.09015
986.17421 0.08873
984.88845 0.08727
983.60270 0.08581
982.31694 0.08439
981.03119 0.08298
979.74543 0.08157
978.45967 0.08014
977.17392 0.07867
975.88816 0.07720
974.60241 0.07584
973.31665 0.07465
972.03090 0.07367
970.74514 0.07285
969.45939 0.07223
968.17363 0.07181
966.88788 0.07161
965.60212 0.07156
964.31637 0.07159
963.03061 0.07161
961.74486 0.07159
960.45910 0.07148
959.17335 0.07122
957.88759 0.07075
956.60184 0.07006
955.31608 0.06920
954.03033 0.06827
952.74457 0.06731
951.45882 0.06632
950.17306 0.06523
948.88731 0.06403
947.60155 0.06277
946.31580 0.06155
945.03004 0.06043
943.74429 0.05942
942.45853 0.05845
941.17278 0.05752
939.88702 0.05659
938.60126 0.05566
937.31551 0.05472
936.02975 0.05380
934.74400 0.05291
933.45824 0.05206
932.17249 0.05125
930.88673 0.05047
929.60098 0.04969
928.31522 0.04889
927.02947 0.04812
925.74371 0.04741
924.45796 0.04678
923.17220 0.04620
921.88645 0.04566
920.60069 0.04518
919.31494 0.04475
918.02918 0.04433
916.74343 0.04382
915.45767 0.04319
914.17192 0.04249
912.88616 0.04178
911.60041 0.04112
910.31465 0.04055
909.02890 0.04011
907.74314 0.03982
906.45739 0.03960
905.17163 0.03934
903.88588 0.03897
902.60012 0.03847
901.31437 0.03793
900.02861 0.03741
898.74286 0.03694
897.45710 0.03655
896.17134 0.03626
894.88559 0.03604
893.59983 0.03581
892.31408 0.03551
891.02832 0.03522
889.74257 0.03508
888.45681 0.03512
887.17106 0.03525
885.88530 0.03549
884.59955 0.03601
883.31379 0.03700
882.02804 0.03839
880.74228 0.03987
879.45653 0.04106
878.17077 0.04188
876.88502 0.04249
875.59926 0.04311
874.31351 0.04382
873.02775 0.04449
871.74200 0.04490
870.45624 0.04494
869.17049 0.04463
867.88473 0.04407
866.59898 0.04332
865.31322 0.04241
864.02747 0.04137
862.74171 0.04030
861.45596 0.03929
860.17020 0.03838
858.88445 0.03757
857.59869 0.03685
856.31293 0.03626
855.02718 0.03577
853.74142 0.03529
852.45567 0.03476
851.16991 0.03418
849.88416 0.03364
848.59840 0.03319
847.31265 0.03283
846.02689 0.03251
844.74114 0.03222
843.45538 0.03202
842.16963 0.03186
840.88387 0.03167
839.59812 0.03136
838.31236 0.03101
837.02661 0.03073
835.74085 0.03057
834.45510 0.03045
833.16934 0.03026
831.88359 0.03000
830.59783 0.02974
829.31208 0.02953
828.02632 0.02935
826.74057 0.02919
825.45481 0.02907
824.16906 0.02902
822.88330 0.02905
821.59755 0.02905
820.31179 0.02891
819.02604 0.02867
817.74028 0.02844
816.45452 0.02829
815.16877 0.02821
813.88301 0.02812
812.59726 0.02801
811.31150 0.02790
810.02575 0.02778
808.73999 0.02765
807.45424 0.02747
806.16848 0.02728
804.88273 0.02716
803.59697 0.02714
802.31122 0.02719
801.02546 0.02720
799.73971 0.02713
798.45395 0.02700
797.16820 0.02692
795.88244 0.02691
794.59669 0.02696
793.31093 0.02699
792.02518 0.02694
790.73942 0.02681
789.45367 0.02663
788.16791 0.02647
786.88216 0.02633
785.59640 0.02622
784.31065 0.02611
783.02489 0.02599
781.73914 0.02588
780.45338 0.02581
779.16763 0.02581
777.88187 0.02586
776.59612 0.02589
775.31036 0.02585
774.02460 0.02577
772.73885 0.02574
771.45309 0.02581
770.16734 0.02595
768.88158 0.02604
767.59583 0.02601
766.31007 0.02585
765.02432 0.02568
763.73856 0.02560
762.45281 0.02564
761.16705 0.02575
759.88130 0.02584
758.59554 0.02585
757.30979 0.02582
756.02403 0.02583
754.73828 0.02592
753.45252 0.02607
752.16677 0.02622
750.88101 0.02629
749.59526 0.02621
748.30950 0.02601
747.02375 0.02578
745.73799 0.02564
744.45224 0.02558
743.16648 0.02555
741.88073 0.02551
740.59497 0.02545
739.30922 0.02537
738.02346 0.02527
736.73771 0.02524
735.45195 0.02531
734.16619 0.02542
732.88044 0.02545
731.59468 0.02534
730.30893 0.02520
729.02317 0.02511
727.73742 0.02510
726.45166 0.02510
725.16591 0.02509
723.88015 0.02504
722.59440 0.02501
721.30864 0.02500
720.02289 0.02505
718.73713 0.02510
717.45138 0.02510
716.16562 0.02503
714.87987 0.02494
713.59411 0.02488
712.30836 0.02486
711.02260 0.02487
709.73685 0.02488
708.45109 0.02484
707.16534 0.02476
705.87958 0.02468
704.59383 0.02465
703.30807 0.02465
702.02232 0.02464
700.73656 0.02459
699.45081 0.02451
698.16505 0.02444
696.87930 0.02442
695.59354 0.02443
694.30779 0.02441
693.02203 0.02435
691.73627 0.02429
690.45052 0.02427
689.16476 0.02429
687.87901 0.02433
686.59325 0.02436
685.30750 0.02435
684.02174 0.02427
682.73599 0.02413
681.45023 0.02396
680.16448 0.02384
678.87872 0.02378
677.59297 0.02377
676.30721 0.02374
675.02146 0.02370
673.73570 0.02367
672.44995 0.02364
671.16419 0.02358
669.87844 0.02347
668.59268 0.02337
667.30693 0.02328
666.02117 0.02319
664.73542 0.02311
663.44966 0.02306
662.16391 0.02305
660.87815 0.02304
659.59240 0.02297
658.30664 0.02285
657.02089 0.02270
655.73513 0.02254
654.44938 0.02241
653.16362 0.02234
651.87786 0.02237
650.59211 0.02247
649.30635 0.02256
648.02060 0.02258
646.73484 0.02257
645.44909 0.02256
644.16333 0.02254
642.87758 0.02246
641.59182 0.02231
640.30607 0.02216
639.02031 0.02210
637.73456 0.02222
636.44880 0.02248
635.16305 0.02279
633.87729 0.02304
632.59154 0.02320
631.30578 0.02329
630.02003 0.02327
628.73427 0.02309
627.44852 0.02279
626.16276 0.02250
624.87701 0.02239
623.59125 0.02263
622.30550 0.02333
621.01974 0.02456
619.73399 0.02626
618.44823 0.02819
617.16248 0.02996
615.87672 0.03101
614.59097 0.03102
613.30521 0.03060
612.01945 0.03112
610.73370 0.03340
609.44794 0.03680
608.16219 0.03997
606.87643 0.04233
605.59068 0.04392
604.30492 0.04482
603.01917 0.04520
601.73341 0.04541
600.44766 0.04563
599.16190 0.04575
597.87615 0.04562
596.59039 0.04517
595.30464 0.04450
594.01888 0.04379
592.73313 0.04312
591.44737 0.04246
590.16162 0.04177
588.87586 0.04112
587.59011 0.04074
586.30435 0.04078
585.01860 0.04118
583.73284 0.04173
582.44709 0.04223
581.16133 0.04266
579.87558 0.04314
578.58982 0.04377
577.30407 0.04455
576.01831 0.04534
574.73256 0.04608
573.44680 0.04681
572.16105 0.04764
570.87529 0.04865
569.58953 0.04982
568.30378 0.05110
567.01802 0.05241
565.73227 0.05365
564.44651 0.05470
563.16076 0.05554
561.87500 0.05616
560.58925 0.05656
559.30349 0.05668
558.01774 0.05652
556.73198 0.05611
555.44623 0.05559
554.16047 0.05501
552.87472 0.05432
551.58896 0.05340
550.30321 0.05221
549.01745 0.05087
547.73170 0.04958
546.44594 0.04850
545.16019 0.04763
543.87443 0.04681
542.58868 0.04592
541.30292 0.04491
540.01717 0.04387
538.73141 0.04291
537.44566 0.04210
536.15990 0.04142
534.87415 0.04078
533.58839 0.04003
532.30264 0.03916
531.01688 0.03828
529.73112 0.03752
528.44537 0.03695
527.15961 0.03648
525.87386 0.03600
524.58810 0.03544
523.30235 0.03483
522.01659 0.03424
520.73084 0.03372
519.44508 0.03323
518.15933 0.03273
516.87357 0.03222
515.58782 0.03171
514.30206 0.03124
513.01631 0.03078
511.73055 0.03029
510.44480 0.02982
509.15904 0.02941
507.87329 0.02908
506.58753 0.02879
505.30178 0.02850
504.01602 0.02817
502.73027 0.02784
501.44451 0.02754
500.15876 0.02727
498.87300 0.02702
497.58725 0.02672
496.30149 0.02630
495.01574 0.02580
493.72998 0.02531
492.44423 0.02497
491.15847 0.02478
489.87271 0.02467
488.58696 0.02457
487.30120 0.02445
486.01545 0.02433
484.72969 0.02420
483.44394 0.02403
482.15818 0.02386
480.87243 0.02374
479.58667 0.02369
478.30092 0.02365
477.01516 0.02360
475.72941 0.02358
474.44365 0.02363
473.15790 0.02371
471.87214 0.02370
470.58639 0.02356
469.30063 0.02331
468.01488 0.02301
466.72912 0.02270
465.44337 0.02239
464.15761 0.02212
462.87186 0.02187
461.58610 0.02161
460.30035 0.02132
459.01459 0.02101
457.72884 0.02073
456.44308 0.02050
455.15733 0.02026
453.87157 0.01998
452.58582 0.01967
451.30006 0.01935
450.01431 0.01905
448.72855 0.01880
447.44279 0.01862
446.15704 0.01849
444.87128 0.01837
443.58553 0.01826
442.29977 0.01815
441.01402 0.01806
439.72826 0.01796
438.44251 0.01780
437.15675 0.01758
435.87100 0.01734
434.58524 0.01712
433.29949 0.01690
432.01373 0.01669
430.72798 0.01654
429.44222 0.01648
428.15647 0.01650
426.87071 0.01652
425.58496 0.01648
424.29920 0.01636
423.01345 0.01620
421.72769 0.01602
420.44194 0.01585
419.15618 0.01571
417.87043 0.01558
416.58467 0.01544
415.29892 0.01528
414.01316 0.01511
412.72741 0.01498
411.44165 0.01487
410.15590 0.01476
408.87014 0.01464
407.58438 0.01453
406.29863 0.01446
405.01287 0.01444
403.72712 0.01444
402.44136 0.01442
401.15561 0.01435
399.86985 0.01425
