3998.69854 0.01657
3997.41278 0.01867
3996.12703 0.01971
3994.84127 0.01885
3993.55552 0.01599
3992.26976 0.01230
3990.98401 0.00997
3989.69825 0.01052
3988.41250 0.01332
3987.12674 0.01622
3985.84099 0.01762
3984.55523 0.01755
3983.26948 0.01706
3981.98372 0.01703
3980.69797 0.01753
3979.41221 0.01772
3978.12646 0.01650
3976.84070 0.01371
3975.55495 0.01056
3974.26919 0.00859
3972.98344 0.00842
3971.69768 0.00967
3970.41193 0.01178
3969.12617 0.01420
3967.84042 0.01620
3966.55466 0.01704
3965.26891 0.01648
3963.98315 0.01505
3962.69740 0.01355
3961.41164 0.01256
3960.12589 0.01219
3958.84013 0.01219
3957.55437 0.01221
3956.26862 0.01217
3954.98286 0.01234
3953.69711 0.01301
3952.41135 0.01418
3951.12560 0.01552
3949.83984 0.01651
3948.55409 0.01663
3947.26833 0.01559
3945.98258 0.01376
3944.69682 0.01232
3943.41107 0.01255
3942.12531 0.01462
3940.83956 0.01704
3939.55380 0.01763
3938.26805 0.01552
3936.98229 0.01210
3935.69654 0.00991
3934.41078 0.01065
3933.12503 0.01390
3931.83927 0.01755
3930.55352 0.01930
3929.26776 0.01805
3927.98201 0.01434
3926.69625 0.00968
3925.41050 0.00556
3924.12474 0.00328
3922.83899 0.00363
3921.55323 0.00615
3920.26748 0.00912
3918.98172 0.01122
3917.69596 0.01298
3916.41021 0.01582
3915.12445 0.01967
3913.83870 0.02260
3912.55294 0.02305
3911.26719 0.02165
3909.98143 0.02043
3908.69568 0.02078
3907.40992 0.02236
3906.12417 0.02396
3904.83841 0.02459
3903.55266 0.02422
3902.26690 0.02364
3900.98115 0.02381
3899.69539 0.02483
3898.40964 0.02577
3897.12388 0.02564
3895.83813 0.02435
3894.55237 0.02237
3893.26662 0.02010
3891.98086 0.01791
3890.69511 0.01661
3889.40935 0.01689
3888.12360 0.01843
3886.83784 0.01977
3885.55209 0.01950
3884.26633 0.01776
3882.98058 0.01636
3881.69482 0.01682
3880.40907 0.01856
3879.12331 0.01937
3877.83755 0.01771
3876.55180 0.01425
3875.26604 0.01132
3873.98029 0.01117
3872.69453 0.01413
3871.40878 0.01812
3870.12302 0.02030
3868.83727 0.01963
3867.55151 0.01763
3866.26576 0.01659
3864.98000 0.01756
3863.69425 0.01999
3862.40849 0.02236
3861.12274 0.02315
3859.83698 0.02214
3858.55123 0.02075
3857.26547 0.02049
3855.97972 0.02122
3854.69396 0.02145
3853.40821 0.02039
3852.12245 0.01895
3850.83670 0.01861
3849.55094 0.01958
3848.26519 0.02021
3846.97943 0.01839
3845.69368 0.01372
3844.40792 0.00834
3843.12217 0.00509
3841.83641 0.00500
3840.55066 0.00667
3839.26490 0.00808
3837.97915 0.00871
3836.69339 0.00950
3835.40763 0.01104
3834.12188 0.01256
3832.83612 0.01304
3831.55037 0.01254
3830.26461 0.01170
3828.97886 0.01080
3827.69310 0.01016
3826.40735 0.01099
3825.12159 0.01445
3823.83584 0.01918
3822.55008 0.02142
3821.26433 0.01866
3819.97857 0.01268
3818.69282 0.00806
3817.40706 0.00760
3816.12131 0.01003
3814.83555 0.01189
3813.54980 0.01114
3812.26404 0.00878
3810.97829 0.00769
3809.69253 0.00990
3808.40678 0.01471
3807.12102 0.01942
3805.83527 0.02195
3804.54951 0.02242
3803.26376 0.02217
3801.97800 0.02210
3800.69225 0.02240
3799.40649 0.02321
3798.12074 0.02445
3796.83498 0.02547
3795.54922 0.02536
3794.26347 0.02381
3792.97771 0.02143
3791.69196 0.01951
3790.40620 0.01948
3789.12045 0.02199
3787.83469 0.02589
3786.54894 0.02868
3785.26318 0.02869
3783.97743 0.02690
3782.69167 0.02590
3781.40592 0.02705
3780.12016 0.02935
3778.83441 0.03091
3777.54865 0.03096
3776.26290 0.03027
3774.97714 0.03000
3773.69139 0.03038
3772.40563 0.03045
3771.11988 0.02905
3769.83412 0.02602
3768.54837 0.02249
3767.26261 0.01994
3765.97686 0.01903
3764.69110 0.01925
3763.40535 0.01956
3762.11959 0.01954
3760.83384 0.01972
3759.54808 0.02066
3758.26233 0.02200
3756.97657 0.02319
3755.69081 0.02488
3754.40506 0.02851
3753.11930 0.03408
3751.83355 0.03911
3750.54779 0.04054
3749.26204 0.03762
3747.97628 0.03254
3746.69053 0.02864
3745.40477 0.02767
3744.11902 0.02873
3742.83326 0.02964
3741.54751 0.02959
3740.26175 0.02972
3738.97600 0.03111
3737.69024 0.03316
3736.40449 0.03425
3735.11873 0.03367
3733.83298 0.03211
3732.54722 0.03102
3731.26147 0.03171
3729.97571 0.03486
3728.68996 0.03998
3727.40420 0.04515
3726.11845 0.04799
3724.83269 0.04732
3723.54694 0.04429
3722.26118 0.04154
3720.97543 0.04108
3719.68967 0.04268
3718.40392 0.04425
3717.11816 0.04387
3715.83241 0.04157
3714.54665 0.03910
3713.26089 0.03793
3711.97514 0.03790
3710.68938 0.03815
3709.40363 0.03854
3708.11787 0.03966
3706.83212 0.04145
3705.54636 0.04262
3704.26061 0.04153
3702.97485 0.03767
3701.68910 0.03238
3700.40334 0.02836
3699.11759 0.02790
3697.83183 0.03114
3696.54608 0.03576
3695.26032 0.03879
3693.97457 0.03889
3692.68881 0.03732
3691.40306 0.03669
3690.11730 0.03832
3688.83155 0.04032
3687.54579 0.03928
3686.26004 0.03410
3684.97428 0.02728
3683.68853 0.02179
3682.40277 0.01814
3681.11702 0.01558
3679.83126 0.01472
3678.54551 0.01706
3677.25975 0.02209
3675.97400 0.02720
3674.68824 0.03059
3673.40248 0.03301
3672.11673 0.03630
3670.83097 0.04128
3669.54522 0.04731
3668.25946 0.05298
3666.97371 0.05645
3665.68795 0.05619
3664.40220 0.05216
3663.11644 0.04606
3661.83069 0.03991
3660.54493 0.03464
3659.25918 0.03053
3657.97342 0.02832
3656.68767 0.02911
3655.40191 0.03286
3654.11616 0.03760
3652.83040 0.04040
3651.54465 0.03951
3650.25889 0.03598
3648.97314 0.03306
3647.68738 0.03335
3646.40163 0.03646
3645.11587 0.04008
3643.83012 0.04295
3642.54436 0.04583
3641.25861 0.04960
3639.97285 0.05387
3638.68710 0.05772
3637.40134 0.06051
3636.11559 0.06141
3634.82983 0.05941
3633.54408 0.05532
3632.25832 0.05278
3630.97256 0.05545
3629.68681 0.06291
3628.40105 0.07055
3627.11530 0.07388
3625.82954 0.07197
3624.54379 0.06687
3623.25803 0.06265
3621.97228 0.06286
3620.68652 0.06810
3619.40077 0.07543
3618.11501 0.08123
3616.82926 0.08499
3615.54350 0.08852
3614.25775 0.09142
3612.97199 0.09049
3611.68624 0.08518
3610.40048 0.08052
3609.11473 0.08200
3607.82897 0.08898
3606.54322 0.09579
3605.25746 0.09878
3603.97171 0.09945
3602.68595 0.10061
3601.40020 0.10203
3600.11444 0.10168
3598.82869 0.09968
3597.54293 0.09890
3596.25718 0.10134
3594.97142 0.10581
3593.68567 0.11020
3592.39991 0.11453
3591.11415 0.11994
3589.82840 0.12522
3588.54264 0.12680
3587.25689 0.12301
3585.97113 0.11690
3584.68538 0.11373
3583.39962 0.11659
3582.11387 0.12463
3580.82811 0.13431
3579.54236 0.14163
3578.25660 0.14418
3576.97085 0.14212
3575.68509 0.13770
3574.39934 0.13415
3573.11358 0.13435
3571.82783 0.13939
3570.54207 0.14763
3569.25632 0.15552
3567.97056 0.16039
3566.68481 0.16255
3565.39905 0.16434
3564.11330 0.16720
3562.82754 0.17039
3561.54179 0.17245
3560.25603 0.17270
3558.97028 0.17083
3557.68452 0.16630
3556.39877 0.15983
3555.11301 0.15472
3553.82726 0.15464
3552.54150 0.15976
3551.25574 0.16604
3549.96999 0.16880
3548.68423 0.16641
3547.39848 0.16108
3546.11272 0.15736
3544.82697 0.15964
3543.54121 0.16971
3542.25546 0.18608
3540.96970 0.20516
3539.68395 0.22302
3538.39819 0.23597
3537.11244 0.24132
3535.82668 0.23909
3534.54093 0.23312
3533.25517 0.22864
3531.96942 0.22785
3530.68366 0.22812
3529.39791 0.22570
3528.11215 0.22070
3526.82640 0.21775
3525.54064 0.22198
3524.25489 0.23491
3522.96913 0.25308
3521.68338 0.26973
3520.39762 0.27868
3519.11187 0.27882
3517.82611 0.27448
3516.54036 0.27068
3515.25460 0.26907
3513.96885 0.26916
3512.68309 0.27115
3511.39734 0.27550
3510.11158 0.28097
3508.82582 0.28553
3507.54007 0.28897
3506.25431 0.29288
3504.96856 0.29811
3503.68280 0.30347
3502.39705 0.30690
3501.11129 0.30742
3499.82554 0.30605
3498.53978 0.30528
3497.25403 0.30725
3495.96827 0.31200
3494.68252 0.31724
3493.39676 0.32050
3492.11101 0.32168
3490.82525 0.32333
3489.53950 0.32798
3488.25374 0.33549
3486.96799 0.34312
3485.68223 0.34785
3484.39648 0.34881
3483.11072 0.34796
3481.82497 0.34843
3480.53921 0.35184
3479.25346 0.35732
3477.96770 0.36297
3476.68195 0.36777
3475.39619 0.37166
3474.11044 0.37504
3472.82468 0.37892
3471.53893 0.38460
3470.25317 0.39211
3468.96741 0.39961
3467.68166 0.40560
3466.39590 0.41095
3465.11015 0.41750
3463.82439 0.42478
3462.53864 0.42969
3461.25288 0.42992
3459.96713 0.42704
3458.68137 0.42502
3457.39562 0.42639
3456.10986 0.43050
3454.82411 0.43515
3453.53835 0.43864
3452.25260 0.44058
3450.96684 0.44196
3449.68109 0.44496
3448.39533 0.45183
3447.10958 0.46297
3445.82382 0.47576
3444.53807 0.48542
3443.25231 0.48787
3441.96656 0.48288
3440.68080 0.47466
3439.39505 0.46885
3438.10929 0.46882
3436.82354 0.47480
3435.53778 0.48585
3434.25203 0.50111
3432.96627 0.51873
3431.68052 0.53487
3430.39476 0.54533
3429.10900 0.54873
3427.82325 0.54733
3426.53749 0.54484
3425.25174 0.54394
3423.96598 0.54494
3422.68023 0.54625
3421.39447 0.54614
3420.10872 0.54462
3418.82296 0.54369
3417.53721 0.54534
3416.25145 0.54937
3414.96570 0.55372
3413.67994 0.55631
3412.39419 0.55597
3411.10843 0.55195
3409.82268 0.54408
3408.53692 0.53387
3407.25117 0.52503
3405.96541 0.52196
3404.67966 0.52671
3403.39390 0.53628
3402.10815 0.54490
3400.82239 0.55074
3399.53664 0.55218
3398.25088 0.55182
3396.96513 0.55343
3395.67937 0.55795
3394.39362 0.56330
3393.10786 0.56682
3391.82211 0.56702
3390.53635 0.56331
3389.25060 0.55586
3387.96484 0.54699
3386.67908 0.54176
3385.39333 0.54438
3384.10757 0.55368
3382.82182 0.56359
3381.53606 0.56848
3380.25031 0.56713
3378.96455 0.56127
3377.67880 0.55272
3376.39304 0.54346
3375.10729 0.53650
3373.82153 0.53456
3372.53578 0.53740
3371.25002 0.54150
3369.96427 0.54276
3368.67851 0.53973
3367.39276 0.53445
3366.10700 0.53058
3364.82125 0.53028
3363.53549 0.53247
3362.24974 0.53386
3360.96398 0.53179
3359.67823 0.52634
3358.39247 0.51989
3357.10672 0.51506
3355.82096 0.51307
3354.53521 0.51348
3353.24945 0.51450
3351.96370 0.51404
3350.67794 0.51128
3349.39219 0.50781
3348.10643 0.50606
3346.82067 0.50633
3345.53492 0.50643
3344.24916 0.50460
3342.96341 0.50194
3341.67765 0.50082
3340.39190 0.50172
3339.10614 0.50262
3337.82039 0.50140
3336.53463 0.49796
3335.24888 0.49392
3333.96312 0.49071
3332.67737 0.48820
3331.39161 0.48530
3330.10586 0.48133
3328.82010 0.47670
3327.53435 0.47221
3326.24859 0.46815
3324.96284 0.46420
3323.67708 0.46035
3322.39133 0.45737
3321.10557 0.45633
3319.81982 0.45719
3318.53406 0.45840
3317.24831 0.45814
3315.96255 0.45581
3314.67680 0.45233
3313.39104 0.44939
3312.10529 0.44871
3310.81953 0.45096
3309.53378 0.45467
3308.24802 0.45675
3306.96227 0.45492
3305.67651 0.44969
3304.39075 0.44344
3303.10500 0.43815
3301.81924 0.43430
3300.53349 0.43147
3299.24773 0.42929
3297.96198 0.42795
3296.67622 0.42810
3295.39047 0.43027
3294.10471 0.43409
3292.81896 0.43801
3291.53320 0.43994
3290.24745 0.43820
3288.96169 0.43254
3287.67594 0.42456
3286.39018 0.41708
3285.10443 0.41247
3283.81867 0.41100
3282.53292 0.41057
3281.24716 0.40834
3279.96141 0.40292
3278.67565 0.39543
3277.38990 0.38863
3276.10414 0.38493
3274.81839 0.38476
3273.53263 0.38665
3272.24688 0.38851
3270.96112 0.38849
3269.67537 0.38508
3268.38961 0.37768
3267.10386 0.36796
3265.81810 0.35987
3264.53234 0.35679
3263.24659 0.35864
3261.96083 0.36257
3260.67508 0.36605
3259.38932 0.36859
3258.10357 0.37054
3256.81781 0.37144
3255.53206 0.37012
3254.24630 0.36602
3252.96055 0.36007
3251.67479 0.35434
3250.38904 0.35073
3249.10328 0.34968
3247.81753 0.34994
3246.53177 0.34959
3245.24602 0.34741
3243.96026 0.34342
3242.67451 0.33835
3241.38875 0.33323
3240.10300 0.32915
3238.81724 0.32708
3237.53149 0.32718
3236.24573 0.32809
3234.95998 0.32759
3233.67422 0.32434
3232.38847 0.31938
3231.10271 0.31538
3229.81696 0.31426
3228.53120 0.31564
3227.24545 0.31746
3225.95969 0.31777
3224.67393 0.31585
3223.38818 0.31228
3222.10242 0.30842
3220.81667 0.30543
3219.53091 0.30343
3218.24516 0.30167
3216.95940 0.29978
3215.67365 0.29831
3214.38789 0.29792
3213.10214 0.29828
3211.81638 0.29843
3210.53063 0.29756
3209.24487 0.29528
3207.95912 0.29152
3206.67336 0.28707
3205.38761 0.28348
3204.10185 0.28183
3202.81610 0.28157
3201.53034 0.28090
3200.24459 0.27850
3198.95883 0.27477
3197.67308 0.27157
3196.38732 0.27047
3195.10157 0.27117
3193.81581 0.27161
3192.53006 0.27009
3191.24430 0.26705
3189.95855 0.26425
3188.67279 0.26258
3187.38704 0.26127
3186.10128 0.25917
3184.81553 0.25594
3183.52977 0.25209
3182.24401 0.24829
3180.95826 0.24504
3179.67250 0.24260
3178.38675 0.24099
3177.10099 0.24017
3175.81524 0.24026
3174.52948 0.24137
3173.24373 0.24300
3171.95797 0.24369
3170.67222 0.24166
3169.38646 0.23648
3168.10071 0.22993
3166.81495 0.22489
3165.52920 0.22282
3164.24344 0.22269
3162.95769 0.22239
3161.67193 0.22101
3160.38618 0.21921
3159.10042 0.21801
3157.81467 0.21759
3156.52891 0.21745
3155.24316 0.21702
3153.95740 0.21613
3152.67165 0.21492
3151.38589 0.21353
3150.10014 0.21196
3148.81438 0.21030
3147.52863 0.20894
3146.24287 0.20819
3144.95712 0.20792
3143.67136 0.20776
3142.38560 0.20757
3141.09985 0.20738
3139.81409 0.20701
3138.52834 0.20610
3137.24258 0.20442
3135.95683 0.20198
3134.67107 0.19902
3133.38532 0.19619
3132.09956 0.19428
3130.81381 0.19358
3129.52805 0.19379
3128.24230 0.19447
3126.95654 0.19539
3125.67079 0.19618
3124.38503 0.19608
3123.09928 0.19450
3121.81352 0.19181
3120.52777 0.18917
3119.24201 0.18743
3117.95626 0.18649
3116.67050 0.18582
3115.38475 0.18542
3114.09899 0.18572
3112.81324 0.18664
3111.52748 0.18743
3110.24173 0.18736
3108.95597 0.18632
3107.67022 0.18444
3106.38446 0.18186
3105.09871 0.17891
3103.81295 0.17612
3102.52719 0.17382
3101.24144 0.17194
3099.95568 0.17018
3098.66993 0.16834
3097.38417 0.16651
3096.09842 0.16521
3094.81266 0.16513
3093.52691 0.16643
3092.24115 0.16833
3090.95540 0.16983
3089.66964 0.17037
3088.38389 0.16992
3087.09813 0.16862
3085.81238 0.16679
3084.52662 0.16503
3083.24087 0.16382
3081.95511 0.16294
3080.66936 0.16177
3079.38360 0.16014
3078.09785 0.15872
3076.81209 0.15808
3075.52634 0.15788
3074.24058 0.15731
3072.95483 0.15615
3071.66907 0.15480
3070.38332 0.15368
3069.09756 0.15299
3067.81181 0.15299
3066.52605 0.15376
3065.24030 0.15461
3063.95454 0.15429
3062.66879 0.15216
3061.38303 0.14902
3060.09727 0.14640
3058.81152 0.14522
3057.52576 0.14534
3056.24001 0.14597
3054.95425 0.14634
3053.66850 0.14597
3052.38274 0.14485
3051.09699 0.14345
3049.81123 0.14238
3048.52548 0.14173
3047.23972 0.14087
3045.95397 0.13907
3044.66821 0.13644
3043.38246 0.13398
3042.09670 0.13264
3040.81095 0.13251
3039.52519 0.13298
3038.23944 0.13352
3036.95368 0.13392
3035.66793 0.13395
3034.38217 0.13311
3033.09642 0.13132
3031.81066 0.12952
3030.52491 0.12898
3029.23915 0.12993
3027.95340 0.13113
3026.66764 0.13119
3025.38189 0.13001
3024.09613 0.12871
3022.81038 0.12822
3021.52462 0.12831
3020.23886 0.12810
3018.95311 0.12729
3017.66735 0.12622
3016.38160 0.12514
3015.09584 0.12384
3013.81009 0.12220
3012.52433 0.12066
3011.23858 0.11985
3009.95282 0.11993
3008.66707 0.12055
3007.38131 0.12135
3006.09556 0.12223
3004.80980 0.12300
3003.52405 0.12276
3002.23829 0.12097
3000.95254 0.12026
2999.66678 0.12079
2998.38103 0.11990
2997.09527 0.11893
2995.80952 0.11769
2994.52376 0.11622
2993.23801 0.11478
2991.95225 0.11387
2990.66650 0.11407
2989.38074 0.11533
2988.09499 0.11664
2986.80923 0.11690
2985.52348 0.11621
2984.23772 0.11580
2982.95197 0.11658
2981.66621 0.11816
2980.38046 0.11944
2979.09470 0.11980
2977.80894 0.11946
2976.52319 0.11940
2975.23743 0.12023
2973.95168 0.12179
2972.66592 0.12333
2971.38017 0.12410
2970.09441 0.12397
2968.80866 0.12368
2967.52290 0.12414
2966.23715 0.12549
2964.95139 0.12710
2963.66564 0.12841
2962.37988 0.12930
2961.09413 0.12984
2959.80837 0.12999
2958.52262 0.12977
2957.23686 0.12936
2955.95111 0.12895
2954.66535 0.12865
2953.37960 0.12853
2952.09384 0.12859
2950.80809 0.12859
2949.52233 0.12803
2948.23658 0.12653
2946.95082 0.12448
2945.66507 0.12306
2944.37931 0.12311
2943.09356 0.12415
2941.80780 0.12501
2940.52205 0.12525
2939.23629 0.12525
2937.95053 0.12537
2936.66478 0.12555
2935.37902 0.12595
2934.09327 0.12701
2932.80751 0.12874
2931.52176 0.13045
2930.23600 0.13144
2928.95025 0.13161
2927.66449 0.13122
2926.37874 0.13037
2925.09298 0.12898
2923.80723 0.12717
2922.52147 0.12536
2921.23572 0.12383
2919.94996 0.12243
2918.66421 0.12087
2917.37845 0.11912
2916.09270 0.11738
2914.80694 0.11568
2913.52119 0.11412
2912.23543 0.11292
2910.94968 0.11221
2909.66392 0.11174
2908.37817 0.11109
2907.09241 0.11007
2905.80666 0.10880
2904.52090 0.10749
2903.23515 0.10635
2901.94939 0.10543
2900.66364 0.10460
2899.37788 0.10363
2898.09212 0.10248
2896.80637 0.10136
2895.52061 0.10064
2894.23486 0.10054
2892.94910 0.10096
2891.66335 0.10151
2890.37759 0.10165
2889.09184 0.10104
2887.80608 0.09971
2886.52033 0.09805
2885.23457 0.09647
2883.94882 0.09523
2882.66306 0.09454
2881.37731 0.09447
2880.09155 0.09483
2878.80580 0.09523
2877.52004 0.09550
2876.23429 0.09575
2874.94853 0.09592
2873.66278 0.09564
2872.37702 0.09462
2871.09127 0.09314
2869.80551 0.09186
2868.51976 0.09123
2867.23400 0.09121
2865.94825 0.09145
2864.66249 0.09166
2863.37674 0.09185
2862.09098 0.09217
2860.80523 0.09250
2859.51947 0.09236
2858.23372 0.09140
2856.94796 0.08988
2855.66220 0.08849
2854.37645 0.08763
2853.09069 0.08702
2851.80494 0.08617
2850.51918 0.08502
2849.23343 0.08385
2847.94767 0.08273
2846.66192 0.08152
2845.37616 0.08035
2844.09041 0.07956
2842.80465 0.07925
2841.51890 0.07909
2840.23314 0.07878
2838.94739 0.07824
2837.66163 0.07745
2836.37588 0.07623
2835.09012 0.07459
2833.80437 0.07296
2832.51861 0.07191
2831.23286 0.07152
2829.94710 0.07128
2828.66135 0.07070
2827.37559 0.06982
2826.08984 0.06904
2824.80408 0.06861
2823.51833 0.06854
2822.23257 0.06876
2820.94682 0.06902
2819.66106 0.06890
2818.37531 0.06806
2817.08955 0.06663
2815.80379 0.06507
2814.51804 0.06382
2813.23228 0.06307
2811.94653 0.06277
2810.66077 0.06276
2809.37502 0.06276
2808.08926 0.06247
2806.80351 0.06176
2805.51775 0.06078
2804.23200 0.05995
2802.94624 0.05966
2801.66049 0.06007
2800.37473 0.06092
2799.08898 0.06162
2797.80322 0.06157
2796.51747 0.06060
2795.23171 0.05916
2793.94596 0.05789
2792.66020 0.05714
2791.37445 0.05688
2790.08869 0.05693
2788.80294 0.05702
2787.51718 0.05673
2786.23143 0.05575
2784.94567 0.05441
2783.65992 0.05349
2782.37416 0.05362
2781.08841 0.05469
2779.80265 0.05604
2778.51690 0.05703
2777.23114 0.05755
2775.94538 0.05780
2774.65963 0.05781
2773.37387 0.05737
2772.08812 0.05642
2770.80236 0.05529
2769.51661 0.05438
2768.23085 0.05380
2766.94510 0.05340
2765.65934 0.05308
2764.37359 0.05279
2763.08783 0.05248
2761.80208 0.05215
2760.51632 0.05192
2759.23057 0.05190
2757.94481 0.05190
2756.65906 0.05159
2755.37330 0.05091
2754.08755 0.05024
2752.80179 0.05003
2751.51604 0.05035
2750.23028 0.05081
2748.94453 0.05100
2747.65877 0.05078
2746.37302 0.05030
2745.08726 0.04989
2743.80151 0.04974
2742.51575 0.04985
2741.23000 0.05003
2739.94424 0.05016
2738.65849 0.05022
2737.37273 0.05020
2736.08698 0.05001
2734.80122 0.04962
2733.51546 0.04911
2732.22971 0.04861
2730.94395 0.04823
2729.65820 0.04802
2728.37244 0.04805
2727.08669 0.04829
2725.80093 0.04852
2724.51518 0.04845
2723.22942 0.04813
2721.94367 0.04785
2720.65791 0.04775
2719.37216 0.04751
2718.08640 0.04679
2716.80065 0.04573
2715.51489 0.04487
2714.22914 0.04457
2712.94338 0.04473
2711.65763 0.04513
2710.37187 0.04552
2709.08612 0.04565
2707.80036 0.04539
2706.51461 0.04500
2705.22885 0.04487
2703.94310 0.04501
2702.65734 0.04498
2701.37159 0.04449
2700.08583 0.04384
2698.80008 0.04355
2697.51432 0.04368
2696.22857 0.04376
2694.94281 0.04341
2693.65705 0.04274
2692.37130 0.04215
2691.08554 0.04188
2689.79979 0.04195
2688.51403 0.04220
2687.22828 0.04241
2685.94252 0.04230
2684.65677 0.04180
2683.37101 0.04123
2682.08526 0.04101
2680.79950 0.04111
2679.51375 0.04109
2678.22799 0.04057
2676.94224 0.03970
2675.65648 0.03897
2674.37073 0.03873
2673.08497 0.03898
2671.79922 0.03939
2670.51346 0.03960
2669.22771 0.03947
2667.94195 0.03917
2666.65620 0.03901
2665.37044 0.03914
2664.08469 0.03947
2662.79893 0.03980
2661.51318 0.04002
2660.22742 0.04009
2658.94167 0.03993
2657.65591 0.03953
2656.37016 0.03904
2655.08440 0.03872
2653.79865 0.03870
2652.51289 0.03888
2651.22713 0.03907
2649.94138 0.03903
2648.65562 0.03866
2647.36987 0.03816
2646.08411 0.03780
2644.79836 0.03773
2643.51260 0.03780
2642.22685 0.03780
2640.94109 0.03771
2639.65534 0.03769
2638.36958 0.03793
2637.08383 0.03841
2635.79807 0.03885
2634.51232 0.03880
2633.22656 0.03810
2631.94081 0.03702
2630.65505 0.03607
2629.36930 0.03547
2628.08354 0.03512
2626.79779 0.03487
2625.51203 0.03477
2624.22628 0.03486
2622.94052 0.03494
2621.65477 0.03475
2620.36901 0.03426
2619.08326 0.03372
2617.79750 0.03333
2616.51175 0.03328
2615.22599 0.03363
2613.94024 0.03423
2612.65448 0.03469
2611.36872 0.03469
2610.08297 0.03424
2608.79721 0.03369
2607.51146 0.03336
2606.22570 0.03333
2604.93995 0.03331
2603.65419 0.03285
2602.36844 0.03182
2601.08268 0.03059
2599.79693 0.02962
2598.51117 0.02915
2597.22542 0.02925
2595.93966 0.03000
2594.65391 0.03112
2593.36815 0.03199
2592.08240 0.03216
2590.79664 0.03188
2589.51089 0.03171
2588.22513 0.03180
2586.93938 0.03187
2585.65362 0.03165
2584.36787 0.03127
2583.08211 0.03104
2581.79636 0.03105
2580.51060 0.03115
2579.22485 0.03117
2577.93909 0.03104
2576.65334 0.03070
2575.36758 0.03012
2574.08183 0.02938
2572.79607 0.02861
2571.51031 0.02777
2570.22456 0.02687
2568.93880 0.02619
2567.65305 0.02616
2566.36729 0.02683
2565.08154 0.02776
2563.79578 0.02838
2562.51003 0.02858
2561.22427 0.02871
2559.93852 0.02914
2558.65276 0.02978
2557.36701 0.03014
2556.08125 0.02994
2554.79550 0.02945
2553.50974 0.02907
2552.22399 0.02882
2550.93823 0.02842
2549.65248 0.02782
2548.36672 0.02733
2547.08097 0.02709
2545.79521 0.02676
2544.50946 0.02598
2543.22370 0.02506
2541.93795 0.02484
2540.65219 0.02588
2539.36644 0.02778
2538.08068 0.02934
2536.79493 0.02967
2535.50917 0.02893
2534.22342 0.02814
2532.93766 0.02811
2531.65191 0.02877
2530.36615 0.02949
2529.08039 0.02980
2527.79464 0.02964
2526.50888 0.02920
2525.22313 0.02866
2523.93737 0.02803
2522.65162 0.02727
2521.36586 0.02641
2520.08011 0.02575
2518.79435 0.02550
2517.50860 0.02543
2516.22284 0.02514
2514.93709 0.02458
2513.65133 0.02418
2512.36558 0.02439
2511.07982 0.02522
2509.79407 0.02622
2508.50831 0.02676
2507.22256 0.02661
2505.93680 0.02617
2504.65105 0.02602
2503.36529 0.02618
2502.07954 0.02600
2500.79378 0.02516
2499.50803 0.02427
2498.22227 0.02428
2496.93652 0.02531
2495.65076 0.02651
2494.36501 0.02710
2493.07925 0.02704
2491.79350 0.02668
2490.50774 0.02615
2489.22198 0.02539
2487.93623 0.02442
2486.65047 0.02336
2485.36472 0.02242
2484.07896 0.02190
2482.79321 0.02202
2481.50745 0.02264
2480.22170 0.02332
2478.93594 0.02369
2477.65019 0.02364
2476.36443 0.02341
2475.07868 0.02351
2473.79292 0.02436
2472.50717 0.02566
2471.22141 0.02644
2469.93566 0.02601
2468.64990 0.02467
2467.36415 0.02335
2466.07839 0.02270
2464.79264 0.02268
2463.50688 0.02303
2462.22113 0.02352
2460.93537 0.02389
2459.64962 0.02391
2458.36386 0.02363
2457.07811 0.02340
2455.79235 0.02350
2454.50660 0.02376
2453.22084 0.02384
2451.93509 0.02365
2450.64933 0.02349
2449.36357 0.02360
2448.07782 0.02400
2446.79206 0.02456
2445.50631 0.02528
2444.22055 0.02626
2442.93480 0.02733
2441.64904 0.02789
2440.36329 0.02734
2439.07753 0.02576
2437.79178 0.02392
2436.50602 0.02252
2435.22027 0.02177
2433.93451 0.02158
2432.64876 0.02181
2431.36300 0.02220
2430.07725 0.02238
2428.79149 0.02213
2427.50574 0.02159
2426.21998 0.02111
2424.93423 0.02091
2423.64847 0.02096
2422.36272 0.02116
2421.07696 0.02154
2419.79121 0.02215
2418.50545 0.02277
2417.21970 0.02301
2415.93394 0.02275
2414.64819 0.02233
2413.36243 0.02213
2412.07668 0.02210
2410.79092 0.02190
2409.50517 0.02124
2408.21941 0.02024
2406.93365 0.01938
2405.64790 0.01908
2404.36214 0.01938
2403.07639 0.02008
2401.79063 0.02103
2400.50488 0.02190
2399.21912 0.02033
2397.93337 0.02152
2396.64761 0.02201
2395.36186 0.02150
2394.07610 0.02123
2392.79035 0.02157
2391.50459 0.02217
2390.21884 0.02244
2388.93308 0.02210
2387.64733 0.02138
2386.36157 0.02076
2385.07582 0.02054
2383.79006 0.02075
2382.50431 0.02116
2381.21855 0.02138
2379.93280 0.02125
2378.64704 0.02096
2377.36129 0.02091
2376.07553 0.02130
2374.78978 0.02190
2373.50402 0.02228
2372.21827 0.02220
2370.93251 0.02180
2369.64676 0.02144
2368.36100 0.02136
2367.07524 0.02144
2365.78949 0.02138
2364.50373 0.02109
2363.21798 0.02078
2361.93222 0.02071
2360.64647 0.02096
2359.36071 0.02133
2358.07496 0.02153
2356.78920 0.02142
2355.50345 0.02109
2354.21769 0.02076
2352.93194 0.02060
2351.64618 0.02061
2350.36043 0.02063
2349.07467 0.02051
2347.78892 0.02024
2346.50316 0.01997
2345.21741 0.01986
2343.93165 0.01994
2342.64590 0.02007
2341.36014 0.02010
2340.07439 0.02007
2338.78863 0.02013
2337.50288 0.02039
2336.21712 0.02072
2334.93137 0.02088
2333.64561 0.02073
2332.35986 0.02035
2331.07410 0.01999
2329.78835 0.01993
2328.50259 0.02024
2327.21684 0.02066
2325.93108 0.02088
2324.64532 0.02076
2323.35957 0.02026
2322.07381 0.01970
2320.78806 0.01945
2319.50230 0.01950
2318.21655 0.01965
2316.93079 0.01980
2315.64504 0.02011
2314.35928 0.02071
2313.07353 0.02141
2311.78777 0.02175
2310.50202 0.02156
2309.21626 0.02101
2307.93051 0.02039
2306.64475 0.01975
2305.35900 0.01907
2304.07324 0.01853
2302.78749 0.01839
2301.50173 0.01861
2300.21598 0.01877
2298.93022 0.01835
2297.64447 0.01738
2296.35871 0.01645
2295.07296 0.01612
2293.78720 0.01642
2292.50145 0.01694
2291.21569 0.01734
2289.92994 0.01759
2288.64418 0.01785
2287.35843 0.01814
2286.07267 0.01837
2284.78691 0.01839
2283.50116 0.01821
2282.21540 0.01794
2280.92965 0.01760
2279.64389 0.01709
2278.35814 0.01636
2277.07238 0.01545
2275.78663 0.01454
2274.50087 0.01381
2273.21512 0.01342
2271.92936 0.01328
2270.64361 0.01315
2269.35785 0.01299
2268.07210 0.01320
2266.78634 0.01409
2265.50059 0.01537
2264.21483 0.01630
2262.92908 0.01651
2261.64332 0.01621
2260.35757 0.01578
2259.07181 0.01535
2257.78606 0.01497
2256.50030 0.01483
2255.21455 0.01510
2253.92879 0.01576
2252.64304 0.01671
2251.35728 0.01830
2250.07153 0.01989
2248.78577 0.01871
2247.50002 0.01813
2246.21426 0.01651
2244.92850 0.01443
2243.64275 0.01294
2242.35699 0.01242
2241.07124 0.01234
2239.78548 0.01221
2238.49973 0.01227
2237.21397 0.01292
2235.92822 0.01395
2234.64246 0.01482
2233.35671 0.01532
2232.07095 0.01556
2230.78520 0.01547
2229.49944 0.01482
2228.21369 0.01369
2226.92793 0.01270
2225.64218 0.01247
2224.35642 0.01290
2223.07067 0.01335
2221.78491 0.01334
2220.49916 0.01304
2219.21340 0.01280
2217.92765 0.01267
2216.64189 0.01258
2215.35614 0.01253
2214.07038 0.01235
2212.78463 0.01184
2211.49887 0.01153
2210.21312 0.01244
2208.92736 0.01473
2207.64161 0.01699
2206.35585 0.01767
2205.07010 0.01656
2203.78434 0.01449
2202.49858 0.01218
2201.21283 0.01009
2199.92707 0.00870
2198.64132 0.00826
2197.35556 0.00837
2196.06981 0.00852
2194.78405 0.00884
2193.49830 0.00979
2192.21254 0.01142
2190.92679 0.01332
2189.64103 0.01526
2188.35528 0.01725
2187.06952 0.01876
2185.78377 0.01875
2184.49801 0.01665
2183.21226 0.01335
2181.92650 0.01043
2180.64075 0.00847
2179.35499 0.00667
2178.06924 0.00444
2176.78348 0.00262
2175.49773 0.00265
2174.21197 0.00490
2172.92622 0.00850
2171.64046 0.01231
2170.35471 0.01530
2169.06895 0.01641
2167.78320 0.01502
2166.49744 0.01189
2165.21169 0.00889
2163.92593 0.00769
2162.64017 0.00875
2161.35442 0.01135
2160.06866 0.01422
2158.78291 0.01632
2157.49715 0.01712
2156.21140 0.01645
2154.92564 0.01455
2153.63989 0.01248
2152.35413 0.01178
2151.06838 0.01305
2149.78262 0.01513
2148.49687 0.01616
2147.21111 0.01542
2145.92536 0.01366
2144.63960 0.01194
2143.35385 0.01068
2142.06809 0.00997
2140.78234 0.01004
2139.49658 0.01108
2138.21083 0.01276
2136.92507 0.01441
2135.63932 0.01546
2134.35356 0.01576
2133.06781 0.01540
2131.78205 0.01457
2130.49630 0.01376
2129.21054 0.01354
2127.92479 0.01405
2126.63903 0.01464
2125.35328 0.01441
2124.06752 0.01311
2122.78176 0.01132
2121.49601 0.00999
2120.21025 0.00982
2118.92450 0.01069
2117.63874 0.01185
2116.35299 0.01252
2115.06723 0.01258
2113.78148 0.01256
2112.49572 0.01296
2111.20997 0.01370
2109.92421 0.01426
2108.63846 0.01418
2107.35270 0.01343
2106.06695 0.01239
2104.78119 0.01145
2103.49544 0.01088
2102.20968 0.01065
2100.92393 0.01108
2099.63817 0.01912
2098.35242 0.02246
2097.06666 0.02132
2095.78091 0.01845
2094.49515 0.01502
2093.20940 0.01198
2091.92364 0.00992
2090.63789 0.00872
2089.35213 0.00794
2088.06638 0.00738
2086.78062 0.00717
2085.49487 0.00747
2084.20911 0.00837
2082.92336 0.00988
2081.63760 0.01193
2080.35184 0.01419
2079.06609 0.01621
2077.78033 0.01764
2076.49458 0.01836
2075.20882 0.01853
2073.92307 0.01846
2072.63731 0.01842
2071.35156 0.01846
2070.06580 0.01844
2068.78005 0.01832
2067.49429 0.01821
2066.20854 0.01809
2064.92278 0.01762
2063.63703 0.01633
2062.35127 0.01405
2061.06552 0.01127
2059.77976 0.00876
2058.49401 0.00706
2057.20825 0.00611
2055.92250 0.00564
2054.63674 0.00586
2053.35099 0.00769
2052.06523 0.01185
2050.77948 0.01746
2049.49372 0.02219
2048.20797 0.02411
2046.92221 0.02339
2045.63646 0.02180
2044.35070 0.02079
2043.06495 0.02051
2041.77919 0.02060
2040.49343 0.02114
2039.20768 0.02260
2037.92192 0.02491
2036.63617 0.02727
2035.35041 0.02871
2034.06466 0.02877
2032.77890 0.02738
2031.49315 0.02459
2030.20739 0.02085
2028.92164 0.01725
2027.63588 0.01494
2026.35013 0.01421
2025.06437 0.01443
2023.77862 0.01503
2022.49286 0.01595
2021.20711 0.01721
2019.92135 0.01848
2018.63560 0.01936
2017.34984 0.01979
2016.06409 0.01992
2014.77833 0.01998
2013.49258 0.02038
2012.20682 0.02174
2010.92107 0.02439
2009.63531 0.02776
2008.34956 0.03045
2007.06380 0.03109
2005.77805 0.02903
2004.49229 0.02461
2003.20654 0.01885
2001.92078 0.01301
2000.63503 0.00835
1999.34927 0.00566
1998.06351 0.00500
1996.77776 0.00573
1995.49200 0.00694
1994.20625 0.00801
1992.92049 0.00867
1991.63474 0.00889
1990.34898 0.00880
1989.06323 0.00866
1987.77747 0.00873
1986.49172 0.00914
1985.20596 0.01009
1983.92021 0.01219
1982.63445 0.01633
1981.34870 0.02291
1980.06294 0.03079
1978.77719 0.03745
1977.49143 0.04071
1976.20568 0.04033
1974.91992 0.03768
1973.63417 0.03430
1972.34841 0.03122
1971.06266 0.02906
1969.77690 0.02796
1968.49115 0.02735
1967.20539 0.02641
1965.91964 0.02477
1964.63388 0.02277
1963.34813 0.02102
1962.06237 0.01996
1960.77662 0.01946
1959.49086 0.01881
1958.20510 0.01730
1956.91935 0.01488
1955.63359 0.01237
1954.34784 0.01077
1953.06208 0.01068
1951.77633 0.01195
1950.49057 0.01397
1949.20482 0.01589
1947.91906 0.01710
1946.63331 0.01744
1945.34755 0.01724
1944.06180 0.01703
1942.77604 0.01714
1941.49029 0.01753
1940.20453 0.01795
1938.91878 0.01829
1937.63302 0.01854
1936.34727 0.01863
1935.06151 0.01842
1933.77576 0.01788
1932.49000 0.01722
1931.20425 0.01675
1929.91849 0.01662
1928.63274 0.01684
1927.34698 0.01721
1926.06123 0.01736
1924.77547 0.01692
1923.48972 0.01590
1922.20396 0.01485
1920.91821 0.01435
1919.63245 0.01459
1918.34669 0.01527
1917.06094 0.01595
1915.77518 0.01633
1914.48943 0.01630
1913.20367 0.01594
1911.91792 0.01545
1910.63216 0.01509
1909.34641 0.01501
1908.06065 0.01518
1906.77490 0.01545
1905.48914 0.01566
1904.20339 0.01569
1902.91763 0.01551
1901.63188 0.01521
1900.34612 0.01503
1899.06037 0.01518
1897.77461 0.01561
1896.48886 0.01610
1895.20310 0.01642
1893.91735 0.01656
1892.63159 0.01653
1891.34584 0.01631
1890.06008 0.01595
1888.77433 0.01564
1887.48857 0.01555
1886.20282 0.01562
1884.91706 0.01565
1883.63131 0.01552
1882.34555 0.01532
1881.05980 0.01517
1879.77404 0.01509
1878.48829 0.01495
1877.20253 0.01468
1875.91677 0.01433
1874.63102 0.01409
1873.34526 0.01408
1872.05951 0.01424
1870.77375 0.01438
1869.48800 0.01439
1868.20224 0.01433
1866.91649 0.01431
1865.63073 0.01435
1864.34498 0.01441
1863.05922 0.01445
1861.77347 0.01446
1860.48771 0.01446
1859.20196 0.01446
1857.91620 0.01447
1856.63045 0.01445
1855.34469 0.01439
1854.05894 0.01429
1852.77318 0.01417
1851.48743 0.01399
1850.20167 0.01380
1848.91592 0.01369
1847.63016 0.01379
1846.34441 0.01406
1845.05865 0.01429
1843.77290 0.01429
1842.48714 0.01398
1841.20139 0.01343
1839.91563 0.01283
1838.62988 0.01237
1837.34412 0.01217
1836.05836 0.01217
1834.77261 0.01227
1833.48685 0.01242
1832.20110 0.01270
1830.91534 0.01318
1829.62959 0.01377
1828.34383 0.01433
1827.05808 0.01485
1825.77232 0.01544
1824.48657 0.01622
1823.20081 0.01719
1821.91506 0.01817
1820.62930 0.01877
1819.34355 0.01855
1818.05779 0.01732
1816.77204 0.01529
1815.48628 0.01308
1814.20053 0.01130
1812.91477 0.01027
1811.62902 0.00991
1810.34326 0.00993
1809.05751 0.01001
1807.77175 0.01000
1806.48600 0.00993
1805.20024 0.00995
1803.91449 0.01019
1802.62873 0.01058
1801.34298 0.01097
1800.05722 0.01124
1798.77147 0.01143
1797.48571 0.01169
1796.19995 0.01213
1794.91420 0.01273
1793.62844 0.01327
1792.34269 0.01348
1791.05693 0.01327
1789.77118 0.01288
1788.48542 0.01263
1787.19967 0.01267
1785.91391 0.01294
1784.62816 0.01331
1783.34240 0.01369
1782.05665 0.01402
1780.77089 0.01417
1779.48514 0.01403
1778.19938 0.01364
1776.91363 0.01324
1775.62787 0.01305
1774.34212 0.01311
1773.05636 0.01319
1771.77061 0.01306
1770.48485 0.01267
1769.19910 0.01222
1767.91334 0.01186
1766.62759 0.01170
1765.34183 0.01175
1764.05608 0.01196
1762.77032 0.01217
1761.48457 0.01221
1760.19881 0.01208
1758.91306 0.01187
1757.62730 0.01172
1756.34155 0.01173
1755.05579 0.01196
1753.77003 0.01239
1752.48428 0.01286
1751.19852 0.01309
1749.91277 0.01291
1748.62701 0.01246
1747.34126 0.01201
1746.05550 0.01173
1744.76975 0.01169
1743.48399 0.01181
1742.19824 0.01199
1740.91248 0.01212
1739.62673 0.01217
1738.34097 0.01236
1737.05522 0.01292
1735.76946 0.01378
1734.48371 0.01448
1733.19795 0.01462
1731.91220 0.01423
1730.62644 0.01371
1729.34069 0.01339
1728.05493 0.01333
1726.76918 0.01338
1725.48342 0.01340
1724.19767 0.01339
1722.91191 0.01350
1721.62616 0.01394
1720.34040 0.01481
1719.05465 0.01587
1717.76889 0.01666
1716.48314 0.01686
1715.19738 0.01659
1713.91162 0.01626
1712.62587 0.01620
1711.34011 0.01647
1710.05436 0.01700
1708.76860 0.01765
1707.48285 0.01830
1706.19709 0.01893
1704.91134 0.01969
1703.62558 0.02078
1702.33983 0.02220
1701.05407 0.02364
1699.76832 0.02478
1698.48256 0.02563
1697.19681 0.02631
1695.91105 0.02680
1694.62530 0.02698
1693.33954 0.02696
1692.05379 0.02706
1690.76803 0.02757
1689.48228 0.02861
1688.19652 0.03015
1686.91077 0.03202
1685.62501 0.03379
1684.33926 0.03491
1683.05350 0.03518
1681.76775 0.03503
1680.48199 0.03511
1679.19624 0.03576
1677.91048 0.03684
1676.62473 0.03794
1675.33897 0.03876
1674.05322 0.03935
1672.76746 0.03997
1671.48170 0.04082
1670.19595 0.04178
1668.91019 0.04262
1667.62444 0.04325
1666.33868 0.04380
1665.05293 0.04447
1663.76717 0.04524
1662.48142 0.04594
1661.19566 0.04644
1659.90991 0.04678
1658.62415 0.04723
1657.33840 0.04819
1656.05264 0.04983
1654.76689 0.05169
1653.48113 0.05288
1652.19538 0.05287
1650.90962 0.05208
1649.62387 0.05145
1648.33811 0.05152
1647.05236 0.05199
1645.76660 0.05219
1644.48085 0.05189
1643.19509 0.05135
1641.90934 0.05094
1640.62358 0.05085
1639.33783 0.05111
1638.05207 0.05160
1636.76632 0.05197
1635.48056 0.05182
1634.19481 0.05102
1632.90905 0.04987
1631.62329 0.04882
1630.33754 0.04807
1629.05178 0.04755
1627.76603 0.04710
1626.48027 0.04664
1625.19452 0.04611
1623.90876 0.04543
1622.62301 0.04457
1621.33725 0.04373
1620.05150 0.04319
1618.76574 0.04295
1617.47999 0.04270
1616.19423 0.04203
1614.90848 0.04093
1613.62272 0.03975
1612.33697 0.03888
1611.05121 0.03836
1609.76546 0.03802
1608.47970 0.03767
1607.19395 0.03728
1605.90819 0.03689
1604.62244 0.03656
1603.33668 0.03631
1602.05093 0.03613
1600.76517 0.03599
1599.47942 0.03587
1598.19366 0.03576
1596.90791 0.03567
1595.62215 0.03565
1594.33640 0.03568
1593.05064 0.03575
1591.76488 0.03583
1590.47913 0.03591
1589.19337 0.03600
1587.90762 0.03612
1586.62186 0.03629
1585.33611 0.03650
1584.05035 0.03669
1582.76460 0.03685
1581.47884 0.03706
1580.19309 0.03754
1578.90733 0.03835
1577.62158 0.03930
1576.33582 0.03993
1575.05007 0.04004
1573.76431 0.03990
1572.47856 0.03996
1571.19280 0.04039
1569.90705 0.04094
1568.62129 0.04131
1567.33554 0.04140
1566.04978 0.04137
1564.76403 0.04151
1563.47827 0.04214
1562.19252 0.04337
1560.90676 0.04487
1559.62101 0.04601
1558.33525 0.04627
1557.04950 0.04576
1555.76374 0.04506
1554.47799 0.04464
1553.19223 0.04456
1551.90648 0.04463
1550.62072 0.04469
1549.33496 0.04473
1548.04921 0.04480
1546.76345 0.04491
1545.47770 0.04511
1544.19194 0.04547
1542.90619 0.04599
1541.62043 0.04648
1540.33468 0.04658
1539.04892 0.04604
1537.76317 0.04506
1536.47741 0.04419
1535.19166 0.04380
1533.90590 0.04378
1532.62015 0.04382
1531.33439 0.04374
1530.04864 0.04365
1528.76288 0.04370
1527.47713 0.04387
1526.19137 0.04410
1524.90562 0.04438
1523.61986 0.04475
1522.33411 0.04510
1521.04835 0.04523
1519.76260 0.04506
1518.47684 0.04478
1517.19109 0.04460
1515.90533 0.04464
1514.61958 0.04483
1513.33382 0.04509
1512.04807 0.04545
1510.76231 0.04606
1509.47655 0.04698
1508.19080 0.04796
1506.90504 0.04851
1505.61929 0.04834
1504.33353 0.04764
1503.04778 0.04695
1501.76202 0.04675
1500.47627 0.04707
1499.19051 0.04764
1497.90476 0.04808
1496.61900 0.04819
1495.33325 0.04800
1494.04749 0.04774
1492.76174 0.04767
1491.47598 0.04784
1490.19023 0.04807
1488.90447 0.04818
1487.61872 0.04812
1486.33296 0.04802
1485.04721 0.04803
1483.76145 0.04821
1482.47570 0.04852
1481.18994 0.04888
1479.90419 0.04930
1478.61843 0.04984
1477.33268 0.05059
1476.04692 0.05155
1474.76117 0.05255
1473.47541 0.05335
1472.18966 0.05374
1470.90390 0.05376
1469.61814 0.05370
1468.33239 0.05386
1467.04663 0.05433
1465.76088 0.05491
1464.47512 0.05535
1463.18937 0.05566
1461.90361 0.05612
1460.61786 0.05705
1459.33210 0.05847
1458.04635 0.05996
1456.76059 0.06099
1455.47484 0.06134
1454.18908 0.06128
1452.90333 0.06121
1451.61757 0.06135
1450.33182 0.06163
1449.04606 0.06188
1447.76031 0.06198
1446.47455 0.06189
1445.18880 0.06162
1443.90304 0.06121
1442.61729 0.06071
1441.33153 0.06027
1440.04578 0.06002
1438.76002 0.05997
1437.47427 0.05991
1436.18851 0.05964
1434.90276 0.05916
1433.61700 0.05870
1432.33125 0.05852
1431.04549 0.05864
1429.75974 0.05892
1428.47398 0.05925
1427.18822 0.05965
1425.90247 0.06017
1424.61671 0.06084
1423.33096 0.06164
1422.04520 0.06251
1420.75945 0.06336
1419.47369 0.06402
1418.18794 0.06440
1416.90218 0.06459
1415.61643 0.06473
1414.33067 0.06498
1413.04492 0.06530
1411.75916 0.06558
1410.47341 0.06573
1409.18765 0.06575
1407.90190 0.06566
1406.61614 0.06545
1405.33039 0.06507
1404.04463 0.06453
1402.75888 0.06393
1401.47312 0.06335
1400.18737 0.06277
1398.90161 0.06215
1397.61586 0.06144
1396.33010 0.06062
1395.04435 0.05967
1393.75859 0.05860
1392.47284 0.05748
1391.18708 0.05647
1389.90133 0.05562
1388.61557 0.05484
1387.32981 0.05398
1386.04406 0.05298
1384.75830 0.05190
1383.47255 0.05086
1382.18679 0.04991
1380.90104 0.04901
1379.61528 0.04810
1378.32953 0.04716
1377.04377 0.04620
1375.75802 0.04522
1374.47226 0.04421
1373.18651 0.04317
1371.90075 0.04209
1370.61500 0.04102
1369.32924 0.03996
1368.04349 0.03897
1366.75773 0.03808
1365.47198 0.03730
1364.18622 0.03659
1362.90047 0.03584
1361.61471 0.03502
1360.32896 0.03417
1359.04320 0.03337
1357.75745 0.03267
1356.47169 0.03204
1355.18594 0.03146
1353.90018 0.03091
1352.61443 0.03039
1351.32867 0.02992
1350.04292 0.02949
1348.75716 0.02911
1347.47141 0.02877
1346.18565 0.02843
1344.89989 0.02810
1343.61414 0.02778
1342.32838 0.02749
1341.04263 0.02719
1339.75687 0.02688
1338.47112 0.02658
1337.18536 0.02631
1335.89961 0.02609
1334.61385 0.02592
1333.32810 0.02575
1332.04234 0.02552
1330.75659 0.02521
1329.47083 0.02486
1328.18508 0.02452
1326.89932 0.02425
1325.61357 0.02405
1324.32781 0.02390
1323.04206 0.02374
1321.75630 0.02356
1320.47055 0.02335
1319.18479 0.02312
1317.89904 0.02289
1316.61328 0.02264
1315.32753 0.02238
1314.04177 0.02213
1312.75602 0.02190
1311.47026 0.02170
1310.18451 0.02154
1308.89875 0.02144
1307.61300 0.02137
1306.32724 0.02130
1305.04148 0.02118
1303.75573 0.02101
1302.46997 0.02081
1301.18422 0.02061
1299.89846 0.02044
1298.61271 0.02028
1297.32695 0.02013
1296.04120 0.02000
1294.75544 0.01989
1293.46969 0.01980
1292.18393 0.01970
1290.89818 0.01957
1289.61242 0.01942
1288.32667 0.01926
1287.04091 0.01912
1285.75516 0.01904
1284.46940 0.01901
1283.18365 0.01900
1281.89789 0.01898
1280.61214 0.01895
1279.32638 0.01891
1278.04063 0.01883
1276.75487 0.01868
1275.46912 0.01849
1274.18336 0.01832
1272.89761 0.01821
1271.61185 0.01817
1270.32610 0.01818
1269.04034 0.01823
1267.75459 0.01827
1266.46883 0.01832
1265.18307 0.01840
1263.89732 0.01852
1262.61156 0.01866
1261.32581 0.01876
1260.04005 0.01874
1258.75430 0.01862
1257.46854 0.01844
1256.18279 0.01828
1254.89703 0.01817
1253.61128 0.01811
1252.32552 0.01807
1251.03977 0.01806
1249.75401 0.01806
1248.46826 0.01806
1247.18250 0.01804
1245.89675 0.01800
1244.61099 0.01794
1243.32524 0.01788
1242.03948 0.01781
1240.75373 0.01776
1239.46797 0.01771
1238.18222 0.01765
1236.89646 0.01757
1235.61071 0.01748
1234.32495 0.01737
1233.03920 0.01723
1231.75344 0.01704
1230.46769 0.01679
1229.18193 0.01651
1227.89618 0.01624
1226.61042 0.01601
1225.32467 0.01581
1224.03891 0.01561
1222.75315 0.01539
1221.46740 0.01517
1220.18164 0.01496
1218.89589 0.01477
1217.61013 0.01462
1216.32438 0.01450
1215.03862 0.01440
1213.75287 0.01435
1212.46711 0.01435
1211.18136 0.01441
1209.89560 0.01454
1208.60985 0.01471
1207.32409 0.01492
1206.03834 0.01513
1204.75258 0.01532
1203.46683 0.01558
1202.18107 0.01590
1200.89532 0.01569
1199.60956 0.01433
1198.32381 0.01428
1197.03805 0.01422
1195.75230 0.01407
1194.46654 0.01386
1193.18079 0.01364
1191.89503 0.01349
1190.60928 0.01343
1189.32352 0.01341
1188.03777 0.01335
1186.75201 0.01322
1185.46626 0.01305
1184.18050 0.01289
1182.89474 0.01278
1181.60899 0.01273
1180.32323 0.01273
1179.03748 0.01273
1177.75172 0.01274
1176.46597 0.01277
1175.18021 0.01283
1173.89446 0.01292
1172.60870 0.01297
1171.32295 0.01299
1170.03719 0.01301
1168.75144 0.01304
1167.46568 0.01308
1166.17993 0.01312
1164.89417 0.01317
1163.60842 0.01322
1162.32266 0.01328
1161.03691 0.01329
1159.75115 0.01322
1158.46540 0.01311
1157.17964 0.01305
1155.89389 0.01311
1154.60813 0.01327
1153.32238 0.01347
1152.03662 0.01368
1150.75087 0.01390
1149.46511 0.01415
1148.17936 0.01439
1146.89360 0.01460
1145.60785 0.01480
1144.32209 0.01503
1143.03633 0.01531
1141.75058 0.01562
1140.46482 0.01594
1139.17907 0.01631
1137.89331 0.01676
1136.60756 0.01731
1135.32180 0.01794
1134.03605 0.01862
1132.75029 0.01935
1131.46454 0.02019
1130.17878 0.02117
1128.89303 0.02225
1127.60727 0.02342
1126.32152 0.02466
1125.03576 0.02596
1123.75001 0.02729
1122.46425 0.02863
1121.17850 0.02997
1119.89274 0.03136
1118.60699 0.03285
1117.32123 0.03441
1116.03548 0.03603
1114.74972 0.03773
1113.46397 0.03948
1112.17821 0.04120
1110.89246 0.04284
1109.60670 0.04441
1108.32095 0.04594
1107.03519 0.04746
1105.74944 0.04893
1104.46368 0.05033
1103.17793 0.05168
1101.89217 0.05301
1100.60641 0.05437
1099.32066 0.05571
1098.03490 0.05699
1096.74915 0.05815
1095.46339 0.05919
1094.17764 0.06013
1092.89188 0.06097
1091.60613 0.06173
1090.32037 0.06242
1089.03462 0.06307
1087.74886 0.06368
1086.46311 0.06428
1085.17735 0.06493
1083.89160 0.06566
1082.60584 0.06645
1081.32009 0.06725
1080.03433 0.06811
1078.74858 0.06906
1077.46282 0.07010
1076.17707 0.07117
1074.89131 0.07226
1073.60556 0.07340
1072.31980 0.07464
1071.03405 0.07600
1069.74829 0.07742
1068.46254 0.07884
1067.17678 0.08021
1065.89103 0.08157
1064.60527 0.08296
1063.31952 0.08440
1062.03376 0.08586
1060.74800 0.08727
1059.46225 0.08863
1058.17649 0.08996
1056.89074 0.09131
1055.60498 0.09269
1054.31923 0.09405
1053.03347 0.09535
1051.74772 0.09660
1050.46196 0.09784
1049.17621 0.09913
1047.89045 0.10046
1046.60470 0.10181
1045.31894 0.10315
1044.03319 0.10448
1042.74743 0.10580
1041.46168 0.10712
1040.17592 0.10842
1038.89017 0.10972
1037.60441 0.11106
1036.31866 0.11243
1035.03290 0.11375
1033.74715 0.11494
1032.46139 0.11599
1031.17564 0.11692
1029.88988 0.11780
1028.60413 0.11863
1027.31837 0.11941
1026.03262 0.12012
1024.74686 0.12075
1023.46111 0.12127
1022.17535 0.12165
1020.88960 0.12185
1019.60384 0.12183
1018.31808 0.12162
1017.03233 0.12127
1015.74657 0.12082
1014.46082 0.12028
1013.17506 0.11960
1011.88931 0.11876
1010.60355 0.11778
1009.31780 0.11672
1008.03204 0.11558
1006.74629 0.11435
1005.46053 0.11300
1004.17478 0.11153
1002.88902 0.10995
1001.60327 0.10827
1000.31751 0.10651
999.03176 0.10469
997.74600 0.10284
996.46025 0.10098
995.17449 0.09909
993.88874 0.09716
992.60298 0.09520
991.31723 0.09325
990.03147 0.09132
988.74572 0.08940
987.45996 0.08750
986.17421 0.08565
984.88845 0.08382
983.60270 0.08197
982.31694 0.08009
981.03119 0.07823
979.74543 0.07648
978.45967 0.07483
977.17392 0.07324
975.88816 0.07172
974.60241 0.07032
973.31665 0.06906
972.03090 0.06798
970.74514 0.06708
969.45939 0.06641
968.17363 0.06602
966.88788 0.06590
965.60212 0.06599
964.31637 0.06621
963.03061 0.06645
961.74486 0.06660
960.45910 0.06657
959.17335 0.06629
957.88759 0.06573
956.60184 0.06490
955.31608 0.06387
954.03033 0.06276
952.74457 0.06169
951.45882 0.06068
950.17306 0.05966
948.88731 0.05855
947.60155 0.05736
946.31580 0.05617
945.03004 0.05505
943.74429 0.05398
942.45853 0.05293
941.17278 0.05192
939.88702 0.05100
938.60126 0.05022
937.31551 0.04956
936.02975 0.04896
934.74400 0.04833
933.45824 0.04762
932.17249 0.04682
930.88673 0.04599
929.60098 0.04516
928.31522 0.04439
927.02947 0.04370
925.74371 0.04309
924.45796 0.04257
923.17220 0.04209
921.88645 0.04168
920.60069 0.04133
919.31494 0.04101
918.02918 0.04068
916.74343 0.04028
915.45767 0.03979
914.17192 0.03918
912.88616 0.03851
911.60041 0.03786
910.31465 0.03738
909.02890 0.03709
907.74314 0.03691
906.45739 0.03673
905.17163 0.03646
903.88588 0.03605
902.60012 0.03554
901.31437 0.03502
900.02861 0.03459
898.74286 0.03430
897.45710 0.03409
896.17134 0.03388
894.88559 0.03360
893.59983 0.03326
892.31408 0.03291
891.02832 0.03262
889.74257 0.03242
888.45681 0.03238
887.17106 0.03255
885.88530 0.03298
884.59955 0.03370
883.31379 0.03472
882.02804 0.03595
880.74228 0.03722
879.45653 0.03835
878.17077 0.03923
876.88502 0.03992
875.59926 0.04058
874.31351 0.04129
873.02775 0.04190
871.74200 0.04221
870.45624 0.04210
869.17049 0.04167
867.88473 0.04109
866.59898 0.04043
865.31322 0.03968
864.02747 0.03881
862.74171 0.03785
861.45596 0.03686
860.17020 0.03590
858.88445 0.03505
857.59869 0.03435
856.31293 0.03379
855.02718 0.03330
853.74142 0.03279
852.45567 0.03227
851.16991 0.03179
849.88416 0.03142
848.59840 0.03113
847.31265 0.03085
846.02689 0.03059
844.74114 0.03038
843.45538 0.03020
842.16963 0.03000
840.88387 0.02976
839.59812 0.02951
838.31236 0.02928
837.02661 0.02907
835.74085 0.02885
834.45510 0.02861
833.16934 0.02839
831.88359 0.02819
830.59783 0.02802
829.31208 0.02786
828.02632 0.02773
826.74057 0.02764
825.45481 0.02760
824.16906 0.02764
822.88330 0.02773
821.59755 0.02778
820.31179 0.02776
819.02604 0.02771
817.74028 0.02768
816.45452 0.02768
815.16877 0.02763
813.88301 0.02753
812.59726 0.02742
811.31150 0.02736
810.02575 0.02738
808.73999 0.02744
807.45424 0.02750
806.16848 0.02750
804.88273 0.02746
803.59697 0.02740
802.31122 0.02732
801.02546 0.02723
799.73971 0.02710
798.45395 0.02698
797.16820 0.02690
795.88244 0.02687
794.59669 0.02686
793.31093 0.02686
792.02518 0.02685
790.73942 0.02683
789.45367 0.02676
788.16791 0.02662
786.88216 0.02643
785.59640 0.02624
784.31065 0.02612
783.02489 0.02608
781.73914 0.02610
780.45338 0.02616
779.16763 0.02626
777.88187 0.02642
776.59612 0.02658
775.31036 0.02666
774.02460 0.02664
772.73885 0.02657
771.45309 0.02649
770.16734 0.02638
768.88158 0.02625
767.59583 0.02612
766.31007 0.02599
765.02432 0.02586
763.73856 0.02573
762.45281 0.02566
761.16705 0.02562
759.88130 0.02558
758.59554 0.02555
757.30979 0.02558
756.02403 0.02565
754.73828 0.02566
753.45252 0.02558
752.16677 0.02546
750.88101 0.02536
749.59526 0.02525
748.30950 0.02509
747.02375 0.02492
745.73799 0.02484
744.45224 0.02483
743.16648 0.02484
741.88073 0.02486
740.59497 0.02498
739.30922 0.02521
738.02346 0.02546
736.73771 0.02566
735.45195 0.02575
734.16619 0.02573
732.88044 0.02564
731.59468 0.02555
730.30893 0.02553
729.02317 0.02558
727.73742 0.02561
726.45166 0.02557
725.16591 0.02541
723.88015 0.02471
722.59440 0.02489
721.30864 0.02516
720.02289 0.02533
718.73713 0.02552
717.45138 0.02571
716.16562 0.02585
714.87987 0.02593
713.59411 0.02595
712.30836 0.02593
711.02260 0.02586
709.73685 0.02575
708.45109 0.02561
707.16534 0.02547
705.87958 0.02536
704.59383 0.02527
703.30807 0.02522
702.02232 0.02519
700.73656 0.02520
699.45081 0.02522
698.16505 0.02527
696.87930 0.02531
695.59354 0.02533
694.30779 0.02529
693.02203 0.02520
691.73627 0.02510
690.45052 0.02503
689.16476 0.02501
687.87901 0.02501
686.59325 0.02499
685.30750 0.02494
684.02174 0.02487
682.73599 0.02480
681.45023 0.02471
680.16448 0.02462
678.87872 0.02453
677.59297 0.02445
676.30721 0.02440
675.02146 0.02436
673.73570 0.02437
672.44995 0.02442
671.16419 0.02448
669.87844 0.02453
668.59268 0.02454
667.30693 0.02450
666.02117 0.02443
664.73542 0.02436
663.44966 0.02429
662.16391 0.02424
660.87815 0.02421
659.59240 0.02417
658.30664 0.02408
657.02089 0.02396
655.73513 0.02387
654.44938 0.02386
653.16362 0.02392
651.87786 0.02398
650.59211 0.02403
649.30635 0.02404
648.02060 0.02403
646.73484 0.02401
645.44909 0.02397
644.16333 0.02390
642.87758 0.02382
641.59182 0.02376
640.30607 0.02373
639.02031 0.02375
637.73456 0.02379
636.44880 0.02382
635.16305 0.02374
633.87729 0.02339
632.59154 0.02281
631.30578 0.02425
630.02003 0.03248
628.73427 0.04041
627.44852 0.03163
626.16276 0.03970
624.87701 0.05843
623.59125 0.07581
622.30550 0.08737
621.01974 0.09116
619.73399 0.08698
618.44823 0.07685
617.16248 0.06416
615.87672 0.05242
614.59097 0.04448
613.30521 0.04219
612.01945 0.04564
610.73370 0.05292
609.44794 0.06120
608.16219 0.06866
606.87643 0.07500
605.59068 0.08018
604.30492 0.08343
603.01917 0.08385
601.73341 0.08143
600.44766 0.07719
599.16190 0.07241
597.87615 0.06793
596.59039 0.06407
595.30464 0.06088
594.01888 0.05837
592.73313 0.05650
591.44737 0.05518
590.16162 0.05428
588.87586 0.05374
587.59011 0.05362
586.30435 0.05399
585.01860 0.05477
583.73284 0.05570
582.44709 0.05654
581.16133 0.05721
579.87558 0.05783
578.58982 0.05862
577.30407 0.05972
576.01831 0.06112
574.73256 0.06274
573.44680 0.06457
572.16105 0.06665
570.87529 0.06899
569.58953 0.07142
568.30378 0.07366
567.01802 0.07548
565.73227 0.07680
564.44651 0.07761
563.16076 0.07791
561.87500 0.07767
560.58925 0.07688
559.30349 0.07555
558.01774 0.07376
556.73198 0.07162
555.44623 0.06936
554.16047 0.06716
552.87472 0.06514
551.58896 0.06326
550.30321 0.06148
549.01745 0.05974
547.73170 0.05808
546.44594 0.05658
545.16019 0.05519
543.87443 0.05383
542.58868 0.05242
541.30292 0.05099
540.01717 0.04963
538.73141 0.04839
537.44566 0.04728
536.15990 0.04629
534.87415 0.04544
533.58839 0.04475
532.30264 0.04416
531.01688 0.04355
529.73112 0.04281
528.44537 0.04197
527.15961 0.04113
525.87386 0.04043
524.58810 0.03987
523.30235 0.03935
522.01659 0.03874
520.73084 0.03802
519.44508 0.03725
518.15933 0.03651
516.87357 0.03587
515.58782 0.03531
514.30206 0.03478
513.01631 0.03424
511.73055 0.03371
510.44480 0.03321
509.15904 0.03273
507.87329 0.03226
506.58753 0.03180
505.30178 0.03137
504.01602 0.03099
502.73027 0.03063
501.44451 0.03024
500.15876 0.02977
498.87300 0.02928
497.58725 0.02884
496.30149 0.02851
495.01574 0.02827
493.72998 0.02806
492.44423 0.02787
491.15847 0.02772
489.87271 0.02763
488.58696 0.02752
487.30120 0.02735
486.01545 0.02710
484.72969 0.02677
483.44394 0.02642
482.15818 0.02611
480.87243 0.02587
479.58667 0.02569
478.30092 0.02556
477.01516 0.02550
475.72941 0.02552
474.44365 0.02562
473.15790 0.02576
471.87214 0.02589
470.58639 0.02595
469.30063 0.02590
468.01488 0.02573
466.72912 0.02545
465.44337 0.02514
464.15761 0.02481
462.87186 0.02449
461.58610 0.02414
460.30035 0.02376
459.01459 0.02335
457.72884 0.02294
456.44308 0.02255
455.15733 0.02219
453.87157 0.02186
452.58582 0.02155
451.30006 0.02122
450.01431 0.02091
448.72855 0.02065
447.44279 0.02048
446.15704 0.02037
444.87128 0.02027
443.58553 0.02012
442.29977 0.01990
441.01402 0.01967
439.72826 0.01948
438.44251 0.01936
437.15675 0.01923
435.87100 0.01905
434.58524 0.01884
433.29949 0.01867
432.01373 0.01858
430.72798 0.01854
429.44222 0.01850
428.15647 0.01840
426.87071 0.01825
425.58496 0.01804
424.29920 0.01782
423.01345 0.01765
421.72769 0.01755
420.44194 0.01746
419.15618 0.01731
417.87043 0.01703
416.58467 0.01669
415.29892 0.01638
414.01316 0.01617
412.72741 0.01605
411.44165 0.01597
410.15590 0.01590
408.87014 0.01581
407.58438 0.01570
406.29863 0.01560
405.01287 0.01552
403.72712 0.01546
402.44136 0.01543
401.15561 0.01543
399.86985 0.01545
