3998.69854 0.00615
3997.41278 0.00805
3996.12703 0.00943
3994.84127 0.00880
3993.55552 0.00507
3992.26976 -0.00050
3990.98401 -0.00453
3989.69825 -0.00442
3988.41250 -0.00034
3987.12674 0.00541
3985.84099 0.01009
3984.55523 0.01171
3983.26948 0.00986
3981.98372 0.00630
3980.69797 0.00403
3979.41221 0.00477
3978.12646 0.00735
3976.84070 0.00863
3975.55495 0.00604
3974.26919 -0.00014
3972.98344 -0.00644
3971.69768 -0.00850
3970.41193 -0.00486
3969.12617 0.00135
3967.84042 0.00539
3966.55466 0.00564
3965.26891 0.00453
3963.98315 0.00487
3962.69740 0.00642
3961.41164 0.00678
3960.12589 0.00466
3958.84013 0.00170
3957.55437 0.00073
3956.26862 0.00274
3954.98286 0.00575
3953.69711 0.00689
3952.41135 0.00543
3951.12560 0.00321
3949.83984 0.00218
3948.55409 0.00249
3947.26833 0.00305
3945.98258 0.00278
3944.69682 0.00126
3943.41107 -0.00134
3942.12531 -0.00428
3940.83956 -0.00667
3939.55380 -0.00830
3938.26805 -0.00948
3936.98229 -0.01021
3935.69654 -0.00970
3934.41078 -0.00707
3933.12503 -0.00242
3931.83927 0.00289
3930.55352 0.00688
3929.26776 0.00798
3927.98201 0.00616
3926.69625 0.00318
3925.41050 0.00152
3924.12474 0.00229
3922.83899 0.00404
3921.55323 0.00427
3920.26748 0.00217
3918.98172 -0.00004
3917.69596 0.00076
3916.41021 0.00529
3915.12445 0.01094
3913.83870 0.01414
3912.55294 0.01362
3911.26719 0.01103
3909.98143 0.00875
3908.69568 0.00758
3907.40992 0.00668
3906.12417 0.00517
3904.83841 0.00350
3903.55266 0.00318
3902.26690 0.00523
3900.98115 0.00892
3899.69539 0.01205
3898.40964 0.01264
3897.12388 0.01064
3895.83813 0.00767
3894.55237 0.00538
3893.26662 0.00416
3891.98086 0.00360
3890.69511 0.00363
3889.40935 0.00463
3888.12360 0.00652
3886.83784 0.00876
3885.55209 0.01116
3884.26633 0.01399
3882.98058 0.01676
3881.69482 0.01771
3880.40907 0.01522
3879.12331 0.00947
3877.83755 0.00236
3876.55180 -0.00353
3875.26604 -0.00610
3873.98029 -0.00478
3872.69453 -0.00118
3871.40878 0.00210
3870.12302 0.00368
3868.83727 0.00402
3867.55151 0.00395
3866.26576 0.00358
3864.98000 0.00291
3863.69425 0.00251
3862.40849 0.00306
3861.12274 0.00455
3859.83698 0.00664
3858.55123 0.00905
3857.26547 0.01111
3855.97972 0.01138
3854.69396 0.00894
3853.40821 0.00492
3852.12245 0.00199
3850.83670 0.00179
3849.55094 0.00345
3848.26519 0.00453
3846.97943 0.00337
3845.69368 0.00061
3844.40792 -0.00142
3843.12217 -0.00068
3841.83641 0.00276
3840.55066 0.00676
3839.26490 0.00892
3837.97915 0.00837
3836.69339 0.00609
3835.40763 0.00377
3834.12188 0.00253
3832.83612 0.00245
3831.55037 0.00303
3830.26461 0.00389
3828.97886 0.00504
3827.69310 0.00667
3826.40735 0.00864
3825.12159 0.00998
3823.83584 0.00903
3822.55008 0.00481
3821.26433 -0.00129
3819.97857 -0.00610
3818.69282 -0.00743
3817.40706 -0.00586
3816.12131 -0.00378
3814.83555 -0.00333
3813.54980 -0.00499
3812.26404 -0.00717
3810.97829 -0.00691
3809.69253 -0.00263
3808.40678 0.00372
3807.12102 0.00802
3805.83527 0.00774
3804.54951 0.00384
3803.26376 -0.00046
3801.97800 -0.00206
3800.69225 0.00013
3799.40649 0.00460
3798.12074 0.00843
3796.83498 0.00962
3795.54922 0.00806
3794.26347 0.00428
3792.97771 -0.00114
3791.69196 -0.00662
3790.40620 -0.00932
3789.12045 -0.00730
3787.83469 -0.00169
3786.54894 0.00409
3785.26318 0.00740
3783.97743 0.00849
3782.69167 0.00939
3781.40592 0.01118
3780.12016 0.01287
3778.83441 0.01278
3777.54865 0.01064
3776.26290 0.00799
3774.97714 0.00684
3773.69139 0.00779
3772.40563 0.00892
3771.11988 0.00689
3769.83412 0.00029
3768.54837 -0.00780
3767.26261 -0.01195
3765.97686 -0.00954
3764.69110 -0.00319
3763.40535 0.00206
3762.11959 0.00303
3760.83384 0.00008
3759.54808 -0.00410
3758.26233 -0.00681
3756.97657 -0.00706
3755.69081 -0.00566
3754.40506 -0.00361
3753.11930 -0.00071
3751.83355 0.00380
3750.54779 0.00970
3749.26204 0.01562
3747.97628 0.02018
3746.69053 0.02255
3745.40477 0.02185
3744.11902 0.01717
3742.83326 0.00918
3741.54751 0.00117
3740.26175 -0.00328
3738.97600 -0.00395
3737.69024 -0.00389
3736.40449 -0.00504
3735.11873 -0.00574
3733.83298 -0.00363
3732.54722 0.00046
3731.26147 0.00322
3729.97571 0.00258
3728.68996 -0.00074
3727.40420 -0.00448
3726.11845 -0.00624
3724.83269 -0.00424
3723.54694 0.00140
3722.26118 0.00798
3720.97543 0.01199
3719.68967 0.01209
3718.40392 0.00989
3717.11816 0.00782
3715.83241 0.00666
3714.54665 0.00550
3713.26089 0.00354
3711.97514 0.00135
3710.68938 0.00010
3709.40363 0.00004
3708.11787 0.00011
3706.83212 -0.00064
3705.54636 -0.00197
3704.26061 -0.00317
3702.97485 -0.00449
3701.68910 -0.00693
3700.40334 -0.01032
3699.11759 -0.01268
3697.83183 -0.01227
3696.54608 -0.00942
3695.26032 -0.00559
3693.97457 -0.00120
3692.68881 0.00417
3691.40306 0.00953
3690.11730 0.01209
3688.83155 0.00969
3687.54579 0.00313
3686.26004 -0.00444
3684.97428 -0.00979
3683.68853 -0.01103
3682.40277 -0.00782
3681.11702 -0.00134
3679.83126 0.00585
3678.54551 0.01064
3677.25975 0.01105
3675.97400 0.00761
3674.68824 0.00267
3673.40248 -0.00192
3672.11673 -0.00603
3670.83097 -0.00957
3669.54522 -0.01102
3668.25946 -0.00916
3666.97371 -0.00578
3665.68795 -0.00472
3664.40220 -0.00789
3663.11644 -0.01373
3661.83069 -0.01969
3660.54493 -0.02441
3659.25918 -0.02716
3657.97342 -0.02708
3656.68767 -0.02430
3655.40191 -0.02053
3654.11616 -0.01738
3652.83040 -0.01470
3651.54465 -0.01147
3650.25889 -0.00788
3648.97314 -0.00578
3647.68738 -0.00697
3646.40163 -0.01131
3645.11587 -0.01637
3643.83012 -0.01912
3642.54436 -0.01805
3641.25861 -0.01397
3639.97285 -0.00924
3638.68710 -0.00645
3637.40134 -0.00770
3636.11559 -0.01359
3634.82983 -0.02216
3633.54408 -0.02931
3632.25832 -0.03183
3630.97256 -0.03029
3629.68681 -0.02802
3628.40105 -0.02680
3627.11530 -0.02524
3625.82954 -0.02194
3624.54379 -0.01869
3623.25803 -0.01844
3621.97228 -0.02109
3620.68652 -0.02349
3619.40077 -0.02356
3618.11501 -0.02242
3616.82926 -0.02176
3615.54350 -0.02091
3614.25775 -0.01776
3612.97199 -0.01194
3611.68624 -0.00567
3610.40048 -0.00164
3609.11473 -0.00089
3607.82897 -0.00288
3606.54322 -0.00626
3605.25746 -0.00933
3603.97171 -0.01067
3602.68595 -0.01084
3601.40020 -0.01239
3600.11444 -0.01681
3598.82869 -0.02154
3597.54293 -0.02206
3596.25718 -0.01724
3594.97142 -0.01119
3593.68567 -0.00907
3592.39991 -0.01186
3591.11415 -0.01613
3589.82840 -0.01834
3588.54264 -0.01819
3587.25689 -0.01787
3585.97113 -0.01890
3584.68538 -0.02046
3583.39962 -0.02084
3582.11387 -0.01943
3580.82811 -0.01706
3579.54236 -0.01487
3578.25660 -0.01366
3576.97085 -0.01401
3575.68509 -0.01567
3574.39934 -0.01658
3573.11358 -0.01388
3571.82783 -0.00678
3570.54207 0.00191
3569.25632 0.00770
3567.97056 0.00781
3566.68481 0.00296
3565.39905 -0.00360
3564.11330 -0.00869
3562.82754 -0.01142
3561.54179 -0.01349
3560.25603 -0.01748
3558.97028 -0.02451
3557.68452 -0.03321
3556.39877 -0.04063
3555.11301 -0.04392
3553.82726 -0.04198
3552.54150 -0.03626
3551.25574 -0.03021
3549.96999 -0.02722
3548.68423 -0.02851
3547.39848 -0.03246
3546.11272 -0.03598
3544.82697 -0.03692
3543.54121 -0.03521
3542.25546 -0.03223
3540.96970 -0.02961
3539.68395 -0.02858
3538.39819 -0.02948
3537.11244 -0.03132
3535.82668 -0.03201
3534.54093 -0.03013
3533.25517 -0.02653
3531.96942 -0.02367
3530.68366 -0.02322
3529.39791 -0.02464
3528.11215 -0.02652
3526.82640 -0.02814
3525.54064 -0.02883
3524.25489 -0.02669
3522.96913 -0.01998
3521.68338 -0.01040
3520.39762 -0.00283
3519.11187 -0.00084
3517.82611 -0.00342
3516.54036 -0.00702
3515.25460 -0.00972
3513.96885 -0.01206
3512.68309 -0.01472
3511.39734 -0.01719
3510.11158 -0.01850
3508.82582 -0.01838
3507.54007 -0.01748
3506.25431 -0.01675
3504.96856 -0.01630
3503.68280 -0.01493
3502.39705 -0.01117
3501.11129 -0.00532
3499.82554 0.00012
3498.53978 0.00230
3497.25403 0.00033
3495.96827 -0.00440
3494.68252 -0.00938
3493.39676 -0.01251
3492.11101 -0.01310
3490.82525 -0.01183
3489.53950 -0.00980
3488.25374 -0.00718
3486.96799 -0.00323
3485.68223 0.00188
3484.39648 0.00556
3483.11072 0.00409
3481.82497 -0.00365
3480.53921 -0.01394
3479.25346 -0.02056
3477.96770 -0.01982
3476.68195 -0.01349
3475.39619 -0.00725
3474.11044 -0.00572
3472.82468 -0.00863
3471.53893 -0.01170
3470.25317 -0.01143
3468.96741 -0.00870
3467.68166 -0.00701
3466.39590 -0.00788
3465.11015 -0.00947
3463.82439 -0.00974
3462.53864 -0.00930
3461.25288 -0.01013
3459.96713 -0.01238
3458.68137 -0.01360
3457.39562 -0.01127
3456.10986 -0.00516
3454.82411 0.00247
3453.53835 0.00817
3452.25260 0.00889
3450.96684 0.00355
3449.68109 -0.00577
3448.39533 -0.01454
3447.10958 -0.01851
3445.82382 -0.01634
3444.53807 -0.01010
3443.25231 -0.00367
3441.96656 -0.00037
3440.68080 -0.00098
3439.39505 -0.00329
3438.10929 -0.00428
3436.82354 -0.00290
3435.53778 -0.00039
3434.25203 0.00201
3432.96627 0.00459
3431.68052 0.00818
3430.39476 0.01278
3429.10900 0.01768
3427.82325 0.02183
3426.53749 0.02406
3425.25174 0.02432
3423.96598 0.02453
3422.68023 0.02717
3421.39447 0.03203
3420.10872 0.03575
3418.82296 0.03563
3417.53721 0.03263
3416.25145 0.02940
3414.96570 0.02640
3413.67994 0.02208
3412.39419 0.01698
3411.10843 0.01509
3409.82268 0.01989
3408.53692 0.02965
3407.25117 0.03844
3405.96541 0.04170
3404.67966 0.03967
3403.39390 0.03493
3402.10815 0.02974
3400.82239 0.02790
3399.53664 0.02805
3398.25088 0.02883
3396.96513 0.02975
3395.67937 0.02994
3394.39362 0.02924
3393.10786 0.02880
3391.82211 0.02952
3390.53635 0.03041
3389.25060 0.02919
3387.96484 0.02514
3386.67908 0.02090
3385.39333 0.02050
3384.10757 0.02548
3382.82182 0.03370
3381.53606 0.04202
3380.25031 0.04873
3378.96455 0.05324
3377.67880 0.05506
3376.39304 0.05438
3375.10729 0.05254
3373.82153 0.05099
3372.53578 0.05021
3371.25002 0.04969
3369.96427 0.04888
3368.67851 0.04786
3367.39276 0.04725
3366.10700 0.04734
3364.82125 0.04777
3363.53549 0.04827
3362.24974 0.04930
3360.96398 0.05092
3359.67823 0.05201
3358.39247 0.05200
3357.10672 0.05260
3355.82096 0.05612
3354.53521 0.06217
3353.24945 0.06769
3351.96370 0.07051
3350.67794 0.07129
3349.39219 0.07191
3348.10643 0.07311
3346.82067 0.07411
3345.53492 0.07375
3344.24916 0.07164
3342.96341 0.06882
3341.67765 0.06742
3340.39190 0.06903
3339.10614 0.07279
3337.82039 0.07560
3336.53463 0.07495
3335.24888 0.07140
3333.96312 0.06768
3332.67737 0.06573
3331.39161 0.06539
3330.10586 0.06539
3328.82010 0.06471
3327.53435 0.06290
3326.24859 0.06024
3324.96284 0.05787
3323.67708 0.05725
3322.39133 0.05903
3321.10557 0.06257
3319.81982 0.06645
3318.53406 0.06925
3317.24831 0.07006
3315.96255 0.06876
3314.67680 0.06618
3313.39104 0.06384
3312.10529 0.06335
3310.81953 0.06526
3309.53378 0.06841
3308.24802 0.07066
3306.96227 0.07111
3305.67651 0.07142
3304.39075 0.07434
3303.10500 0.08071
3301.81924 0.08817
3300.53349 0.09301
3299.24773 0.09316
3297.96198 0.08963
3296.67622 0.08524
3295.39047 0.08216
3294.10471 0.08080
3292.81896 0.08052
3291.53320 0.08096
3290.24745 0.08223
3288.96169 0.08422
3287.67594 0.08614
3286.39018 0.08722
3285.10443 0.08736
3283.81867 0.08686
3282.53292 0.08600
3281.24716 0.08513
3279.96141 0.08478
3278.67565 0.08528
3277.38990 0.08628
3276.10414 0.08722
3274.81839 0.08790
3273.53263 0.08851
3272.24688 0.08921
3270.96112 0.08980
3269.67537 0.08970
3268.38961 0.08819
3267.10386 0.08515
3265.81810 0.08175
3264.53234 0.08001
3263.24659 0.08148
3261.96083 0.08626
3260.67508 0.09292
3259.38932 0.09867
3258.10357 0.10048
3256.81781 0.09686
3255.53206 0.08926
3254.24630 0.08114
3252.96055 0.07592
3251.67479 0.07519
3250.38904 0.07832
3249.10328 0.08292
3247.81753 0.08612
3246.53177 0.08641
3245.24602 0.08450
3243.96026 0.08228
3242.67451 0.08094
3241.38875 0.08040
3240.10300 0.08030
3238.81724 0.08077
3237.53149 0.08180
3236.24573 0.08252
3234.95998 0.08187
3233.67422 0.07991
3232.38847 0.07791
3231.10271 0.07700
3229.81696 0.07723
3228.53120 0.07795
3227.24545 0.07876
3225.95969 0.07952
3224.67393 0.07992
3223.38818 0.07971
3222.10242 0.07924
3220.81667 0.07915
3219.53091 0.07933
3218.24516 0.07873
3216.95940 0.07666
3215.67365 0.07407
3214.38789 0.07278
3213.10214 0.07341
3211.81638 0.07453
3210.53063 0.07396
3209.24487 0.07103
3207.95912 0.06727
3206.67336 0.06492
3205.38761 0.06497
3204.10185 0.06687
3202.81610 0.06982
3201.53034 0.07351
3200.24459 0.07738
3198.95883 0.08006
3197.67308 0.08045
3196.38732 0.07922
3195.10157 0.07823
3193.81581 0.07871
3192.53006 0.08033
3191.24430 0.08189
3189.95855 0.08232
3188.67279 0.08119
3187.38704 0.07886
3186.10128 0.07639
3184.81553 0.07460
3183.52977 0.07350
3182.24401 0.07279
3180.95826 0.07267
3179.67250 0.07340
3178.38675 0.07452
3177.10099 0.07521
3175.81524 0.07540
3174.52948 0.07593
3173.24373 0.07720
3171.95797 0.07841
3170.67222 0.07837
3169.38646 0.07685
3168.10071 0.07494
3166.81495 0.07391
3165.52920 0.07394
3164.24344 0.07410
3162.95769 0.07355
3161.67193 0.07235
3160.38618 0.07130
3159.10042 0.07098
3157.81467 0.07128
3156.52891 0.07130
3155.24316 0.07007
3153.95740 0.06770
3152.67165 0.06560
3151.38589 0.06520
3150.10014 0.06645
3148.81438 0.06815
3147.52863 0.06926
3146.24287 0.06939
3144.95712 0.06856
3143.67136 0.06717
3142.38560 0.06614
3141.09985 0.06622
3139.81409 0.06717
3138.52834 0.06788
3137.24258 0.06753
3135.95683 0.06630
3134.67107 0.06494
3133.38532 0.06400
3132.09956 0.06372
3130.81381 0.06443
3129.52805 0.06630
3128.24230 0.06872
3126.95654 0.07035
3125.67079 0.07033
3124.38503 0.06902
3123.09928 0.06748
3121.81352 0.06651
3120.52777 0.06628
3119.24201 0.06648
3117.95626 0.06662
3116.67050 0.06664
3115.38475 0.06711
3114.09899 0.06863
3112.81324 0.07074
3111.52748 0.07194
3110.24173 0.07088
3108.95597 0.06771
3107.67022 0.06383
3106.38446 0.06064
3105.09871 0.05866
3103.81295 0.05751
3102.52719 0.05675
3101.24144 0.05623
3099.95568 0.05597
3098.66993 0.05598
3097.38417 0.05632
3096.09842 0.05707
3094.81266 0.05821
3093.52691 0.05958
3092.24115 0.06109
3090.95540 0.06253
3089.66964 0.06330
3088.38389 0.06274
3087.09813 0.06091
3085.81238 0.05879
3084.52662 0.05742
3083.24087 0.05702
3081.95511 0.05700
3080.66936 0.05662
3079.38360 0.05567
3078.09785 0.05456
3076.81209 0.05400
3075.52634 0.05461
3074.24058 0.05652
3072.95483 0.05912
3071.66907 0.06130
3070.38332 0.06220
3069.09756 0.06197
3067.81181 0.06149
3066.52605 0.06137
3065.24030 0.06139
3063.95454 0.06105
3062.66879 0.06027
3061.38303 0.05945
3060.09727 0.05905
3058.81152 0.05926
3057.52576 0.05981
3056.24001 0.06008
3054.95425 0.05978
3053.66850 0.05949
3052.38274 0.06016
3051.09699 0.06186
3049.81123 0.06334
3048.52548 0.06315
3047.23972 0.06101
3045.95397 0.05801
3044.66821 0.05553
3043.38246 0.05431
3042.09670 0.05423
3040.81095 0.05480
3039.52519 0.05552
3038.23944 0.05596
3036.95368 0.05589
3035.66793 0.05536
3034.38217 0.05460
3033.09642 0.05383
3031.81066 0.05316
3030.52491 0.05274
3029.23915 0.05260
3027.95340 0.05263
3026.66764 0.05259
3025.38189 0.05237
3024.09613 0.05214
3022.81038 0.05224
3021.52462 0.05285
3020.23886 0.05374
3018.95311 0.05435
3017.66735 0.05421
3016.38160 0.05318
3015.09584 0.05147
3013.81009 0.04958
3012.52433 0.04835
3011.23858 0.04844
3009.95282 0.04983
3008.66707 0.05169
3007.38131 0.05321
3006.09556 0.05427
3004.80980 0.05517
3003.52405 0.05555
3002.23829 0.05504
3000.95254 0.05603
2999.66678 0.05802
2998.38103 0.05751
2997.09527 0.05571
2995.80952 0.05293
2994.52376 0.05037
2993.23801 0.04918
2991.95225 0.04944
2990.66650 0.05040
2989.38074 0.05127
2988.09499 0.05153
2986.80923 0.05098
2985.52348 0.05000
2984.23772 0.04943
2982.95197 0.04966
2981.66621 0.05024
2980.38046 0.05061
2979.09470 0.05087
2977.80894 0.05135
2976.52319 0.05186
2975.23743 0.05183
2973.95168 0.05098
2972.66592 0.04960
2971.38017 0.04827
2970.09441 0.04766
2968.80866 0.04831
2967.52290 0.04996
2966.23715 0.05148
2964.95139 0.05205
2963.66564 0.05205
2962.37988 0.05234
2961.09413 0.05305
2959.80837 0.05338
2958.52262 0.05284
2957.23686 0.05184
2955.95111 0.05122
2954.66535 0.05138
2953.37960 0.05211
2952.09384 0.05287
2950.80809 0.05333
2949.52233 0.05354
2948.23658 0.05367
2946.95082 0.05372
2945.66507 0.05362
2944.37931 0.05353
2943.09356 0.05370
2941.80780 0.05402
2940.52205 0.05402
2939.23629 0.05337
2937.95053 0.05233
2936.66478 0.05154
2935.37902 0.05174
2934.09327 0.05327
2932.80751 0.05573
2931.52176 0.05797
2930.23600 0.05897
2928.95025 0.05878
2927.66449 0.05833
2926.37874 0.05837
2925.09298 0.05878
2923.80723 0.05891
2922.52147 0.05828
2921.23572 0.05692
2919.94996 0.05526
2918.66421 0.05381
2917.37845 0.05279
2916.09270 0.05207
2914.80694 0.05156
2913.52119 0.05136
2912.23543 0.05145
2910.94968 0.05141
2909.66392 0.05082
2908.37817 0.04988
2907.09241 0.04923
2905.80666 0.04912
2904.52090 0.04923
2903.23515 0.04909
2901.94939 0.04862
2900.66364 0.04797
2899.37788 0.04728
2898.09212 0.04667
2896.80637 0.04644
2895.52061 0.04680
2894.23486 0.04752
2892.94910 0.04809
2891.66335 0.04812
2890.37759 0.04767
2889.09184 0.04700
2887.80608 0.04634
2886.52033 0.04577
2885.23457 0.04540
2883.94882 0.04546
2882.66306 0.04598
2881.37731 0.04662
2880.09155 0.04695
2878.80580 0.04705
2877.52004 0.04705
2876.23429 0.04701
2874.94853 0.04670
2873.66278 0.04588
2872.37702 0.04467
2871.09127 0.04358
2869.80551 0.04315
2868.51976 0.04354
2867.23400 0.04425
2865.94825 0.04442
2864.66249 0.04351
2863.37674 0.04191
2862.09098 0.04062
2860.80523 0.04029
2859.51947 0.04063
2858.23372 0.04092
2856.94796 0.04104
2855.66220 0.04162
2854.37645 0.04310
2853.09069 0.04502
2851.80494 0.04631
2850.51918 0.04632
2849.23343 0.04524
2847.94767 0.04375
2846.66192 0.04238
2845.37616 0.04137
2844.09041 0.04080
2842.80465 0.04072
2841.51890 0.04100
2840.23314 0.04125
2838.94739 0.04109
2837.66163 0.04046
2836.37588 0.03966
2835.09012 0.03901
2833.80437 0.03868
2832.51861 0.03877
2831.23286 0.03913
2829.94710 0.03937
2828.66135 0.03898
2827.37559 0.03779
2826.08984 0.03622
2824.80408 0.03495
2823.51833 0.03448
2822.23257 0.03477
2820.94682 0.03538
2819.66106 0.03594
2818.37531 0.03639
2817.08955 0.03676
2815.80379 0.03688
2814.51804 0.03645
2813.23228 0.03555
2811.94653 0.03460
2810.66077 0.03399
2809.37502 0.03375
2808.08926 0.03364
2806.80351 0.03346
2805.51775 0.03330
2804.23200 0.03349
2802.94624 0.03421
2801.66049 0.03527
2800.37473 0.03607
2799.08898 0.03602
2797.80322 0.03505
2796.51747 0.03372
2795.23171 0.03280
2793.94596 0.03250
2792.66020 0.03246
2791.37445 0.03234
2790.08869 0.03218
2788.80294 0.03206
2787.51718 0.03167
2786.23143 0.03061
2784.94567 0.02913
2783.65992 0.02800
2782.37416 0.02783
2781.08841 0.02848
2779.80265 0.02942
2778.51690 0.03036
2777.23114 0.03137
2775.94538 0.03239
2774.65963 0.03310
2773.37387 0.03326
2772.08812 0.03303
2770.80236 0.03272
2769.51661 0.03242
2768.23085 0.03214
2766.94510 0.03202
2765.65934 0.03217
2764.37359 0.03242
2763.08783 0.03242
2761.80208 0.03211
2760.51632 0.03175
2759.23057 0.03154
2757.94481 0.03132
2756.65906 0.03085
2755.37330 0.03023
2754.08755 0.02991
2752.80179 0.03030
2751.51604 0.03127
2750.23028 0.03228
2748.94453 0.03270
2747.65877 0.03234
2746.37302 0.03160
2745.08726 0.03111
2743.80151 0.03118
2742.51575 0.03159
2741.23000 0.03189
2739.94424 0.03189
2738.65849 0.03166
2737.37273 0.03135
2736.08698 0.03110
2734.80122 0.03108
2733.51546 0.03141
2732.22971 0.03189
2730.94395 0.03206
2729.65820 0.03167
2728.37244 0.03103
2727.08669 0.03059
2725.80093 0.03040
2724.51518 0.03025
2723.22942 0.03014
2721.94367 0.03025
2720.65791 0.03053
2719.37216 0.03050
2718.08640 0.02982
2716.80065 0.02876
2715.51489 0.02791
2714.22914 0.02768
2712.94338 0.02807
2711.65763 0.02877
2710.37187 0.02934
2709.08612 0.02947
2707.80036 0.02921
2706.51461 0.02896
2705.22885 0.02906
2703.94310 0.02936
2702.65734 0.02938
2701.37159 0.02887
2700.08583 0.02821
2698.80008 0.02803
2697.51432 0.02851
2696.22857 0.02912
2694.94281 0.02929
2693.65705 0.02904
2692.37130 0.02884
2691.08554 0.02900
2689.79979 0.02929
2688.51403 0.02934
2687.22828 0.02900
2685.94252 0.02841
2684.65677 0.02789
2683.37101 0.02774
2682.08526 0.02803
2680.79950 0.02834
2679.51375 0.02812
2678.22799 0.02730
2676.94224 0.02641
2675.65648 0.02602
2674.37073 0.02623
2673.08497 0.02676
2671.79922 0.02725
2670.51346 0.02747
2669.22771 0.02732
2667.94195 0.02698
2666.65620 0.02686
2665.37044 0.02729
2664.08469 0.02829
2662.79893 0.02956
2661.51318 0.03073
2660.22742 0.03162
2658.94167 0.03226
2657.65591 0.03274
2656.37016 0.03302
2655.08440 0.03306
2653.79865 0.03297
2652.51289 0.03301
2651.22713 0.03330
2649.94138 0.03356
2648.65562 0.03335
2647.36987 0.03261
2646.08411 0.03175
2644.79836 0.03123
2643.51260 0.03116
2642.22685 0.03135
2640.94109 0.03170
2639.65534 0.03214
2638.36958 0.03250
2637.08383 0.03254
2635.79807 0.03221
2634.51232 0.03172
2633.22656 0.03134
2631.94081 0.03117
2630.65505 0.03112
2629.36930 0.03103
2628.08354 0.03083
2626.79779 0.03053
2625.51203 0.03017
2624.22628 0.02970
2622.94052 0.02904
2621.65477 0.02824
2620.36901 0.02754
2619.08326 0.02723
2617.79750 0.02735
2616.51175 0.02759
2615.22599 0.02775
2613.94024 0.02783
2612.65448 0.02801
2611.36872 0.02829
2610.08297 0.02852
2608.79721 0.02852
2607.51146 0.02827
2606.22570 0.02787
2604.93995 0.02729
2603.65419 0.02639
2602.36844 0.02527
2601.08268 0.02437
2599.79693 0.02415
2598.51117 0.02457
2597.22542 0.02524
2595.93966 0.02577
2594.65391 0.02604
2593.36815 0.02610
2592.08240 0.02617
2590.79664 0.02637
2589.51089 0.02666
2588.22513 0.02687
2586.93938 0.02690
2585.65362 0.02676
2584.36787 0.02655
2583.08211 0.02643
2581.79636 0.02650
2580.51060 0.02669
2579.22485 0.02678
2577.93909 0.02653
2576.65334 0.02583
2575.36758 0.02490
2574.08183 0.02434
2572.79607 0.02445
2571.51031 0.02468
2570.22456 0.02415
2568.93880 0.02269
2567.65305 0.02109
2566.36729 0.02027
2565.08154 0.02061
2563.79578 0.02175
2562.51003 0.02287
2561.22427 0.02336
2559.93852 0.02334
2558.65276 0.02347
2557.36701 0.02407
2556.08125 0.02493
2554.79550 0.02568
2553.50974 0.02607
2552.22399 0.02589
2550.93823 0.02508
2549.65248 0.02397
2548.36672 0.02308
2547.08097 0.02261
2545.79521 0.02220
2544.50946 0.02142
2543.22370 0.02034
2541.93795 0.01955
2540.65219 0.01973
2539.36644 0.02106
2538.08068 0.02300
2536.79493 0.02462
2535.50917 0.02530
2534.22342 0.02512
2532.93766 0.02467
2531.65191 0.02437
2530.36615 0.02413
2529.08039 0.02370
2527.79464 0.02309
2526.50888 0.02260
2525.22313 0.02235
2523.93737 0.02208
2522.65162 0.02148
2521.36586 0.02066
2520.08011 0.02019
2518.79435 0.02039
2517.50860 0.02087
2516.22284 0.02097
2514.93709 0.02057
2513.65133 0.02023
2512.36558 0.02047
2511.07982 0.02110
2509.79407 0.02141
2508.50831 0.02085
2507.22256 0.01965
2505.93680 0.01869
2504.65105 0.01868
2503.36529 0.01945
2502.07954 0.02027
2500.79378 0.02076
2499.50803 0.02115
2498.22227 0.02171
2496.93652 0.02231
2495.65076 0.02256
2494.36501 0.02230
2493.07925 0.02173
2491.79350 0.02120
2490.50774 0.02097
2489.22198 0.02102
2487.93623 0.02108
2486.65047 0.02080
2485.36472 0.02020
2484.07896 0.01974
2482.79321 0.01993
2481.50745 0.02071
2480.22170 0.02134
2478.93594 0.02100
2477.65019 0.01952
2476.36443 0.01760
2475.07868 0.01640
2473.79292 0.01677
2472.50717 0.01853
2471.22141 0.02059
2469.93566 0.02186
2468.64990 0.02207
2467.36415 0.02162
2466.07839 0.02094
2464.79264 0.02033
2463.50688 0.02004
2462.22113 0.02021
2460.93537 0.02064
2459.64962 0.02099
2458.36386 0.02116
2457.07811 0.02129
2455.79235 0.02144
2454.50660 0.02139
2453.22084 0.02101
2451.93509 0.02060
2450.64933 0.02063
2449.36357 0.02114
2448.07782 0.02164
2446.79206 0.02175
2445.50631 0.02167
2444.22055 0.02179
2442.93480 0.02215
2441.64904 0.02240
2440.36329 0.02222
2439.07753 0.02154
2437.79178 0.02041
2436.50602 0.01898
2435.22027 0.01767
2433.93451 0.01701
2432.64876 0.01716
2431.36300 0.01776
2430.07725 0.01819
2428.79149 0.01811
2427.50574 0.01759
2426.21998 0.01690
2424.93423 0.01637
2423.64847 0.01634
2422.36272 0.01694
2421.07696 0.01794
2419.79121 0.01890
2418.50545 0.01944
2417.21970 0.01948
2415.93394 0.01915
2414.64819 0.01877
2413.36243 0.01865
2412.07668 0.01876
2410.79092 0.01862
2409.50517 0.01775
2408.21941 0.01621
2406.93365 0.01465
2405.64790 0.01379
2404.36214 0.01390
2403.07639 0.01474
2401.79063 0.01587
2400.50488 0.01670
2399.21912 0.01469
2397.93337 0.01589
2396.64761 0.01672
2395.36186 0.01656
2394.07610 0.01631
2392.79035 0.01621
2391.50459 0.01616
2390.21884 0.01604
2388.93308 0.01579
2387.64733 0.01544
2386.36157 0.01512
2385.07582 0.01499
2383.79006 0.01512
2382.50431 0.01537
2381.21855 0.01549
2379.93280 0.01527
2378.64704 0.01489
2377.36129 0.01457
2376.07553 0.01455
2374.78978 0.01502
2373.50402 0.01587
2372.21827 0.01667
2370.93251 0.01693
2369.64676 0.01657
2368.36100 0.01580
2367.07524 0.01496
2365.78949 0.01458
2364.50373 0.01490
2363.21798 0.01561
2361.93222 0.01653
2360.64647 0.01752
2359.36071 0.01836
2358.07496 0.01891
2356.78920 0.01901
2355.50345 0.01855
2354.21769 0.01778
2352.93194 0.01713
2351.64618 0.01701
2350.36043 0.01724
2349.07467 0.01742
2347.78892 0.01758
2346.50316 0.01791
2345.21741 0.01814
2343.93165 0.01800
2342.64590 0.01747
2341.36014 0.01743
2340.07439 0.01787
2338.78863 0.01799
2337.50288 0.01782
2336.21712 0.01807
2334.93137 0.01829
2333.64561 0.01776
2332.35986 0.01668
2331.07410 0.01651
2329.78835 0.01731
2328.50259 0.01989
2327.21684 0.02457
2325.93108 0.02934
2324.64532 0.03192
2323.35957 0.03158
2322.07381 0.02976
2320.78806 0.02786
2319.50230 0.02671
2318.21655 0.02630
2316.93079 0.02611
2315.64504 0.02593
2314.35928 0.02570
2313.07353 0.02553
2311.78777 0.02548
2310.50202 0.02543
2309.21626 0.02545
2307.93051 0.02554
2306.64475 0.02535
2305.35900 0.02468
2304.07324 0.02374
2302.78749 0.02314
2301.50173 0.02318
2300.21598 0.02346
2298.93022 0.02342
2297.64447 0.02302
2296.35871 0.02272
2295.07296 0.02296
2293.78720 0.02371
2292.50145 0.02464
2291.21569 0.02556
2289.92994 0.02649
2288.64418 0.02735
2287.35843 0.02792
2286.07267 0.02794
2284.78691 0.02733
2283.50116 0.02620
2282.21540 0.02487
2280.92965 0.02369
2279.64389 0.02284
2278.35814 0.02222
2277.07238 0.02166
2275.78663 0.02110
2274.50087 0.02070
2273.21512 0.02055
2271.92936 0.02055
2270.64361 0.02040
2269.35785 0.02006
2268.07210 0.01978
2266.78634 0.01983
2265.50059 0.02018
2264.21483 0.02071
2262.92908 0.02143
2261.64332 0.02228
2260.35757 0.02289
2259.07181 0.02284
2257.78606 0.02211
2256.50030 0.02113
2255.21455 0.02038
2253.92879 0.02009
2252.64304 0.02036
2251.35728 0.02161
2250.07153 0.02332
2248.78577 0.02248
2247.50002 0.02151
2246.21426 0.01970
2244.92850 0.01782
2243.64275 0.01685
2242.35699 0.01697
2241.07124 0.01741
2239.78548 0.01738
2238.49973 0.01701
2237.21397 0.01694
2235.92822 0.01745
2234.64246 0.01814
2233.35671 0.01852
2232.07095 0.01851
2230.78520 0.01823
2229.49944 0.01781
2228.21369 0.01748
2226.92793 0.01775
2225.64218 0.01890
2224.35642 0.02052
2223.07067 0.02167
2221.78491 0.02165
2220.49916 0.02045
2219.21340 0.01854
2217.92765 0.01669
2216.64189 0.01568
2215.35614 0.01584
2214.07038 0.01669
2212.78463 0.01731
2211.49887 0.01726
2210.21312 0.01694
2208.92736 0.01696
2207.64161 0.01738
2206.35585 0.01766
2205.07010 0.01729
2203.78434 0.01622
2202.49858 0.01483
2201.21283 0.01351
2199.92707 0.01243
2198.64132 0.01153
2197.35556 0.01076
2196.06981 0.01027
2194.78405 0.01029
2193.49830 0.01077
2192.21254 0.01145
2190.92679 0.01237
2189.64103 0.01413
2188.35528 0.01701
2187.06952 0.01998
2185.78377 0.02114
2184.49801 0.01938
2183.21226 0.01561
2181.92650 0.01187
2180.64075 0.00948
2179.35499 0.00818
2178.06924 0.00728
2176.78348 0.00672
2175.49773 0.00689
2174.21197 0.00777
2172.92622 0.00907
2171.64046 0.01105
2170.35471 0.01405
2169.06895 0.01731
2167.78320 0.01928
2166.49744 0.01948
2165.21169 0.01941
2163.92593 0.02022
2162.64017 0.02011
2161.35442 0.01558
2160.06866 0.00631
2158.78291 -0.00293
2157.49715 -0.00717
2156.21140 -0.00613
2154.92564 -0.00272
2153.63989 0.00067
2152.35413 0.00304
2151.06838 0.00406
2149.78262 0.00392
2148.49687 0.00335
2147.21111 0.00315
2145.92536 0.00355
2144.63960 0.00422
2143.35385 0.00476
2142.06809 0.00496
2140.78234 0.00487
2139.49658 0.00453
2138.21083 0.00360
2136.92507 0.00169
2135.63932 -0.00080
2134.35356 -0.00247
2133.06781 -0.00224
2131.78205 -0.00047
2130.49630 0.00156
2129.21054 0.00321
2127.92479 0.00480
2126.63903 0.00664
2125.35328 0.00819
2124.06752 0.00860
2122.78176 0.00782
2121.49601 0.00682
2120.21025 0.00680
2118.92450 0.00814
2117.63874 0.01021
2116.35299 0.01203
2115.06723 0.01314
2113.78148 0.01382
2112.49572 0.01451
2111.20997 0.01526
2109.92421 0.01583
2108.63846 0.01604
2107.35270 0.01593
2106.06695 0.01552
2104.78119 0.01476
2103.49544 0.01381
2102.20968 0.01302
2100.92393 0.01292
2099.63817 0.01826
2098.35242 0.01929
2097.06666 0.01640
2095.78091 0.01239
2094.49515 0.00904
2093.20940 0.00737
2091.92364 0.00731
2090.63789 0.00806
2089.35213 0.00894
2088.06638 0.00980
2086.78062 0.01078
2085.49487 0.01189
2084.20911 0.01295
2082.92336 0.01387
2081.63760 0.01480
2080.35184 0.01590
2079.06609 0.01706
2077.78033 0.01801
2076.49458 0.01867
2075.20882 0.01925
2073.92307 0.01994
2072.63731 0.02067
2071.35156 0.02100
2070.06580 0.02042
2068.78005 0.01881
2067.49429 0.01662
2066.20854 0.01474
2064.92278 0.01395
2063.63703 0.01420
2062.35127 0.01444
2061.06552 0.01354
2059.77976 0.01148
2058.49401 0.00943
2057.20825 0.00865
2055.92250 0.00981
2054.63674 0.01316
2053.35099 0.01859
2052.06523 0.02480
2050.77948 0.02922
2049.49372 0.02982
2048.20797 0.02716
2046.92221 0.02396
2045.63646 0.02260
2044.35070 0.02344
2043.06495 0.02529
2041.77919 0.02699
2040.49343 0.02823
2039.20768 0.02927
2037.92192 0.02999
2036.63617 0.02981
2035.35041 0.02835
2034.06466 0.02612
2032.77890 0.02391
2031.49315 0.02187
2030.20739 0.01945
2028.92164 0.01636
2027.63588 0.01327
2026.35013 0.01138
2025.06437 0.01138
2023.77862 0.01292
2022.49286 0.01502
2021.20711 0.01658
2019.92135 0.01696
2018.63560 0.01614
2017.34984 0.01479
2016.06409 0.01375
2014.77833 0.01358
2013.49258 0.01445
2012.20682 0.01629
2010.92107 0.01871
2009.63531 0.02069
2008.34956 0.02097
2007.06380 0.01894
2005.77805 0.01513
2004.49229 0.01063
2003.20654 0.00643
2001.92078 0.00334
2000.63503 0.00194
1999.34927 0.00231
1998.06351 0.00381
1996.77776 0.00556
1995.49200 0.00711
1994.20625 0.00859
1992.92049 0.01013
1991.63474 0.01143
1990.34898 0.01200
1989.06323 0.01179
1987.77747 0.01133
1986.49172 0.01133
1985.20596 0.01239
1983.92021 0.01511
1982.63445 0.01993
1981.34870 0.02602
1980.06294 0.03090
1978.77719 0.03219
1977.49143 0.02990
1976.20568 0.02627
1974.91992 0.02334
1973.63417 0.02157
1972.34841 0.02058
1971.06266 0.02016
1969.77690 0.02020
1968.49115 0.02016
1967.20539 0.01938
1965.91964 0.01778
1964.63388 0.01611
1963.34813 0.01516
1962.06237 0.01491
1960.77662 0.01447
1959.49086 0.01309
1958.20510 0.01088
1956.91935 0.00859
1955.63359 0.00696
1954.34784 0.00638
1953.06208 0.00679
1951.77633 0.00778
1950.49057 0.00875
1949.20482 0.00925
1947.91906 0.00921
1946.63331 0.00887
1945.34755 0.00852
1944.06180 0.00834
1942.77604 0.00845
1941.49029 0.00896
1940.20453 0.00990
1938.91878 0.01111
1937.63302 0.01236
1936.34727 0.01337
1935.06151 0.01390
1933.77576 0.01379
1932.49000 0.01315
1931.20425 0.01227
1929.91849 0.01149
1928.63274 0.01100
1927.34698 0.01074
1926.06123 0.01050
1924.77547 0.01022
1923.48972 0.01010
1922.20396 0.01040
1920.91821 0.01113
1919.63245 0.01192
1918.34669 0.01241
1917.06094 0.01256
1915.77518 0.01255
1914.48943 0.01257
1913.20367 0.01262
1911.91792 0.01257
1910.63216 0.01241
1909.34641 0.01232
1908.06065 0.01248
1906.77490 0.01281
1905.48914 0.01304
1904.20339 0.01299
1902.91763 0.01277
1901.63188 0.01257
1900.34612 0.01251
1899.06037 0.01259
1897.77461 0.01270
1896.48886 0.01275
1895.20310 0.01270
1893.91735 0.01261
1892.63159 0.01258
1891.34584 0.01264
1890.06008 0.01271
1888.77433 0.01272
1887.48857 0.01273
1886.20282 0.01277
1884.91706 0.01283
1883.63131 0.01283
1882.34555 0.01275
1881.05980 0.01261
1879.77404 0.01243
1878.48829 0.01227
1877.20253 0.01216
1875.91677 0.01210
1874.63102 0.01204
1873.34526 0.01199
1872.05951 0.01196
1870.77375 0.01195
1869.48800 0.01191
1868.20224 0.01182
1866.91649 0.01172
1865.63073 0.01165
1864.34498 0.01158
1863.05922 0.01147
1861.77347 0.01132
1860.48771 0.01121
1859.20196 0.01117
1857.91620 0.01122
1856.63045 0.01132
1855.34469 0.01145
1854.05894 0.01158
1852.77318 0.01164
1851.48743 0.01153
1850.20167 0.01133
1848.91592 0.01121
1847.63016 0.01131
1846.34441 0.01156
1845.05865 0.01177
1843.77290 0.01178
1842.48714 0.01154
1841.20139 0.01110
1839.91563 0.01063
1838.62988 0.01029
1837.34412 0.01019
1836.05836 0.01028
1834.77261 0.01047
1833.48685 0.01074
1832.20110 0.01107
1830.91534 0.01146
1829.62959 0.01189
1828.34383 0.01237
1827.05808 0.01292
1825.77232 0.01352
1824.48657 0.01412
1823.20081 0.01463
1821.91506 0.01482
1820.62930 0.01434
1819.34355 0.01300
1818.05779 0.01109
1816.77204 0.00926
1815.48628 0.00806
1814.20053 0.00755
1812.91477 0.00750
1811.62902 0.00768
1810.34326 0.00799
1809.05751 0.00841
1807.77175 0.00886
1806.48600 0.00931
1805.20024 0.00972
1803.91449 0.01004
1802.62873 0.01024
1801.34298 0.01034
1800.05722 0.01042
1798.77147 0.01060
1797.48571 0.01097
1796.19995 0.01149
1794.91420 0.01199
1793.62844 0.01225
1792.34269 0.01216
1791.05693 0.01184
1789.77118 0.01156
1788.48542 0.01152
1787.19967 0.01171
1785.91391 0.01198
1784.62816 0.01222
1783.34240 0.01242
1782.05665 0.01259
1780.77089 0.01259
1779.48514 0.01232
1778.19938 0.01184
1776.91363 0.01144
1775.62787 0.01131
1774.34212 0.01140
1773.05636 0.01149
1771.77061 0.01143
1770.48485 0.01122
1769.19910 0.01091
1767.91334 0.01062
1766.62759 0.01051
1765.34183 0.01067
1764.05608 0.01095
1762.77032 0.01113
1761.48457 0.01114
1760.19881 0.01104
1758.91306 0.01095
1757.62730 0.01092
1756.34155 0.01101
1755.05579 0.01127
1753.77003 0.01164
1752.48428 0.01190
1751.19852 0.01188
1749.91277 0.01159
1748.62701 0.01121
1747.34126 0.01092
1746.05550 0.01081
1744.76975 0.01084
1743.48399 0.01090
1742.19824 0.01087
1740.91248 0.01076
1739.62673 0.01074
1738.34097 0.01105
1737.05522 0.01168
1735.76946 0.01225
1734.48371 0.01245
1733.19795 0.01225
1731.91220 0.01192
1730.62644 0.01167
1729.34069 0.01160
1728.05493 0.01166
1726.76918 0.01177
1725.48342 0.01181
1724.19767 0.01179
1722.91191 0.01188
1721.62616 0.01227
1720.34040 0.01290
1719.05465 0.01345
1717.76889 0.01363
1716.48314 0.01345
1715.19738 0.01313
1713.91162 0.01291
1712.62587 0.01292
1711.34011 0.01319
1710.05436 0.01370
1708.76860 0.01433
1707.48285 0.01493
1706.19709 0.01548
1704.91134 0.01617
1703.62558 0.01708
1702.33983 0.01804
1701.05407 0.01885
1699.76832 0.01949
1698.48256 0.02005
1697.19681 0.02043
1695.91105 0.02060
1694.62530 0.02063
1693.33954 0.02076
1692.05379 0.02114
1690.76803 0.02182
1689.48228 0.02280
1688.19652 0.02403
1686.91077 0.02533
1685.62501 0.02635
1684.33926 0.02687
1683.05350 0.02701
1681.76775 0.02719
1680.48199 0.02770
1679.19624 0.02857
1677.91048 0.02956
1676.62473 0.03041
1675.33897 0.03103
1674.05322 0.03153
1672.76746 0.03210
1671.48170 0.03275
1670.19595 0.03339
1668.91019 0.03394
1667.62444 0.03449
1666.33868 0.03510
1665.05293 0.03576
1663.76717 0.03637
1662.48142 0.03685
1661.19566 0.03724
1659.90991 0.03768
1658.62415 0.03837
1657.33840 0.03947
1656.05264 0.04081
1654.76689 0.04190
1653.48113 0.04220
1652.19538 0.04175
1650.90962 0.04115
1649.62387 0.04096
1648.33811 0.04125
1647.05236 0.04159
1645.76660 0.04162
1644.48085 0.04136
1643.19509 0.04108
1641.90934 0.04096
1640.62358 0.04104
1639.33783 0.04124
1638.05207 0.04142
1636.76632 0.04137
1635.48056 0.04094
1634.19481 0.04020
1632.90905 0.03939
1631.62329 0.03872
1630.33754 0.03828
1629.05178 0.03799
1627.76603 0.03775
1626.48027 0.03744
1625.19452 0.03700
1623.90876 0.03638
1622.62301 0.03569
1621.33725 0.03513
1620.05150 0.03476
1618.76574 0.03443
1617.47999 0.03387
1616.19423 0.03298
1614.90848 0.03195
1613.62272 0.03105
1612.33697 0.03045
1611.05121 0.03007
1609.76546 0.02977
1608.47970 0.02943
1607.19395 0.02902
1605.90819 0.02860
1604.62244 0.02823
1603.33668 0.02792
1602.05093 0.02765
1600.76517 0.02739
1599.47942 0.02715
1598.19366 0.02696
1596.90791 0.02685
1595.62215 0.02679
1594.33640 0.02675
1593.05064 0.02672
1591.76488 0.02671
1590.47913 0.02670
1589.19337 0.02670
1587.90762 0.02670
1586.62186 0.02671
1585.33611 0.02673
1584.05035 0.02678
1582.76460 0.02690
1581.47884 0.02720
1580.19309 0.02772
1578.90733 0.02837
1577.62158 0.02889
1576.33582 0.02908
1575.05007 0.02900
1573.76431 0.02892
1572.47856 0.02906
1571.19280 0.02935
1569.90705 0.02960
1568.62129 0.02972
1567.33554 0.02978
1566.04978 0.02989
1564.76403 0.03021
1563.47827 0.03087
1562.19252 0.03181
1560.90676 0.03271
1559.62101 0.03317
1558.33525 0.03305
1557.04950 0.03261
1555.76374 0.03224
1554.47799 0.03211
1553.19223 0.03219
1551.90648 0.03235
1550.62072 0.03252
1549.33496 0.03268
1548.04921 0.03288
1546.76345 0.03312
1545.47770 0.03345
1544.19194 0.03389
1542.90619 0.03437
1541.62043 0.03471
1540.33468 0.03467
1539.04892 0.03423
1537.76317 0.03368
1536.47741 0.03334
1535.19166 0.03329
1533.90590 0.03338
1532.62015 0.03342
1531.33439 0.03342
1530.04864 0.03345
1528.76288 0.03357
1527.47713 0.03374
1526.19137 0.03397
1524.90562 0.03430
1523.61986 0.03468
1522.33411 0.03497
1521.04835 0.03507
1519.76260 0.03501
1518.47684 0.03492
1517.19109 0.03490
1515.90533 0.03496
1514.61958 0.03510
1513.33382 0.03537
1512.04807 0.03583
1510.76231 0.03653
1509.47655 0.03737
1508.19080 0.03805
1506.90504 0.03825
1505.61929 0.03796
1504.33353 0.03751
1503.04778 0.03728
1501.76202 0.03743
1500.47627 0.03787
1499.19051 0.03834
1497.90476 0.03863
1496.61900 0.03868
1495.33325 0.03856
1494.04749 0.03849
1492.76174 0.03860
1491.47598 0.03886
1490.19023 0.03912
1488.90447 0.03928
1487.61872 0.03938
1486.33296 0.03953
1485.04721 0.03980
1483.76145 0.04018
1482.47570 0.04063
1481.18994 0.04111
1479.90419 0.04164
1478.61843 0.04225
1477.33268 0.04301
1476.04692 0.04387
1474.76117 0.04473
1473.47541 0.04541
1472.18966 0.04581
1470.90390 0.04604
1469.61814 0.04630
1468.33239 0.04676
1467.04663 0.04742
1465.76088 0.04816
1464.47512 0.04885
1463.18937 0.04952
1461.90361 0.05032
1460.61786 0.05134
1459.33210 0.05248
1458.04635 0.05342
1456.76059 0.05390
1455.47484 0.05391
1454.18908 0.05372
1452.90333 0.05357
1451.61757 0.05353
1450.33182 0.05350
1449.04606 0.05335
1447.76031 0.05303
1446.47455 0.05256
1445.18880 0.05205
1443.90304 0.05154
1442.61729 0.05109
1441.33153 0.05079
1440.04578 0.05071
1438.76002 0.05081
1437.47427 0.05096
1436.18851 0.05103
1434.90276 0.05106
1433.61700 0.05117
1432.33125 0.05145
1431.04549 0.05184
1429.75974 0.05227
1428.47398 0.05269
1427.18822 0.05315
1425.90247 0.05368
1424.61671 0.05431
1423.33096 0.05500
1422.04520 0.05570
1420.75945 0.05627
1419.47369 0.05661
1418.18794 0.05673
1416.90218 0.05676
1415.61643 0.05682
1414.33067 0.05696
1413.04492 0.05712
1411.75916 0.05719
1410.47341 0.05713
1409.18765 0.05694
1407.90190 0.05664
1406.61614 0.05623
1405.33039 0.05571
1404.04463 0.05511
1402.75888 0.05447
1401.47312 0.05381
1400.18737 0.05309
1398.90161 0.05228
1397.61586 0.05139
1396.33010 0.05042
1395.04435 0.04936
1393.75859 0.04822
1392.47284 0.04706
1391.18708 0.04599
1389.90133 0.04503
1388.61557 0.04412
1387.32981 0.04317
1386.04406 0.04216
1384.75830 0.04115
1383.47255 0.04020
1382.18679 0.03932
1380.90104 0.03848
1379.61528 0.03763
1378.32953 0.03678
1377.04377 0.03591
1375.75802 0.03503
1374.47226 0.03413
1373.18651 0.03323
1371.90075 0.03235
1370.61500 0.03150
1369.32924 0.03067
1368.04349 0.02987
1366.75773 0.02911
1365.47198 0.02841
1364.18622 0.02775
1362.90047 0.02714
1361.61471 0.02655
1360.32896 0.02595
1359.04320 0.02538
1357.75745 0.02485
1356.47169 0.02440
1355.18594 0.02404
1353.90018 0.02374
1352.61443 0.02348
1351.32867 0.02324
1350.04292 0.02301
1348.75716 0.02279
1347.47141 0.02258
1346.18565 0.02237
1344.89989 0.02219
1343.61414 0.02204
1342.32838 0.02192
1341.04263 0.02181
1339.75687 0.02170
1338.47112 0.02159
1337.18536 0.02149
1335.89961 0.02142
1334.61385 0.02134
1333.32810 0.02124
1332.04234 0.02108
1330.75659 0.02089
1329.47083 0.02066
1328.18508 0.02042
1326.89932 0.02018
1325.61357 0.01996
1324.32781 0.01978
1323.04206 0.01965
1321.75630 0.01955
1320.47055 0.01945
1319.18479 0.01931
1317.89904 0.01910
1316.61328 0.01884
1315.32753 0.01858
1314.04177 0.01835
1312.75602 0.01815
1311.47026 0.01799
1310.18451 0.01788
1308.89875 0.01782
1307.61300 0.01777
1306.32724 0.01770
1305.04148 0.01757
1303.75573 0.01743
1302.46997 0.01729
1301.18422 0.01717
1299.89846 0.01704
1298.61271 0.01687
1297.32695 0.01665
1296.04120 0.01645
1294.75544 0.01628
1293.46969 0.01616
1292.18393 0.01607
1290.89818 0.01597
1289.61242 0.01585
1288.32667 0.01571
1287.04091 0.01559
1285.75516 0.01552
1284.46940 0.01552
1283.18365 0.01554
1281.89789 0.01551
1280.61214 0.01541
1279.32638 0.01529
1278.04063 0.01519
1276.75487 0.01513
1275.46912 0.01510
1274.18336 0.01507
1272.89761 0.01505
1271.61185 0.01507
1270.32610 0.01515
1269.04034 0.01530
1267.75459 0.01547
1266.46883 0.01565
1265.18307 0.01580
1263.89732 0.01591
1262.61156 0.01597
1261.32581 0.01595
1260.04005 0.01585
1258.75430 0.01569
1257.46854 0.01548
1256.18279 0.01527
1254.89703 0.01506
1253.61128 0.01491
1252.32552 0.01482
1251.03977 0.01480
1249.75401 0.01481
1248.46826 0.01483
1247.18250 0.01482
1245.89675 0.01479
1244.61099 0.01476
1243.32524 0.01475
1242.03948 0.01475
1240.75373 0.01475
1239.46797 0.01473
1238.18222 0.01468
1236.89646 0.01460
1235.61071 0.01450
1234.32495 0.01436
1233.03920 0.01419
1231.75344 0.01397
1230.46769 0.01374
1229.18193 0.01350
1227.89618 0.01328
1226.61042 0.01309
1225.32467 0.01292
1224.03891 0.01276
1222.75315 0.01261
1221.46740 0.01248
1220.18164 0.01240
1218.89589 0.01238
1217.61013 0.01238
1216.32438 0.01237
1215.03862 0.01232
1213.75287 0.01225
1212.46711 0.01222
1211.18136 0.01225
1209.89560 0.01235
1208.60985 0.01250
1207.32409 0.01270
1206.03834 0.01292
1204.75258 0.01314
1203.46683 0.01336
1202.18107 0.01360
1200.89532 0.01344
1199.60956 0.01239
1198.32381 0.01240
1197.03805 0.01245
1195.75230 0.01243
1194.46654 0.01236
1193.18079 0.01227
1191.89503 0.01221
1190.60928 0.01221
1189.32352 0.01223
1188.03777 0.01221
1186.75201 0.01213
1185.46626 0.01202
1184.18050 0.01190
1182.89474 0.01181
1181.60899 0.01178
1180.32323 0.01181
1179.03748 0.01187
1177.75172 0.01193
1176.46597 0.01202
1175.18021 0.01211
1173.89446 0.01219
1172.60870 0.01224
1171.32295 0.01229
1170.03719 0.01240
1168.75144 0.01255
1167.46568 0.01271
1166.17993 0.01286
1164.89417 0.01299
1163.60842 0.01312
1162.32266 0.01324
1161.03691 0.01335
1159.75115 0.01341
1158.46540 0.01347
1157.17964 0.01358
1155.89389 0.01378
1154.60813 0.01407
1153.32238 0.01443
1152.03662 0.01484
1150.75087 0.01525
1149.46511 0.01559
1148.17936 0.01583
1146.89360 0.01604
1145.60785 0.01632
1144.32209 0.01667
1143.03633 0.01708
1141.75058 0.01749
1140.46482 0.01790
1139.17907 0.01835
1137.89331 0.01888
1136.60756 0.01952
1135.32180 0.02026
1134.03605 0.02104
1132.75029 0.02185
1131.46454 0.02270
1130.17878 0.02363
1128.89303 0.02464
1127.60727 0.02572
1126.32152 0.02693
1125.03576 0.02828
1123.75001 0.02973
1122.46425 0.03121
1121.17850 0.03268
1119.89274 0.03418
1118.60699 0.03573
1117.32123 0.03734
1116.03548 0.03899
1114.74972 0.04068
1113.46397 0.04238
1112.17821 0.04404
1110.89246 0.04565
1109.60670 0.04722
1108.32095 0.04878
1107.03519 0.05032
1105.74944 0.05183
1104.46368 0.05330
1103.17793 0.05471
1101.89217 0.05610
1100.60641 0.05748
1099.32066 0.05887
1098.03490 0.06025
1096.74915 0.06155
1095.46339 0.06276
1094.17764 0.06387
1092.89188 0.06488
1091.60613 0.06579
1090.32037 0.06662
1089.03462 0.06739
1087.74886 0.06816
1086.46311 0.06899
1085.17735 0.06992
1083.89160 0.07097
1082.60584 0.07212
1081.32009 0.07333
1080.03433 0.07455
1078.74858 0.07578
1077.46282 0.07702
1076.17707 0.07829
1074.89131 0.07963
1073.60556 0.08104
1072.31980 0.08256
1071.03405 0.08413
1069.74829 0.08571
1068.46254 0.08723
1067.17678 0.08872
1065.89103 0.09024
1064.60527 0.09182
1063.31952 0.09346
1062.03376 0.09514
1060.74800 0.09683
1059.46225 0.09851
1058.17649 0.10016
1056.89074 0.10175
1055.60498 0.10328
1054.31923 0.10474
1053.03347 0.10617
1051.74772 0.10759
1050.46196 0.10903
1049.17621 0.11052
1047.89045 0.11204
1046.60470 0.11357
1045.31894 0.11507
1044.03319 0.11655
1042.74743 0.11799
1041.46168 0.11942
1040.17592 0.12085
1038.89017 0.12230
1037.60441 0.12377
1036.31866 0.12525
1035.03290 0.12666
1033.74715 0.12797
1032.46139 0.12916
1031.17564 0.13025
1029.88988 0.13129
1028.60413 0.13227
1027.31837 0.13316
1026.03262 0.13393
1024.74686 0.13454
1023.46111 0.13501
1022.17535 0.13534
1020.88960 0.13551
1019.60384 0.13548
1018.31808 0.13522
1017.03233 0.13476
1015.74657 0.13417
1014.46082 0.13350
1013.17506 0.13271
1011.88931 0.13171
1010.60355 0.13047
1009.31780 0.12908
1008.03204 0.12762
1006.74629 0.12611
1005.46053 0.12452
1004.17478 0.12284
1002.88902 0.12107
1001.60327 0.11924
1000.31751 0.11737
999.03176 0.11546
997.74600 0.11352
996.46025 0.11157
995.17449 0.10961
993.88874 0.10765
992.60298 0.10567
991.31723 0.10368
990.03147 0.10173
988.74572 0.09982
987.45996 0.09795
986.17421 0.09605
984.88845 0.09408
983.60270 0.09209
982.31694 0.09016
981.03119 0.08830
979.74543 0.08651
978.45967 0.08475
977.17392 0.08299
975.88816 0.08127
974.60241 0.07965
973.31665 0.07821
972.03090 0.07699
970.74514 0.07604
969.45939 0.07537
968.17363 0.07494
966.88788 0.07469
965.60212 0.07452
964.31637 0.07437
963.03061 0.07421
961.74486 0.07398
960.45910 0.07362
959.17335 0.07304
957.88759 0.07224
956.60184 0.07126
955.31608 0.07018
954.03033 0.06906
952.74457 0.06795
951.45882 0.06686
950.17306 0.06580
948.88731 0.06471
947.60155 0.06361
946.31580 0.06254
945.03004 0.06155
943.74429 0.06062
942.45853 0.05968
941.17278 0.05871
939.88702 0.05774
938.60126 0.05686
937.31551 0.05606
936.02975 0.05533
934.74400 0.05461
933.45824 0.05385
932.17249 0.05306
930.88673 0.05228
929.60098 0.05155
928.31522 0.05088
927.02947 0.05023
925.74371 0.04958
924.45796 0.04896
923.17220 0.04839
921.88645 0.04786
920.60069 0.04733
919.31494 0.04676
918.02918 0.04623
916.74343 0.04581
915.45767 0.04548
914.17192 0.04512
912.88616 0.04467
911.60041 0.04414
910.31465 0.04357
909.02890 0.04302
907.74314 0.04251
906.45739 0.04202
905.17163 0.04151
903.88588 0.04094
902.60012 0.04031
901.31437 0.03970
900.02861 0.03919
898.74286 0.03877
897.45710 0.03839
896.17134 0.03801
894.88559 0.03762
893.59983 0.03723
892.31408 0.03682
891.02832 0.03645
889.74257 0.03619
888.45681 0.03606
887.17106 0.03611
885.88530 0.03635
884.59955 0.03686
883.31379 0.03764
882.02804 0.03860
880.74228 0.03958
879.45653 0.04049
878.17077 0.04133
876.88502 0.04220
875.59926 0.04313
874.31351 0.04402
873.02775 0.04468
871.74200 0.04495
870.45624 0.04484
869.17049 0.04453
867.88473 0.04415
866.59898 0.04368
865.31322 0.04300
864.02747 0.04200
862.74171 0.04074
861.45596 0.03943
860.17020 0.03827
858.88445 0.03733
857.59869 0.03660
856.31293 0.03606
855.02718 0.03563
853.74142 0.03525
852.45567 0.03485
851.16991 0.03440
849.88416 0.03398
848.59840 0.03361
847.31265 0.03329
846.02689 0.03300
844.74114 0.03274
843.45538 0.03252
842.16963 0.03232
840.88387 0.03208
839.59812 0.03182
838.31236 0.03156
837.02661 0.03140
835.74085 0.03133
834.45510 0.03134
833.16934 0.03139
831.88359 0.03142
830.59783 0.03138
829.31208 0.03125
828.02632 0.03106
826.74057 0.03085
825.45481 0.03069
824.16906 0.03062
822.88330 0.03061
821.59755 0.03056
820.31179 0.03040
819.02604 0.03012
817.74028 0.02979
816.45452 0.02952
815.16877 0.02930
813.88301 0.02916
812.59726 0.02911
811.31150 0.02912
810.02575 0.02908
808.73999 0.02896
807.45424 0.02879
806.16848 0.02866
804.88273 0.02861
803.59697 0.02867
802.31122 0.02888
801.02546 0.02924
799.73971 0.02964
798.45395 0.02988
797.16820 0.02991
795.88244 0.02976
794.59669 0.02954
793.31093 0.02932
792.02518 0.02912
790.73942 0.02894
789.45367 0.02874
788.16791 0.02851
786.88216 0.02822
785.59640 0.02791
784.31065 0.02766
783.02489 0.02753
781.73914 0.02752
780.45338 0.02757
779.16763 0.02761
777.88187 0.02761
776.59612 0.02757
775.31036 0.02751
774.02460 0.02747
772.73885 0.02747
771.45309 0.02750
770.16734 0.02750
768.88158 0.02742
767.59583 0.02725
766.31007 0.02702
765.02432 0.02679
763.73856 0.02662
762.45281 0.02656
761.16705 0.02656
759.88130 0.02653
758.59554 0.02648
757.30979 0.02650
756.02403 0.02665
754.73828 0.02688
753.45252 0.02708
752.16677 0.02717
750.88101 0.02716
749.59526 0.02707
748.30950 0.02696
747.02375 0.02690
745.73799 0.02689
744.45224 0.02683
743.16648 0.02668
741.88073 0.02649
740.59497 0.02634
739.30922 0.02623
738.02346 0.02612
736.73771 0.02602
735.45195 0.02590
734.16619 0.02574
732.88044 0.02553
731.59468 0.02539
730.30893 0.02537
729.02317 0.02542
727.73742 0.02542
726.45166 0.02531
725.16591 0.02513
723.88015 0.02434
722.59440 0.02481
721.30864 0.02539
720.02289 0.02566
718.73713 0.02570
717.45138 0.02556
716.16562 0.02530
714.87987 0.02503
713.59411 0.02484
712.30836 0.02479
711.02260 0.02482
709.73685 0.02488
708.45109 0.02495
707.16534 0.02501
705.87958 0.02511
704.59383 0.02524
703.30807 0.02540
702.02232 0.02555
700.73656 0.02570
699.45081 0.02588
698.16505 0.02609
696.87930 0.02630
695.59354 0.02642
694.30779 0.02638
693.02203 0.02618
691.73627 0.02595
690.45052 0.02581
689.16476 0.02579
687.87901 0.02584
686.59325 0.02584
685.30750 0.02572
684.02174 0.02551
682.73599 0.02528
681.45023 0.02508
680.16448 0.02496
678.87872 0.02491
677.59297 0.02488
676.30721 0.02483
675.02146 0.02476
673.73570 0.02470
672.44995 0.02465
671.16419 0.02461
669.87844 0.02457
668.59268 0.02451
667.30693 0.02439
666.02117 0.02427
664.73542 0.02414
663.44966 0.02402
662.16391 0.02390
660.87815 0.02381
659.59240 0.02373
658.30664 0.02366
657.02089 0.02359
655.73513 0.02352
654.44938 0.02349
653.16362 0.02347
651.87786 0.02343
650.59211 0.02335
649.30635 0.02325
648.02060 0.02320
646.73484 0.02321
645.44909 0.02326
644.16333 0.02328
642.87758 0.02323
641.59182 0.02316
640.30607 0.02311
639.02031 0.02310
637.73456 0.02313
636.44880 0.02323
635.16305 0.02343
633.87729 0.02363
632.59154 0.02400
631.30578 0.02658
630.02003 0.03499
628.73427 0.04230
627.44852 0.03602
626.16276 0.04172
624.87701 0.05453
623.59125 0.06541
622.30550 0.07169
621.01974 0.07290
619.73399 0.06955
618.44823 0.06301
617.16248 0.05502
615.87672 0.04723
614.59097 0.04142
613.30521 0.03940
612.01945 0.04210
610.73370 0.04857
609.44794 0.05631
608.16219 0.06319
606.87643 0.06865
605.59068 0.07277
604.30492 0.07513
603.01917 0.07508
601.73341 0.07281
600.44766 0.06941
599.16190 0.06601
597.87615 0.06316
596.59039 0.06089
595.30464 0.05907
594.01888 0.05761
592.73313 0.05648
591.44737 0.05570
590.16162 0.05526
588.87586 0.05514
587.59011 0.05532
586.30435 0.05582
585.01860 0.05670
583.73284 0.05794
582.44709 0.05939
581.16133 0.06086
579.87558 0.06230
578.58982 0.06373
577.30407 0.06514
576.01831 0.06647
574.73256 0.06768
573.44680 0.06894
572.16105 0.07053
570.87529 0.07259
569.58953 0.07494
568.30378 0.07723
567.01802 0.07906
565.73227 0.08029
564.44651 0.08094
563.16076 0.08108
561.87500 0.08078
560.58925 0.08010
559.30349 0.07906
558.01774 0.07763
556.73198 0.07576
555.44623 0.07354
554.16047 0.07118
552.87472 0.06888
551.58896 0.06670
550.30321 0.06464
549.01745 0.06273
547.73170 0.06107
546.44594 0.05972
545.16019 0.05851
543.87443 0.05716
542.58868 0.05557
541.30292 0.05388
540.01717 0.05235
538.73141 0.05112
537.44566 0.05012
536.15990 0.04920
534.87415 0.04829
533.58839 0.04737
532.30264 0.04648
531.01688 0.04560
529.73112 0.04476
528.44537 0.04397
527.15961 0.04323
525.87386 0.04256
524.58810 0.04197
523.30235 0.04143
522.01659 0.04088
520.73084 0.04026
519.44508 0.03962
518.15933 0.03903
516.87357 0.03847
515.58782 0.03786
514.30206 0.03716
513.01631 0.03641
511.73055 0.03569
510.44480 0.03508
509.15904 0.03457
507.87329 0.03412
506.58753 0.03365
505.30178 0.03314
504.01602 0.03262
502.73027 0.03215
501.44451 0.03171
500.15876 0.03131
498.87300 0.03092
497.58725 0.03053
496.30149 0.03015
495.01574 0.02979
493.72998 0.02947
492.44423 0.02922
491.15847 0.02908
489.87271 0.02902
488.58696 0.02897
487.30120 0.02886
486.01545 0.02861
484.72969 0.02825
483.44394 0.02784
482.15818 0.02748
480.87243 0.02725
479.58667 0.02716
478.30092 0.02719
477.01516 0.02728
475.72941 0.02741
474.44365 0.02756
473.15790 0.02772
471.87214 0.02786
470.58639 0.02793
469.30063 0.02793
468.01488 0.02783
466.72912 0.02766
465.44337 0.02740
464.15761 0.02708
462.87186 0.02675
461.58610 0.02642
460.30035 0.02611
459.01459 0.02581
457.72884 0.02551
456.44308 0.02523
455.15733 0.02497
453.87157 0.02472
452.58582 0.02446
451.30006 0.02418
450.01431 0.02388
448.72855 0.02358
447.44279 0.02332
446.15704 0.02313
444.87128 0.02299
443.58553 0.02287
442.29977 0.02272
441.01402 0.02254
439.72826 0.02237
438.44251 0.02224
437.15675 0.02212
435.87100 0.02200
434.58524 0.02185
433.29949 0.02168
432.01373 0.02149
430.72798 0.02133
429.44222 0.02121
428.15647 0.02114
426.87071 0.02107
425.58496 0.02098
424.29920 0.02086
423.01345 0.02075
421.72769 0.02065
420.44194 0.02050
419.15618 0.02027
417.87043 0.01997
416.58467 0.01964
415.29892 0.01935
414.01316 0.01915
412.72741 0.01901
411.44165 0.01892
410.15590 0.01885
408.87014 0.01881
407.58438 0.01878
406.29863 0.01875
405.01287 0.01870
403.72712 0.01864
402.44136 0.01859
401.15561 0.01860
399.86985 0.01864
