3998.69854 0.03206
3997.41278 0.03250
3996.12703 0.03375
3994.84127 0.03463
3993.55552 0.03398
3992.26976 0.03246
3990.98401 0.03169
3989.69825 0.03262
3988.41250 0.03478
3987.12674 0.03681
3985.84099 0.03740
3984.55523 0.03618
3983.26948 0.03412
3981.98372 0.03301
3980.69797 0.03380
3979.41221 0.03532
3978.12646 0.03520
3976.84070 0.03239
3975.55495 0.02846
3974.26919 0.02611
3972.98344 0.02689
3971.69768 0.03040
3970.41193 0.03504
3969.12617 0.03875
3967.84042 0.03967
3966.55466 0.03719
3965.26891 0.03266
3963.98315 0.02860
3962.69740 0.02682
3961.41164 0.02724
3960.12589 0.02853
3958.84013 0.02964
3957.55437 0.03071
3956.26862 0.03236
3954.98286 0.03428
3953.69711 0.03499
3952.41135 0.03366
3951.12560 0.03151
3949.83984 0.03050
3948.55409 0.03094
3947.26833 0.03094
3945.98258 0.02864
3944.69682 0.02447
3943.41107 0.02107
3942.12531 0.02091
3940.83956 0.02401
3939.55380 0.02807
3938.26805 0.03086
3936.98229 0.03208
3935.69654 0.03293
3934.41078 0.03448
3933.12503 0.03684
3931.83927 0.03941
3930.55352 0.04116
3929.26776 0.04104
3927.98201 0.03861
3926.69625 0.03479
3925.41050 0.03122
3924.12474 0.02902
3922.83899 0.02823
3921.55323 0.02871
3920.26748 0.03083
3918.98172 0.03480
3917.69596 0.03935
3916.41021 0.04201
3915.12445 0.04139
3913.83870 0.03893
3912.55294 0.03769
3911.26719 0.03945
3909.98143 0.04315
3908.69568 0.04620
3907.40992 0.04716
3906.12417 0.04685
3904.83841 0.04686
3903.55266 0.04752
3902.26690 0.04768
3900.98115 0.04602
3899.69539 0.04232
3898.40964 0.03772
3897.12388 0.03437
3895.83813 0.03432
3894.55237 0.03737
3893.26662 0.04074
3891.98086 0.04184
3890.69511 0.04098
3889.40935 0.04069
3888.12360 0.04243
3886.83784 0.04518
3885.55209 0.04700
3884.26633 0.04705
3882.98058 0.04594
3881.69482 0.04475
3880.40907 0.04379
3879.12331 0.04196
3877.83755 0.03764
3876.55180 0.03086
3875.26604 0.02408
3873.98029 0.02003
3872.69453 0.01897
3871.40878 0.01924
3870.12302 0.02027
3868.83727 0.02335
3867.55151 0.02936
3866.26576 0.03665
3864.98000 0.04207
3863.69425 0.04364
3862.40849 0.04179
3861.12274 0.03860
3859.83698 0.03655
3858.55123 0.03658
3857.26547 0.03722
3855.97972 0.03604
3854.69396 0.03214
3853.40821 0.02704
3852.12245 0.02309
3850.83670 0.02130
3849.55094 0.02119
3848.26519 0.02124
3846.97943 0.01986
3845.69368 0.01686
3844.40792 0.01426
3843.12217 0.01489
3841.83641 0.01914
3840.55066 0.02411
3839.26490 0.02657
3837.97915 0.02638
3836.69339 0.02609
3835.40763 0.02728
3834.12188 0.02861
3832.83612 0.02858
3831.55037 0.02787
3830.26461 0.02803
3828.97886 0.02934
3827.69310 0.03135
3826.40735 0.03432
3825.12159 0.03820
3823.83584 0.04103
3822.55008 0.04054
3821.26433 0.03714
3819.97857 0.03360
3818.69282 0.03201
3817.40706 0.03211
3816.12131 0.03231
3814.83555 0.03079
3813.54980 0.02659
3812.26404 0.02093
3810.97829 0.01728
3809.69253 0.01881
3808.40678 0.02531
3807.12102 0.03309
3805.83527 0.03757
3804.54951 0.03655
3803.26376 0.03152
3801.97800 0.02643
3800.69225 0.02481
3799.40649 0.02737
3798.12074 0.03210
3796.83498 0.03655
3795.54922 0.03926
3794.26347 0.03961
3792.97771 0.03761
3791.69196 0.03436
3790.40620 0.03197
3789.12045 0.03207
3787.83469 0.03428
3786.54894 0.03676
3785.26318 0.03832
3783.97743 0.03954
3782.69167 0.04167
3781.40592 0.04464
3780.12016 0.04646
3778.83441 0.04482
3777.54865 0.03970
3776.26290 0.03434
3774.97714 0.03284
3773.69139 0.03620
3772.40563 0.04120
3771.11988 0.04352
3769.83412 0.04153
3768.54837 0.03697
3767.26261 0.03270
3765.97686 0.03061
3764.69110 0.03090
3763.40535 0.03240
3762.11959 0.03335
3760.83384 0.03265
3759.54808 0.03056
3758.26233 0.02818
3756.97657 0.02668
3755.69081 0.02688
3754.40506 0.02907
3753.11930 0.03315
3751.83355 0.03851
3750.54779 0.04434
3749.26204 0.04935
3747.97628 0.05160
3746.69053 0.04970
3745.40477 0.04411
3744.11902 0.03675
3742.83326 0.02923
3741.54751 0.02283
3740.26175 0.01907
3738.97600 0.01876
3737.69024 0.02046
3736.40449 0.02115
3735.11873 0.01929
3733.83298 0.01624
3732.54722 0.01524
3731.26147 0.01837
3729.97571 0.02470
3728.68996 0.03138
3727.40420 0.03613
3726.11845 0.03855
3724.83269 0.03890
3723.54694 0.03701
3722.26118 0.03277
3720.97543 0.02742
3719.68967 0.02362
3718.40392 0.02391
3717.11816 0.02867
3715.83241 0.03562
3714.54665 0.04139
3713.26089 0.04443
3711.97514 0.04587
3710.68938 0.04736
3709.40363 0.04898
3708.11787 0.04992
3706.83212 0.05048
3705.54636 0.05145
3704.26061 0.05196
3702.97485 0.04947
3701.68910 0.04261
3700.40334 0.03370
3699.11759 0.02736
3697.83183 0.02646
3696.54608 0.03018
3695.26032 0.03630
3693.97457 0.04369
3692.68881 0.05121
3691.40306 0.05601
3690.11730 0.05523
3688.83155 0.04832
3687.54579 0.03738
3686.26004 0.02534
3684.97428 0.01506
3683.68853 0.00943
3682.40277 0.01008
3681.11702 0.01571
3679.83126 0.02223
3678.54551 0.02502
3677.25975 0.02230
3675.97400 0.01698
3674.68824 0.01447
3673.40248 0.01754
3672.11673 0.02372
3670.83097 0.02847
3669.54522 0.02966
3668.25946 0.02796
3666.97371 0.02460
3665.68795 0.02069
3664.40220 0.01811
3663.11644 0.01868
3661.83069 0.02179
3660.54493 0.02396
3659.25918 0.02224
3657.97342 0.01717
3656.68767 0.01190
3655.40191 0.00895
3654.11616 0.00827
3652.83040 0.00807
3651.54465 0.00632
3650.25889 0.00190
3648.97314 -0.00467
3647.68738 -0.01169
3646.40163 -0.01737
3645.11587 -0.02046
3643.83012 -0.01969
3642.54436 -0.01451
3641.25861 -0.00598
3639.97285 0.00346
3638.68710 0.01062
3637.40134 0.01243
3636.11559 0.00748
3634.82983 -0.00207
3633.54408 -0.01169
3632.25832 -0.01844
3630.97256 -0.02307
3629.68681 -0.02714
3628.40105 -0.02982
3627.11530 -0.02924
3625.82954 -0.02669
3624.54379 -0.02713
3623.25803 -0.03400
3621.97228 -0.04428
3620.68652 -0.05106
3619.40077 -0.05111
3618.11501 -0.04773
3616.82926 -0.04526
3615.54350 -0.04307
3614.25775 -0.03741
3612.97199 -0.02769
3611.68624 -0.01846
3610.40048 -0.01542
3609.11473 -0.02095
3607.82897 -0.03285
3606.54322 -0.04564
3605.25746 -0.05378
3603.97171 -0.05521
3602.68595 -0.05253
3601.40020 -0.05055
3600.11444 -0.05233
3598.82869 -0.05748
3597.54293 -0.06358
3596.25718 -0.06867
3594.97142 -0.07230
3593.68567 -0.07470
3592.39991 -0.07561
3591.11415 -0.07475
3589.82840 -0.07282
3588.54264 -0.07118
3587.25689 -0.07015
3585.97113 -0.06866
3584.68538 -0.06617
3583.39962 -0.06399
3582.11387 -0.06417
3580.82811 -0.06754
3579.54236 -0.07369
3578.25660 -0.08196
3576.97085 -0.09151
3575.68509 -0.10074
3574.39934 -0.10737
3573.11358 -0.10929
3571.82783 -0.10591
3570.54207 -0.09930
3569.25632 -0.09408
3567.97056 -0.09418
3566.68481 -0.09897
3565.39905 -0.10376
3564.11330 -0.10505
3562.82754 -0.10399
3561.54179 -0.10404
3560.25603 -0.10699
3558.97028 -0.11226
3557.68452 -0.11865
3556.39877 -0.12490
3555.11301 -0.12925
3553.82726 -0.13042
3552.54150 -0.12935
3551.25574 -0.12914
3549.96999 -0.13263
3548.68423 -0.13947
3547.39848 -0.14551
3546.11272 -0.14599
3544.82697 -0.14015
3543.54121 -0.13251
3542.25546 -0.12871
3540.96970 -0.13029
3539.68395 -0.13413
3538.39819 -0.13636
3537.11244 -0.13585
3535.82668 -0.13424
3534.54093 -0.13336
3533.25517 -0.13360
3531.96942 -0.13486
3530.68366 -0.13836
3529.39791 -0.14585
3528.11215 -0.15641
3526.82640 -0.16540
3525.54064 -0.16800
3524.25489 -0.16347
3522.96913 -0.15536
3521.68338 -0.14844
3520.39762 -0.14591
3519.11187 -0.14844
3517.82611 -0.15442
3516.54036 -0.16133
3515.25460 -0.16741
3513.96885 -0.17209
3512.68309 -0.17532
3511.39734 -0.17762
3510.11158 -0.18031
3508.82582 -0.18409
3507.54007 -0.18715
3506.25431 -0.18642
3504.96856 -0.18150
3503.68280 -0.17579
3502.39705 -0.17266
3501.11129 -0.17185
3499.82554 -0.17105
3498.53978 -0.16987
3497.25403 -0.17028
3495.96827 -0.17346
3494.68252 -0.17802
3493.39676 -0.18171
3492.11101 -0.18372
3490.82525 -0.18489
3489.53950 -0.18616
3488.25374 -0.18722
3486.96799 -0.18703
3485.68223 -0.18553
3484.39648 -0.18448
3483.11072 -0.18602
3481.82497 -0.19096
3480.53921 -0.19820
3479.25346 -0.20552
3477.96770 -0.21051
3476.68195 -0.21214
3475.39619 -0.21194
3474.11044 -0.21271
3472.82468 -0.21514
3471.53893 -0.21690
3470.25317 -0.21582
3468.96741 -0.21290
3467.68166 -0.21108
3466.39590 -0.21208
3465.11015 -0.21540
3463.82439 -0.21957
3462.53864 -0.22329
3461.25288 -0.22567
3459.96713 -0.22633
3458.68137 -0.22538
3457.39562 -0.22287
3456.10986 -0.21872
3454.82411 -0.21383
3453.53835 -0.21043
3452.25260 -0.21067
3450.96684 -0.21473
3449.68109 -0.22057
3448.39533 -0.22552
3447.10958 -0.22789
3445.82382 -0.22760
3444.53807 -0.22593
3443.25231 -0.22484
3441.96656 -0.22584
3440.68080 -0.22868
3439.39505 -0.23115
3438.10929 -0.23082
3436.82354 -0.22756
3435.53778 -0.22372
3434.25203 -0.22156
3432.96627 -0.22077
3431.68052 -0.21900
3430.39476 -0.21435
3429.10900 -0.20722
3427.82325 -0.20008
3426.53749 -0.19591
3425.25174 -0.19599
3423.96598 -0.19864
3422.68023 -0.20098
3421.39447 -0.20222
3420.10872 -0.20397
3418.82296 -0.20713
3417.53721 -0.20991
3416.25145 -0.21009
3414.96570 -0.20793
3413.67994 -0.20556
3412.39419 -0.20399
3411.10843 -0.20224
3409.82268 -0.19954
3408.53692 -0.19706
3407.25117 -0.19673
3405.96541 -0.19876
3404.67966 -0.20139
3403.39390 -0.20366
3402.10815 -0.20577
3400.82239 -0.20505
3399.53664 -0.20301
3398.25088 -0.20142
3396.96513 -0.20023
3395.67937 -0.20000
3394.39362 -0.20024
3393.10786 -0.19932
3391.82211 -0.19704
3390.53635 -0.19567
3389.25060 -0.19696
3387.96484 -0.19911
3386.67908 -0.19786
3385.39333 -0.19114
3384.10757 -0.18188
3382.82182 -0.17560
3381.53606 -0.17521
3380.25031 -0.17886
3378.96455 -0.18272
3377.67880 -0.18465
3376.39304 -0.18450
3375.10729 -0.18242
3373.82153 -0.17839
3372.53578 -0.17334
3371.25002 -0.16937
3369.96427 -0.16833
3368.67851 -0.17010
3367.39276 -0.17273
3366.10700 -0.17430
3364.82125 -0.17438
3363.53549 -0.17359
3362.24974 -0.17256
3360.96398 -0.17188
3359.67823 -0.17234
3358.39247 -0.17356
3357.10672 -0.17306
3355.82096 -0.16855
3354.53521 -0.16153
3353.24945 -0.15673
3351.96370 -0.15706
3350.67794 -0.16026
3349.39219 -0.16145
3348.10643 -0.15816
3346.82067 -0.15201
3345.53492 -0.14626
3344.24916 -0.14308
3342.96341 -0.14282
3341.67765 -0.14444
3340.39190 -0.14606
3339.10614 -0.14606
3337.82039 -0.14428
3336.53463 -0.14203
3335.24888 -0.14052
3333.96312 -0.13949
3332.67737 -0.13773
3331.39161 -0.13467
3330.10586 -0.13135
3328.82010 -0.12974
3327.53435 -0.13096
3326.24859 -0.13391
3324.96284 -0.13571
3323.67708 -0.13415
3322.39133 -0.12978
3321.10557 -0.12537
3319.81982 -0.12338
3318.53406 -0.12412
3317.24831 -0.12626
3315.96255 -0.12835
3314.67680 -0.12949
3313.39104 -0.12895
3312.10529 -0.12611
3310.81953 -0.12119
3309.53378 -0.11572
3308.24802 -0.11168
3306.96227 -0.11007
3305.67651 -0.10995
3304.39075 -0.10901
3303.10500 -0.10562
3301.81924 -0.10057
3300.53349 -0.09678
3299.24773 -0.09670
3297.96198 -0.09983
3296.67622 -0.10309
3295.39047 -0.10354
3294.10471 -0.10076
3292.81896 -0.09645
3291.53320 -0.09229
3290.24745 -0.08890
3288.96169 -0.08663
3287.67594 -0.08598
3286.39018 -0.08634
3285.10443 -0.08542
3283.81867 -0.08155
3282.53292 -0.07638
3281.24716 -0.07367
3279.96141 -0.07515
3278.67565 -0.07858
3277.38990 -0.08023
3276.10414 -0.07839
3274.81839 -0.07418
3273.53263 -0.06952
3272.24688 -0.06551
3270.96112 -0.06243
3269.67537 -0.06090
3268.38961 -0.06202
3267.10386 -0.06611
3265.81810 -0.07150
3264.53234 -0.07524
3263.24659 -0.07526
3261.96083 -0.07185
3260.67508 -0.06717
3259.38932 -0.06338
3258.10357 -0.06132
3256.81781 -0.06079
3255.53206 -0.06164
3254.24630 -0.06383
3252.96055 -0.06629
3251.67479 -0.06679
3250.38904 -0.06398
3249.10328 -0.05931
3247.81753 -0.05578
3246.53177 -0.05485
3245.24602 -0.05530
3243.96026 -0.05531
3242.67451 -0.05463
3241.38875 -0.05420
3240.10300 -0.05427
3238.81724 -0.05369
3237.53149 -0.05124
3236.24573 -0.04723
3234.95998 -0.04342
3233.67422 -0.04130
3232.38847 -0.04092
3231.10271 -0.04142
3229.81696 -0.04208
3228.53120 -0.04259
3227.24545 -0.04272
3225.95969 -0.04243
3224.67393 -0.04206
3223.38818 -0.04196
3222.10242 -0.04187
3220.81667 -0.04103
3219.53091 -0.03897
3218.24516 -0.03596
3216.95940 -0.03284
3215.67365 -0.03053
3214.38789 -0.02933
3213.10214 -0.02885
3211.81638 -0.02862
3210.53063 -0.02848
3209.24487 -0.02826
3207.95912 -0.02763
3206.67336 -0.02666
3205.38761 -0.02633
3204.10185 -0.02754
3202.81610 -0.02963
3201.53034 -0.03077
3200.24459 -0.02988
3198.95883 -0.02799
3197.67308 -0.02697
3196.38732 -0.02733
3195.10157 -0.02777
3193.81581 -0.02705
3192.53006 -0.02562
3191.24430 -0.02503
3189.95855 -0.02594
3188.67279 -0.02734
3187.38704 -0.02768
3186.10128 -0.02645
3184.81553 -0.02459
3183.52977 -0.02316
3182.24401 -0.02238
3180.95826 -0.02160
3179.67250 -0.02033
3178.38675 -0.01892
3177.10099 -0.01800
3175.81524 -0.01762
3174.52948 -0.01733
3173.24373 -0.01695
3171.95797 -0.01691
3170.67222 -0.01786
3169.38646 -0.01991
3168.10071 -0.02245
3166.81495 -0.02458
3165.52920 -0.02568
3164.24344 -0.02546
3162.95769 -0.02363
3161.67193 -0.02016
3160.38618 -0.01592
3159.10042 -0.01254
3157.81467 -0.01106
3156.52891 -0.01117
3155.24316 -0.01182
3153.95740 -0.01231
3152.67165 -0.01255
3151.38589 -0.01262
3150.10014 -0.01260
3148.81438 -0.01232
3147.52863 -0.01129
3146.24287 -0.00929
3144.95712 -0.00710
3143.67136 -0.00607
3142.38560 -0.00658
3141.09985 -0.00762
3139.81409 -0.00791
3138.52834 -0.00730
3137.24258 -0.00672
3135.95683 -0.00710
3134.67107 -0.00835
3133.38532 -0.00940
3132.09956 -0.00906
3130.81381 -0.00713
3129.52805 -0.00464
3128.24230 -0.00298
3126.95654 -0.00278
3125.67079 -0.00365
3124.38503 -0.00490
3123.09928 -0.00617
3121.81352 -0.00717
3120.52777 -0.00728
3119.24201 -0.00614
3117.95626 -0.00453
3116.67050 -0.00371
3115.38475 -0.00368
3114.09899 -0.00290
3112.81324 -0.00019
3111.52748 0.00375
3110.24173 0.00680
3108.95597 0.00731
3107.67022 0.00516
3106.38446 0.00167
3105.09871 -0.00141
3103.81295 -0.00312
3102.52719 -0.00346
3101.24144 -0.00289
3099.95568 -0.00184
3098.66993 -0.00066
3097.38417 0.00052
3096.09842 0.00186
3094.81266 0.00338
3093.52691 0.00477
3092.24115 0.00564
3090.95540 0.00585
3089.66964 0.00530
3088.38389 0.00398
3087.09813 0.00241
3085.81238 0.00159
3084.52662 0.00210
3083.24087 0.00332
3081.95511 0.00391
3080.66936 0.00306
3079.38360 0.00131
3078.09785 0.00003
3076.81209 0.00002
3075.52634 0.00087
3074.24058 0.00191
3072.95483 0.00308
3071.66907 0.00441
3070.38332 0.00540
3069.09756 0.00551
3067.81181 0.00508
3066.52605 0.00502
3065.24030 0.00577
3063.95454 0.00690
3062.66879 0.00741
3061.38303 0.00657
3060.09727 0.00463
3058.81152 0.00302
3057.52576 0.00321
3056.24001 0.00530
3054.95425 0.00805
3053.66850 0.01011
3052.38274 0.01121
3051.09699 0.01199
3049.81123 0.01297
3048.52548 0.01375
3047.23972 0.01331
3045.95397 0.01112
3044.66821 0.00792
3043.38246 0.00537
3042.09670 0.00480
3040.81095 0.00621
3039.52519 0.00830
3038.23944 0.00968
3036.95368 0.00979
3035.66793 0.00891
3034.38217 0.00741
3033.09642 0.00562
3031.81066 0.00407
3030.52491 0.00348
3029.23915 0.00405
3027.95340 0.00519
3026.66764 0.00624
3025.38189 0.00723
3024.09613 0.00878
3022.81038 0.01098
3021.52462 0.01289
3020.23886 0.01336
3018.95311 0.01236
3017.66735 0.01103
3016.38160 0.01038
3015.09584 0.01039
3013.81009 0.01069
3012.52433 0.01142
3011.23858 0.01299
3009.95282 0.01533
3008.66707 0.01766
3007.38131 0.01919
3006.09556 0.01958
3004.80980 0.01900
3003.52405 0.01773
3002.23829 0.01592
3000.95254 0.01439
2999.66678 0.01501
2998.38103 0.01432
2997.09527 0.01303
2995.80952 0.01177
2994.52376 0.01143
2993.23801 0.01219
2991.95225 0.01332
2990.66650 0.01403
2989.38074 0.01418
2988.09499 0.01404
2986.80923 0.01388
2985.52348 0.01390
2984.23772 0.01413
2982.95197 0.01428
2981.66621 0.01401
2980.38046 0.01323
2979.09470 0.01224
2977.80894 0.01151
2976.52319 0.01144
2975.23743 0.01210
2973.95168 0.01318
2972.66592 0.01407
2971.38017 0.01421
2970.09441 0.01363
2968.80866 0.01288
2967.52290 0.01266
2966.23715 0.01339
2964.95139 0.01505
2963.66564 0.01718
2962.37988 0.01895
2961.09413 0.01959
2959.80837 0.01888
2958.52262 0.01732
2957.23686 0.01580
2955.95111 0.01515
2954.66535 0.01570
2953.37960 0.01710
2952.09384 0.01850
2950.80809 0.01937
2949.52233 0.01991
2948.23658 0.02060
2946.95082 0.02145
2945.66507 0.02210
2944.37931 0.02233
2943.09356 0.02222
2941.80780 0.02196
2940.52205 0.02157
2939.23629 0.02088
2937.95053 0.01970
2936.66478 0.01824
2935.37902 0.01731
2934.09327 0.01776
2932.80751 0.01946
2931.52176 0.02105
2930.23600 0.02117
2928.95025 0.01981
2927.66449 0.01826
2926.37874 0.01765
2925.09298 0.01808
2923.80723 0.01889
2922.52147 0.01947
2921.23572 0.01953
2919.94996 0.01917
2918.66421 0.01878
2917.37845 0.01868
2916.09270 0.01876
2914.80694 0.01857
2913.52119 0.01802
2912.23543 0.01767
2910.94968 0.01802
2909.66392 0.01888
2908.37817 0.01969
2907.09241 0.02005
2905.80666 0.02000
2904.52090 0.01979
2903.23515 0.01960
2901.94939 0.01943
2900.66364 0.01911
2899.37788 0.01850
2898.09212 0.01765
2896.80637 0.01689
2895.52061 0.01666
2894.23486 0.01714
2892.94910 0.01805
2891.66335 0.01892
2890.37759 0.01947
2889.09184 0.01972
2887.80608 0.01971
2886.52033 0.01937
2885.23457 0.01876
2883.94882 0.01830
2882.66306 0.01845
2881.37731 0.01923
2880.09155 0.02001
2878.80580 0.02009
2877.52004 0.01942
2876.23429 0.01863
2874.94853 0.01837
2873.66278 0.01855
2872.37702 0.01851
2871.09127 0.01777
2869.80551 0.01663
2868.51976 0.01586
2867.23400 0.01592
2865.94825 0.01646
2864.66249 0.01684
2863.37674 0.01685
2862.09098 0.01680
2860.80523 0.01685
2859.51947 0.01672
2858.23372 0.01615
2856.94796 0.01537
2855.66220 0.01505
2854.37645 0.01559
2853.09069 0.01672
2851.80494 0.01775
2850.51918 0.01825
2849.23343 0.01835
2847.94767 0.01829
2846.66192 0.01809
2845.37616 0.01764
2844.09041 0.01699
2842.80465 0.01642
2841.51890 0.01610
2840.23314 0.01600
2838.94739 0.01596
2837.66163 0.01592
2836.37588 0.01584
2835.09012 0.01570
2833.80437 0.01554
2832.51861 0.01550
2831.23286 0.01571
2829.94710 0.01608
2828.66135 0.01642
2827.37559 0.01645
2826.08984 0.01603
2824.80408 0.01535
2823.51833 0.01488
2822.23257 0.01507
2820.94682 0.01598
2819.66106 0.01722
2818.37531 0.01827
2817.08955 0.01868
2815.80379 0.01835
2814.51804 0.01745
2813.23228 0.01629
2811.94653 0.01517
2810.66077 0.01433
2809.37502 0.01393
2808.08926 0.01385
2806.80351 0.01380
2805.51775 0.01362
2804.23200 0.01341
2802.94624 0.01345
2801.66049 0.01395
2800.37473 0.01483
2799.08898 0.01564
2797.80322 0.01582
2796.51747 0.01515
2795.23171 0.01402
2793.94596 0.01304
2792.66020 0.01256
2791.37445 0.01270
2790.08869 0.01342
2788.80294 0.01438
2787.51718 0.01498
2786.23143 0.01476
2784.94567 0.01390
2783.65992 0.01307
2782.37416 0.01285
2781.08841 0.01327
2779.80265 0.01395
2778.51690 0.01446
2777.23114 0.01467
2775.94538 0.01467
2774.65963 0.01466
2773.37387 0.01471
2772.08812 0.01484
2770.80236 0.01505
2769.51661 0.01538
2768.23085 0.01586
2766.94510 0.01639
2765.65934 0.01677
2764.37359 0.01677
2763.08783 0.01631
2761.80208 0.01553
2760.51632 0.01473
2759.23057 0.01412
2757.94481 0.01372
2756.65906 0.01351
2755.37330 0.01363
2754.08755 0.01420
2752.80179 0.01505
2751.51604 0.01575
2750.23028 0.01598
2748.94453 0.01578
2747.65877 0.01541
2746.37302 0.01504
2745.08726 0.01475
2743.80151 0.01464
2742.51575 0.01481
2741.23000 0.01519
2739.94424 0.01548
2738.65849 0.01541
2737.37273 0.01503
2736.08698 0.01467
2734.80122 0.01466
2733.51546 0.01509
2732.22971 0.01576
2730.94395 0.01634
2729.65820 0.01654
2728.37244 0.01629
2727.08669 0.01566
2725.80093 0.01483
2724.51518 0.01406
2723.22942 0.01367
2721.94367 0.01381
2720.65791 0.01425
2719.37216 0.01448
2718.08640 0.01416
2716.80065 0.01351
2715.51489 0.01301
2714.22914 0.01291
2712.94338 0.01314
2711.65763 0.01356
2710.37187 0.01406
2709.08612 0.01446
2707.80036 0.01459
2706.51461 0.01454
2705.22885 0.01462
2703.94310 0.01492
2702.65734 0.01514
2701.37159 0.01494
2700.08583 0.01444
2698.80008 0.01417
2697.51432 0.01454
2696.22857 0.01532
2694.94281 0.01577
2693.65705 0.01546
2692.37130 0.01462
2691.08554 0.01378
2689.79979 0.01321
2688.51403 0.01290
2687.22828 0.01284
2685.94252 0.01305
2684.65677 0.01349
2683.37101 0.01395
2682.08526 0.01421
2680.79950 0.01412
2679.51375 0.01362
2678.22799 0.01284
2676.94224 0.01214
2675.65648 0.01194
2674.37073 0.01235
2673.08497 0.01310
2671.79922 0.01376
2670.51346 0.01412
2669.22771 0.01438
2667.94195 0.01492
2666.65620 0.01603
2665.37044 0.01770
2664.08469 0.01971
2662.79893 0.02177
2661.51318 0.02367
2660.22742 0.02533
2658.94167 0.02673
2657.65591 0.02790
2656.37016 0.02889
2655.08440 0.02965
2653.79865 0.03013
2652.51289 0.03048
2651.22713 0.03087
2649.94138 0.03119
2648.65562 0.03116
2647.36987 0.03078
2646.08411 0.03039
2644.79836 0.03029
2643.51260 0.03046
2642.22685 0.03080
2640.94109 0.03124
2639.65534 0.03166
2638.36958 0.03178
2637.08383 0.03148
2635.79807 0.03092
2634.51232 0.03038
2633.22656 0.02992
2631.94081 0.02944
2630.65505 0.02888
2629.36930 0.02834
2628.08354 0.02804
2626.79779 0.02804
2625.51203 0.02825
2624.22628 0.02851
2622.94052 0.02872
2621.65477 0.02886
2620.36901 0.02872
2619.08326 0.02801
2617.79750 0.02680
2616.51175 0.02567
2615.22599 0.02518
2613.94024 0.02527
2612.65448 0.02532
2611.36872 0.02494
2610.08297 0.02440
2608.79721 0.02415
2607.51146 0.02430
2606.22570 0.02444
2604.93995 0.02402
2603.65419 0.02279
2602.36844 0.02115
2601.08268 0.01989
2599.79693 0.01965
2598.51117 0.02043
2597.22542 0.02173
2595.93966 0.02281
2594.65391 0.02307
2593.36815 0.02249
2592.08240 0.02169
2590.79664 0.02120
2589.51089 0.02102
2588.22513 0.02092
2586.93938 0.02089
2585.65362 0.02094
2584.36787 0.02094
2583.08211 0.02076
2581.79636 0.02061
2580.51060 0.02072
2579.22485 0.02098
2577.93909 0.02104
2576.65334 0.02069
2575.36758 0.02001
2574.08183 0.01918
2572.79607 0.01825
2571.51031 0.01714
2570.22456 0.01582
2568.93880 0.01460
2567.65305 0.01389
2566.36729 0.01379
2565.08154 0.01400
2563.79578 0.01424
2562.51003 0.01446
2561.22427 0.01469
2559.93852 0.01480
2558.65276 0.01464
2557.36701 0.01423
2556.08125 0.01386
2554.79550 0.01388
2553.50974 0.01428
2552.22399 0.01470
2550.93823 0.01474
2549.65248 0.01444
2548.36672 0.01423
2547.08097 0.01432
2545.79521 0.01444
2544.50946 0.01425
2543.22370 0.01390
2541.93795 0.01380
2540.65219 0.01412
2539.36644 0.01472
2538.08068 0.01542
2536.79493 0.01610
2535.50917 0.01656
2534.22342 0.01661
2532.93766 0.01632
2531.65191 0.01599
2530.36615 0.01590
2529.08039 0.01607
2527.79464 0.01625
2526.50888 0.01623
2525.22313 0.01599
2523.93737 0.01553
2522.65162 0.01479
2521.36586 0.01376
2520.08011 0.01273
2518.79435 0.01206
2517.50860 0.01176
2516.22284 0.01160
2514.93709 0.01143
2513.65133 0.01140
2512.36558 0.01157
2511.07982 0.01175
2509.79407 0.01151
2508.50831 0.01066
2507.22256 0.00956
2505.93680 0.00891
2504.65105 0.00908
2503.36529 0.00984
2502.07954 0.01081
2500.79378 0.01181
2499.50803 0.01274
2498.22227 0.01335
2496.93652 0.01351
2495.65076 0.01339
2494.36501 0.01325
2493.07925 0.01308
2491.79350 0.01272
2490.50774 0.01218
2489.22198 0.01168
2487.93623 0.01131
2486.65047 0.01091
2485.36472 0.01041
2484.07896 0.01005
2482.79321 0.01013
2481.50745 0.01066
2480.22170 0.01125
2478.93594 0.01139
2477.65019 0.01069
2476.36443 0.00923
2475.07868 0.00782
2473.79292 0.00739
2472.50717 0.00813
2471.22141 0.00926
2469.93566 0.00991
2468.64990 0.00996
2467.36415 0.00996
2466.07839 0.01031
2464.79264 0.01091
2463.50688 0.01147
2462.22113 0.01195
2460.93537 0.01256
2459.64962 0.01326
2458.36386 0.01379
2457.07811 0.01397
2455.79235 0.01384
2454.50660 0.01345
2453.22084 0.01279
2451.93509 0.01208
2450.64933 0.01181
2449.36357 0.01213
2448.07782 0.01257
2446.79206 0.01267
2445.50631 0.01249
2444.22055 0.01241
2442.93480 0.01247
2441.64904 0.01227
2440.36329 0.01150
2439.07753 0.01035
2437.79178 0.00919
2436.50602 0.00829
2435.22027 0.00770
2433.93451 0.00738
2432.64876 0.00722
2431.36300 0.00723
2430.07725 0.00746
2428.79149 0.00787
2427.50574 0.00816
2426.21998 0.00807
2424.93423 0.00759
2423.64847 0.00705
2422.36272 0.00684
2421.07696 0.00710
2419.79121 0.00757
2418.50545 0.00778
2417.21970 0.00752
2415.93394 0.00697
2414.64819 0.00642
2413.36243 0.00596
2412.07668 0.00553
2410.79092 0.00486
2409.50517 0.00364
2408.21941 0.00177
2406.93365 -0.00012
2405.64790 -0.00099
2404.36214 -0.00034
2403.07639 0.00134
2401.79063 0.00302
2400.50488 0.00382
2399.21912 0.00167
2397.93337 0.00206
2396.64761 0.00225
2395.36186 0.00206
2394.07610 0.00238
2392.79035 0.00313
2391.50459 0.00371
2390.21884 0.00368
2388.93308 0.00311
2387.64733 0.00240
2386.36157 0.00194
2385.07582 0.00182
2383.79006 0.00186
2382.50431 0.00178
2381.21855 0.00135
2379.93280 0.00048
2378.64704 -0.00057
2377.36129 -0.00128
2376.07553 -0.00126
2374.78978 -0.00056
2373.50402 0.00037
2372.21827 0.00094
2370.93251 0.00086
2369.64676 0.00029
2368.36100 -0.00026
2367.07524 -0.00032
2365.78949 0.00026
2364.50373 0.00133
2363.21798 0.00256
2361.93222 0.00371
2360.64647 0.00473
2359.36071 0.00569
2358.07496 0.00650
2356.78920 0.00710
2355.50345 0.00753
2354.21769 0.00793
2352.93194 0.00841
2351.64618 0.00891
2350.36043 0.00927
2349.07467 0.00938
2347.78892 0.00924
2346.50316 0.00890
2345.21741 0.00851
2343.93165 0.00826
2342.64590 0.00825
2341.36014 0.00842
2340.07439 0.00874
2338.78863 0.00933
2337.50288 0.01005
2336.21712 0.01047
2334.93137 0.01059
2333.64561 0.01078
2332.35986 0.01129
2331.07410 0.01258
2329.78835 0.01615
2328.50259 0.02328
2327.21684 0.03271
2325.93108 0.04147
2324.64532 0.04640
2323.35957 0.04593
2322.07381 0.04172
2320.78806 0.03697
2319.50230 0.03332
2318.21655 0.03105
2316.93079 0.02987
2315.64504 0.02919
2314.35928 0.02871
2313.07353 0.02827
2311.78777 0.02772
2310.50202 0.02738
2309.21626 0.02750
2307.93051 0.02793
2306.64475 0.02823
2305.35900 0.02799
2304.07324 0.02725
2302.78749 0.02639
2301.50173 0.02568
2300.21598 0.02523
2298.93022 0.02502
2297.64447 0.02512
2296.35871 0.02574
2295.07296 0.02702
2293.78720 0.02889
2292.50145 0.03108
2291.21569 0.03334
2289.92994 0.03555
2288.64418 0.03751
2287.35843 0.03872
2286.07267 0.03862
2284.78691 0.03710
2283.50116 0.03476
2282.21540 0.03249
2280.92965 0.03081
2279.64389 0.02966
2278.35814 0.02868
2277.07238 0.02771
2275.78663 0.02680
2274.50087 0.02616
2273.21512 0.02592
2271.92936 0.02587
2270.64361 0.02551
2269.35785 0.02440
2268.07210 0.02272
2266.78634 0.02119
2265.50059 0.02051
2264.21483 0.02098
2262.92908 0.02240
2261.64332 0.02422
2260.35757 0.02569
2259.07181 0.02601
2257.78606 0.02480
2256.50030 0.02238
2255.21455 0.01967
2253.92879 0.01775
2252.64304 0.01747
2251.35728 0.01934
2250.07153 0.02219
2248.78577 0.02259
2247.50002 0.02303
2246.21426 0.02243
2244.92850 0.02165
2243.64275 0.02144
2242.35699 0.02157
2241.07124 0.02124
2239.78548 0.02022
2238.49973 0.01915
2237.21397 0.01874
2235.92822 0.01904
2234.64246 0.01957
2233.35671 0.01984
2232.07095 0.01959
2230.78520 0.01875
2229.49944 0.01765
2228.21369 0.01693
2226.92793 0.01710
2225.64218 0.01791
2224.35642 0.01844
2223.07067 0.01793
2221.78491 0.01639
2220.49916 0.01445
2219.21340 0.01269
2217.92765 0.01138
2216.64189 0.01074
2215.35614 0.01100
2214.07038 0.01204
2212.78463 0.01342
2211.49887 0.01504
2210.21312 0.01710
2208.92736 0.01940
2207.64161 0.02093
2206.35585 0.02074
2205.07010 0.01894
2203.78434 0.01660
2202.49858 0.01483
2201.21283 0.01407
2199.92707 0.01403
2198.64132 0.01410
2197.35556 0.01396
2196.06981 0.01406
2194.78405 0.01536
2193.49830 0.01808
2192.21254 0.02101
2190.92679 0.02251
2189.64103 0.02232
2188.35528 0.02187
2187.06952 0.02218
2185.78377 0.02211
2184.49801 0.01960
2183.21226 0.01468
2181.92650 0.01013
2180.64075 0.00811
2179.35499 0.00755
2178.06924 0.00592
2176.78348 0.00287
2175.49773 0.00104
2174.21197 0.00312
2172.92622 0.00935
2171.64046 0.01786
2170.35471 0.02643
2169.06895 0.03364
2167.78320 0.03911
2166.49744 0.04341
2165.21169 0.04709
2163.92593 0.04873
2162.64017 0.04380
2161.35442 0.02786
2160.06866 0.00315
2158.78291 -0.02018
2157.49715 -0.03247
2156.21140 -0.03290
2154.92564 -0.02702
2153.63989 -0.02022
2152.35413 -0.01497
2151.06838 -0.01200
2149.78262 -0.01153
2148.49687 -0.01285
2147.21111 -0.01417
2145.92536 -0.01402
2144.63960 -0.01271
2143.35385 -0.01182
2142.06809 -0.01207
2140.78234 -0.01272
2139.49658 -0.01304
2138.21083 -0.01389
2136.92507 -0.01659
2135.63932 -0.02074
2134.35356 -0.02401
2133.06781 -0.02433
2131.78205 -0.02173
2130.49630 -0.01778
2129.21054 -0.01387
2127.92479 -0.01036
2126.63903 -0.00713
2125.35328 -0.00446
2124.06752 -0.00290
2122.78176 -0.00243
2121.49601 -0.00214
2120.21025 -0.00085
2118.92450 0.00182
2117.63874 0.00513
2116.35299 0.00791
2115.06723 0.00958
2113.78148 0.01053
2112.49572 0.01141
2111.20997 0.01234
2109.92421 0.01292
2108.63846 0.01290
2107.35270 0.01245
2106.06695 0.01192
2104.78119 0.01152
2103.49544 0.01130
2102.20968 0.01123
2100.92393 0.01117
2099.63817 0.00942
2098.35242 0.00633
2097.06666 0.00277
2095.78091 -0.00045
2094.49515 -0.00204
2093.20940 -0.00139
2091.92364 0.00072
2090.63789 0.00289
2089.35213 0.00435
2088.06638 0.00541
2086.78062 0.00687
2085.49487 0.00909
2084.20911 0.01168
2082.92336 0.01405
2081.63760 0.01582
2080.35184 0.01683
2079.06609 0.01703
2077.78033 0.01660
2076.49458 0.01597
2075.20882 0.01533
2073.92307 0.01455
2072.63731 0.01355
2071.35156 0.01253
2070.06580 0.01177
2068.78005 0.01138
2067.49429 0.01128
2066.20854 0.01141
2064.92278 0.01166
2063.63703 0.01179
2062.35127 0.01167
2061.06552 0.01157
2059.77976 0.01196
2058.49401 0.01293
2057.20825 0.01426
2055.92250 0.01644
2054.63674 0.02070
2053.35099 0.02693
2052.06523 0.03217
2050.77948 0.03260
2049.49372 0.02734
2048.20797 0.01949
2046.92221 0.01311
2045.63646 0.01015
2044.35070 0.01034
2043.06495 0.01261
2041.77919 0.01592
2040.49343 0.01929
2039.20768 0.02166
2037.92192 0.02189
2036.63617 0.01925
2035.35041 0.01429
2034.06466 0.00886
2032.77890 0.00489
2031.49315 0.00289
2030.20739 0.00196
2028.92164 0.00104
2027.63588 -0.00020
2026.35013 -0.00148
2025.06437 -0.00238
2023.77862 -0.00253
2022.49286 -0.00166
2021.20711 0.00008
2019.92135 0.00192
2018.63560 0.00313
2017.34984 0.00345
2016.06409 0.00306
2014.77833 0.00226
2013.49258 0.00158
2012.20682 0.00158
2010.92107 0.00186
2009.63531 0.00075
2008.34956 -0.00320
2007.06380 -0.00911
2005.77805 -0.01425
2004.49229 -0.01645
2003.20654 -0.01569
2001.92078 -0.01332
2000.63503 -0.01044
1999.34927 -0.00733
1998.06351 -0.00393
1996.77776 -0.00045
1995.49200 0.00279
1994.20625 0.00556
1992.92049 0.00781
1991.63474 0.00942
1990.34898 0.01028
1989.06323 0.01076
1987.77747 0.01164
1986.49172 0.01351
1985.20596 0.01628
1983.92021 0.01927
1982.63445 0.02123
1981.34870 0.02027
1980.06294 0.01492
1978.77719 0.00595
1977.49143 -0.00328
1976.20568 -0.00942
1974.91992 -0.01177
1973.63417 -0.01186
1972.34841 -0.01130
1971.06266 -0.01077
1969.77690 -0.01054
1968.49115 -0.01084
1967.20539 -0.01167
1965.91964 -0.01267
1964.63388 -0.01364
1963.34813 -0.01479
1962.06237 -0.01633
1960.77662 -0.01783
1959.49086 -0.01835
1958.20510 -0.01730
1956.91935 -0.01497
1955.63359 -0.01230
1954.34784 -0.01020
1953.06208 -0.00896
1951.77633 -0.00827
1950.49057 -0.00775
1949.20482 -0.00747
1947.91906 -0.00776
1946.63331 -0.00866
1945.34755 -0.00975
1944.06180 -0.01047
1942.77604 -0.01066
1941.49029 -0.01051
1940.20453 -0.01024
1938.91878 -0.00983
1937.63302 -0.00915
1936.34727 -0.00822
1935.06151 -0.00733
1933.77576 -0.00680
1932.49000 -0.00674
1931.20425 -0.00697
1929.91849 -0.00717
1928.63274 -0.00715
1927.34698 -0.00686
1926.06123 -0.00640
1924.77547 -0.00578
1923.48972 -0.00499
1922.20396 -0.00409
1920.91821 -0.00323
1919.63245 -0.00260
1918.34669 -0.00226
1917.06094 -0.00218
1915.77518 -0.00229
1914.48943 -0.00252
1913.20367 -0.00288
1911.91792 -0.00339
1910.63216 -0.00386
1909.34641 -0.00391
1908.06065 -0.00328
1906.77490 -0.00214
1905.48914 -0.00107
1904.20339 -0.00055
1902.91763 -0.00062
1901.63188 -0.00098
1900.34612 -0.00123
1899.06037 -0.00114
1897.77461 -0.00076
1896.48886 -0.00036
1895.20310 -0.00016
1893.91735 -0.00022
1892.63159 -0.00045
1891.34584 -0.00067
1890.06008 -0.00067
1888.77433 -0.00030
1887.48857 0.00035
1886.20282 0.00087
1884.91706 0.00086
1883.63131 0.00031
1882.34555 -0.00037
1881.05980 -0.00073
1879.77404 -0.00061
1878.48829 -0.00022
1877.20253 0.00003
1875.91677 -0.00007
1874.63102 -0.00039
1873.34526 -0.00059
1872.05951 -0.00042
1870.77375 0.00008
1869.48800 0.00062
1868.20224 0.00093
1866.91649 0.00087
1865.63073 0.00056
1864.34498 0.00024
1863.05922 0.00012
1861.77347 0.00018
1860.48771 0.00031
1859.20196 0.00043
1857.91620 0.00054
1856.63045 0.00066
1855.34469 0.00074
1854.05894 0.00068
1852.77318 0.00039
1851.48743 -0.00009
1850.20167 -0.00044
1848.91592 -0.00036
1847.63016 0.00012
1846.34441 0.00056
1845.05865 0.00062
1843.77290 0.00029
1842.48714 -0.00022
1841.20139 -0.00076
1839.91563 -0.00120
1838.62988 -0.00131
1837.34412 -0.00096
1836.05836 -0.00031
1834.77261 0.00033
1833.48685 0.00078
1832.20110 0.00110
1830.91534 0.00141
1829.62959 0.00170
1828.34383 0.00181
1827.05808 0.00160
1825.77232 0.00111
1824.48657 0.00051
1823.20081 -0.00019
1821.91506 -0.00124
1820.62930 -0.00289
1819.34355 -0.00484
1818.05779 -0.00621
1816.77204 -0.00620
1815.48628 -0.00481
1814.20053 -0.00281
1812.91477 -0.00100
1811.62902 0.00030
1810.34326 0.00118
1809.05751 0.00176
1807.77175 0.00210
1806.48600 0.00229
1805.20024 0.00250
1803.91449 0.00277
1802.62873 0.00304
1801.34298 0.00314
1800.05722 0.00297
1798.77147 0.00267
1797.48571 0.00256
1796.19995 0.00288
1794.91420 0.00353
1793.62844 0.00416
1792.34269 0.00435
1791.05693 0.00402
1789.77118 0.00347
1788.48542 0.00311
1787.19967 0.00317
1785.91391 0.00355
1784.62816 0.00402
1783.34240 0.00429
1782.05665 0.00418
1780.77089 0.00361
1779.48514 0.00274
1778.19938 0.00203
1776.91363 0.00197
1775.62787 0.00264
1774.34212 0.00363
1773.05636 0.00437
1771.77061 0.00459
1770.48485 0.00435
1769.19910 0.00387
1767.91334 0.00345
1766.62759 0.00332
1765.34183 0.00359
1764.05608 0.00406
1762.77032 0.00443
1761.48457 0.00456
1760.19881 0.00449
1758.91306 0.00427
1757.62730 0.00403
1756.34155 0.00404
1755.05579 0.00447
1753.77003 0.00519
1752.48428 0.00578
1751.19852 0.00588
1749.91277 0.00545
1748.62701 0.00471
1747.34126 0.00394
1746.05550 0.00341
1744.76975 0.00323
1743.48399 0.00324
1742.19824 0.00315
1740.91248 0.00296
1739.62673 0.00307
1738.34097 0.00392
1737.05522 0.00539
1735.76946 0.00673
1734.48371 0.00727
1733.19795 0.00692
1731.91220 0.00603
1730.62644 0.00495
1729.34069 0.00403
1728.05493 0.00354
1726.76918 0.00345
1725.48342 0.00356
1724.19767 0.00388
1722.91191 0.00468
1721.62616 0.00612
1720.34040 0.00787
1719.05465 0.00920
1717.76889 0.00958
1716.48314 0.00899
1715.19738 0.00793
1713.91162 0.00697
1712.62587 0.00641
1711.34011 0.00644
1710.05436 0.00693
1708.76860 0.00747
1707.48285 0.00779
1706.19709 0.00809
1704.91134 0.00881
1703.62558 0.01006
1702.33983 0.01147
1701.05407 0.01269
1699.76832 0.01366
1698.48256 0.01425
1697.19681 0.01416
1695.91105 0.01331
1694.62530 0.01209
1693.33954 0.01104
1692.05379 0.01050
1690.76803 0.01087
1689.48228 0.01258
1688.19652 0.01541
1686.91077 0.01821
1685.62501 0.01986
1684.33926 0.01990
1683.05350 0.01880
1681.76775 0.01753
1680.48199 0.01695
1679.19624 0.01740
1677.91048 0.01859
1676.62473 0.01991
1675.33897 0.02094
1674.05322 0.02169
1672.76746 0.02232
1671.48170 0.02281
1670.19595 0.02305
1668.91019 0.02317
1667.62444 0.02346
1666.33868 0.02401
1665.05293 0.02461
1663.76717 0.02491
1662.48142 0.02469
1661.19566 0.02400
1659.90991 0.02341
1658.62415 0.02382
1657.33840 0.02583
1656.05264 0.02880
1654.76689 0.03106
1653.48113 0.03134
1652.19538 0.02997
1650.90962 0.02827
1649.62387 0.02713
1648.33811 0.02673
1647.05236 0.02673
1645.76660 0.02673
1644.48085 0.02649
1643.19509 0.02609
1641.90934 0.02596
1640.62358 0.02654
1639.33783 0.02788
1638.05207 0.02938
1636.76632 0.03015
1635.48056 0.02976
1634.19481 0.02854
1632.90905 0.02716
1631.62329 0.02603
1630.33754 0.02542
1629.05178 0.02537
1627.76603 0.02571
1626.48027 0.02603
1625.19452 0.02595
1623.90876 0.02541
1622.62301 0.02482
1621.33725 0.02473
1620.05150 0.02523
1618.76574 0.02579
1617.47999 0.02579
1616.19423 0.02509
1614.90848 0.02406
1613.62272 0.02307
1612.33697 0.02241
1611.05121 0.02219
1609.76546 0.02234
1608.47970 0.02261
1607.19395 0.02278
1605.90819 0.02277
1604.62244 0.02266
1603.33668 0.02252
1602.05093 0.02246
1600.76517 0.02248
1599.47942 0.02254
1598.19366 0.02258
1596.90791 0.02260
1595.62215 0.02262
1594.33640 0.02268
1593.05064 0.02278
1591.76488 0.02288
1590.47913 0.02294
1589.19337 0.02296
1587.90762 0.02295
1586.62186 0.02288
1585.33611 0.02270
1584.05035 0.02244
1582.76460 0.02234
1581.47884 0.02278
1580.19309 0.02388
1578.90733 0.02521
1577.62158 0.02609
1576.33582 0.02614
1575.05007 0.02563
1573.76431 0.02512
1572.47856 0.02491
1571.19280 0.02491
1569.90705 0.02486
1568.62129 0.02452
1567.33554 0.02383
1566.04978 0.02316
1564.76403 0.02331
1563.47827 0.02484
1562.19252 0.02731
1560.90676 0.02950
1559.62101 0.03049
1558.33525 0.03004
1557.04950 0.02863
1555.76374 0.02698
1554.47799 0.02573
1553.19223 0.02518
1551.90648 0.02522
1550.62072 0.02546
1549.33496 0.02567
1548.04921 0.02586
1546.76345 0.02623
1545.47770 0.02704
1544.19194 0.02833
1542.90619 0.02972
1541.62043 0.03057
1540.33468 0.03032
1539.04892 0.02913
1537.76317 0.02773
1536.47741 0.02671
1535.19166 0.02622
1533.90590 0.02612
1532.62015 0.02627
1531.33439 0.02655
1530.04864 0.02684
1528.76288 0.02714
1527.47713 0.02762
1526.19137 0.02845
1524.90562 0.02951
1523.61986 0.03046
1522.33411 0.03090
1521.04835 0.03077
1519.76260 0.03028
1518.47684 0.02970
1517.19109 0.02916
1515.90533 0.02878
1514.61958 0.02857
1513.33382 0.02871
1512.04807 0.02954
1510.76231 0.03130
1509.47655 0.03356
1508.19080 0.03529
1506.90504 0.03565
1505.61929 0.03471
1504.33353 0.03320
1503.04778 0.03204
1501.76202 0.03185
1500.47627 0.03270
1499.19051 0.03405
1497.90476 0.03516
1496.61900 0.03567
1495.33325 0.03568
1494.04749 0.03563
1492.76174 0.03584
1491.47598 0.03633
1490.19023 0.03684
1488.90447 0.03717
1487.61872 0.03727
1486.33296 0.03725
1485.04721 0.03731
1483.76145 0.03751
1482.47570 0.03780
1481.18994 0.03811
1479.90419 0.03849
1478.61843 0.03912
1477.33268 0.04011
1476.04692 0.04133
1474.76117 0.04233
1473.47541 0.04267
1472.18966 0.04232
1470.90390 0.04169
1469.61814 0.04121
1468.33239 0.04111
1467.04663 0.04125
1465.76088 0.04136
1464.47512 0.04131
1463.18937 0.04138
1461.90361 0.04204
1460.61786 0.04341
1459.33210 0.04499
1458.04635 0.04596
1456.76059 0.04581
1455.47484 0.04475
1454.18908 0.04345
1452.90333 0.04254
1451.61757 0.04221
1450.33182 0.04238
1449.04606 0.04275
1447.76031 0.04299
1446.47455 0.04296
1445.18880 0.04270
1443.90304 0.04232
1442.61729 0.04208
1441.33153 0.04226
1440.04578 0.04288
1438.76002 0.04359
1437.47427 0.04395
1436.18851 0.04387
1434.90276 0.04358
1433.61700 0.04333
1432.33125 0.04326
1431.04549 0.04343
1429.75974 0.04379
1428.47398 0.04424
1427.18822 0.04467
1425.90247 0.04514
1424.61671 0.04583
1423.33096 0.04688
1422.04520 0.04813
1420.75945 0.04914
1419.47369 0.04960
1418.18794 0.04954
1416.90218 0.04927
1415.61643 0.04907
1414.33067 0.04909
1413.04492 0.04935
1411.75916 0.04969
1410.47341 0.04998
1409.18765 0.05015
1407.90190 0.05013
1406.61614 0.04988
1405.33039 0.04943
1404.04463 0.04893
1402.75888 0.04851
1401.47312 0.04818
1400.18737 0.04788
1398.90161 0.04753
1397.61586 0.04709
1396.33010 0.04644
1395.04435 0.04553
1393.75859 0.04447
1392.47284 0.04349
1391.18708 0.04275
1389.90133 0.04218
1388.61557 0.04161
1387.32981 0.04090
1386.04406 0.04002
1384.75830 0.03905
1383.47255 0.03811
1382.18679 0.03728
1380.90104 0.03655
1379.61528 0.03589
1378.32953 0.03526
1377.04377 0.03461
1375.75802 0.03388
1374.47226 0.03303
1373.18651 0.03207
1371.90075 0.03110
1370.61500 0.03016
1369.32924 0.02930
1368.04349 0.02855
1366.75773 0.02794
1365.47198 0.02743
1364.18622 0.02693
1362.90047 0.02636
1361.61471 0.02570
1360.32896 0.02498
1359.04320 0.02427
1357.75745 0.02362
1356.47169 0.02307
1355.18594 0.02263
1353.90018 0.02228
1352.61443 0.02203
1351.32867 0.02184
1350.04292 0.02167
1348.75716 0.02148
1347.47141 0.02127
1346.18565 0.02108
1344.89989 0.02096
1343.61414 0.02089
1342.32838 0.02085
1341.04263 0.02079
1339.75687 0.02064
1338.47112 0.02039
1337.18536 0.02006
1335.89961 0.01971
1334.61385 0.01936
1333.32810 0.01902
1332.04234 0.01877
1330.75659 0.01864
1329.47083 0.01861
1328.18508 0.01861
1326.89932 0.01857
1325.61357 0.01849
1324.32781 0.01835
1323.04206 0.01815
1321.75630 0.01792
1320.47055 0.01766
1319.18479 0.01741
1317.89904 0.01715
1316.61328 0.01690
1315.32753 0.01663
1314.04177 0.01636
1312.75602 0.01611
1311.47026 0.01594
1310.18451 0.01584
1308.89875 0.01576
1307.61300 0.01559
1306.32724 0.01528
1305.04148 0.01491
1303.75573 0.01462
1302.46997 0.01449
1301.18422 0.01444
1299.89846 0.01437
1298.61271 0.01422
1297.32695 0.01401
1296.04120 0.01380
1294.75544 0.01363
1293.46969 0.01351
1292.18393 0.01340
1290.89818 0.01327
1289.61242 0.01310
1288.32667 0.01288
1287.04091 0.01265
1285.75516 0.01249
1284.46940 0.01243
1283.18365 0.01247
1281.89789 0.01254
1280.61214 0.01255
1279.32638 0.01251
1278.04063 0.01242
1276.75487 0.01236
1275.46912 0.01236
1274.18336 0.01243
1272.89761 0.01253
1271.61185 0.01265
1270.32610 0.01280
1269.04034 0.01302
1267.75459 0.01332
1266.46883 0.01370
1265.18307 0.01411
1263.89732 0.01450
1262.61156 0.01478
1261.32581 0.01490
1260.04005 0.01484
1258.75430 0.01461
1257.46854 0.01425
1256.18279 0.01385
1254.89703 0.01345
1253.61128 0.01309
1252.32552 0.01278
1251.03977 0.01255
1249.75401 0.01241
1248.46826 0.01231
1247.18250 0.01222
1245.89675 0.01209
1244.61099 0.01193
1243.32524 0.01180
1242.03948 0.01172
1240.75373 0.01169
1239.46797 0.01167
1238.18222 0.01162
1236.89646 0.01155
1235.61071 0.01148
1234.32495 0.01139
1233.03920 0.01131
1231.75344 0.01121
1230.46769 0.01111
1229.18193 0.01101
1227.89618 0.01096
1226.61042 0.01092
1225.32467 0.01088
1224.03891 0.01083
1222.75315 0.01078
1221.46740 0.01077
1220.18164 0.01082
1218.89589 0.01091
1217.61013 0.01099
1216.32438 0.01102
1215.03862 0.01099
1213.75287 0.01095
1212.46711 0.01092
1211.18136 0.01092
1209.89560 0.01093
1208.60985 0.01095
1207.32409 0.01097
1206.03834 0.01099
1204.75258 0.01098
1203.46683 0.01096
1202.18107 0.01106
1200.89532 0.01132
1199.60956 0.01142
1198.32381 0.01149
1197.03805 0.01150
1195.75230 0.01145
1194.46654 0.01137
1193.18079 0.01131
1191.89503 0.01129
1190.60928 0.01128
1189.32352 0.01125
1188.03777 0.01117
1186.75201 0.01105
1185.46626 0.01092
1184.18050 0.01081
1182.89474 0.01072
1181.60899 0.01065
1180.32323 0.01058
1179.03748 0.01050
1177.75172 0.01042
1176.46597 0.01036
1175.18021 0.01037
1173.89446 0.01044
1172.60870 0.01053
1171.32295 0.01061
1170.03719 0.01069
1168.75144 0.01078
1167.46568 0.01086
1166.17993 0.01093
1164.89417 0.01100
1163.60842 0.01109
1162.32266 0.01120
1161.03691 0.01133
1159.75115 0.01142
1158.46540 0.01147
1157.17964 0.01147
1155.89389 0.01148
1154.60813 0.01155
1153.32238 0.01174
1152.03662 0.01202
1150.75087 0.01236
1149.46511 0.01273
1148.17936 0.01313
1146.89360 0.01352
1145.60785 0.01388
1144.32209 0.01420
1143.03633 0.01447
1141.75058 0.01469
1140.46482 0.01491
1139.17907 0.01517
1137.89331 0.01549
1136.60756 0.01588
1135.32180 0.01630
1134.03605 0.01673
1132.75029 0.01721
1131.46454 0.01780
1130.17878 0.01850
1128.89303 0.01928
1127.60727 0.02012
1126.32152 0.02102
1125.03576 0.02202
1123.75001 0.02310
1122.46425 0.02421
1121.17850 0.02530
1119.89274 0.02634
1118.60699 0.02734
1117.32123 0.02833
1116.03548 0.02939
1114.74972 0.03055
1113.46397 0.03176
1112.17821 0.03296
1110.89246 0.03410
1109.60670 0.03521
1108.32095 0.03630
1107.03519 0.03740
1105.74944 0.03850
1104.46368 0.03960
1103.17793 0.04067
1101.89217 0.04168
1100.60641 0.04261
1099.32066 0.04346
1098.03490 0.04425
1096.74915 0.04502
1095.46339 0.04581
1094.17764 0.04661
1092.89188 0.04733
1091.60613 0.04788
1090.32037 0.04826
1089.03462 0.04859
1087.74886 0.04897
1086.46311 0.04947
1085.17735 0.05009
1083.89160 0.05077
1082.60584 0.05147
1081.32009 0.05217
1080.03433 0.05289
1078.74858 0.05368
1077.46282 0.05454
1076.17707 0.05546
1074.89131 0.05641
1073.60556 0.05737
1072.31980 0.05835
1071.03405 0.05936
1069.74829 0.06040
1068.46254 0.06144
1067.17678 0.06244
1065.89103 0.06342
1064.60527 0.06443
1063.31952 0.06548
1062.03376 0.06658
1060.74800 0.06768
1059.46225 0.06873
1058.17649 0.06974
1056.89074 0.07074
1055.60498 0.07177
1054.31923 0.07282
1053.03347 0.07383
1051.74772 0.07479
1050.46196 0.07572
1049.17621 0.07666
1047.89045 0.07764
1046.60470 0.07861
1045.31894 0.07958
1044.03319 0.08058
1042.74743 0.08162
1041.46168 0.08270
1040.17592 0.08380
1038.89017 0.08493
1037.60441 0.08607
1036.31866 0.08722
1035.03290 0.08832
1033.74715 0.08933
1032.46139 0.09023
1031.17564 0.09099
1029.88988 0.09163
1028.60413 0.09220
1027.31837 0.09275
1026.03262 0.09328
1024.74686 0.09378
1023.46111 0.09421
1022.17535 0.09455
1020.88960 0.09476
1019.60384 0.09483
1018.31808 0.09477
1017.03233 0.09460
1015.74657 0.09436
1014.46082 0.09406
1013.17506 0.09367
1011.88931 0.09317
1010.60355 0.09254
1009.31780 0.09180
1008.03204 0.09096
1006.74629 0.09006
1005.46053 0.08914
1004.17478 0.08821
1002.88902 0.08727
1001.60327 0.08629
1000.31751 0.08522
999.03176 0.08404
997.74600 0.08278
996.46025 0.08148
995.17449 0.08017
993.88874 0.07886
992.60298 0.07756
991.31723 0.07628
990.03147 0.07500
988.74572 0.07371
987.45996 0.07240
986.17421 0.07106
984.88845 0.06970
983.60270 0.06830
982.31694 0.06686
981.03119 0.06539
979.74543 0.06397
978.45967 0.06264
977.17392 0.06139
975.88816 0.06018
974.60241 0.05902
973.31665 0.05797
972.03090 0.05708
970.74514 0.05634
969.45939 0.05577
968.17363 0.05537
966.88788 0.05511
965.60212 0.05494
964.31637 0.05476
963.03061 0.05450
961.74486 0.05418
960.45910 0.05381
959.17335 0.05339
957.88759 0.05288
956.60184 0.05224
955.31608 0.05149
954.03033 0.05068
952.74457 0.04986
951.45882 0.04908
950.17306 0.04833
948.88731 0.04758
947.60155 0.04682
946.31580 0.04610
945.03004 0.04545
943.74429 0.04486
942.45853 0.04429
941.17278 0.04370
939.88702 0.04310
938.60126 0.04256
937.31551 0.04210
936.02975 0.04171
934.74400 0.04133
933.45824 0.04089
932.17249 0.04036
930.88673 0.03977
929.60098 0.03920
928.31522 0.03868
927.02947 0.03823
925.74371 0.03783
924.45796 0.03749
923.17220 0.03722
921.88645 0.03700
920.60069 0.03680
919.31494 0.03660
918.02918 0.03637
916.74343 0.03612
915.45767 0.03583
914.17192 0.03548
912.88616 0.03502
911.60041 0.03448
910.31465 0.03389
909.02890 0.03333
907.74314 0.03283
906.45739 0.03243
905.17163 0.03208
903.88588 0.03170
902.60012 0.03123
901.31437 0.03069
900.02861 0.03021
898.74286 0.02984
897.45710 0.02957
896.17134 0.02928
894.88559 0.02892
893.59983 0.02853
892.31408 0.02819
891.02832 0.02799
889.74257 0.02792
888.45681 0.02792
887.17106 0.02799
885.88530 0.02819
884.59955 0.02862
883.31379 0.02930
882.02804 0.03012
880.74228 0.03092
879.45653 0.03166
878.17077 0.03236
876.88502 0.03312
875.59926 0.03394
874.31351 0.03472
873.02775 0.03531
871.74200 0.03555
870.45624 0.03542
869.17049 0.03500
867.88473 0.03440
866.59898 0.03368
865.31322 0.03288
864.02747 0.03197
862.74171 0.03098
861.45596 0.02999
860.17020 0.02912
858.88445 0.02843
857.59869 0.02796
856.31293 0.02769
855.02718 0.02751
853.74142 0.02731
852.45567 0.02699
851.16991 0.02658
849.88416 0.02622
848.59840 0.02597
847.31265 0.02581
846.02689 0.02563
844.74114 0.02539
843.45538 0.02512
842.16963 0.02490
840.88387 0.02482
839.59812 0.02490
838.31236 0.02516
837.02661 0.02554
835.74085 0.02594
834.45510 0.02631
833.16934 0.02666
831.88359 0.02698
830.59783 0.02723
829.31208 0.02740
828.02632 0.02746
826.74057 0.02739
825.45481 0.02720
824.16906 0.02690
822.88330 0.02657
821.59755 0.02626
820.31179 0.02595
819.02604 0.02561
817.74028 0.02527
816.45452 0.02493
815.16877 0.02459
813.88301 0.02433
812.59726 0.02424
811.31150 0.02432
810.02575 0.02446
808.73999 0.02453
807.45424 0.02445
806.16848 0.02430
804.88273 0.02425
803.59697 0.02452
802.31122 0.02524
801.02546 0.02633
799.73971 0.02747
798.45395 0.02829
797.16820 0.02856
795.88244 0.02829
794.59669 0.02775
793.31093 0.02717
792.02518 0.02666
790.73942 0.02617
789.45367 0.02567
788.16791 0.02518
786.88216 0.02476
785.59640 0.02444
784.31065 0.02421
783.02489 0.02406
781.73914 0.02396
780.45338 0.02392
779.16763 0.02390
777.88187 0.02388
776.59612 0.02385
775.31036 0.02381
774.02460 0.02376
772.73885 0.02371
771.45309 0.02364
770.16734 0.02357
768.88158 0.02350
767.59583 0.02340
766.31007 0.02329
765.02432 0.02318
763.73856 0.02310
762.45281 0.02307
761.16705 0.02306
759.88130 0.02304
758.59554 0.02305
757.30979 0.02314
756.02403 0.02330
754.73828 0.02344
753.45252 0.02348
752.16677 0.02349
750.88101 0.02357
749.59526 0.02375
748.30950 0.02397
747.02375 0.02419
745.73799 0.02441
744.45224 0.02459
743.16648 0.02456
741.88073 0.02418
740.59497 0.02339
739.30922 0.02237
738.02346 0.02140
736.73771 0.02070
735.45195 0.02029
734.16619 0.02003
732.88044 0.01979
731.59468 0.01954
730.30893 0.01932
729.02317 0.01918
727.73742 0.01911
726.45166 0.01908
725.16591 0.01902
723.88015 0.01843
722.59440 0.01867
721.30864 0.01886
720.02289 0.01872
718.73713 0.01838
717.45138 0.01793
716.16562 0.01755
714.87987 0.01742
713.59411 0.01762
712.30836 0.01806
711.02260 0.01858
709.73685 0.01902
708.45109 0.01937
707.16534 0.01969
705.87958 0.02005
704.59383 0.02045
703.30807 0.02086
702.02232 0.02123
700.73656 0.02158
699.45081 0.02191
698.16505 0.02220
696.87930 0.02243
695.59354 0.02254
694.30779 0.02251
693.02203 0.02232
691.73627 0.02202
690.45052 0.02168
689.16476 0.02137
687.87901 0.02113
686.59325 0.02098
685.30750 0.02089
684.02174 0.02081
682.73599 0.02069
681.45023 0.02053
680.16448 0.02038
678.87872 0.02034
677.59297 0.02042
676.30721 0.02058
675.02146 0.02076
673.73570 0.02088
672.44995 0.02091
671.16419 0.02083
669.87844 0.02067
668.59268 0.02052
667.30693 0.02037
666.02117 0.02022
664.73542 0.02016
663.44966 0.02012
662.16391 0.02008
660.87815 0.02000
659.59240 0.01987
658.30664 0.01971
657.02089 0.01956
655.73513 0.01951
654.44938 0.01954
653.16362 0.01959
651.87786 0.01961
650.59211 0.01960
649.30635 0.01959
648.02060 0.01959
646.73484 0.01957
645.44909 0.01953
644.16333 0.01946
642.87758 0.01937
641.59182 0.01924
640.30607 0.01909
639.02031 0.01899
637.73456 0.01899
636.44880 0.01924
635.16305 0.01988
633.87729 0.02113
632.59154 0.02346
631.30578 0.02794
630.02003 0.03428
628.73427 0.03728
627.44852 0.03806
626.16276 0.03639
624.87701 0.03256
623.59125 0.02699
622.30550 0.02060
621.01974 0.01501
619.73399 0.01190
618.44823 0.01191
617.16248 0.01441
615.87672 0.01802
614.59097 0.02118
613.30521 0.02273
612.01945 0.02232
610.73370 0.02080
609.44794 0.01986
608.16219 0.02075
606.87643 0.02291
605.59068 0.02453
604.30492 0.02452
603.01917 0.02366
601.73341 0.02357
600.44766 0.02491
599.16190 0.02693
597.87615 0.02861
596.59039 0.02958
595.30464 0.03018
594.01888 0.03077
592.73313 0.03135
591.44737 0.03170
590.16162 0.03168
588.87586 0.03152
587.59011 0.03156
586.30435 0.03206
585.01860 0.03301
583.73284 0.03417
582.44709 0.03535
581.16133 0.03646
579.87558 0.03756
578.58982 0.03865
577.30407 0.03969
576.01831 0.04064
574.73256 0.04152
573.44680 0.04236
572.16105 0.04312
570.87529 0.04373
569.58953 0.04420
568.30378 0.04463
567.01802 0.04515
565.73227 0.04580
564.44651 0.04657
563.16076 0.04733
561.87500 0.04796
560.58925 0.04834
559.30349 0.04835
558.01774 0.04796
556.73198 0.04722
555.44623 0.04623
554.16047 0.04511
552.87472 0.04391
551.58896 0.04267
550.30321 0.04146
549.01745 0.04032
547.73170 0.03929
546.44594 0.03840
545.16019 0.03764
543.87443 0.03695
542.58868 0.03624
541.30292 0.03544
540.01717 0.03459
538.73141 0.03378
537.44566 0.03307
536.15990 0.03252
534.87415 0.03209
533.58839 0.03168
532.30264 0.03119
531.01688 0.03058
529.73112 0.02988
528.44537 0.02920
527.15961 0.02860
525.87386 0.02815
524.58810 0.02786
523.30235 0.02769
522.01659 0.02755
520.73084 0.02735
519.44508 0.02704
518.15933 0.02658
516.87357 0.02598
515.58782 0.02536
514.30206 0.02485
513.01631 0.02451
511.73055 0.02434
510.44480 0.02428
509.15904 0.02426
507.87329 0.02416
506.58753 0.02393
505.30178 0.02360
504.01602 0.02325
502.73027 0.02296
501.44451 0.02278
500.15876 0.02267
498.87300 0.02257
497.58725 0.02241
496.30149 0.02218
495.01574 0.02191
493.72998 0.02166
492.44423 0.02145
491.15847 0.02128
489.87271 0.02110
488.58696 0.02090
487.30120 0.02066
486.01545 0.02040
484.72969 0.02016
483.44394 0.02002
482.15818 0.01998
480.87243 0.02002
479.58667 0.02005
478.30092 0.02009
477.01516 0.02019
475.72941 0.02039
474.44365 0.02068
473.15790 0.02095
471.87214 0.02108
470.58639 0.02104
469.30063 0.02087
468.01488 0.02063
466.72912 0.02039
465.44337 0.02019
464.15761 0.02000
462.87186 0.01980
461.58610 0.01957
460.30035 0.01933
459.01459 0.01913
457.72884 0.01898
456.44308 0.01887
455.15733 0.01880
453.87157 0.01872
452.58582 0.01857
451.30006 0.01832
450.01431 0.01803
448.72855 0.01783
447.44279 0.01779
446.15704 0.01785
444.87128 0.01788
443.58553 0.01775
442.29977 0.01748
441.01402 0.01720
439.72826 0.01702
438.44251 0.01698
437.15675 0.01700
435.87100 0.01697
434.58524 0.01679
433.29949 0.01649
432.01373 0.01616
430.72798 0.01592
429.44222 0.01584
428.15647 0.01587
426.87071 0.01588
425.58496 0.01581
424.29920 0.01569
423.01345 0.01565
421.72769 0.01573
420.44194 0.01584
419.15618 0.01583
417.87043 0.01560
416.58467 0.01520
415.29892 0.01479
414.01316 0.01451
412.72741 0.01441
411.44165 0.01447
410.15590 0.01457
408.87014 0.01461
407.58438 0.01450
406.29863 0.01426
405.01287 0.01402
403.72712 0.01393
402.44136 0.01406
401.15561 0.01432
399.86985 0.01458
