3998.69854 0.03467
3997.41278 0.03447
3996.12703 0.03330
3994.84127 0.03065
3993.55552 0.02706
3992.26976 0.02404
3990.98401 0.02344
3989.69825 0.02648
3988.41250 0.03252
3987.12674 0.03909
3985.84099 0.04346
3984.55523 0.04440
3983.26948 0.04279
3981.98372 0.04078
3980.69797 0.04023
3979.41221 0.04139
3978.12646 0.04275
3976.84070 0.04239
3975.55495 0.03942
3974.26919 0.03457
3972.98344 0.02971
3971.69768 0.02709
3970.41193 0.02771
3969.12617 0.02984
3967.84042 0.02989
3966.55466 0.02619
3965.26891 0.02138
3963.98315 0.01997
3962.69740 0.02325
3961.41164 0.02785
3960.12589 0.02951
3958.84013 0.02754
3957.55437 0.02490
3956.26862 0.02453
3954.98286 0.02642
3953.69711 0.02844
3952.41135 0.02895
3951.12560 0.02820
3949.83984 0.02777
3948.55409 0.02913
3947.26833 0.03244
3945.98258 0.03618
3944.69682 0.03829
3943.41107 0.03798
3942.12531 0.03634
3940.83956 0.03490
3939.55380 0.03424
3938.26805 0.03416
3936.98229 0.03458
3935.69654 0.03565
3934.41078 0.03732
3933.12503 0.03904
3931.83927 0.03974
3930.55352 0.03833
3929.26776 0.03456
3927.98201 0.02939
3926.69625 0.02447
3925.41050 0.02130
3924.12474 0.02052
3922.83899 0.02166
3921.55323 0.02368
3920.26748 0.02599
3918.98172 0.02883
3917.69596 0.03242
3916.41021 0.03629
3915.12445 0.03977
3913.83870 0.04258
3912.55294 0.04457
3911.26719 0.04503
3909.98143 0.04289
3908.69568 0.03801
3907.40992 0.03232
3906.12417 0.02929
3904.83841 0.03139
3903.55266 0.03768
3902.26690 0.04429
3900.98115 0.04772
3899.69539 0.04712
3898.40964 0.04388
3897.12388 0.03990
3895.83813 0.03652
3894.55237 0.03405
3893.26662 0.03194
3891.98086 0.02994
3890.69511 0.02890
3889.40935 0.02978
3888.12360 0.03188
3886.83784 0.03342
3885.55209 0.03397
3884.26633 0.03516
3882.98058 0.03863
3881.69482 0.04360
3880.40907 0.04726
3879.12331 0.04728
3877.83755 0.04345
3876.55180 0.03743
3875.26604 0.03162
3873.98029 0.02786
3872.69453 0.02649
3871.40878 0.02647
3870.12302 0.02673
3868.83727 0.02733
3867.55151 0.02915
3866.26576 0.03249
3864.98000 0.03621
3863.69425 0.03845
3862.40849 0.03847
3861.12274 0.03733
3859.83698 0.03663
3858.55123 0.03667
3857.26547 0.03629
3855.97972 0.03445
3854.69396 0.03120
3853.40821 0.02739
3852.12245 0.02428
3850.83670 0.02328
3849.55094 0.02516
3848.26519 0.02874
3846.97943 0.03133
3845.69368 0.03087
3844.40792 0.02769
3843.12217 0.02398
3841.83641 0.02176
3840.55066 0.02158
3839.26490 0.02262
3837.97915 0.02367
3836.69339 0.02387
3835.40763 0.02299
3834.12188 0.02176
3832.83612 0.02197
3831.55037 0.02514
3830.26461 0.03091
3828.97886 0.03675
3827.69310 0.04000
3826.40735 0.03993
3825.12159 0.03790
3823.83584 0.03570
3822.55008 0.03396
3821.26433 0.03206
3819.97857 0.02915
3818.69282 0.02537
3817.40706 0.02192
3816.12131 0.01980
3814.83555 0.01849
3813.54980 0.01669
3812.26404 0.01467
3810.97829 0.01499
3809.69253 0.01975
3808.40678 0.02736
3807.12102 0.03338
3805.83527 0.03493
3804.54951 0.03346
3803.26376 0.03238
3801.97800 0.03321
3800.69225 0.03461
3799.40649 0.03467
3798.12074 0.03282
3796.83498 0.02983
3795.54922 0.02659
3794.26347 0.02331
3792.97771 0.01988
3791.69196 0.01662
3790.40620 0.01463
3789.12045 0.01525
3787.83469 0.01899
3786.54894 0.02476
3785.26318 0.03027
3783.97743 0.03328
3782.69167 0.03319
3781.40592 0.03139
3780.12016 0.02994
3778.83441 0.02996
3777.54865 0.03139
3776.26290 0.03402
3774.97714 0.03801
3773.69139 0.04298
3772.40563 0.04697
3771.11988 0.04716
3769.83412 0.04237
3768.54837 0.03474
3767.26261 0.02820
3765.97686 0.02501
3764.69110 0.02430
3763.40535 0.02391
3762.11959 0.02300
3760.83384 0.02244
3759.54808 0.02338
3758.26233 0.02559
3756.97657 0.02750
3755.69081 0.02807
3754.40506 0.02834
3753.11930 0.03041
3751.83355 0.03449
3750.54779 0.03853
3749.26204 0.04116
3747.97628 0.04338
3746.69053 0.04621
3745.40477 0.04806
3744.11902 0.04594
3742.83326 0.03912
3741.54751 0.03072
3740.26175 0.02535
3738.97600 0.02535
3737.69024 0.02890
3736.40449 0.03185
3735.11873 0.03172
3733.83298 0.02959
3732.54722 0.02812
3731.26147 0.02818
3729.97571 0.02788
3728.68996 0.02515
3727.40420 0.02055
3726.11845 0.01718
3724.83269 0.01741
3723.54694 0.02039
3722.26118 0.02300
3720.97543 0.02287
3719.68967 0.02012
3718.40392 0.01668
3717.11816 0.01496
3715.83241 0.01684
3714.54665 0.02243
3713.26089 0.02954
3711.97514 0.03477
3710.68938 0.03568
3709.40363 0.03200
3708.11787 0.02549
3706.83212 0.01903
3705.54636 0.01512
3704.26061 0.01415
3702.97485 0.01409
3701.68910 0.01279
3700.40334 0.01095
3699.11759 0.01159
3697.83183 0.01600
3696.54608 0.02159
3695.26032 0.02505
3693.97457 0.02640
3692.68881 0.02834
3691.40306 0.03211
3690.11730 0.03583
3688.83155 0.03661
3687.54579 0.03329
3686.26004 0.02686
3684.97428 0.01926
3683.68853 0.01286
3682.40277 0.01054
3681.11702 0.01461
3679.83126 0.02439
3678.54551 0.03473
3677.25975 0.03885
3675.97400 0.03428
3674.68824 0.02545
3673.40248 0.01925
3672.11673 0.01853
3670.83097 0.02116
3669.54522 0.02450
3668.25946 0.02862
3666.97371 0.03441
3665.68795 0.04002
3664.40220 0.04115
3663.11644 0.03520
3661.83069 0.02401
3660.54493 0.01217
3659.25918 0.00394
3657.97342 0.00196
3656.68767 0.00670
3655.40191 0.01562
3654.11616 0.02364
3652.83040 0.02602
3651.54465 0.02136
3650.25889 0.01190
3648.97314 0.00160
3647.68738 -0.00659
3646.40163 -0.01196
3645.11587 -0.01468
3643.83012 -0.01399
3642.54436 -0.00926
3641.25861 -0.00224
3639.97285 0.00358
3638.68710 0.00617
3637.40134 0.00610
3636.11559 0.00489
3634.82983 0.00426
3633.54408 0.00634
3632.25832 0.01216
3630.97256 0.01934
3629.68681 0.02342
3628.40105 0.02256
3627.11530 0.01942
3625.82954 0.01775
3624.54379 0.01848
3623.25803 0.01986
3621.97228 0.02029
3620.68652 0.01970
3619.40077 0.01831
3618.11501 0.01613
3616.82926 0.01422
3615.54350 0.01492
3614.25775 0.01905
3612.97199 0.02405
3611.68624 0.02634
3610.40048 0.02508
3609.11473 0.02255
3607.82897 0.02128
3606.54322 0.02201
3605.25746 0.02440
3603.97171 0.02824
3602.68595 0.03298
3601.40020 0.03633
3600.11444 0.03492
3598.82869 0.02764
3597.54293 0.01786
3596.25718 0.01081
3594.97142 0.00867
3593.68567 0.00928
3592.39991 0.00933
3591.11415 0.00772
3589.82840 0.00583
3588.54264 0.00612
3587.25689 0.01074
3585.97113 0.02009
3584.68538 0.03187
3583.39962 0.04230
3582.11387 0.04845
3580.82811 0.04913
3579.54236 0.04426
3578.25660 0.03508
3576.97085 0.02459
3575.68509 0.01654
3574.39934 0.01295
3573.11358 0.01295
3571.82783 0.01380
3570.54207 0.01322
3569.25632 0.01083
3567.97056 0.00817
3566.68481 0.00736
3565.39905 0.00892
3564.11330 0.01066
3562.82754 0.00931
3561.54179 0.00373
3560.25603 -0.00417
3558.97028 -0.01156
3557.68452 -0.01698
3556.39877 -0.02014
3555.11301 -0.02030
3553.82726 -0.01655
3552.54150 -0.00993
3551.25574 -0.00444
3549.96999 -0.00475
3548.68423 -0.01201
3547.39848 -0.02176
3546.11272 -0.02662
3544.82697 -0.02175
3543.54121 -0.00869
3542.25546 0.00595
3540.96970 0.01534
3539.68395 0.01700
3538.39819 0.01349
3537.11244 0.00947
3535.82668 0.00832
3534.54093 0.01050
3533.25517 0.01332
3531.96942 0.01196
3530.68366 0.00265
3529.39791 -0.01351
3528.11215 -0.03023
3526.82640 -0.04041
3525.54064 -0.04096
3524.25489 -0.03385
3522.96913 -0.02370
3521.68338 -0.01510
3520.39762 -0.01058
3519.11187 -0.01004
3517.82611 -0.01229
3516.54036 -0.01714
3515.25460 -0.02451
3513.96885 -0.03174
3512.68309 -0.03429
3511.39734 -0.03058
3510.11158 -0.02439
3508.82582 -0.02069
3507.54007 -0.02018
3506.25431 -0.01992
3504.96856 -0.01846
3503.68280 -0.01796
3502.39705 -0.02071
3501.11129 -0.02553
3499.82554 -0.02885
3498.53978 -0.02878
3497.25403 -0.02719
3495.96827 -0.02758
3494.68252 -0.03145
3493.39676 -0.03738
3492.11101 -0.04303
3490.82525 -0.04690
3489.53950 -0.04780
3488.25374 -0.04457
3486.96799 -0.03813
3485.68223 -0.03297
3484.39648 -0.03437
3483.11072 -0.04332
3481.82497 -0.05547
3480.53921 -0.06498
3479.25346 -0.06891
3477.96770 -0.06792
3476.68195 -0.06444
3475.39619 -0.06082
3474.11044 -0.05859
3472.82468 -0.05831
3471.53893 -0.05975
3470.25317 -0.06214
3468.96741 -0.06446
3467.68166 -0.06574
3466.39590 -0.06560
3465.11015 -0.06474
3463.82439 -0.06483
3462.53864 -0.06739
3461.25288 -0.07226
3459.96713 -0.07709
3458.68137 -0.07860
3457.39562 -0.07483
3456.10986 -0.06672
3454.82411 -0.05803
3453.53835 -0.05323
3452.25260 -0.05508
3450.96684 -0.06321
3449.68109 -0.07461
3448.39533 -0.08526
3447.10958 -0.09167
3445.82382 -0.09229
3444.53807 -0.08834
3443.25231 -0.08363
3441.96656 -0.08233
3440.68080 -0.08588
3439.39505 -0.09185
3438.10929 -0.09628
3436.82354 -0.09733
3435.53778 -0.09581
3434.25203 -0.09275
3432.96627 -0.08787
3431.68052 -0.08127
3430.39476 -0.07535
3429.10900 -0.07364
3427.82325 -0.07767
3426.53749 -0.08533
3425.25174 -0.09210
3423.96598 -0.09386
3422.68023 -0.08930
3421.39447 -0.08077
3420.10872 -0.07286
3418.82296 -0.06939
3417.53721 -0.07101
3416.25145 -0.07548
3414.96570 -0.07987
3413.67994 -0.08263
3412.39419 -0.08371
3411.10843 -0.08364
3409.82268 -0.08300
3408.53692 -0.08244
3407.25117 -0.08272
3405.96541 -0.08399
3404.67966 -0.08581
3403.39390 -0.08832
3402.10815 -0.09187
3400.82239 -0.09382
3399.53664 -0.09538
3398.25088 -0.09731
3396.96513 -0.09862
3395.67937 -0.09891
3394.39362 -0.09798
3393.10786 -0.09569
3391.82211 -0.09301
3390.53635 -0.09202
3389.25060 -0.09361
3387.96484 -0.09561
3386.67908 -0.09461
3385.39333 -0.08991
3384.10757 -0.08474
3382.82182 -0.08257
3381.53606 -0.08319
3380.25031 -0.08358
3378.96455 -0.08242
3377.67880 -0.08165
3376.39304 -0.08322
3375.10729 -0.08596
3373.82153 -0.08702
3372.53578 -0.08546
3371.25002 -0.08326
3369.96427 -0.08296
3368.67851 -0.08527
3367.39276 -0.08899
3366.10700 -0.09239
3364.82125 -0.09424
3363.53549 -0.09410
3362.24974 -0.09269
3360.96398 -0.09190
3359.67823 -0.09307
3358.39247 -0.09491
3357.10672 -0.09394
3355.82096 -0.08827
3354.53521 -0.08042
3353.24945 -0.07531
3351.96370 -0.07522
3350.67794 -0.07755
3349.39219 -0.07790
3348.10643 -0.07473
3346.82067 -0.07029
3345.53492 -0.06759
3344.24916 -0.06756
3342.96341 -0.06913
3341.67765 -0.07081
3340.39190 -0.07154
3339.10614 -0.07117
3337.82039 -0.07078
3336.53463 -0.07163
3335.24888 -0.07350
3333.96312 -0.07485
3332.67737 -0.07493
3331.39161 -0.07469
3330.10586 -0.07528
3328.82010 -0.07667
3327.53435 -0.07828
3326.24859 -0.07989
3324.96284 -0.08129
3323.67708 -0.08161
3322.39133 -0.08010
3321.10557 -0.07718
3319.81982 -0.07424
3318.53406 -0.07205
3317.24831 -0.07011
3315.96255 -0.06761
3314.67680 -0.06471
3313.39104 -0.06209
3312.10529 -0.05989
3310.81953 -0.05776
3309.53378 -0.05587
3308.24802 -0.05532
3306.96227 -0.05710
3305.67651 -0.06111
3304.39075 -0.06595
3303.10500 -0.06950
3301.81924 -0.07007
3300.53349 -0.06761
3299.24773 -0.06359
3297.96198 -0.05957
3296.67622 -0.05631
3295.39047 -0.05427
3294.10471 -0.05393
3292.81896 -0.05523
3291.53320 -0.05699
3290.24745 -0.05785
3288.96169 -0.05744
3287.67594 -0.05631
3286.39018 -0.05504
3285.10443 -0.05390
3283.81867 -0.05334
3282.53292 -0.05407
3281.24716 -0.05600
3279.96141 -0.05734
3278.67565 -0.05581
3277.38990 -0.05111
3276.10414 -0.04564
3274.81839 -0.04234
3273.53263 -0.04209
3272.24688 -0.04372
3270.96112 -0.04598
3269.67537 -0.04887
3268.38961 -0.05275
3267.10386 -0.05668
3265.81810 -0.05831
3264.53234 -0.05572
3263.24659 -0.04933
3261.96083 -0.04182
3260.67508 -0.03610
3259.38932 -0.03364
3258.10357 -0.03434
3256.81781 -0.03728
3255.53206 -0.04110
3254.24630 -0.04414
3252.96055 -0.04513
3251.67479 -0.04409
3250.38904 -0.04212
3249.10328 -0.04026
3247.81753 -0.03859
3246.53177 -0.03682
3245.24602 -0.03524
3243.96026 -0.03488
3242.67451 -0.03667
3241.38875 -0.04025
3240.10300 -0.04357
3238.81724 -0.04405
3237.53149 -0.04064
3236.24573 -0.03478
3234.95998 -0.02910
3233.67422 -0.02523
3232.38847 -0.02293
3231.10271 -0.02092
3229.81696 -0.01833
3228.53120 -0.01560
3227.24545 -0.01450
3225.95969 -0.01665
3224.67393 -0.02171
3223.38818 -0.02711
3222.10242 -0.03013
3220.81667 -0.03011
3219.53091 -0.02853
3218.24516 -0.02729
3216.95940 -0.02717
3215.67365 -0.02779
3214.38789 -0.02829
3213.10214 -0.02795
3211.81638 -0.02638
3210.53063 -0.02376
3209.24487 -0.02077
3207.95912 -0.01822
3206.67336 -0.01670
3205.38761 -0.01665
3204.10185 -0.01832
3202.81610 -0.02115
3201.53034 -0.02358
3200.24459 -0.02433
3198.95883 -0.02364
3197.67308 -0.02270
3196.38732 -0.02195
3195.10157 -0.02070
3193.81581 -0.01831
3192.53006 -0.01512
3191.24430 -0.01209
3189.95855 -0.01005
3188.67279 -0.00942
3187.38704 -0.01006
3186.10128 -0.01113
3184.81553 -0.01183
3183.52977 -0.01214
3182.24401 -0.01241
3180.95826 -0.01258
3179.67250 -0.01226
3178.38675 -0.01157
3177.10099 -0.01124
3175.81524 -0.01160
3174.52948 -0.01193
3173.24373 -0.01128
3171.95797 -0.00962
3170.67222 -0.00806
3169.38646 -0.00770
3168.10071 -0.00871
3166.81495 -0.01050
3165.52920 -0.01241
3164.24344 -0.01383
3162.95769 -0.01400
3161.67193 -0.01247
3160.38618 -0.00982
3159.10042 -0.00744
3157.81467 -0.00635
3156.52891 -0.00652
3155.24316 -0.00731
3153.95740 -0.00801
3152.67165 -0.00785
3151.38589 -0.00613
3150.10014 -0.00289
3148.81438 0.00079
3147.52863 0.00360
3146.24287 0.00493
3144.95712 0.00503
3143.67136 0.00446
3142.38560 0.00373
3141.09985 0.00313
3139.81409 0.00264
3138.52834 0.00212
3137.24258 0.00172
3135.95683 0.00192
3134.67107 0.00287
3133.38532 0.00411
3132.09956 0.00507
3130.81381 0.00569
3129.52805 0.00619
3128.24230 0.00643
3126.95654 0.00599
3125.67079 0.00483
3124.38503 0.00337
3123.09928 0.00208
3121.81352 0.00108
3120.52777 0.00029
3119.24201 -0.00052
3117.95626 -0.00176
3116.67050 -0.00348
3115.38475 -0.00472
3114.09899 -0.00400
3112.81324 -0.00083
3111.52748 0.00356
3110.24173 0.00721
3108.95597 0.00892
3107.67022 0.00866
3106.38446 0.00728
3105.09871 0.00585
3103.81295 0.00508
3102.52719 0.00497
3101.24144 0.00505
3099.95568 0.00500
3098.66993 0.00502
3097.38417 0.00554
3096.09842 0.00673
3094.81266 0.00813
3093.52691 0.00892
3092.24115 0.00865
3090.95540 0.00778
3089.66964 0.00718
3088.38389 0.00727
3087.09813 0.00760
3085.81238 0.00738
3084.52662 0.00637
3083.24087 0.00513
3081.95511 0.00447
3080.66936 0.00466
3079.38360 0.00542
3078.09785 0.00639
3076.81209 0.00739
3075.52634 0.00824
3074.24058 0.00873
3072.95483 0.00891
3071.66907 0.00903
3070.38332 0.00926
3069.09756 0.00956
3067.81181 0.00983
3066.52605 0.00992
3065.24030 0.00961
3063.95454 0.00885
3062.66879 0.00796
3061.38303 0.00741
3060.09727 0.00747
3058.81152 0.00822
3057.52576 0.00977
3056.24001 0.01207
3054.95425 0.01453
3053.66850 0.01628
3052.38274 0.01688
3051.09699 0.01692
3049.81123 0.01729
3048.52548 0.01791
3047.23972 0.01745
3045.95397 0.01474
3044.66821 0.01038
3043.38246 0.00667
3042.09670 0.00575
3040.81095 0.00792
3039.52519 0.01158
3038.23944 0.01470
3036.95368 0.01619
3035.66793 0.01609
3034.38217 0.01501
3033.09642 0.01357
3031.81066 0.01247
3030.52491 0.01237
3029.23915 0.01352
3027.95340 0.01535
3026.66764 0.01670
3025.38189 0.01679
3024.09613 0.01584
3022.81038 0.01493
3021.52462 0.01495
3020.23886 0.01591
3018.95311 0.01714
3017.66735 0.01789
3016.38160 0.01770
3015.09584 0.01637
3013.81009 0.01417
3012.52433 0.01191
3011.23858 0.01066
3009.95282 0.01114
3008.66707 0.01324
3007.38131 0.01609
3006.09556 0.01854
3004.80980 0.01984
3003.52405 0.01993
3002.23829 0.01895
3000.95254 0.01785
2999.66678 0.01879
2998.38103 0.01891
2997.09527 0.01870
2995.80952 0.01784
2994.52376 0.01677
2993.23801 0.01667
2991.95225 0.01821
2990.66650 0.02059
2989.38074 0.02223
2988.09499 0.02225
2986.80923 0.02108
2985.52348 0.01976
2984.23772 0.01906
2982.95197 0.01913
2981.66621 0.01965
2980.38046 0.02024
2979.09470 0.02072
2977.80894 0.02111
2976.52319 0.02156
2975.23743 0.02208
2973.95168 0.02233
2972.66592 0.02178
2971.38017 0.02034
2970.09441 0.01883
2968.80866 0.01844
2967.52290 0.01958
2966.23715 0.02155
2964.95139 0.02328
2963.66564 0.02420
2962.37988 0.02452
2961.09413 0.02483
2959.80837 0.02559
2958.52262 0.02669
2957.23686 0.02761
2955.95111 0.02798
2954.66535 0.02778
2953.37960 0.02718
2952.09384 0.02643
2950.80809 0.02590
2949.52233 0.02584
2948.23658 0.02608
2946.95082 0.02623
2945.66507 0.02623
2944.37931 0.02642
2943.09356 0.02702
2941.80780 0.02771
2940.52205 0.02800
2939.23629 0.02769
2937.95053 0.02690
2936.66478 0.02595
2935.37902 0.02535
2934.09327 0.02570
2932.80751 0.02711
2931.52176 0.02863
2930.23600 0.02897
2928.95025 0.02793
2927.66449 0.02668
2926.37874 0.02647
2925.09298 0.02726
2923.80723 0.02805
2922.52147 0.02802
2921.23572 0.02727
2919.94996 0.02640
2918.66421 0.02589
2917.37845 0.02577
2916.09270 0.02577
2914.80694 0.02571
2913.52119 0.02563
2912.23543 0.02571
2910.94968 0.02602
2909.66392 0.02651
2908.37817 0.02710
2907.09241 0.02763
2905.80666 0.02783
2904.52090 0.02745
2903.23515 0.02656
2901.94939 0.02560
2900.66364 0.02504
2899.37788 0.02491
2898.09212 0.02479
2896.80637 0.02445
2895.52061 0.02420
2894.23486 0.02447
2892.94910 0.02517
2891.66335 0.02571
2890.37759 0.02571
2889.09184 0.02534
2887.80608 0.02498
2886.52033 0.02466
2885.23457 0.02431
2883.94882 0.02403
2882.66306 0.02407
2881.37731 0.02432
2880.09155 0.02441
2878.80580 0.02425
2877.52004 0.02421
2876.23429 0.02463
2874.94853 0.02526
2873.66278 0.02556
2872.37702 0.02540
2871.09127 0.02514
2869.80551 0.02515
2868.51976 0.02547
2867.23400 0.02593
2865.94825 0.02631
2864.66249 0.02640
2863.37674 0.02618
2862.09098 0.02598
2860.80523 0.02605
2859.51947 0.02608
2858.23372 0.02541
2856.94796 0.02390
2855.66220 0.02243
2854.37645 0.02204
2853.09069 0.02295
2851.80494 0.02437
2850.51918 0.02536
2849.23343 0.02550
2847.94767 0.02496
2846.66192 0.02419
2845.37616 0.02373
2844.09041 0.02394
2842.80465 0.02473
2841.51890 0.02550
2840.23314 0.02572
2838.94739 0.02537
2837.66163 0.02479
2836.37588 0.02426
2835.09012 0.02390
2833.80437 0.02380
2832.51861 0.02406
2831.23286 0.02453
2829.94710 0.02483
2828.66135 0.02464
2827.37559 0.02390
2826.08984 0.02292
2824.80408 0.02217
2823.51833 0.02198
2822.23257 0.02240
2820.94682 0.02320
2819.66106 0.02401
2818.37531 0.02444
2817.08955 0.02425
2815.80379 0.02355
2814.51804 0.02279
2813.23228 0.02236
2811.94653 0.02233
2810.66077 0.02248
2809.37502 0.02261
2808.08926 0.02263
2806.80351 0.02250
2805.51775 0.02224
2804.23200 0.02202
2802.94624 0.02212
2801.66049 0.02268
2800.37473 0.02340
2799.08898 0.02368
2797.80322 0.02317
2796.51747 0.02219
2795.23171 0.02152
2793.94596 0.02158
2792.66020 0.02211
2791.37445 0.02265
2790.08869 0.02307
2788.80294 0.02342
2787.51718 0.02350
2786.23143 0.02295
2784.94567 0.02190
2783.65992 0.02108
2782.37416 0.02117
2781.08841 0.02211
2779.80265 0.02318
2778.51690 0.02380
2777.23114 0.02395
2775.94538 0.02393
2774.65963 0.02390
2773.37387 0.02376
2772.08812 0.02350
2770.80236 0.02325
2769.51661 0.02325
2768.23085 0.02347
2766.94510 0.02364
2765.65934 0.02348
2764.37359 0.02297
2763.08783 0.02232
2761.80208 0.02180
2760.51632 0.02160
2759.23057 0.02172
2757.94481 0.02194
2756.65906 0.02202
2755.37330 0.02196
2754.08755 0.02201
2752.80179 0.02236
2751.51604 0.02294
2750.23028 0.02352
2748.94453 0.02386
2747.65877 0.02377
2746.37302 0.02330
2745.08726 0.02275
2743.80151 0.02245
2742.51575 0.02243
2741.23000 0.02248
2739.94424 0.02243
2738.65849 0.02235
2737.37273 0.02232
2736.08698 0.02236
2734.80122 0.02242
2733.51546 0.02257
2732.22971 0.02284
2730.94395 0.02317
2729.65820 0.02332
2728.37244 0.02313
2727.08669 0.02262
2725.80093 0.02204
2724.51518 0.02175
2723.22942 0.02200
2721.94367 0.02263
2720.65791 0.02314
2719.37216 0.02306
2718.08640 0.02249
2716.80065 0.02193
2715.51489 0.02178
2714.22914 0.02205
2712.94338 0.02253
2711.65763 0.02307
2710.37187 0.02358
2709.08612 0.02385
2707.80036 0.02372
2706.51461 0.02329
2705.22885 0.02297
2703.94310 0.02295
2702.65734 0.02301
2701.37159 0.02275
2700.08583 0.02219
2698.80008 0.02180
2697.51432 0.02201
2696.22857 0.02263
2694.94281 0.02303
2693.65705 0.02279
2692.37130 0.02207
2691.08554 0.02139
2689.79979 0.02119
2688.51403 0.02149
2687.22828 0.02197
2685.94252 0.02233
2684.65677 0.02246
2683.37101 0.02255
2682.08526 0.02270
2680.79950 0.02280
2679.51375 0.02256
2678.22799 0.02184
2676.94224 0.02086
2675.65648 0.02013
2674.37073 0.02009
2673.08497 0.02080
2671.79922 0.02188
2670.51346 0.02269
2669.22771 0.02283
2667.94195 0.02240
2666.65620 0.02186
2665.37044 0.02163
2664.08469 0.02183
2662.79893 0.02235
2661.51318 0.02300
2660.22742 0.02363
2658.94167 0.02415
2657.65591 0.02454
2656.37016 0.02478
2655.08440 0.02489
2653.79865 0.02494
2652.51289 0.02510
2651.22713 0.02544
2649.94138 0.02569
2648.65562 0.02557
2647.36987 0.02521
2646.08411 0.02504
2644.79836 0.02516
2643.51260 0.02525
2642.22685 0.02501
2640.94109 0.02452
2639.65534 0.02403
2638.36958 0.02380
2637.08383 0.02397
2635.79807 0.02453
2634.51232 0.02520
2633.22656 0.02565
2631.94081 0.02580
2630.65505 0.02584
2629.36930 0.02589
2628.08354 0.02589
2626.79779 0.02567
2625.51203 0.02522
2624.22628 0.02467
2622.94052 0.02404
2621.65477 0.02334
2620.36901 0.02269
2619.08326 0.02227
2617.79750 0.02219
2616.51175 0.02237
2615.22599 0.02275
2613.94024 0.02331
2612.65448 0.02389
2611.36872 0.02418
2610.08297 0.02398
2608.79721 0.02342
2607.51146 0.02280
2606.22570 0.02246
2604.93995 0.02244
2603.65419 0.02242
2602.36844 0.02193
2601.08268 0.02101
2599.79693 0.02034
2598.51117 0.02073
2597.22542 0.02223
2595.93966 0.02395
2594.65391 0.02477
2593.36815 0.02437
2592.08240 0.02343
2590.79664 0.02277
2589.51089 0.02268
2588.22513 0.02295
2586.93938 0.02330
2585.65362 0.02342
2584.36787 0.02315
2583.08211 0.02265
2581.79636 0.02235
2580.51060 0.02249
2579.22485 0.02290
2577.93909 0.02321
2576.65334 0.02312
2575.36758 0.02258
2574.08183 0.02180
2572.79607 0.02116
2571.51031 0.02083
2570.22456 0.02060
2568.93880 0.02023
2567.65305 0.01974
2566.36729 0.01942
2565.08154 0.01950
2563.79578 0.01990
2562.51003 0.02022
2561.22427 0.02009
2559.93852 0.01963
2558.65276 0.01932
2557.36701 0.01948
2556.08125 0.01991
2554.79550 0.02019
2553.50974 0.02009
2552.22399 0.01966
2550.93823 0.01908
2549.65248 0.01865
2548.36672 0.01859
2547.08097 0.01891
2545.79521 0.01933
2544.50946 0.01947
2543.22370 0.01926
2541.93795 0.01912
2540.65219 0.01957
2539.36644 0.02063
2538.08068 0.02166
2536.79493 0.02192
2535.50917 0.02139
2534.22342 0.02068
2532.93766 0.02051
2531.65191 0.02105
2530.36615 0.02193
2529.08039 0.02241
2527.79464 0.02196
2526.50888 0.02083
2525.22313 0.01988
2523.93737 0.01965
2522.65162 0.01989
2521.36586 0.01988
2520.08011 0.01930
2518.79435 0.01835
2517.50860 0.01736
2516.22284 0.01650
2514.93709 0.01585
2513.65133 0.01556
2512.36558 0.01580
2511.07982 0.01663
2509.79407 0.01775
2508.50831 0.01859
2507.22256 0.01872
2505.93680 0.01828
2504.65105 0.01779
2503.36529 0.01771
2502.07954 0.01818
2500.79378 0.01912
2499.50803 0.02031
2498.22227 0.02134
2496.93652 0.02180
2495.65076 0.02165
2494.36501 0.02126
2493.07925 0.02094
2491.79350 0.02066
2490.50774 0.02019
2489.22198 0.01956
2487.93623 0.01903
2486.65047 0.01883
2485.36472 0.01890
2484.07896 0.01907
2482.79321 0.01924
2481.50745 0.01937
2480.22170 0.01939
2478.93594 0.01910
2477.65019 0.01839
2476.36443 0.01750
2475.07868 0.01698
2473.79292 0.01723
2472.50717 0.01805
2471.22141 0.01869
2469.93566 0.01859
2468.64990 0.01788
2467.36415 0.01722
2466.07839 0.01715
2464.79264 0.01775
2463.50688 0.01878
2462.22113 0.01985
2460.93537 0.02053
2459.64962 0.02053
2458.36386 0.02000
2457.07811 0.01948
2455.79235 0.01929
2454.50660 0.01929
2453.22084 0.01918
2451.93509 0.01901
2450.64933 0.01899
2449.36357 0.01907
2448.07782 0.01893
2446.79206 0.01856
2445.50631 0.01851
2444.22055 0.01928
2442.93480 0.02058
2441.64904 0.02149
2440.36329 0.02131
2439.07753 0.02017
2437.79178 0.01873
2436.50602 0.01768
2435.22027 0.01733
2433.93451 0.01757
2432.64876 0.01802
2431.36300 0.01823
2430.07725 0.01803
2428.79149 0.01760
2427.50574 0.01710
2426.21998 0.01655
2424.93423 0.01602
2423.64847 0.01578
2422.36272 0.01604
2421.07696 0.01661
2419.79121 0.01724
2418.50545 0.01784
2417.21970 0.01835
2415.93394 0.01855
2414.64819 0.01827
2413.36243 0.01772
2412.07668 0.01723
2410.79092 0.01681
2409.50517 0.01615
2408.21941 0.01520
2406.93365 0.01431
2405.64790 0.01396
2404.36214 0.01426
2403.07639 0.01493
2401.79063 0.01562
2400.50488 0.01598
2399.21912 0.01411
2397.93337 0.01518
2396.64761 0.01609
2395.36186 0.01627
2394.07610 0.01638
2392.79035 0.01644
2391.50459 0.01634
2390.21884 0.01610
2388.93308 0.01586
2387.64733 0.01572
2386.36157 0.01572
2385.07582 0.01576
2383.79006 0.01575
2382.50431 0.01564
2381.21855 0.01535
2379.93280 0.01495
2378.64704 0.01446
2377.36129 0.01432
2376.07553 0.01491
2374.78978 0.01587
2373.50402 0.01650
2372.21827 0.01657
2370.93251 0.01641
2369.64676 0.01617
2368.36100 0.01606
2367.07524 0.01609
2365.78949 0.01583
2364.50373 0.01537
2363.21798 0.01534
2361.93222 0.01569
2360.64647 0.01613
2359.36071 0.01641
2358.07496 0.01635
2356.78920 0.01605
2355.50345 0.01601
2354.21769 0.01658
2352.93194 0.01734
2351.64618 0.01745
2350.36043 0.01721
2349.07467 0.01725
2347.78892 0.01748
2346.50316 0.01746
2345.21741 0.01745
2343.93165 0.01748
2342.64590 0.01774
2341.36014 0.01709
2340.07439 0.01615
2338.78863 0.01626
2337.50288 0.01705
2336.21712 0.01730
2334.93137 0.01748
2333.64561 0.01789
2332.35986 0.01843
2331.07410 0.01785
2329.78835 0.01836
2328.50259 0.01994
2327.21684 0.02157
2325.93108 0.02319
2324.64532 0.02411
2323.35957 0.02424
2322.07381 0.02312
2320.78806 0.02182
2319.50230 0.02110
2318.21655 0.02085
2316.93079 0.02080
2315.64504 0.02095
2314.35928 0.02145
2313.07353 0.02202
2311.78777 0.02242
2310.50202 0.02262
2309.21626 0.02251
2307.93051 0.02199
2306.64475 0.02112
2305.35900 0.02002
2304.07324 0.01907
2302.78749 0.01853
2301.50173 0.01824
2300.21598 0.01787
2298.93022 0.01722
2297.64447 0.01656
2296.35871 0.01642
2295.07296 0.01701
2293.78720 0.01809
2292.50145 0.01927
2291.21569 0.02042
2289.92994 0.02152
2288.64418 0.02236
2287.35843 0.02268
2286.07267 0.02248
2284.78691 0.02199
2283.50116 0.02141
2282.21540 0.02070
2280.92965 0.01978
2279.64389 0.01873
2278.35814 0.01779
2277.07238 0.01710
2275.78663 0.01662
2274.50087 0.01631
2273.21512 0.01613
2271.92936 0.01601
2270.64361 0.01583
2269.35785 0.01550
2268.07210 0.01510
2266.78634 0.01478
2265.50059 0.01459
2264.21483 0.01458
2262.92908 0.01488
2261.64332 0.01564
2260.35757 0.01660
2259.07181 0.01702
2257.78606 0.01631
2256.50030 0.01462
2255.21455 0.01277
2253.92879 0.01171
2252.64304 0.01226
2251.35728 0.01498
2250.07153 0.01873
2248.78577 0.01985
2247.50002 0.02049
2246.21426 0.01908
2244.92850 0.01679
2243.64275 0.01535
2242.35699 0.01537
2241.07124 0.01614
2239.78548 0.01674
2238.49973 0.01705
2237.21397 0.01744
2235.92822 0.01787
2234.64246 0.01791
2233.35671 0.01739
2232.07095 0.01656
2230.78520 0.01578
2229.49944 0.01529
2228.21369 0.01532
2226.92793 0.01593
2225.64218 0.01671
2224.35642 0.01682
2223.07067 0.01576
2221.78491 0.01388
2220.49916 0.01193
2219.21340 0.01044
2217.92765 0.00970
2216.64189 0.01002
2215.35614 0.01152
2214.07038 0.01370
2212.78463 0.01579
2211.49887 0.01742
2210.21312 0.01842
2208.92736 0.01842
2207.64161 0.01724
2206.35585 0.01553
2205.07010 0.01420
2203.78434 0.01332
2202.49858 0.01242
2201.21283 0.01165
2199.92707 0.01175
2198.64132 0.01270
2197.35556 0.01341
2196.06981 0.01296
2194.78405 0.01171
2193.49830 0.01069
2192.21254 0.01059
2190.92679 0.01161
2189.64103 0.01358
2188.35528 0.01553
2187.06952 0.01578
2185.78377 0.01338
2184.49801 0.00937
2183.21226 0.00618
2181.92650 0.00560
2180.64075 0.00724
2179.35499 0.00903
2178.06924 0.00924
2176.78348 0.00807
2175.49773 0.00732
2174.21197 0.00839
2172.92622 0.01103
2171.64046 0.01421
2170.35471 0.01743
2169.06895 0.02048
2167.78320 0.02242
2166.49744 0.02174
2165.21169 0.01794
2163.92593 0.01252
2162.64017 0.00791
2161.35442 0.00549
2160.06866 0.00489
2158.78291 0.00486
2157.49715 0.00476
2156.21140 0.00480
2154.92564 0.00526
2153.63989 0.00628
2152.35413 0.00776
2151.06838 0.00921
2149.78262 0.00977
2148.49687 0.00921
2147.21111 0.00852
2145.92536 0.00879
2144.63960 0.00978
2143.35385 0.01023
2142.06809 0.00959
2140.78234 0.00855
2139.49658 0.00796
2138.21083 0.00772
2136.92507 0.00716
2135.63932 0.00587
2134.35356 0.00407
2133.06781 0.00254
2131.78205 0.00217
2130.49630 0.00338
2129.21054 0.00581
2127.92479 0.00854
2126.63903 0.01058
2125.35328 0.01131
2124.06752 0.01070
2122.78176 0.00929
2121.49601 0.00796
2120.21025 0.00740
2118.92450 0.00775
2117.63874 0.00867
2116.35299 0.00978
2115.06723 0.01093
2113.78148 0.01202
2112.49572 0.01287
2111.20997 0.01328
2109.92421 0.01329
2108.63846 0.01315
2107.35270 0.01299
2106.06695 0.01271
2104.78119 0.01227
2103.49544 0.01183
2102.20968 0.01150
2100.92393 0.01139
2099.63817 0.01407
2098.35242 0.01481
2097.06666 0.01437
2095.78091 0.01362
2094.49515 0.01243
2093.20940 0.01073
2091.92364 0.00875
2090.63789 0.00694
2089.35213 0.00586
2088.06638 0.00593
2086.78062 0.00705
2085.49487 0.00860
2084.20911 0.01000
2082.92336 0.01113
2081.63760 0.01214
2080.35184 0.01291
2079.06609 0.01310
2077.78033 0.01270
2076.49458 0.01223
2075.20882 0.01229
2073.92307 0.01289
2072.63731 0.01346
2071.35156 0.01340
2070.06580 0.01257
2068.78005 0.01146
2067.49429 0.01071
2066.20854 0.01058
2064.92278 0.01068
2063.63703 0.01034
2062.35127 0.00921
2061.06552 0.00768
2059.77976 0.00669
2058.49401 0.00685
2057.20825 0.00784
2055.92250 0.00886
2054.63674 0.00965
2053.35099 0.01079
2052.06523 0.01279
2050.77948 0.01511
2049.49372 0.01634
2048.20797 0.01542
2046.92221 0.01278
2045.63646 0.01001
2044.35070 0.00866
2043.06495 0.00918
2041.77919 0.01103
2040.49343 0.01337
2039.20768 0.01541
2037.92192 0.01658
2036.63617 0.01670
2035.35041 0.01599
2034.06466 0.01480
2032.77890 0.01323
2031.49315 0.01131
2030.20739 0.00935
2028.92164 0.00798
2027.63588 0.00766
2026.35013 0.00818
2025.06437 0.00886
2023.77862 0.00939
2022.49286 0.01020
2021.20711 0.01155
2019.92135 0.01269
2018.63560 0.01243
2017.34984 0.01064
2016.06409 0.00858
2014.77833 0.00758
2013.49258 0.00800
2012.20682 0.00943
2010.92107 0.01145
2009.63531 0.01371
2008.34956 0.01542
2007.06380 0.01554
2005.77805 0.01356
2004.49229 0.01010
2003.20654 0.00643
2001.92078 0.00360
2000.63503 0.00196
1999.34927 0.00152
1998.06351 0.00226
1996.77776 0.00402
1995.49200 0.00626
1994.20625 0.00819
1992.92049 0.00915
1991.63474 0.00894
1990.34898 0.00796
1989.06323 0.00718
1987.77747 0.00753
1986.49172 0.00927
1985.20596 0.01179
1983.92021 0.01434
1982.63445 0.01671
1981.34870 0.01891
1980.06294 0.02044
1978.77719 0.02044
1977.49143 0.01874
1976.20568 0.01623
1974.91992 0.01396
1973.63417 0.01232
1972.34841 0.01126
1971.06266 0.01094
1969.77690 0.01143
1968.49115 0.01234
1967.20539 0.01304
1965.91964 0.01323
1964.63388 0.01305
1963.34813 0.01271
1962.06237 0.01237
1960.77662 0.01202
1959.49086 0.01140
1958.20510 0.01011
1956.91935 0.00820
1955.63359 0.00640
1954.34784 0.00562
1953.06208 0.00609
1951.77633 0.00737
1950.49057 0.00887
1949.20482 0.01026
1947.91906 0.01133
1946.63331 0.01186
1945.34755 0.01177
1944.06180 0.01129
1942.77604 0.01084
1941.49029 0.01077
1940.20453 0.01106
1938.91878 0.01141
1937.63302 0.01155
1936.34727 0.01155
1935.06151 0.01165
1933.77576 0.01191
1932.49000 0.01204
1931.20425 0.01170
1929.91849 0.01092
1928.63274 0.01004
1927.34698 0.00938
1926.06123 0.00898
1924.77547 0.00867
1923.48972 0.00836
1922.20396 0.00816
1920.91821 0.00832
1919.63245 0.00895
1918.34669 0.00988
1917.06094 0.01072
1915.77518 0.01127
1914.48943 0.01154
1913.20367 0.01164
1911.91792 0.01162
1910.63216 0.01151
1909.34641 0.01140
1908.06065 0.01139
1906.77490 0.01142
1905.48914 0.01134
1904.20339 0.01111
1902.91763 0.01087
1901.63188 0.01082
1900.34612 0.01105
1899.06037 0.01141
1897.77461 0.01170
1896.48886 0.01183
1895.20310 0.01183
1893.91735 0.01176
1892.63159 0.01156
1891.34584 0.01117
1890.06008 0.01069
1888.77433 0.01040
1887.48857 0.01047
1886.20282 0.01079
1884.91706 0.01097
1883.63131 0.01073
1882.34555 0.01018
1881.05980 0.00971
1879.77404 0.00957
1878.48829 0.00976
1877.20253 0.01008
1875.91677 0.01043
1874.63102 0.01089
1873.34526 0.01144
1872.05951 0.01189
1870.77375 0.01201
1869.48800 0.01182
1868.20224 0.01151
1866.91649 0.01126
1865.63073 0.01109
1864.34498 0.01098
1863.05922 0.01094
1861.77347 0.01095
1860.48771 0.01099
1859.20196 0.01105
1857.91620 0.01117
1856.63045 0.01133
1855.34469 0.01147
1854.05894 0.01145
1852.77318 0.01121
1851.48743 0.01082
1850.20167 0.01050
1848.91592 0.01050
1847.63016 0.01089
1846.34441 0.01142
1845.05865 0.01169
1843.77290 0.01147
1842.48714 0.01082
1841.20139 0.01004
1839.91563 0.00946
1838.62988 0.00932
1837.34412 0.00960
1836.05836 0.01009
1834.77261 0.01051
1833.48685 0.01078
1832.20110 0.01095
1830.91534 0.01111
1829.62959 0.01124
1828.34383 0.01123
1827.05808 0.01110
1825.77232 0.01101
1824.48657 0.01113
1823.20081 0.01149
1821.91506 0.01193
1820.62930 0.01213
1819.34355 0.01186
1818.05779 0.01114
1816.77204 0.01027
1815.48628 0.00960
1814.20053 0.00927
1812.91477 0.00920
1811.62902 0.00927
1810.34326 0.00940
1809.05751 0.00954
1807.77175 0.00962
1806.48600 0.00963
1805.20024 0.00961
1803.91449 0.00967
1802.62873 0.00983
1801.34298 0.01001
1800.05722 0.01013
1798.77147 0.01018
1797.48571 0.01030
1796.19995 0.01064
1794.91420 0.01119
1793.62844 0.01172
1792.34269 0.01197
1791.05693 0.01185
1789.77118 0.01155
1788.48542 0.01130
1787.19967 0.01122
1785.91391 0.01127
1784.62816 0.01139
1783.34240 0.01155
1782.05665 0.01168
1780.77089 0.01172
1779.48514 0.01158
1778.19938 0.01133
1776.91363 0.01111
1775.62787 0.01104
1774.34212 0.01110
1773.05636 0.01117
1771.77061 0.01116
1770.48485 0.01103
1769.19910 0.01082
1767.91334 0.01059
1766.62759 0.01044
1765.34183 0.01044
1764.05608 0.01058
1762.77032 0.01071
1761.48457 0.01076
1760.19881 0.01073
1758.91306 0.01069
1757.62730 0.01067
1756.34155 0.01069
1755.05579 0.01076
1753.77003 0.01093
1752.48428 0.01114
1751.19852 0.01122
1749.91277 0.01105
1748.62701 0.01071
1747.34126 0.01037
1746.05550 0.01019
1744.76975 0.01021
1743.48399 0.01038
1742.19824 0.01053
1740.91248 0.01049
1739.62673 0.01033
1738.34097 0.01032
1737.05522 0.01074
1735.76946 0.01148
1734.48371 0.01208
1733.19795 0.01217
1731.91220 0.01180
1730.62644 0.01134
1729.34069 0.01112
1728.05493 0.01125
1726.76918 0.01154
1725.48342 0.01179
1724.19767 0.01188
1722.91191 0.01192
1721.62616 0.01214
1720.34040 0.01269
1719.05465 0.01344
1717.76889 0.01404
1716.48314 0.01425
1715.19738 0.01415
1713.91162 0.01402
1712.62587 0.01411
1711.34011 0.01447
1710.05436 0.01504
1708.76860 0.01570
1707.48285 0.01630
1706.19709 0.01683
1704.91134 0.01742
1703.62558 0.01827
1702.33983 0.01938
1701.05407 0.02056
1699.76832 0.02160
1698.48256 0.02247
1697.19681 0.02324
1695.91105 0.02389
1694.62530 0.02436
1693.33954 0.02474
1692.05379 0.02519
1690.76803 0.02587
1689.48228 0.02688
1688.19652 0.02826
1686.91077 0.02987
1685.62501 0.03136
1684.33926 0.03231
1683.05350 0.03265
1681.76775 0.03278
1680.48199 0.03324
1679.19624 0.03423
1677.91048 0.03552
1676.62473 0.03670
1675.33897 0.03753
1674.05322 0.03809
1672.76746 0.03867
1671.48170 0.03945
1670.19595 0.04033
1668.91019 0.04112
1667.62444 0.04178
1666.33868 0.04246
1665.05293 0.04331
1663.76717 0.04423
1662.48142 0.04500
1661.19566 0.04550
1659.90991 0.04582
1658.62415 0.04625
1657.33840 0.04716
1656.05264 0.04861
1654.76689 0.05011
1653.48113 0.05096
1652.19538 0.05085
1650.90962 0.05022
1649.62387 0.04979
1648.33811 0.04994
1647.05236 0.05036
1645.76660 0.05056
1644.48085 0.05037
1643.19509 0.05002
1641.90934 0.04978
1640.62358 0.04978
1639.33783 0.05001
1638.05207 0.05032
1636.76632 0.05042
1635.48056 0.05002
1634.19481 0.04910
1632.90905 0.04797
1631.62329 0.04697
1630.33754 0.04625
1629.05178 0.04575
1627.76603 0.04529
1626.48027 0.04480
1625.19452 0.04425
1623.90876 0.04353
1622.62301 0.04267
1621.33725 0.04185
1620.05150 0.04133
1618.76574 0.04110
1617.47999 0.04081
1616.19423 0.04015
1614.90848 0.03915
1613.62272 0.03815
1612.33697 0.03745
1611.05121 0.03709
1609.76546 0.03686
1608.47970 0.03660
1607.19395 0.03626
1605.90819 0.03592
1604.62244 0.03565
1603.33668 0.03546
1602.05093 0.03534
1600.76517 0.03526
1599.47942 0.03519
1598.19366 0.03510
1596.90791 0.03501
1595.62215 0.03496
1594.33640 0.03496
1593.05064 0.03503
1591.76488 0.03514
1590.47913 0.03529
1589.19337 0.03544
1587.90762 0.03561
1586.62186 0.03580
1585.33611 0.03599
1584.05035 0.03614
1582.76460 0.03628
1581.47884 0.03649
1580.19309 0.03696
1578.90733 0.03772
1577.62158 0.03854
1576.33582 0.03909
1575.05007 0.03922
1573.76431 0.03918
1572.47856 0.03935
1571.19280 0.03982
1569.90705 0.04035
1568.62129 0.04068
1567.33554 0.04074
1566.04978 0.04067
1564.76403 0.04075
1563.47827 0.04125
1562.19252 0.04226
1560.90676 0.04347
1559.62101 0.04438
1558.33525 0.04463
1557.04950 0.04435
1555.76374 0.04402
1554.47799 0.04401
1553.19223 0.04432
1551.90648 0.04473
1550.62072 0.04509
1549.33496 0.04534
1548.04921 0.04554
1546.76345 0.04574
1545.47770 0.04601
1544.19194 0.04638
1542.90619 0.04683
1541.62043 0.04719
1540.33468 0.04722
1539.04892 0.04683
1537.76317 0.04626
1536.47741 0.04588
1535.19166 0.04589
1533.90590 0.04611
1532.62015 0.04629
1531.33439 0.04632
1530.04864 0.04632
1528.76288 0.04641
1527.47713 0.04658
1526.19137 0.04681
1524.90562 0.04708
1523.61986 0.04742
1522.33411 0.04775
1521.04835 0.04796
1519.76260 0.04800
1518.47684 0.04798
1517.19109 0.04804
1515.90533 0.04823
1514.61958 0.04848
1513.33382 0.04872
1512.04807 0.04900
1510.76231 0.04951
1509.47655 0.05036
1508.19080 0.05132
1506.90504 0.05198
1505.61929 0.05208
1504.33353 0.05175
1503.04778 0.05142
1501.76202 0.05145
1500.47627 0.05186
1499.19051 0.05242
1497.90476 0.05286
1496.61900 0.05301
1495.33325 0.05291
1494.04749 0.05277
1492.76174 0.05281
1491.47598 0.05306
1490.19023 0.05337
1488.90447 0.05359
1487.61872 0.05372
1486.33296 0.05388
1485.04721 0.05420
1483.76145 0.05468
1482.47570 0.05523
1481.18994 0.05579
1479.90419 0.05634
1478.61843 0.05697
1477.33268 0.05775
1476.04692 0.05868
1474.76117 0.05962
1473.47541 0.06036
1472.18966 0.06076
1470.90390 0.06088
1469.61814 0.06097
1468.33239 0.06125
1467.04663 0.06179
1465.76088 0.06240
1464.47512 0.06287
1463.18937 0.06318
1461.90361 0.06360
1460.61786 0.06442
1459.33210 0.06563
1458.04635 0.06686
1456.76059 0.06762
1455.47484 0.06781
1454.18908 0.06773
1452.90333 0.06774
1451.61757 0.06795
1450.33182 0.06825
1449.04606 0.06846
1447.76031 0.06850
1446.47455 0.06838
1445.18880 0.06813
1443.90304 0.06777
1442.61729 0.06737
1441.33153 0.06709
1440.04578 0.06702
1438.76002 0.06712
1437.47427 0.06719
1436.18851 0.06707
1434.90276 0.06682
1433.61700 0.06664
1432.33125 0.06669
1431.04549 0.06696
1429.75974 0.06736
1428.47398 0.06784
1427.18822 0.06842
1425.90247 0.06910
1424.61671 0.06988
1423.33096 0.07075
1422.04520 0.07170
1420.75945 0.07264
1419.47369 0.07341
1418.18794 0.07392
1416.90218 0.07422
1415.61643 0.07442
1414.33067 0.07466
1413.04492 0.07492
1411.75916 0.07512
1410.47341 0.07516
1409.18765 0.07500
1407.90190 0.07464
1406.61614 0.07407
1405.33039 0.07332
1404.04463 0.07243
1402.75888 0.07150
1401.47312 0.07057
1400.18737 0.06963
1398.90161 0.06865
1397.61586 0.06760
1396.33010 0.06645
1395.04435 0.06517
1393.75859 0.06377
1392.47284 0.06237
1391.18708 0.06108
1389.90133 0.05996
1388.61557 0.05889
1387.32981 0.05774
1386.04406 0.05644
1384.75830 0.05508
1383.47255 0.05377
1382.18679 0.05255
1380.90104 0.05139
1379.61528 0.05023
1378.32953 0.04904
1377.04377 0.04785
1375.75802 0.04665
1374.47226 0.04543
1373.18651 0.04416
1371.90075 0.04288
1370.61500 0.04163
1369.32924 0.04046
1368.04349 0.03938
1366.75773 0.03839
1365.47198 0.03746
1364.18622 0.03657
1362.90047 0.03570
1361.61471 0.03484
1360.32896 0.03400
1359.04320 0.03321
1357.75745 0.03252
1356.47169 0.03192
1355.18594 0.03138
1353.90018 0.03088
1352.61443 0.03039
1351.32867 0.02997
1350.04292 0.02961
1348.75716 0.02931
1347.47141 0.02903
1346.18565 0.02873
1344.89989 0.02844
1343.61414 0.02819
1342.32838 0.02798
1341.04263 0.02778
1339.75687 0.02754
1338.47112 0.02724
1337.18536 0.02694
1335.89961 0.02667
1334.61385 0.02645
1333.32810 0.02624
1332.04234 0.02599
1330.75659 0.02571
1329.47083 0.02540
1328.18508 0.02513
1326.89932 0.02490
1325.61357 0.02471
1324.32781 0.02453
1323.04206 0.02434
1321.75630 0.02413
1320.47055 0.02392
1319.18479 0.02371
1317.89904 0.02350
1316.61328 0.02326
1315.32753 0.02299
1314.04177 0.02271
1312.75602 0.02244
1311.47026 0.02220
1310.18451 0.02200
1308.89875 0.02182
1307.61300 0.02164
1306.32724 0.02145
1305.04148 0.02125
1303.75573 0.02107
1302.46997 0.02091
1301.18422 0.02076
1299.89846 0.02059
1298.61271 0.02038
1297.32695 0.02016
1296.04120 0.01996
1294.75544 0.01983
1293.46969 0.01976
1292.18393 0.01970
1290.89818 0.01962
1289.61242 0.01951
1288.32667 0.01938
1287.04091 0.01927
1285.75516 0.01921
1284.46940 0.01924
1283.18365 0.01931
1281.89789 0.01934
1280.61214 0.01928
1279.32638 0.01915
1278.04063 0.01902
1276.75487 0.01893
1275.46912 0.01888
1274.18336 0.01886
1272.89761 0.01885
1271.61185 0.01886
1270.32610 0.01891
1269.04034 0.01902
1267.75459 0.01919
1266.46883 0.01939
1265.18307 0.01961
1263.89732 0.01981
1262.61156 0.01996
1261.32581 0.02000
1260.04005 0.01993
1258.75430 0.01976
1257.46854 0.01955
1256.18279 0.01934
1254.89703 0.01919
1253.61128 0.01907
1252.32552 0.01897
1251.03977 0.01888
1249.75401 0.01878
1248.46826 0.01868
1247.18250 0.01858
1245.89675 0.01849
1244.61099 0.01842
1243.32524 0.01836
1242.03948 0.01830
1240.75373 0.01823
1239.46797 0.01817
1238.18222 0.01811
1236.89646 0.01808
1235.61071 0.01804
1234.32495 0.01796
1233.03920 0.01782
1231.75344 0.01764
1230.46769 0.01744
1229.18193 0.01727
1227.89618 0.01712
1226.61042 0.01696
1225.32467 0.01677
1224.03891 0.01656
1222.75315 0.01635
1221.46740 0.01617
1220.18164 0.01604
1218.89589 0.01593
1217.61013 0.01581
1216.32438 0.01568
1215.03862 0.01555
1213.75287 0.01549
1212.46711 0.01551
1211.18136 0.01560
1209.89560 0.01571
1208.60985 0.01581
1207.32409 0.01589
1206.03834 0.01596
1204.75258 0.01601
1203.46683 0.01607
1202.18107 0.01618
1200.89532 0.01614
1199.60956 0.01552
1198.32381 0.01550
1197.03805 0.01551
1195.75230 0.01546
1194.46654 0.01534
1193.18079 0.01521
1191.89503 0.01510
1190.60928 0.01504
1189.32352 0.01497
1188.03777 0.01487
1186.75201 0.01474
1185.46626 0.01462
1184.18050 0.01453
1182.89474 0.01448
1181.60899 0.01447
1180.32323 0.01449
1179.03748 0.01450
1177.75172 0.01447
1176.46597 0.01445
1175.18021 0.01450
1173.89446 0.01461
1172.60870 0.01474
1171.32295 0.01484
1170.03719 0.01493
1168.75144 0.01502
1167.46568 0.01514
1166.17993 0.01529
1164.89417 0.01548
1163.60842 0.01569
1162.32266 0.01586
1161.03691 0.01595
1159.75115 0.01597
1158.46540 0.01597
1157.17964 0.01603
1155.89389 0.01618
1154.60813 0.01639
1153.32238 0.01663
1152.03662 0.01691
1150.75087 0.01721
1149.46511 0.01756
1148.17936 0.01794
1146.89360 0.01832
1145.60785 0.01869
1144.32209 0.01907
1143.03633 0.01949
1141.75058 0.01996
1140.46482 0.02047
1139.17907 0.02106
1137.89331 0.02175
1136.60756 0.02256
1135.32180 0.02346
1134.03605 0.02444
1132.75029 0.02554
1131.46454 0.02679
1130.17878 0.02818
1128.89303 0.02963
1127.60727 0.03112
1126.32152 0.03270
1125.03576 0.03444
1123.75001 0.03635
1122.46425 0.03837
1121.17850 0.04045
1119.89274 0.04259
1118.60699 0.04479
1117.32123 0.04705
1116.03548 0.04934
1114.74972 0.05162
1113.46397 0.05389
1112.17821 0.05615
1110.89246 0.05842
1109.60670 0.06070
1108.32095 0.06298
1107.03519 0.06520
1105.74944 0.06731
1104.46368 0.06930
1103.17793 0.07125
1101.89217 0.07321
1100.60641 0.07515
1099.32066 0.07698
1098.03490 0.07869
1096.74915 0.08030
1095.46339 0.08183
1094.17764 0.08328
1092.89188 0.08462
1091.60613 0.08587
1090.32037 0.08705
1089.03462 0.08820
1087.74886 0.08930
1086.46311 0.09034
1085.17735 0.09139
1083.89160 0.09253
1082.60584 0.09379
1081.32009 0.09516
1080.03433 0.09662
1078.74858 0.09822
1077.46282 0.09993
1076.17707 0.10173
1074.89131 0.10355
1073.60556 0.10540
1072.31980 0.10731
1071.03405 0.10930
1069.74829 0.11139
1068.46254 0.11357
1067.17678 0.11581
1065.89103 0.11803
1064.60527 0.12018
1063.31952 0.12227
1062.03376 0.12437
1060.74800 0.12651
1059.46225 0.12865
1058.17649 0.13076
1056.89074 0.13281
1055.60498 0.13481
1054.31923 0.13679
1053.03347 0.13875
1051.74772 0.14069
1050.46196 0.14260
1049.17621 0.14451
1047.89045 0.14642
1046.60470 0.14836
1045.31894 0.15031
1044.03319 0.15228
1042.74743 0.15424
1041.46168 0.15619
1040.17592 0.15813
1038.89017 0.16003
1037.60441 0.16188
1036.31866 0.16368
1035.03290 0.16545
1033.74715 0.16713
1032.46139 0.16864
1031.17564 0.16991
1029.88988 0.17096
1028.60413 0.17190
1027.31837 0.17275
1026.03262 0.17345
1024.74686 0.17390
1023.46111 0.17406
1022.17535 0.17397
1020.88960 0.17365
1019.60384 0.17308
1018.31808 0.17228
1017.03233 0.17126
1015.74657 0.17006
1014.46082 0.16869
1013.17506 0.16709
1011.88931 0.16525
1010.60355 0.16317
1009.31780 0.16087
1008.03204 0.15839
1006.74629 0.15573
1005.46053 0.15292
1004.17478 0.15001
1002.88902 0.14703
1001.60327 0.14401
1000.31751 0.14092
999.03176 0.13777
997.74600 0.13460
996.46025 0.13141
995.17449 0.12819
993.88874 0.12494
992.60298 0.12169
991.31723 0.11850
990.03147 0.11539
988.74572 0.11238
987.45996 0.10943
986.17421 0.10654
984.88845 0.10365
983.60270 0.10077
982.31694 0.09794
981.03119 0.09524
979.74543 0.09275
978.45967 0.09044
977.17392 0.08824
975.88816 0.08613
974.60241 0.08416
973.31665 0.08244
972.03090 0.08101
970.74514 0.07992
969.45939 0.07918
968.17363 0.07881
966.88788 0.07874
965.60212 0.07888
964.31637 0.07915
963.03061 0.07944
961.74486 0.07962
960.45910 0.07951
959.17335 0.07899
957.88759 0.07805
956.60184 0.07677
955.31608 0.07528
954.03033 0.07370
952.74457 0.07215
951.45882 0.07067
950.17306 0.06922
948.88731 0.06775
947.60155 0.06628
946.31580 0.06487
945.03004 0.06355
943.74429 0.06228
942.45853 0.06102
941.17278 0.05975
939.88702 0.05853
938.60126 0.05743
937.31551 0.05650
936.02975 0.05568
934.74400 0.05486
933.45824 0.05398
932.17249 0.05304
930.88673 0.05211
929.60098 0.05123
928.31522 0.05038
927.02947 0.04957
925.74371 0.04883
924.45796 0.04817
923.17220 0.04755
921.88645 0.04691
920.60069 0.04625
919.31494 0.04564
918.02918 0.04515
916.74343 0.04477
915.45767 0.04443
914.17192 0.04405
912.88616 0.04359
911.60041 0.04302
910.31465 0.04236
909.02890 0.04170
907.74314 0.04110
906.45739 0.04062
905.17163 0.04020
903.88588 0.03979
902.60012 0.03936
901.31437 0.03889
900.02861 0.03843
898.74286 0.03802
897.45710 0.03772
896.17134 0.03752
894.88559 0.03736
893.59983 0.03717
892.31408 0.03695
891.02832 0.03675
889.74257 0.03665
888.45681 0.03669
887.17106 0.03696
885.88530 0.03754
884.59955 0.03857
883.31379 0.04008
882.02804 0.04192
880.74228 0.04375
879.45653 0.04528
878.17077 0.04644
876.88502 0.04739
875.59926 0.04836
874.31351 0.04936
873.02775 0.05014
871.74200 0.05041
870.45624 0.05011
869.17049 0.04938
867.88473 0.04839
866.59898 0.04720
865.31322 0.04586
864.02747 0.04443
862.74171 0.04297
861.45596 0.04157
860.17020 0.04033
858.88445 0.03929
857.59869 0.03847
856.31293 0.03780
855.02718 0.03720
853.74142 0.03659
852.45567 0.03597
851.16991 0.03535
849.88416 0.03479
848.59840 0.03433
847.31265 0.03397
846.02689 0.03373
844.74114 0.03357
843.45538 0.03344
842.16963 0.03329
840.88387 0.03306
839.59812 0.03276
838.31236 0.03244
837.02661 0.03217
835.74085 0.03201
834.45510 0.03195
833.16934 0.03194
831.88359 0.03193
830.59783 0.03190
829.31208 0.03185
828.02632 0.03174
826.74057 0.03158
825.45481 0.03142
824.16906 0.03135
822.88330 0.03136
821.59755 0.03137
820.31179 0.03132
819.02604 0.03124
817.74028 0.03115
816.45452 0.03102
815.16877 0.03083
813.88301 0.03067
812.59726 0.03061
811.31150 0.03069
810.02575 0.03082
808.73999 0.03091
807.45424 0.03093
806.16848 0.03095
804.88273 0.03098
803.59697 0.03105
802.31122 0.03115
801.02546 0.03126
799.73971 0.03138
798.45395 0.03148
797.16820 0.03156
795.88244 0.03155
794.59669 0.03141
793.31093 0.03117
792.02518 0.03096
790.73942 0.03086
789.45367 0.03084
788.16791 0.03079
786.88216 0.03063
785.59640 0.03039
784.31065 0.03013
783.02489 0.02993
781.73914 0.02982
780.45338 0.02974
779.16763 0.02967
777.88187 0.02963
776.59612 0.02962
775.31036 0.02963
774.02460 0.02964
772.73885 0.02960
771.45309 0.02952
770.16734 0.02937
768.88158 0.02922
767.59583 0.02909
766.31007 0.02899
765.02432 0.02890
763.73856 0.02885
762.45281 0.02885
761.16705 0.02885
759.88130 0.02879
758.59554 0.02872
757.30979 0.02874
756.02403 0.02893
754.73828 0.02921
753.45252 0.02942
752.16677 0.02946
750.88101 0.02940
749.59526 0.02931
748.30950 0.02927
747.02375 0.02925
745.73799 0.02923
744.45224 0.02916
743.16648 0.02905
741.88073 0.02899
740.59497 0.02902
739.30922 0.02903
738.02346 0.02889
736.73771 0.02859
735.45195 0.02826
734.16619 0.02807
732.88044 0.02804
731.59468 0.02814
730.30893 0.02831
729.02317 0.02850
727.73742 0.02866
726.45166 0.02873
725.16591 0.02872
723.88015 0.02821
722.59440 0.02848
721.30864 0.02869
720.02289 0.02867
718.73713 0.02860
717.45138 0.02852
716.16562 0.02845
714.87987 0.02838
713.59411 0.02834
712.30836 0.02838
711.02260 0.02845
709.73685 0.02851
708.45109 0.02853
707.16534 0.02855
705.87958 0.02864
704.59383 0.02881
703.30807 0.02898
702.02232 0.02910
700.73656 0.02915
699.45081 0.02915
698.16505 0.02913
696.87930 0.02915
695.59354 0.02920
694.30779 0.02925
693.02203 0.02927
691.73627 0.02926
690.45052 0.02922
689.16476 0.02914
687.87901 0.02903
686.59325 0.02893
685.30750 0.02887
684.02174 0.02882
682.73599 0.02876
681.45023 0.02870
680.16448 0.02865
678.87872 0.02862
677.59297 0.02860
676.30721 0.02859
675.02146 0.02861
673.73570 0.02865
672.44995 0.02869
671.16419 0.02870
669.87844 0.02866
668.59268 0.02861
667.30693 0.02857
666.02117 0.02851
664.73542 0.02841
663.44966 0.02829
662.16391 0.02817
660.87815 0.02808
659.59240 0.02804
658.30664 0.02803
657.02089 0.02802
655.73513 0.02800
654.44938 0.02798
653.16362 0.02800
651.87786 0.02806
650.59211 0.02813
649.30635 0.02819
648.02060 0.02827
646.73484 0.02835
645.44909 0.02839
644.16333 0.02838
642.87758 0.02835
641.59182 0.02833
640.30607 0.02837
639.02031 0.02847
637.73456 0.02862
636.44880 0.02883
635.16305 0.02910
633.87729 0.02936
632.59154 0.02976
631.30578 0.03182
630.02003 0.03758
628.73427 0.04140
627.44852 0.03679
626.16276 0.03870
624.87701 0.04474
623.59125 0.05013
622.30550 0.05372
621.01974 0.05541
619.73399 0.05508
618.44823 0.05282
617.16248 0.04948
615.87672 0.04653
614.59097 0.04547
613.30521 0.04710
612.01945 0.05092
610.73370 0.05558
609.44794 0.06033
608.16219 0.06542
606.87643 0.07080
605.59068 0.07528
604.30492 0.07757
603.01917 0.07764
601.73341 0.07654
600.44766 0.07521
599.16190 0.07386
597.87615 0.07221
596.59039 0.07016
595.30464 0.06797
594.01888 0.06602
592.73313 0.06458
591.44737 0.06366
590.16162 0.06316
588.87586 0.06299
587.59011 0.06316
586.30435 0.06368
585.01860 0.06453
583.73284 0.06562
582.44709 0.06689
581.16133 0.06831
579.87558 0.06987
578.58982 0.07158
577.30407 0.07341
576.01831 0.07532
574.73256 0.07729
573.44680 0.07925
572.16105 0.08117
570.87529 0.08311
569.58953 0.08523
568.30378 0.08764
567.01802 0.09020
565.73227 0.09249
564.44651 0.09405
563.16076 0.09470
561.87500 0.09455
560.58925 0.09373
559.30349 0.09227
558.01774 0.09018
556.73198 0.08756
555.44623 0.08461
554.16047 0.08151
552.87472 0.07840
551.58896 0.07534
550.30321 0.07243
549.01745 0.06975
547.73170 0.06730
546.44594 0.06508
545.16019 0.06300
543.87443 0.06103
542.58868 0.05914
541.30292 0.05736
540.01717 0.05570
538.73141 0.05415
537.44566 0.05274
536.15990 0.05152
534.87415 0.05048
533.58839 0.04954
532.30264 0.04863
531.01688 0.04770
529.73112 0.04680
528.44537 0.04593
527.15961 0.04508
525.87386 0.04425
524.58810 0.04346
523.30235 0.04278
522.01659 0.04224
520.73084 0.04174
519.44508 0.04119
518.15933 0.04057
516.87357 0.03990
515.58782 0.03923
514.30206 0.03854
513.01631 0.03786
511.73055 0.03725
510.44480 0.03676
509.15904 0.03636
507.87329 0.03597
506.58753 0.03554
505.30178 0.03505
504.01602 0.03453
502.73027 0.03403
501.44451 0.03354
500.15876 0.03306
498.87300 0.03260
497.58725 0.03217
496.30149 0.03180
495.01574 0.03148
493.72998 0.03122
492.44423 0.03100
491.15847 0.03079
489.87271 0.03058
488.58696 0.03037
487.30120 0.03019
486.01545 0.03003
484.72969 0.02987
483.44394 0.02974
482.15818 0.02966
480.87243 0.02965
479.58667 0.02968
478.30092 0.02973
477.01516 0.02983
475.72941 0.02997
474.44365 0.03012
473.15790 0.03025
471.87214 0.03032
470.58639 0.03034
469.30063 0.03027
468.01488 0.03010
466.72912 0.02980
465.44337 0.02940
464.15761 0.02899
462.87186 0.02863
461.58610 0.02833
460.30035 0.02805
459.01459 0.02774
457.72884 0.02737
456.44308 0.02699
455.15733 0.02665
453.87157 0.02637
452.58582 0.02610
451.30006 0.02582
450.01431 0.02553
448.72855 0.02526
447.44279 0.02501
446.15704 0.02480
444.87128 0.02462
443.58553 0.02444
442.29977 0.02424
441.01402 0.02400
439.72826 0.02375
438.44251 0.02353
437.15675 0.02339
435.87100 0.02332
434.58524 0.02323
433.29949 0.02309
432.01373 0.02287
430.72798 0.02263
429.44222 0.02247
428.15647 0.02241
426.87071 0.02241
425.58496 0.02237
424.29920 0.02227
423.01345 0.02213
421.72769 0.02201
420.44194 0.02191
419.15618 0.02175
417.87043 0.02148
416.58467 0.02114
415.29892 0.02079
414.01316 0.02052
412.72741 0.02036
411.44165 0.02028
410.15590 0.02025
408.87014 0.02021
407.58438 0.02012
406.29863 0.02001
405.01287 0.01992
403.72712 0.01989
402.44136 0.01990
401.15561 0.01994
399.86985 0.01998
