3998.69854 0.00280
3997.41278 0.00188
3996.12703 0.00559
3994.84127 0.01244
3993.55552 0.01753
3992.26976 0.01706
3990.98401 0.01192
3989.69825 0.00615
3988.41250 0.00287
3987.12674 0.00249
3985.84099 0.00390
3984.55523 0.00566
3983.26948 0.00665
3981.98372 0.00672
3980.69797 0.00707
3979.41221 0.00902
3978.12646 0.01229
3976.84070 0.01494
3975.55495 0.01507
3974.26919 0.01220
3972.98344 0.00759
3971.69768 0.00365
3970.41193 0.00278
3969.12617 0.00544
3967.84042 0.00927
3966.55466 0.01125
3965.26891 0.01107
3963.98315 0.01117
3962.69740 0.01307
3961.41164 0.01509
3960.12589 0.01439
3958.84013 0.01022
3957.55437 0.00430
3956.26862 -0.00104
3954.98286 -0.00428
3953.69711 -0.00495
3952.41135 -0.00310
3951.12560 0.00087
3949.83984 0.00594
3948.55409 0.01018
3947.26833 0.01162
3945.98258 0.00972
3944.69682 0.00596
3943.41107 0.00273
3942.12531 0.00160
3940.83956 0.00256
3939.55380 0.00465
3938.26805 0.00731
3936.98229 0.01059
3935.69654 0.01415
3934.41078 0.01678
3933.12503 0.01754
3931.83927 0.01671
3930.55352 0.01527
3929.26776 0.01359
3927.98201 0.01151
3926.69625 0.00925
3925.41050 0.00769
3924.12474 0.00757
3922.83899 0.00867
3921.55323 0.01013
3920.26748 0.01147
3918.98172 0.01281
3917.69596 0.01439
3916.41021 0.01618
3915.12445 0.01810
3913.83870 0.01997
3912.55294 0.02130
3911.26719 0.02140
3909.98143 0.01983
3908.69568 0.01657
3907.40992 0.01254
3906.12417 0.00981
3904.83841 0.01048
3903.55266 0.01450
3902.26690 0.01927
3900.98115 0.02211
3899.69539 0.02237
3898.40964 0.02088
3897.12388 0.01843
3895.83813 0.01567
3894.55237 0.01328
3893.26662 0.01125
3891.98086 0.00883
3890.69511 0.00618
3889.40935 0.00519
3888.12360 0.00738
3886.83784 0.01156
3885.55209 0.01494
3884.26633 0.01623
3882.98058 0.01658
3881.69482 0.01751
3880.40907 0.01923
3879.12331 0.02073
3877.83755 0.02070
3876.55180 0.01842
3875.26604 0.01493
3873.98029 0.01299
3872.69453 0.01436
3871.40878 0.01718
3870.12302 0.01741
3868.83727 0.01339
3867.55151 0.00762
3866.26576 0.00357
3864.98000 0.00193
3863.69425 0.00126
3862.40849 0.00093
3861.12274 0.00171
3859.83698 0.00359
3858.55123 0.00469
3857.26547 0.00314
3855.97972 -0.00076
3854.69396 -0.00475
3853.40821 -0.00653
3852.12245 -0.00535
3850.83670 -0.00232
3849.55094 0.00088
3848.26519 0.00354
3846.97943 0.00593
3845.69368 0.00808
3844.40792 0.00919
3843.12217 0.00876
3841.83641 0.00716
3840.55066 0.00457
3839.26490 0.00083
3837.97915 -0.00308
3836.69339 -0.00506
3835.40763 -0.00442
3834.12188 -0.00321
3832.83612 -0.00343
3831.55037 -0.00420
3830.26461 -0.00328
3828.97886 -0.00045
3827.69310 0.00250
3826.40735 0.00494
3825.12159 0.00822
3823.83584 0.01258
3822.55008 0.01498
3821.26433 0.01172
3819.97857 0.00293
3818.69282 -0.00670
3817.40706 -0.01177
3816.12131 -0.01061
3814.83555 -0.00602
3813.54980 -0.00238
3812.26404 -0.00162
3810.97829 -0.00181
3809.69253 0.00004
3808.40678 0.00383
3807.12102 0.00600
3805.83527 0.00360
3804.54951 -0.00220
3803.26376 -0.00722
3801.97800 -0.00802
3800.69225 -0.00435
3799.40649 0.00107
3798.12074 0.00486
3796.83498 0.00550
3795.54922 0.00430
3794.26347 0.00331
3792.97771 0.00299
3791.69196 0.00259
3790.40620 0.00256
3789.12045 0.00468
3787.83469 0.00931
3786.54894 0.01383
3785.26318 0.01499
3783.97743 0.01230
3782.69167 0.00864
3781.40592 0.00739
3780.12016 0.00944
3778.83441 0.01317
3777.54865 0.01675
3776.26290 0.01941
3774.97714 0.02085
3773.69139 0.02049
3772.40563 0.01786
3771.11988 0.01290
3769.83412 0.00609
3768.54837 -0.00093
3767.26261 -0.00549
3765.97686 -0.00586
3764.69110 -0.00314
3763.40535 -0.00016
3762.11959 0.00092
3760.83384 -0.00045
3759.54808 -0.00316
3758.26233 -0.00495
3756.97657 -0.00402
3755.69081 -0.00113
3754.40506 0.00122
3753.11930 0.00220
3751.83355 0.00351
3750.54779 0.00639
3749.26204 0.00924
3747.97628 0.00942
3746.69053 0.00665
3745.40477 0.00356
3744.11902 0.00289
3742.83326 0.00465
3741.54751 0.00630
3740.26175 0.00568
3738.97600 0.00299
3737.69024 -0.00008
3736.40449 -0.00204
3735.11873 -0.00206
3733.83298 0.00023
3732.54722 0.00447
3731.26147 0.00922
3729.97571 0.01255
3728.68996 0.01284
3727.40420 0.00997
3726.11845 0.00598
3724.83269 0.00385
3723.54694 0.00439
3722.26118 0.00579
3720.97543 0.00642
3719.68967 0.00665
3718.40392 0.00726
3717.11816 0.00751
3715.83241 0.00608
3714.54665 0.00289
3713.26089 -0.00068
3711.97514 -0.00264
3710.68938 -0.00157
3709.40363 0.00215
3708.11787 0.00616
3706.83212 0.00824
3705.54636 0.00858
3704.26061 0.00940
3702.97485 0.01198
3701.68910 0.01462
3700.40334 0.01442
3699.11759 0.01124
3697.83183 0.00840
3696.54608 0.00889
3695.26032 0.01208
3693.97457 0.01568
3692.68881 0.01908
3691.40306 0.02258
3690.11730 0.02477
3688.83155 0.02340
3687.54579 0.01811
3686.26004 0.01032
3684.97428 0.00102
3683.68853 -0.00886
3682.40277 -0.01650
3681.11702 -0.01762
3679.83126 -0.01005
3678.54551 0.00335
3677.25975 0.01555
3675.97400 0.01989
3674.68824 0.01535
3673.40248 0.00744
3672.11673 0.00280
3670.83097 0.00347
3669.54522 0.00701
3668.25946 0.01084
3666.97371 0.01386
3665.68795 0.01449
3664.40220 0.01037
3663.11644 0.00172
3661.83069 -0.00733
3660.54493 -0.01274
3659.25918 -0.01417
3657.97342 -0.01297
3656.68767 -0.00913
3655.40191 -0.00272
3654.11616 0.00376
3652.83040 0.00737
3651.54465 0.00782
3650.25889 0.00619
3648.97314 0.00218
3647.68738 -0.00523
3646.40163 -0.01560
3645.11587 -0.02728
3643.83012 -0.03783
3642.54436 -0.04291
3641.25861 -0.03729
3639.97285 -0.02015
3638.68710 0.00137
3637.40134 0.01617
3636.11559 0.01754
3634.82983 0.00757
3633.54408 -0.00573
3632.25832 -0.01429
3630.97256 -0.01444
3629.68681 -0.00851
3628.40105 -0.00242
3627.11530 -0.00067
3625.82954 -0.00341
3624.54379 -0.00807
3623.25803 -0.01182
3621.97228 -0.01166
3620.68652 -0.00497
3619.40077 0.00704
3618.11501 0.01790
3616.82926 0.02128
3615.54350 0.01763
3614.25775 0.01316
3612.97199 0.01251
3611.68624 0.01437
3610.40048 0.01459
3609.11473 0.01167
3607.82897 0.00776
3606.54322 0.00511
3605.25746 0.00353
3603.97171 0.00181
3602.68595 0.00017
3601.40020 0.00011
3600.11444 0.00204
3598.82869 0.00444
3597.54293 0.00541
3596.25718 0.00435
3594.97142 0.00232
3593.68567 0.00113
3592.39991 0.00203
3591.11415 0.00498
3589.82840 0.00859
3588.54264 0.01134
3587.25689 0.01322
3585.97113 0.01567
3584.68538 0.01934
3583.39962 0.02275
3582.11387 0.02454
3580.82811 0.02555
3579.54236 0.02663
3578.25660 0.02549
3576.97085 0.01918
3575.68509 0.00958
3574.39934 0.00301
3573.11358 0.00349
3571.82783 0.00894
3570.54207 0.01443
3569.25632 0.01684
3567.97056 0.01587
3566.68481 0.01292
3565.39905 0.01007
3564.11330 0.00821
3562.82754 0.00599
3561.54179 0.00218
3560.25603 -0.00170
3558.97028 -0.00318
3557.68452 -0.00288
3556.39877 -0.00456
3555.11301 -0.01003
3553.82726 -0.01543
3552.54150 -0.01434
3551.25574 -0.00493
3549.96999 0.00677
3548.68423 0.01190
3547.39848 0.00744
3546.11272 -0.00098
3544.82697 -0.00491
3543.54121 -0.00064
3542.25546 0.00965
3540.96970 0.02130
3539.68395 0.02963
3538.39819 0.03129
3537.11244 0.02624
3535.82668 0.01866
3534.54093 0.01464
3533.25517 0.01854
3531.96942 0.02995
3530.68366 0.04277
3529.39791 0.04833
3528.11215 0.04241
3526.82640 0.02966
3525.54064 0.01985
3524.25489 0.01911
3522.96913 0.02560
3521.68338 0.03308
3520.39762 0.03733
3519.11187 0.03892
3517.82611 0.04025
3516.54036 0.04118
3515.25460 0.03898
3513.96885 0.03290
3512.68309 0.02633
3511.39734 0.02343
3510.11158 0.02495
3508.82582 0.02842
3507.54007 0.03107
3506.25431 0.03160
3504.96856 0.03000
3503.68280 0.02700
3502.39705 0.02373
3501.11129 0.02196
3499.82554 0.02395
3498.53978 0.03060
3497.25403 0.03914
3495.96827 0.04405
3494.68252 0.04184
3493.39676 0.03488
3492.11101 0.02923
3490.82525 0.02868
3489.53950 0.03229
3488.25374 0.03777
3486.96799 0.04512
3485.68223 0.05457
3484.39648 0.06265
3483.11072 0.06400
3481.82497 0.05752
3480.53921 0.04767
3479.25346 0.03897
3477.96770 0.03236
3476.68195 0.02770
3475.39619 0.02627
3474.11044 0.02856
3472.82468 0.03220
3471.53893 0.03446
3470.25317 0.03568
3468.96741 0.03800
3467.68166 0.04192
3466.39590 0.04586
3465.11015 0.04822
3463.82439 0.04839
3462.53864 0.04628
3461.25288 0.04241
3459.96713 0.03855
3458.68137 0.03672
3457.39562 0.03767
3456.10986 0.04088
3454.82411 0.04524
3453.53835 0.04858
3452.25260 0.04721
3450.96684 0.03866
3449.68109 0.02573
3448.39533 0.01653
3447.10958 0.01839
3445.82382 0.03124
3444.53807 0.04728
3443.25231 0.05752
3441.96656 0.05861
3440.68080 0.05395
3439.39505 0.04983
3438.10929 0.05098
3436.82354 0.05738
3435.53778 0.06400
3434.25203 0.06512
3432.96627 0.06031
3431.68052 0.05515
3430.39476 0.05548
3429.10900 0.06225
3427.82325 0.07196
3426.53749 0.07993
3425.25174 0.08274
3423.96598 0.08010
3422.68023 0.07556
3421.39447 0.07348
3420.10872 0.07473
3418.82296 0.07689
3417.53721 0.07836
3416.25145 0.07975
3414.96570 0.08089
3413.67994 0.07944
3412.39419 0.07403
3411.10843 0.06762
3409.82268 0.06581
3408.53692 0.07146
3407.25117 0.08110
3405.96541 0.08771
3404.67966 0.08769
3403.39390 0.08439
3402.10815 0.08347
3400.82239 0.08618
3399.53664 0.08968
3398.25088 0.09232
3396.96513 0.09499
3395.67937 0.09746
3394.39362 0.09715
3393.10786 0.09278
3391.82211 0.08646
3390.53635 0.08082
3389.25060 0.07598
3387.96484 0.07100
3386.67908 0.06710
3385.39333 0.06748
3384.10757 0.07324
3382.82182 0.08099
3381.53606 0.08578
3380.25031 0.08573
3378.96455 0.08278
3377.67880 0.07954
3376.39304 0.07710
3375.10729 0.07579
3373.82153 0.07639
3372.53578 0.07996
3371.25002 0.08664
3369.96427 0.09448
3368.67851 0.10003
3367.39276 0.10131
3366.10700 0.10001
3364.82125 0.09941
3363.53549 0.10048
3362.24974 0.10152
3360.96398 0.10080
3359.67823 0.09825
3358.39247 0.09502
3357.10672 0.09268
3355.82096 0.09222
3354.53521 0.09268
3353.24945 0.09174
3351.96370 0.08874
3350.67794 0.08634
3349.39219 0.08818
3348.10643 0.09475
3346.82067 0.10245
3345.53492 0.10694
3344.24916 0.10704
3342.96341 0.10456
3341.67765 0.10141
3340.39190 0.09818
3339.10614 0.09524
3337.82039 0.09337
3336.53463 0.09315
3335.24888 0.09464
3333.96312 0.09762
3332.67737 0.10121
3331.39161 0.10395
3330.10586 0.10523
3328.82010 0.10567
3327.53435 0.10555
3326.24859 0.10400
3324.96284 0.10112
3323.67708 0.09931
3322.39133 0.10087
3321.10557 0.10475
3319.81982 0.10707
3318.53406 0.10550
3317.24831 0.10197
3315.96255 0.10017
3314.67680 0.10078
3313.39104 0.10075
3312.10529 0.09788
3310.81953 0.09442
3309.53378 0.09412
3308.24802 0.09707
3306.96227 0.09961
3305.67651 0.09906
3304.39075 0.09662
3303.10500 0.09513
3301.81924 0.09549
3300.53349 0.09620
3299.24773 0.09574
3297.96198 0.09428
3296.67622 0.09323
3295.39047 0.09376
3294.10471 0.09631
3292.81896 0.10076
3291.53320 0.10648
3290.24745 0.11210
3288.96169 0.11565
3287.67594 0.11556
3286.39018 0.11202
3285.10443 0.10753
3283.81867 0.10528
3282.53292 0.10610
3281.24716 0.10743
3279.96141 0.10620
3278.67565 0.10244
3277.38990 0.09950
3276.10414 0.10047
3274.81839 0.10503
3273.53263 0.11024
3272.24688 0.11367
3270.96112 0.11499
3269.67537 0.11467
3268.38961 0.11243
3267.10386 0.10801
3265.81810 0.10283
3264.53234 0.09945
3263.24659 0.09912
3261.96083 0.10090
3260.67508 0.10338
3259.38932 0.10605
3258.10357 0.10829
3256.81781 0.10845
3255.53206 0.10520
3254.24630 0.09960
3252.96055 0.09462
3251.67479 0.09269
3250.38904 0.09409
3249.10328 0.09726
3247.81753 0.09986
3246.53177 0.09991
3245.24602 0.09716
3243.96026 0.09331
3242.67451 0.09055
3241.38875 0.08983
3240.10300 0.09068
3238.81724 0.09211
3237.53149 0.09334
3236.24573 0.09407
3234.95998 0.09433
3233.67422 0.09415
3232.38847 0.09361
3231.10271 0.09341
3229.81696 0.09477
3228.53120 0.09828
3227.24545 0.10312
3225.95969 0.10749
3224.67393 0.10965
3223.38818 0.10869
3222.10242 0.10471
3220.81667 0.09881
3219.53091 0.09280
3218.24516 0.08859
3216.95940 0.08715
3215.67365 0.08763
3214.38789 0.08815
3213.10214 0.08766
3211.81638 0.08644
3210.53063 0.08486
3209.24487 0.08289
3207.95912 0.08120
3206.67336 0.08128
3205.38761 0.08353
3204.10185 0.08607
3202.81610 0.08670
3201.53034 0.08543
3200.24459 0.08423
3198.95883 0.08449
3197.67308 0.08572
3196.38732 0.08676
3195.10157 0.08742
3193.81581 0.08847
3192.53006 0.08987
3191.24430 0.09020
3189.95855 0.08810
3188.67279 0.08425
3187.38704 0.08120
3186.10128 0.08099
3184.81553 0.08310
3183.52977 0.08505
3182.24401 0.08509
3180.95826 0.08380
3179.67250 0.08309
3178.38675 0.08377
3177.10099 0.08491
3175.81524 0.08521
3174.52948 0.08451
3173.24373 0.08379
3171.95797 0.08395
3170.67222 0.08456
3169.38646 0.08411
3168.10071 0.08191
3166.81495 0.07923
3165.52920 0.07797
3164.24344 0.07849
3162.95769 0.07954
3161.67193 0.07991
3160.38618 0.07957
3159.10042 0.07912
3157.81467 0.07887
3156.52891 0.07846
3155.24316 0.07736
3153.95740 0.07592
3152.67165 0.07544
3151.38589 0.07669
3150.10014 0.07879
3148.81438 0.08034
3147.52863 0.08102
3146.24287 0.08095
3144.95712 0.07971
3143.67136 0.07728
3142.38560 0.07529
3141.09985 0.07559
3139.81409 0.07776
3138.52834 0.07939
3137.24258 0.07881
3135.95683 0.07647
3134.67107 0.07383
3133.38532 0.07195
3132.09956 0.07143
3130.81381 0.07248
3129.52805 0.07455
3128.24230 0.07657
3126.95654 0.07782
3125.67079 0.07825
3124.38503 0.07783
3123.09928 0.07615
3121.81352 0.07316
3120.52777 0.06982
3119.24201 0.06740
3117.95626 0.06649
3116.67050 0.06706
3115.38475 0.06899
3114.09899 0.07173
3112.81324 0.07402
3111.52748 0.07470
3110.24173 0.07396
3108.95597 0.07303
3107.67022 0.07277
3106.38446 0.07304
3105.09871 0.07340
3103.81295 0.07373
3102.52719 0.07396
3101.24144 0.07365
3099.95568 0.07229
3098.66993 0.07012
3097.38417 0.06833
3096.09842 0.06810
3094.81266 0.06940
3093.52691 0.07091
3092.24115 0.07141
3090.95540 0.07083
3089.66964 0.06976
3088.38389 0.06840
3087.09813 0.06671
3085.81238 0.06533
3084.52662 0.06550
3083.24087 0.06753
3081.95511 0.06973
3080.66936 0.06977
3079.38360 0.06726
3078.09785 0.06432
3076.81209 0.06351
3075.52634 0.06537
3074.24058 0.06840
3072.95483 0.07073
3071.66907 0.07162
3070.38332 0.07148
3069.09756 0.07116
3067.81181 0.07106
3066.52605 0.07081
3065.24030 0.06988
3063.95454 0.06846
3062.66879 0.06726
3061.38303 0.06669
3060.09727 0.06650
3058.81152 0.06667
3057.52576 0.06765
3056.24001 0.06947
3054.95425 0.07107
3053.66850 0.07125
3052.38274 0.07016
3051.09699 0.06919
3049.81123 0.06921
3048.52548 0.06951
3047.23972 0.06870
3045.95397 0.06649
3044.66821 0.06385
3043.38246 0.06194
3042.09670 0.06125
3040.81095 0.06156
3039.52519 0.06223
3038.23944 0.06232
3036.95368 0.06124
3035.66793 0.05941
3034.38217 0.05788
3033.09642 0.05736
3031.81066 0.05778
3030.52491 0.05880
3029.23915 0.06014
3027.95340 0.06136
3026.66764 0.06182
3025.38189 0.06118
3024.09613 0.05990
3022.81038 0.05885
3021.52462 0.05852
3020.23886 0.05873
3018.95311 0.05890
3017.66735 0.05857
3016.38160 0.05767
3015.09584 0.05657
3013.81009 0.05590
3012.52433 0.05619
3011.23858 0.05750
3009.95282 0.05940
3008.66707 0.06126
3007.38131 0.06269
3006.09556 0.06365
3004.80980 0.06413
3003.52405 0.06398
3002.23829 0.06321
3000.95254 0.06225
2999.66678 0.06157
2998.38103 0.06102
2997.09527 0.06008
2995.80952 0.05866
2994.52376 0.05736
2993.23801 0.05676
2991.95225 0.05695
2990.66650 0.05763
2989.38074 0.05844
2988.09499 0.05893
2986.80923 0.05881
2985.52348 0.05833
2984.23772 0.05812
2982.95197 0.05837
2981.66621 0.05848
2980.38046 0.05784
2979.09470 0.05674
2977.80894 0.05604
2976.52319 0.05607
2975.23743 0.05641
2973.95168 0.05660
2972.66592 0.05664
2971.38017 0.05659
2970.09441 0.05648
2968.80866 0.05659
2967.52290 0.05731
2966.23715 0.05853
2964.95139 0.05964
2963.66564 0.06034
2962.37988 0.06092
2961.09413 0.06156
2959.80837 0.06189
2958.52262 0.06147
2957.23686 0.06048
2955.95111 0.05978
2954.66535 0.06014
2953.37960 0.06144
2952.09384 0.06277
2950.80809 0.06336
2949.52233 0.06335
2948.23658 0.06324
2946.95082 0.06321
2945.66507 0.06315
2944.37931 0.06299
2943.09356 0.06282
2941.80780 0.06274
2940.52205 0.06287
2939.23629 0.06325
2937.95053 0.06346
2936.66478 0.06288
2935.37902 0.06157
2934.09327 0.06050
2932.80751 0.06061
2931.52176 0.06173
2930.23600 0.06273
2928.95025 0.06263
2927.66449 0.06161
2926.37874 0.06063
2925.09298 0.06036
2923.80723 0.06055
2922.52147 0.06049
2921.23572 0.05978
2919.94996 0.05868
2918.66421 0.05782
2917.37845 0.05757
2916.09270 0.05765
2914.80694 0.05742
2913.52119 0.05672
2912.23543 0.05609
2910.94968 0.05614
2909.66392 0.05687
2908.37817 0.05784
2907.09241 0.05871
2905.80666 0.05928
2904.52090 0.05936
2903.23515 0.05876
2901.94939 0.05747
2900.66364 0.05568
2899.37788 0.05369
2898.09212 0.05188
2896.80637 0.05069
2895.52061 0.05050
2894.23486 0.05141
2892.94910 0.05311
2891.66335 0.05486
2890.37759 0.05586
2889.09184 0.05576
2887.80608 0.05484
2886.52033 0.05364
2885.23457 0.05254
2883.94882 0.05192
2882.66306 0.05228
2881.37731 0.05379
2880.09155 0.05570
2878.80580 0.05685
2877.52004 0.05671
2876.23429 0.05572
2874.94853 0.05453
2873.66278 0.05331
2872.37702 0.05188
2871.09127 0.05014
2869.80551 0.04852
2868.51976 0.04781
2867.23400 0.04856
2865.94825 0.05032
2864.66249 0.05189
2863.37674 0.05245
2862.09098 0.05220
2860.80523 0.05173
2859.51947 0.05117
2858.23372 0.05023
2856.94796 0.04892
2855.66220 0.04784
2854.37645 0.04768
2853.09069 0.04844
2851.80494 0.04939
2850.51918 0.04972
2849.23343 0.04923
2847.94767 0.04817
2846.66192 0.04689
2845.37616 0.04566
2844.09041 0.04486
2842.80465 0.04477
2841.51890 0.04533
2840.23314 0.04620
2838.94739 0.04704
2837.66163 0.04758
2836.37588 0.04762
2835.09012 0.04713
2833.80437 0.04629
2832.51861 0.04541
2831.23286 0.04482
2829.94710 0.04470
2828.66135 0.04488
2827.37559 0.04474
2826.08984 0.04390
2824.80408 0.04275
2823.51833 0.04215
2822.23257 0.04244
2820.94682 0.04314
2819.66106 0.04355
2818.37531 0.04343
2817.08955 0.04307
2815.80379 0.04276
2814.51804 0.04265
2813.23228 0.04276
2811.94653 0.04307
2810.66077 0.04339
2809.37502 0.04345
2808.08926 0.04309
2806.80351 0.04240
2805.51775 0.04158
2804.23200 0.04081
2802.94624 0.04033
2801.66049 0.04050
2800.37473 0.04144
2799.08898 0.04259
2797.80322 0.04302
2796.51747 0.04228
2795.23171 0.04089
2793.94596 0.03975
2792.66020 0.03929
2791.37445 0.03939
2790.08869 0.03992
2788.80294 0.04079
2787.51718 0.04156
2786.23143 0.04155
2784.94567 0.04044
2783.65992 0.03877
2782.37416 0.03749
2781.08841 0.03712
2779.80265 0.03749
2778.51690 0.03818
2777.23114 0.03900
2775.94538 0.03994
2774.65963 0.04084
2773.37387 0.04139
2772.08812 0.04139
2770.80236 0.04096
2769.51661 0.04032
2768.23085 0.03969
2766.94510 0.03924
2765.65934 0.03912
2764.37359 0.03923
2763.08783 0.03931
2761.80208 0.03918
2760.51632 0.03898
2759.23057 0.03903
2757.94481 0.03937
2756.65906 0.03964
2755.37330 0.03956
2754.08755 0.03927
2752.80179 0.03907
2751.51604 0.03904
2750.23028 0.03909
2748.94453 0.03911
2747.65877 0.03901
2746.37302 0.03870
2745.08726 0.03830
2743.80151 0.03815
2742.51575 0.03843
2741.23000 0.03885
2739.94424 0.03897
2738.65849 0.03864
2737.37273 0.03803
2736.08698 0.03742
2734.80122 0.03702
2733.51546 0.03702
2732.22971 0.03744
2730.94395 0.03805
2729.65820 0.03845
2728.37244 0.03838
2727.08669 0.03791
2725.80093 0.03728
2724.51518 0.03673
2723.22942 0.03650
2721.94367 0.03675
2720.65791 0.03732
2719.37216 0.03777
2718.08640 0.03772
2716.80065 0.03713
2715.51489 0.03626
2714.22914 0.03547
2712.94338 0.03506
2711.65763 0.03509
2710.37187 0.03536
2709.08612 0.03557
2707.80036 0.03556
2706.51461 0.03537
2705.22885 0.03520
2703.94310 0.03524
2702.65734 0.03547
2701.37159 0.03562
2700.08583 0.03543
2698.80008 0.03501
2697.51432 0.03482
2696.22857 0.03511
2694.94281 0.03557
2693.65705 0.03566
2692.37130 0.03517
2691.08554 0.03447
2689.79979 0.03410
2688.51403 0.03441
2687.22828 0.03523
2685.94252 0.03595
2684.65677 0.03605
2683.37101 0.03558
2682.08526 0.03509
2680.79950 0.03486
2679.51375 0.03466
2678.22799 0.03417
2676.94224 0.03351
2675.65648 0.03311
2674.37073 0.03327
2673.08497 0.03379
2671.79922 0.03416
2670.51346 0.03405
2669.22771 0.03362
2667.94195 0.03333
2666.65620 0.03339
2665.37044 0.03359
2664.08469 0.03364
2662.79893 0.03359
2661.51318 0.03365
2660.22742 0.03395
2658.94167 0.03439
2657.65591 0.03481
2656.37016 0.03501
2655.08440 0.03480
2653.79865 0.03418
2652.51289 0.03350
2651.22713 0.03313
2649.94138 0.03302
2648.65562 0.03276
2647.36987 0.03210
2646.08411 0.03137
2644.79836 0.03110
2643.51260 0.03149
2642.22685 0.03228
2640.94109 0.03302
2639.65534 0.03345
2638.36958 0.03364
2637.08383 0.03384
2635.79807 0.03408
2634.51232 0.03412
2633.22656 0.03384
2631.94081 0.03347
2630.65505 0.03336
2629.36930 0.03353
2628.08354 0.03371
2626.79779 0.03369
2625.51203 0.03344
2624.22628 0.03298
2622.94052 0.03226
2621.65477 0.03132
2620.36901 0.03047
2619.08326 0.03004
2617.79750 0.02993
2616.51175 0.02985
2615.22599 0.02981
2613.94024 0.03003
2612.65448 0.03042
2611.36872 0.03059
2610.08297 0.03047
2608.79721 0.03036
2607.51146 0.03046
2606.22570 0.03062
2604.93995 0.03055
2603.65419 0.03015
2602.36844 0.02955
2601.08268 0.02911
2599.79693 0.02911
2598.51117 0.02955
2597.22542 0.03021
2595.93966 0.03095
2594.65391 0.03148
2593.36815 0.03144
2592.08240 0.03070
2590.79664 0.02962
2589.51089 0.02869
2588.22513 0.02817
2586.93938 0.02807
2585.65362 0.02823
2584.36787 0.02837
2583.08211 0.02835
2581.79636 0.02827
2580.51060 0.02830
2579.22485 0.02849
2577.93909 0.02872
2576.65334 0.02887
2575.36758 0.02893
2574.08183 0.02889
2572.79607 0.02856
2571.51031 0.02764
2570.22456 0.02609
2568.93880 0.02440
2567.65305 0.02334
2566.36729 0.02335
2565.08154 0.02433
2563.79578 0.02571
2562.51003 0.02669
2561.22427 0.02687
2559.93852 0.02671
2558.65276 0.02707
2557.36701 0.02825
2556.08125 0.02963
2554.79550 0.03046
2553.50974 0.03048
2552.22399 0.02971
2550.93823 0.02823
2549.65248 0.02646
2548.36672 0.02531
2547.08097 0.02536
2545.79521 0.02620
2544.50946 0.02675
2543.22370 0.02645
2541.93795 0.02584
2540.65219 0.02595
2539.36644 0.02712
2538.08068 0.02866
2536.79493 0.02957
2535.50917 0.02962
2534.22342 0.02941
2532.93766 0.02945
2531.65191 0.02956
2530.36615 0.02925
2529.08039 0.02846
2527.79464 0.02754
2526.50888 0.02690
2525.22313 0.02660
2523.93737 0.02649
2522.65162 0.02637
2521.36586 0.02627
2520.08011 0.02638
2518.79435 0.02667
2517.50860 0.02680
2516.22284 0.02654
2514.93709 0.02605
2513.65133 0.02567
2512.36558 0.02552
2511.07982 0.02557
2509.79407 0.02574
2508.50831 0.02584
2507.22256 0.02570
2505.93680 0.02535
2504.65105 0.02504
2503.36529 0.02498
2502.07954 0.02517
2500.79378 0.02557
2499.50803 0.02622
2498.22227 0.02712
2496.93652 0.02813
2495.65076 0.02891
2494.36501 0.02919
2493.07925 0.02891
2491.79350 0.02828
2490.50774 0.02748
2489.22198 0.02654
2487.93623 0.02556
2486.65047 0.02489
2485.36472 0.02490
2484.07896 0.02561
2482.79321 0.02664
2481.50745 0.02749
2480.22170 0.02795
2478.93594 0.02803
2477.65019 0.02774
2476.36443 0.02697
2475.07868 0.02582
2473.79292 0.02476
2472.50717 0.02428
2471.22141 0.02438
2469.93566 0.02456
2468.64990 0.02438
2467.36415 0.02393
2466.07839 0.02364
2464.79264 0.02390
2463.50688 0.02470
2462.22113 0.02568
2460.93537 0.02631
2459.64962 0.02633
2458.36386 0.02595
2457.07811 0.02571
2455.79235 0.02596
2454.50660 0.02652
2453.22084 0.02690
2451.93509 0.02687
2450.64933 0.02664
2449.36357 0.02649
2448.07782 0.02630
2446.79206 0.02592
2445.50631 0.02564
2444.22055 0.02594
2442.93480 0.02687
2441.64904 0.02777
2440.36329 0.02784
2439.07753 0.02686
2437.79178 0.02533
2436.50602 0.02402
2435.22027 0.02354
2433.93451 0.02395
2432.64876 0.02486
2431.36300 0.02574
2430.07725 0.02620
2428.79149 0.02607
2427.50574 0.02532
2426.21998 0.02410
2424.93423 0.02286
2423.64847 0.02221
2422.36272 0.02242
2421.07696 0.02321
2419.79121 0.02393
2418.50545 0.02422
2417.21970 0.02413
2415.93394 0.02393
2414.64819 0.02379
2413.36243 0.02381
2412.07668 0.02394
2410.79092 0.02401
2409.50517 0.02376
2408.21941 0.02309
2406.93365 0.02218
2405.64790 0.02148
2404.36214 0.02144
2403.07639 0.02215
2401.79063 0.02319
2400.50488 0.02402
2399.21912 0.02438
2397.93337 0.02433
2396.64761 0.02400
2395.36186 0.02358
2394.07610 0.02331
2392.79035 0.02344
2391.50459 0.02391
2390.21884 0.02434
2388.93308 0.02436
2387.64733 0.02388
2386.36157 0.02308
2385.07582 0.02237
2383.79006 0.02214
2382.50431 0.02242
2381.21855 0.02277
2379.93280 0.02262
2378.64704 0.02196
2377.36129 0.02139
2376.07553 0.02154
2374.78978 0.02242
2373.50402 0.02343
2372.21827 0.02394
2370.93251 0.02382
2369.64676 0.02338
2368.36100 0.02303
2367.07524 0.02289
2365.78949 0.02281
2364.50373 0.02272
2363.21798 0.02271
2361.93222 0.02295
2360.64647 0.02348
2359.36071 0.02412
2358.07496 0.02450
2356.78920 0.02434
2355.50345 0.02370
2354.21769 0.02301
2352.93194 0.02269
2351.64618 0.02277
2350.36043 0.02292
2349.07467 0.02284
2347.78892 0.02256
2346.50316 0.02225
2345.21741 0.02205
2343.93165 0.02201
2342.64590 0.02224
2341.36014 0.02276
2340.07439 0.02344
2338.78863 0.02393
2337.50288 0.02408
2336.21712 0.02403
2334.93137 0.02403
2333.64561 0.02408
2332.35986 0.02388
2331.07410 0.02335
2329.78835 0.02280
2328.50259 0.02273
2327.21684 0.02340
2325.93108 0.02452
2324.64532 0.02546
2323.35957 0.02562
2322.07381 0.02497
2320.78806 0.02402
2319.50230 0.02339
2318.21655 0.02315
2316.93079 0.02301
2315.64504 0.02284
2314.35928 0.02286
2313.07353 0.02317
2311.78777 0.02351
2310.50202 0.02360
2309.21626 0.02344
2307.93051 0.02324
2306.64475 0.02305
2305.35900 0.02278
2304.07324 0.02246
2302.78749 0.02223
2301.50173 0.02213
2300.21598 0.02199
2298.93022 0.02159
2297.64447 0.02091
2296.35871 0.02024
2295.07296 0.01994
2293.78720 0.02006
2292.50145 0.02037
2291.21569 0.02064
2289.92994 0.02091
2288.64418 0.02131
2287.35843 0.02179
2286.07267 0.02209
2284.78691 0.02186
2283.50116 0.02106
2282.21540 0.02012
2280.92965 0.01959
2279.64389 0.01949
2278.35814 0.01942
2277.07238 0.01912
2275.78663 0.01875
2274.50087 0.01852
2273.21512 0.01856
2271.92936 0.01879
2270.64361 0.01884
2269.35785 0.01834
2268.07210 0.01760
2266.78634 0.01762
2265.50059 0.01879
2264.21483 0.02023
2262.92908 0.02079
2261.64332 0.02034
2260.35757 0.01954
2259.07181 0.01887
2257.78606 0.01841
2256.50030 0.01821
2255.21455 0.01848
2253.92879 0.01932
2252.64304 0.02062
2251.35728 0.02211
2250.07153 0.02341
2248.78577 0.02411
2247.50002 0.02376
2246.21426 0.02213
2244.92850 0.01964
2243.64275 0.01735
2242.35699 0.01617
2241.07124 0.01613
2239.78548 0.01669
2238.49973 0.01740
2237.21397 0.01796
2235.92822 0.01823
2234.64246 0.01828
2233.35671 0.01834
2232.07095 0.01844
2230.78520 0.01823
2229.49944 0.01752
2228.21369 0.01659
2226.92793 0.01605
2225.64218 0.01633
2224.35642 0.01742
2223.07067 0.01877
2221.78491 0.01945
2220.49916 0.01855
2219.21340 0.01579
2217.92765 0.01233
2216.64189 0.01027
2215.35614 0.01089
2214.07038 0.01335
2212.78463 0.01562
2211.49887 0.01664
2210.21312 0.01689
2208.92736 0.01713
2207.64161 0.01729
2206.35585 0.01688
2205.07010 0.01569
2203.78434 0.01395
2202.49858 0.01223
2201.21283 0.01126
2199.92707 0.01155
2198.64132 0.01274
2197.35556 0.01376
2196.06981 0.01406
2194.78405 0.01424
2193.49830 0.01505
2192.21254 0.01612
2190.92679 0.01648
2189.64103 0.01620
2188.35528 0.01643
2187.06952 0.01766
2185.78377 0.01863
2184.49801 0.01762
2183.21226 0.01444
2181.92650 0.01056
2180.64075 0.00766
2179.35499 0.00627
2178.06924 0.00601
2176.78348 0.00644
2175.49773 0.00731
2174.21197 0.00836
2172.92622 0.00943
2171.64046 0.01081
2170.35471 0.01293
2169.06895 0.01550
2167.78320 0.01748
2166.49744 0.01819
2165.21169 0.01813
2163.92593 0.01827
2162.64017 0.01859
2161.35442 0.01789
2160.06866 0.01544
2158.78291 0.01247
2157.49715 0.01098
2156.21140 0.01151
2154.92564 0.01295
2153.63989 0.01408
2152.35413 0.01461
2151.06838 0.01488
2149.78262 0.01526
2148.49687 0.01587
2147.21111 0.01671
2145.92536 0.01770
2144.63960 0.01857
2143.35385 0.01873
2142.06809 0.01785
2140.78234 0.01637
2139.49658 0.01530
2138.21083 0.01507
2136.92507 0.01515
2135.63932 0.01494
2134.35356 0.01450
2133.06781 0.01425
2131.78205 0.01415
2130.49630 0.01390
2129.21054 0.01354
2127.92479 0.01332
2126.63903 0.01321
2125.35328 0.01282
2124.06752 0.01195
2122.78176 0.01088
2121.49601 0.01012
2120.21025 0.01002
2118.92450 0.01075
2117.63874 0.01213
2116.35299 0.01365
2115.06723 0.01477
2113.78148 0.01537
2112.49572 0.01567
2111.20997 0.01587
2109.92421 0.01593
2108.63846 0.01580
2107.35270 0.01556
2106.06695 0.01529
2104.78119 0.01492
2103.49544 0.01430
2102.20968 0.01344
2100.92393 0.01259
2099.63817 0.01186
2098.35242 0.01111
2097.06666 0.01020
2095.78091 0.00948
2094.49515 0.00943
2093.20940 0.00998
2091.92364 0.01037
2090.63789 0.00994
2089.35213 0.00866
2088.06638 0.00725
2086.78062 0.00672
2085.49487 0.00761
2084.20911 0.00949
2082.92336 0.01129
2081.63760 0.01230
2080.35184 0.01250
2079.06609 0.01220
2077.78033 0.01164
2076.49458 0.01108
2075.20882 0.01083
2073.92307 0.01095
2072.63731 0.01114
2071.35156 0.01102
2070.06580 0.01039
2068.78005 0.00945
2067.49429 0.00883
2066.20854 0.00915
2064.92278 0.01028
2063.63703 0.01114
2062.35127 0.01054
2061.06552 0.00839
2059.77976 0.00609
2058.49401 0.00526
2057.20825 0.00607
2055.92250 0.00713
2054.63674 0.00718
2053.35099 0.00646
2052.06523 0.00618
2050.77948 0.00687
2049.49372 0.00787
2048.20797 0.00828
2046.92221 0.00813
2045.63646 0.00822
2044.35070 0.00903
2043.06495 0.01013
2041.77919 0.01089
2040.49343 0.01130
2039.20768 0.01175
2037.92192 0.01228
2036.63617 0.01246
2035.35041 0.01198
2034.06466 0.01101
2032.77890 0.01001
2031.49315 0.00928
2030.20739 0.00880
2028.92164 0.00836
2027.63588 0.00796
2026.35013 0.00803
2025.06437 0.00912
2023.77862 0.01119
2022.49286 0.01353
2021.20711 0.01515
2019.92135 0.01538
2018.63560 0.01428
2017.34984 0.01249
2016.06409 0.01072
2014.77833 0.00922
2013.49258 0.00793
2012.20682 0.00699
2010.92107 0.00696
2009.63531 0.00818
2008.34956 0.01021
2007.06380 0.01189
2005.77805 0.01236
2004.49229 0.01168
2003.20654 0.01039
2001.92078 0.00875
2000.63503 0.00694
1999.34927 0.00562
1998.06351 0.00558
1996.77776 0.00688
1995.49200 0.00880
1994.20625 0.01072
1992.92049 0.01247
1991.63474 0.01395
1990.34898 0.01487
1989.06323 0.01498
1987.77747 0.01435
1986.49172 0.01324
1985.20596 0.01186
1983.92021 0.01038
1982.63445 0.00903
1981.34870 0.00806
1980.06294 0.00761
1978.77719 0.00753
1977.49143 0.00760
1976.20568 0.00773
1974.91992 0.00797
1973.63417 0.00819
1972.34841 0.00809
1971.06266 0.00769
1969.77690 0.00755
1968.49115 0.00825
1967.20539 0.00970
1965.91964 0.01108
1964.63388 0.01170
1963.34813 0.01164
1962.06237 0.01149
1960.77662 0.01167
1959.49086 0.01198
1958.20510 0.01198
1956.91935 0.01150
1955.63359 0.01087
1954.34784 0.01056
1953.06208 0.01080
1951.77633 0.01132
1950.49057 0.01165
1949.20482 0.01150
1947.91906 0.01101
1946.63331 0.01051
1945.34755 0.01032
1944.06180 0.01062
1942.77604 0.01132
1941.49029 0.01206
1940.20453 0.01253
1938.91878 0.01275
1937.63302 0.01300
1936.34727 0.01336
1935.06151 0.01362
1933.77576 0.01351
1932.49000 0.01290
1931.20425 0.01197
1929.91849 0.01110
1928.63274 0.01076
1927.34698 0.01104
1926.06123 0.01156
1924.77547 0.01174
1923.48972 0.01137
1922.20396 0.01074
1920.91821 0.01044
1919.63245 0.01088
1918.34669 0.01197
1917.06094 0.01310
1915.77518 0.01367
1914.48943 0.01354
1913.20367 0.01302
1911.91792 0.01241
1910.63216 0.01181
1909.34641 0.01123
1908.06065 0.01087
1906.77490 0.01088
1905.48914 0.01119
1904.20339 0.01153
1902.91763 0.01174
1901.63188 0.01197
1900.34612 0.01237
1899.06037 0.01285
1897.77461 0.01312
1896.48886 0.01308
1895.20310 0.01295
1893.91735 0.01297
1892.63159 0.01303
1891.34584 0.01280
1890.06008 0.01224
1888.77433 0.01174
1887.48857 0.01175
1886.20282 0.01220
1884.91706 0.01261
1883.63131 0.01260
1882.34555 0.01232
1881.05980 0.01215
1879.77404 0.01223
1878.48829 0.01234
1877.20253 0.01225
1875.91677 0.01201
1874.63102 0.01186
1873.34526 0.01187
1872.05951 0.01188
1870.77375 0.01178
1869.48800 0.01166
1868.20224 0.01166
1866.91649 0.01173
1865.63073 0.01166
1864.34498 0.01141
1863.05922 0.01112
1861.77347 0.01092
1860.48771 0.01082
1859.20196 0.01085
1857.91620 0.01107
1856.63045 0.01144
1855.34469 0.01182
1854.05894 0.01203
1852.77318 0.01199
1851.48743 0.01170
1850.20167 0.01133
1848.91592 0.01108
1847.63016 0.01106
1846.34441 0.01125
1845.05865 0.01151
1843.77290 0.01167
1842.48714 0.01168
1841.20139 0.01158
1839.91563 0.01154
1838.62988 0.01169
1837.34412 0.01200
1836.05836 0.01227
1834.77261 0.01233
1833.48685 0.01217
1832.20110 0.01194
1830.91534 0.01179
1829.62959 0.01172
1828.34383 0.01168
1827.05808 0.01164
1825.77232 0.01160
1824.48657 0.01159
1823.20081 0.01168
1821.91506 0.01189
1820.62930 0.01218
1819.34355 0.01243
1818.05779 0.01256
1816.77204 0.01253
1815.48628 0.01237
1814.20053 0.01213
1812.91477 0.01193
1811.62902 0.01184
1810.34326 0.01187
1809.05751 0.01199
1807.77175 0.01214
1806.48600 0.01224
1805.20024 0.01223
1803.91449 0.01215
1802.62873 0.01208
1801.34298 0.01206
1800.05722 0.01203
1798.77147 0.01193
1797.48571 0.01177
1796.19995 0.01168
1794.91420 0.01179
1793.62844 0.01207
1792.34269 0.01234
1791.05693 0.01249
1789.77118 0.01251
1788.48542 0.01245
1787.19967 0.01234
1785.91391 0.01220
1784.62816 0.01212
1783.34240 0.01218
1782.05665 0.01236
1780.77089 0.01251
1779.48514 0.01248
1778.19938 0.01227
1776.91363 0.01199
1775.62787 0.01177
1774.34212 0.01166
1773.05636 0.01168
1771.77061 0.01177
1770.48485 0.01183
1769.19910 0.01180
1767.91334 0.01167
1766.62759 0.01150
1765.34183 0.01138
1764.05608 0.01136
1762.77032 0.01146
1761.48457 0.01164
1760.19881 0.01181
1758.91306 0.01196
1757.62730 0.01208
1756.34155 0.01215
1755.05579 0.01219
1753.77003 0.01222
1752.48428 0.01224
1751.19852 0.01223
1749.91277 0.01217
1748.62701 0.01207
1747.34126 0.01199
1746.05550 0.01196
1744.76975 0.01200
1743.48399 0.01201
1742.19824 0.01196
1740.91248 0.01187
1739.62673 0.01184
1738.34097 0.01192
1737.05522 0.01211
1735.76946 0.01236
1734.48371 0.01263
1733.19795 0.01291
1731.91220 0.01315
1730.62644 0.01330
1729.34069 0.01335
1728.05493 0.01332
1726.76918 0.01326
1725.48342 0.01322
1724.19767 0.01320
1722.91191 0.01320
1721.62616 0.01325
1720.34040 0.01337
1719.05465 0.01357
1717.76889 0.01385
1716.48314 0.01416
1715.19738 0.01446
1713.91162 0.01471
1712.62587 0.01492
1711.34011 0.01510
1710.05436 0.01528
1708.76860 0.01552
1707.48285 0.01584
1706.19709 0.01619
1704.91134 0.01654
1703.62558 0.01692
1702.33983 0.01741
1701.05407 0.01803
1699.76832 0.01871
1698.48256 0.01935
1697.19681 0.01989
1695.91105 0.02039
1694.62530 0.02094
1693.33954 0.02159
1692.05379 0.02231
1690.76803 0.02305
1689.48228 0.02379
1688.19652 0.02450
1686.91077 0.02515
1685.62501 0.02573
1684.33926 0.02632
1683.05350 0.02700
1681.76775 0.02781
1680.48199 0.02870
1679.19624 0.02958
1677.91048 0.03039
1676.62473 0.03112
1675.33897 0.03178
1674.05322 0.03239
1672.76746 0.03298
1671.48170 0.03358
1670.19595 0.03422
1668.91019 0.03489
1667.62444 0.03558
1666.33868 0.03622
1665.05293 0.03679
1663.76717 0.03732
1662.48142 0.03790
1661.19566 0.03852
1659.90991 0.03913
1658.62415 0.03967
1657.33840 0.04015
1656.05264 0.04063
1654.76689 0.04114
1653.48113 0.04160
1652.19538 0.04195
1650.90962 0.04215
1649.62387 0.04229
1648.33811 0.04245
1647.05236 0.04264
1645.76660 0.04279
1644.48085 0.04286
1643.19509 0.04290
1641.90934 0.04296
1640.62358 0.04304
1639.33783 0.04304
1638.05207 0.04294
1636.76632 0.04276
1635.48056 0.04252
1634.19481 0.04221
1632.90905 0.04179
1631.62329 0.04126
1630.33754 0.04064
1629.05178 0.04001
1627.76603 0.03942
1626.48027 0.03892
1625.19452 0.03847
1623.90876 0.03801
1622.62301 0.03752
1621.33725 0.03701
1620.05150 0.03647
1618.76574 0.03588
1617.47999 0.03523
1616.19423 0.03450
1614.90848 0.03375
1613.62272 0.03307
1612.33697 0.03253
1611.05121 0.03213
1609.76546 0.03179
1608.47970 0.03145
1607.19395 0.03109
1605.90819 0.03074
1604.62244 0.03041
1603.33668 0.03010
1602.05093 0.02981
1600.76517 0.02959
1599.47942 0.02942
1598.19366 0.02929
1596.90791 0.02920
1595.62215 0.02914
1594.33640 0.02913
1593.05064 0.02914
1591.76488 0.02915
1590.47913 0.02914
1589.19337 0.02912
1587.90762 0.02909
1586.62186 0.02904
1585.33611 0.02898
1584.05035 0.02895
1582.76460 0.02901
1581.47884 0.02917
1580.19309 0.02941
1578.90733 0.02971
1577.62158 0.03004
1576.33582 0.03041
1575.05007 0.03077
1573.76431 0.03110
1572.47856 0.03138
1571.19280 0.03158
1569.90705 0.03173
1568.62129 0.03186
1567.33554 0.03202
1566.04978 0.03223
1564.76403 0.03247
1563.47827 0.03269
1562.19252 0.03286
1560.90676 0.03304
1559.62101 0.03325
1558.33525 0.03352
1557.04950 0.03379
1555.76374 0.03401
1554.47799 0.03418
1553.19223 0.03431
1551.90648 0.03442
1550.62072 0.03453
1549.33496 0.03462
1548.04921 0.03469
1546.76345 0.03474
1545.47770 0.03478
1544.19194 0.03480
1542.90619 0.03478
1541.62043 0.03469
1540.33468 0.03455
1539.04892 0.03435
1537.76317 0.03413
1536.47741 0.03392
1535.19166 0.03376
1533.90590 0.03366
1532.62015 0.03359
1531.33439 0.03349
1530.04864 0.03332
1528.76288 0.03313
1527.47713 0.03297
1526.19137 0.03285
1524.90562 0.03273
1523.61986 0.03258
1522.33411 0.03239
1521.04835 0.03215
1519.76260 0.03193
1518.47684 0.03175
1517.19109 0.03166
1515.90533 0.03165
1514.61958 0.03170
1513.33382 0.03179
1512.04807 0.03187
1510.76231 0.03191
1509.47655 0.03190
1508.19080 0.03184
1506.90504 0.03179
1505.61929 0.03177
1504.33353 0.03178
1503.04778 0.03180
1501.76202 0.03180
1500.47627 0.03174
1499.19051 0.03163
1497.90476 0.03151
1496.61900 0.03143
1495.33325 0.03138
1494.04749 0.03133
1492.76174 0.03126
1491.47598 0.03118
1490.19023 0.03112
1488.90447 0.03110
1487.61872 0.03118
1486.33296 0.03138
1485.04721 0.03171
1483.76145 0.03209
1482.47570 0.03246
1481.18994 0.03283
1479.90419 0.03324
1478.61843 0.03379
1477.33268 0.03450
1476.04692 0.03532
1474.76117 0.03613
1473.47541 0.03688
1472.18966 0.03756
1470.90390 0.03818
1469.61814 0.03872
1468.33239 0.03916
1467.04663 0.03949
1465.76088 0.03977
1464.47512 0.04007
1463.18937 0.04047
1461.90361 0.04098
1460.61786 0.04161
1459.33210 0.04234
1458.04635 0.04311
1456.76059 0.04380
1455.47484 0.04435
1454.18908 0.04470
1452.90333 0.04488
1451.61757 0.04491
1450.33182 0.04482
1449.04606 0.04464
1447.76031 0.04441
1446.47455 0.04413
1445.18880 0.04381
1443.90304 0.04342
1442.61729 0.04296
1441.33153 0.04244
1440.04578 0.04191
1438.76002 0.04140
1437.47427 0.04092
1436.18851 0.04050
1434.90276 0.04018
1433.61700 0.03996
1432.33125 0.03985
1431.04549 0.03986
1429.75974 0.04003
1428.47398 0.04037
1427.18822 0.04084
1425.90247 0.04139
1424.61671 0.04196
1423.33096 0.04253
1422.04520 0.04307
1420.75945 0.04359
1419.47369 0.04411
1418.18794 0.04456
1416.90218 0.04489
1415.61643 0.04510
1414.33067 0.04526
1413.04492 0.04542
1411.75916 0.04554
1410.47341 0.04553
1409.18765 0.04534
1407.90190 0.04497
1406.61614 0.04450
1405.33039 0.04399
1404.04463 0.04347
1402.75888 0.04291
1401.47312 0.04226
1400.18737 0.04150
1398.90161 0.04067
1397.61586 0.03982
1396.33010 0.03902
1395.04435 0.03825
1393.75859 0.03749
1392.47284 0.03673
1391.18708 0.03601
1389.90133 0.03535
1388.61557 0.03474
1387.32981 0.03415
1386.04406 0.03352
1384.75830 0.03283
1383.47255 0.03211
1382.18679 0.03145
1380.90104 0.03089
1379.61528 0.03040
1378.32953 0.02993
1377.04377 0.02943
1375.75802 0.02890
1374.47226 0.02831
1373.18651 0.02767
1371.90075 0.02702
1370.61500 0.02640
1369.32924 0.02584
1368.04349 0.02534
1366.75773 0.02485
1365.47198 0.02434
1364.18622 0.02385
1362.90047 0.02341
1361.61471 0.02307
1360.32896 0.02278
1359.04320 0.02248
1357.75745 0.02215
1356.47169 0.02181
1355.18594 0.02150
1353.90018 0.02126
1352.61443 0.02108
1351.32867 0.02096
1350.04292 0.02090
1348.75716 0.02089
1347.47141 0.02090
1346.18565 0.02087
1344.89989 0.02080
1343.61414 0.02070
1342.32838 0.02059
1341.04263 0.02045
1339.75687 0.02029
1338.47112 0.02014
1337.18536 0.02002
1335.89961 0.01991
1334.61385 0.01980
1333.32810 0.01972
1332.04234 0.01966
1330.75659 0.01960
1329.47083 0.01951
1328.18508 0.01939
1326.89932 0.01928
1325.61357 0.01918
1324.32781 0.01906
1323.04206 0.01893
1321.75630 0.01877
1320.47055 0.01860
1319.18479 0.01842
1317.89904 0.01825
1316.61328 0.01809
1315.32753 0.01791
1314.04177 0.01770
1312.75602 0.01748
1311.47026 0.01731
1310.18451 0.01723
1308.89875 0.01720
1307.61300 0.01718
1306.32724 0.01713
1305.04148 0.01707
1303.75573 0.01701
1302.46997 0.01693
1301.18422 0.01681
1299.89846 0.01668
1298.61271 0.01655
1297.32695 0.01642
1296.04120 0.01633
1294.75544 0.01627
1293.46969 0.01625
1292.18393 0.01623
1290.89818 0.01618
1289.61242 0.01611
1288.32667 0.01605
1287.04091 0.01604
1285.75516 0.01607
1284.46940 0.01615
1283.18365 0.01624
1281.89789 0.01628
1280.61214 0.01621
1279.32638 0.01607
1278.04063 0.01595
1276.75487 0.01590
1275.46912 0.01591
1274.18336 0.01592
1272.89761 0.01590
1271.61185 0.01585
1270.32610 0.01581
1269.04034 0.01577
1267.75459 0.01570
1266.46883 0.01560
1265.18307 0.01549
1263.89732 0.01543
1262.61156 0.01542
1261.32581 0.01547
1260.04005 0.01553
1258.75430 0.01557
1257.46854 0.01558
1256.18279 0.01556
1254.89703 0.01552
1253.61128 0.01549
1252.32552 0.01551
1251.03977 0.01557
1249.75401 0.01564
1248.46826 0.01568
1247.18250 0.01566
1245.89675 0.01561
1244.61099 0.01556
1243.32524 0.01552
1242.03948 0.01550
1240.75373 0.01547
1239.46797 0.01542
1238.18222 0.01533
1236.89646 0.01522
1235.61071 0.01510
1234.32495 0.01500
1233.03920 0.01492
1231.75344 0.01482
1230.46769 0.01469
1229.18193 0.01453
1227.89618 0.01436
1226.61042 0.01420
1225.32467 0.01406
1224.03891 0.01394
1222.75315 0.01380
1221.46740 0.01365
1220.18164 0.01354
1218.89589 0.01347
1217.61013 0.01343
1216.32438 0.01337
1215.03862 0.01326
1213.75287 0.01314
1212.46711 0.01304
1211.18136 0.01298
1209.89560 0.01297
1208.60985 0.01297
1207.32409 0.01298
1206.03834 0.01298
1204.75258 0.01297
1203.46683 0.01298
1202.18107 0.01300
1200.89532 0.01302
1199.60956 0.01301
1198.32381 0.01295
1197.03805 0.01286
1195.75230 0.01275
1194.46654 0.01261
1193.18079 0.01246
1191.89503 0.01234
1190.60928 0.01226
1189.32352 0.01219
1188.03777 0.01210
1186.75201 0.01200
1185.46626 0.01190
1184.18050 0.01180
1182.89474 0.01174
1181.60899 0.01171
1180.32323 0.01172
1179.03748 0.01172
1177.75172 0.01169
1176.46597 0.01165
1175.18021 0.01166
1173.89446 0.01173
1172.60870 0.01184
1171.32295 0.01195
1170.03719 0.01207
1168.75144 0.01220
1167.46568 0.01236
1166.17993 0.01252
1164.89417 0.01270
1163.60842 0.01291
1162.32266 0.01309
1161.03691 0.01321
1159.75115 0.01323
1158.46540 0.01324
1157.17964 0.01331
1155.89389 0.01347
1154.60813 0.01367
1153.32238 0.01389
1152.03662 0.01413
1150.75087 0.01443
1149.46511 0.01479
1148.17936 0.01514
1146.89360 0.01542
1145.60785 0.01562
1144.32209 0.01582
1143.03633 0.01610
1141.75058 0.01647
1140.46482 0.01687
1139.17907 0.01729
1137.89331 0.01776
1136.60756 0.01831
1135.32180 0.01894
1134.03605 0.01961
1132.75029 0.02030
1131.46454 0.02105
1130.17878 0.02191
1128.89303 0.02289
1127.60727 0.02401
1126.32152 0.02524
1125.03576 0.02659
1123.75001 0.02808
1122.46425 0.02967
1121.17850 0.03136
1119.89274 0.03310
1118.60699 0.03489
1117.32123 0.03673
1116.03548 0.03864
1114.74972 0.04065
1113.46397 0.04272
1112.17821 0.04483
1110.89246 0.04694
1109.60670 0.04903
1108.32095 0.05109
1107.03519 0.05307
1105.74944 0.05496
1104.46368 0.05676
1103.17793 0.05851
1101.89217 0.06027
1100.60641 0.06205
1099.32066 0.06384
1098.03490 0.06556
1096.74915 0.06720
1095.46339 0.06877
1094.17764 0.07021
1092.89188 0.07146
1091.60613 0.07249
1090.32037 0.07329
1089.03462 0.07395
1087.74886 0.07452
1086.46311 0.07512
1085.17735 0.07584
1083.89160 0.07668
1082.60584 0.07758
1081.32009 0.07854
1080.03433 0.07960
1078.74858 0.08083
1077.46282 0.08223
1076.17707 0.08376
1074.89131 0.08540
1073.60556 0.08716
1072.31980 0.08904
1071.03405 0.09100
1069.74829 0.09299
1068.46254 0.09498
1067.17678 0.09696
1065.89103 0.09892
1064.60527 0.10086
1063.31952 0.10282
1062.03376 0.10482
1060.74800 0.10685
1059.46225 0.10887
1058.17649 0.11079
1056.89074 0.11262
1055.60498 0.11441
1054.31923 0.11625
1053.03347 0.11819
1051.74772 0.12018
1050.46196 0.12220
1049.17621 0.12420
1047.89045 0.12618
1046.60470 0.12814
1045.31894 0.13005
1044.03319 0.13195
1042.74743 0.13387
1041.46168 0.13584
1040.17592 0.13783
1038.89017 0.13975
1037.60441 0.14159
1036.31866 0.14337
1035.03290 0.14509
1033.74715 0.14672
1032.46139 0.14819
1031.17564 0.14948
1029.88988 0.15064
1028.60413 0.15169
1027.31837 0.15259
1026.03262 0.15328
1024.74686 0.15372
1023.46111 0.15392
1022.17535 0.15387
1020.88960 0.15355
1019.60384 0.15292
1018.31808 0.15199
1017.03233 0.15080
1015.74657 0.14941
1014.46082 0.14781
1013.17506 0.14598
1011.88931 0.14393
1010.60355 0.14170
1009.31780 0.13934
1008.03204 0.13687
1006.74629 0.13425
1005.46053 0.13149
1004.17478 0.12861
1002.88902 0.12567
1001.60327 0.12273
1000.31751 0.11986
999.03176 0.11706
997.74600 0.11432
996.46025 0.11160
995.17449 0.10885
993.88874 0.10604
992.60298 0.10320
991.31723 0.10044
990.03147 0.09784
988.74572 0.09539
987.45996 0.09302
986.17421 0.09065
984.88845 0.08826
983.60270 0.08585
982.31694 0.08347
981.03119 0.08116
979.74543 0.07901
978.45967 0.07705
977.17392 0.07523
975.88816 0.07349
974.60241 0.07183
973.31665 0.07028
972.03090 0.06887
970.74514 0.06768
969.45939 0.06681
968.17363 0.06638
966.88788 0.06638
965.60212 0.06670
964.31637 0.06719
963.03061 0.06771
961.74486 0.06810
960.45910 0.06819
959.17335 0.06787
957.88759 0.06710
956.60184 0.06595
955.31608 0.06458
954.03033 0.06316
952.74457 0.06182
951.45882 0.06059
950.17306 0.05942
948.88731 0.05825
947.60155 0.05705
946.31580 0.05587
945.03004 0.05474
943.74429 0.05367
942.45853 0.05264
941.17278 0.05164
939.88702 0.05071
938.60126 0.04985
937.31551 0.04907
936.02975 0.04835
934.74400 0.04767
933.45824 0.04697
932.17249 0.04620
930.88673 0.04537
929.60098 0.04453
928.31522 0.04375
927.02947 0.04306
925.74371 0.04246
924.45796 0.04194
923.17220 0.04145
921.88645 0.04097
920.60069 0.04052
919.31494 0.04012
918.02918 0.03975
916.74343 0.03934
915.45767 0.03887
914.17192 0.03836
912.88616 0.03787
911.60041 0.03742
910.31465 0.03704
909.02890 0.03674
907.74314 0.03651
906.45739 0.03630
905.17163 0.03605
903.88588 0.03570
902.60012 0.03527
901.31437 0.03481
900.02861 0.03434
898.74286 0.03391
897.45710 0.03357
896.17134 0.03333
894.88559 0.03315
893.59983 0.03296
892.31408 0.03271
891.02832 0.03245
889.74257 0.03222
888.45681 0.03206
887.17106 0.03200
885.88530 0.03206
884.59955 0.03236
883.31379 0.03299
882.02804 0.03389
880.74228 0.03486
879.45653 0.03567
878.17077 0.03625
876.88502 0.03671
875.59926 0.03721
874.31351 0.03772
873.02775 0.03802
871.74200 0.03792
870.45624 0.03740
869.17049 0.03660
867.88473 0.03571
866.59898 0.03486
865.31322 0.03413
864.02747 0.03354
862.74171 0.03305
861.45596 0.03255
860.17020 0.03195
858.88445 0.03130
857.59869 0.03071
856.31293 0.03027
855.02718 0.02997
853.74142 0.02971
852.45567 0.02942
851.16991 0.02913
849.88416 0.02888
848.59840 0.02868
847.31265 0.02849
846.02689 0.02829
844.74114 0.02808
843.45538 0.02786
842.16963 0.02762
840.88387 0.02734
839.59812 0.02702
838.31236 0.02671
837.02661 0.02649
835.74085 0.02636
834.45510 0.02628
833.16934 0.02619
831.88359 0.02610
830.59783 0.02602
829.31208 0.02595
828.02632 0.02585
826.74057 0.02569
825.45481 0.02549
824.16906 0.02530
822.88330 0.02518
821.59755 0.02509
820.31179 0.02499
819.02604 0.02489
817.74028 0.02485
816.45452 0.02485
815.16877 0.02484
813.88301 0.02475
812.59726 0.02462
811.31150 0.02449
810.02575 0.02440
808.73999 0.02434
807.45424 0.02428
806.16848 0.02422
804.88273 0.02414
803.59697 0.02408
802.31122 0.02406
801.02546 0.02408
799.73971 0.02411
798.45395 0.02414
797.16820 0.02418
795.88244 0.02422
794.59669 0.02420
793.31093 0.02410
792.02518 0.02397
790.73942 0.02388
789.45367 0.02382
788.16791 0.02378
786.88216 0.02376
785.59640 0.02379
784.31065 0.02386
783.02489 0.02396
781.73914 0.02400
780.45338 0.02395
779.16763 0.02381
777.88187 0.02366
776.59612 0.02360
775.31036 0.02366
774.02460 0.02385
772.73885 0.02406
771.45309 0.02418
770.16734 0.02411
768.88158 0.02387
767.59583 0.02358
766.31007 0.02333
765.02432 0.02317
763.73856 0.02315
762.45281 0.02323
761.16705 0.02333
759.88130 0.02336
758.59554 0.02337
757.30979 0.02345
756.02403 0.02360
754.73828 0.02374
753.45252 0.02379
752.16677 0.02376
750.88101 0.02371
749.59526 0.02365
748.30950 0.02359
747.02375 0.02358
745.73799 0.02360
744.45224 0.02358
743.16648 0.02348
741.88073 0.02337
740.59497 0.02337
739.30922 0.02351
738.02346 0.02366
736.73771 0.02372
735.45195 0.02366
734.16619 0.02353
732.88044 0.02344
731.59468 0.02340
730.30893 0.02339
729.02317 0.02336
727.73742 0.02329
726.45166 0.02321
725.16591 0.02317
723.88015 0.02315
722.59440 0.02316
721.30864 0.02319
720.02289 0.02325
718.73713 0.02333
717.45138 0.02340
716.16562 0.02345
714.87987 0.02349
713.59411 0.02352
712.30836 0.02352
711.02260 0.02349
709.73685 0.02343
708.45109 0.02335
707.16534 0.02328
705.87958 0.02324
704.59383 0.02325
703.30807 0.02329
702.02232 0.02334
700.73656 0.02336
699.45081 0.02335
698.16505 0.02334
696.87930 0.02334
695.59354 0.02336
694.30779 0.02335
693.02203 0.02332
691.73627 0.02327
690.45052 0.02322
689.16476 0.02318
687.87901 0.02316
686.59325 0.02314
685.30750 0.02310
684.02174 0.02305
682.73599 0.02303
681.45023 0.02305
680.16448 0.02307
678.87872 0.02309
677.59297 0.02315
676.30721 0.02327
675.02146 0.02342
673.73570 0.02351
672.44995 0.02352
671.16419 0.02347
669.87844 0.02341
668.59268 0.02338
667.30693 0.02334
666.02117 0.02325
664.73542 0.02312
663.44966 0.02300
662.16391 0.02296
660.87815 0.02304
659.59240 0.02319
658.30664 0.02332
657.02089 0.02338
655.73513 0.02339
654.44938 0.02341
653.16362 0.02348
651.87786 0.02359
650.59211 0.02372
649.30635 0.02391
648.02060 0.02417
646.73484 0.02447
645.44909 0.02476
644.16333 0.02498
642.87758 0.02513
641.59182 0.02525
640.30607 0.02536
639.02031 0.02554
637.73456 0.02581
636.44880 0.02614
635.16305 0.02642
633.87729 0.02660
632.59154 0.02671
631.30578 0.02684
630.02003 0.02698
628.73427 0.02709
627.44852 0.02709
626.16276 0.02701
624.87701 0.02699
623.59125 0.02734
622.30550 0.02854
621.01974 0.03072
619.73399 0.03326
618.44823 0.03518
617.16248 0.03598
615.87672 0.03575
614.59097 0.03510
613.30521 0.03496
612.01945 0.03611
610.73370 0.03871
609.44794 0.04256
608.16219 0.04748
606.87643 0.05308
605.59068 0.05833
604.30492 0.06213
603.01917 0.06406
601.73341 0.06443
600.44766 0.06375
599.16190 0.06237
597.87615 0.06051
596.59039 0.05842
595.30464 0.05637
594.01888 0.05458
592.73313 0.05311
591.44737 0.05191
590.16162 0.05092
588.87586 0.05017
587.59011 0.04985
586.30435 0.05017
585.01860 0.05110
583.73284 0.05237
582.44709 0.05368
581.16133 0.05502
579.87558 0.05660
578.58982 0.05852
577.30407 0.06064
576.01831 0.06273
574.73256 0.06473
573.44680 0.06666
572.16105 0.06858
570.87529 0.07059
569.58953 0.07282
568.30378 0.07531
567.01802 0.07796
565.73227 0.08051
564.44651 0.08264
563.16076 0.08406
561.87500 0.08462
560.58925 0.08430
559.30349 0.08318
558.01774 0.08135
556.73198 0.07889
555.44623 0.07597
554.16047 0.07282
552.87472 0.06965
551.58896 0.06656
550.30321 0.06360
549.01745 0.06081
547.73170 0.05830
546.44594 0.05616
545.16019 0.05436
543.87443 0.05271
542.58868 0.05114
541.30292 0.04971
540.01717 0.04853
538.73141 0.04754
537.44566 0.04659
536.15990 0.04557
534.87415 0.04445
533.58839 0.04326
532.30264 0.04205
531.01688 0.04088
529.73112 0.03980
528.44537 0.03884
527.15961 0.03798
525.87386 0.03721
524.58810 0.03652
523.30235 0.03589
522.01659 0.03532
520.73084 0.03480
519.44508 0.03432
518.15933 0.03381
516.87357 0.03320
515.58782 0.03254
514.30206 0.03191
513.01631 0.03132
511.73055 0.03077
510.44480 0.03029
509.15904 0.02991
507.87329 0.02960
506.58753 0.02927
505.30178 0.02887
504.01602 0.02843
502.73027 0.02801
501.44451 0.02762
500.15876 0.02726
498.87300 0.02696
497.58725 0.02671
496.30149 0.02647
495.01574 0.02620
493.72998 0.02591
492.44423 0.02562
491.15847 0.02538
489.87271 0.02520
488.58696 0.02504
487.30120 0.02488
486.01545 0.02471
484.72969 0.02453
483.44394 0.02437
482.15818 0.02428
480.87243 0.02429
479.58667 0.02438
478.30092 0.02447
477.01516 0.02451
475.72941 0.02452
474.44365 0.02452
473.15790 0.02455
471.87214 0.02460
470.58639 0.02465
469.30063 0.02466
468.01488 0.02460
466.72912 0.02442
465.44337 0.02411
464.15761 0.02370
462.87186 0.02326
461.58610 0.02284
460.30035 0.02250
459.01459 0.02223
457.72884 0.02204
456.44308 0.02188
455.15733 0.02171
453.87157 0.02152
452.58582 0.02129
451.30006 0.02103
450.01431 0.02072
448.72855 0.02042
447.44279 0.02019
446.15704 0.02005
444.87128 0.01994
443.58553 0.01979
442.29977 0.01960
441.01402 0.01938
439.72826 0.01917
438.44251 0.01896
437.15675 0.01876
435.87100 0.01856
434.58524 0.01836
433.29949 0.01819
432.01373 0.01804
430.72798 0.01791
429.44222 0.01782
428.15647 0.01777
426.87071 0.01772
425.58496 0.01764
424.29920 0.01750
423.01345 0.01732
421.72769 0.01711
420.44194 0.01690
419.15618 0.01669
417.87043 0.01650
416.58467 0.01637
415.29892 0.01629
414.01316 0.01622
412.72741 0.01614
411.44165 0.01601
410.15590 0.01584
408.87014 0.01567
407.58438 0.01554
406.29863 0.01549
405.01287 0.01553
403.72712 0.01561
402.44136 0.01569
401.15561 0.01574
399.86985 0.01574
