3998.69854 0.05245
3997.41278 0.05365
3996.12703 0.05674
3994.84127 0.06040
3993.55552 0.06259
3992.26976 0.06337
3990.98401 0.06454
3989.69825 0.06730
3988.41250 0.07068
3987.12674 0.07275
3985.84099 0.07248
3984.55523 0.07006
3983.26948 0.06612
3981.98372 0.06163
3980.69797 0.05831
3979.41221 0.05759
3978.12646 0.05892
3976.84070 0.05986
3975.55495 0.05838
3974.26919 0.05486
3972.98344 0.05173
3971.69768 0.05092
3970.41193 0.05197
3969.12617 0.05271
3967.84042 0.05180
3966.55466 0.05031
3965.26891 0.05035
3963.98315 0.05255
3962.69740 0.05533
3961.41164 0.05651
3960.12589 0.05515
3958.84013 0.05262
3957.55437 0.05109
3956.26862 0.05136
3954.98286 0.05242
3953.69711 0.05288
3952.41135 0.05241
3951.12560 0.05161
3949.83984 0.05126
3948.55409 0.05190
3947.26833 0.05347
3945.98258 0.05514
3944.69682 0.05586
3943.41107 0.05526
3942.12531 0.05371
3940.83956 0.05173
3939.55380 0.04996
3938.26805 0.04941
3936.98229 0.05104
3935.69654 0.05472
3934.41078 0.05903
3933.12503 0.06225
3931.83927 0.06350
3930.55352 0.06312
3929.26776 0.06182
3927.98201 0.05978
3926.69625 0.05722
3925.41050 0.05517
3924.12474 0.05481
3922.83899 0.05577
3921.55323 0.05642
3920.26748 0.05604
3918.98172 0.05586
3917.69596 0.05715
3916.41021 0.05943
3915.12445 0.06120
3913.83870 0.06199
3912.55294 0.06248
3911.26719 0.06274
3909.98143 0.06150
3908.69568 0.05780
3907.40992 0.05291
3906.12417 0.04993
3904.83841 0.05114
3903.55266 0.05658
3902.26690 0.06462
3900.98115 0.07296
3899.69539 0.07898
3898.40964 0.08039
3897.12388 0.07693
3895.83813 0.07131
3894.55237 0.06698
3893.26662 0.06523
3891.98086 0.06495
3890.69511 0.06502
3889.40935 0.06580
3888.12360 0.06813
3886.83784 0.07155
3885.55209 0.07438
3884.26633 0.07519
3882.98058 0.07397
3881.69482 0.07160
3880.40907 0.06859
3879.12331 0.06463
3877.83755 0.05972
3876.55180 0.05524
3875.26604 0.05327
3873.98029 0.05434
3872.69453 0.05648
3871.40878 0.05711
3870.12302 0.05569
3868.83727 0.05380
3867.55151 0.05312
3866.26576 0.05389
3864.98000 0.05533
3863.69425 0.05699
3862.40849 0.05902
3861.12274 0.06130
3859.83698 0.06311
3858.55123 0.06355
3857.26547 0.06249
3855.97972 0.06086
3854.69396 0.05981
3853.40821 0.05963
3852.12245 0.05988
3850.83670 0.06047
3849.55094 0.06209
3848.26519 0.06470
3846.97943 0.06672
3845.69368 0.06639
3844.40792 0.06353
3843.12217 0.05945
3841.83641 0.05552
3840.55066 0.05282
3839.26490 0.05217
3837.97915 0.05361
3836.69339 0.05596
3835.40763 0.05745
3834.12188 0.05702
3832.83612 0.05509
3831.55037 0.05287
3830.26461 0.05140
3828.97886 0.05119
3827.69310 0.05228
3826.40735 0.05445
3825.12159 0.05729
3823.83584 0.06003
3822.55008 0.06145
3821.26433 0.06063
3819.97857 0.05814
3818.69282 0.05606
3817.40706 0.05605
3816.12131 0.05734
3814.83555 0.05721
3813.54980 0.05426
3812.26404 0.05073
3810.97829 0.05063
3809.69253 0.05567
3808.40678 0.06329
3807.12102 0.06898
3805.83527 0.07004
3804.54951 0.06775
3803.26376 0.06581
3801.97800 0.06655
3800.69225 0.06872
3799.40649 0.06929
3798.12074 0.06685
3796.83498 0.06287
3795.54922 0.05945
3794.26347 0.05723
3792.97771 0.05582
3791.69196 0.05514
3790.40620 0.05568
3789.12045 0.05752
3787.83469 0.05987
3786.54894 0.06148
3785.26318 0.06166
3783.97743 0.06093
3782.69167 0.06080
3781.40592 0.06227
3780.12016 0.06473
3778.83441 0.06628
3777.54865 0.06576
3776.26290 0.06423
3774.97714 0.06442
3773.69139 0.06795
3772.40563 0.07301
3771.11988 0.07532
3769.83412 0.07229
3768.54837 0.06597
3767.26261 0.06095
3765.97686 0.05938
3764.69110 0.05930
3763.40535 0.05767
3762.11959 0.05380
3760.83384 0.04944
3759.54808 0.04670
3758.26233 0.04655
3756.97657 0.04879
3755.69081 0.05268
3754.40506 0.05804
3753.11930 0.06550
3751.83355 0.07472
3750.54779 0.08294
3749.26204 0.08636
3747.97628 0.08377
3746.69053 0.07831
3745.40477 0.07454
3744.11902 0.07385
3742.83326 0.07336
3741.54751 0.07003
3740.26175 0.06436
3738.97600 0.05922
3737.69024 0.05608
3736.40449 0.05422
3735.11873 0.05340
3733.83298 0.05496
3732.54722 0.06006
3731.26147 0.06726
3729.97571 0.07324
3728.68996 0.07588
3727.40420 0.07599
3726.11845 0.07605
3724.83269 0.07763
3723.54694 0.08036
3722.26118 0.08245
3720.97543 0.08234
3719.68967 0.08023
3718.40392 0.07843
3717.11816 0.07961
3715.83241 0.08399
3714.54665 0.08822
3713.26089 0.08802
3711.97514 0.08230
3710.68938 0.07408
3709.40363 0.06720
3708.11787 0.06278
3706.83212 0.05976
3705.54636 0.05736
3704.26061 0.05571
3702.97485 0.05460
3701.68910 0.05336
3700.40334 0.05285
3699.11759 0.05586
3697.83183 0.06396
3696.54608 0.07486
3695.26032 0.08430
3693.97457 0.09013
3692.68881 0.09342
3691.40306 0.09573
3690.11730 0.09656
3688.83155 0.09341
3687.54579 0.08480
3686.26004 0.07263
3684.97428 0.06153
3683.68853 0.05590
3682.40277 0.05708
3681.11702 0.06301
3679.83126 0.07014
3678.54551 0.07532
3677.25975 0.07687
3675.97400 0.07525
3674.68824 0.07302
3673.40248 0.07295
3672.11673 0.07547
3670.83097 0.07861
3669.54522 0.08072
3668.25946 0.08202
3666.97371 0.08274
3665.68795 0.08125
3664.40220 0.07595
3663.11644 0.06820
3661.83069 0.06133
3660.54493 0.05703
3659.25918 0.05474
3657.97342 0.05427
3656.68767 0.05678
3655.40191 0.06293
3654.11616 0.07125
3652.83040 0.07908
3651.54465 0.08402
3650.25889 0.08501
3648.97314 0.08284
3647.68738 0.07951
3646.40163 0.07702
3645.11587 0.07705
3643.83012 0.08131
3642.54436 0.08963
3641.25861 0.09827
3639.97285 0.10198
3638.68710 0.09856
3637.40134 0.09068
3636.11559 0.08306
3634.82983 0.07918
3633.54408 0.08061
3632.25832 0.08727
3630.97256 0.09665
3629.68681 0.10386
3628.40105 0.10500
3627.11530 0.10064
3625.82954 0.09462
3624.54379 0.08959
3623.25803 0.08578
3621.97228 0.08375
3620.68652 0.08505
3619.40077 0.08907
3618.11501 0.09216
3616.82926 0.09200
3615.54350 0.09118
3614.25775 0.09406
3612.97199 0.10092
3611.68624 0.10760
3610.40048 0.11064
3609.11473 0.11109
3607.82897 0.11238
3606.54322 0.11605
3605.25746 0.12051
3603.97171 0.12315
3602.68595 0.12210
3601.40020 0.11698
3600.11444 0.10963
3598.82869 0.10390
3597.54293 0.10250
3596.25718 0.10404
3594.97142 0.10493
3593.68567 0.10430
3592.39991 0.10480
3591.11415 0.10839
3589.82840 0.11403
3588.54264 0.11975
3587.25689 0.12498
3585.97113 0.12956
3584.68538 0.13246
3583.39962 0.13324
3582.11387 0.13363
3580.82811 0.13582
3579.54236 0.13922
3578.25660 0.14045
3576.97085 0.13668
3575.68509 0.12895
3574.39934 0.12203
3573.11358 0.12104
3571.82783 0.12723
3570.54207 0.13661
3569.25632 0.14297
3567.97056 0.14312
3566.68481 0.13930
3565.39905 0.13644
3564.11330 0.13709
3562.82754 0.13936
3561.54179 0.13977
3560.25603 0.13693
3558.97028 0.13242
3557.68452 0.12837
3556.39877 0.12590
3555.11301 0.12597
3553.82726 0.13006
3552.54150 0.13780
3551.25574 0.14480
3549.96999 0.14538
3548.68423 0.13859
3547.39848 0.13022
3546.11272 0.12772
3544.82697 0.13378
3543.54121 0.14542
3542.25546 0.15812
3540.96970 0.16898
3539.68395 0.17654
3538.39819 0.17981
3537.11244 0.17878
3535.82668 0.17542
3534.54093 0.17311
3533.25517 0.17425
3531.96942 0.17753
3530.68366 0.17850
3529.39791 0.17419
3528.11215 0.16743
3526.82640 0.16474
3525.54064 0.16980
3524.25489 0.17987
3522.96913 0.18905
3521.68338 0.19360
3520.39762 0.19398
3519.11187 0.19268
3517.82611 0.19091
3516.54036 0.18731
3515.25460 0.18001
3513.96885 0.16977
3512.68309 0.16039
3511.39734 0.15553
3510.11158 0.15597
3508.82582 0.16007
3507.54007 0.16605
3506.25431 0.17286
3504.96856 0.17914
3503.68280 0.18297
3502.39705 0.18385
3501.11129 0.18402
3499.82554 0.18594
3498.53978 0.18903
3497.25403 0.19073
3495.96827 0.19076
3494.68252 0.19163
3493.39676 0.19454
3492.11101 0.19701
3490.82525 0.19628
3489.53950 0.19314
3488.25374 0.19129
3486.96799 0.19333
3485.68223 0.19849
3484.39648 0.20351
3483.11072 0.20533
3481.82497 0.20339
3480.53921 0.19994
3479.25346 0.19813
3477.96770 0.19939
3476.68195 0.20226
3475.39619 0.20366
3474.11044 0.20205
3472.82468 0.19963
3471.53893 0.20074
3470.25317 0.20714
3468.96741 0.21495
3467.68166 0.21759
3466.39590 0.21203
3465.11015 0.20144
3463.82439 0.19175
3462.53864 0.18670
3461.25288 0.18639
3459.96713 0.18878
3458.68137 0.19135
3457.39562 0.19218
3456.10986 0.19114
3454.82411 0.19000
3453.53835 0.19024
3452.25260 0.19122
3450.96684 0.19091
3449.68109 0.18850
3448.39533 0.18556
3447.10958 0.18429
3445.82382 0.18521
3444.53807 0.18668
3443.25231 0.18678
3441.96656 0.18513
3440.68080 0.18249
3439.39505 0.17952
3438.10929 0.17628
3436.82354 0.17289
3435.53778 0.17022
3434.25203 0.16997
3432.96627 0.17374
3431.68052 0.18122
3430.39476 0.18951
3429.10900 0.19525
3427.82325 0.19760
3426.53749 0.19840
3425.25174 0.19957
3423.96598 0.20086
3422.68023 0.20032
3421.39447 0.19631
3420.10872 0.18935
3418.82296 0.18210
3417.53721 0.17733
3416.25145 0.17572
3414.96570 0.17586
3413.67994 0.17635
3412.39419 0.17736
3411.10843 0.17977
3409.82268 0.18288
3408.53692 0.18400
3407.25117 0.18126
3405.96541 0.17672
3404.67966 0.17467
3403.39390 0.17574
3402.10815 0.17586
3400.82239 0.17369
3399.53664 0.16731
3398.25088 0.15933
3396.96513 0.15517
3395.67937 0.15638
3394.39362 0.16052
3393.10786 0.16434
3391.82211 0.16582
3390.53635 0.16454
3389.25060 0.16134
3387.96484 0.15831
3386.67908 0.15791
3385.39333 0.16084
3384.10757 0.16490
3382.82182 0.16736
3381.53606 0.16797
3380.25031 0.16849
3378.96455 0.16953
3377.67880 0.16968
3376.39304 0.16795
3375.10729 0.16522
3373.82153 0.16274
3372.53578 0.16047
3371.25002 0.15759
3369.96427 0.15369
3368.67851 0.14899
3367.39276 0.14418
3366.10700 0.14060
3364.82125 0.13951
3363.53549 0.14063
3362.24974 0.14172
3360.96398 0.14066
3359.67823 0.13818
3358.39247 0.13765
3357.10672 0.14168
3355.82096 0.14917
3354.53521 0.15619
3353.24945 0.15970
3351.96370 0.15984
3350.67794 0.15873
3349.39219 0.15763
3348.10643 0.15599
3346.82067 0.15300
3345.53492 0.14935
3344.24916 0.14650
3342.96341 0.14478
3341.67765 0.14304
3340.39190 0.14060
3339.10614 0.13846
3337.82039 0.13794
3336.53463 0.13880
3335.24888 0.13949
3333.96312 0.13908
3332.67737 0.13820
3331.39161 0.13797
3330.10586 0.13860
3328.82010 0.13895
3327.53435 0.13720
3326.24859 0.13241
3324.96284 0.12592
3323.67708 0.12129
3322.39133 0.12190
3321.10557 0.12785
3319.81982 0.13522
3318.53406 0.13916
3317.24831 0.13806
3315.96255 0.13435
3314.67680 0.13132
3313.39104 0.13010
3312.10529 0.13001
3310.81953 0.13040
3309.53378 0.13099
3308.24802 0.13130
3306.96227 0.13102
3305.67651 0.13052
3304.39075 0.13041
3303.10500 0.13054
3301.81924 0.13012
3300.53349 0.12844
3299.24773 0.12535
3297.96198 0.12139
3296.67622 0.11767
3295.39047 0.11521
3294.10471 0.11420
3292.81896 0.11434
3291.53320 0.11552
3290.24745 0.11756
3288.96169 0.11923
3287.67594 0.11894
3286.39018 0.11676
3285.10443 0.11489
3283.81867 0.11527
3282.53292 0.11730
3281.24716 0.11875
3279.96141 0.11875
3278.67565 0.11870
3277.38990 0.12023
3276.10414 0.12308
3274.81839 0.12559
3273.53263 0.12657
3272.24688 0.12591
3270.96112 0.12382
3269.67537 0.12028
3268.38961 0.11570
3267.10386 0.11151
3265.81810 0.10946
3264.53234 0.10994
3263.24659 0.11152
3261.96083 0.11239
3260.67508 0.11186
3259.38932 0.11029
3258.10357 0.10797
3256.81781 0.10493
3255.53206 0.10179
3254.24630 0.10017
3252.96055 0.10142
3251.67479 0.10501
3250.38904 0.10869
3249.10328 0.11048
3247.81753 0.11032
3246.53177 0.10940
3245.24602 0.10827
3243.96026 0.10622
3242.67451 0.10247
3241.38875 0.09754
3240.10300 0.09325
3238.81724 0.09153
3237.53149 0.09306
3236.24573 0.09663
3234.95998 0.09985
3233.67422 0.10101
3232.38847 0.10058
3231.10271 0.10057
3229.81696 0.10219
3228.53120 0.10459
3227.24545 0.10604
3225.95969 0.10578
3224.67393 0.10428
3223.38818 0.10218
3222.10242 0.09993
3220.81667 0.09813
3219.53091 0.09729
3218.24516 0.09730
3216.95940 0.09748
3215.67365 0.09742
3214.38789 0.09726
3213.10214 0.09723
3211.81638 0.09736
3210.53063 0.09720
3209.24487 0.09595
3207.95912 0.09320
3206.67336 0.08971
3205.38761 0.08717
3204.10185 0.08696
3202.81610 0.08913
3201.53034 0.09243
3200.24459 0.09533
3198.95883 0.09700
3197.67308 0.09786
3196.38732 0.09902
3195.10157 0.10112
3193.81581 0.10352
3192.53006 0.10469
3191.24430 0.10326
3189.95855 0.09930
3188.67279 0.09466
3187.38704 0.09176
3186.10128 0.09152
3184.81553 0.09244
3183.52977 0.09219
3182.24401 0.08985
3180.95826 0.08656
3179.67250 0.08391
3178.38675 0.08249
3177.10099 0.08211
3175.81524 0.08280
3174.52948 0.08480
3173.24373 0.08776
3171.95797 0.09055
3170.67222 0.09217
3169.38646 0.09249
3168.10071 0.09195
3166.81495 0.09098
3165.52920 0.08975
3164.24344 0.08813
3162.95769 0.08586
3161.67193 0.08284
3160.38618 0.07956
3159.10042 0.07700
3157.81467 0.07598
3156.52891 0.07638
3155.24316 0.07736
3153.95740 0.07835
3152.67165 0.07957
3151.38589 0.08131
3150.10014 0.08312
3148.81438 0.08410
3147.52863 0.08399
3146.24287 0.08332
3144.95712 0.08278
3143.67136 0.08276
3142.38560 0.08319
3141.09985 0.08347
3139.81409 0.08264
3138.52834 0.08036
3137.24258 0.07752
3135.95683 0.07557
3134.67107 0.07520
3133.38532 0.07598
3132.09956 0.07692
3130.81381 0.07723
3129.52805 0.07665
3128.24230 0.07547
3126.95654 0.07419
3125.67079 0.07291
3124.38503 0.07130
3123.09928 0.06931
3121.81352 0.06769
3120.52777 0.06741
3119.24201 0.06856
3117.95626 0.07025
3116.67050 0.07157
3115.38475 0.07230
3114.09899 0.07272
3112.81324 0.07319
3111.52748 0.07387
3110.24173 0.07464
3108.95597 0.07515
3107.67022 0.07516
3106.38446 0.07457
3105.09871 0.07343
3103.81295 0.07194
3102.52719 0.07057
3101.24144 0.06981
3099.95568 0.06958
3098.66993 0.06960
3097.38417 0.06999
3096.09842 0.07111
3094.81266 0.07259
3093.52691 0.07329
3092.24115 0.07263
3090.95540 0.07131
3089.66964 0.07041
3088.38389 0.07003
3087.09813 0.06958
3085.81238 0.06901
3084.52662 0.06912
3083.24087 0.07030
3081.95511 0.07161
3080.66936 0.07164
3079.38360 0.07007
3078.09785 0.06800
3076.81209 0.06685
3075.52634 0.06723
3074.24058 0.06880
3072.95483 0.07068
3071.66907 0.07188
3070.38332 0.07174
3069.09756 0.07042
3067.81181 0.06882
3066.52605 0.06790
3065.24030 0.06779
3063.95454 0.06773
3062.66879 0.06689
3061.38303 0.06547
3060.09727 0.06467
3058.81152 0.06549
3057.52576 0.06769
3056.24001 0.06998
3054.95425 0.07122
3053.66850 0.07131
3052.38274 0.07108
3051.09699 0.07153
3049.81123 0.07282
3048.52548 0.07385
3047.23972 0.07293
3045.95397 0.06930
3044.66821 0.06421
3043.38246 0.06023
3042.09670 0.05933
3040.81095 0.06129
3039.52519 0.06418
3038.23944 0.06623
3036.95368 0.06716
3035.66793 0.06769
3034.38217 0.06824
3033.09642 0.06852
3031.81066 0.06812
3030.52491 0.06710
3029.23915 0.06580
3027.95340 0.06448
3026.66764 0.06329
3025.38189 0.06236
3024.09613 0.06187
3022.81038 0.06198
3021.52462 0.06277
3020.23886 0.06400
3018.95311 0.06491
3017.66735 0.06452
3016.38160 0.06238
3015.09584 0.05921
3013.81009 0.05651
3012.52433 0.05555
3011.23858 0.05658
3009.95282 0.05885
3008.66707 0.06113
3007.38131 0.06249
3006.09556 0.06280
3004.80980 0.06253
3003.52405 0.06183
3002.23829 0.06079
3000.95254 0.06185
2999.66678 0.06420
2998.38103 0.06402
2997.09527 0.06311
2995.80952 0.06157
2994.52376 0.05957
2993.23801 0.05780
2991.95225 0.05737
2990.66650 0.05875
2989.38074 0.06095
2988.09499 0.06210
2986.80923 0.06128
2985.52348 0.05939
2984.23772 0.05808
2982.95197 0.05797
2981.66621 0.05838
2980.38046 0.05852
2979.09470 0.05835
2977.80894 0.05820
2976.52319 0.05820
2975.23743 0.05820
2973.95168 0.05802
2972.66592 0.05746
2971.38017 0.05654
2970.09441 0.05585
2968.80866 0.05633
2967.52290 0.05835
2966.23715 0.06123
2964.95139 0.06390
2963.66564 0.06569
2962.37988 0.06649
2961.09413 0.06623
2959.80837 0.06483
2958.52262 0.06261
2957.23686 0.06066
2955.95111 0.06016
2954.66535 0.06118
2953.37960 0.06264
2952.09384 0.06350
2950.80809 0.06377
2949.52233 0.06400
2948.23658 0.06441
2946.95082 0.06492
2945.66507 0.06547
2944.37931 0.06581
2943.09356 0.06555
2941.80780 0.06476
2940.52205 0.06422
2939.23629 0.06448
2937.95053 0.06516
2936.66478 0.06560
2935.37902 0.06588
2934.09327 0.06658
2932.80751 0.06769
2931.52176 0.06849
2930.23600 0.06844
2928.95025 0.06787
2927.66449 0.06739
2926.37874 0.06712
2925.09298 0.06673
2923.80723 0.06622
2922.52147 0.06591
2921.23572 0.06585
2919.94996 0.06560
2918.66421 0.06481
2917.37845 0.06364
2916.09270 0.06250
2914.80694 0.06165
2913.52119 0.06112
2912.23543 0.06089
2910.94968 0.06083
2909.66392 0.06084
2908.37817 0.06076
2907.09241 0.06049
2905.80666 0.06005
2904.52090 0.05961
2903.23515 0.05931
2901.94939 0.05906
2900.66364 0.05859
2899.37788 0.05782
2898.09212 0.05702
2896.80637 0.05656
2895.52061 0.05663
2894.23486 0.05716
2892.94910 0.05786
2891.66335 0.05843
2890.37759 0.05863
2889.09184 0.05835
2887.80608 0.05763
2886.52033 0.05676
2885.23457 0.05619
2883.94882 0.05628
2882.66306 0.05702
2881.37731 0.05793
2880.09155 0.05840
2878.80580 0.05806
2877.52004 0.05709
2876.23429 0.05593
2874.94853 0.05491
2873.66278 0.05406
2872.37702 0.05346
2871.09127 0.05338
2869.80551 0.05397
2868.51976 0.05490
2867.23400 0.05540
2865.94825 0.05492
2864.66249 0.05367
2863.37674 0.05255
2862.09098 0.05223
2860.80523 0.05249
2859.51947 0.05244
2858.23372 0.05164
2856.94796 0.05076
2855.66220 0.05079
2854.37645 0.05184
2853.09069 0.05295
2851.80494 0.05323
2850.51918 0.05278
2849.23343 0.05233
2847.94767 0.05229
2846.66192 0.05245
2845.37616 0.05239
2844.09041 0.05209
2842.80465 0.05184
2841.51890 0.05191
2840.23314 0.05216
2838.94739 0.05227
2837.66163 0.05207
2836.37588 0.05165
2835.09012 0.05124
2833.80437 0.05102
2832.51861 0.05101
2831.23286 0.05120
2829.94710 0.05141
2828.66135 0.05129
2827.37559 0.05059
2826.08984 0.04935
2824.80408 0.04788
2823.51833 0.04671
2822.23257 0.04628
2820.94682 0.04673
2819.66106 0.04778
2818.37531 0.04889
2817.08955 0.04950
2815.80379 0.04926
2814.51804 0.04821
2813.23228 0.04684
2811.94653 0.04584
2810.66077 0.04567
2809.37502 0.04613
2808.08926 0.04650
2806.80351 0.04622
2805.51775 0.04550
2804.23200 0.04506
2802.94624 0.04536
2801.66049 0.04623
2800.37473 0.04710
2799.08898 0.04738
2797.80322 0.04687
2796.51747 0.04591
2795.23171 0.04519
2793.94596 0.04507
2792.66020 0.04539
2791.37445 0.04583
2790.08869 0.04625
2788.80294 0.04661
2787.51718 0.04662
2786.23143 0.04597
2784.94567 0.04473
2783.65992 0.04344
2782.37416 0.04269
2781.08841 0.04268
2779.80265 0.04323
2778.51690 0.04408
2777.23114 0.04508
2775.94538 0.04602
2774.65963 0.04652
2773.37387 0.04631
2772.08812 0.04553
2770.80236 0.04466
2769.51661 0.04406
2768.23085 0.04378
2766.94510 0.04362
2765.65934 0.04347
2764.37359 0.04329
2763.08783 0.04312
2761.80208 0.04296
2760.51632 0.04279
2759.23057 0.04268
2757.94481 0.04272
2756.65906 0.04296
2755.37330 0.04336
2754.08755 0.04387
2752.80179 0.04438
2751.51604 0.04476
2750.23028 0.04481
2748.94453 0.04434
2747.65877 0.04343
2746.37302 0.04249
2745.08726 0.04202
2743.80151 0.04209
2742.51575 0.04234
2741.23000 0.04242
2739.94424 0.04239
2738.65849 0.04245
2737.37273 0.04270
2736.08698 0.04300
2734.80122 0.04322
2733.51546 0.04326
2732.22971 0.04305
2730.94395 0.04263
2729.65820 0.04217
2728.37244 0.04188
2727.08669 0.04184
2725.80093 0.04184
2724.51518 0.04169
2723.22942 0.04149
2721.94367 0.04151
2720.65791 0.04169
2719.37216 0.04159
2718.08640 0.04087
2716.80065 0.03967
2715.51489 0.03858
2714.22914 0.03814
2712.94338 0.03855
2711.65763 0.03953
2710.37187 0.04051
2709.08612 0.04099
2707.80036 0.04081
2706.51461 0.04025
2705.22885 0.03977
2703.94310 0.03968
2702.65734 0.03992
2701.37159 0.04017
2700.08583 0.04025
2698.80008 0.04026
2697.51432 0.04045
2696.22857 0.04077
2694.94281 0.04085
2693.65705 0.04040
2692.37130 0.03962
2691.08554 0.03905
2689.79979 0.03900
2688.51403 0.03922
2687.22828 0.03924
2685.94252 0.03895
2684.65677 0.03867
2683.37101 0.03878
2682.08526 0.03924
2680.79950 0.03957
2679.51375 0.03932
2678.22799 0.03851
2676.94224 0.03761
2675.65648 0.03706
2674.37073 0.03709
2673.08497 0.03764
2671.79922 0.03837
2670.51346 0.03888
2669.22771 0.03894
2667.94195 0.03867
2666.65620 0.03838
2665.37044 0.03821
2664.08469 0.03811
2662.79893 0.03799
2661.51318 0.03784
2660.22742 0.03776
2658.94167 0.03783
2657.65591 0.03798
2656.37016 0.03800
2655.08440 0.03769
2653.79865 0.03715
2652.51289 0.03668
2651.22713 0.03646
2649.94138 0.03629
2648.65562 0.03584
2647.36987 0.03519
2646.08411 0.03486
2644.79836 0.03519
2643.51260 0.03600
2642.22685 0.03677
2640.94109 0.03723
2639.65534 0.03742
2638.36958 0.03751
2637.08383 0.03746
2635.79807 0.03713
2634.51232 0.03651
2633.22656 0.03581
2631.94081 0.03528
2630.65505 0.03502
2629.36930 0.03505
2628.08354 0.03536
2626.79779 0.03590
2625.51203 0.03646
2624.22628 0.03674
2622.94052 0.03658
2621.65477 0.03598
2620.36901 0.03512
2619.08326 0.03425
2617.79750 0.03359
2616.51175 0.03320
2615.22599 0.03300
2613.94024 0.03292
2612.65448 0.03288
2611.36872 0.03282
2610.08297 0.03265
2608.79721 0.03247
2607.51146 0.03243
2606.22570 0.03252
2604.93995 0.03244
2603.65419 0.03188
2602.36844 0.03098
2601.08268 0.03041
2599.79693 0.03072
2598.51117 0.03185
2597.22542 0.03323
2595.93966 0.03425
2594.65391 0.03457
2593.36815 0.03420
2592.08240 0.03345
2590.79664 0.03272
2589.51089 0.03229
2588.22513 0.03213
2586.93938 0.03203
2585.65362 0.03184
2584.36787 0.03157
2583.08211 0.03140
2581.79636 0.03146
2580.51060 0.03179
2579.22485 0.03244
2577.93909 0.03343
2576.65334 0.03448
2575.36758 0.03499
2574.08183 0.03452
2572.79607 0.03329
2571.51031 0.03192
2570.22456 0.03083
2568.93880 0.03014
2567.65305 0.02984
2566.36729 0.02992
2565.08154 0.03023
2563.79578 0.03041
2562.51003 0.03016
2561.22427 0.02963
2559.93852 0.02939
2558.65276 0.02984
2557.36701 0.03076
2556.08125 0.03163
2554.79550 0.03222
2553.50974 0.03259
2552.22399 0.03267
2550.93823 0.03235
2549.65248 0.03190
2548.36672 0.03188
2547.08097 0.03234
2545.79521 0.03256
2544.50946 0.03180
2543.22370 0.03030
2541.93795 0.02918
2540.65219 0.02940
2539.36644 0.03087
2538.08068 0.03259
2536.79493 0.03354
2535.50917 0.03346
2534.22342 0.03294
2532.93766 0.03271
2531.65191 0.03307
2530.36615 0.03369
2529.08039 0.03398
2527.79464 0.03366
2526.50888 0.03297
2525.22313 0.03234
2523.93737 0.03190
2522.65162 0.03150
2521.36586 0.03114
2520.08011 0.03105
2518.79435 0.03115
2517.50860 0.03082
2516.22284 0.02964
2514.93709 0.02815
2513.65133 0.02749
2512.36558 0.02819
2511.07982 0.02964
2509.79407 0.03064
2508.50831 0.03044
2507.22256 0.02932
2505.93680 0.02827
2504.65105 0.02807
2503.36529 0.02867
2502.07954 0.02938
2500.79378 0.02970
2499.50803 0.02968
2498.22227 0.02953
2496.93652 0.02934
2495.65076 0.02914
2494.36501 0.02904
2493.07925 0.02921
2491.79350 0.02963
2490.50774 0.03001
2489.22198 0.03009
2487.93623 0.02984
2486.65047 0.02947
2485.36472 0.02916
2484.07896 0.02904
2482.79321 0.02928
2481.50745 0.02998
2480.22170 0.03093
2478.93594 0.03149
2477.65019 0.03100
2476.36443 0.02949
2475.07868 0.02790
2473.79292 0.02735
2472.50717 0.02817
2471.22141 0.02964
2469.93566 0.03080
2468.64990 0.03130
2467.36415 0.03130
2466.07839 0.03108
2464.79264 0.03081
2463.50688 0.03060
2462.22113 0.03039
2460.93537 0.03001
2459.64962 0.02944
2458.36386 0.02894
2457.07811 0.02882
2455.79235 0.02901
2454.50660 0.02911
2453.22084 0.02895
2451.93509 0.02889
2450.64933 0.02940
2449.36357 0.03026
2448.07782 0.03069
2446.79206 0.03033
2445.50631 0.02978
2444.22055 0.02982
2442.93480 0.03043
2441.64904 0.03097
2440.36329 0.03100
2439.07753 0.03053
2437.79178 0.02976
2436.50602 0.02890
2435.22027 0.02835
2433.93451 0.02843
2432.64876 0.02901
2431.36300 0.02955
2430.07725 0.02960
2428.79149 0.02911
2427.50574 0.02827
2426.21998 0.02742
2424.93423 0.02695
2423.64847 0.02716
2422.36272 0.02795
2421.07696 0.02879
2419.79121 0.02922
2418.50545 0.02920
2417.21970 0.02898
2415.93394 0.02860
2414.64819 0.02799
2413.36243 0.02736
2412.07668 0.02709
2410.79092 0.02719
2409.50517 0.02723
2408.21941 0.02688
2406.93365 0.02645
2405.64790 0.02647
2404.36214 0.02708
2403.07639 0.02791
2401.79063 0.02863
2400.50488 0.02898
2399.21912 0.02684
2397.93337 0.02791
2396.64761 0.02864
2395.36186 0.02859
2394.07610 0.02876
2392.79035 0.02917
2391.50459 0.02941
2390.21884 0.02925
2388.93308 0.02882
2387.64733 0.02831
2386.36157 0.02780
2385.07582 0.02739
2383.79006 0.02726
2382.50431 0.02751
2381.21855 0.02790
2379.93280 0.02801
2378.64704 0.02761
2377.36129 0.02716
2376.07553 0.02732
2374.78978 0.02813
2373.50402 0.02903
2372.21827 0.02938
2370.93251 0.02919
2369.64676 0.02885
2368.36100 0.02867
2367.07524 0.02863
2365.78949 0.02836
2364.50373 0.02795
2363.21798 0.02803
2361.93222 0.02839
2360.64647 0.02855
2359.36071 0.02852
2358.07496 0.02836
2356.78920 0.02811
2355.50345 0.02788
2354.21769 0.02771
2352.93194 0.02780
2351.64618 0.02789
2350.36043 0.02784
2349.07467 0.02768
2347.78892 0.02739
2346.50316 0.02684
2345.21741 0.02658
2343.93165 0.02704
2342.64590 0.02787
2341.36014 0.02778
2340.07439 0.02695
2338.78863 0.02703
2337.50288 0.02803
2336.21712 0.02810
2334.93137 0.02753
2333.64561 0.02778
2332.35986 0.02844
2331.07410 0.02775
2329.78835 0.02711
2328.50259 0.02723
2327.21684 0.02681
2325.93108 0.02608
2324.64532 0.02567
2323.35957 0.02509
2322.07381 0.02403
2320.78806 0.02349
2319.50230 0.02346
2318.21655 0.02371
2316.93079 0.02446
2315.64504 0.02544
2314.35928 0.02664
2313.07353 0.02775
2311.78777 0.02814
2310.50202 0.02797
2309.21626 0.02760
2307.93051 0.02721
2306.64475 0.02687
2305.35900 0.02631
2304.07324 0.02559
2302.78749 0.02498
2301.50173 0.02449
2300.21598 0.02390
2298.93022 0.02294
2297.64447 0.02172
2296.35871 0.02074
2295.07296 0.02036
2293.78720 0.02062
2292.50145 0.02125
2291.21569 0.02201
2289.92994 0.02273
2288.64418 0.02326
2287.35843 0.02343
2286.07267 0.02326
2284.78691 0.02303
2283.50116 0.02301
2282.21540 0.02322
2280.92965 0.02339
2279.64389 0.02323
2278.35814 0.02274
2277.07238 0.02216
2275.78663 0.02171
2274.50087 0.02144
2273.21512 0.02125
2271.92936 0.02091
2270.64361 0.02030
2269.35785 0.01962
2268.07210 0.01927
2266.78634 0.01944
2265.50059 0.01987
2264.21483 0.02009
2262.92908 0.01982
2261.64332 0.01919
2260.35757 0.01858
2259.07181 0.01834
2257.78606 0.01858
2256.50030 0.01914
2255.21455 0.01981
2253.92879 0.02051
2252.64304 0.02158
2251.35728 0.02370
2250.07153 0.02604
2248.78577 0.02526
2247.50002 0.02474
2246.21426 0.02321
2244.92850 0.02148
2243.64275 0.02038
2242.35699 0.02008
2241.07124 0.02020
2239.78548 0.02042
2238.49973 0.02063
2237.21397 0.02069
2235.92822 0.02031
2234.64246 0.01938
2233.35671 0.01840
2232.07095 0.01825
2230.78520 0.01937
2229.49944 0.02119
2228.21369 0.02253
2226.92793 0.02274
2225.64218 0.02231
2224.35642 0.02214
2223.07067 0.02239
2221.78491 0.02222
2220.49916 0.02085
2219.21340 0.01862
2217.92765 0.01670
2216.64189 0.01594
2215.35614 0.01606
2214.07038 0.01626
2212.78463 0.01625
2211.49887 0.01652
2210.21312 0.01746
2208.92736 0.01849
2207.64161 0.01868
2206.35585 0.01787
2205.07010 0.01684
2203.78434 0.01613
2202.49858 0.01542
2201.21283 0.01437
2199.92707 0.01327
2198.64132 0.01250
2197.35556 0.01184
2196.06981 0.01105
2194.78405 0.01065
2193.49830 0.01127
2192.21254 0.01265
2190.92679 0.01396
2189.64103 0.01489
2188.35528 0.01578
2187.06952 0.01657
2185.78377 0.01656
2184.49801 0.01538
2183.21226 0.01376
2181.92650 0.01265
2180.64075 0.01198
2179.35499 0.01097
2178.06924 0.00956
2176.78348 0.00871
2175.49773 0.00921
2174.21197 0.01062
2172.92622 0.01211
2171.64046 0.01360
2170.35471 0.01548
2169.06895 0.01748
2167.78320 0.01846
2166.49744 0.01750
2165.21169 0.01500
2163.92593 0.01268
2162.64017 0.01231
2161.35442 0.01397
2160.06866 0.01595
2158.78291 0.01678
2157.49715 0.01719
2156.21140 0.01870
2154.92564 0.02121
2153.63989 0.02320
2152.35413 0.02372
2151.06838 0.02327
2149.78262 0.02296
2148.49687 0.02335
2147.21111 0.02405
2145.92536 0.02405
2144.63960 0.02267
2143.35385 0.02032
2142.06809 0.01846
2140.78234 0.01828
2139.49658 0.01937
2138.21083 0.02018
2136.92507 0.01984
2135.63932 0.01902
2134.35356 0.01890
2133.06781 0.01968
2131.78205 0.02055
2130.49630 0.02080
2129.21054 0.02054
2127.92479 0.02036
2126.63903 0.02042
2125.35328 0.02020
2124.06752 0.01909
2122.78176 0.01719
2121.49601 0.01544
2120.21025 0.01472
2118.92450 0.01512
2117.63874 0.01600
2116.35299 0.01667
2115.06723 0.01702
2113.78148 0.01730
2112.49572 0.01761
2111.20997 0.01778
2109.92421 0.01769
2108.63846 0.01751
2107.35270 0.01743
2106.06695 0.01733
2104.78119 0.01690
2103.49544 0.01610
2102.20968 0.01524
2100.92393 0.01472
2099.63817 0.01592
2098.35242 0.01596
2097.06666 0.01570
2095.78091 0.01564
2094.49515 0.01555
2093.20940 0.01516
2091.92364 0.01436
2090.63789 0.01326
2089.35213 0.01217
2088.06638 0.01150
2086.78062 0.01157
2085.49487 0.01237
2084.20911 0.01357
2082.92336 0.01464
2081.63760 0.01516
2080.35184 0.01505
2079.06609 0.01463
2077.78033 0.01452
2076.49458 0.01517
2075.20882 0.01637
2073.92307 0.01734
2072.63731 0.01747
2071.35156 0.01678
2070.06580 0.01564
2068.78005 0.01437
2067.49429 0.01307
2066.20854 0.01196
2064.92278 0.01119
2063.63703 0.01055
2062.35127 0.00966
2061.06552 0.00863
2059.77976 0.00820
2058.49401 0.00892
2057.20825 0.01035
2055.92250 0.01150
2054.63674 0.01188
2053.35099 0.01190
2052.06523 0.01217
2050.77948 0.01258
2049.49372 0.01238
2048.20797 0.01120
2046.92221 0.00991
2045.63646 0.00980
2044.35070 0.01112
2043.06495 0.01271
2041.77919 0.01327
2040.49343 0.01273
2039.20768 0.01207
2037.92192 0.01215
2036.63617 0.01292
2035.35041 0.01364
2034.06466 0.01347
2032.77890 0.01212
2031.49315 0.00994
2030.20739 0.00776
2028.92164 0.00633
2027.63588 0.00613
2026.35013 0.00727
2025.06437 0.00946
2023.77862 0.01194
2022.49286 0.01385
2021.20711 0.01481
2019.92135 0.01519
2018.63560 0.01547
2017.34984 0.01549
2016.06409 0.01453
2014.77833 0.01247
2013.49258 0.01037
2012.20682 0.00980
2010.92107 0.01122
2009.63531 0.01361
2008.34956 0.01546
2007.06380 0.01602
2005.77805 0.01539
2004.49229 0.01389
2003.20654 0.01190
2001.92078 0.00996
2000.63503 0.00872
1999.34927 0.00840
1998.06351 0.00868
1996.77776 0.00917
1995.49200 0.00975
1994.20625 0.01053
1992.92049 0.01133
1991.63474 0.01163
1990.34898 0.01119
1989.06323 0.01058
1987.77747 0.01070
1986.49172 0.01165
1985.20596 0.01256
1983.92021 0.01266
1982.63445 0.01210
1981.34870 0.01155
1980.06294 0.01138
1978.77719 0.01153
1977.49143 0.01213
1976.20568 0.01347
1974.91992 0.01533
1973.63417 0.01682
1972.34841 0.01712
1971.06266 0.01630
1969.77690 0.01527
1968.49115 0.01480
1967.20539 0.01490
1965.91964 0.01515
1964.63388 0.01550
1963.34813 0.01629
1962.06237 0.01767
1960.77662 0.01919
1959.49086 0.02007
1958.20510 0.01984
1956.91935 0.01855
1955.63359 0.01680
1954.34784 0.01540
1953.06208 0.01490
1951.77633 0.01530
1950.49057 0.01614
1949.20482 0.01683
1947.91906 0.01701
1946.63331 0.01672
1945.34755 0.01630
1944.06180 0.01600
1942.77604 0.01580
1941.49029 0.01558
1940.20453 0.01548
1938.91878 0.01582
1937.63302 0.01672
1936.34727 0.01786
1935.06151 0.01875
1933.77576 0.01909
1932.49000 0.01889
1931.20425 0.01838
1929.91849 0.01785
1928.63274 0.01743
1927.34698 0.01707
1926.06123 0.01669
1924.77547 0.01632
1923.48972 0.01611
1922.20396 0.01616
1920.91821 0.01638
1919.63245 0.01659
1918.34669 0.01666
1917.06094 0.01659
1915.77518 0.01655
1914.48943 0.01665
1913.20367 0.01681
1911.91792 0.01674
1910.63216 0.01637
1909.34641 0.01597
1908.06065 0.01592
1906.77490 0.01633
1905.48914 0.01684
1904.20339 0.01698
1902.91763 0.01661
1901.63188 0.01596
1900.34612 0.01540
1899.06037 0.01519
1897.77461 0.01533
1896.48886 0.01568
1895.20310 0.01608
1893.91735 0.01651
1892.63159 0.01693
1891.34584 0.01727
1890.06008 0.01738
1888.77433 0.01723
1887.48857 0.01693
1886.20282 0.01664
1884.91706 0.01640
1883.63131 0.01619
1882.34555 0.01604
1881.05980 0.01614
1879.77404 0.01658
1878.48829 0.01721
1877.20253 0.01763
1875.91677 0.01754
1874.63102 0.01708
1873.34526 0.01660
1872.05951 0.01637
1870.77375 0.01632
1869.48800 0.01621
1868.20224 0.01589
1866.91649 0.01539
1865.63073 0.01495
1864.34498 0.01481
1863.05922 0.01506
1861.77347 0.01553
1860.48771 0.01598
1859.20196 0.01617
1857.91620 0.01605
1856.63045 0.01578
1855.34469 0.01558
1854.05894 0.01556
1852.77318 0.01560
1851.48743 0.01552
1850.20167 0.01536
1848.91592 0.01537
1847.63016 0.01577
1846.34441 0.01642
1845.05865 0.01693
1843.77290 0.01698
1842.48714 0.01657
1841.20139 0.01598
1839.91563 0.01550
1838.62988 0.01527
1837.34412 0.01527
1836.05836 0.01534
1834.77261 0.01539
1833.48685 0.01550
1832.20110 0.01582
1830.91534 0.01632
1829.62959 0.01674
1828.34383 0.01684
1827.05808 0.01662
1825.77232 0.01625
1824.48657 0.01596
1823.20081 0.01586
1821.91506 0.01603
1820.62930 0.01643
1819.34355 0.01688
1818.05779 0.01713
1816.77204 0.01698
1815.48628 0.01649
1814.20053 0.01594
1812.91477 0.01565
1811.62902 0.01568
1810.34326 0.01584
1809.05751 0.01589
1807.77175 0.01579
1806.48600 0.01566
1805.20024 0.01563
1803.91449 0.01573
1802.62873 0.01586
1801.34298 0.01579
1800.05722 0.01543
1798.77147 0.01493
1797.48571 0.01470
1796.19995 0.01506
1794.91420 0.01589
1793.62844 0.01670
1792.34269 0.01695
1791.05693 0.01647
1789.77118 0.01562
1788.48542 0.01497
1787.19967 0.01487
1785.91391 0.01521
1784.62816 0.01568
1783.34240 0.01596
1782.05665 0.01590
1780.77089 0.01554
1779.48514 0.01499
1778.19938 0.01444
1776.91363 0.01418
1775.62787 0.01442
1774.34212 0.01513
1773.05636 0.01593
1771.77061 0.01634
1770.48485 0.01616
1769.19910 0.01556
1767.91334 0.01492
1766.62759 0.01450
1765.34183 0.01443
1764.05608 0.01464
1762.77032 0.01491
1761.48457 0.01504
1760.19881 0.01494
1758.91306 0.01466
1757.62730 0.01431
1756.34155 0.01409
1755.05579 0.01419
1753.77003 0.01467
1752.48428 0.01534
1751.19852 0.01578
1749.91277 0.01568
1748.62701 0.01505
1747.34126 0.01423
1746.05550 0.01362
1744.76975 0.01339
1743.48399 0.01339
1742.19824 0.01335
1740.91248 0.01312
1739.62673 0.01288
1738.34097 0.01306
1737.05522 0.01399
1735.76946 0.01545
1734.48371 0.01671
1733.19795 0.01705
1731.91220 0.01637
1730.62644 0.01518
1729.34069 0.01423
1728.05493 0.01389
1726.76918 0.01397
1725.48342 0.01408
1724.19767 0.01406
1722.91191 0.01412
1721.62616 0.01465
1720.34040 0.01580
1719.05465 0.01726
1717.76889 0.01836
1716.48314 0.01852
1715.19738 0.01778
1713.91162 0.01671
1712.62587 0.01590
1711.34011 0.01571
1710.05436 0.01611
1708.76860 0.01674
1707.48285 0.01730
1706.19709 0.01773
1704.91134 0.01828
1703.62558 0.01925
1702.33983 0.02070
1701.05407 0.02234
1699.76832 0.02379
1698.48256 0.02484
1697.19681 0.02547
1695.91105 0.02567
1694.62530 0.02540
1693.33954 0.02480
1692.05379 0.02430
1690.76803 0.02446
1689.48228 0.02567
1688.19652 0.02795
1686.91077 0.03082
1685.62501 0.03349
1684.33926 0.03496
1683.05350 0.03486
1681.76775 0.03385
1680.48199 0.03314
1679.19624 0.03354
1677.91048 0.03501
1676.62473 0.03689
1675.33897 0.03849
1674.05322 0.03958
1672.76746 0.04040
1671.48170 0.04127
1670.19595 0.04223
1668.91019 0.04310
1667.62444 0.04377
1666.33868 0.04438
1665.05293 0.04513
1663.76717 0.04596
1662.48142 0.04649
1661.19566 0.04644
1659.90991 0.04600
1658.62415 0.04592
1657.33840 0.04707
1656.05264 0.04965
1654.76689 0.05267
1653.48113 0.05457
1652.19538 0.05448
1650.90962 0.05296
1649.62387 0.05140
1648.33811 0.05097
1647.05236 0.05164
1645.76660 0.05242
1644.48085 0.05247
1643.19509 0.05182
1641.90934 0.05114
1640.62358 0.05107
1639.33783 0.05186
1638.05207 0.05316
1636.76632 0.05419
1635.48056 0.05418
1634.19481 0.05296
1632.90905 0.05105
1631.62329 0.04926
1630.33754 0.04817
1629.05178 0.04783
1627.76603 0.04783
1626.48027 0.04771
1625.19452 0.04721
1623.90876 0.04628
1622.62301 0.04512
1621.33725 0.04412
1620.05150 0.04368
1618.76574 0.04378
1617.47999 0.04391
1616.19423 0.04346
1614.90848 0.04221
1613.62272 0.04052
1612.33697 0.03906
1611.05121 0.03823
1609.76546 0.03794
1608.47970 0.03785
1607.19395 0.03767
1605.90819 0.03734
1604.62244 0.03696
1603.33668 0.03665
1602.05093 0.03646
1600.76517 0.03635
1599.47942 0.03628
1598.19366 0.03621
1596.90791 0.03612
1595.62215 0.03604
1594.33640 0.03599
1593.05064 0.03601
1591.76488 0.03611
1590.47913 0.03626
1589.19337 0.03643
1587.90762 0.03657
1586.62186 0.03666
1585.33611 0.03665
1584.05035 0.03654
1582.76460 0.03646
1581.47884 0.03671
1580.19309 0.03754
1578.90733 0.03890
1577.62158 0.04035
1576.33582 0.04123
1575.05007 0.04124
1573.76431 0.04076
1572.47856 0.04050
1571.19280 0.04083
1569.90705 0.04146
1568.62129 0.04180
1567.33554 0.04150
1566.04978 0.04084
1564.76403 0.04060
1563.47827 0.04152
1562.19252 0.04368
1560.90676 0.04636
1559.62101 0.04847
1558.33525 0.04911
1557.04950 0.04827
1555.76374 0.04685
1554.47799 0.04582
1553.19223 0.04557
1551.90648 0.04587
1550.62072 0.04629
1549.33496 0.04655
1548.04921 0.04661
1546.76345 0.04668
1545.47770 0.04707
1544.19194 0.04796
1542.90619 0.04923
1541.62043 0.05044
1540.33468 0.05090
1539.04892 0.05022
1537.76317 0.04875
1536.47741 0.04736
1535.19166 0.04671
1533.90590 0.04678
1532.62015 0.04706
1531.33439 0.04713
1530.04864 0.04696
1528.76288 0.04680
1527.47713 0.04690
1526.19137 0.04732
1524.90562 0.04800
1523.61986 0.04882
1522.33411 0.04949
1521.04835 0.04970
1519.76260 0.04938
1518.47684 0.04874
1517.19109 0.04814
1515.90533 0.04774
1514.61958 0.04749
1513.33382 0.04739
1512.04807 0.04769
1510.76231 0.04875
1509.47655 0.05056
1508.19080 0.05253
1506.90504 0.05369
1505.61929 0.05349
1504.33353 0.05216
1503.04778 0.05067
1501.76202 0.05003
1500.47627 0.05053
1499.19051 0.05172
1497.90476 0.05283
1496.61900 0.05333
1495.33325 0.05311
1494.04749 0.05257
1492.76174 0.05228
1491.47598 0.05254
1490.19023 0.05315
1488.90447 0.05370
1487.61872 0.05393
1486.33296 0.05388
1485.04721 0.05382
1483.76145 0.05391
1482.47570 0.05414
1481.18994 0.05442
1479.90419 0.05476
1478.61843 0.05532
1477.33268 0.05630
1476.04692 0.05767
1474.76117 0.05910
1473.47541 0.06010
1472.18966 0.06039
1470.90390 0.06012
1469.61814 0.05971
1468.33239 0.05962
1467.04663 0.05998
1465.76088 0.06049
1464.47512 0.06079
1463.18937 0.06092
1461.90361 0.06132
1460.61786 0.06247
1459.33210 0.06437
1458.04635 0.06631
1456.76059 0.06737
1455.47484 0.06722
1454.18908 0.06638
1452.90333 0.06571
1451.61757 0.06568
1450.33182 0.06625
1449.04606 0.06701
1447.76031 0.06755
1446.47455 0.06767
1445.18880 0.06738
1443.90304 0.06687
1442.61729 0.06640
1441.33153 0.06625
1440.04578 0.06658
1438.76002 0.06722
1437.47427 0.06774
1436.18851 0.06779
1434.90276 0.06738
1433.61700 0.06682
1432.33125 0.06652
1431.04549 0.06663
1429.75974 0.06701
1428.47398 0.06748
1427.18822 0.06794
1425.90247 0.06846
1424.61671 0.06920
1423.33096 0.07027
1422.04520 0.07163
1420.75945 0.07303
1419.47369 0.07407
1418.18794 0.07455
1416.90218 0.07456
1415.61643 0.07442
1414.33067 0.07444
1413.04492 0.07468
1411.75916 0.07499
1410.47341 0.07522
1409.18765 0.07533
1407.90190 0.07530
1406.61614 0.07507
1405.33039 0.07461
1404.04463 0.07396
1402.75888 0.07322
1401.47312 0.07248
1400.18737 0.07175
1398.90161 0.07098
1397.61586 0.07008
1396.33010 0.06901
1395.04435 0.06770
1393.75859 0.06622
1392.47284 0.06473
1391.18708 0.06343
1389.90133 0.06241
1388.61557 0.06156
1387.32981 0.06062
1386.04406 0.05944
1384.75830 0.05805
1383.47255 0.05664
1382.18679 0.05534
1380.90104 0.05417
1379.61528 0.05309
1378.32953 0.05205
1377.04377 0.05103
1375.75802 0.04998
1374.47226 0.04889
1373.18651 0.04771
1371.90075 0.04645
1370.61500 0.04514
1369.32924 0.04385
1368.04349 0.04265
1366.75773 0.04162
1365.47198 0.04076
1364.18622 0.04001
1362.90047 0.03926
1361.61471 0.03844
1360.32896 0.03753
1359.04320 0.03660
1357.75745 0.03574
1356.47169 0.03503
1355.18594 0.03445
1353.90018 0.03399
1352.61443 0.03361
1351.32867 0.03326
1350.04292 0.03294
1348.75716 0.03261
1347.47141 0.03225
1346.18565 0.03188
1344.89989 0.03156
1343.61414 0.03130
1342.32838 0.03111
1341.04263 0.03093
1339.75687 0.03069
1338.47112 0.03038
1337.18536 0.03001
1335.89961 0.02960
1334.61385 0.02923
1333.32810 0.02893
1332.04234 0.02868
1330.75659 0.02844
1329.47083 0.02818
1328.18508 0.02791
1326.89932 0.02768
1325.61357 0.02749
1324.32781 0.02730
1323.04206 0.02711
1321.75630 0.02691
1320.47055 0.02670
1319.18479 0.02647
1317.89904 0.02622
1316.61328 0.02597
1315.32753 0.02572
1314.04177 0.02547
1312.75602 0.02523
1311.47026 0.02501
1310.18451 0.02480
1308.89875 0.02461
1307.61300 0.02443
1306.32724 0.02427
1305.04148 0.02413
1303.75573 0.02399
1302.46997 0.02384
1301.18422 0.02369
1299.89846 0.02352
1298.61271 0.02332
1297.32695 0.02311
1296.04120 0.02291
1294.75544 0.02277
1293.46969 0.02270
1292.18393 0.02264
1290.89818 0.02256
1289.61242 0.02245
1288.32667 0.02231
1287.04091 0.02220
1285.75516 0.02216
1284.46940 0.02217
1283.18365 0.02218
1281.89789 0.02216
1280.61214 0.02209
1279.32638 0.02202
1278.04063 0.02196
1276.75487 0.02192
1275.46912 0.02187
1274.18336 0.02179
1272.89761 0.02168
1271.61185 0.02157
1270.32610 0.02145
1269.04034 0.02132
1267.75459 0.02117
1266.46883 0.02101
1265.18307 0.02088
1263.89732 0.02083
1262.61156 0.02086
1261.32581 0.02091
1260.04005 0.02090
1258.75430 0.02083
1257.46854 0.02073
1256.18279 0.02067
1254.89703 0.02067
1253.61128 0.02071
1252.32552 0.02075
1251.03977 0.02080
1249.75401 0.02084
1248.46826 0.02085
1247.18250 0.02082
1245.89675 0.02075
1244.61099 0.02066
1243.32524 0.02061
1242.03948 0.02062
1240.75373 0.02066
1239.46797 0.02066
1238.18222 0.02060
1236.89646 0.02045
1235.61071 0.02026
1234.32495 0.02004
1233.03920 0.01980
1231.75344 0.01955
1230.46769 0.01927
1229.18193 0.01899
1227.89618 0.01874
1226.61042 0.01853
1225.32467 0.01834
1224.03891 0.01813
1222.75315 0.01791
1221.46740 0.01770
1220.18164 0.01752
1218.89589 0.01737
1217.61013 0.01724
1216.32438 0.01709
1215.03862 0.01692
1213.75287 0.01677
1212.46711 0.01664
1211.18136 0.01654
1209.89560 0.01648
1208.60985 0.01646
1207.32409 0.01648
1206.03834 0.01650
1204.75258 0.01649
1203.46683 0.01649
1202.18107 0.01659
1200.89532 0.01665
1199.60956 0.01621
1198.32381 0.01614
1197.03805 0.01602
1195.75230 0.01584
1194.46654 0.01561
1193.18079 0.01539
1191.89503 0.01522
1190.60928 0.01514
1189.32352 0.01508
1188.03777 0.01497
1186.75201 0.01479
1185.46626 0.01457
1184.18050 0.01439
1182.89474 0.01429
1181.60899 0.01427
1180.32323 0.01425
1179.03748 0.01420
1177.75172 0.01412
1176.46597 0.01405
1175.18021 0.01405
1173.89446 0.01411
1172.60870 0.01416
1171.32295 0.01422
1170.03719 0.01430
1168.75144 0.01443
1167.46568 0.01456
1166.17993 0.01466
1164.89417 0.01471
1163.60842 0.01473
1162.32266 0.01475
1161.03691 0.01478
1159.75115 0.01482
1158.46540 0.01490
1157.17964 0.01505
1155.89389 0.01526
1154.60813 0.01550
1153.32238 0.01572
1152.03662 0.01593
1150.75087 0.01616
1149.46511 0.01641
1148.17936 0.01666
1146.89360 0.01693
1145.60785 0.01723
1144.32209 0.01761
1143.03633 0.01806
1141.75058 0.01858
1140.46482 0.01914
1139.17907 0.01978
1137.89331 0.02054
1136.60756 0.02140
1135.32180 0.02234
1134.03605 0.02333
1132.75029 0.02443
1131.46454 0.02569
1130.17878 0.02710
1128.89303 0.02860
1127.60727 0.03022
1126.32152 0.03201
1125.03576 0.03396
1123.75001 0.03603
1122.46425 0.03814
1121.17850 0.04028
1119.89274 0.04247
1118.60699 0.04473
1117.32123 0.04704
1116.03548 0.04940
1114.74972 0.05178
1113.46397 0.05414
1112.17821 0.05647
1110.89246 0.05873
1109.60670 0.06095
1108.32095 0.06313
1107.03519 0.06529
1105.74944 0.06737
1104.46368 0.06937
1103.17793 0.07128
1101.89217 0.07314
1100.60641 0.07495
1099.32066 0.07671
1098.03490 0.07837
1096.74915 0.07991
1095.46339 0.08135
1094.17764 0.08271
1092.89188 0.08402
1091.60613 0.08528
1090.32037 0.08646
1089.03462 0.08753
1087.74886 0.08852
1086.46311 0.08953
1085.17735 0.09066
1083.89160 0.09194
1082.60584 0.09332
1081.32009 0.09476
1080.03433 0.09626
1078.74858 0.09785
1077.46282 0.09953
1076.17707 0.10130
1074.89131 0.10317
1073.60556 0.10513
1072.31980 0.10717
1071.03405 0.10929
1069.74829 0.11145
1068.46254 0.11361
1067.17678 0.11574
1065.89103 0.11783
1064.60527 0.11994
1063.31952 0.12212
1062.03376 0.12435
1060.74800 0.12659
1059.46225 0.12878
1058.17649 0.13092
1056.89074 0.13304
1055.60498 0.13516
1054.31923 0.13728
1053.03347 0.13941
1051.74772 0.14153
1050.46196 0.14369
1049.17621 0.14589
1047.89045 0.14814
1046.60470 0.15042
1045.31894 0.15273
1044.03319 0.15505
1042.74743 0.15734
1041.46168 0.15958
1040.17592 0.16180
1038.89017 0.16405
1037.60441 0.16637
1036.31866 0.16875
1035.03290 0.17111
1033.74715 0.17335
1032.46139 0.17535
1031.17564 0.17706
1029.88988 0.17850
1028.60413 0.17973
1027.31837 0.18078
1026.03262 0.18165
1024.74686 0.18230
1023.46111 0.18272
1022.17535 0.18292
1020.88960 0.18288
1019.60384 0.18255
1018.31808 0.18191
1017.03233 0.18103
1015.74657 0.17996
1014.46082 0.17871
1013.17506 0.17721
1011.88931 0.17542
1010.60355 0.17337
1009.31780 0.17111
1008.03204 0.16867
1006.74629 0.16606
1005.46053 0.16328
1004.17478 0.16034
1002.88902 0.15722
1001.60327 0.15391
1000.31751 0.15041
999.03176 0.14679
997.74600 0.14308
996.46025 0.13932
995.17449 0.13549
993.88874 0.13158
992.60298 0.12764
991.31723 0.12373
990.03147 0.11991
988.74572 0.11619
987.45996 0.11259
986.17421 0.10906
984.88845 0.10560
983.60270 0.10221
982.31694 0.09896
981.03119 0.09591
979.74543 0.09311
978.45967 0.09053
977.17392 0.08807
975.88816 0.08570
974.60241 0.08351
973.31665 0.08162
972.03090 0.08010
970.74514 0.07895
969.45939 0.07819
968.17363 0.07779
966.88788 0.07774
965.60212 0.07793
964.31637 0.07828
963.03061 0.07867
961.74486 0.07896
960.45910 0.07896
959.17335 0.07853
957.88759 0.07762
956.60184 0.07636
955.31608 0.07487
954.03033 0.07330
952.74457 0.07171
951.45882 0.07019
950.17306 0.06871
948.88731 0.06722
947.60155 0.06568
946.31580 0.06414
945.03004 0.06265
943.74429 0.06124
942.45853 0.05989
941.17278 0.05861
939.88702 0.05741
938.60126 0.05630
937.31551 0.05527
936.02975 0.05431
934.74400 0.05340
933.45824 0.05252
932.17249 0.05160
930.88673 0.05063
929.60098 0.04966
928.31522 0.04878
927.02947 0.04806
925.74371 0.04751
924.45796 0.04703
923.17220 0.04654
921.88645 0.04600
920.60069 0.04545
919.31494 0.04492
918.02918 0.04440
916.74343 0.04388
915.45767 0.04337
914.17192 0.04289
912.88616 0.04243
911.60041 0.04197
910.31465 0.04150
909.02890 0.04108
907.74314 0.04076
906.45739 0.04053
905.17163 0.04030
903.88588 0.04001
902.60012 0.03965
901.31437 0.03926
900.02861 0.03886
898.74286 0.03851
897.45710 0.03824
896.17134 0.03802
894.88559 0.03777
893.59983 0.03747
892.31408 0.03716
891.02832 0.03697
889.74257 0.03701
888.45681 0.03728
887.17106 0.03771
885.88530 0.03833
884.59955 0.03928
883.31379 0.04069
882.02804 0.04241
880.74228 0.04410
879.45653 0.04544
878.17077 0.04635
876.88502 0.04703
875.59926 0.04770
874.31351 0.04845
873.02775 0.04914
871.74200 0.04950
870.45624 0.04938
869.17049 0.04881
867.88473 0.04798
866.59898 0.04707
865.31322 0.04614
864.02747 0.04518
862.74171 0.04414
861.45596 0.04307
860.17020 0.04207
858.88445 0.04118
857.59869 0.04045
856.31293 0.03984
855.02718 0.03930
853.74142 0.03873
852.45567 0.03813
851.16991 0.03752
849.88416 0.03701
848.59840 0.03664
847.31265 0.03639
846.02689 0.03620
844.74114 0.03599
843.45538 0.03576
842.16963 0.03548
840.88387 0.03517
839.59812 0.03481
838.31236 0.03443
837.02661 0.03407
835.74085 0.03376
834.45510 0.03353
833.16934 0.03339
831.88359 0.03328
830.59783 0.03320
829.31208 0.03313
828.02632 0.03305
826.74057 0.03295
825.45481 0.03287
824.16906 0.03284
822.88330 0.03288
821.59755 0.03293
820.31179 0.03295
819.02604 0.03293
817.74028 0.03287
816.45452 0.03275
815.16877 0.03258
813.88301 0.03242
812.59726 0.03233
811.31150 0.03231
810.02575 0.03232
808.73999 0.03232
807.45424 0.03227
806.16848 0.03218
804.88273 0.03207
803.59697 0.03197
802.31122 0.03191
801.02546 0.03182
799.73971 0.03170
798.45395 0.03159
797.16820 0.03158
795.88244 0.03164
794.59669 0.03168
793.31093 0.03167
792.02518 0.03166
790.73942 0.03170
789.45367 0.03174
788.16791 0.03172
786.88216 0.03163
785.59640 0.03151
784.31065 0.03144
783.02489 0.03142
781.73914 0.03141
780.45338 0.03141
779.16763 0.03145
777.88187 0.03156
776.59612 0.03168
775.31036 0.03174
774.02460 0.03175
772.73885 0.03175
771.45309 0.03176
770.16734 0.03175
768.88158 0.03173
767.59583 0.03168
766.31007 0.03155
765.02432 0.03134
763.73856 0.03119
762.45281 0.03120
761.16705 0.03133
759.88130 0.03144
758.59554 0.03144
757.30979 0.03141
756.02403 0.03145
754.73828 0.03155
753.45252 0.03167
752.16677 0.03178
750.88101 0.03183
749.59526 0.03178
748.30950 0.03162
747.02375 0.03143
745.73799 0.03127
744.45224 0.03116
743.16648 0.03111
741.88073 0.03121
740.59497 0.03150
739.30922 0.03187
738.02346 0.03213
736.73771 0.03221
735.45195 0.03215
734.16619 0.03203
732.88044 0.03191
731.59468 0.03185
730.30893 0.03191
729.02317 0.03208
727.73742 0.03225
726.45166 0.03235
725.16591 0.03235
723.88015 0.03176
722.59440 0.03202
721.30864 0.03224
720.02289 0.03229
718.73713 0.03238
717.45138 0.03251
716.16562 0.03264
714.87987 0.03272
713.59411 0.03273
712.30836 0.03268
711.02260 0.03258
709.73685 0.03242
708.45109 0.03224
707.16534 0.03210
705.87958 0.03203
704.59383 0.03204
703.30807 0.03206
702.02232 0.03204
700.73656 0.03197
699.45081 0.03188
698.16505 0.03181
696.87930 0.03179
695.59354 0.03180
694.30779 0.03182
693.02203 0.03185
691.73627 0.03190
690.45052 0.03195
689.16476 0.03199
687.87901 0.03201
686.59325 0.03199
685.30750 0.03194
684.02174 0.03187
682.73599 0.03177
681.45023 0.03166
680.16448 0.03154
678.87872 0.03145
677.59297 0.03138
676.30721 0.03137
675.02146 0.03141
673.73570 0.03149
672.44995 0.03155
671.16419 0.03154
669.87844 0.03143
668.59268 0.03127
667.30693 0.03114
666.02117 0.03100
664.73542 0.03085
663.44966 0.03072
662.16391 0.03062
660.87815 0.03059
659.59240 0.03058
658.30664 0.03056
657.02089 0.03050
655.73513 0.03045
654.44938 0.03042
653.16362 0.03042
651.87786 0.03041
650.59211 0.03036
649.30635 0.03032
648.02060 0.03032
646.73484 0.03033
645.44909 0.03032
644.16333 0.03027
642.87758 0.03022
641.59182 0.03020
640.30607 0.03026
639.02031 0.03040
637.73456 0.03059
636.44880 0.03079
635.16305 0.03088
633.87729 0.03075
632.59154 0.03057
631.30578 0.03191
630.02003 0.03619
628.73427 0.03752
627.44852 0.03229
626.16276 0.03118
624.87701 0.03322
623.59125 0.03568
622.30550 0.03797
621.01974 0.03986
619.73399 0.04111
618.44823 0.04181
617.16248 0.04225
615.87672 0.04277
614.59097 0.04384
613.30521 0.04597
612.01945 0.04933
610.73370 0.05345
609.44794 0.05774
608.16219 0.06209
606.87643 0.06666
605.59068 0.07119
604.30492 0.07494
603.01917 0.07724
601.73341 0.07790
600.44766 0.07728
599.16190 0.07591
597.87615 0.07416
596.59039 0.07232
595.30464 0.07060
594.01888 0.06914
592.73313 0.06792
591.44737 0.06688
590.16162 0.06598
588.87586 0.06538
587.59011 0.06522
586.30435 0.06558
585.01860 0.06639
583.73284 0.06747
582.44709 0.06869
581.16133 0.06998
579.87558 0.07140
578.58982 0.07297
577.30407 0.07471
576.01831 0.07657
574.73256 0.07850
573.44680 0.08048
572.16105 0.08253
570.87529 0.08474
569.58953 0.08718
568.30378 0.08982
567.01802 0.09254
565.73227 0.09522
564.44651 0.09772
563.16076 0.09979
561.87500 0.10110
560.58925 0.10133
559.30349 0.10031
558.01774 0.09811
556.73198 0.09496
555.44623 0.09130
554.16047 0.08754
552.87472 0.08391
551.58896 0.08049
550.30321 0.07722
549.01745 0.07411
547.73170 0.07125
546.44594 0.06877
545.16019 0.06671
543.87443 0.06491
542.58868 0.06319
541.30292 0.06143
540.01717 0.05972
538.73141 0.05812
537.44566 0.05660
536.15990 0.05510
534.87415 0.05359
533.58839 0.05213
532.30264 0.05080
531.01688 0.04963
529.73112 0.04861
528.44537 0.04769
527.15961 0.04681
525.87386 0.04595
524.58810 0.04511
523.30235 0.04435
522.01659 0.04366
520.73084 0.04302
519.44508 0.04234
518.15933 0.04159
516.87357 0.04082
515.58782 0.04008
514.30206 0.03942
513.01631 0.03883
511.73055 0.03831
510.44480 0.03784
509.15904 0.03741
507.87329 0.03700
506.58753 0.03658
505.30178 0.03613
504.01602 0.03562
502.73027 0.03506
501.44451 0.03446
500.15876 0.03390
498.87300 0.03345
497.58725 0.03315
496.30149 0.03296
495.01574 0.03280
493.72998 0.03262
492.44423 0.03243
491.15847 0.03225
489.87271 0.03206
488.58696 0.03181
487.30120 0.03153
486.01545 0.03125
484.72969 0.03102
483.44394 0.03084
482.15818 0.03070
480.87243 0.03060
479.58667 0.03052
478.30092 0.03048
477.01516 0.03049
475.72941 0.03058
474.44365 0.03071
473.15790 0.03082
471.87214 0.03085
470.58639 0.03079
469.30063 0.03065
468.01488 0.03042
466.72912 0.03012
465.44337 0.02978
464.15761 0.02944
462.87186 0.02911
461.58610 0.02876
460.30035 0.02842
459.01459 0.02809
457.72884 0.02781
456.44308 0.02755
455.15733 0.02732
453.87157 0.02710
452.58582 0.02687
451.30006 0.02662
450.01431 0.02636
448.72855 0.02612
447.44279 0.02592
446.15704 0.02578
444.87128 0.02570
443.58553 0.02560
442.29977 0.02545
441.01402 0.02524
439.72826 0.02500
438.44251 0.02482
437.15675 0.02471
435.87100 0.02463
434.58524 0.02453
433.29949 0.02438
432.01373 0.02423
430.72798 0.02410
429.44222 0.02400
428.15647 0.02391
426.87071 0.02380
425.58496 0.02367
424.29920 0.02354
423.01345 0.02346
421.72769 0.02344
420.44194 0.02346
419.15618 0.02342
417.87043 0.02325
416.58467 0.02296
415.29892 0.02265
414.01316 0.02244
412.72741 0.02236
411.44165 0.02239
410.15590 0.02244
408.87014 0.02246
407.58438 0.02241
406.29863 0.02231
405.01287 0.02219
403.72712 0.02211
402.44136 0.02214
401.15561 0.02226
399.86985 0.02245
