3998.69854 0.02947
3997.41278 0.03353
3996.12703 0.03505
3994.84127 0.03284
3993.55552 0.02783
3992.26976 0.02211
3990.98401 0.01770
3989.69825 0.01601
3988.41250 0.01758
3987.12674 0.02156
3985.84099 0.02582
3984.55523 0.02831
3983.26948 0.02858
3981.98372 0.02800
3980.69797 0.02836
3979.41221 0.03017
3978.12646 0.03228
3976.84070 0.03298
3975.55495 0.03136
3974.26919 0.02809
3972.98344 0.02527
3971.69768 0.02522
3970.41193 0.02867
3969.12617 0.03363
3967.84042 0.03665
3966.55466 0.03564
3965.26891 0.03147
3963.98315 0.02694
3962.69740 0.02460
3961.41164 0.02521
3960.12589 0.02765
3958.84013 0.02999
3957.55437 0.03085
3956.26862 0.03005
3954.98286 0.02799
3953.69711 0.02509
3952.41135 0.02205
3951.12560 0.01997
3949.83984 0.01962
3948.55409 0.02074
3947.26833 0.02238
3945.98258 0.02373
3944.69682 0.02441
3943.41107 0.02426
3942.12531 0.02344
3940.83956 0.02255
3939.55380 0.02233
3938.26805 0.02319
3936.98229 0.02491
3935.69654 0.02688
3934.41078 0.02836
3933.12503 0.02904
3931.83927 0.02919
3930.55352 0.02933
3929.26776 0.02947
3927.98201 0.02932
3926.69625 0.02913
3925.41050 0.02946
3924.12474 0.03017
3922.83899 0.03028
3921.55323 0.02954
3920.26748 0.02905
3918.98172 0.03001
3917.69596 0.03222
3916.41021 0.03436
3915.12445 0.03534
3913.83870 0.03507
3912.55294 0.03421
3911.26719 0.03346
3909.98143 0.03288
3908.69568 0.03204
3907.40992 0.03096
3906.12417 0.03081
3904.83841 0.03290
3903.55266 0.03714
3902.26690 0.04196
3900.98115 0.04572
3899.69539 0.04786
3898.40964 0.04857
3897.12388 0.04795
3895.83813 0.04614
3894.55237 0.04372
3893.26662 0.04144
3891.98086 0.03972
3890.69511 0.03904
3889.40935 0.04029
3888.12360 0.04389
3886.83784 0.04875
3885.55209 0.05281
3884.26633 0.05482
3882.98058 0.05488
3881.69482 0.05344
3880.40907 0.05056
3879.12331 0.04622
3877.83755 0.04078
3876.55180 0.03501
3875.26604 0.03013
3873.98029 0.02731
3872.69453 0.02656
3871.40878 0.02674
3870.12302 0.02729
3868.83727 0.02923
3867.55151 0.03377
3866.26576 0.04007
3864.98000 0.04541
3863.69425 0.04741
3862.40849 0.04578
3861.12274 0.04213
3859.83698 0.03871
3858.55123 0.03699
3857.26547 0.03702
3855.97972 0.03780
3854.69396 0.03830
3853.40821 0.03811
3852.12245 0.03722
3850.83670 0.03573
3849.55094 0.03385
3848.26519 0.03173
3846.97943 0.02954
3845.69368 0.02801
3844.40792 0.02863
3843.12217 0.03252
3841.83641 0.03861
3840.55066 0.04357
3839.26490 0.04414
3837.97915 0.03972
3836.69339 0.03277
3835.40763 0.02674
3834.12188 0.02409
3832.83612 0.02570
3831.55037 0.03096
3830.26461 0.03792
3828.97886 0.04396
3827.69310 0.04741
3826.40735 0.04864
3825.12159 0.04920
3823.83584 0.04978
3822.55008 0.04955
3821.26433 0.04777
3819.97857 0.04515
3818.69282 0.04311
3817.40706 0.04203
3816.12131 0.04072
3814.83555 0.03764
3813.54980 0.03279
3812.26404 0.02841
3810.97829 0.02739
3809.69253 0.03063
3808.40678 0.03612
3807.12102 0.04088
3805.83527 0.04332
3804.54951 0.04384
3803.26376 0.04373
3801.97800 0.04430
3800.69225 0.04651
3799.40649 0.05030
3798.12074 0.05421
3796.83498 0.05613
3795.54922 0.05468
3794.26347 0.05034
3792.97771 0.04541
3791.69196 0.04246
3790.40620 0.04263
3789.12045 0.04517
3787.83469 0.04837
3786.54894 0.05056
3785.26318 0.05060
3783.97743 0.04860
3782.69167 0.04628
3781.40592 0.04571
3780.12016 0.04714
3778.83441 0.04850
3777.54865 0.04787
3776.26290 0.04605
3774.97714 0.04583
3773.69139 0.04851
3772.40563 0.05195
3771.11988 0.05299
3769.83412 0.05118
3768.54837 0.04905
3767.26261 0.04877
3765.97686 0.04999
3764.69110 0.05102
3763.40535 0.05078
3762.11959 0.04909
3760.83384 0.04632
3759.54808 0.04370
3758.26233 0.04301
3756.97657 0.04492
3755.69081 0.04788
3754.40506 0.04958
3753.11930 0.04966
3751.83355 0.04998
3750.54779 0.05208
3749.26204 0.05523
3747.97628 0.05770
3746.69053 0.05914
3745.40477 0.06032
3744.11902 0.06098
3742.83326 0.05980
3741.54751 0.05720
3740.26175 0.05598
3738.97600 0.05768
3737.69024 0.06005
3736.40449 0.05944
3735.11873 0.05546
3733.83298 0.05150
3732.54722 0.05112
3731.26147 0.05457
3729.97571 0.05880
3728.68996 0.06056
3727.40420 0.05943
3726.11845 0.05793
3724.83269 0.05866
3723.54694 0.06166
3722.26118 0.06457
3720.97543 0.06516
3719.68967 0.06330
3718.40392 0.06060
3717.11816 0.05845
3715.83241 0.05683
3714.54665 0.05484
3713.26089 0.05224
3711.97514 0.05003
3710.68938 0.04914
3709.40363 0.04906
3708.11787 0.04853
3706.83212 0.04733
3705.54636 0.04630
3704.26061 0.04578
3702.97485 0.04515
3701.68910 0.04434
3700.40334 0.04485
3699.11759 0.04820
3697.83183 0.05371
3696.54608 0.05894
3695.26032 0.06240
3693.97457 0.06502
3692.68881 0.06832
3691.40306 0.07176
3690.11730 0.07269
3688.83155 0.06892
3687.54579 0.06134
3686.26004 0.05338
3684.97428 0.04794
3683.68853 0.04520
3682.40277 0.04399
3681.11702 0.04436
3679.83126 0.04715
3678.54551 0.05131
3677.25975 0.05406
3675.97400 0.05473
3674.68824 0.05636
3673.40248 0.06164
3672.11673 0.06867
3670.83097 0.07285
3669.54522 0.07236
3668.25946 0.06961
3666.97371 0.06721
3665.68795 0.06490
3664.40220 0.06141
3663.11644 0.05748
3661.83069 0.05488
3660.54493 0.05349
3659.25918 0.05171
3657.97342 0.04971
3656.68767 0.05017
3655.40191 0.05527
3654.11616 0.06377
3652.83040 0.07187
3651.54465 0.07621
3650.25889 0.07614
3648.97314 0.07368
3647.68738 0.07152
3646.40163 0.07086
3645.11587 0.07108
3643.83012 0.07110
3642.54436 0.07049
3641.25861 0.06996
3639.97285 0.07100
3638.68710 0.07447
3637.40134 0.07892
3636.11559 0.08142
3634.82983 0.08061
3633.54408 0.07843
3632.25832 0.07772
3630.97256 0.07917
3629.68681 0.08137
3628.40105 0.08331
3627.11530 0.08491
3625.82954 0.08521
3624.54379 0.08219
3623.25803 0.07584
3621.97228 0.07013
3620.68652 0.06997
3619.40077 0.07627
3618.11501 0.08519
3616.82926 0.09211
3615.54350 0.09526
3614.25775 0.09549
3612.97199 0.09392
3611.68624 0.09096
3610.40048 0.08738
3609.11473 0.08505
3607.82897 0.08534
3606.54322 0.08710
3605.25746 0.08765
3603.97171 0.08624
3602.68595 0.08498
3601.40020 0.08566
3600.11444 0.08714
3598.82869 0.08713
3597.54293 0.08566
3596.25718 0.08529
3594.97142 0.08829
3593.68567 0.09435
3592.39991 0.10109
3591.11415 0.10621
3589.82840 0.10940
3588.54264 0.11209
3587.25689 0.11564
3585.97113 0.12008
3584.68538 0.12470
3583.39962 0.12936
3582.11387 0.13419
3580.82811 0.13843
3579.54236 0.14025
3578.25660 0.13824
3576.97085 0.13289
3575.68509 0.12669
3574.39934 0.12312
3573.11358 0.12486
3571.82783 0.13182
3570.54207 0.14047
3569.25632 0.14590
3567.97056 0.14591
3566.68481 0.14276
3565.39905 0.14039
3564.11330 0.14011
3562.82754 0.14000
3561.54179 0.13823
3560.25603 0.13521
3558.97028 0.13218
3557.68452 0.12910
3556.39877 0.12557
3555.11301 0.12346
3553.82726 0.12628
3552.54150 0.13518
3551.25574 0.14659
3549.96999 0.15524
3548.68423 0.15887
3547.39848 0.15914
3546.11272 0.15865
3544.82697 0.15852
3543.54121 0.15893
3542.25546 0.16050
3540.96970 0.16405
3539.68395 0.16919
3538.39819 0.17423
3537.11244 0.17781
3535.82668 0.18030
3534.54093 0.18287
3533.25517 0.18522
3531.96942 0.18515
3530.68366 0.18118
3529.39791 0.17530
3528.11215 0.17180
3526.82640 0.17346
3525.54064 0.17963
3524.25489 0.18811
3522.96913 0.19703
3521.68338 0.20427
3520.39762 0.20756
3519.11187 0.20678
3517.82611 0.20474
3516.54036 0.20374
3515.25460 0.20270
3513.96885 0.19977
3512.68309 0.19667
3511.39734 0.19803
3510.11158 0.20616
3508.82582 0.21790
3507.54007 0.22713
3506.25431 0.23003
3504.96856 0.22764
3503.68280 0.22412
3502.39705 0.22346
3501.11129 0.22735
3499.82554 0.23485
3498.53978 0.24293
3497.25403 0.24821
3495.96827 0.24946
3494.68252 0.24833
3493.39676 0.24743
3492.11101 0.24809
3490.82525 0.25036
3489.53950 0.25397
3488.25374 0.25847
3486.96799 0.26283
3485.68223 0.26577
3484.39648 0.26642
3483.11072 0.26477
3481.82497 0.26193
3480.53921 0.25992
3479.25346 0.26042
3477.96770 0.26372
3476.68195 0.26884
3475.39619 0.27437
3474.11044 0.27893
3472.82468 0.28207
3471.53893 0.28503
3470.25317 0.28952
3468.96741 0.29522
3467.68166 0.29926
3466.39590 0.29910
3465.11015 0.29523
3463.82439 0.29041
3462.53864 0.28703
3461.25288 0.28575
3459.96713 0.28606
3458.68137 0.28769
3457.39562 0.29128
3456.10986 0.29737
3454.82411 0.30423
3453.53835 0.30789
3452.25260 0.30556
3450.96684 0.29911
3449.68109 0.29335
3448.39533 0.29106
3447.10958 0.29101
3445.82382 0.29123
3444.53807 0.29202
3443.25231 0.29460
3441.96656 0.29829
3440.68080 0.30119
3439.39505 0.30304
3438.10929 0.30553
3436.82354 0.30955
3435.53778 0.31354
3434.25203 0.31542
3432.96627 0.31554
3431.68052 0.31704
3430.39476 0.32270
3429.10900 0.33116
3427.82325 0.33708
3426.53749 0.33643
3425.25174 0.33181
3423.96598 0.32994
3422.68023 0.33405
3421.39447 0.34075
3420.10872 0.34501
3418.82296 0.34589
3417.53721 0.34566
3416.25145 0.34534
3414.96570 0.34372
3413.67994 0.33985
3412.39419 0.33440
3411.10843 0.32875
3409.82268 0.32431
3408.53692 0.32264
3407.25117 0.32486
3405.96541 0.33045
3404.67966 0.33683
3403.39390 0.34048
3402.10815 0.33980
3400.82239 0.33842
3399.53664 0.33530
3398.25088 0.32958
3396.96513 0.32312
3395.67937 0.31858
3394.39362 0.31830
3393.10786 0.32287
3391.82211 0.32950
3390.53635 0.33288
3389.25060 0.32945
3387.96484 0.32112
3386.67908 0.31381
3385.39333 0.31178
3384.10757 0.31432
3382.82182 0.31816
3381.53606 0.32157
3380.25031 0.32500
3378.96455 0.32868
3377.67880 0.33172
3376.39304 0.33336
3375.10729 0.33370
3373.82153 0.33288
3372.53578 0.33061
3371.25002 0.32707
3369.96427 0.32343
3368.67851 0.32093
3367.39276 0.31980
3366.10700 0.31918
3364.82125 0.31805
3363.53549 0.31607
3362.24974 0.31388
3360.96398 0.31239
3359.67823 0.31179
3358.39247 0.31142
3357.10672 0.31058
3355.82096 0.30946
3354.53521 0.30893
3353.24945 0.30957
3351.96370 0.31104
3350.67794 0.31251
3349.39219 0.31353
3348.10643 0.31410
3346.82067 0.31381
3345.53492 0.31180
3344.24916 0.30791
3342.96341 0.30300
3341.67765 0.29799
3340.39190 0.29334
3339.10614 0.28997
3337.82039 0.28919
3336.53463 0.29091
3335.24888 0.29293
3333.96312 0.29311
3332.67737 0.29145
3331.39161 0.28940
3330.10586 0.28766
3328.82010 0.28574
3327.53435 0.28302
3326.24859 0.27941
3324.96284 0.27545
3323.67708 0.27238
3322.39133 0.27174
3321.10557 0.27365
3319.81982 0.27576
3318.53406 0.27507
3317.24831 0.27103
3315.96255 0.26599
3314.67680 0.26246
3313.39104 0.26101
3312.10529 0.26089
3310.81953 0.26136
3309.53378 0.26173
3308.24802 0.26136
3306.96227 0.26047
3305.67651 0.26020
3304.39075 0.26102
3303.10500 0.26181
3301.81924 0.26117
3300.53349 0.25905
3299.24773 0.25655
3297.96198 0.25468
3296.67622 0.25369
3295.39047 0.25323
3294.10471 0.25255
3292.81896 0.25073
3291.53320 0.24776
3290.24745 0.24536
3288.96169 0.24573
3287.67594 0.24909
3286.39018 0.25311
3285.10443 0.25543
3283.81867 0.25563
3282.53292 0.25415
3281.24716 0.25059
3279.96141 0.24470
3278.67565 0.23796
3277.38990 0.23277
3276.10414 0.23056
3274.81839 0.23146
3273.53263 0.23492
3272.24688 0.23951
3270.96112 0.24290
3269.67537 0.24312
3268.38961 0.23989
3267.10386 0.23465
3265.81810 0.22961
3264.53234 0.22664
3263.24659 0.22612
3261.96083 0.22666
3260.67508 0.22618
3259.38932 0.22362
3258.10357 0.21952
3256.81781 0.21523
3255.53206 0.21176
3254.24630 0.20941
3252.96055 0.20834
3251.67479 0.20886
3250.38904 0.21109
3249.10328 0.21426
3247.81753 0.21680
3246.53177 0.21719
3245.24602 0.21472
3243.96026 0.20988
3242.67451 0.20427
3241.38875 0.19991
3240.10300 0.19815
3238.81724 0.19895
3237.53149 0.20126
3236.24573 0.20370
3234.95998 0.20491
3233.67422 0.20381
3232.38847 0.20039
3231.10271 0.19626
3229.81696 0.19363
3228.53120 0.19336
3227.24545 0.19411
3225.95969 0.19371
3224.67393 0.19112
3223.38818 0.18722
3222.10242 0.18373
3220.81667 0.18174
3219.53091 0.18106
3218.24516 0.18091
3216.95940 0.18092
3215.67365 0.18142
3214.38789 0.18267
3213.10214 0.18416
3211.81638 0.18488
3210.53063 0.18421
3209.24487 0.18255
3207.95912 0.18094
3206.67336 0.17982
3205.38761 0.17831
3204.10185 0.17516
3202.81610 0.17062
3201.53034 0.16680
3200.24459 0.16572
3198.95883 0.16722
3197.67308 0.16928
3196.38732 0.16995
3195.10157 0.16874
3193.81581 0.16647
3192.53006 0.16421
3191.24430 0.16244
3189.95855 0.16081
3188.67279 0.15868
3187.38704 0.15600
3186.10128 0.15371
3184.81553 0.15308
3183.52977 0.15458
3182.24401 0.15745
3180.95826 0.16032
3179.67250 0.16197
3178.38675 0.16170
3177.10099 0.15948
3175.81524 0.15625
3174.52948 0.15352
3173.24373 0.15210
3171.95797 0.15122
3170.67222 0.14931
3169.38646 0.14573
3168.10071 0.14151
3166.81495 0.13843
3165.52920 0.13755
3164.24344 0.13856
3162.95769 0.14020
3161.67193 0.14140
3160.38618 0.14212
3159.10042 0.14309
3157.81467 0.14453
3156.52891 0.14528
3155.24316 0.14373
3153.95740 0.13986
3152.67165 0.13559
3151.38589 0.13298
3150.10014 0.13238
3148.81438 0.13261
3147.52863 0.13231
3146.24287 0.13092
3144.95712 0.12892
3143.67136 0.12739
3142.38560 0.12702
3141.09985 0.12740
3139.81409 0.12755
3138.52834 0.12712
3137.24258 0.12652
3135.95683 0.12595
3134.67107 0.12495
3133.38532 0.12323
3132.09956 0.12118
3130.81381 0.11949
3129.52805 0.11860
3128.24230 0.11873
3126.95654 0.11996
3125.67079 0.12189
3124.38503 0.12341
3123.09928 0.12335
3121.81352 0.12156
3120.52777 0.11905
3119.24201 0.11716
3117.95626 0.11647
3116.67050 0.11668
3115.38475 0.11729
3114.09899 0.11811
3112.81324 0.11911
3111.52748 0.12002
3110.24173 0.12007
3108.95597 0.11863
3107.67022 0.11592
3106.38446 0.11318
3105.09871 0.11176
3103.81295 0.11198
3102.52719 0.11301
3101.24144 0.11374
3099.95568 0.11353
3098.66993 0.11239
3097.38417 0.11087
3096.09842 0.10986
3094.81266 0.10995
3093.52691 0.11099
3092.24115 0.11227
3090.95540 0.11307
3089.66964 0.11287
3088.38389 0.11136
3087.09813 0.10874
3085.81238 0.10592
3084.52662 0.10400
3083.24087 0.10334
3081.95511 0.10331
3080.66936 0.10310
3079.38360 0.10255
3078.09785 0.10210
3076.81209 0.10211
3075.52634 0.10262
3074.24058 0.10353
3072.95483 0.10474
3071.66907 0.10578
3070.38332 0.10587
3069.09756 0.10447
3067.81181 0.10183
3066.52605 0.09880
3065.24030 0.09612
3063.95454 0.09403
3062.66879 0.09257
3061.38303 0.09194
3060.09727 0.09243
3058.81152 0.09385
3057.52576 0.09533
3056.24001 0.09584
3054.95425 0.09517
3053.66850 0.09410
3052.38274 0.09365
3051.09699 0.09420
3049.81123 0.09535
3048.52548 0.09627
3047.23972 0.09603
3045.95397 0.09411
3044.66821 0.09091
3043.38246 0.08769
3042.09670 0.08555
3040.81095 0.08471
3039.52519 0.08469
3038.23944 0.08496
3036.95368 0.08539
3035.66793 0.08596
3034.38217 0.08659
3033.09642 0.08702
3031.81066 0.08689
3030.52491 0.08603
3029.23915 0.08484
3027.95340 0.08403
3026.66764 0.08397
3025.38189 0.08445
3024.09613 0.08516
3022.81038 0.08606
3021.52462 0.08712
3020.23886 0.08795
3018.95311 0.08808
3017.66735 0.08736
3016.38160 0.08590
3015.09584 0.08380
3013.81009 0.08140
3012.52433 0.07940
3011.23858 0.07858
3009.95282 0.07914
3008.66707 0.08058
3007.38131 0.08204
3006.09556 0.08294
3004.80980 0.08307
3003.52405 0.08196
3002.23829 0.07964
3000.95254 0.07942
2999.66678 0.08101
2998.38103 0.08047
2997.09527 0.07943
2995.80952 0.07800
2994.52376 0.07672
2993.23801 0.07618
2991.95225 0.07661
2990.66650 0.07778
2989.38074 0.07926
2988.09499 0.08048
2986.80923 0.08108
2985.52348 0.08120
2984.23772 0.08124
2982.95197 0.08133
2981.66621 0.08137
2980.38046 0.08142
2979.09470 0.08191
2977.80894 0.08312
2976.52319 0.08481
2975.23743 0.08631
2973.95168 0.08684
2972.66592 0.08596
2971.38017 0.08397
2970.09441 0.08203
2968.80866 0.08147
2967.52290 0.08277
2966.23715 0.08534
2964.95139 0.08808
2963.66564 0.09019
2962.37988 0.09145
2961.09413 0.09196
2959.80837 0.09182
2958.52262 0.09111
2957.23686 0.09012
2955.95111 0.08941
2954.66535 0.08930
2953.37960 0.08939
2952.09384 0.08915
2950.80809 0.08857
2949.52233 0.08809
2948.23658 0.08796
2946.95082 0.08805
2945.66507 0.08823
2944.37931 0.08838
2943.09356 0.08832
2941.80780 0.08796
2940.52205 0.08749
2939.23629 0.08697
2937.95053 0.08612
2936.66478 0.08482
2935.37902 0.08370
2934.09327 0.08369
2932.80751 0.08507
2931.52176 0.08696
2930.23600 0.08814
2928.95025 0.08819
2927.66449 0.08781
2926.37874 0.08776
2925.09298 0.08790
2923.80723 0.08742
2922.52147 0.08583
2921.23572 0.08336
2919.94996 0.08062
2918.66421 0.07825
2917.37845 0.07678
2916.09270 0.07634
2914.80694 0.07654
2913.52119 0.07679
2912.23543 0.07683
2910.94968 0.07663
2909.66392 0.07619
2908.37817 0.07560
2907.09241 0.07521
2905.80666 0.07538
2904.52090 0.07606
2903.23515 0.07672
2901.94939 0.07683
2900.66364 0.07621
2899.37788 0.07494
2898.09212 0.07320
2896.80637 0.07126
2895.52061 0.06953
2894.23486 0.06833
2892.94910 0.06775
2891.66335 0.06771
2890.37759 0.06806
2889.09184 0.06868
2887.80608 0.06926
2886.52033 0.06952
2885.23457 0.06946
2883.94882 0.06945
2882.66306 0.06971
2881.37731 0.06985
2880.09155 0.06915
2878.80580 0.06761
2877.52004 0.06605
2876.23429 0.06523
2874.94853 0.06498
2873.66278 0.06468
2872.37702 0.06410
2871.09127 0.06356
2869.80551 0.06337
2868.51976 0.06350
2867.23400 0.06372
2865.94825 0.06378
2864.66249 0.06357
2863.37674 0.06334
2862.09098 0.06345
2860.80523 0.06383
2859.51947 0.06380
2858.23372 0.06275
2856.94796 0.06100
2855.66220 0.05971
2854.37645 0.05971
2853.09069 0.06065
2851.80494 0.06131
2850.51918 0.06082
2849.23343 0.05941
2847.94767 0.05794
2846.66192 0.05699
2845.37616 0.05651
2844.09041 0.05613
2842.80465 0.05570
2841.51890 0.05535
2840.23314 0.05516
2838.94739 0.05494
2837.66163 0.05450
2836.37588 0.05386
2835.09012 0.05332
2833.80437 0.05308
2832.51861 0.05302
2831.23286 0.05283
2829.94710 0.05240
2828.66135 0.05182
2827.37559 0.05120
2826.08984 0.05041
2824.80408 0.04944
2823.51833 0.04862
2822.23257 0.04842
2820.94682 0.04896
2819.66106 0.04994
2818.37531 0.05084
2817.08955 0.05115
2815.80379 0.05054
2814.51804 0.04911
2813.23228 0.04742
2811.94653 0.04613
2810.66077 0.04551
2809.37502 0.04546
2808.08926 0.04572
2806.80351 0.04606
2805.51775 0.04629
2804.23200 0.04637
2802.94624 0.04644
2801.66049 0.04667
2800.37473 0.04698
2799.08898 0.04698
2797.80322 0.04642
2796.51747 0.04556
2795.23171 0.04488
2793.94596 0.04459
2792.66020 0.04452
2791.37445 0.04453
2790.08869 0.04464
2788.80294 0.04486
2787.51718 0.04496
2786.23143 0.04463
2784.94567 0.04385
2783.65992 0.04312
2782.37416 0.04301
2781.08841 0.04361
2779.80265 0.04438
2778.51690 0.04472
2777.23114 0.04459
2775.94538 0.04440
2774.65963 0.04436
2773.37387 0.04430
2772.08812 0.04390
2770.80236 0.04321
2769.51661 0.04259
2768.23085 0.04241
2766.94510 0.04256
2765.65934 0.04251
2764.37359 0.04189
2763.08783 0.04094
2761.80208 0.04035
2760.51632 0.04052
2759.23057 0.04112
2757.94481 0.04145
2756.65906 0.04126
2755.37330 0.04085
2754.08755 0.04057
2752.80179 0.04039
2751.51604 0.04021
2750.23028 0.04001
2748.94453 0.03982
2747.65877 0.03944
2746.37302 0.03886
2745.08726 0.03846
2743.80151 0.03866
2742.51575 0.03938
2741.23000 0.04009
2739.94424 0.04041
2738.65849 0.04030
2737.37273 0.03995
2736.08698 0.03953
2734.80122 0.03923
2733.51546 0.03922
2732.22971 0.03952
2730.94395 0.03987
2729.65820 0.03994
2728.37244 0.03959
2727.08669 0.03904
2725.80093 0.03865
2724.51518 0.03861
2723.22942 0.03887
2721.94367 0.03919
2720.65791 0.03923
2719.37216 0.03866
2718.08640 0.03752
2716.80065 0.03632
2715.51489 0.03565
2714.22914 0.03559
2712.94338 0.03575
2711.65763 0.03584
2710.37187 0.03585
2709.08612 0.03587
2707.80036 0.03584
2706.51461 0.03575
2705.22885 0.03567
2703.94310 0.03562
2702.65734 0.03548
2701.37159 0.03523
2700.08583 0.03508
2698.80008 0.03533
2697.51432 0.03596
2696.22857 0.03658
2694.94281 0.03669
2693.65705 0.03606
2692.37130 0.03498
2691.08554 0.03407
2689.79979 0.03380
2688.51403 0.03417
2687.22828 0.03477
2685.94252 0.03523
2684.65677 0.03550
2683.37101 0.03569
2682.08526 0.03581
2680.79950 0.03570
2679.51375 0.03529
2678.22799 0.03464
2676.94224 0.03397
2675.65648 0.03358
2674.37073 0.03375
2673.08497 0.03444
2671.79922 0.03513
2670.51346 0.03529
2669.22771 0.03487
2667.94195 0.03433
2666.65620 0.03414
2665.37044 0.03441
2664.08469 0.03503
2662.79893 0.03585
2661.51318 0.03677
2660.22742 0.03763
2658.94167 0.03826
2657.65591 0.03851
2656.37016 0.03831
2655.08440 0.03783
2653.79865 0.03744
2652.51289 0.03749
2651.22713 0.03786
2649.94138 0.03810
2648.65562 0.03790
2647.36987 0.03738
2646.08411 0.03681
2644.79836 0.03633
2643.51260 0.03603
2642.22685 0.03602
2640.94109 0.03634
2639.65534 0.03680
2638.36958 0.03722
2637.08383 0.03761
2635.79807 0.03797
2634.51232 0.03809
2633.22656 0.03769
2631.94081 0.03682
2630.65505 0.03589
2629.36930 0.03524
2628.08354 0.03498
2626.79779 0.03504
2625.51203 0.03531
2624.22628 0.03556
2622.94052 0.03560
2621.65477 0.03538
2620.36901 0.03486
2619.08326 0.03395
2617.79750 0.03272
2616.51175 0.03173
2615.22599 0.03164
2613.94024 0.03235
2612.65448 0.03306
2611.36872 0.03319
2610.08297 0.03289
2608.79721 0.03271
2607.51146 0.03290
2606.22570 0.03323
2604.93995 0.03322
2603.65419 0.03253
2602.36844 0.03121
2601.08268 0.02978
2599.79693 0.02879
2598.51117 0.02847
2597.22542 0.02862
2595.93966 0.02887
2594.65391 0.02891
2593.36815 0.02881
2592.08240 0.02876
2590.79664 0.02887
2589.51089 0.02913
2588.22513 0.02966
2586.93938 0.03053
2585.65362 0.03140
2584.36787 0.03172
2583.08211 0.03142
2581.79636 0.03109
2580.51060 0.03127
2579.22485 0.03182
2577.93909 0.03214
2576.65334 0.03182
2575.36758 0.03093
2574.08183 0.02972
2572.79607 0.02844
2571.51031 0.02726
2570.22456 0.02630
2568.93880 0.02564
2567.65305 0.02519
2566.36729 0.02483
2565.08154 0.02457
2563.79578 0.02459
2562.51003 0.02503
2561.22427 0.02586
2559.93852 0.02685
2558.65276 0.02771
2557.36701 0.02819
2556.08125 0.02821
2554.79550 0.02787
2553.50974 0.02722
2552.22399 0.02630
2550.93823 0.02541
2549.65248 0.02501
2548.36672 0.02532
2547.08097 0.02587
2545.79521 0.02593
2544.50946 0.02532
2543.22370 0.02462
2541.93795 0.02464
2540.65219 0.02572
2539.36644 0.02726
2538.08068 0.02820
2536.79493 0.02782
2535.50917 0.02648
2534.22342 0.02535
2532.93766 0.02537
2531.65191 0.02640
2530.36615 0.02748
2529.08039 0.02777
2527.79464 0.02730
2526.50888 0.02665
2525.22313 0.02615
2523.93737 0.02566
2522.65162 0.02497
2521.36586 0.02424
2520.08011 0.02374
2518.79435 0.02346
2517.50860 0.02306
2516.22284 0.02238
2514.93709 0.02175
2513.65133 0.02162
2512.36558 0.02218
2511.07982 0.02307
2509.79407 0.02365
2508.50831 0.02350
2507.22256 0.02277
2505.93680 0.02206
2504.65105 0.02187
2503.36529 0.02226
2502.07954 0.02298
2500.79378 0.02377
2499.50803 0.02433
2498.22227 0.02445
2496.93652 0.02428
2495.65076 0.02433
2494.36501 0.02481
2493.07925 0.02538
2491.79350 0.02556
2490.50774 0.02521
2489.22198 0.02448
2487.93623 0.02364
2486.65047 0.02307
2485.36472 0.02320
2484.07896 0.02408
2482.79321 0.02516
2481.50745 0.02573
2480.22170 0.02551
2478.93594 0.02476
2477.65019 0.02391
2476.36443 0.02324
2475.07868 0.02287
2473.79292 0.02288
2472.50717 0.02313
2471.22141 0.02319
2469.93566 0.02255
2468.64990 0.02130
2467.36415 0.02011
2466.07839 0.01966
2464.79264 0.02017
2463.50688 0.02138
2462.22113 0.02270
2460.93537 0.02353
2459.64962 0.02363
2458.36386 0.02340
2457.07811 0.02345
2455.79235 0.02387
2454.50660 0.02403
2453.22084 0.02338
2451.93509 0.02216
2450.64933 0.02120
2449.36357 0.02093
2448.07782 0.02112
2446.79206 0.02147
2445.50631 0.02213
2444.22055 0.02333
2442.93480 0.02469
2441.64904 0.02542
2440.36329 0.02508
2439.07753 0.02382
2437.79178 0.02223
2436.50602 0.02096
2435.22027 0.02048
2433.93451 0.02081
2432.64876 0.02153
2431.36300 0.02206
2430.07725 0.02198
2428.79149 0.02126
2427.50574 0.02032
2426.21998 0.01976
2424.93423 0.01994
2423.64847 0.02075
2422.36272 0.02171
2421.07696 0.02238
2419.79121 0.02255
2418.50545 0.02225
2417.21970 0.02163
2415.93394 0.02094
2414.64819 0.02040
2413.36243 0.02010
2412.07668 0.01992
2410.79092 0.01961
2409.50517 0.01892
2408.21941 0.01790
2406.93365 0.01693
2405.64790 0.01655
2404.36214 0.01700
2403.07639 0.01802
2401.79063 0.01901
2400.50488 0.01929
2399.21912 0.01630
2397.93337 0.01706
2396.64761 0.01780
2395.36186 0.01798
2394.07610 0.01845
2392.79035 0.01909
2391.50459 0.01950
2390.21884 0.01946
2388.93308 0.01900
2387.64733 0.01832
2386.36157 0.01775
2385.07582 0.01760
2383.79006 0.01794
2382.50431 0.01844
2381.21855 0.01862
2379.93280 0.01829
2378.64704 0.01776
2377.36129 0.01758
2376.07553 0.01807
2374.78978 0.01906
2373.50402 0.02007
2372.21827 0.02067
2370.93251 0.02068
2369.64676 0.02022
2368.36100 0.01951
2367.07524 0.01877
2365.78949 0.01827
2364.50373 0.01820
2363.21798 0.01854
2361.93222 0.01912
2360.64647 0.01966
2359.36071 0.01996
2358.07496 0.01993
2356.78920 0.01955
2355.50345 0.01893
2354.21769 0.01834
2352.93194 0.01808
2351.64618 0.01832
2350.36043 0.01888
2349.07467 0.01944
2347.78892 0.01987
2346.50316 0.02021
2345.21741 0.02047
2343.93165 0.02061
2342.64590 0.02052
2341.36014 0.02027
2340.07439 0.02000
2338.78863 0.01991
2337.50288 0.02017
2336.21712 0.02073
2334.93137 0.02124
2333.64561 0.02142
2332.35986 0.02126
2331.07410 0.02118
2329.78835 0.02165
2328.50259 0.02331
2327.21684 0.02617
2325.93108 0.02910
2324.64532 0.03063
2323.35957 0.03002
2322.07381 0.02800
2320.78806 0.02592
2319.50230 0.02470
2318.21655 0.02449
2316.93079 0.02494
2315.64504 0.02566
2314.35928 0.02624
2313.07353 0.02640
2311.78777 0.02608
2310.50202 0.02555
2309.21626 0.02521
2307.93051 0.02515
2306.64475 0.02502
2305.35900 0.02450
2304.07324 0.02367
2302.78749 0.02292
2301.50173 0.02250
2300.21598 0.02234
2298.93022 0.02220
2297.64447 0.02196
2296.35871 0.02165
2295.07296 0.02141
2293.78720 0.02134
2292.50145 0.02157
2291.21569 0.02220
2289.92994 0.02317
2288.64418 0.02416
2287.35843 0.02478
2286.07267 0.02477
2284.78691 0.02424
2283.50116 0.02356
2282.21540 0.02316
2280.92965 0.02311
2279.64389 0.02306
2278.35814 0.02252
2277.07238 0.02144
2275.78663 0.02026
2274.50087 0.01959
2273.21512 0.01962
2271.92936 0.01996
2270.64361 0.01988
2269.35785 0.01903
2268.07210 0.01787
2266.78634 0.01724
2265.50059 0.01749
2264.21483 0.01811
2262.92908 0.01845
2261.64332 0.01847
2260.35757 0.01863
2259.07181 0.01909
2257.78606 0.01942
2256.50030 0.01910
2255.21455 0.01825
2253.92879 0.01773
2252.64304 0.01856
2251.35728 0.02143
2250.07153 0.02482
2248.78577 0.02423
2247.50002 0.02308
2246.21426 0.02051
2244.92850 0.01810
2243.64275 0.01716
2242.35699 0.01757
2241.07124 0.01823
2239.78548 0.01836
2238.49973 0.01804
2237.21397 0.01766
2235.92822 0.01733
2234.64246 0.01697
2233.35671 0.01657
2232.07095 0.01609
2230.78520 0.01522
2229.49944 0.01383
2228.21369 0.01244
2226.92793 0.01200
2225.64218 0.01289
2224.35642 0.01446
2223.07067 0.01550
2221.78491 0.01521
2220.49916 0.01364
2219.21340 0.01157
2217.92765 0.01016
2216.64189 0.01029
2215.35614 0.01193
2214.07038 0.01386
2212.78463 0.01480
2211.49887 0.01472
2210.21312 0.01467
2208.92736 0.01537
2207.64161 0.01664
2206.35585 0.01789
2205.07010 0.01866
2203.78434 0.01844
2202.49858 0.01701
2201.21283 0.01499
2199.92707 0.01341
2198.64132 0.01253
2197.35556 0.01169
2196.06981 0.01049
2194.78405 0.00942
2193.49830 0.00899
2192.21254 0.00919
2190.92679 0.01007
2189.64103 0.01210
2188.35528 0.01541
2187.06952 0.01866
2185.78377 0.01961
2184.49801 0.01722
2183.21226 0.01300
2181.92650 0.00986
2180.64075 0.00926
2179.35499 0.00973
2178.06924 0.00867
2176.78348 0.00545
2175.49773 0.00206
2174.21197 0.00085
2172.92622 0.00234
2171.64046 0.00553
2170.35471 0.00924
2169.06895 0.01258
2167.78320 0.01512
2166.49744 0.01702
2165.21169 0.01876
2163.92593 0.01998
2162.64017 0.01900
2161.35442 0.01433
2160.06866 0.00710
2158.78291 0.00083
2157.49715 -0.00155
2156.21140 -0.00040
2154.92564 0.00195
2153.63989 0.00393
2152.35413 0.00547
2151.06838 0.00699
2149.78262 0.00830
2148.49687 0.00886
2147.21111 0.00853
2145.92536 0.00761
2144.63960 0.00630
2143.35385 0.00469
2142.06809 0.00323
2140.78234 0.00256
2139.49658 0.00279
2138.21083 0.00322
2136.92507 0.00314
2135.63932 0.00276
2134.35356 0.00295
2133.06781 0.00416
2131.78205 0.00588
2130.49630 0.00725
2129.21054 0.00802
2127.92479 0.00856
2126.63903 0.00906
2125.35328 0.00912
2124.06752 0.00816
2122.78176 0.00643
2121.49601 0.00501
2120.21025 0.00496
2118.92450 0.00621
2117.63874 0.00781
2116.35299 0.00899
2115.06723 0.00987
2113.78148 0.01092
2112.49572 0.01213
2111.20997 0.01302
2109.92421 0.01330
2108.63846 0.01310
2107.35270 0.01270
2106.06695 0.01218
2104.78119 0.01154
2103.49544 0.01091
2102.20968 0.01048
2100.92393 0.01060
2099.63817 0.01634
2098.35242 0.01807
2097.06666 0.01639
2095.78091 0.01368
2094.49515 0.01094
2093.20940 0.00864
2091.92364 0.00681
2090.63789 0.00542
2089.35213 0.00472
2088.06638 0.00511
2086.78062 0.00653
2085.49487 0.00842
2084.20911 0.01019
2082.92336 0.01167
2081.63760 0.01295
2080.35184 0.01400
2079.06609 0.01475
2077.78033 0.01535
2076.49458 0.01613
2075.20882 0.01722
2073.92307 0.01838
2072.63731 0.01922
2071.35156 0.01946
2070.06580 0.01911
2068.78005 0.01842
2067.49429 0.01768
2066.20854 0.01697
2064.92278 0.01605
2063.63703 0.01464
2062.35127 0.01276
2061.06552 0.01095
2059.77976 0.00996
2058.49401 0.00996
2057.20825 0.01024
2055.92250 0.01017
2054.63674 0.01036
2053.35099 0.01231
2052.06523 0.01645
2050.77948 0.02100
2049.49372 0.02332
2048.20797 0.02218
2046.92221 0.01881
2045.63646 0.01569
2044.35070 0.01459
2043.06495 0.01566
2041.77919 0.01805
2040.49343 0.02100
2039.20768 0.02408
2037.92192 0.02651
2036.63617 0.02719
2035.35041 0.02576
2034.06466 0.02311
2032.77890 0.02065
2031.49315 0.01901
2030.20739 0.01786
2028.92164 0.01643
2027.63588 0.01432
2026.35013 0.01194
2025.06437 0.01019
2023.77862 0.00970
2022.49286 0.01028
2021.20711 0.01128
2019.92135 0.01214
2018.63560 0.01262
2017.34984 0.01270
2016.06409 0.01247
2014.77833 0.01230
2013.49258 0.01278
2012.20682 0.01444
2010.92107 0.01714
2009.63531 0.01973
2008.34956 0.02056
2007.06380 0.01877
2005.77805 0.01497
2004.49229 0.01069
2003.20654 0.00725
2001.92078 0.00519
2000.63503 0.00436
1999.34927 0.00439
1998.06351 0.00494
1996.77776 0.00578
1995.49200 0.00676
1994.20625 0.00772
1992.92049 0.00848
1991.63474 0.00881
1990.34898 0.00861
1989.06323 0.00824
1987.77747 0.00834
1986.49172 0.00942
1985.20596 0.01175
1983.92021 0.01547
1982.63445 0.02051
1981.34870 0.02599
1980.06294 0.03020
1978.77719 0.03161
1977.49143 0.03027
1976.20568 0.02767
1974.91992 0.02538
1973.63417 0.02389
1972.34841 0.02284
1971.06266 0.02186
1969.77690 0.02081
1968.49115 0.01957
1967.20539 0.01806
1965.91964 0.01646
1964.63388 0.01522
1963.34813 0.01445
1962.06237 0.01382
1960.77662 0.01306
1959.49086 0.01226
1958.20510 0.01156
1956.91935 0.01097
1955.63359 0.01043
1954.34784 0.01013
1953.06208 0.01030
1951.77633 0.01095
1950.49057 0.01178
1949.20482 0.01239
1947.91906 0.01253
1946.63331 0.01226
1945.34755 0.01181
1944.06180 0.01146
1942.77604 0.01145
1941.49029 0.01184
1940.20453 0.01249
1938.91878 0.01319
1937.63302 0.01386
1936.34727 0.01446
1935.06151 0.01481
1933.77576 0.01468
1932.49000 0.01416
1931.20425 0.01364
1929.91849 0.01344
1928.63274 0.01349
1927.34698 0.01339
1926.06123 0.01292
1924.77547 0.01220
1923.48972 0.01163
1922.20396 0.01142
1920.91821 0.01154
1919.63245 0.01182
1918.34669 0.01223
1917.06094 0.01272
1915.77518 0.01316
1914.48943 0.01337
1913.20367 0.01327
1911.91792 0.01298
1910.63216 0.01270
1909.34641 0.01267
1908.06065 0.01298
1906.77490 0.01351
1905.48914 0.01392
1904.20339 0.01398
1902.91763 0.01374
1901.63188 0.01353
1900.34612 0.01361
1899.06037 0.01403
1897.77461 0.01452
1896.48886 0.01475
1895.20310 0.01466
1893.91735 0.01439
1892.63159 0.01413
1891.34584 0.01389
1890.06008 0.01369
1888.77433 0.01366
1887.48857 0.01387
1886.20282 0.01416
1884.91706 0.01416
1883.63131 0.01373
1882.34555 0.01310
1881.05980 0.01268
1879.77404 0.01270
1878.48829 0.01296
1877.20253 0.01313
1875.91677 0.01311
1874.63102 0.01309
1873.34526 0.01323
1872.05951 0.01348
1870.77375 0.01370
1869.48800 0.01380
1868.20224 0.01379
1866.91649 0.01360
1865.63073 0.01319
1864.34498 0.01264
1863.05922 0.01216
1861.77347 0.01191
1860.48771 0.01193
1859.20196 0.01217
1857.91620 0.01251
1856.63045 0.01283
1855.34469 0.01300
1854.05894 0.01299
1852.77318 0.01277
1851.48743 0.01236
1850.20167 0.01191
1848.91592 0.01165
1847.63016 0.01173
1846.34441 0.01205
1845.05865 0.01232
1843.77290 0.01230
1842.48714 0.01197
1841.20139 0.01146
1839.91563 0.01098
1838.62988 0.01073
1837.34412 0.01077
1836.05836 0.01094
1834.77261 0.01109
1833.48685 0.01124
1832.20110 0.01150
1830.91534 0.01190
1829.62959 0.01236
1828.34383 0.01276
1827.05808 0.01313
1825.77232 0.01362
1824.48657 0.01430
1823.20081 0.01508
1821.91506 0.01562
1820.62930 0.01550
1819.34355 0.01453
1818.05779 0.01295
1816.77204 0.01131
1815.48628 0.01009
1814.20053 0.00945
1812.91477 0.00927
1811.62902 0.00933
1810.34326 0.00951
1809.05751 0.00971
1807.77175 0.00988
1806.48600 0.01005
1805.20024 0.01032
1803.91449 0.01074
1802.62873 0.01121
1801.34298 0.01156
1800.05722 0.01165
1798.77147 0.01156
1797.48571 0.01152
1796.19995 0.01178
1794.91420 0.01232
1793.62844 0.01287
1792.34269 0.01307
1791.05693 0.01285
1789.77118 0.01248
1788.48542 0.01229
1787.19967 0.01240
1785.91391 0.01269
1784.62816 0.01298
1783.34240 0.01319
1782.05665 0.01328
1780.77089 0.01314
1779.48514 0.01272
1778.19938 0.01210
1776.91363 0.01159
1775.62787 0.01142
1774.34212 0.01156
1773.05636 0.01176
1771.77061 0.01185
1770.48485 0.01178
1769.19910 0.01160
1767.91334 0.01138
1766.62759 0.01124
1765.34183 0.01130
1764.05608 0.01153
1762.77032 0.01177
1761.48457 0.01190
1760.19881 0.01182
1758.91306 0.01158
1757.62730 0.01132
1756.34155 0.01122
1755.05579 0.01143
1753.77003 0.01187
1752.48428 0.01232
1751.19852 0.01252
1749.91277 0.01240
1748.62701 0.01215
1747.34126 0.01202
1746.05550 0.01215
1744.76975 0.01251
1743.48399 0.01300
1742.19824 0.01345
1740.91248 0.01375
1739.62673 0.01400
1738.34097 0.01444
1737.05522 0.01523
1735.76946 0.01610
1734.48371 0.01652
1733.19795 0.01616
1731.91220 0.01525
1730.62644 0.01430
1729.34069 0.01373
1728.05493 0.01359
1726.76918 0.01361
1725.48342 0.01354
1724.19767 0.01334
1722.91191 0.01326
1721.62616 0.01359
1720.34040 0.01439
1719.05465 0.01533
1717.76889 0.01587
1716.48314 0.01570
1715.19738 0.01504
1713.91162 0.01440
1712.62587 0.01411
1711.34011 0.01427
1710.05436 0.01471
1708.76860 0.01517
1707.48285 0.01548
1706.19709 0.01569
1704.91134 0.01609
1703.62558 0.01689
1702.33983 0.01799
1701.05407 0.01904
1699.76832 0.01978
1698.48256 0.02025
1697.19681 0.02050
1695.91105 0.02052
1694.62530 0.02031
1693.33954 0.02004
1692.05379 0.01994
1690.76803 0.02022
1689.48228 0.02103
1688.19652 0.02239
1686.91077 0.02403
1685.62501 0.02538
1684.33926 0.02591
1683.05350 0.02557
1681.76775 0.02495
1680.48199 0.02476
1679.19624 0.02532
1677.91048 0.02638
1676.62473 0.02740
1675.33897 0.02802
1674.05322 0.02832
1672.76746 0.02859
1671.48170 0.02905
1670.19595 0.02962
1668.91019 0.03010
1667.62444 0.03047
1666.33868 0.03085
1665.05293 0.03137
1663.76717 0.03194
1662.48142 0.03237
1661.19566 0.03249
1659.90991 0.03242
1658.62415 0.03258
1657.33840 0.03349
1656.05264 0.03520
1654.76689 0.03697
1653.48113 0.03774
1652.19538 0.03718
1650.90962 0.03599
1649.62387 0.03518
1648.33811 0.03523
1647.05236 0.03576
1645.76660 0.03603
1644.48085 0.03573
1643.19509 0.03508
1641.90934 0.03454
1640.62358 0.03442
1639.33783 0.03478
1638.05207 0.03538
1636.76632 0.03574
1635.48056 0.03545
1634.19481 0.03451
1632.90905 0.03337
1631.62329 0.03247
1630.33754 0.03199
1629.05178 0.03179
1627.76603 0.03166
1626.48027 0.03149
1625.19452 0.03122
1623.90876 0.03078
1622.62301 0.03019
1621.33725 0.02967
1620.05150 0.02949
1618.76574 0.02961
1617.47999 0.02964
1616.19423 0.02916
1614.90848 0.02820
1613.62272 0.02715
1612.33697 0.02644
1611.05121 0.02619
1609.76546 0.02619
1608.47970 0.02618
1607.19395 0.02606
1605.90819 0.02585
1604.62244 0.02566
1603.33668 0.02551
1602.05093 0.02540
1600.76517 0.02530
1599.47942 0.02523
1598.19366 0.02519
1596.90791 0.02518
1595.62215 0.02518
1594.33640 0.02519
1593.05064 0.02523
1591.76488 0.02529
1590.47913 0.02539
1589.19337 0.02554
1587.90762 0.02573
1586.62186 0.02592
1585.33611 0.02606
1584.05035 0.02612
1582.76460 0.02617
1581.47884 0.02639
1580.19309 0.02699
1578.90733 0.02794
1577.62158 0.02888
1576.33582 0.02937
1575.05007 0.02928
1573.76431 0.02899
1572.47856 0.02900
1571.19280 0.02942
1569.90705 0.02997
1568.62129 0.03031
1567.33554 0.03029
1566.04978 0.03008
1564.76403 0.03011
1563.47827 0.03080
1562.19252 0.03218
1560.90676 0.03371
1559.62101 0.03468
1558.33525 0.03465
1557.04950 0.03389
1555.76374 0.03307
1554.47799 0.03270
1553.19223 0.03283
1551.90648 0.03317
1550.62072 0.03346
1549.33496 0.03359
1548.04921 0.03362
1546.76345 0.03364
1545.47770 0.03383
1544.19194 0.03431
1542.90619 0.03501
1541.62043 0.03562
1540.33468 0.03564
1539.04892 0.03492
1537.76317 0.03385
1536.47741 0.03306
1535.19166 0.03285
1533.90590 0.03299
1532.62015 0.03315
1531.33439 0.03315
1530.04864 0.03310
1528.76288 0.03314
1527.47713 0.03330
1526.19137 0.03358
1524.90562 0.03400
1523.61986 0.03452
1522.33411 0.03496
1521.04835 0.03510
1519.76260 0.03490
1518.47684 0.03458
1517.19109 0.03439
1515.90533 0.03441
1514.61958 0.03456
1513.33382 0.03476
1512.04807 0.03510
1510.76231 0.03587
1509.47655 0.03712
1508.19080 0.03841
1506.90504 0.03911
1505.61929 0.03891
1504.33353 0.03814
1503.04778 0.03746
1501.76202 0.03740
1500.47627 0.03797
1499.19051 0.03879
1497.90476 0.03938
1496.61900 0.03952
1495.33325 0.03928
1494.04749 0.03898
1492.76174 0.03893
1491.47598 0.03918
1490.19023 0.03955
1488.90447 0.03983
1487.61872 0.03998
1486.33296 0.04015
1485.04721 0.04049
1483.76145 0.04104
1482.47570 0.04172
1481.18994 0.04242
1479.90419 0.04310
1478.61843 0.04381
1477.33268 0.04466
1476.04692 0.04566
1474.76117 0.04667
1473.47541 0.04743
1472.18966 0.04779
1470.90390 0.04784
1469.61814 0.04786
1468.33239 0.04812
1467.04663 0.04860
1465.76088 0.04907
1464.47512 0.04930
1463.18937 0.04938
1461.90361 0.04974
1460.61786 0.05071
1459.33210 0.05217
1458.04635 0.05352
1456.76059 0.05412
1455.47484 0.05384
1454.18908 0.05315
1452.90333 0.05264
1451.61757 0.05257
1450.33182 0.05280
1449.04606 0.05302
1447.76031 0.05300
1446.47455 0.05268
1445.18880 0.05212
1443.90304 0.05142
1442.61729 0.05071
1441.33153 0.05018
1440.04578 0.04996
1438.76002 0.04993
1437.47427 0.04983
1436.18851 0.04947
1434.90276 0.04900
1433.61700 0.04867
1432.33125 0.04870
1431.04549 0.04904
1429.75974 0.04955
1428.47398 0.05010
1427.18822 0.05067
1425.90247 0.05131
1424.61671 0.05207
1423.33096 0.05299
1422.04520 0.05403
1420.75945 0.05501
1419.47369 0.05571
1418.18794 0.05601
1416.90218 0.05605
1415.61643 0.05606
1414.33067 0.05619
1413.04492 0.05639
1411.75916 0.05651
1410.47341 0.05647
1409.18765 0.05627
1407.90190 0.05595
1406.61614 0.05550
1405.33039 0.05488
1404.04463 0.05413
1402.75888 0.05333
1401.47312 0.05253
1400.18737 0.05173
1398.90161 0.05089
1397.61586 0.05002
1396.33010 0.04909
1395.04435 0.04804
1393.75859 0.04686
1392.47284 0.04565
1391.18708 0.04461
1389.90133 0.04381
1388.61557 0.04314
1387.32981 0.04238
1386.04406 0.04142
1384.75830 0.04032
1383.47255 0.03924
1382.18679 0.03827
1380.90104 0.03736
1379.61528 0.03647
1378.32953 0.03560
1377.04377 0.03476
1375.75802 0.03393
1374.47226 0.03310
1373.18651 0.03222
1371.90075 0.03132
1370.61500 0.03043
1369.32924 0.02959
1368.04349 0.02884
1366.75773 0.02817
1365.47198 0.02759
1364.18622 0.02702
1362.90047 0.02640
1361.61471 0.02570
1360.32896 0.02494
1359.04320 0.02424
1357.75745 0.02365
1356.47169 0.02317
1355.18594 0.02277
1353.90018 0.02242
1352.61443 0.02212
1351.32867 0.02187
1350.04292 0.02165
1348.75716 0.02144
1347.47141 0.02123
1346.18565 0.02102
1344.89989 0.02084
1343.61414 0.02071
1342.32838 0.02063
1341.04263 0.02054
1339.75687 0.02043
1338.47112 0.02029
1337.18536 0.02013
1335.89961 0.01998
1334.61385 0.01986
1333.32810 0.01976
1332.04234 0.01966
1330.75659 0.01952
1329.47083 0.01933
1328.18508 0.01910
1326.89932 0.01886
1325.61357 0.01864
1324.32781 0.01848
1323.04206 0.01837
1321.75630 0.01829
1320.47055 0.01819
1319.18479 0.01802
1317.89904 0.01782
1316.61328 0.01762
1315.32753 0.01744
1314.04177 0.01729
1312.75602 0.01715
1311.47026 0.01701
1310.18451 0.01690
1308.89875 0.01683
1307.61300 0.01679
1306.32724 0.01675
1305.04148 0.01667
1303.75573 0.01652
1302.46997 0.01633
1301.18422 0.01613
1299.89846 0.01593
1298.61271 0.01577
1297.32695 0.01563
1296.04120 0.01553
1294.75544 0.01547
1293.46969 0.01543
1292.18393 0.01539
1290.89818 0.01533
1289.61242 0.01523
1288.32667 0.01510
1287.04091 0.01496
1285.75516 0.01487
1284.46940 0.01484
1283.18365 0.01485
1281.89789 0.01485
1280.61214 0.01481
1279.32638 0.01475
1278.04063 0.01469
1276.75487 0.01465
1275.46912 0.01463
1274.18336 0.01464
1272.89761 0.01468
1271.61185 0.01475
1270.32610 0.01486
1269.04034 0.01506
1267.75459 0.01537
1266.46883 0.01578
1265.18307 0.01625
1263.89732 0.01669
1262.61156 0.01700
1261.32581 0.01710
1260.04005 0.01696
1258.75430 0.01663
1257.46854 0.01622
1256.18279 0.01581
1254.89703 0.01548
1253.61128 0.01520
1252.32552 0.01497
1251.03977 0.01478
1249.75401 0.01463
1248.46826 0.01452
1247.18250 0.01443
1245.89675 0.01436
1244.61099 0.01430
1243.32524 0.01425
1242.03948 0.01421
1240.75373 0.01416
1239.46797 0.01410
1238.18222 0.01401
1236.89646 0.01391
1235.61071 0.01380
1234.32495 0.01369
1233.03920 0.01357
1231.75344 0.01344
1230.46769 0.01329
1229.18193 0.01314
1227.89618 0.01301
1226.61042 0.01293
1225.32467 0.01286
1224.03891 0.01279
1222.75315 0.01272
1221.46740 0.01265
1220.18164 0.01261
1218.89589 0.01261
1217.61013 0.01262
1216.32438 0.01261
1215.03862 0.01259
1213.75287 0.01259
1212.46711 0.01263
1211.18136 0.01273
1209.89560 0.01286
1208.60985 0.01302
1207.32409 0.01318
1206.03834 0.01336
1204.75258 0.01356
1203.46683 0.01383
1202.18107 0.01419
1200.89532 0.01418
1199.60956 0.01316
1198.32381 0.01321
1197.03805 0.01329
1195.75230 0.01332
1194.46654 0.01330
1193.18079 0.01323
1191.89503 0.01315
1190.60928 0.01308
1189.32352 0.01300
1188.03777 0.01290
1186.75201 0.01276
1185.46626 0.01260
1184.18050 0.01245
1182.89474 0.01232
1181.60899 0.01227
1180.32323 0.01227
1179.03748 0.01225
1177.75172 0.01219
1176.46597 0.01215
1175.18021 0.01218
1173.89446 0.01229
1172.60870 0.01240
1171.32295 0.01250
1170.03719 0.01263
1168.75144 0.01283
1167.46568 0.01311
1166.17993 0.01340
1164.89417 0.01367
1163.60842 0.01391
1162.32266 0.01411
1161.03691 0.01425
1159.75115 0.01432
1158.46540 0.01436
1157.17964 0.01448
1155.89389 0.01470
1154.60813 0.01496
1153.32238 0.01516
1152.03662 0.01533
1150.75087 0.01552
1149.46511 0.01576
1148.17936 0.01600
1146.89360 0.01625
1145.60785 0.01653
1144.32209 0.01685
1143.03633 0.01722
1141.75058 0.01765
1140.46482 0.01813
1139.17907 0.01865
1137.89331 0.01921
1136.60756 0.01983
1135.32180 0.02051
1134.03605 0.02127
1132.75029 0.02212
1131.46454 0.02311
1130.17878 0.02423
1128.89303 0.02549
1127.60727 0.02690
1126.32152 0.02845
1125.03576 0.03012
1123.75001 0.03182
1122.46425 0.03353
1121.17850 0.03523
1119.89274 0.03700
1118.60699 0.03889
1117.32123 0.04090
1116.03548 0.04300
1114.74972 0.04515
1113.46397 0.04731
1112.17821 0.04944
1110.89246 0.05154
1109.60670 0.05361
1108.32095 0.05562
1107.03519 0.05756
1105.74944 0.05942
1104.46368 0.06124
1103.17793 0.06304
1101.89217 0.06483
1100.60641 0.06657
1099.32066 0.06820
1098.03490 0.06970
1096.74915 0.07112
1095.46339 0.07251
1094.17764 0.07388
1092.89188 0.07516
1091.60613 0.07628
1090.32037 0.07724
1089.03462 0.07810
1087.74886 0.07898
1086.46311 0.07994
1085.17735 0.08100
1083.89160 0.08213
1082.60584 0.08331
1081.32009 0.08454
1080.03433 0.08586
1078.74858 0.08728
1077.46282 0.08880
1076.17707 0.09040
1074.89131 0.09209
1073.60556 0.09387
1072.31980 0.09575
1071.03405 0.09769
1069.74829 0.09962
1068.46254 0.10150
1067.17678 0.10333
1065.89103 0.10513
1064.60527 0.10692
1063.31952 0.10874
1062.03376 0.11061
1060.74800 0.11250
1059.46225 0.11439
1058.17649 0.11623
1056.89074 0.11803
1055.60498 0.11980
1054.31923 0.12155
1053.03347 0.12325
1051.74772 0.12491
1050.46196 0.12656
1049.17621 0.12826
1047.89045 0.13004
1046.60470 0.13187
1045.31894 0.13370
1044.03319 0.13547
1042.74743 0.13718
1041.46168 0.13884
1040.17592 0.14053
1038.89017 0.14227
1037.60441 0.14403
1036.31866 0.14576
1035.03290 0.14739
1033.74715 0.14885
1032.46139 0.15009
1031.17564 0.15111
1029.88988 0.15195
1028.60413 0.15264
1027.31837 0.15317
1026.03262 0.15350
1024.74686 0.15360
1023.46111 0.15347
1022.17535 0.15311
1020.88960 0.15252
1019.60384 0.15173
1018.31808 0.15080
1017.03233 0.14974
1015.74657 0.14855
1014.46082 0.14718
1013.17506 0.14557
1011.88931 0.14373
1010.60355 0.14169
1009.31780 0.13950
1008.03204 0.13716
1006.74629 0.13467
1005.46053 0.13204
1004.17478 0.12928
1002.88902 0.12643
1001.60327 0.12352
1000.31751 0.12058
999.03176 0.11761
997.74600 0.11462
996.46025 0.11160
995.17449 0.10858
993.88874 0.10555
992.60298 0.10254
991.31723 0.09957
990.03147 0.09666
988.74572 0.09384
987.45996 0.09113
986.17421 0.08850
984.88845 0.08589
983.60270 0.08330
982.31694 0.08078
981.03119 0.07840
979.74543 0.07620
978.45967 0.07414
977.17392 0.07216
975.88816 0.07029
974.60241 0.06861
973.31665 0.06718
972.03090 0.06604
970.74514 0.06518
969.45939 0.06464
968.17363 0.06446
966.88788 0.06459
965.60212 0.06491
964.31637 0.06527
963.03061 0.06556
961.74486 0.06567
960.45910 0.06548
959.17335 0.06489
957.88759 0.06392
956.60184 0.06268
955.31608 0.06132
954.03033 0.05995
952.74457 0.05865
951.45882 0.05741
950.17306 0.05617
948.88731 0.05493
947.60155 0.05371
946.31580 0.05257
945.03004 0.05148
943.74429 0.05040
942.45853 0.04933
941.17278 0.04827
939.88702 0.04726
938.60126 0.04630
937.31551 0.04543
936.02975 0.04464
934.74400 0.04391
933.45824 0.04322
932.17249 0.04257
930.88673 0.04196
929.60098 0.04136
928.31522 0.04072
927.02947 0.04005
925.74371 0.03943
924.45796 0.03889
923.17220 0.03844
921.88645 0.03804
920.60069 0.03767
919.31494 0.03734
918.02918 0.03707
916.74343 0.03683
915.45767 0.03655
914.17192 0.03622
912.88616 0.03581
911.60041 0.03536
910.31465 0.03492
909.02890 0.03453
907.74314 0.03419
906.45739 0.03385
905.17163 0.03347
903.88588 0.03306
902.60012 0.03268
901.31437 0.03235
900.02861 0.03208
898.74286 0.03186
897.45710 0.03167
896.17134 0.03151
894.88559 0.03136
893.59983 0.03119
892.31408 0.03101
891.02832 0.03085
889.74257 0.03077
888.45681 0.03083
887.17106 0.03104
885.88530 0.03146
884.59955 0.03218
883.31379 0.03327
882.02804 0.03462
880.74228 0.03599
879.45653 0.03714
878.17077 0.03801
876.88502 0.03868
875.59926 0.03930
874.31351 0.03984
873.02775 0.04017
871.74200 0.04009
870.45624 0.03958
869.17049 0.03880
867.88473 0.03797
866.59898 0.03720
865.31322 0.03643
864.02747 0.03556
862.74171 0.03456
861.45596 0.03351
860.17020 0.03252
858.88445 0.03168
857.59869 0.03104
856.31293 0.03059
855.02718 0.03026
853.74142 0.02996
852.45567 0.02962
851.16991 0.02924
849.88416 0.02885
848.59840 0.02852
847.31265 0.02826
846.02689 0.02806
844.74114 0.02789
843.45538 0.02778
842.16963 0.02771
840.88387 0.02765
839.59812 0.02755
838.31236 0.02739
837.02661 0.02721
835.74085 0.02708
834.45510 0.02702
833.16934 0.02706
831.88359 0.02713
830.59783 0.02720
829.31208 0.02722
828.02632 0.02719
826.74057 0.02714
825.45481 0.02712
824.16906 0.02716
822.88330 0.02722
821.59755 0.02725
820.31179 0.02718
819.02604 0.02705
817.74028 0.02695
816.45452 0.02696
815.16877 0.02703
813.88301 0.02713
812.59726 0.02723
811.31150 0.02733
810.02575 0.02744
808.73999 0.02751
807.45424 0.02752
806.16848 0.02749
804.88273 0.02749
803.59697 0.02758
802.31122 0.02779
801.02546 0.02806
799.73971 0.02824
798.45395 0.02825
797.16820 0.02810
795.88244 0.02785
794.59669 0.02759
793.31093 0.02737
792.02518 0.02719
790.73942 0.02701
789.45367 0.02680
788.16791 0.02652
786.88216 0.02620
785.59640 0.02586
784.31065 0.02556
783.02489 0.02534
781.73914 0.02520
780.45338 0.02514
779.16763 0.02513
777.88187 0.02516
776.59612 0.02518
775.31036 0.02516
774.02460 0.02509
772.73885 0.02500
771.45309 0.02494
770.16734 0.02490
768.88158 0.02487
767.59583 0.02478
766.31007 0.02464
765.02432 0.02450
763.73856 0.02443
762.45281 0.02445
761.16705 0.02447
759.88130 0.02441
758.59554 0.02430
757.30979 0.02426
756.02403 0.02435
754.73828 0.02454
753.45252 0.02471
752.16677 0.02479
750.88101 0.02473
749.59526 0.02456
748.30950 0.02434
747.02375 0.02417
745.73799 0.02416
744.45224 0.02428
743.16648 0.02440
741.88073 0.02443
740.59497 0.02432
739.30922 0.02411
738.02346 0.02389
736.73771 0.02369
735.45195 0.02351
734.16619 0.02334
732.88044 0.02320
731.59468 0.02310
730.30893 0.02308
729.02317 0.02312
727.73742 0.02320
726.45166 0.02331
725.16591 0.02335
723.88015 0.02268
722.59440 0.02307
721.30864 0.02343
720.02289 0.02349
718.73713 0.02343
717.45138 0.02334
716.16562 0.02324
714.87987 0.02315
713.59411 0.02310
712.30836 0.02311
711.02260 0.02319
709.73685 0.02329
708.45109 0.02337
707.16534 0.02343
705.87958 0.02349
704.59383 0.02359
703.30807 0.02370
702.02232 0.02378
700.73656 0.02380
699.45081 0.02377
698.16505 0.02373
696.87930 0.02372
695.59354 0.02377
694.30779 0.02384
693.02203 0.02389
691.73627 0.02388
690.45052 0.02380
689.16476 0.02369
687.87901 0.02357
686.59325 0.02347
685.30750 0.02336
684.02174 0.02324
682.73599 0.02310
681.45023 0.02294
680.16448 0.02283
678.87872 0.02277
677.59297 0.02276
676.30721 0.02281
675.02146 0.02289
673.73570 0.02301
672.44995 0.02311
671.16419 0.02317
669.87844 0.02317
668.59268 0.02312
667.30693 0.02303
666.02117 0.02292
664.73542 0.02281
663.44966 0.02271
662.16391 0.02265
660.87815 0.02262
659.59240 0.02258
658.30664 0.02251
657.02089 0.02243
655.73513 0.02241
654.44938 0.02248
653.16362 0.02259
651.87786 0.02270
650.59211 0.02275
649.30635 0.02279
648.02060 0.02285
646.73484 0.02292
645.44909 0.02300
644.16333 0.02309
642.87758 0.02318
641.59182 0.02328
640.30607 0.02340
639.02031 0.02356
637.73456 0.02382
636.44880 0.02421
635.16305 0.02466
633.87729 0.02503
632.59154 0.02543
631.30578 0.02814
630.02003 0.03693
628.73427 0.04401
627.44852 0.03673
626.16276 0.04214
624.87701 0.05520
623.59125 0.06629
622.30550 0.07219
621.01974 0.07230
619.73399 0.06778
618.44823 0.06087
617.16248 0.05375
615.87672 0.04810
614.59097 0.04521
613.30521 0.04577
612.01945 0.04918
610.73370 0.05392
609.44794 0.05898
608.16219 0.06463
606.87643 0.07107
605.59068 0.07715
604.30492 0.08091
603.01917 0.08123
601.73341 0.07875
600.44766 0.07501
599.16190 0.07114
597.87615 0.06750
596.59039 0.06412
595.30464 0.06118
594.01888 0.05893
592.73313 0.05743
591.44737 0.05652
590.16162 0.05597
588.87586 0.05577
587.59011 0.05600
586.30435 0.05669
585.01860 0.05771
583.73284 0.05887
582.44709 0.06012
581.16133 0.06152
579.87558 0.06313
578.58982 0.06490
577.30407 0.06675
576.01831 0.06861
574.73256 0.07049
573.44680 0.07249
572.16105 0.07472
570.87529 0.07721
569.58953 0.07984
568.30378 0.08233
567.01802 0.08439
565.73227 0.08580
564.44651 0.08653
563.16076 0.08658
561.87500 0.08601
560.58925 0.08481
559.30349 0.08293
558.01774 0.08040
556.73198 0.07736
555.44623 0.07406
554.16047 0.07074
552.87472 0.06756
551.58896 0.06462
550.30321 0.06196
549.01745 0.05961
547.73170 0.05757
546.44594 0.05574
545.16019 0.05399
543.87443 0.05218
542.58868 0.05026
541.30292 0.04836
540.01717 0.04666
538.73141 0.04528
537.44566 0.04420
536.15990 0.04325
534.87415 0.04228
533.58839 0.04124
532.30264 0.04017
531.01688 0.03917
529.73112 0.03828
528.44537 0.03750
527.15961 0.03677
525.87386 0.03604
524.58810 0.03531
523.30235 0.03461
522.01659 0.03394
520.73084 0.03330
519.44508 0.03265
518.15933 0.03200
516.87357 0.03135
515.58782 0.03070
514.30206 0.03008
513.01631 0.02949
511.73055 0.02897
510.44480 0.02858
509.15904 0.02833
507.87329 0.02813
506.58753 0.02785
505.30178 0.02743
504.01602 0.02692
502.73027 0.02639
501.44451 0.02588
500.15876 0.02542
498.87300 0.02505
497.58725 0.02480
496.30149 0.02466
495.01574 0.02453
493.72998 0.02434
492.44423 0.02409
491.15847 0.02383
489.87271 0.02363
488.58696 0.02348
487.30120 0.02337
486.01545 0.02327
484.72969 0.02314
483.44394 0.02301
482.15818 0.02288
480.87243 0.02279
479.58667 0.02272
478.30092 0.02267
477.01516 0.02265
475.72941 0.02268
474.44365 0.02275
473.15790 0.02285
471.87214 0.02299
470.58639 0.02311
469.30063 0.02315
468.01488 0.02303
466.72912 0.02275
465.44337 0.02240
464.15761 0.02206
462.87186 0.02179
461.58610 0.02154
460.30035 0.02129
459.01459 0.02103
457.72884 0.02077
456.44308 0.02052
455.15733 0.02028
453.87157 0.02006
452.58582 0.01987
451.30006 0.01971
450.01431 0.01956
448.72855 0.01941
447.44279 0.01926
446.15704 0.01916
444.87128 0.01909
443.58553 0.01905
442.29977 0.01899
441.01402 0.01891
439.72826 0.01881
438.44251 0.01871
437.15675 0.01861
435.87100 0.01854
434.58524 0.01847
433.29949 0.01841
432.01373 0.01835
430.72798 0.01830
429.44222 0.01828
428.15647 0.01828
426.87071 0.01827
425.58496 0.01825
424.29920 0.01823
423.01345 0.01823
421.72769 0.01825
420.44194 0.01822
419.15618 0.01810
417.87043 0.01790
416.58467 0.01770
415.29892 0.01757
414.01316 0.01754
412.72741 0.01757
411.44165 0.01761
410.15590 0.01766
408.87014 0.01769
407.58438 0.01770
406.29863 0.01769
405.01287 0.01769
403.72712 0.01772
402.44136 0.01777
401.15561 0.01784
399.86985 0.01791
