3998.69854 0.08214
3997.41278 0.08750
3996.12703 0.09288
3994.84127 0.09578
3993.55552 0.09367
3992.26976 0.08709
3990.98401 0.08004
3989.69825 0.07722
3988.41250 0.08040
3987.12674 0.08712
3985.84099 0.09287
3984.55523 0.09465
3983.26948 0.09277
3981.98372 0.08991
3980.69797 0.08835
3979.41221 0.08840
3978.12646 0.08890
3976.84070 0.08904
3975.55495 0.08894
3974.26919 0.08896
3972.98344 0.08907
3971.69768 0.08915
3970.41193 0.08917
3969.12617 0.08880
3967.84042 0.08749
3966.55466 0.08542
3965.26891 0.08385
3963.98315 0.08400
3962.69740 0.08578
3961.41164 0.08799
3960.12589 0.08938
3958.84013 0.08929
3957.55437 0.08750
3956.26862 0.08409
3954.98286 0.07984
3953.69711 0.07649
3952.41135 0.07607
3951.12560 0.07900
3949.83984 0.08301
3948.55409 0.08481
3947.26833 0.08328
3945.98258 0.08050
3944.69682 0.07927
3943.41107 0.08016
3942.12531 0.08140
3940.83956 0.08142
3939.55380 0.08063
3938.26805 0.08051
3936.98229 0.08179
3935.69654 0.08416
3934.41078 0.08722
3933.12503 0.09064
3931.83927 0.09332
3930.55352 0.09388
3929.26776 0.09224
3927.98201 0.08993
3926.69625 0.08848
3925.41050 0.08819
3924.12474 0.08848
3922.83899 0.08885
3921.55323 0.08937
3920.26748 0.09052
3918.98172 0.09280
3917.69596 0.09633
3916.41021 0.10052
3915.12445 0.10400
3913.83870 0.10528
3912.55294 0.10385
3911.26719 0.10083
3909.98143 0.09813
3908.69568 0.09682
3907.40992 0.09676
3906.12417 0.09758
3904.83841 0.09918
3903.55266 0.10139
3902.26690 0.10365
3900.98115 0.10547
3899.69539 0.10662
3898.40964 0.10686
3897.12388 0.10585
3895.83813 0.10359
3894.55237 0.10024
3893.26662 0.09606
3891.98086 0.09192
3890.69511 0.08953
3889.40935 0.09022
3888.12360 0.09334
3886.83784 0.09647
3885.55209 0.09745
3884.26633 0.09626
3882.98058 0.09454
3881.69482 0.09363
3880.40907 0.09361
3879.12331 0.09373
3877.83755 0.09333
3876.55180 0.09215
3875.26604 0.09057
3873.98029 0.08945
3872.69453 0.08927
3871.40878 0.08935
3870.12302 0.08878
3868.83727 0.08777
3867.55151 0.08766
3866.26576 0.08913
3864.98000 0.09126
3863.69425 0.09254
3862.40849 0.09207
3861.12274 0.08974
3859.83698 0.08640
3858.55123 0.08372
3857.26547 0.08323
3855.97972 0.08482
3854.69396 0.08666
3853.40821 0.08702
3852.12245 0.08628
3850.83670 0.08672
3849.55094 0.09033
3848.26519 0.09629
3846.97943 0.10117
3845.69368 0.10208
3844.40792 0.09956
3843.12217 0.09682
3841.83641 0.09603
3840.55066 0.09646
3839.26490 0.09597
3837.97915 0.09363
3836.69339 0.09039
3835.40763 0.08766
3834.12188 0.08602
3832.83612 0.08534
3831.55037 0.08508
3830.26461 0.08474
3828.97886 0.08471
3827.69310 0.08679
3826.40735 0.09267
3825.12159 0.10118
3823.83584 0.10783
3822.55008 0.10854
3821.26433 0.10391
3819.97857 0.09858
3818.69282 0.09654
3817.40706 0.09765
3816.12131 0.09854
3814.83555 0.09594
3813.54980 0.08971
3812.26404 0.08362
3810.97829 0.08260
3809.69253 0.08816
3808.40678 0.09639
3807.12102 0.10161
3805.83527 0.10158
3804.54951 0.09875
3803.26376 0.09688
3801.97800 0.09766
3800.69225 0.10043
3799.40649 0.10349
3798.12074 0.10528
3796.83498 0.10540
3795.54922 0.10470
3794.26347 0.10430
3792.97771 0.10425
3791.69196 0.10348
3790.40620 0.10148
3789.12045 0.09959
3787.83469 0.09983
3786.54894 0.10239
3785.26318 0.10520
3783.97743 0.10641
3782.69167 0.10632
3781.40592 0.10599
3780.12016 0.10497
3778.83441 0.10197
3777.54865 0.09757
3776.26290 0.09447
3774.97714 0.09498
3773.69139 0.09884
3772.40563 0.10337
3771.11988 0.10516
3769.83412 0.10223
3768.54837 0.09593
3767.26261 0.09062
3765.97686 0.09023
3764.69110 0.09472
3763.40535 0.09991
3762.11959 0.10102
3760.83384 0.09680
3759.54808 0.09048
3758.26233 0.08658
3756.97657 0.08691
3755.69081 0.09018
3754.40506 0.09489
3753.11930 0.10120
3751.83355 0.10906
3750.54779 0.11642
3749.26204 0.12029
3747.97628 0.11953
3746.69053 0.11583
3745.40477 0.11193
3744.11902 0.10906
3742.83326 0.10612
3741.54751 0.10195
3740.26175 0.09737
3738.97600 0.09430
3737.69024 0.09331
3736.40449 0.09292
3735.11873 0.09179
3733.83298 0.09029
3732.54722 0.09018
3731.26147 0.09282
3729.97571 0.09804
3728.68996 0.10434
3727.40420 0.10989
3726.11845 0.11317
3724.83269 0.11320
3723.54694 0.10981
3722.26118 0.10405
3720.97543 0.09834
3719.68967 0.09557
3718.40392 0.09728
3717.11816 0.10233
3715.83241 0.10763
3714.54665 0.11039
3713.26089 0.11007
3711.97514 0.10852
3710.68938 0.10811
3709.40363 0.10935
3708.11787 0.11033
3706.83212 0.10904
3705.54636 0.10572
3704.26061 0.10247
3702.97485 0.10062
3701.68910 0.09976
3700.40334 0.09969
3699.11759 0.10164
3697.83183 0.10623
3696.54608 0.11197
3695.26032 0.11713
3693.97457 0.12195
3692.68881 0.12743
3691.40306 0.13251
3690.11730 0.13447
3688.83155 0.13131
3687.54579 0.12326
3686.26004 0.11226
3684.97428 0.10114
3683.68853 0.09346
3682.40277 0.09235
3681.11702 0.09848
3679.83126 0.10919
3678.54551 0.12001
3677.25975 0.12754
3675.97400 0.13123
3674.68824 0.13252
3673.40248 0.13223
3672.11673 0.12979
3670.83097 0.12550
3669.54522 0.12183
3668.25946 0.12048
3666.97371 0.11904
3665.68795 0.11323
3664.40220 0.10311
3663.11644 0.09441
3661.83069 0.09258
3660.54493 0.09701
3659.25918 0.10269
3657.97342 0.10601
3656.68767 0.10741
3655.40191 0.10890
3654.11616 0.11116
3652.83040 0.11332
3651.54465 0.11413
3650.25889 0.11265
3648.97314 0.10873
3647.68738 0.10338
3646.40163 0.09880
3645.11587 0.09760
3643.83012 0.10167
3642.54436 0.11038
3641.25861 0.12030
3639.97285 0.12719
3638.68710 0.12876
3637.40134 0.12563
3636.11559 0.12000
3634.82983 0.11423
3633.54408 0.11008
3632.25832 0.10828
3630.97256 0.10840
3629.68681 0.10998
3628.40105 0.11355
3627.11530 0.11941
3625.82954 0.12577
3624.54379 0.12992
3623.25803 0.13181
3621.97228 0.13474
3620.68652 0.14114
3619.40077 0.14909
3618.11501 0.15470
3616.82926 0.15681
3615.54350 0.15781
3614.25775 0.15942
3612.97199 0.15979
3611.68624 0.15551
3610.40048 0.14578
3609.11473 0.13411
3607.82897 0.12590
3606.54322 0.12424
3605.25746 0.12732
3603.97171 0.13037
3602.68595 0.13037
3601.40020 0.12842
3600.11444 0.12697
3598.82869 0.12632
3597.54293 0.12525
3596.25718 0.12392
3594.97142 0.12410
3593.68567 0.12710
3592.39991 0.13239
3591.11415 0.13810
3589.82840 0.14208
3588.54264 0.14360
3587.25689 0.14496
3585.97113 0.15010
3584.68538 0.16072
3583.39962 0.17415
3582.11387 0.18574
3580.82811 0.19229
3579.54236 0.19273
3578.25660 0.18698
3576.97085 0.17599
3575.68509 0.16302
3574.39934 0.15309
3573.11358 0.14966
3571.82783 0.15150
3570.54207 0.15405
3569.25632 0.15435
3567.97056 0.15414
3566.68481 0.15720
3565.39905 0.16394
3564.11330 0.16976
3562.82754 0.16951
3561.54179 0.16286
3560.25603 0.15417
3558.97028 0.14772
3557.68452 0.14451
3556.39877 0.14388
3555.11301 0.14641
3553.82726 0.15326
3552.54150 0.16303
3551.25574 0.17130
3549.96999 0.17415
3548.68423 0.17128
3547.39848 0.16540
3546.11272 0.15954
3544.82697 0.15584
3543.54121 0.15612
3542.25546 0.16167
3540.96970 0.17136
3539.68395 0.18074
3538.39819 0.18507
3537.11244 0.18360
3535.82668 0.18018
3534.54093 0.17951
3533.25517 0.18305
3531.96942 0.18846
3530.68366 0.19192
3529.39791 0.19081
3528.11215 0.18514
3526.82640 0.17770
3525.54064 0.17260
3524.25489 0.17266
3522.96913 0.17748
3521.68338 0.18442
3520.39762 0.19151
3519.11187 0.19862
3517.82611 0.20539
3516.54036 0.20932
3515.25460 0.20804
3513.96885 0.20317
3512.68309 0.19977
3511.39734 0.20088
3510.11158 0.20403
3508.82582 0.20469
3507.54007 0.20214
3506.25431 0.19988
3504.96856 0.20051
3503.68280 0.20282
3502.39705 0.20450
3501.11129 0.20550
3499.82554 0.20740
3498.53978 0.21074
3497.25403 0.21472
3495.96827 0.21844
3494.68252 0.22109
3493.39676 0.22141
3492.11101 0.21832
3490.82525 0.21246
3489.53950 0.20705
3488.25374 0.20658
3486.96799 0.21315
3485.68223 0.22327
3484.39648 0.22971
3483.11072 0.22793
3481.82497 0.22006
3480.53921 0.21197
3479.25346 0.20744
3477.96770 0.20643
3476.68195 0.20723
3475.39619 0.20818
3474.11044 0.20800
3472.82468 0.20653
3471.53893 0.20539
3470.25317 0.20643
3468.96741 0.20944
3467.68166 0.21271
3466.39590 0.21590
3465.11015 0.22067
3463.82439 0.22748
3462.53864 0.23331
3461.25288 0.23403
3459.96713 0.22907
3458.68137 0.22228
3457.39562 0.21827
3456.10986 0.21842
3454.82411 0.22007
3453.53835 0.21937
3452.25260 0.21501
3450.96684 0.20971
3449.68109 0.20745
3448.39533 0.20902
3447.10958 0.21125
3445.82382 0.21120
3444.53807 0.20995
3443.25231 0.21073
3441.96656 0.21381
3440.68080 0.21531
3439.39505 0.21181
3438.10929 0.20486
3436.82354 0.19967
3435.53778 0.20010
3434.25203 0.20639
3432.96627 0.21706
3431.68052 0.23083
3430.39476 0.24579
3429.10900 0.25795
3427.82325 0.26278
3426.53749 0.25860
3425.25174 0.24820
3423.96598 0.23702
3422.68023 0.22920
3421.39447 0.22522
3420.10872 0.22302
3418.82296 0.22110
3417.53721 0.21990
3416.25145 0.22029
3414.96570 0.22185
3413.67994 0.22311
3412.39419 0.22293
3411.10843 0.22105
3409.82268 0.21763
3408.53692 0.21310
3407.25117 0.20893
3405.96541 0.20771
3404.67966 0.21116
3403.39390 0.21701
3402.10815 0.22056
3400.82239 0.22203
3399.53664 0.22026
3398.25088 0.21700
3396.96513 0.21640
3395.67937 0.21842
3394.39362 0.22020
3393.10786 0.22005
3391.82211 0.21792
3390.53635 0.21397
3389.25060 0.20875
3387.96484 0.20449
3386.67908 0.20414
3385.39333 0.20809
3384.10757 0.21279
3382.82182 0.21399
3381.53606 0.21072
3380.25031 0.20511
3378.96455 0.19962
3377.67880 0.19560
3376.39304 0.19413
3375.10729 0.19591
3373.82153 0.20019
3372.53578 0.20478
3371.25002 0.20751
3369.96427 0.20709
3368.67851 0.20303
3367.39276 0.19608
3366.10700 0.18848
3364.82125 0.18270
3363.53549 0.17979
3362.24974 0.17891
3360.96398 0.17848
3359.67823 0.17791
3358.39247 0.17855
3357.10672 0.18279
3355.82096 0.19136
3354.53521 0.20183
3353.24945 0.21017
3351.96370 0.21401
3350.67794 0.21406
3349.39219 0.21271
3348.10643 0.21133
3346.82067 0.20932
3345.53492 0.20570
3344.24916 0.20096
3342.96341 0.19688
3341.67765 0.19466
3340.39190 0.19399
3339.10614 0.19386
3337.82039 0.19342
3336.53463 0.19207
3335.24888 0.18960
3333.96312 0.18647
3332.67737 0.18381
3331.39161 0.18287
3330.10586 0.18404
3328.82010 0.18615
3327.53435 0.18711
3326.24859 0.18587
3324.96284 0.18362
3323.67708 0.18235
3322.39133 0.18249
3321.10557 0.18275
3319.81982 0.18216
3318.53406 0.18130
3317.24831 0.18121
3315.96255 0.18153
3314.67680 0.18080
3313.39104 0.17858
3312.10529 0.17639
3310.81953 0.17596
3309.53378 0.17722
3308.24802 0.17874
3306.96227 0.17979
3305.67651 0.18088
3304.39075 0.18243
3303.10500 0.18358
3301.81924 0.18269
3300.53349 0.17907
3299.24773 0.17405
3297.96198 0.17007
3296.67622 0.16841
3295.39047 0.16821
3294.10471 0.16811
3292.81896 0.16826
3291.53320 0.16973
3290.24745 0.17239
3288.96169 0.17441
3287.67594 0.17415
3286.39018 0.17212
3285.10443 0.17063
3283.81867 0.17137
3282.53292 0.17346
3281.24716 0.17448
3279.96141 0.17324
3278.67565 0.17098
3277.38990 0.16979
3276.10414 0.17053
3274.81839 0.17248
3273.53263 0.17440
3272.24688 0.17553
3270.96112 0.17588
3269.67537 0.17590
3268.38961 0.17571
3267.10386 0.17483
3265.81810 0.17288
3264.53234 0.17030
3263.24659 0.16794
3261.96083 0.16622
3260.67508 0.16495
3259.38932 0.16384
3258.10357 0.16267
3256.81781 0.16104
3255.53206 0.15837
3254.24630 0.15487
3252.96055 0.15208
3251.67479 0.15182
3250.38904 0.15430
3249.10328 0.15747
3247.81753 0.15854
3246.53177 0.15610
3245.24602 0.15114
3243.96026 0.14621
3242.67451 0.14318
3241.38875 0.14200
3240.10300 0.14164
3238.81724 0.14208
3237.53149 0.14439
3236.24573 0.14880
3234.95998 0.15357
3233.67422 0.15630
3232.38847 0.15611
3231.10271 0.15441
3229.81696 0.15373
3228.53120 0.15554
3227.24545 0.15876
3225.95969 0.16029
3224.67393 0.15773
3223.38818 0.15180
3222.10242 0.14584
3220.81667 0.14261
3219.53091 0.14182
3218.24516 0.14134
3216.95940 0.14015
3215.67365 0.13934
3214.38789 0.14024
3213.10214 0.14251
3211.81638 0.14425
3210.53063 0.14388
3209.24487 0.14169
3207.95912 0.13975
3206.67336 0.13990
3205.38761 0.14196
3204.10185 0.14404
3202.81610 0.14462
3201.53034 0.14367
3200.24459 0.14164
3198.95883 0.13865
3197.67308 0.13531
3196.38732 0.13334
3195.10157 0.13451
3193.81581 0.13873
3192.53006 0.14388
3191.24430 0.14747
3189.95855 0.14840
3188.67279 0.14716
3187.38704 0.14482
3186.10128 0.14208
3184.81553 0.13912
3183.52977 0.13600
3182.24401 0.13314
3180.95826 0.13127
3179.67250 0.13059
3178.38675 0.13022
3177.10099 0.12902
3175.81524 0.12713
3174.52948 0.12604
3173.24373 0.12685
3171.95797 0.12867
3170.67222 0.12917
3169.38646 0.12689
3168.10071 0.12274
3166.81495 0.11911
3165.52920 0.11764
3164.24344 0.11795
3162.95769 0.11855
3161.67193 0.11852
3160.38618 0.11822
3159.10042 0.11848
3157.81467 0.11949
3156.52891 0.12052
3155.24316 0.12077
3153.95740 0.12053
3152.67165 0.12078
3151.38589 0.12176
3150.10014 0.12239
3148.81438 0.12146
3147.52863 0.11909
3146.24287 0.11656
3144.95712 0.11517
3143.67136 0.11555
3142.38560 0.11747
3141.09985 0.11967
3139.81409 0.12052
3138.52834 0.11942
3137.24258 0.11735
3135.95683 0.11557
3134.67107 0.11434
3133.38532 0.11328
3132.09956 0.11254
3130.81381 0.11288
3129.52805 0.11453
3128.24230 0.11662
3126.95654 0.11775
3125.67079 0.11699
3124.38503 0.11437
3123.09928 0.11101
3121.81352 0.10862
3120.52777 0.10830
3119.24201 0.10956
3117.95626 0.11071
3116.67050 0.11052
3115.38475 0.10923
3114.09899 0.10801
3112.81324 0.10785
3111.52748 0.10882
3110.24173 0.11005
3108.95597 0.11028
3107.67022 0.10888
3106.38446 0.10664
3105.09871 0.10521
3103.81295 0.10559
3102.52719 0.10726
3101.24144 0.10870
3099.95568 0.10876
3098.66993 0.10757
3097.38417 0.10632
3096.09842 0.10625
3094.81266 0.10761
3093.52691 0.10963
3092.24115 0.11121
3090.95540 0.11174
3089.66964 0.11122
3088.38389 0.10997
3087.09813 0.10847
3085.81238 0.10731
3084.52662 0.10685
3083.24087 0.10669
3081.95511 0.10580
3080.66936 0.10352
3079.38360 0.10041
3078.09785 0.09792
3076.81209 0.09720
3075.52634 0.09842
3074.24058 0.10093
3072.95483 0.10379
3071.66907 0.10603
3070.38332 0.10699
3069.09756 0.10671
3067.81181 0.10594
3066.52605 0.10535
3065.24030 0.10488
3063.95454 0.10385
3062.66879 0.10188
3061.38303 0.09959
3060.09727 0.09837
3058.81152 0.09916
3057.52576 0.10141
3056.24001 0.10329
3054.95425 0.10308
3053.66850 0.10077
3052.38274 0.09804
3051.09699 0.09675
3049.81123 0.09724
3048.52548 0.09825
3047.23972 0.09838
3045.95397 0.09746
3044.66821 0.09636
3043.38246 0.09597
3042.09670 0.09643
3040.81095 0.09730
3039.52519 0.09803
3038.23944 0.09837
3036.95368 0.09833
3035.66793 0.09786
3034.38217 0.09674
3033.09642 0.09495
3031.81066 0.09301
3030.52491 0.09175
3029.23915 0.09144
3027.95340 0.09167
3026.66764 0.09185
3025.38189 0.09182
3024.09613 0.09194
3022.81038 0.09253
3021.52462 0.09338
3020.23886 0.09365
3018.95311 0.09256
3017.66735 0.09020
3016.38160 0.08751
3015.09584 0.08549
3013.81009 0.08469
3012.52433 0.08515
3011.23858 0.08648
3009.95282 0.08798
3008.66707 0.08906
3007.38131 0.08985
3006.09556 0.09102
3004.80980 0.09268
3003.52405 0.09349
3002.23829 0.09229
3000.95254 0.09176
2999.66678 0.09238
2998.38103 0.09124
2997.09527 0.09035
2995.80952 0.08970
2994.52376 0.08935
2993.23801 0.08929
2991.95225 0.08925
2990.66650 0.08902
2989.38074 0.08865
2988.09499 0.08828
2986.80923 0.08805
2985.52348 0.08842
2984.23772 0.08982
2982.95197 0.09190
2981.66621 0.09351
2980.38046 0.09395
2979.09470 0.09387
2977.80894 0.09460
2976.52319 0.09660
2975.23743 0.09897
2973.95168 0.10034
2972.66592 0.10013
2971.38017 0.09894
2970.09441 0.09817
2968.80866 0.09907
2967.52290 0.10184
2966.23715 0.10544
2964.95139 0.10850
2963.66564 0.11043
2962.37988 0.11143
2961.09413 0.11189
2959.80837 0.11181
2958.52262 0.11105
2957.23686 0.10964
2955.95111 0.10785
2954.66535 0.10594
2953.37960 0.10397
2952.09384 0.10191
2950.80809 0.09992
2949.52233 0.09834
2948.23658 0.09749
2946.95082 0.09741
2945.66507 0.09793
2944.37931 0.09869
2943.09356 0.09928
2941.80780 0.09952
2940.52205 0.09958
2939.23629 0.09964
2937.95053 0.09952
2936.66478 0.09895
2935.37902 0.09805
2934.09327 0.09739
2932.80751 0.09726
2931.52176 0.09714
2930.23600 0.09627
2928.95025 0.09472
2927.66449 0.09356
2926.37874 0.09359
2925.09298 0.09436
2923.80723 0.09476
2922.52147 0.09422
2921.23572 0.09306
2919.94996 0.09180
2918.66421 0.09072
2917.37845 0.08991
2916.09270 0.08936
2914.80694 0.08900
2913.52119 0.08890
2912.23543 0.08924
2910.94968 0.08997
2909.66392 0.09065
2908.37817 0.09073
2907.09241 0.09009
2905.80666 0.08902
2904.52090 0.08801
2903.23515 0.08732
2901.94939 0.08682
2900.66364 0.08610
2899.37788 0.08485
2898.09212 0.08329
2896.80637 0.08213
2895.52061 0.08197
2894.23486 0.08269
2892.94910 0.08360
2891.66335 0.08410
2890.37759 0.08410
2889.09184 0.08387
2887.80608 0.08364
2886.52033 0.08334
2885.23457 0.08277
2883.94882 0.08204
2882.66306 0.08156
2881.37731 0.08152
2880.09155 0.08155
2878.80580 0.08124
2877.52004 0.08060
2876.23429 0.07997
2874.94853 0.07948
2873.66278 0.07906
2872.37702 0.07861
2871.09127 0.07801
2869.80551 0.07729
2868.51976 0.07682
2867.23400 0.07693
2865.94825 0.07739
2864.66249 0.07755
2863.37674 0.07716
2862.09098 0.07661
2860.80523 0.07627
2859.51947 0.07587
2858.23372 0.07504
2856.94796 0.07399
2855.66220 0.07346
2854.37645 0.07380
2853.09069 0.07457
2851.80494 0.07501
2850.51918 0.07484
2849.23343 0.07411
2847.94767 0.07287
2846.66192 0.07121
2845.37616 0.06964
2844.09041 0.06880
2842.80465 0.06885
2841.51890 0.06924
2840.23314 0.06942
2838.94739 0.06942
2837.66163 0.06951
2836.37588 0.06959
2835.09012 0.06934
2833.80437 0.06881
2832.51861 0.06852
2831.23286 0.06869
2829.94710 0.06893
2828.66135 0.06871
2827.37559 0.06787
2826.08984 0.06659
2824.80408 0.06525
2823.51833 0.06446
2822.23257 0.06479
2820.94682 0.06619
2819.66106 0.06777
2818.37531 0.06849
2817.08955 0.06790
2815.80379 0.06643
2814.51804 0.06481
2813.23228 0.06353
2811.94653 0.06263
2810.66077 0.06202
2809.37502 0.06169
2808.08926 0.06163
2806.80351 0.06164
2805.51775 0.06151
2804.23200 0.06132
2802.94624 0.06151
2801.66049 0.06243
2800.37473 0.06381
2799.08898 0.06477
2797.80322 0.06451
2796.51747 0.06315
2795.23171 0.06162
2793.94596 0.06070
2792.66020 0.06046
2791.37445 0.06060
2790.08869 0.06086
2788.80294 0.06105
2787.51718 0.06083
2786.23143 0.05992
2784.94567 0.05855
2783.65992 0.05744
2782.37416 0.05731
2781.08841 0.05824
2779.80265 0.05967
2778.51690 0.06086
2777.23114 0.06140
2775.94538 0.06131
2774.65963 0.06093
2773.37387 0.06058
2772.08812 0.06032
2770.80236 0.05997
2769.51661 0.05946
2768.23085 0.05901
2766.94510 0.05885
2765.65934 0.05885
2764.37359 0.05854
2763.08783 0.05763
2761.80208 0.05637
2760.51632 0.05544
2759.23057 0.05535
2757.94481 0.05603
2756.65906 0.05702
2755.37330 0.05774
2754.08755 0.05794
2752.80179 0.05773
2751.51604 0.05745
2750.23028 0.05737
2748.94453 0.05742
2747.65877 0.05720
2746.37302 0.05646
2745.08726 0.05554
2743.80151 0.05505
2742.51575 0.05524
2741.23000 0.05576
2739.94424 0.05612
2738.65849 0.05616
2737.37273 0.05608
2736.08698 0.05609
2734.80122 0.05628
2733.51546 0.05657
2732.22971 0.05677
2730.94395 0.05672
2729.65820 0.05641
2728.37244 0.05600
2727.08669 0.05559
2725.80093 0.05515
2724.51518 0.05467
2723.22942 0.05441
2721.94367 0.05457
2720.65791 0.05496
2719.37216 0.05517
2718.08640 0.05502
2716.80065 0.05471
2715.51489 0.05449
2714.22914 0.05439
2712.94338 0.05432
2711.65763 0.05423
2710.37187 0.05414
2709.08612 0.05398
2707.80036 0.05368
2706.51461 0.05331
2705.22885 0.05294
2703.94310 0.05255
2702.65734 0.05207
2701.37159 0.05164
2700.08583 0.05158
2698.80008 0.05205
2697.51432 0.05278
2696.22857 0.05320
2694.94281 0.05285
2693.65705 0.05189
2692.37130 0.05100
2691.08554 0.05077
2689.79979 0.05114
2688.51403 0.05158
2687.22828 0.05160
2685.94252 0.05116
2684.65677 0.05057
2683.37101 0.05017
2682.08526 0.05011
2680.79950 0.05034
2679.51375 0.05069
2678.22799 0.05086
2676.94224 0.05071
2675.65648 0.05037
2674.37073 0.05019
2673.08497 0.05031
2671.79922 0.05043
2670.51346 0.05021
2669.22771 0.04967
2667.94195 0.04922
2666.65620 0.04929
2665.37044 0.05002
2664.08469 0.05121
2662.79893 0.05243
2661.51318 0.05337
2660.22742 0.05399
2658.94167 0.05437
2657.65591 0.05456
2656.37016 0.05464
2655.08440 0.05477
2653.79865 0.05516
2652.51289 0.05578
2651.22713 0.05631
2649.94138 0.05629
2648.65562 0.05562
2647.36987 0.05475
2646.08411 0.05435
2644.79836 0.05465
2643.51260 0.05526
2642.22685 0.05571
2640.94109 0.05582
2639.65534 0.05572
2638.36958 0.05549
2637.08383 0.05516
2635.79807 0.05474
2634.51232 0.05422
2633.22656 0.05360
2631.94081 0.05298
2630.65505 0.05261
2629.36930 0.05271
2628.08354 0.05323
2626.79779 0.05381
2625.51203 0.05401
2624.22628 0.05364
2622.94052 0.05284
2621.65477 0.05185
2620.36901 0.05075
2619.08326 0.04956
2617.79750 0.04836
2616.51175 0.04746
2615.22599 0.04707
2613.94024 0.04707
2612.65448 0.04711
2611.36872 0.04698
2610.08297 0.04689
2608.79721 0.04711
2607.51146 0.04759
2606.22570 0.04808
2604.93995 0.04835
2603.65419 0.04824
2602.36844 0.04764
2601.08268 0.04662
2599.79693 0.04557
2598.51117 0.04499
2597.22542 0.04503
2595.93966 0.04534
2594.65391 0.04547
2593.36815 0.04527
2592.08240 0.04494
2590.79664 0.04474
2589.51089 0.04480
2588.22513 0.04514
2586.93938 0.04578
2585.65362 0.04654
2584.36787 0.04716
2583.08211 0.04752
2581.79636 0.04768
2580.51060 0.04779
2579.22485 0.04776
2577.93909 0.04738
2576.65334 0.04649
2575.36758 0.04531
2574.08183 0.04437
2572.79607 0.04397
2571.51031 0.04387
2570.22456 0.04349
2568.93880 0.04260
2567.65305 0.04149
2566.36729 0.04065
2565.08154 0.04033
2563.79578 0.04041
2562.51003 0.04056
2561.22427 0.04070
2559.93852 0.04101
2558.65276 0.04168
2557.36701 0.04261
2556.08125 0.04349
2554.79550 0.04412
2553.50974 0.04441
2552.22399 0.04418
2550.93823 0.04337
2549.65248 0.04230
2548.36672 0.04150
2547.08097 0.04105
2545.79521 0.04052
2544.50946 0.03952
2543.22370 0.03836
2541.93795 0.03786
2540.65219 0.03851
2539.36644 0.03991
2538.08068 0.04108
2536.79493 0.04142
2535.50917 0.04124
2534.22342 0.04123
2532.93766 0.04163
2531.65191 0.04211
2530.36615 0.04231
2529.08039 0.04209
2527.79464 0.04149
2526.50888 0.04059
2525.22313 0.03959
2523.93737 0.03863
2522.65162 0.03768
2521.36586 0.03686
2520.08011 0.03657
2518.79435 0.03696
2517.50860 0.03749
2516.22284 0.03739
2514.93709 0.03648
2513.65133 0.03537
2512.36558 0.03495
2511.07982 0.03564
2509.79407 0.03702
2508.50831 0.03810
2507.22256 0.03824
2505.93680 0.03783
2504.65105 0.03761
2503.36529 0.03782
2502.07954 0.03820
2500.79378 0.03871
2499.50803 0.03961
2498.22227 0.04090
2496.93652 0.04196
2495.65076 0.04218
2494.36501 0.04153
2493.07925 0.04063
2491.79350 0.04000
2490.50774 0.03961
2489.22198 0.03899
2487.93623 0.03788
2486.65047 0.03662
2485.36472 0.03580
2484.07896 0.03568
2482.79321 0.03602
2481.50745 0.03649
2480.22170 0.03685
2478.93594 0.03683
2477.65019 0.03610
2476.36443 0.03468
2475.07868 0.03331
2473.79292 0.03302
2472.50717 0.03409
2471.22141 0.03573
2469.93566 0.03687
2468.64990 0.03711
2467.36415 0.03690
2466.07839 0.03674
2464.79264 0.03673
2463.50688 0.03671
2462.22113 0.03664
2460.93537 0.03656
2459.64962 0.03639
2458.36386 0.03621
2457.07811 0.03639
2455.79235 0.03723
2454.50660 0.03841
2453.22084 0.03923
2451.93509 0.03928
2450.64933 0.03873
2449.36357 0.03798
2448.07782 0.03732
2446.79206 0.03688
2445.50631 0.03686
2444.22055 0.03735
2442.93480 0.03816
2441.64904 0.03867
2440.36329 0.03825
2439.07753 0.03679
2437.79178 0.03486
2436.50602 0.03327
2435.22027 0.03250
2433.93451 0.03253
2432.64876 0.03307
2431.36300 0.03372
2430.07725 0.03418
2428.79149 0.03439
2427.50574 0.03443
2426.21998 0.03433
2424.93423 0.03402
2423.64847 0.03360
2422.36272 0.03342
2421.07696 0.03378
2419.79121 0.03451
2418.50545 0.03498
2417.21970 0.03470
2415.93394 0.03381
2414.64819 0.03300
2413.36243 0.03295
2412.07668 0.03358
2410.79092 0.03411
2409.50517 0.03372
2408.21941 0.03235
2406.93365 0.03081
2405.64790 0.02997
2404.36214 0.03011
2403.07639 0.03083
2401.79063 0.03157
2400.50488 0.03179
2399.21912 0.02907
2397.93337 0.02948
2396.64761 0.02972
2395.36186 0.02961
2394.07610 0.03008
2392.79035 0.03089
2391.50459 0.03135
2390.21884 0.03124
2388.93308 0.03093
2387.64733 0.03082
2386.36157 0.03099
2385.07582 0.03129
2383.79006 0.03153
2382.50431 0.03161
2381.21855 0.03141
2379.93280 0.03098
2378.64704 0.03041
2377.36129 0.03019
2376.07553 0.03060
2374.78978 0.03118
2373.50402 0.03136
2372.21827 0.03095
2370.93251 0.03032
2369.64676 0.02971
2368.36100 0.02934
2367.07524 0.02930
2365.78949 0.02922
2364.50373 0.02912
2363.21798 0.02956
2361.93222 0.03036
2360.64647 0.03118
2359.36071 0.03185
2358.07496 0.03212
2356.78920 0.03192
2355.50345 0.03166
2354.21769 0.03172
2352.93194 0.03216
2351.64618 0.03255
2350.36043 0.03299
2349.07467 0.03361
2347.78892 0.03396
2346.50316 0.03360
2345.21741 0.03318
2343.93165 0.03312
2342.64590 0.03357
2341.36014 0.03315
2340.07439 0.03227
2338.78863 0.03245
2337.50288 0.03322
2336.21712 0.03302
2334.93137 0.03258
2333.64561 0.03291
2332.35986 0.03382
2331.07410 0.03366
2329.78835 0.03489
2328.50259 0.03808
2327.21684 0.04189
2325.93108 0.04545
2324.64532 0.04730
2323.35957 0.04694
2322.07381 0.04456
2320.78806 0.04224
2319.50230 0.04096
2318.21655 0.04036
2316.93079 0.04011
2315.64504 0.04014
2314.35928 0.04056
2313.07353 0.04089
2311.78777 0.04067
2310.50202 0.04014
2309.21626 0.03962
2307.93051 0.03918
2306.64475 0.03877
2305.35900 0.03815
2304.07324 0.03751
2302.78749 0.03709
2301.50173 0.03684
2300.21598 0.03662
2298.93022 0.03630
2297.64447 0.03604
2296.35871 0.03614
2295.07296 0.03667
2293.78720 0.03745
2292.50145 0.03812
2291.21569 0.03862
2289.92994 0.03921
2288.64418 0.04012
2287.35843 0.04108
2286.07267 0.04142
2284.78691 0.04076
2283.50116 0.03943
2282.21540 0.03815
2280.92965 0.03736
2279.64389 0.03699
2278.35814 0.03668
2277.07238 0.03605
2275.78663 0.03486
2274.50087 0.03337
2273.21512 0.03221
2271.92936 0.03188
2270.64361 0.03215
2269.35785 0.03234
2268.07210 0.03213
2266.78634 0.03175
2265.50059 0.03151
2264.21483 0.03143
2262.92908 0.03144
2261.64332 0.03157
2260.35757 0.03181
2259.07181 0.03188
2257.78606 0.03153
2256.50030 0.03093
2255.21455 0.03045
2253.92879 0.03033
2252.64304 0.03086
2251.35728 0.03261
2250.07153 0.03477
2248.78577 0.03388
2247.50002 0.03316
2246.21426 0.03129
2244.92850 0.02917
2243.64275 0.02773
2242.35699 0.02713
2241.07124 0.02708
2239.78548 0.02753
2238.49973 0.02870
2237.21397 0.03047
2235.92822 0.03211
2234.64246 0.03283
2233.35671 0.03248
2232.07095 0.03152
2230.78520 0.03046
2229.49944 0.02963
2228.21369 0.02926
2226.92793 0.02936
2225.64218 0.02946
2224.35642 0.02894
2223.07067 0.02766
2221.78491 0.02615
2220.49916 0.02489
2219.21340 0.02385
2217.92765 0.02305
2216.64189 0.02302
2215.35614 0.02417
2214.07038 0.02603
2212.78463 0.02747
2211.49887 0.02796
2210.21312 0.02782
2208.92736 0.02750
2207.64161 0.02704
2206.35585 0.02629
2205.07010 0.02540
2203.78434 0.02461
2202.49858 0.02399
2201.21283 0.02338
2199.92707 0.02258
2198.64132 0.02139
2197.35556 0.01992
2196.06981 0.01882
2194.78405 0.01906
2193.49830 0.02093
2192.21254 0.02353
2190.92679 0.02568
2189.64103 0.02715
2188.35528 0.02852
2187.06952 0.02970
2185.78377 0.02937
2184.49801 0.02635
2183.21226 0.02135
2181.92650 0.01682
2180.64075 0.01481
2179.35499 0.01509
2178.06924 0.01583
2176.78348 0.01567
2175.49773 0.01482
2174.21197 0.01418
2172.92622 0.01442
2171.64046 0.01594
2170.35471 0.01884
2169.06895 0.02223
2167.78320 0.02445
2166.49744 0.02478
2165.21169 0.02434
2163.92593 0.02431
2162.64017 0.02348
2161.35442 0.01901
2160.06866 0.01040
2158.78291 0.00157
2157.49715 -0.00263
2156.21140 -0.00123
2154.92564 0.00323
2153.63989 0.00786
2152.35413 0.01115
2151.06838 0.01284
2149.78262 0.01333
2148.49687 0.01333
2147.21111 0.01346
2145.92536 0.01385
2144.63960 0.01405
2143.35385 0.01356
2142.06809 0.01253
2140.78234 0.01182
2139.49658 0.01217
2138.21083 0.01316
2136.92507 0.01335
2135.63932 0.01175
2134.35356 0.00900
2133.06781 0.00687
2131.78205 0.00664
2130.49630 0.00831
2129.21054 0.01110
2127.92479 0.01406
2126.63903 0.01645
2125.35328 0.01781
2124.06752 0.01819
2122.78176 0.01807
2121.49601 0.01798
2120.21025 0.01826
2118.92450 0.01895
2117.63874 0.01986
2116.35299 0.02069
2115.06723 0.02141
2113.78148 0.02224
2112.49572 0.02324
2111.20997 0.02393
2109.92421 0.02383
2108.63846 0.02303
2107.35270 0.02210
2106.06695 0.02148
2104.78119 0.02120
2103.49544 0.02119
2102.20968 0.02151
2100.92393 0.02202
2099.63817 0.02026
2098.35242 0.01767
2097.06666 0.01529
2095.78091 0.01346
2094.49515 0.01305
2093.20940 0.01437
2091.92364 0.01649
2090.63789 0.01810
2089.35213 0.01856
2088.06638 0.01834
2086.78062 0.01838
2085.49487 0.01910
2084.20911 0.01997
2082.92336 0.02014
2081.63760 0.01939
2080.35184 0.01833
2079.06609 0.01769
2077.78033 0.01763
2076.49458 0.01784
2075.20882 0.01797
2073.92307 0.01792
2072.63731 0.01766
2071.35156 0.01712
2070.06580 0.01618
2068.78005 0.01497
2067.49429 0.01386
2066.20854 0.01335
2064.92278 0.01365
2063.63703 0.01444
2062.35127 0.01513
2061.06552 0.01554
2059.77976 0.01617
2058.49401 0.01747
2057.20825 0.01909
2055.92250 0.02048
2054.63674 0.02172
2053.35099 0.02302
2052.06523 0.02343
2050.77948 0.02132
2049.49372 0.01643
2048.20797 0.01081
2046.92221 0.00715
2045.63646 0.00659
2044.35070 0.00819
2043.06495 0.01030
2041.77919 0.01189
2040.49343 0.01296
2039.20768 0.01370
2037.92192 0.01370
2036.63617 0.01233
2035.35041 0.00977
2034.06466 0.00722
2032.77890 0.00574
2031.49315 0.00523
2030.20739 0.00481
2028.92164 0.00390
2027.63588 0.00279
2026.35013 0.00216
2025.06437 0.00254
2023.77862 0.00397
2022.49286 0.00599
2021.20711 0.00777
2019.92135 0.00844
2018.63560 0.00779
2017.34984 0.00650
2016.06409 0.00556
2014.77833 0.00542
2013.49258 0.00582
2012.20682 0.00611
2010.92107 0.00581
2009.63531 0.00487
2008.34956 0.00360
2007.06380 0.00240
2005.77805 0.00148
2004.49229 0.00086
2003.20654 0.00059
2001.92078 0.00095
2000.63503 0.00242
1999.34927 0.00531
1998.06351 0.00914
1996.77776 0.01275
1995.49200 0.01513
1994.20625 0.01637
1992.92049 0.01731
1991.63474 0.01845
1990.34898 0.01949
1989.06323 0.01991
1987.77747 0.01968
1986.49172 0.01907
1985.20596 0.01814
1983.92021 0.01672
1982.63445 0.01482
1981.34870 0.01267
1980.06294 0.01042
1978.77719 0.00800
1977.49143 0.00543
1976.20568 0.00311
1974.91992 0.00164
1973.63417 0.00137
1972.34841 0.00213
1971.06266 0.00351
1969.77690 0.00512
1968.49115 0.00653
1967.20539 0.00724
1965.91964 0.00702
1964.63388 0.00622
1963.34813 0.00551
1962.06237 0.00543
1960.77662 0.00611
1959.49086 0.00742
1958.20510 0.00884
1956.91935 0.00966
1955.63359 0.00950
1954.34784 0.00875
1953.06208 0.00821
1951.77633 0.00838
1950.49057 0.00908
1949.20482 0.00970
1947.91906 0.00985
1946.63331 0.00959
1945.34755 0.00921
1944.06180 0.00899
1942.77604 0.00904
1941.49029 0.00938
1940.20453 0.00987
1938.91878 0.01036
1937.63302 0.01082
1936.34727 0.01124
1935.06151 0.01147
1933.77576 0.01127
1932.49000 0.01061
1931.20425 0.00980
1929.91849 0.00929
1928.63274 0.00939
1927.34698 0.01005
1926.06123 0.01095
1924.77547 0.01176
1923.48972 0.01240
1922.20396 0.01297
1920.91821 0.01350
1919.63245 0.01392
1918.34669 0.01412
1917.06094 0.01411
1915.77518 0.01397
1914.48943 0.01372
1913.20367 0.01329
1911.91792 0.01263
1910.63216 0.01190
1909.34641 0.01140
1908.06065 0.01140
1906.77490 0.01182
1905.48914 0.01235
1904.20339 0.01273
1902.91763 0.01288
1901.63188 0.01291
1900.34612 0.01295
1899.06037 0.01300
1897.77461 0.01298
1896.48886 0.01282
1895.20310 0.01263
1893.91735 0.01254
1892.63159 0.01261
1891.34584 0.01276
1890.06008 0.01293
1888.77433 0.01314
1887.48857 0.01334
1886.20282 0.01344
1884.91706 0.01332
1883.63131 0.01307
1882.34555 0.01293
1881.05980 0.01306
1879.77404 0.01345
1878.48829 0.01387
1877.20253 0.01409
1875.91677 0.01403
1874.63102 0.01383
1873.34526 0.01374
1872.05951 0.01389
1870.77375 0.01420
1869.48800 0.01451
1868.20224 0.01463
1866.91649 0.01452
1865.63073 0.01428
1864.34498 0.01406
1863.05922 0.01388
1861.77347 0.01371
1860.48771 0.01357
1859.20196 0.01357
1857.91620 0.01380
1856.63045 0.01414
1855.34469 0.01438
1854.05894 0.01433
1852.77318 0.01397
1851.48743 0.01343
1850.20167 0.01301
1848.91592 0.01302
1847.63016 0.01348
1846.34441 0.01413
1845.05865 0.01463
1843.77290 0.01484
1842.48714 0.01474
1841.20139 0.01436
1839.91563 0.01386
1838.62988 0.01356
1837.34412 0.01361
1836.05836 0.01390
1834.77261 0.01421
1833.48685 0.01443
1832.20110 0.01464
1830.91534 0.01486
1829.62959 0.01499
1828.34383 0.01487
1827.05808 0.01445
1825.77232 0.01386
1824.48657 0.01330
1823.20081 0.01286
1821.91506 0.01244
1820.62930 0.01193
1819.34355 0.01143
1818.05779 0.01131
1816.77204 0.01184
1815.48628 0.01289
1814.20053 0.01397
1812.91477 0.01476
1811.62902 0.01524
1810.34326 0.01559
1809.05751 0.01588
1807.77175 0.01606
1806.48600 0.01606
1805.20024 0.01595
1803.91449 0.01585
1802.62873 0.01585
1801.34298 0.01589
1800.05722 0.01585
1798.77147 0.01575
1797.48571 0.01578
1796.19995 0.01612
1794.91420 0.01668
1793.62844 0.01713
1792.34269 0.01714
1791.05693 0.01662
1789.77118 0.01587
1788.48542 0.01532
1787.19967 0.01523
1785.91391 0.01557
1784.62816 0.01606
1783.34240 0.01644
1782.05665 0.01650
1780.77089 0.01619
1779.48514 0.01562
1778.19938 0.01510
1776.91363 0.01495
1775.62787 0.01529
1774.34212 0.01591
1773.05636 0.01648
1771.77061 0.01679
1770.48485 0.01678
1769.19910 0.01651
1767.91334 0.01618
1766.62759 0.01601
1765.34183 0.01613
1764.05608 0.01641
1762.77032 0.01664
1761.48457 0.01677
1760.19881 0.01685
1758.91306 0.01687
1757.62730 0.01681
1756.34155 0.01677
1755.05579 0.01694
1753.77003 0.01731
1752.48428 0.01763
1751.19852 0.01768
1749.91277 0.01736
1748.62701 0.01681
1747.34126 0.01627
1746.05550 0.01599
1744.76975 0.01605
1743.48399 0.01625
1742.19824 0.01628
1740.91248 0.01605
1739.62673 0.01587
1738.34097 0.01618
1737.05522 0.01706
1735.76946 0.01811
1734.48371 0.01878
1733.19795 0.01885
1731.91220 0.01847
1730.62644 0.01792
1729.34069 0.01757
1728.05493 0.01759
1726.76918 0.01780
1725.48342 0.01790
1724.19767 0.01787
1722.91191 0.01806
1721.62616 0.01881
1720.34040 0.02008
1719.05465 0.02139
1717.76889 0.02219
1716.48314 0.02225
1715.19738 0.02181
1713.91162 0.02134
1712.62587 0.02121
1711.34011 0.02167
1710.05436 0.02260
1708.76860 0.02364
1707.48285 0.02447
1706.19709 0.02519
1704.91134 0.02616
1703.62558 0.02754
1702.33983 0.02915
1701.05407 0.03075
1699.76832 0.03226
1698.48256 0.03363
1697.19681 0.03470
1695.91105 0.03543
1694.62530 0.03595
1693.33954 0.03648
1692.05379 0.03717
1690.76803 0.03828
1689.48228 0.04014
1688.19652 0.04277
1686.91077 0.04555
1685.62501 0.04777
1684.33926 0.04899
1683.05350 0.04932
1681.76775 0.04942
1680.48199 0.05001
1679.19624 0.05148
1677.91048 0.05354
1676.62473 0.05559
1675.33897 0.05719
1674.05322 0.05840
1672.76746 0.05957
1671.48170 0.06086
1670.19595 0.06221
1668.91019 0.06351
1667.62444 0.06476
1666.33868 0.06604
1665.05293 0.06738
1663.76717 0.06865
1662.48142 0.06955
1661.19566 0.06991
1659.90991 0.06993
1658.62415 0.07030
1657.33840 0.07172
1656.05264 0.07406
1654.76689 0.07625
1653.48113 0.07716
1652.19538 0.07669
1650.90962 0.07572
1649.62387 0.07511
1648.33811 0.07528
1647.05236 0.07594
1645.76660 0.07646
1644.48085 0.07638
1643.19509 0.07577
1641.90934 0.07512
1640.62358 0.07493
1639.33783 0.07537
1638.05207 0.07606
1636.76632 0.07626
1635.48056 0.07551
1634.19481 0.07395
1632.90905 0.07210
1631.62329 0.07043
1630.33754 0.06918
1629.05178 0.06837
1627.76603 0.06776
1626.48027 0.06705
1625.19452 0.06601
1623.90876 0.06457
1622.62301 0.06295
1621.33725 0.06155
1620.05150 0.06068
1618.76574 0.06019
1617.47999 0.05959
1616.19423 0.05848
1614.90848 0.05689
1613.62272 0.05525
1612.33697 0.05402
1611.05121 0.05334
1609.76546 0.05298
1608.47970 0.05263
1607.19395 0.05213
1605.90819 0.05156
1604.62244 0.05101
1603.33668 0.05053
1602.05093 0.05013
1600.76517 0.04980
1599.47942 0.04954
1598.19366 0.04938
1596.90791 0.04928
1595.62215 0.04926
1594.33640 0.04928
1593.05064 0.04934
1591.76488 0.04942
1590.47913 0.04951
1589.19337 0.04964
1587.90762 0.04983
1586.62186 0.05003
1585.33611 0.05016
1584.05035 0.05016
1582.76460 0.05015
1581.47884 0.05039
1580.19309 0.05114
1578.90733 0.05230
1577.62158 0.05348
1576.33582 0.05418
1575.05007 0.05429
1573.76431 0.05416
1572.47856 0.05428
1571.19280 0.05483
1569.90705 0.05558
1568.62129 0.05610
1567.33554 0.05608
1566.04978 0.05569
1564.76403 0.05557
1563.47827 0.05631
1562.19252 0.05791
1560.90676 0.05972
1559.62101 0.06100
1558.33525 0.06125
1557.04950 0.06066
1555.76374 0.05987
1554.47799 0.05951
1553.19223 0.05979
1551.90648 0.06043
1550.62072 0.06107
1549.33496 0.06149
1548.04921 0.06167
1546.76345 0.06176
1545.47770 0.06198
1544.19194 0.06250
1542.90619 0.06323
1541.62043 0.06381
1540.33468 0.06378
1539.04892 0.06301
1537.76317 0.06194
1536.47741 0.06120
1535.19166 0.06112
1533.90590 0.06153
1532.62015 0.06204
1531.33439 0.06238
1530.04864 0.06248
1528.76288 0.06251
1527.47713 0.06265
1526.19137 0.06301
1524.90562 0.06360
1523.61986 0.06429
1522.33411 0.06483
1521.04835 0.06507
1519.76260 0.06507
1518.47684 0.06503
1517.19109 0.06514
1515.90533 0.06542
1514.61958 0.06579
1513.33382 0.06620
1512.04807 0.06690
1510.76231 0.06818
1509.47655 0.07003
1508.19080 0.07191
1506.90504 0.07309
1505.61929 0.07328
1504.33353 0.07275
1503.04778 0.07226
1501.76202 0.07246
1500.47627 0.07346
1499.19051 0.07479
1497.90476 0.07584
1496.61900 0.07630
1495.33325 0.07625
1494.04749 0.07610
1492.76174 0.07621
1491.47598 0.07669
1490.19023 0.07732
1488.90447 0.07786
1487.61872 0.07825
1486.33296 0.07866
1485.04721 0.07929
1483.76145 0.08019
1482.47570 0.08124
1481.18994 0.08228
1479.90419 0.08332
1478.61843 0.08449
1477.33268 0.08597
1476.04692 0.08775
1474.76117 0.08955
1473.47541 0.09096
1472.18966 0.09181
1470.90390 0.09226
1469.61814 0.09259
1468.33239 0.09307
1467.04663 0.09372
1465.76088 0.09430
1464.47512 0.09465
1463.18937 0.09492
1461.90361 0.09557
1460.61786 0.09696
1459.33210 0.09895
1458.04635 0.10090
1456.76059 0.10208
1455.47484 0.10229
1454.18908 0.10194
1452.90333 0.10162
1451.61757 0.10167
1450.33182 0.10203
1449.04606 0.10239
1447.76031 0.10244
1446.47455 0.10205
1445.18880 0.10125
1443.90304 0.10016
1442.61729 0.09899
1441.33153 0.09801
1440.04578 0.09740
1438.76002 0.09707
1437.47427 0.09676
1436.18851 0.09631
1434.90276 0.09582
1433.61700 0.09549
1432.33125 0.09557
1431.04549 0.09614
1429.75974 0.09706
1428.47398 0.09816
1427.18822 0.09934
1425.90247 0.10065
1424.61671 0.10218
1423.33096 0.10401
1422.04520 0.10603
1420.75945 0.10800
1419.47369 0.10962
1418.18794 0.11075
1416.90218 0.11146
1415.61643 0.11194
1414.33067 0.11238
1413.04492 0.11281
1411.75916 0.11308
1410.47341 0.11302
1409.18765 0.11259
1407.90190 0.11178
1406.61614 0.11063
1405.33039 0.10918
1404.04463 0.10750
1402.75888 0.10568
1401.47312 0.10374
1400.18737 0.10173
1398.90161 0.09963
1397.61586 0.09744
1396.33010 0.09512
1395.04435 0.09262
1393.75859 0.09002
1392.47284 0.08750
1391.18708 0.08520
1389.90133 0.08314
1388.61557 0.08118
1387.32981 0.07913
1386.04406 0.07694
1384.75830 0.07465
1383.47255 0.07242
1382.18679 0.07032
1380.90104 0.06834
1379.61528 0.06644
1378.32953 0.06457
1377.04377 0.06268
1375.75802 0.06076
1374.47226 0.05881
1373.18651 0.05686
1371.90075 0.05496
1370.61500 0.05312
1369.32924 0.05137
1368.04349 0.04973
1366.75773 0.04825
1365.47198 0.04693
1364.18622 0.04575
1362.90047 0.04461
1361.61471 0.04349
1360.32896 0.04239
1359.04320 0.04137
1357.75745 0.04044
1356.47169 0.03961
1355.18594 0.03890
1353.90018 0.03833
1352.61443 0.03792
1351.32867 0.03765
1350.04292 0.03743
1348.75716 0.03718
1347.47141 0.03686
1346.18565 0.03647
1344.89989 0.03609
1343.61414 0.03575
1342.32838 0.03546
1341.04263 0.03521
1339.75687 0.03493
1338.47112 0.03461
1337.18536 0.03427
1335.89961 0.03393
1334.61385 0.03358
1333.32810 0.03324
1332.04234 0.03292
1330.75659 0.03262
1329.47083 0.03234
1328.18508 0.03208
1326.89932 0.03185
1325.61357 0.03162
1324.32781 0.03137
1323.04206 0.03110
1321.75630 0.03082
1320.47055 0.03053
1319.18479 0.03023
1317.89904 0.02993
1316.61328 0.02960
1315.32753 0.02924
1314.04177 0.02884
1312.75602 0.02844
1311.47026 0.02807
1310.18451 0.02779
1308.89875 0.02756
1307.61300 0.02734
1306.32724 0.02709
1305.04148 0.02685
1303.75573 0.02665
1302.46997 0.02649
1301.18422 0.02633
1299.89846 0.02613
1298.61271 0.02590
1297.32695 0.02570
1296.04120 0.02555
1294.75544 0.02548
1293.46969 0.02546
1292.18393 0.02544
1290.89818 0.02539
1289.61242 0.02530
1288.32667 0.02521
1287.04091 0.02517
1285.75516 0.02520
1284.46940 0.02529
1283.18365 0.02543
1281.89789 0.02557
1280.61214 0.02572
1279.32638 0.02591
1278.04063 0.02618
1276.75487 0.02657
1275.46912 0.02715
1274.18336 0.02803
1272.89761 0.02936
1271.61185 0.03140
1270.32610 0.03440
1269.04034 0.03857
1267.75459 0.04390
1266.46883 0.05013
1265.18307 0.05666
1263.89732 0.06262
1262.61156 0.06706
1261.32581 0.06920
1260.04005 0.06872
1258.75430 0.06583
1257.46854 0.06118
1256.18279 0.05564
1254.89703 0.05003
1253.61128 0.04498
1252.32552 0.04082
1251.03977 0.03758
1249.75401 0.03512
1248.46826 0.03324
1247.18250 0.03177
1245.89675 0.03059
1244.61099 0.02962
1243.32524 0.02881
1242.03948 0.02814
1240.75373 0.02761
1239.46797 0.02716
1238.18222 0.02677
1236.89646 0.02641
1235.61071 0.02605
1234.32495 0.02571
1233.03920 0.02536
1231.75344 0.02501
1230.46769 0.02468
1229.18193 0.02438
1227.89618 0.02410
1226.61042 0.02380
1225.32467 0.02346
1224.03891 0.02309
1222.75315 0.02275
1221.46740 0.02248
1220.18164 0.02231
1218.89589 0.02218
1217.61013 0.02204
1216.32438 0.02185
1215.03862 0.02162
1213.75287 0.02139
1212.46711 0.02123
1211.18136 0.02114
1209.89560 0.02112
1208.60985 0.02113
1207.32409 0.02115
1206.03834 0.02117
1204.75258 0.02116
1203.46683 0.02109
1202.18107 0.02110
1200.89532 0.02133
1199.60956 0.02141
1198.32381 0.02138
1197.03805 0.02130
1195.75230 0.02116
1194.46654 0.02096
1193.18079 0.02074
1191.89503 0.02055
1190.60928 0.02042
1189.32352 0.02033
1188.03777 0.02025
1186.75201 0.02014
1185.46626 0.02000
1184.18050 0.01986
1182.89474 0.01978
1181.60899 0.01978
1180.32323 0.01986
1179.03748 0.01997
1177.75172 0.02010
1176.46597 0.02026
1175.18021 0.02044
1173.89446 0.02061
1172.60870 0.02074
1171.32295 0.02085
1170.03719 0.02100
1168.75144 0.02121
1167.46568 0.02149
1166.17993 0.02176
1164.89417 0.02203
1163.60842 0.02229
1162.32266 0.02256
1161.03691 0.02280
1159.75115 0.02299
1158.46540 0.02316
1157.17964 0.02336
1155.89389 0.02364
1154.60813 0.02396
1153.32238 0.02430
1152.03662 0.02469
1150.75087 0.02519
1149.46511 0.02578
1148.17936 0.02641
1146.89360 0.02706
1145.60785 0.02776
1144.32209 0.02853
1143.03633 0.02937
1141.75058 0.03024
1140.46482 0.03112
1139.17907 0.03205
1137.89331 0.03311
1136.60756 0.03432
1135.32180 0.03572
1134.03605 0.03728
1132.75029 0.03899
1131.46454 0.04084
1130.17878 0.04285
1128.89303 0.04504
1127.60727 0.04742
1126.32152 0.05002
1125.03576 0.05285
1123.75001 0.05588
1122.46425 0.05910
1121.17850 0.06249
1119.89274 0.06605
1118.60699 0.06973
1117.32123 0.07350
1116.03548 0.07735
1114.74972 0.08127
1113.46397 0.08523
1112.17821 0.08918
1110.89246 0.09311
1109.60670 0.09704
1108.32095 0.10103
1107.03519 0.10508
1105.74944 0.10915
1104.46368 0.11321
1103.17793 0.11721
1101.89217 0.12113
1100.60641 0.12495
1099.32066 0.12865
1098.03490 0.13225
1096.74915 0.13574
1095.46339 0.13906
1094.17764 0.14219
1092.89188 0.14507
1091.60613 0.14765
1090.32037 0.14992
1089.03462 0.15190
1087.74886 0.15365
1086.46311 0.15522
1085.17735 0.15670
1083.89160 0.15821
1082.60584 0.15987
1081.32009 0.16173
1080.03433 0.16385
1078.74858 0.16624
1077.46282 0.16887
1076.17707 0.17170
1074.89131 0.17473
1073.60556 0.17794
1072.31980 0.18130
1071.03405 0.18477
1069.74829 0.18831
1068.46254 0.19194
1067.17678 0.19567
1065.89103 0.19946
1064.60527 0.20331
1063.31952 0.20722
1062.03376 0.21125
1060.74800 0.21537
1059.46225 0.21952
1058.17649 0.22362
1056.89074 0.22768
1055.60498 0.23174
1054.31923 0.23584
1053.03347 0.23994
1051.74772 0.24400
1050.46196 0.24806
1049.17621 0.25216
1047.89045 0.25635
1046.60470 0.26066
1045.31894 0.26509
1044.03319 0.26957
1042.74743 0.27404
1041.46168 0.27845
1040.17592 0.28287
1038.89017 0.28738
1037.60441 0.29198
1036.31866 0.29663
1035.03290 0.30125
1033.74715 0.30576
1032.46139 0.31006
1031.17564 0.31406
1029.88988 0.31779
1028.60413 0.32129
1027.31837 0.32459
1026.03262 0.32764
1024.74686 0.33039
1023.46111 0.33280
1022.17535 0.33481
1020.88960 0.33635
1019.60384 0.33736
1018.31808 0.33782
1017.03233 0.33778
1015.74657 0.33724
1014.46082 0.33613
1013.17506 0.33440
1011.88931 0.33207
1010.60355 0.32919
1009.31780 0.32579
1008.03204 0.32182
1006.74629 0.31722
1005.46053 0.31203
1004.17478 0.30638
1002.88902 0.30039
1001.60327 0.29415
1000.31751 0.28767
999.03176 0.28101
997.74600 0.27420
996.46025 0.26724
995.17449 0.26012
993.88874 0.25287
992.60298 0.24559
991.31723 0.23842
990.03147 0.23142
988.74572 0.22460
987.45996 0.21789
986.17421 0.21125
984.88845 0.20468
983.60270 0.19826
982.31694 0.19203
981.03119 0.18600
979.74543 0.18018
978.45967 0.17456
977.17392 0.16919
975.88816 0.16420
974.60241 0.15969
973.31665 0.15576
972.03090 0.15246
970.74514 0.14982
969.45939 0.14797
968.17363 0.14697
966.88788 0.14681
965.60212 0.14729
964.31637 0.14808
963.03061 0.14879
961.74486 0.14900
960.45910 0.14833
959.17335 0.14659
957.88759 0.14385
956.60184 0.14040
955.31608 0.13662
954.03033 0.13284
952.74457 0.12922
951.45882 0.12579
950.17306 0.12250
948.88731 0.11925
947.60155 0.11602
946.31580 0.11283
945.03004 0.10973
943.74429 0.10674
942.45853 0.10388
941.17278 0.10114
939.88702 0.09852
938.60126 0.09606
937.31551 0.09379
936.02975 0.09172
934.74400 0.08978
933.45824 0.08788
932.17249 0.08600
930.88673 0.08419
929.60098 0.08249
928.31522 0.08092
927.02947 0.07946
925.74371 0.07812
924.45796 0.07687
923.17220 0.07568
921.88645 0.07454
920.60069 0.07349
919.31494 0.07256
918.02918 0.07173
916.74343 0.07095
915.45767 0.07016
914.17192 0.06931
912.88616 0.06837
911.60041 0.06736
910.31465 0.06636
909.02890 0.06546
907.74314 0.06469
906.45739 0.06404
905.17163 0.06346
903.88588 0.06287
902.60012 0.06220
901.31437 0.06145
900.02861 0.06071
898.74286 0.06000
897.45710 0.05935
896.17134 0.05875
894.88559 0.05827
893.59983 0.05796
892.31408 0.05781
891.02832 0.05777
889.74257 0.05781
888.45681 0.05799
887.17106 0.05851
885.88530 0.05966
884.59955 0.06168
883.31379 0.06456
882.02804 0.06789
880.74228 0.07104
879.45653 0.07353
878.17077 0.07536
876.88502 0.07695
875.59926 0.07871
874.31351 0.08060
873.02775 0.08213
871.74200 0.08279
870.45624 0.08244
869.17049 0.08128
867.88473 0.07963
866.59898 0.07767
865.31322 0.07547
864.02747 0.07313
862.74171 0.07077
861.45596 0.06855
860.17020 0.06655
858.88445 0.06481
857.59869 0.06334
856.31293 0.06211
855.02718 0.06106
853.74142 0.06012
852.45567 0.05929
851.16991 0.05860
849.88416 0.05810
848.59840 0.05781
847.31265 0.05766
846.02689 0.05754
844.74114 0.05740
843.45538 0.05722
842.16963 0.05698
840.88387 0.05664
839.59812 0.05619
838.31236 0.05574
837.02661 0.05543
835.74085 0.05533
834.45510 0.05548
833.16934 0.05591
831.88359 0.05664
830.59783 0.05774
829.31208 0.05921
828.02632 0.06107
826.74057 0.06333
825.45481 0.06598
824.16906 0.06894
822.88330 0.07204
821.59755 0.07500
820.31179 0.07756
819.02604 0.07961
817.74028 0.08124
816.45452 0.08269
815.16877 0.08421
813.88301 0.08601
812.59726 0.08820
811.31150 0.09077
810.02575 0.09358
808.73999 0.09646
807.45424 0.09930
806.16848 0.10205
804.88273 0.10466
803.59697 0.10705
802.31122 0.10910
801.02546 0.11069
799.73971 0.11167
798.45395 0.11194
797.16820 0.11141
795.88244 0.11009
794.59669 0.10802
793.31093 0.10532
792.02518 0.10211
790.73942 0.09853
789.45367 0.09468
788.16791 0.09063
786.88216 0.08646
785.59640 0.08232
784.31065 0.07840
783.02489 0.07487
781.73914 0.07180
780.45338 0.06912
779.16763 0.06679
777.88187 0.06478
776.59612 0.06306
775.31036 0.06151
774.02460 0.06006
772.73885 0.05870
771.45309 0.05752
770.16734 0.05655
768.88158 0.05575
767.59583 0.05503
766.31007 0.05430
765.02432 0.05357
763.73856 0.05298
762.45281 0.05261
761.16705 0.05245
759.88130 0.05233
758.59554 0.05218
757.30979 0.05202
756.02403 0.05192
754.73828 0.05185
753.45252 0.05172
752.16677 0.05146
750.88101 0.05110
749.59526 0.05065
748.30950 0.05019
747.02375 0.04981
745.73799 0.04959
744.45224 0.04946
743.16648 0.04928
741.88073 0.04897
740.59497 0.04857
739.30922 0.04813
738.02346 0.04771
736.73771 0.04736
735.45195 0.04710
734.16619 0.04685
732.88044 0.04656
731.59468 0.04626
730.30893 0.04603
729.02317 0.04590
727.73742 0.04582
726.45166 0.04579
725.16591 0.04581
723.88015 0.04535
722.59440 0.04588
721.30864 0.04633
720.02289 0.04640
718.73713 0.04627
717.45138 0.04603
716.16562 0.04582
714.87987 0.04576
713.59411 0.04592
712.30836 0.04627
711.02260 0.04670
709.73685 0.04711
708.45109 0.04747
707.16534 0.04776
705.87958 0.04803
704.59383 0.04828
703.30807 0.04847
702.02232 0.04859
700.73656 0.04863
699.45081 0.04865
698.16505 0.04869
696.87930 0.04875
695.59354 0.04881
694.30779 0.04882
693.02203 0.04877
691.73627 0.04870
690.45052 0.04864
689.16476 0.04861
687.87901 0.04856
686.59325 0.04845
685.30750 0.04824
684.02174 0.04796
682.73599 0.04765
681.45023 0.04737
680.16448 0.04716
678.87872 0.04699
677.59297 0.04684
676.30721 0.04669
675.02146 0.04660
673.73570 0.04662
672.44995 0.04675
671.16419 0.04694
669.87844 0.04709
668.59268 0.04718
667.30693 0.04721
666.02117 0.04712
664.73542 0.04695
663.44966 0.04676
662.16391 0.04656
660.87815 0.04635
659.59240 0.04606
658.30664 0.04564
657.02089 0.04516
655.73513 0.04477
654.44938 0.04460
653.16362 0.04461
651.87786 0.04471
650.59211 0.04476
649.30635 0.04477
648.02060 0.04482
646.73484 0.04496
645.44909 0.04520
644.16333 0.04551
642.87758 0.04584
641.59182 0.04614
640.30607 0.04638
639.02031 0.04655
637.73456 0.04676
636.44880 0.04711
635.16305 0.04764
633.87729 0.04831
632.59154 0.04939
631.30578 0.05202
630.02003 0.05583
628.73427 0.05551
627.44852 0.05418
626.16276 0.04966
624.87701 0.04326
623.59125 0.03693
622.30550 0.03265
621.01974 0.03223
619.73399 0.03606
618.44823 0.04279
617.16248 0.05033
615.87672 0.05684
614.59097 0.06118
613.30521 0.06323
612.01945 0.06402
610.73370 0.06567
609.44794 0.07033
608.16219 0.07845
606.87643 0.08826
605.59068 0.09713
604.30492 0.10345
603.01917 0.10731
601.73341 0.10967
600.44766 0.11116
599.16190 0.11163
597.87615 0.11077
596.59039 0.10861
595.30464 0.10563
594.01888 0.10245
592.73313 0.09951
591.44737 0.09705
590.16162 0.09519
588.87586 0.09407
587.59011 0.09389
586.30435 0.09472
585.01860 0.09635
583.73284 0.09841
582.44709 0.10065
581.16133 0.10314
579.87558 0.10607
578.58982 0.10956
577.30407 0.11349
576.01831 0.11756
574.73256 0.12139
573.44680 0.12477
572.16105 0.12775
570.87529 0.13067
569.58953 0.13397
568.30378 0.13797
567.01802 0.14273
565.73227 0.14793
564.44651 0.15294
563.16076 0.15697
561.87500 0.15932
560.58925 0.15959
559.30349 0.15778
558.01774 0.15416
556.73198 0.14916
555.44623 0.14333
554.16047 0.13718
552.87472 0.13110
551.58896 0.12529
550.30321 0.11981
549.01745 0.11468
547.73170 0.10986
546.44594 0.10535
545.16019 0.10118
543.87443 0.09735
542.58868 0.09383
541.30292 0.09058
540.01717 0.08760
538.73141 0.08488
537.44566 0.08242
536.15990 0.08020
534.87415 0.07818
533.58839 0.07621
532.30264 0.07417
531.01688 0.07201
529.73112 0.06986
528.44537 0.06787
527.15961 0.06611
525.87386 0.06455
524.58810 0.06315
523.30235 0.06188
522.01659 0.06068
520.73084 0.05949
519.44508 0.05831
518.15933 0.05721
516.87357 0.05627
515.58782 0.05546
514.30206 0.05466
513.01631 0.05379
511.73055 0.05287
510.44480 0.05201
509.15904 0.05128
507.87329 0.05065
506.58753 0.05004
505.30178 0.04940
504.01602 0.04874
502.73027 0.04810
501.44451 0.04746
500.15876 0.04676
498.87300 0.04602
497.58725 0.04529
496.30149 0.04466
495.01574 0.04415
493.72998 0.04375
492.44423 0.04340
491.15847 0.04302
489.87271 0.04253
488.58696 0.04196
487.30120 0.04143
486.01545 0.04104
484.72969 0.04080
483.44394 0.04064
482.15818 0.04052
480.87243 0.04044
479.58667 0.04041
478.30092 0.04045
477.01516 0.04060
475.72941 0.04084
474.44365 0.04113
473.15790 0.04135
471.87214 0.04146
470.58639 0.04146
469.30063 0.04133
468.01488 0.04104
466.72912 0.04056
465.44337 0.03991
464.15761 0.03919
462.87186 0.03849
461.58610 0.03785
460.30035 0.03725
459.01459 0.03668
457.72884 0.03616
456.44308 0.03571
455.15733 0.03529
453.87157 0.03486
452.58582 0.03441
451.30006 0.03398
450.01431 0.03362
448.72855 0.03334
447.44279 0.03309
446.15704 0.03285
444.87128 0.03257
443.58553 0.03223
442.29977 0.03184
441.01402 0.03147
439.72826 0.03118
438.44251 0.03099
437.15675 0.03086
435.87100 0.03072
434.58524 0.03054
433.29949 0.03031
432.01373 0.03004
430.72798 0.02978
429.44222 0.02954
428.15647 0.02933
426.87071 0.02911
425.58496 0.02887
424.29920 0.02863
423.01345 0.02845
421.72769 0.02836
420.44194 0.02836
419.15618 0.02840
417.87043 0.02845
416.58467 0.02853
415.29892 0.02869
414.01316 0.02899
412.72741 0.02944
411.44165 0.02995
410.15590 0.03042
408.87014 0.03079
407.58438 0.03109
406.29863 0.03136
405.01287 0.03164
403.72712 0.03192
402.44136 0.03220
401.15561 0.03243
399.86985 0.03261
