3998.69854 0.03320
3997.41278 0.03641
3996.12703 0.03821
3994.84127 0.03828
3993.55552 0.03771
3992.26976 0.03764
3990.98401 0.03834
3989.69825 0.03961
3988.41250 0.04115
3987.12674 0.04243
3985.84099 0.04269
3984.55523 0.04146
3983.26948 0.03890
3981.98372 0.03584
3980.69797 0.03341
3979.41221 0.03247
3978.12646 0.03302
3976.84070 0.03404
3975.55495 0.03411
3974.26919 0.03250
3972.98344 0.03005
3971.69768 0.02884
3970.41193 0.03045
3969.12617 0.03416
3967.84042 0.03738
3966.55466 0.03812
3965.26891 0.03678
3963.98315 0.03526
3962.69740 0.03478
3961.41164 0.03487
3960.12589 0.03448
3958.84013 0.03334
3957.55437 0.03200
3956.26862 0.03101
3954.98286 0.03042
3953.69711 0.03025
3952.41135 0.03068
3951.12560 0.03140
3949.83984 0.03144
3948.55409 0.03016
3947.26833 0.02838
3945.98258 0.02768
3944.69682 0.02878
3943.41107 0.03088
3942.12531 0.03265
3940.83956 0.03352
3939.55380 0.03400
3938.26805 0.03504
3936.98229 0.03703
3935.69654 0.03930
3934.41078 0.04045
3933.12503 0.03940
3931.83927 0.03602
3930.55352 0.03130
3929.26776 0.02678
3927.98201 0.02367
3926.69625 0.02254
3925.41050 0.02334
3924.12474 0.02568
3922.83899 0.02880
3921.55323 0.03179
3920.26748 0.03394
3918.98172 0.03511
3917.69596 0.03578
3916.41021 0.03671
3915.12445 0.03849
3913.83870 0.04096
3912.55294 0.04295
3911.26719 0.04300
3909.98143 0.04078
3908.69568 0.03775
3907.40992 0.03643
3906.12417 0.03872
3904.83841 0.04407
3903.55266 0.04979
3902.26690 0.05323
3900.98115 0.05364
3899.69539 0.05192
3898.40964 0.04930
3897.12388 0.04670
3895.83813 0.04494
3894.55237 0.04379
3893.26662 0.04171
3891.98086 0.03774
3890.69511 0.03333
3889.40935 0.03120
3888.12360 0.03231
3886.83784 0.03493
3885.55209 0.03691
3884.26633 0.03786
3882.98058 0.03854
3881.69482 0.03895
3880.40907 0.03795
3879.12331 0.03472
3877.83755 0.02997
3876.55180 0.02566
3875.26604 0.02368
3873.98029 0.02457
3872.69453 0.02676
3871.40878 0.02763
3870.12302 0.02607
3868.83727 0.02360
3867.55151 0.02289
3866.26576 0.02473
3864.98000 0.02728
3863.69425 0.02841
3862.40849 0.02788
3861.12274 0.02722
3859.83698 0.02820
3858.55123 0.03133
3857.26547 0.03566
3855.97972 0.03916
3854.69396 0.03970
3853.40821 0.03657
3852.12245 0.03135
3850.83670 0.02678
3849.55094 0.02474
3848.26519 0.02470
3846.97943 0.02464
3845.69368 0.02335
3844.40792 0.02174
3843.12217 0.02151
3841.83641 0.02280
3840.55066 0.02413
3839.26490 0.02439
3837.97915 0.02415
3836.69339 0.02431
3835.40763 0.02436
3834.12188 0.02290
3832.83612 0.02005
3831.55037 0.01760
3830.26461 0.01721
3828.97886 0.01912
3827.69310 0.02250
3826.40735 0.02654
3825.12159 0.03054
3823.83584 0.03343
3822.55008 0.03431
3821.26433 0.03374
3819.97857 0.03369
3818.69282 0.03525
3817.40706 0.03681
3816.12131 0.03545
3814.83555 0.03005
3813.54980 0.02294
3812.26404 0.01840
3810.97829 0.01966
3809.69253 0.02614
3808.40678 0.03344
3807.12102 0.03691
3805.83527 0.03547
3804.54951 0.03210
3803.26376 0.03050
3801.97800 0.03208
3800.69225 0.03583
3799.40649 0.03980
3798.12074 0.04240
3796.83498 0.04349
3795.54922 0.04388
3794.26347 0.04380
3792.97771 0.04208
3791.69196 0.03758
3790.40620 0.03131
3789.12045 0.02650
3787.83469 0.02584
3786.54894 0.02895
3785.26318 0.03296
3783.97743 0.03574
3782.69167 0.03775
3781.40592 0.04029
3780.12016 0.04245
3778.83441 0.04135
3777.54865 0.03596
3776.26290 0.02979
3774.97714 0.02821
3773.69139 0.03279
3772.40563 0.03858
3771.11988 0.03845
3769.83412 0.03029
3768.54837 0.01937
3767.26261 0.01307
3765.97686 0.01408
3764.69110 0.01935
3763.40535 0.02424
3762.11959 0.02610
3760.83384 0.02509
3759.54808 0.02322
3758.26233 0.02302
3756.97657 0.02567
3755.69081 0.02989
3754.40506 0.03340
3753.11930 0.03527
3751.83355 0.03588
3750.54779 0.03568
3749.26204 0.03482
3747.97628 0.03380
3746.69053 0.03351
3745.40477 0.03418
3744.11902 0.03476
3742.83326 0.03373
3741.54751 0.03088
3740.26175 0.02799
3738.97600 0.02728
3737.69024 0.02892
3736.40449 0.03011
3735.11873 0.02748
3733.83298 0.02022
3732.54722 0.01146
3731.26147 0.00578
3729.97571 0.00577
3728.68996 0.01108
3727.40420 0.01981
3726.11845 0.02969
3724.83269 0.03806
3723.54694 0.04263
3722.26118 0.04313
3720.97543 0.04139
3719.68967 0.03953
3718.40392 0.03861
3717.11816 0.03883
3715.83241 0.04010
3714.54665 0.04156
3713.26089 0.04190
3711.97514 0.04063
3710.68938 0.03828
3709.40363 0.03545
3708.11787 0.03266
3706.83212 0.03129
3705.54636 0.03254
3704.26061 0.03498
3702.97485 0.03505
3701.68910 0.03091
3700.40334 0.02548
3699.11759 0.02403
3697.83183 0.02909
3696.54608 0.03800
3695.26032 0.04585
3693.97457 0.04999
3692.68881 0.05106
3691.40306 0.05061
3690.11730 0.04958
3688.83155 0.04788
3687.54579 0.04433
3686.26004 0.03717
3684.97428 0.02638
3683.68853 0.01527
3682.40277 0.00879
3681.11702 0.01004
3679.83126 0.01838
3678.54551 0.02972
3677.25975 0.03846
3675.97400 0.04070
3674.68824 0.03702
3673.40248 0.03152
3672.11673 0.02752
3670.83097 0.02556
3669.54522 0.02502
3668.25946 0.02581
3666.97371 0.02677
3665.68795 0.02470
3664.40220 0.01761
3663.11644 0.00811
3661.83069 0.00139
3660.54493 -0.00017
3659.25918 0.00198
3657.97342 0.00637
3656.68767 0.01349
3655.40191 0.02323
3654.11616 0.03225
3652.83040 0.03586
3651.54465 0.03193
3650.25889 0.02253
3648.97314 0.01182
3647.68738 0.00290
3646.40163 -0.00375
3645.11587 -0.00875
3643.83012 -0.01109
3642.54436 -0.00870
3641.25861 -0.00145
3639.97285 0.00722
3638.68710 0.01253
3637.40134 0.01223
3636.11559 0.00841
3634.82983 0.00580
3633.54408 0.00808
3632.25832 0.01496
3630.97256 0.02255
3629.68681 0.02703
3628.40105 0.02788
3627.11530 0.02716
3625.82954 0.02612
3624.54379 0.02398
3623.25803 0.02021
3621.97228 0.01654
3620.68652 0.01532
3619.40077 0.01664
3618.11501 0.01893
3616.82926 0.02158
3615.54350 0.02557
3614.25775 0.03079
3612.97199 0.03465
3611.68624 0.03465
3610.40048 0.03117
3609.11473 0.02634
3607.82897 0.02101
3606.54322 0.01472
3605.25746 0.00854
3603.97171 0.00585
3602.68595 0.00875
3601.40020 0.01497
3600.11444 0.01968
3598.82869 0.02038
3597.54293 0.01874
3596.25718 0.01767
3594.97142 0.01791
3593.68567 0.01826
3592.39991 0.01803
3591.11415 0.01779
3589.82840 0.01842
3588.54264 0.02036
3587.25689 0.02336
3585.97113 0.02585
3584.68538 0.02577
3583.39962 0.02328
3582.11387 0.02153
3580.82811 0.02330
3579.54236 0.02741
3578.25660 0.02988
3576.97085 0.02836
3575.68509 0.02425
3574.39934 0.02068
3573.11358 0.01958
3571.82783 0.02059
3570.54207 0.02134
3569.25632 0.01898
3567.97056 0.01263
3566.68481 0.00484
3565.39905 -0.00026
3564.11330 -0.00096
3562.82754 0.00067
3561.54179 0.00145
3560.25603 0.00021
3558.97028 -0.00218
3557.68452 -0.00444
3556.39877 -0.00536
3555.11301 -0.00364
3553.82726 0.00073
3552.54150 0.00481
3551.25574 0.00404
3549.96999 -0.00377
3548.68423 -0.01600
3547.39848 -0.02646
3546.11272 -0.02907
3544.82697 -0.02189
3543.54121 -0.00851
3542.25546 0.00481
3540.96970 0.01391
3539.68395 0.01854
3538.39819 0.02025
3537.11244 0.02019
3535.82668 0.01935
3534.54093 0.01911
3533.25517 0.01991
3531.96942 0.01976
3530.68366 0.01558
3529.39791 0.00659
3528.11215 -0.00365
3526.82640 -0.00902
3525.54064 -0.00519
3524.25489 0.00665
3522.96913 0.02000
3521.68338 0.02734
3520.39762 0.02533
3519.11187 0.01670
3517.82611 0.00717
3516.54036 0.00058
3515.25460 -0.00288
3513.96885 -0.00473
3512.68309 -0.00583
3511.39734 -0.00624
3510.11158 -0.00648
3508.82582 -0.00756
3507.54007 -0.00969
3506.25431 -0.01162
3504.96856 -0.01183
3503.68280 -0.01014
3502.39705 -0.00766
3501.11129 -0.00563
3499.82554 -0.00476
3498.53978 -0.00580
3497.25403 -0.00932
3495.96827 -0.01454
3494.68252 -0.01905
3493.39676 -0.02056
3492.11101 -0.01877
3490.82525 -0.01500
3489.53950 -0.01042
3488.25374 -0.00513
3486.96799 0.00073
3485.68223 0.00552
3484.39648 0.00674
3483.11072 0.00349
3481.82497 -0.00232
3480.53921 -0.00772
3479.25346 -0.01134
3477.96770 -0.01366
3476.68195 -0.01569
3475.39619 -0.01808
3474.11044 -0.02091
3472.82468 -0.02317
3471.53893 -0.02286
3470.25317 -0.01928
3468.96741 -0.01499
3467.68166 -0.01428
3466.39590 -0.01902
3465.11015 -0.02670
3463.82439 -0.03271
3462.53864 -0.03436
3461.25288 -0.03254
3459.96713 -0.03011
3458.68137 -0.02896
3457.39562 -0.02846
3456.10986 -0.02682
3454.82411 -0.02386
3453.53835 -0.02208
3452.25260 -0.02461
3450.96684 -0.03197
3449.68109 -0.04097
3448.39533 -0.04655
3447.10958 -0.04536
3445.82382 -0.03833
3444.53807 -0.03039
3443.25231 -0.02712
3441.96656 -0.03072
3440.68080 -0.03874
3439.39505 -0.04650
3438.10929 -0.05087
3436.82354 -0.05203
3435.53778 -0.05170
3434.25203 -0.05024
3432.96627 -0.04603
3431.68052 -0.03811
3430.39476 -0.02847
3429.10900 -0.02091
3427.82325 -0.01787
3426.53749 -0.01883
3425.25174 -0.02148
3423.96598 -0.02355
3422.68023 -0.02378
3421.39447 -0.02211
3420.10872 -0.01946
3418.82296 -0.01692
3417.53721 -0.01520
3416.25145 -0.01501
3414.96570 -0.01750
3413.67994 -0.02311
3412.39419 -0.02998
3411.10843 -0.03468
3409.82268 -0.03539
3408.53692 -0.03383
3407.25117 -0.03270
3405.96541 -0.03218
3404.67966 -0.03037
3403.39390 -0.02751
3402.10815 -0.02632
3400.82239 -0.02652
3399.53664 -0.02996
3398.25088 -0.03622
3396.96513 -0.04220
3395.67937 -0.04600
3394.39362 -0.04718
3393.10786 -0.04624
3391.82211 -0.04482
3390.53635 -0.04481
3389.25060 -0.04638
3387.96484 -0.04723
3386.67908 -0.04432
3385.39333 -0.03654
3384.10757 -0.02605
3382.82182 -0.01691
3381.53606 -0.01207
3380.25031 -0.01166
3378.96455 -0.01389
3377.67880 -0.01708
3376.39304 -0.02011
3375.10729 -0.02163
3373.82153 -0.02028
3372.53578 -0.01638
3371.25002 -0.01247
3369.96427 -0.01147
3368.67851 -0.01417
3367.39276 -0.01883
3366.10700 -0.02292
3364.82125 -0.02513
3363.53549 -0.02569
3362.24974 -0.02565
3360.96398 -0.02630
3359.67823 -0.02841
3358.39247 -0.03088
3357.10672 -0.03109
3355.82096 -0.02785
3354.53521 -0.02361
3353.24945 -0.02217
3351.96370 -0.02401
3350.67794 -0.02551
3349.39219 -0.02327
3348.10643 -0.01836
3346.82067 -0.01501
3345.53492 -0.01560
3344.24916 -0.01823
3342.96341 -0.01946
3341.67765 -0.01821
3340.39190 -0.01612
3339.10614 -0.01507
3337.82039 -0.01567
3336.53463 -0.01774
3335.24888 -0.02065
3333.96312 -0.02335
3332.67737 -0.02479
3331.39161 -0.02476
3330.10586 -0.02400
3328.82010 -0.02384
3327.53435 -0.02552
3326.24859 -0.02906
3324.96284 -0.03241
3323.67708 -0.03281
3322.39133 -0.02920
3321.10557 -0.02312
3319.81982 -0.01726
3318.53406 -0.01353
3317.24831 -0.01225
3315.96255 -0.01245
3314.67680 -0.01269
3313.39104 -0.01200
3312.10529 -0.01016
3310.81953 -0.00749
3309.53378 -0.00485
3308.24802 -0.00357
3306.96227 -0.00478
3305.67651 -0.00808
3304.39075 -0.01126
3303.10500 -0.01180
3301.81924 -0.00927
3300.53349 -0.00590
3299.24773 -0.00440
3297.96198 -0.00532
3296.67622 -0.00691
3295.39047 -0.00706
3294.10471 -0.00485
3292.81896 -0.00078
3291.53320 0.00333
3290.24745 0.00496
3288.96169 0.00250
3287.67594 -0.00298
3286.39018 -0.00813
3285.10443 -0.00998
3283.81867 -0.00839
3282.53292 -0.00589
3281.24716 -0.00481
3279.96141 -0.00460
3278.67565 -0.00254
3277.38990 0.00303
3276.10414 0.01074
3274.81839 0.01740
3273.53263 0.02048
3272.24688 0.01941
3270.96112 0.01544
3269.67537 0.01062
3268.38961 0.00658
3267.10386 0.00361
3265.81810 0.00126
3264.53234 -0.00049
3263.24659 -0.00087
3261.96083 0.00082
3260.67508 0.00444
3259.38932 0.00901
3258.10357 0.01277
3256.81781 0.01346
3255.53206 0.00962
3254.24630 0.00251
3252.96055 -0.00380
3251.67479 -0.00563
3250.38904 -0.00293
3249.10328 0.00114
3247.81753 0.00402
3246.53177 0.00608
3245.24602 0.00902
3243.96026 0.01301
3242.67451 0.01605
3241.38875 0.01603
3240.10300 0.01308
3238.81724 0.00958
3237.53149 0.00814
3236.24573 0.00936
3234.95998 0.01162
3233.67422 0.01287
3232.38847 0.01257
3231.10271 0.01182
3229.81696 0.01201
3228.53120 0.01349
3227.24545 0.01533
3225.95969 0.01609
3224.67393 0.01493
3223.38818 0.01243
3222.10242 0.01043
3220.81667 0.01048
3219.53091 0.01228
3218.24516 0.01401
3216.95940 0.01445
3215.67365 0.01426
3214.38789 0.01496
3213.10214 0.01695
3211.81638 0.01890
3210.53063 0.01894
3209.24487 0.01649
3207.95912 0.01295
3206.67336 0.01043
3205.38761 0.00996
3204.10185 0.01116
3202.81610 0.01331
3201.53034 0.01576
3200.24459 0.01751
3198.95883 0.01754
3197.67308 0.01622
3196.38732 0.01547
3195.10157 0.01700
3193.81581 0.02057
3192.53006 0.02415
3191.24430 0.02574
3189.95855 0.02491
3188.67279 0.02316
3187.38704 0.02277
3186.10128 0.02486
3184.81553 0.02829
3183.52977 0.03067
3182.24401 0.03060
3180.95826 0.02877
3179.67250 0.02665
3178.38675 0.02477
3177.10099 0.02265
3175.81524 0.02019
3174.52948 0.01818
3173.24373 0.01737
3171.95797 0.01756
3170.67222 0.01803
3169.38646 0.01842
3168.10071 0.01898
3166.81495 0.01995
3165.52920 0.02106
3164.24344 0.02179
3162.95769 0.02171
3161.67193 0.02063
3160.38618 0.01864
3159.10042 0.01631
3157.81467 0.01462
3156.52891 0.01432
3155.24316 0.01532
3153.95740 0.01710
3152.67165 0.01926
3151.38589 0.02158
3150.10014 0.02384
3148.81438 0.02582
3147.52863 0.02739
3146.24287 0.02805
3144.95712 0.02721
3143.67136 0.02511
3142.38560 0.02314
3141.09985 0.02271
3139.81409 0.02385
3138.52834 0.02529
3137.24258 0.02578
3135.95683 0.02505
3134.67107 0.02376
3133.38532 0.02282
3132.09956 0.02286
3130.81381 0.02387
3129.52805 0.02529
3128.24230 0.02662
3126.95654 0.02783
3125.67079 0.02884
3124.38503 0.02905
3123.09928 0.02796
3121.81352 0.02612
3120.52777 0.02488
3119.24201 0.02496
3117.95626 0.02581
3116.67050 0.02658
3115.38475 0.02713
3114.09899 0.02790
3112.81324 0.02910
3111.52748 0.03040
3110.24173 0.03119
3108.95597 0.03102
3107.67022 0.02993
3106.38446 0.02839
3105.09871 0.02698
3103.81295 0.02579
3102.52719 0.02452
3101.24144 0.02296
3099.95568 0.02136
3098.66993 0.02028
3097.38417 0.02031
3096.09842 0.02177
3094.81266 0.02429
3093.52691 0.02682
3092.24115 0.02833
3090.95540 0.02868
3089.66964 0.02855
3088.38389 0.02846
3087.09813 0.02845
3085.81238 0.02833
3084.52662 0.02817
3083.24087 0.02810
3081.95511 0.02798
3080.66936 0.02753
3079.38360 0.02674
3078.09785 0.02613
3076.81209 0.02634
3075.52634 0.02752
3074.24058 0.02904
3072.95483 0.02993
3071.66907 0.02956
3070.38332 0.02796
3069.09756 0.02573
3067.81181 0.02375
3066.52605 0.02286
3065.24030 0.02333
3063.95454 0.02454
3062.66879 0.02543
3061.38303 0.02549
3060.09727 0.02535
3058.81152 0.02618
3057.52576 0.02843
3056.24001 0.03110
3054.95425 0.03262
3053.66850 0.03233
3052.38274 0.03118
3051.09699 0.03084
3049.81123 0.03207
3048.52548 0.03383
3047.23972 0.03415
3045.95397 0.03193
3044.66821 0.02788
3043.38246 0.02401
3042.09670 0.02198
3040.81095 0.02197
3039.52519 0.02295
3038.23944 0.02393
3036.95368 0.02481
3035.66793 0.02593
3034.38217 0.02733
3033.09642 0.02861
3031.81066 0.02954
3030.52491 0.03007
3029.23915 0.03005
3027.95340 0.02925
3026.66764 0.02790
3025.38189 0.02667
3024.09613 0.02616
3022.81038 0.02642
3021.52462 0.02697
3020.23886 0.02701
3018.95311 0.02603
3017.66735 0.02431
3016.38160 0.02271
3015.09584 0.02188
3013.81009 0.02194
3012.52433 0.02285
3011.23858 0.02481
3009.95282 0.02780
3008.66707 0.03119
3007.38131 0.03397
3006.09556 0.03539
3004.80980 0.03536
3003.52405 0.03415
3002.23829 0.03195
3000.95254 0.02981
2999.66678 0.03014
2998.38103 0.03008
2997.09527 0.03012
2995.80952 0.02981
2994.52376 0.02926
2993.23801 0.02899
2991.95225 0.02920
2990.66650 0.02963
2989.38074 0.02997
2988.09499 0.03020
2986.80923 0.03048
2985.52348 0.03092
2984.23772 0.03144
2982.95197 0.03165
2981.66621 0.03097
2980.38046 0.02938
2979.09470 0.02783
2977.80894 0.02741
2976.52319 0.02821
2975.23743 0.02938
2973.95168 0.03023
2972.66592 0.03069
2971.38017 0.03085
2970.09441 0.03076
2968.80866 0.03074
2967.52290 0.03122
2966.23715 0.03215
2964.95139 0.03302
2963.66564 0.03344
2962.37988 0.03338
2961.09413 0.03287
2959.80837 0.03199
2958.52262 0.03114
2957.23686 0.03085
2955.95111 0.03128
2954.66535 0.03214
2953.37960 0.03305
2952.09384 0.03383
2950.80809 0.03441
2949.52233 0.03466
2948.23658 0.03450
2946.95082 0.03411
2945.66507 0.03411
2944.37931 0.03503
2943.09356 0.03663
2941.80780 0.03795
2940.52205 0.03814
2939.23629 0.03716
2937.95053 0.03557
2936.66478 0.03403
2935.37902 0.03309
2934.09327 0.03335
2932.80751 0.03499
2931.52176 0.03725
2930.23600 0.03872
2928.95025 0.03869
2927.66449 0.03789
2926.37874 0.03748
2925.09298 0.03762
2923.80723 0.03752
2922.52147 0.03664
2921.23572 0.03519
2919.94996 0.03367
2918.66421 0.03237
2917.37845 0.03149
2916.09270 0.03120
2914.80694 0.03150
2913.52119 0.03219
2912.23543 0.03313
2910.94968 0.03432
2909.66392 0.03558
2908.37817 0.03648
2907.09241 0.03666
2905.80666 0.03612
2904.52090 0.03518
2903.23515 0.03430
2901.94939 0.03371
2900.66364 0.03337
2899.37788 0.03300
2898.09212 0.03250
2896.80637 0.03213
2895.52061 0.03222
2894.23486 0.03284
2892.94910 0.03369
2891.66335 0.03441
2890.37759 0.03474
2889.09184 0.03456
2887.80608 0.03391
2886.52033 0.03306
2885.23457 0.03250
2883.94882 0.03261
2882.66306 0.03338
2881.37731 0.03427
2880.09155 0.03462
2878.80580 0.03425
2877.52004 0.03355
2876.23429 0.03297
2874.94853 0.03252
2873.66278 0.03197
2872.37702 0.03137
2871.09127 0.03105
2869.80551 0.03129
2868.51976 0.03205
2867.23400 0.03305
2865.94825 0.03372
2864.66249 0.03358
2863.37674 0.03267
2862.09098 0.03172
2860.80523 0.03134
2859.51947 0.03143
2858.23372 0.03136
2856.94796 0.03079
2855.66220 0.03000
2854.37645 0.02949
2853.09069 0.02947
2851.80494 0.02992
2850.51918 0.03068
2849.23343 0.03146
2847.94767 0.03193
2846.66192 0.03193
2845.37616 0.03172
2844.09041 0.03158
2842.80465 0.03154
2841.51890 0.03152
2840.23314 0.03144
2838.94739 0.03132
2837.66163 0.03110
2836.37588 0.03076
2835.09012 0.03033
2833.80437 0.02987
2832.51861 0.02954
2831.23286 0.02952
2829.94710 0.02982
2828.66135 0.03018
2827.37559 0.03027
2826.08984 0.02994
2824.80408 0.02935
2823.51833 0.02890
2822.23257 0.02901
2820.94682 0.02983
2819.66106 0.03090
2818.37531 0.03150
2817.08955 0.03122
2815.80379 0.03026
2814.51804 0.02918
2813.23228 0.02840
2811.94653 0.02799
2810.66077 0.02780
2809.37502 0.02772
2808.08926 0.02771
2806.80351 0.02768
2805.51775 0.02755
2804.23200 0.02751
2802.94624 0.02796
2801.66049 0.02912
2800.37473 0.03054
2799.08898 0.03130
2797.80322 0.03076
2796.51747 0.02930
2795.23171 0.02798
2793.94596 0.02754
2792.66020 0.02783
2791.37445 0.02819
2790.08869 0.02821
2788.80294 0.02793
2787.51718 0.02754
2786.23143 0.02719
2784.94567 0.02697
2783.65992 0.02692
2782.37416 0.02706
2781.08841 0.02736
2779.80265 0.02773
2778.51690 0.02805
2777.23114 0.02828
2775.94538 0.02851
2774.65963 0.02876
2773.37387 0.02889
2772.08812 0.02884
2770.80236 0.02872
2769.51661 0.02870
2768.23085 0.02882
2766.94510 0.02894
2765.65934 0.02890
2764.37359 0.02849
2763.08783 0.02767
2761.80208 0.02670
2760.51632 0.02614
2759.23057 0.02630
2757.94481 0.02681
2756.65906 0.02694
2755.37330 0.02640
2754.08755 0.02573
2752.80179 0.02574
2751.51604 0.02663
2750.23028 0.02781
2748.94453 0.02839
2747.65877 0.02798
2746.37302 0.02689
2745.08726 0.02591
2743.80151 0.02566
2742.51575 0.02616
2741.23000 0.02700
2739.94424 0.02771
2738.65849 0.02818
2737.37273 0.02847
2736.08698 0.02866
2734.80122 0.02874
2733.51546 0.02868
2732.22971 0.02854
2730.94395 0.02834
2729.65820 0.02809
2728.37244 0.02786
2727.08669 0.02782
2725.80093 0.02802
2724.51518 0.02825
2723.22942 0.02828
2721.94367 0.02809
2720.65791 0.02780
2719.37216 0.02733
2718.08640 0.02647
2716.80065 0.02528
2715.51489 0.02422
2714.22914 0.02383
2712.94338 0.02429
2711.65763 0.02539
2710.37187 0.02669
2709.08612 0.02763
2707.80036 0.02785
2706.51461 0.02750
2705.22885 0.02714
2703.94310 0.02724
2702.65734 0.02778
2701.37159 0.02834
2700.08583 0.02856
2698.80008 0.02833
2697.51432 0.02779
2696.22857 0.02717
2694.94281 0.02665
2693.65705 0.02630
2692.37130 0.02608
2691.08554 0.02589
2689.79979 0.02570
2688.51403 0.02556
2687.22828 0.02552
2685.94252 0.02557
2684.65677 0.02563
2683.37101 0.02579
2682.08526 0.02618
2680.79950 0.02670
2679.51375 0.02699
2678.22799 0.02677
2676.94224 0.02619
2675.65648 0.02573
2674.37073 0.02571
2673.08497 0.02601
2671.79922 0.02623
2670.51346 0.02606
2669.22771 0.02559
2667.94195 0.02525
2666.65620 0.02545
2665.37044 0.02620
2664.08469 0.02712
2662.79893 0.02779
2661.51318 0.02809
2660.22742 0.02829
2658.94167 0.02869
2657.65591 0.02932
2656.37016 0.02989
2655.08440 0.03006
2653.79865 0.02971
2652.51289 0.02912
2651.22713 0.02865
2649.94138 0.02844
2648.65562 0.02834
2647.36987 0.02829
2646.08411 0.02843
2644.79836 0.02888
2643.51260 0.02947
2642.22685 0.02993
2640.94109 0.03014
2639.65534 0.03018
2638.36958 0.03018
2637.08383 0.03013
2635.79807 0.02998
2634.51232 0.02964
2633.22656 0.02908
2631.94081 0.02836
2630.65505 0.02772
2629.36930 0.02746
2628.08354 0.02776
2626.79779 0.02844
2625.51203 0.02906
2624.22628 0.02922
2622.94052 0.02883
2621.65477 0.02819
2620.36901 0.02768
2619.08326 0.02739
2617.79750 0.02705
2616.51175 0.02649
2615.22599 0.02596
2613.94024 0.02588
2612.65448 0.02630
2611.36872 0.02686
2610.08297 0.02717
2608.79721 0.02718
2607.51146 0.02714
2606.22570 0.02726
2604.93995 0.02744
2603.65419 0.02720
2602.36844 0.02625
2601.08268 0.02489
2599.79693 0.02389
2598.51117 0.02376
2597.22542 0.02442
2595.93966 0.02542
2594.65391 0.02635
2593.36815 0.02694
2592.08240 0.02706
2590.79664 0.02672
2589.51089 0.02612
2588.22513 0.02563
2586.93938 0.02558
2585.65362 0.02590
2584.36787 0.02617
2583.08211 0.02617
2581.79636 0.02617
2580.51060 0.02662
2579.22485 0.02756
2577.93909 0.02845
2576.65334 0.02862
2575.36758 0.02793
2574.08183 0.02672
2572.79607 0.02548
2571.51031 0.02440
2570.22456 0.02350
2568.93880 0.02273
2567.65305 0.02210
2566.36729 0.02174
2565.08154 0.02185
2563.79578 0.02241
2562.51003 0.02296
2561.22427 0.02314
2559.93852 0.02310
2558.65276 0.02326
2557.36701 0.02365
2556.08125 0.02390
2554.79550 0.02379
2553.50974 0.02348
2552.22399 0.02311
2550.93823 0.02261
2549.65248 0.02207
2548.36672 0.02180
2547.08097 0.02187
2545.79521 0.02184
2544.50946 0.02126
2543.22370 0.02032
2541.93795 0.01978
2540.65219 0.02024
2539.36644 0.02152
2538.08068 0.02287
2536.79493 0.02364
2535.50917 0.02363
2534.22342 0.02316
2532.93766 0.02290
2531.65191 0.02342
2530.36615 0.02464
2529.08039 0.02565
2527.79464 0.02552
2526.50888 0.02431
2525.22313 0.02300
2523.93737 0.02232
2522.65162 0.02204
2521.36586 0.02161
2520.08011 0.02098
2518.79435 0.02053
2517.50860 0.02029
2516.22284 0.01987
2514.93709 0.01915
2513.65133 0.01865
2512.36558 0.01900
2511.07982 0.02013
2509.79407 0.02116
2508.50831 0.02124
2507.22256 0.02034
2505.93680 0.01923
2504.65105 0.01876
2503.36529 0.01913
2502.07954 0.01999
2500.79378 0.02099
2499.50803 0.02204
2498.22227 0.02299
2496.93652 0.02339
2495.65076 0.02299
2494.36501 0.02215
2493.07925 0.02151
2491.79350 0.02136
2490.50774 0.02153
2489.22198 0.02178
2487.93623 0.02190
2486.65047 0.02170
2485.36472 0.02120
2484.07896 0.02085
2482.79321 0.02104
2481.50745 0.02160
2480.22170 0.02199
2478.93594 0.02200
2477.65019 0.02177
2476.36443 0.02142
2475.07868 0.02098
2473.79292 0.02070
2472.50717 0.02089
2471.22141 0.02140
2469.93566 0.02168
2468.64990 0.02144
2467.36415 0.02088
2466.07839 0.02044
2464.79264 0.02033
2463.50688 0.02062
2462.22113 0.02133
2460.93537 0.02223
2459.64962 0.02285
2458.36386 0.02291
2457.07811 0.02260
2455.79235 0.02232
2454.50660 0.02217
2453.22084 0.02190
2451.93509 0.02151
2450.64933 0.02142
2449.36357 0.02188
2448.07782 0.02248
2446.79206 0.02264
2445.50631 0.02236
2444.22055 0.02221
2442.93480 0.02258
2441.64904 0.02310
2440.36329 0.02317
2439.07753 0.02259
2437.79178 0.02161
2436.50602 0.02058
2435.22027 0.01983
2433.93451 0.01952
2432.64876 0.01958
2431.36300 0.01969
2430.07725 0.01956
2428.79149 0.01913
2427.50574 0.01843
2426.21998 0.01766
2424.93423 0.01723
2423.64847 0.01758
2422.36272 0.01861
2421.07696 0.01958
2419.79121 0.01985
2418.50545 0.01960
2417.21970 0.01953
2415.93394 0.01999
2414.64819 0.02065
2413.36243 0.02109
2412.07668 0.02120
2410.79092 0.02101
2409.50517 0.02036
2408.21941 0.01920
2406.93365 0.01805
2405.64790 0.01765
2404.36214 0.01819
2403.07639 0.01911
2401.79063 0.01970
2400.50488 0.01951
2399.21912 0.01680
2397.93337 0.01710
2396.64761 0.01751
2395.36186 0.01760
2394.07610 0.01796
2392.79035 0.01847
2391.50459 0.01887
2390.21884 0.01907
2388.93308 0.01907
2387.64733 0.01891
2386.36157 0.01864
2385.07582 0.01835
2383.79006 0.01817
2382.50431 0.01804
2381.21855 0.01783
2379.93280 0.01748
2378.64704 0.01722
2377.36129 0.01736
2376.07553 0.01802
2374.78978 0.01881
2373.50402 0.01926
2372.21827 0.01918
2370.93251 0.01869
2369.64676 0.01797
2368.36100 0.01737
2367.07524 0.01714
2365.78949 0.01750
2364.50373 0.01825
2363.21798 0.01895
2361.93222 0.01963
2360.64647 0.02049
2359.36071 0.02109
2358.07496 0.02116
2356.78920 0.02066
2355.50345 0.01979
2354.21769 0.01908
2352.93194 0.01877
2351.64618 0.01897
2350.36043 0.01929
2349.07467 0.01919
2347.78892 0.01882
2346.50316 0.01899
2345.21741 0.01941
2343.93165 0.01903
2342.64590 0.01810
2341.36014 0.01840
2340.07439 0.01999
2338.78863 0.02046
2337.50288 0.01933
2336.21712 0.01985
2334.93137 0.02147
2333.64561 0.02094
2332.35986 0.01917
2331.07410 0.01958
2329.78835 0.02082
2328.50259 0.02120
2327.21684 0.02397
2325.93108 0.02756
2324.64532 0.02815
2323.35957 0.02720
2322.07381 0.02613
2320.78806 0.02419
2319.50230 0.02348
2318.21655 0.02409
2316.93079 0.02430
2315.64504 0.02490
2314.35928 0.02562
2313.07353 0.02574
2311.78777 0.02582
2310.50202 0.02547
2309.21626 0.02486
2307.93051 0.02444
2306.64475 0.02393
2305.35900 0.02351
2304.07324 0.02313
2302.78749 0.02280
2301.50173 0.02260
2300.21598 0.02214
2298.93022 0.02142
2297.64447 0.02059
2296.35871 0.02006
2295.07296 0.02009
2293.78720 0.02055
2292.50145 0.02127
2291.21569 0.02212
2289.92994 0.02311
2288.64418 0.02411
2287.35843 0.02475
2286.07267 0.02463
2284.78691 0.02370
2283.50116 0.02248
2282.21540 0.02167
2280.92965 0.02162
2279.64389 0.02203
2278.35814 0.02233
2277.07238 0.02216
2275.78663 0.02165
2274.50087 0.02118
2273.21512 0.02096
2271.92936 0.02092
2270.64361 0.02079
2269.35785 0.02039
2268.07210 0.01983
2266.78634 0.01953
2265.50059 0.01978
2264.21483 0.02049
2262.92908 0.02142
2261.64332 0.02222
2260.35757 0.02236
2259.07181 0.02138
2257.78606 0.01954
2256.50030 0.01789
2255.21455 0.01757
2253.92879 0.01887
2252.64304 0.02125
2251.35728 0.02429
2250.07153 0.02696
2248.78577 0.02638
2247.50002 0.02560
2246.21426 0.02326
2244.92850 0.02045
2243.64275 0.01870
2242.35699 0.01840
2241.07124 0.01866
2239.78548 0.01858
2238.49973 0.01817
2237.21397 0.01790
2235.92822 0.01788
2234.64246 0.01772
2233.35671 0.01701
2232.07095 0.01593
2230.78520 0.01515
2229.49944 0.01537
2228.21369 0.01675
2226.92793 0.01875
2225.64218 0.02038
2224.35642 0.02075
2223.07067 0.01970
2221.78491 0.01787
2220.49916 0.01600
2219.21340 0.01435
2217.92765 0.01295
2216.64189 0.01226
2215.35614 0.01287
2214.07038 0.01467
2212.78463 0.01685
2211.49887 0.01877
2210.21312 0.02038
2208.92736 0.02161
2207.64161 0.02199
2206.35585 0.02105
2205.07010 0.01904
2203.78434 0.01691
2202.49858 0.01554
2201.21283 0.01505
2199.92707 0.01475
2198.64132 0.01377
2197.35556 0.01195
2196.06981 0.01005
2194.78405 0.00925
2193.49830 0.01022
2192.21254 0.01282
2190.92679 0.01645
2189.64103 0.02056
2188.35528 0.02442
2187.06952 0.02688
2185.78377 0.02677
2184.49801 0.02406
2183.21226 0.02022
2181.92650 0.01712
2180.64075 0.01537
2179.35499 0.01402
2178.06924 0.01201
2176.78348 0.00971
2175.49773 0.00844
2174.21197 0.00905
2172.92622 0.01131
2171.64046 0.01457
2170.35471 0.01811
2169.06895 0.02090
2167.78320 0.02199
2166.49744 0.02164
2165.21169 0.02135
2163.92593 0.02220
2162.64017 0.02321
2161.35442 0.02208
2160.06866 0.01775
2158.78291 0.01202
2157.49715 0.00774
2156.21140 0.00574
2154.92564 0.00495
2153.63989 0.00449
2152.35413 0.00463
2151.06838 0.00579
2149.78262 0.00754
2148.49687 0.00897
2147.21111 0.00963
2145.92536 0.00982
2144.63960 0.00981
2143.35385 0.00941
2142.06809 0.00847
2140.78234 0.00751
2139.49658 0.00741
2138.21083 0.00844
2136.92507 0.00997
2135.63932 0.01121
2134.35356 0.01182
2133.06781 0.01188
2131.78205 0.01154
2130.49630 0.01102
2129.21054 0.01076
2127.92479 0.01110
2126.63903 0.01184
2125.35328 0.01226
2124.06752 0.01191
2122.78176 0.01116
2121.49601 0.01083
2120.21025 0.01147
2118.92450 0.01286
2117.63874 0.01418
2116.35299 0.01463
2115.06723 0.01405
2113.78148 0.01314
2112.49572 0.01293
2111.20997 0.01384
2109.92421 0.01532
2108.63846 0.01644
2107.35270 0.01662
2106.06695 0.01595
2104.78119 0.01479
2103.49544 0.01352
2102.20968 0.01237
2100.92393 0.01152
2099.63817 0.01173
2098.35242 0.01092
2097.06666 0.00984
2095.78091 0.00897
2094.49515 0.00853
2093.20940 0.00860
2091.92364 0.00887
2090.63789 0.00886
2089.35213 0.00831
2088.06638 0.00750
2086.78062 0.00708
2085.49487 0.00755
2084.20911 0.00893
2082.92336 0.01080
2081.63760 0.01260
2080.35184 0.01388
2079.06609 0.01437
2077.78033 0.01421
2076.49458 0.01375
2075.20882 0.01334
2073.92307 0.01312
2072.63731 0.01305
2071.35156 0.01302
2070.06580 0.01286
2068.78005 0.01257
2067.49429 0.01239
2066.20854 0.01261
2064.92278 0.01309
2063.63703 0.01311
2062.35127 0.01209
2061.06552 0.01023
2059.77976 0.00844
2058.49401 0.00745
2057.20825 0.00716
2055.92250 0.00712
2054.63674 0.00745
2053.35099 0.00867
2052.06523 0.01085
2050.77948 0.01312
2049.49372 0.01434
2048.20797 0.01398
2046.92221 0.01249
2045.63646 0.01090
2044.35070 0.00999
2043.06495 0.00986
2041.77919 0.01020
2040.49343 0.01085
2039.20768 0.01180
2037.92192 0.01266
2036.63617 0.01256
2035.35041 0.01088
2034.06466 0.00815
2032.77890 0.00572
2031.49315 0.00452
2030.20739 0.00438
2028.92164 0.00452
2027.63588 0.00447
2026.35013 0.00449
2025.06437 0.00507
2023.77862 0.00622
2022.49286 0.00732
2021.20711 0.00772
2019.92135 0.00740
2018.63560 0.00695
2017.34984 0.00679
2016.06409 0.00679
2014.77833 0.00658
2013.49258 0.00631
2012.20682 0.00649
2010.92107 0.00738
2009.63531 0.00861
2008.34956 0.00942
2007.06380 0.00933
2005.77805 0.00846
2004.49229 0.00729
2003.20654 0.00626
2001.92078 0.00558
2000.63503 0.00526
1999.34927 0.00524
1998.06351 0.00550
1996.77776 0.00614
1995.49200 0.00730
1994.20625 0.00885
1992.92049 0.01028
1991.63474 0.01103
1990.34898 0.01099
1989.06323 0.01066
1987.77747 0.01062
1986.49172 0.01100
1985.20596 0.01151
1983.92021 0.01204
1982.63445 0.01291
1981.34870 0.01421
1980.06294 0.01533
1978.77719 0.01544
1977.49143 0.01450
1976.20568 0.01329
1974.91992 0.01247
1973.63417 0.01197
1972.34841 0.01142
1971.06266 0.01090
1969.77690 0.01078
1968.49115 0.01113
1967.20539 0.01149
1965.91964 0.01147
1964.63388 0.01119
1963.34813 0.01088
1962.06237 0.01044
1960.77662 0.00961
1959.49086 0.00853
1958.20510 0.00763
1956.91935 0.00710
1955.63359 0.00676
1954.34784 0.00637
1953.06208 0.00597
1951.77633 0.00586
1950.49057 0.00627
1949.20482 0.00702
1947.91906 0.00773
1946.63331 0.00826
1945.34755 0.00877
1944.06180 0.00929
1942.77604 0.00954
1941.49029 0.00926
1940.20453 0.00866
1938.91878 0.00822
1937.63302 0.00830
1936.34727 0.00882
1935.06151 0.00941
1933.77576 0.00977
1932.49000 0.00984
1931.20425 0.00973
1929.91849 0.00962
1928.63274 0.00962
1927.34698 0.00973
1926.06123 0.00982
1924.77547 0.00969
1923.48972 0.00935
1922.20396 0.00911
1920.91821 0.00933
1919.63245 0.01010
1918.34669 0.01109
1917.06094 0.01180
1915.77518 0.01196
1914.48943 0.01167
1913.20367 0.01121
1911.91792 0.01069
1910.63216 0.01005
1909.34641 0.00937
1908.06065 0.00892
1906.77490 0.00892
1905.48914 0.00926
1904.20339 0.00966
1902.91763 0.00999
1901.63188 0.01033
1900.34612 0.01075
1899.06037 0.01119
1897.77461 0.01146
1896.48886 0.01150
1895.20310 0.01143
1893.91735 0.01133
1892.63159 0.01120
1891.34584 0.01102
1890.06008 0.01081
1888.77433 0.01069
1887.48857 0.01074
1886.20282 0.01092
1884.91706 0.01107
1883.63131 0.01100
1882.34555 0.01068
1881.05980 0.01031
1879.77404 0.01013
1878.48829 0.01018
1877.20253 0.01025
1875.91677 0.01022
1874.63102 0.01027
1873.34526 0.01065
1872.05951 0.01138
1870.77375 0.01213
1869.48800 0.01253
1868.20224 0.01241
1866.91649 0.01191
1865.63073 0.01126
1864.34498 0.01071
1863.05922 0.01034
1861.77347 0.01015
1860.48771 0.01004
1859.20196 0.00996
1857.91620 0.00992
1856.63045 0.00993
1855.34469 0.00998
1854.05894 0.01000
1852.77318 0.00989
1851.48743 0.00964
1850.20167 0.00943
1848.91592 0.00952
1847.63016 0.01005
1846.34441 0.01088
1845.05865 0.01160
1843.77290 0.01182
1842.48714 0.01135
1841.20139 0.01041
1839.91563 0.00942
1838.62988 0.00883
1837.34412 0.00875
1836.05836 0.00896
1834.77261 0.00922
1833.48685 0.00950
1832.20110 0.00994
1830.91534 0.01057
1829.62959 0.01116
1828.34383 0.01144
1827.05808 0.01138
1825.77232 0.01115
1824.48657 0.01093
1823.20081 0.01077
1821.91506 0.01058
1820.62930 0.01028
1819.34355 0.00990
1818.05779 0.00956
1816.77204 0.00939
1815.48628 0.00943
1814.20053 0.00959
1812.91477 0.00981
1811.62902 0.01003
1810.34326 0.01026
1809.05751 0.01043
1807.77175 0.01047
1806.48600 0.01038
1805.20024 0.01029
1803.91449 0.01031
1802.62873 0.01043
1801.34298 0.01050
1800.05722 0.01038
1798.77147 0.01017
1797.48571 0.01015
1796.19995 0.01060
1794.91420 0.01142
1793.62844 0.01220
1792.34269 0.01243
1791.05693 0.01199
1789.77118 0.01119
1788.48542 0.01052
1787.19967 0.01022
1785.91391 0.01024
1784.62816 0.01039
1783.34240 0.01047
1782.05665 0.01040
1780.77089 0.01012
1779.48514 0.00970
1778.19938 0.00936
1776.91363 0.00941
1775.62787 0.01001
1774.34212 0.01092
1773.05636 0.01168
1771.77061 0.01195
1770.48485 0.01168
1769.19910 0.01109
1767.91334 0.01042
1766.62759 0.00985
1765.34183 0.00958
1764.05608 0.00966
1762.77032 0.00996
1761.48457 0.01025
1760.19881 0.01040
1758.91306 0.01036
1757.62730 0.01021
1756.34155 0.01014
1755.05579 0.01035
1753.77003 0.01092
1752.48428 0.01162
1751.19852 0.01201
1749.91277 0.01177
1748.62701 0.01097
1747.34126 0.01003
1746.05550 0.00939
1744.76975 0.00924
1743.48399 0.00942
1742.19824 0.00968
1740.91248 0.00987
1739.62673 0.01014
1738.34097 0.01088
1737.05522 0.01224
1735.76946 0.01386
1734.48371 0.01495
1733.19795 0.01487
1731.91220 0.01364
1730.62644 0.01178
1729.34069 0.01011
1728.05493 0.00911
1726.76918 0.00874
1725.48342 0.00870
1724.19767 0.00882
1722.91191 0.00931
1721.62616 0.01050
1720.34040 0.01242
1719.05465 0.01447
1717.76889 0.01575
1716.48314 0.01565
1715.19738 0.01435
1713.91162 0.01257
1712.62587 0.01099
1711.34011 0.01013
1710.05436 0.01006
1708.76860 0.01053
1707.48285 0.01117
1706.19709 0.01186
1704.91134 0.01280
1703.62558 0.01428
1702.33983 0.01622
1701.05407 0.01821
1699.76832 0.01979
1698.48256 0.02065
1697.19681 0.02068
1695.91105 0.01996
1694.62530 0.01863
1693.33954 0.01715
1692.05379 0.01614
1690.76803 0.01620
1689.48228 0.01769
1688.19652 0.02047
1686.91077 0.02379
1685.62501 0.02667
1684.33926 0.02800
1683.05350 0.02747
1681.76775 0.02590
1680.48199 0.02462
1679.19624 0.02457
1677.91048 0.02573
1676.62473 0.02743
1675.33897 0.02898
1674.05322 0.03012
1672.76746 0.03102
1671.48170 0.03187
1670.19595 0.03264
1668.91019 0.03320
1667.62444 0.03354
1666.33868 0.03383
1665.05293 0.03419
1663.76717 0.03451
1662.48142 0.03453
1661.19566 0.03418
1659.90991 0.03387
1658.62415 0.03438
1657.33840 0.03643
1656.05264 0.03987
1654.76689 0.04339
1653.48113 0.04528
1652.19538 0.04484
1650.90962 0.04287
1649.62387 0.04080
1648.33811 0.03973
1647.05236 0.03961
1645.76660 0.03966
1644.48085 0.03928
1643.19509 0.03862
1641.90934 0.03826
1640.62358 0.03869
1639.33783 0.04002
1638.05207 0.04178
1636.76632 0.04309
1635.48056 0.04319
1634.19481 0.04198
1632.90905 0.04009
1631.62329 0.03832
1630.33754 0.03721
1629.05178 0.03681
1627.76603 0.03679
1626.48027 0.03678
1625.19452 0.03653
1623.90876 0.03593
1622.62301 0.03516
1621.33725 0.03463
1620.05150 0.03467
1618.76574 0.03514
1617.47999 0.03539
1616.19423 0.03485
1614.90848 0.03350
1613.62272 0.03185
1612.33697 0.03052
1611.05121 0.02983
1609.76546 0.02964
1608.47970 0.02966
1607.19395 0.02968
1605.90819 0.02962
1604.62244 0.02954
1603.33668 0.02944
1602.05093 0.02933
1600.76517 0.02922
1599.47942 0.02914
1598.19366 0.02912
1596.90791 0.02915
1595.62215 0.02923
1594.33640 0.02932
1593.05064 0.02940
1591.76488 0.02945
1590.47913 0.02945
1589.19337 0.02941
1587.90762 0.02931
1586.62186 0.02914
1585.33611 0.02890
1584.05035 0.02862
1582.76460 0.02850
1581.47884 0.02885
1580.19309 0.02991
1578.90733 0.03150
1577.62158 0.03306
1576.33582 0.03384
1575.05007 0.03359
1573.76431 0.03278
1572.47856 0.03213
1571.19280 0.03195
1569.90705 0.03196
1568.62129 0.03170
1567.33554 0.03102
1566.04978 0.03033
1564.76403 0.03041
1563.47827 0.03188
1562.19252 0.03466
1560.90676 0.03779
1559.62101 0.04009
1558.33525 0.04054
1557.04950 0.03918
1555.76374 0.03695
1554.47799 0.03496
1553.19223 0.03374
1551.90648 0.03323
1550.62072 0.03310
1549.33496 0.03321
1548.04921 0.03357
1546.76345 0.03430
1545.47770 0.03550
1544.19194 0.03720
1542.90619 0.03910
1541.62043 0.04067
1540.33468 0.04111
1539.04892 0.04009
1537.76317 0.03810
1536.47741 0.03611
1535.19166 0.03486
1533.90590 0.03438
1532.62015 0.03424
1531.33439 0.03414
1530.04864 0.03407
1528.76288 0.03420
1527.47713 0.03466
1526.19137 0.03545
1524.90562 0.03649
1523.61986 0.03760
1522.33411 0.03841
1521.04835 0.03855
1519.76260 0.03792
1518.47684 0.03678
1517.19109 0.03557
1515.90533 0.03462
1514.61958 0.03406
1513.33382 0.03401
1512.04807 0.03473
1510.76231 0.03639
1509.47655 0.03879
1508.19080 0.04109
1506.90504 0.04224
1505.61929 0.04173
1504.33353 0.03993
1503.04778 0.03794
1501.76202 0.03686
1500.47627 0.03707
1499.19051 0.03814
1497.90476 0.03927
1496.61900 0.03991
1495.33325 0.03995
1494.04749 0.03974
1492.76174 0.03973
1491.47598 0.04009
1490.19023 0.04059
1488.90447 0.04087
1487.61872 0.04078
1486.33296 0.04048
1485.04721 0.04026
1483.76145 0.04029
1482.47570 0.04056
1481.18994 0.04099
1479.90419 0.04163
1478.61843 0.04261
1477.33268 0.04400
1476.04692 0.04567
1474.76117 0.04722
1473.47541 0.04817
1472.18966 0.04832
1470.90390 0.04786
1469.61814 0.04721
1468.33239 0.04685
1467.04663 0.04691
1465.76088 0.04718
1464.47512 0.04737
1463.18937 0.04758
1461.90361 0.04829
1460.61786 0.04989
1459.33210 0.05219
1458.04635 0.05432
1456.76059 0.05530
1455.47484 0.05487
1454.18908 0.05364
1452.90333 0.05253
1451.61757 0.05207
1450.33182 0.05228
1449.04606 0.05280
1447.76031 0.05321
1446.47455 0.05328
1445.18880 0.05298
1443.90304 0.05244
1442.61729 0.05192
1441.33153 0.05171
1440.04578 0.05194
1438.76002 0.05239
1437.47427 0.05259
1436.18851 0.05226
1434.90276 0.05151
1433.61700 0.05070
1432.33125 0.05023
1431.04549 0.05020
1429.75974 0.05047
1428.47398 0.05086
1427.18822 0.05131
1425.90247 0.05188
1424.61671 0.05273
1423.33096 0.05397
1422.04520 0.05552
1420.75945 0.05706
1419.47369 0.05817
1418.18794 0.05860
1416.90218 0.05849
1415.61643 0.05819
1414.33067 0.05806
1413.04492 0.05820
1411.75916 0.05845
1410.47341 0.05864
1409.18765 0.05868
1407.90190 0.05856
1406.61614 0.05829
1405.33039 0.05786
1404.04463 0.05732
1402.75888 0.05674
1401.47312 0.05619
1400.18737 0.05563
1398.90161 0.05499
1397.61586 0.05425
1396.33010 0.05336
1395.04435 0.05226
1393.75859 0.05098
1392.47284 0.04969
1391.18708 0.04860
1389.90133 0.04782
1388.61557 0.04722
1387.32981 0.04654
1386.04406 0.04561
1384.75830 0.04447
1383.47255 0.04330
1382.18679 0.04225
1380.90104 0.04140
1379.61528 0.04071
1378.32953 0.04010
1377.04377 0.03947
1375.75802 0.03874
1374.47226 0.03786
1373.18651 0.03683
1371.90075 0.03575
1370.61500 0.03467
1369.32924 0.03366
1368.04349 0.03279
1366.75773 0.03211
1365.47198 0.03159
1364.18622 0.03114
1362.90047 0.03064
1361.61471 0.03001
1360.32896 0.02926
1359.04320 0.02849
1357.75745 0.02778
1356.47169 0.02719
1355.18594 0.02673
1353.90018 0.02637
1352.61443 0.02613
1351.32867 0.02597
1350.04292 0.02586
1348.75716 0.02570
1347.47141 0.02546
1346.18565 0.02517
1344.89989 0.02489
1343.61414 0.02471
1342.32838 0.02465
1341.04263 0.02465
1339.75687 0.02461
1338.47112 0.02446
1337.18536 0.02419
1335.89961 0.02384
1334.61385 0.02350
1333.32810 0.02323
1332.04234 0.02305
1330.75659 0.02293
1329.47083 0.02282
1328.18508 0.02270
1326.89932 0.02256
1325.61357 0.02239
1324.32781 0.02219
1323.04206 0.02199
1321.75630 0.02180
1320.47055 0.02162
1319.18479 0.02143
1317.89904 0.02123
1316.61328 0.02099
1315.32753 0.02071
1314.04177 0.02042
1312.75602 0.02018
1311.47026 0.02001
1310.18451 0.01989
1308.89875 0.01980
1307.61300 0.01969
1306.32724 0.01953
1305.04148 0.01934
1303.75573 0.01916
1302.46997 0.01901
1301.18422 0.01891
1299.89846 0.01881
1298.61271 0.01868
1297.32695 0.01852
1296.04120 0.01836
1294.75544 0.01823
1293.46969 0.01815
1292.18393 0.01810
1290.89818 0.01806
1289.61242 0.01802
1288.32667 0.01796
1287.04091 0.01790
1285.75516 0.01785
1284.46940 0.01783
1283.18365 0.01780
1281.89789 0.01776
1280.61214 0.01767
1279.32638 0.01758
1278.04063 0.01751
1276.75487 0.01747
1275.46912 0.01745
1274.18336 0.01743
1272.89761 0.01739
1271.61185 0.01732
1270.32610 0.01727
1269.04034 0.01727
1267.75459 0.01734
1266.46883 0.01746
1265.18307 0.01763
1263.89732 0.01781
1262.61156 0.01796
1261.32581 0.01805
1260.04005 0.01805
1258.75430 0.01796
1257.46854 0.01780
1256.18279 0.01762
1254.89703 0.01747
1253.61128 0.01739
1252.32552 0.01738
1251.03977 0.01740
1249.75401 0.01742
1248.46826 0.01740
1247.18250 0.01732
1245.89675 0.01722
1244.61099 0.01710
1243.32524 0.01701
1242.03948 0.01693
1240.75373 0.01685
1239.46797 0.01677
1238.18222 0.01666
1236.89646 0.01655
1235.61071 0.01644
1234.32495 0.01633
1233.03920 0.01622
1231.75344 0.01611
1230.46769 0.01602
1229.18193 0.01592
1227.89618 0.01579
1226.61042 0.01563
1225.32467 0.01541
1224.03891 0.01515
1222.75315 0.01489
1221.46740 0.01468
1220.18164 0.01456
1218.89589 0.01452
1217.61013 0.01448
1216.32438 0.01440
1215.03862 0.01427
1213.75287 0.01411
1212.46711 0.01400
1211.18136 0.01397
1209.89560 0.01397
1208.60985 0.01398
1207.32409 0.01399
1206.03834 0.01402
1204.75258 0.01408
1203.46683 0.01415
1202.18107 0.01426
1200.89532 0.01433
1199.60956 0.01398
1198.32381 0.01392
1197.03805 0.01387
1195.75230 0.01377
1194.46654 0.01360
1193.18079 0.01339
1191.89503 0.01321
1190.60928 0.01307
1189.32352 0.01296
1188.03777 0.01282
1186.75201 0.01265
1185.46626 0.01248
1184.18050 0.01233
1182.89474 0.01221
1181.60899 0.01212
1180.32323 0.01206
1179.03748 0.01200
1177.75172 0.01190
1176.46597 0.01178
1175.18021 0.01170
1173.89446 0.01167
1172.60870 0.01167
1171.32295 0.01169
1170.03719 0.01177
1168.75144 0.01189
1167.46568 0.01206
1166.17993 0.01223
1164.89417 0.01237
1163.60842 0.01248
1162.32266 0.01254
1161.03691 0.01252
1159.75115 0.01246
1158.46540 0.01241
1157.17964 0.01242
1155.89389 0.01251
1154.60813 0.01264
1153.32238 0.01274
1152.03662 0.01280
1150.75087 0.01284
1149.46511 0.01291
1148.17936 0.01301
1146.89360 0.01312
1145.60785 0.01323
1144.32209 0.01339
1143.03633 0.01368
1141.75058 0.01406
1140.46482 0.01447
1139.17907 0.01484
1137.89331 0.01521
1136.60756 0.01564
1135.32180 0.01617
1134.03605 0.01679
1132.75029 0.01752
1131.46454 0.01837
1130.17878 0.01934
1128.89303 0.02041
1127.60727 0.02153
1126.32152 0.02275
1125.03576 0.02410
1123.75001 0.02555
1122.46425 0.02706
1121.17850 0.02865
1119.89274 0.03035
1118.60699 0.03221
1117.32123 0.03419
1116.03548 0.03623
1114.74972 0.03830
1113.46397 0.04035
1112.17821 0.04239
1110.89246 0.04439
1109.60670 0.04637
1108.32095 0.04829
1107.03519 0.05014
1105.74944 0.05188
1104.46368 0.05355
1103.17793 0.05519
1101.89217 0.05682
1100.60641 0.05843
1099.32066 0.05999
1098.03490 0.06148
1096.74915 0.06290
1095.46339 0.06425
1094.17764 0.06555
1092.89188 0.06676
1091.60613 0.06784
1090.32037 0.06874
1089.03462 0.06946
1087.74886 0.07004
1086.46311 0.07058
1085.17735 0.07117
1083.89160 0.07190
1082.60584 0.07278
1081.32009 0.07377
1080.03433 0.07486
1078.74858 0.07605
1077.46282 0.07734
1076.17707 0.07877
1074.89131 0.08033
1073.60556 0.08203
1072.31980 0.08381
1071.03405 0.08562
1069.74829 0.08743
1068.46254 0.08924
1067.17678 0.09109
1065.89103 0.09296
1064.60527 0.09486
1063.31952 0.09677
1062.03376 0.09867
1060.74800 0.10053
1059.46225 0.10235
1058.17649 0.10414
1056.89074 0.10594
1055.60498 0.10774
1054.31923 0.10953
1053.03347 0.11128
1051.74772 0.11303
1050.46196 0.11479
1049.17621 0.11658
1047.89045 0.11837
1046.60470 0.12014
1045.31894 0.12191
1044.03319 0.12370
1042.74743 0.12551
1041.46168 0.12730
1040.17592 0.12905
1038.89017 0.13077
1037.60441 0.13250
1036.31866 0.13422
1035.03290 0.13593
1033.74715 0.13759
1032.46139 0.13914
1031.17564 0.14055
1029.88988 0.14180
1028.60413 0.14294
1027.31837 0.14401
1026.03262 0.14498
1024.74686 0.14580
1023.46111 0.14643
1022.17535 0.14684
1020.88960 0.14702
1019.60384 0.14696
1018.31808 0.14667
1017.03233 0.14622
1015.74657 0.14563
1014.46082 0.14487
1013.17506 0.14389
1011.88931 0.14267
1010.60355 0.14123
1009.31780 0.13962
1008.03204 0.13785
1006.74629 0.13591
1005.46053 0.13377
1004.17478 0.13149
1002.88902 0.12912
1001.60327 0.12667
1000.31751 0.12411
999.03176 0.12144
997.74600 0.11867
996.46025 0.11587
995.17449 0.11305
993.88874 0.11023
992.60298 0.10744
991.31723 0.10467
990.03147 0.10194
988.74572 0.09922
987.45996 0.09656
986.17421 0.09396
984.88845 0.09141
983.60270 0.08889
982.31694 0.08640
981.03119 0.08401
979.74543 0.08176
978.45967 0.07967
977.17392 0.07768
975.88816 0.07578
974.60241 0.07400
973.31665 0.07241
972.03090 0.07105
970.74514 0.06996
969.45939 0.06920
968.17363 0.06884
966.88788 0.06891
965.60212 0.06932
964.31637 0.06991
963.03061 0.07050
961.74486 0.07091
960.45910 0.07097
959.17335 0.07059
957.88759 0.06979
956.60184 0.06865
955.31608 0.06730
954.03033 0.06587
952.74457 0.06447
951.45882 0.06317
950.17306 0.06192
948.88731 0.06067
947.60155 0.05938
946.31580 0.05810
945.03004 0.05688
943.74429 0.05575
942.45853 0.05466
941.17278 0.05355
939.88702 0.05242
938.60126 0.05133
937.31551 0.05036
936.02975 0.04953
934.74400 0.04880
933.45824 0.04808
932.17249 0.04733
930.88673 0.04657
929.60098 0.04583
928.31522 0.04515
927.02947 0.04453
925.74371 0.04395
924.45796 0.04338
923.17220 0.04284
921.88645 0.04234
920.60069 0.04190
919.31494 0.04145
918.02918 0.04098
916.74343 0.04054
915.45767 0.04015
914.17192 0.03980
912.88616 0.03945
911.60041 0.03904
910.31465 0.03860
909.02890 0.03816
907.74314 0.03777
906.45739 0.03744
905.17163 0.03711
903.88588 0.03672
902.60012 0.03626
901.31437 0.03578
900.02861 0.03533
898.74286 0.03491
897.45710 0.03452
896.17134 0.03418
894.88559 0.03389
893.59983 0.03366
892.31408 0.03345
891.02832 0.03325
889.74257 0.03308
888.45681 0.03300
887.17106 0.03309
885.88530 0.03346
884.59955 0.03424
883.31379 0.03545
882.02804 0.03690
880.74228 0.03825
879.45653 0.03924
878.17077 0.03984
876.88502 0.04033
875.59926 0.04097
874.31351 0.04180
873.02775 0.04257
871.74200 0.04296
870.45624 0.04287
869.17049 0.04239
867.88473 0.04165
866.59898 0.04072
865.31322 0.03962
864.02747 0.03840
862.74171 0.03719
861.45596 0.03611
860.17020 0.03524
858.88445 0.03455
857.59869 0.03400
856.31293 0.03354
855.02718 0.03314
853.74142 0.03279
852.45567 0.03244
851.16991 0.03205
849.88416 0.03165
848.59840 0.03130
847.31265 0.03100
846.02689 0.03073
844.74114 0.03046
843.45538 0.03019
842.16963 0.02995
840.88387 0.02974
839.59812 0.02957
838.31236 0.02942
837.02661 0.02927
835.74085 0.02913
834.45510 0.02902
833.16934 0.02896
831.88359 0.02898
830.59783 0.02904
829.31208 0.02908
828.02632 0.02904
826.74057 0.02891
825.45481 0.02874
824.16906 0.02862
822.88330 0.02859
821.59755 0.02859
820.31179 0.02853
819.02604 0.02841
817.74028 0.02828
816.45452 0.02817
815.16877 0.02803
813.88301 0.02786
812.59726 0.02775
811.31150 0.02775
810.02575 0.02786
808.73999 0.02800
807.45424 0.02810
806.16848 0.02815
804.88273 0.02820
803.59697 0.02827
802.31122 0.02837
801.02546 0.02848
799.73971 0.02858
798.45395 0.02866
797.16820 0.02864
795.88244 0.02847
794.59669 0.02820
793.31093 0.02795
792.02518 0.02784
790.73942 0.02780
789.45367 0.02770
788.16791 0.02749
786.88216 0.02718
785.59640 0.02686
784.31065 0.02664
783.02489 0.02652
781.73914 0.02649
780.45338 0.02649
779.16763 0.02650
777.88187 0.02650
776.59612 0.02649
775.31036 0.02644
774.02460 0.02635
772.73885 0.02626
771.45309 0.02620
770.16734 0.02616
768.88158 0.02608
767.59583 0.02590
766.31007 0.02566
765.02432 0.02544
763.73856 0.02536
762.45281 0.02548
761.16705 0.02570
759.88130 0.02588
758.59554 0.02595
757.30979 0.02596
756.02403 0.02600
754.73828 0.02607
753.45252 0.02614
752.16677 0.02617
750.88101 0.02612
749.59526 0.02598
748.30950 0.02580
747.02375 0.02568
745.73799 0.02569
744.45224 0.02580
743.16648 0.02595
741.88073 0.02605
740.59497 0.02604
739.30922 0.02586
738.02346 0.02555
736.73771 0.02523
735.45195 0.02500
734.16619 0.02486
732.88044 0.02476
731.59468 0.02471
730.30893 0.02475
729.02317 0.02487
727.73742 0.02498
726.45166 0.02501
725.16591 0.02493
723.88015 0.02434
722.59440 0.02458
721.30864 0.02485
720.02289 0.02497
718.73713 0.02501
717.45138 0.02495
716.16562 0.02478
714.87987 0.02462
713.59411 0.02457
712.30836 0.02463
711.02260 0.02474
709.73685 0.02482
708.45109 0.02487
707.16534 0.02491
705.87958 0.02500
704.59383 0.02511
703.30807 0.02517
702.02232 0.02520
700.73656 0.02521
699.45081 0.02525
698.16505 0.02531
696.87930 0.02536
695.59354 0.02538
694.30779 0.02536
693.02203 0.02531
691.73627 0.02526
690.45052 0.02525
689.16476 0.02525
687.87901 0.02522
686.59325 0.02510
685.30750 0.02490
684.02174 0.02472
682.73599 0.02460
681.45023 0.02455
680.16448 0.02453
678.87872 0.02454
677.59297 0.02459
676.30721 0.02469
675.02146 0.02479
673.73570 0.02485
672.44995 0.02488
671.16419 0.02489
669.87844 0.02490
668.59268 0.02482
667.30693 0.02467
666.02117 0.02465
664.73542 0.02455
663.44966 0.02447
662.16391 0.02446
660.87815 0.02450
659.59240 0.02455
658.30664 0.02454
657.02089 0.02448
655.73513 0.02442
654.44938 0.02444
653.16362 0.02453
651.87786 0.02466
650.59211 0.02477
649.30635 0.02482
648.02060 0.02479
646.73484 0.02472
645.44909 0.02468
644.16333 0.02474
642.87758 0.02488
641.59182 0.02505
640.30607 0.02522
639.02031 0.02541
637.73456 0.02568
636.44880 0.02603
635.16305 0.02638
633.87729 0.02660
632.59154 0.02691
631.30578 0.02871
630.02003 0.03303
628.73427 0.03455
627.44852 0.03064
626.16276 0.02896
624.87701 0.02888
623.59125 0.02880
622.30550 0.02889
621.01974 0.02936
619.73399 0.03005
618.44823 0.03095
617.16248 0.03206
615.87672 0.03302
614.59097 0.03362
613.30521 0.03448
612.01945 0.03648
610.73370 0.03969
609.44794 0.04349
608.16219 0.04756
606.87643 0.05202
605.59068 0.05650
604.30492 0.06016
603.01917 0.06234
601.73341 0.06299
600.44766 0.06246
599.16190 0.06123
597.87615 0.05978
596.59039 0.05838
595.30464 0.05708
594.01888 0.05579
592.73313 0.05449
591.44737 0.05329
590.16162 0.05235
588.87586 0.05176
587.59011 0.05154
586.30435 0.05172
585.01860 0.05228
583.73284 0.05320
582.44709 0.05442
581.16133 0.05587
579.87558 0.05749
578.58982 0.05926
577.30407 0.06114
576.01831 0.06307
574.73256 0.06500
573.44680 0.06688
572.16105 0.06867
570.87529 0.07041
569.58953 0.07220
568.30378 0.07411
567.01802 0.07615
565.73227 0.07826
564.44651 0.08025
563.16076 0.08187
561.87500 0.08286
560.58925 0.08306
559.30349 0.08236
558.01774 0.08075
556.73198 0.07835
555.44623 0.07549
554.16047 0.07248
552.87472 0.06953
551.58896 0.06671
550.30321 0.06401
549.01745 0.06149
547.73170 0.05919
546.44594 0.05715
545.16019 0.05529
543.87443 0.05348
542.58868 0.05167
541.30292 0.04998
540.01717 0.04852
538.73141 0.04731
537.44566 0.04620
536.15990 0.04512
534.87415 0.04406
533.58839 0.04299
532.30264 0.04192
531.01688 0.04087
529.73112 0.03994
528.44537 0.03917
527.15961 0.03854
525.87386 0.03796
524.58810 0.03733
523.30235 0.03664
522.01659 0.03593
520.73084 0.03527
519.44508 0.03470
518.15933 0.03416
516.87357 0.03360
515.58782 0.03299
514.30206 0.03234
513.01631 0.03170
511.73055 0.03112
510.44480 0.03065
509.15904 0.03028
507.87329 0.02997
506.58753 0.02967
505.30178 0.02937
504.01602 0.02908
502.73027 0.02881
501.44451 0.02854
500.15876 0.02821
498.87300 0.02781
497.58725 0.02739
496.30149 0.02701
495.01574 0.02670
493.72998 0.02642
492.44423 0.02612
491.15847 0.02578
489.87271 0.02544
488.58696 0.02515
487.30120 0.02494
486.01545 0.02479
484.72969 0.02465
483.44394 0.02448
482.15818 0.02433
480.87243 0.02426
479.58667 0.02428
478.30092 0.02433
477.01516 0.02437
475.72941 0.02441
474.44365 0.02452
473.15790 0.02469
471.87214 0.02485
470.58639 0.02490
469.30063 0.02480
468.01488 0.02452
466.72912 0.02416
465.44337 0.02377
464.15761 0.02341
462.87186 0.02310
461.58610 0.02284
460.30035 0.02261
459.01459 0.02242
457.72884 0.02219
456.44308 0.02188
455.15733 0.02150
453.87157 0.02111
452.58582 0.02075
451.30006 0.02042
450.01431 0.02015
448.72855 0.01996
447.44279 0.01983
446.15704 0.01976
444.87128 0.01971
443.58553 0.01965
442.29977 0.01953
441.01402 0.01933
439.72826 0.01910
438.44251 0.01889
437.15675 0.01876
435.87100 0.01868
434.58524 0.01858
433.29949 0.01841
432.01373 0.01813
430.72798 0.01781
429.44222 0.01754
428.15647 0.01737
426.87071 0.01730
425.58496 0.01727
424.29920 0.01724
423.01345 0.01722
421.72769 0.01724
420.44194 0.01724
419.15618 0.01713
417.87043 0.01685
416.58467 0.01645
415.29892 0.01605
414.01316 0.01576
412.72741 0.01559
411.44165 0.01550
410.15590 0.01547
408.87014 0.01547
407.58438 0.01545
406.29863 0.01539
405.01287 0.01529
403.72712 0.01522
402.44136 0.01525
401.15561 0.01539
399.86985 0.01560
