3998.69854 0.01431
3997.41278 0.01554
3996.12703 0.01678
3994.84127 0.01749
3993.55552 0.01726
3992.26976 0.01661
3990.98401 0.01673
3989.69825 0.01821
3988.41250 0.02035
3987.12674 0.02181
3985.84099 0.02171
3984.55523 0.02004
3983.26948 0.01752
3981.98372 0.01539
3980.69797 0.01483
3979.41221 0.01610
3978.12646 0.01834
3976.84070 0.02011
3975.55495 0.02021
3974.26919 0.01842
3972.98344 0.01591
3971.69768 0.01473
3970.41193 0.01598
3969.12617 0.01849
3967.84042 0.02011
3966.55466 0.02018
3965.26891 0.02000
3963.98315 0.02082
3962.69740 0.02219
3961.41164 0.02271
3960.12589 0.02151
3958.84013 0.01878
3957.55437 0.01538
3956.26862 0.01250
3954.98286 0.01111
3953.69711 0.01149
3952.41135 0.01321
3951.12560 0.01565
3949.83984 0.01801
3948.55409 0.01939
3947.26833 0.01950
3945.98258 0.01927
3944.69682 0.02002
3943.41107 0.02202
3942.12531 0.02407
3940.83956 0.02478
3939.55380 0.02384
3938.26805 0.02217
3936.98229 0.02109
3935.69654 0.02124
3934.41078 0.02230
3933.12503 0.02366
3931.83927 0.02487
3930.55352 0.02559
3929.26776 0.02517
3927.98201 0.02319
3926.69625 0.02014
3925.41050 0.01722
3924.12474 0.01520
3922.83899 0.01401
3921.55323 0.01321
3920.26748 0.01268
3918.98172 0.01264
3917.69596 0.01320
3916.41021 0.01422
3915.12445 0.01538
3913.83870 0.01649
3912.55294 0.01752
3911.26719 0.01841
3909.98143 0.01881
3908.69568 0.01838
3907.40992 0.01751
3906.12417 0.01760
3904.83841 0.01980
3903.55266 0.02375
3902.26690 0.02793
3900.98115 0.03106
3899.69539 0.03275
3898.40964 0.03319
3897.12388 0.03272
3895.83813 0.03204
3894.55237 0.03156
3893.26662 0.03086
3891.98086 0.02936
3890.69511 0.02733
3889.40935 0.02562
3888.12360 0.02462
3886.83784 0.02372
3885.55209 0.02207
3884.26633 0.01937
3882.98058 0.01627
3881.69482 0.01409
3880.40907 0.01357
3879.12331 0.01385
3877.83755 0.01345
3876.55180 0.01220
3875.26604 0.01153
3873.98029 0.01253
3872.69453 0.01455
3871.40878 0.01620
3870.12302 0.01714
3868.83727 0.01811
3867.55151 0.01966
3866.26576 0.02111
3864.98000 0.02074
3863.69425 0.01751
3862.40849 0.01278
3861.12274 0.01007
3859.83698 0.01239
3858.55123 0.01886
3857.26547 0.02477
3855.97972 0.02545
3854.69396 0.02015
3853.40821 0.01208
3852.12245 0.00532
3850.83670 0.00202
3849.55094 0.00217
3848.26519 0.00418
3846.97943 0.00580
3845.69368 0.00574
3844.40792 0.00462
3843.12217 0.00400
3841.83641 0.00425
3840.55066 0.00452
3839.26490 0.00434
3837.97915 0.00420
3836.69339 0.00433
3835.40763 0.00381
3834.12188 0.00171
3832.83612 -0.00145
3831.55037 -0.00439
3830.26461 -0.00615
3828.97886 -0.00563
3827.69310 -0.00130
3826.40735 0.00689
3825.12159 0.01577
3823.83584 0.02101
3822.55008 0.02142
3821.26433 0.01968
3819.97857 0.01841
3818.69282 0.01738
3817.40706 0.01539
3816.12131 0.01297
3814.83555 0.01155
3813.54980 0.01137
3812.26404 0.01160
3810.97829 0.01181
3809.69253 0.01233
3808.40678 0.01346
3807.12102 0.01481
3805.83527 0.01502
3804.54951 0.01307
3803.26376 0.00995
3801.97800 0.00846
3800.69225 0.01047
3799.40649 0.01490
3798.12074 0.01927
3796.83498 0.02250
3795.54922 0.02467
3794.26347 0.02513
3792.97771 0.02277
3791.69196 0.01807
3790.40620 0.01354
3789.12045 0.01155
3787.83469 0.01212
3786.54894 0.01326
3785.26318 0.01320
3783.97743 0.01206
3782.69167 0.01156
3781.40592 0.01297
3780.12016 0.01540
3778.83441 0.01626
3777.54865 0.01388
3776.26290 0.00957
3774.97714 0.00665
3773.69139 0.00714
3772.40563 0.00960
3771.11988 0.01083
3769.83412 0.00905
3768.54837 0.00534
3767.26261 0.00207
3765.97686 0.00103
3764.69110 0.00256
3763.40535 0.00554
3762.11959 0.00795
3760.83384 0.00827
3759.54808 0.00691
3758.26233 0.00591
3756.97657 0.00725
3755.69081 0.01099
3754.40506 0.01522
3753.11930 0.01811
3751.83355 0.01972
3750.54779 0.02185
3749.26204 0.02529
3747.97628 0.02833
3746.69053 0.02890
3745.40477 0.02737
3744.11902 0.02573
3742.83326 0.02455
3741.54751 0.02265
3740.26175 0.01904
3738.97600 0.01389
3737.69024 0.00803
3736.40449 0.00283
3735.11873 0.00023
3733.83298 0.00134
3732.54722 0.00541
3731.26147 0.01006
3729.97571 0.01288
3728.68996 0.01299
3727.40420 0.01156
3726.11845 0.01080
3724.83269 0.01208
3723.54694 0.01487
3722.26118 0.01748
3720.97543 0.01810
3719.68967 0.01573
3718.40392 0.01078
3717.11816 0.00515
3715.83241 0.00137
3714.54665 0.00061
3713.26089 0.00161
3711.97514 0.00187
3710.68938 0.00056
3709.40363 -0.00056
3708.11787 0.00027
3706.83212 0.00234
3705.54636 0.00325
3704.26061 0.00184
3702.97485 -0.00136
3701.68910 -0.00565
3700.40334 -0.01021
3699.11759 -0.01307
3697.83183 -0.01231
3696.54608 -0.00797
3695.26032 -0.00164
3693.97457 0.00491
3692.68881 0.00994
3691.40306 0.01189
3690.11730 0.01073
3688.83155 0.00762
3687.54579 0.00428
3686.26004 0.00131
3684.97428 -0.00180
3683.68853 -0.00519
3682.40277 -0.00799
3681.11702 -0.00909
3679.83126 -0.00856
3678.54551 -0.00821
3677.25975 -0.00966
3675.97400 -0.01180
3674.68824 -0.01197
3673.40248 -0.01021
3672.11673 -0.00980
3670.83097 -0.01234
3669.54522 -0.01478
3668.25946 -0.01330
3666.97371 -0.00860
3665.68795 -0.00500
3664.40220 -0.00495
3663.11644 -0.00678
3661.83069 -0.00793
3660.54493 -0.00867
3659.25918 -0.01120
3657.97342 -0.01602
3656.68767 -0.02085
3655.40191 -0.02316
3654.11616 -0.02301
3652.83040 -0.02277
3651.54465 -0.02444
3650.25889 -0.02769
3648.97314 -0.03091
3647.68738 -0.03381
3646.40163 -0.03783
3645.11587 -0.04361
3643.83012 -0.04860
3642.54436 -0.04894
3641.25861 -0.04346
3639.97285 -0.03504
3638.68710 -0.02795
3637.40134 -0.02433
3636.11559 -0.02296
3634.82983 -0.02146
3633.54408 -0.01928
3632.25832 -0.01870
3630.97256 -0.02257
3629.68681 -0.03092
3628.40105 -0.03995
3627.11530 -0.04532
3625.82954 -0.04616
3624.54379 -0.04522
3623.25803 -0.04498
3621.97228 -0.04486
3620.68652 -0.04296
3619.40077 -0.03941
3618.11501 -0.03624
3616.82926 -0.03473
3615.54350 -0.03413
3614.25775 -0.03322
3612.97199 -0.03215
3611.68624 -0.03237
3610.40048 -0.03497
3609.11473 -0.03931
3607.82897 -0.04350
3606.54322 -0.04594
3605.25746 -0.04650
3603.97171 -0.04621
3602.68595 -0.04666
3601.40020 -0.04920
3600.11444 -0.05390
3598.82869 -0.05891
3597.54293 -0.06232
3596.25718 -0.06466
3594.97142 -0.06808
3593.68567 -0.07273
3592.39991 -0.07557
3591.11415 -0.07388
3589.82840 -0.06841
3588.54264 -0.06244
3587.25689 -0.05826
3585.97113 -0.05597
3584.68538 -0.05462
3583.39962 -0.05319
3582.11387 -0.05068
3580.82811 -0.04698
3579.54236 -0.04410
3578.25660 -0.04569
3576.97085 -0.05419
3575.68509 -0.06789
3574.39934 -0.08098
3573.11358 -0.08721
3571.82783 -0.08466
3570.54207 -0.07699
3569.25632 -0.06997
3567.97056 -0.06659
3566.68481 -0.06563
3565.39905 -0.06443
3564.11330 -0.06264
3562.82754 -0.06256
3561.54179 -0.06609
3560.25603 -0.07255
3558.97028 -0.07986
3557.68452 -0.08692
3556.39877 -0.09350
3555.11301 -0.09830
3553.82726 -0.09922
3552.54150 -0.09616
3551.25574 -0.09225
3549.96999 -0.09123
3548.68423 -0.09381
3547.39848 -0.09685
3546.11272 -0.09636
3544.82697 -0.09126
3543.54121 -0.08453
3542.25546 -0.08053
3540.96970 -0.08121
3539.68395 -0.08490
3538.39819 -0.08838
3537.11244 -0.08978
3535.82668 -0.08928
3534.54093 -0.08764
3533.25517 -0.08547
3531.96942 -0.08429
3530.68366 -0.08642
3529.39791 -0.09228
3528.11215 -0.09846
3526.82640 -0.10054
3525.54064 -0.09749
3524.25489 -0.09181
3522.96913 -0.08623
3521.68338 -0.08213
3520.39762 -0.08030
3519.11187 -0.08095
3517.82611 -0.08317
3516.54036 -0.08593
3515.25460 -0.08944
3513.96885 -0.09415
3512.68309 -0.09900
3511.39734 -0.10187
3510.11158 -0.10176
3508.82582 -0.09953
3507.54007 -0.09665
3506.25431 -0.09389
3504.96856 -0.09156
3503.68280 -0.08976
3502.39705 -0.08797
3501.11129 -0.08484
3499.82554 -0.07975
3498.53978 -0.07476
3497.25403 -0.07359
3495.96827 -0.07771
3494.68252 -0.08421
3493.39676 -0.08824
3492.11101 -0.08750
3490.82525 -0.08379
3489.53950 -0.08057
3488.25374 -0.07962
3486.96799 -0.08024
3485.68223 -0.08173
3484.39648 -0.08555
3483.11072 -0.09361
3481.82497 -0.10451
3480.53921 -0.11320
3479.25346 -0.11544
3477.96770 -0.11161
3476.68195 -0.10520
3475.39619 -0.09884
3474.11044 -0.09324
3472.82468 -0.08881
3471.53893 -0.08652
3470.25317 -0.08682
3468.96741 -0.08875
3467.68166 -0.09026
3466.39590 -0.08943
3465.11015 -0.08619
3463.82439 -0.08300
3462.53864 -0.08282
3461.25288 -0.08591
3459.96713 -0.08961
3458.68137 -0.09158
3457.39562 -0.09174
3456.10986 -0.09082
3454.82411 -0.08890
3453.53835 -0.08646
3452.25260 -0.08547
3450.96684 -0.08764
3449.68109 -0.09207
3448.39533 -0.09539
3447.10958 -0.09455
3445.82382 -0.08918
3444.53807 -0.08189
3443.25231 -0.07637
3441.96656 -0.07473
3440.68080 -0.07608
3439.39505 -0.07765
3438.10929 -0.07758
3436.82354 -0.07669
3435.53778 -0.07713
3434.25203 -0.07907
3432.96627 -0.07935
3431.68052 -0.07425
3430.39476 -0.06347
3429.10900 -0.05114
3427.82325 -0.04291
3426.53749 -0.04208
3425.25174 -0.04735
3423.96598 -0.05398
3422.68023 -0.05733
3421.39447 -0.05606
3420.10872 -0.05200
3418.82296 -0.04736
3417.53721 -0.04307
3416.25145 -0.03962
3414.96570 -0.03804
3413.67994 -0.03875
3412.39419 -0.04025
3411.10843 -0.04017
3409.82268 -0.03799
3408.53692 -0.03595
3407.25117 -0.03640
3405.96541 -0.03847
3404.67966 -0.03878
3403.39390 -0.03644
3402.10815 -0.03438
3400.82239 -0.03329
3399.53664 -0.03556
3398.25088 -0.03969
3396.96513 -0.04209
3395.67937 -0.04163
3394.39362 -0.03876
3393.10786 -0.03392
3391.82211 -0.02864
3390.53635 -0.02629
3389.25060 -0.02956
3387.96484 -0.03692
3386.67908 -0.04290
3385.39333 -0.04276
3384.10757 -0.03651
3382.82182 -0.02824
3381.53606 -0.02197
3380.25031 -0.01868
3378.96455 -0.01672
3377.67880 -0.01414
3376.39304 -0.01013
3375.10729 -0.00535
3373.82153 -0.00113
3372.53578 0.00137
3371.25002 0.00162
3369.96427 -0.00022
3368.67851 -0.00325
3367.39276 -0.00589
3366.10700 -0.00661
3364.82125 -0.00496
3363.53549 -0.00187
3362.24974 0.00081
3360.96398 0.00099
3359.67823 -0.00186
3358.39247 -0.00492
3357.10672 -0.00324
3355.82096 0.00538
3354.53521 0.01726
3353.24945 0.02606
3351.96370 0.02893
3350.67794 0.02824
3349.39219 0.02740
3348.10643 0.02678
3346.82067 0.02458
3345.53492 0.02048
3344.24916 0.01671
3342.96341 0.01560
3341.67765 0.01733
3340.39190 0.02062
3339.10614 0.02438
3337.82039 0.02775
3336.53463 0.02953
3335.24888 0.02908
3333.96312 0.02755
3332.67737 0.02700
3331.39161 0.02831
3330.10586 0.03038
3328.82010 0.03152
3327.53435 0.03080
3326.24859 0.02855
3324.96284 0.02632
3323.67708 0.02607
3322.39133 0.02829
3321.10557 0.03106
3319.81982 0.03203
3318.53406 0.03137
3317.24831 0.03180
3315.96255 0.03521
3314.67680 0.04054
3313.39104 0.04566
3312.10529 0.05024
3310.81953 0.05524
3309.53378 0.06031
3308.24802 0.06353
3306.96227 0.06398
3305.67651 0.06310
3304.39075 0.06284
3303.10500 0.06335
3301.81924 0.06334
3300.53349 0.06201
3299.24773 0.05992
3297.96198 0.05834
3296.67622 0.05851
3295.39047 0.06111
3294.10471 0.06549
3292.81896 0.06961
3291.53320 0.07147
3290.24745 0.07080
3288.96169 0.06879
3287.67594 0.06664
3286.39018 0.06509
3285.10443 0.06492
3283.81867 0.06651
3282.53292 0.06908
3281.24716 0.07117
3279.96141 0.07212
3278.67565 0.07253
3277.38990 0.07320
3276.10414 0.07450
3274.81839 0.07676
3273.53263 0.08029
3272.24688 0.08446
3270.96112 0.08719
3269.67537 0.08637
3268.38961 0.08198
3267.10386 0.07648
3265.81810 0.07286
3264.53234 0.07229
3263.24659 0.07404
3261.96083 0.07712
3260.67508 0.08086
3259.38932 0.08416
3258.10357 0.08518
3256.81781 0.08284
3255.53206 0.07838
3254.24630 0.07496
3252.96055 0.07540
3251.67479 0.08008
3250.38904 0.08650
3249.10328 0.09107
3247.81753 0.09172
3246.53177 0.08900
3245.24602 0.08486
3243.96026 0.08079
3242.67451 0.07735
3241.38875 0.07493
3240.10300 0.07425
3238.81724 0.07584
3237.53149 0.07938
3236.24573 0.08368
3234.95998 0.08735
3233.67422 0.08958
3232.38847 0.09050
3231.10271 0.09089
3229.81696 0.09147
3228.53120 0.09235
3227.24545 0.09312
3225.95969 0.09315
3224.67393 0.09220
3223.38818 0.09067
3222.10242 0.08927
3220.81667 0.08833
3219.53091 0.08741
3218.24516 0.08588
3216.95940 0.08380
3215.67365 0.08185
3214.38789 0.08052
3213.10214 0.07956
3211.81638 0.07865
3210.53063 0.07817
3209.24487 0.07885
3207.95912 0.08078
3206.67336 0.08293
3205.38761 0.08399
3204.10185 0.08371
3202.81610 0.08331
3201.53034 0.08421
3200.24459 0.08622
3198.95883 0.08761
3197.67308 0.08716
3196.38732 0.08589
3195.10157 0.08596
3193.81581 0.08798
3192.53006 0.09002
3191.24430 0.08952
3189.95855 0.08615
3188.67279 0.08240
3187.38704 0.08120
3186.10128 0.08291
3184.81553 0.08509
3183.52977 0.08525
3182.24401 0.08303
3180.95826 0.07973
3179.67250 0.07642
3178.38675 0.07347
3177.10099 0.07144
3175.81524 0.07148
3174.52948 0.07427
3173.24373 0.07892
3171.95797 0.08314
3170.67222 0.08496
3169.38646 0.08427
3168.10071 0.08241
3166.81495 0.08066
3165.52920 0.07937
3164.24344 0.07849
3162.95769 0.07824
3161.67193 0.07865
3160.38618 0.07906
3159.10042 0.07859
3157.81467 0.07713
3156.52891 0.07552
3155.24316 0.07468
3153.95740 0.07487
3152.67165 0.07590
3151.38589 0.07771
3150.10014 0.08022
3148.81438 0.08297
3147.52863 0.08499
3146.24287 0.08519
3144.95712 0.08328
3143.67136 0.08023
3142.38560 0.07771
3141.09985 0.07675
3139.81409 0.07699
3138.52834 0.07745
3137.24258 0.07747
3135.95683 0.07681
3134.67107 0.07535
3133.38532 0.07335
3132.09956 0.07173
3130.81381 0.07151
3129.52805 0.07282
3128.24230 0.07472
3126.95654 0.07592
3125.67079 0.07582
3124.38503 0.07478
3123.09928 0.07353
3121.81352 0.07259
3120.52777 0.07226
3119.24201 0.07270
3117.95626 0.07369
3116.67050 0.07461
3115.38475 0.07513
3114.09899 0.07552
3112.81324 0.07604
3111.52748 0.07634
3110.24173 0.07585
3108.95597 0.07451
3107.67022 0.07283
3106.38446 0.07160
3105.09871 0.07138
3103.81295 0.07212
3102.52719 0.07328
3101.24144 0.07426
3099.95568 0.07468
3098.66993 0.07439
3097.38417 0.07356
3096.09842 0.07285
3094.81266 0.07306
3093.52691 0.07443
3092.24115 0.07649
3090.95540 0.07844
3089.66964 0.07959
3088.38389 0.07955
3087.09813 0.07837
3085.81238 0.07676
3084.52662 0.07583
3083.24087 0.07618
3081.95511 0.07714
3080.66936 0.07737
3079.38360 0.07631
3078.09785 0.07476
3076.81209 0.07374
3075.52634 0.07348
3074.24058 0.07358
3072.95483 0.07377
3071.66907 0.07404
3070.38332 0.07435
3069.09756 0.07449
3067.81181 0.07439
3066.52605 0.07414
3065.24030 0.07401
3063.95454 0.07409
3062.66879 0.07405
3061.38303 0.07341
3060.09727 0.07245
3058.81152 0.07235
3057.52576 0.07387
3056.24001 0.07619
3054.95425 0.07749
3053.66850 0.07681
3052.38274 0.07500
3051.09699 0.07362
3049.81123 0.07324
3048.52548 0.07303
3047.23972 0.07190
3045.95397 0.06973
3044.66821 0.06758
3043.38246 0.06674
3042.09670 0.06765
3040.81095 0.06959
3039.52519 0.07135
3038.23944 0.07222
3036.95368 0.07225
3035.66793 0.07169
3034.38217 0.07055
3033.09642 0.06889
3031.81066 0.06726
3030.52491 0.06625
3029.23915 0.06584
3027.95340 0.06557
3026.66764 0.06541
3025.38189 0.06616
3024.09613 0.06834
3022.81038 0.07109
3021.52462 0.07244
3020.23886 0.07126
3018.95311 0.06841
3017.66735 0.06578
3016.38160 0.06434
3015.09584 0.06369
3013.81009 0.06317
3012.52433 0.06282
3011.23858 0.06314
3009.95282 0.06433
3008.66707 0.06604
3007.38131 0.06763
3006.09556 0.06857
3004.80980 0.06866
3003.52405 0.06763
3002.23829 0.06591
3000.95254 0.06689
2999.66678 0.06992
2998.38103 0.07044
2997.09527 0.06954
2995.80952 0.06762
2994.52376 0.06590
2993.23801 0.06539
2991.95225 0.06590
2990.66650 0.06651
2989.38074 0.06668
2988.09499 0.06650
2986.80923 0.06627
2985.52348 0.06610
2984.23772 0.06593
2982.95197 0.06567
2981.66621 0.06544
2980.38046 0.06560
2979.09470 0.06640
2977.80894 0.06760
2976.52319 0.06873
2975.23743 0.06958
2973.95168 0.07007
2972.66592 0.07002
2971.38017 0.06945
2970.09441 0.06905
2968.80866 0.06968
2967.52290 0.07140
2966.23715 0.07348
2964.95139 0.07517
2963.66564 0.07614
2962.37988 0.07626
2961.09413 0.07566
2959.80837 0.07481
2958.52262 0.07446
2957.23686 0.07502
2955.95111 0.07625
2954.66535 0.07736
2953.37960 0.07758
2952.09384 0.07683
2950.80809 0.07593
2949.52233 0.07595
2948.23658 0.07729
2946.95082 0.07929
2945.66507 0.08075
2944.37931 0.08096
2943.09356 0.08011
2941.80780 0.07901
2940.52205 0.07842
2939.23629 0.07862
2937.95053 0.07924
2936.66478 0.07965
2935.37902 0.07959
2934.09327 0.07953
2932.80751 0.08006
2931.52176 0.08097
2930.23600 0.08148
2928.95025 0.08112
2927.66449 0.08028
2926.37874 0.07966
2925.09298 0.07948
2923.80723 0.07942
2922.52147 0.07896
2921.23572 0.07780
2919.94996 0.07609
2918.66421 0.07430
2917.37845 0.07285
2916.09270 0.07183
2914.80694 0.07121
2913.52119 0.07099
2912.23543 0.07117
2910.94968 0.07156
2909.66392 0.07192
2908.37817 0.07224
2907.09241 0.07254
2905.80666 0.07262
2904.52090 0.07217
2903.23515 0.07119
2901.94939 0.07000
2900.66364 0.06889
2899.37788 0.06789
2898.09212 0.06692
2896.80637 0.06609
2895.52061 0.06569
2894.23486 0.06582
2892.94910 0.06612
2891.66335 0.06601
2890.37759 0.06544
2889.09184 0.06501
2887.80608 0.06520
2886.52033 0.06564
2885.23457 0.06553
2883.94882 0.06478
2882.66306 0.06423
2881.37731 0.06449
2880.09155 0.06515
2878.80580 0.06540
2877.52004 0.06511
2876.23429 0.06485
2874.94853 0.06504
2873.66278 0.06540
2872.37702 0.06539
2871.09127 0.06485
2869.80551 0.06420
2868.51976 0.06403
2867.23400 0.06445
2865.94825 0.06499
2864.66249 0.06515
2863.37674 0.06492
2862.09098 0.06467
2860.80523 0.06446
2859.51947 0.06392
2858.23372 0.06268
2856.94796 0.06106
2855.66220 0.05982
2854.37645 0.05957
2853.09069 0.06008
2851.80494 0.06053
2850.51918 0.06025
2849.23343 0.05925
2847.94767 0.05811
2846.66192 0.05738
2845.37616 0.05721
2844.09041 0.05730
2842.80465 0.05727
2841.51890 0.05688
2840.23314 0.05618
2838.94739 0.05525
2837.66163 0.05410
2836.37588 0.05281
2835.09012 0.05175
2833.80437 0.05132
2832.51861 0.05170
2831.23286 0.05264
2829.94710 0.05359
2828.66135 0.05398
2827.37559 0.05358
2826.08984 0.05271
2824.80408 0.05202
2823.51833 0.05193
2822.23257 0.05243
2820.94682 0.05314
2819.66106 0.05366
2818.37531 0.05365
2817.08955 0.05291
2815.80379 0.05156
2814.51804 0.05009
2813.23228 0.04895
2811.94653 0.04822
2810.66077 0.04761
2809.37502 0.04696
2808.08926 0.04643
2806.80351 0.04622
2805.51775 0.04629
2804.23200 0.04663
2802.94624 0.04752
2801.66049 0.04909
2800.37473 0.05079
2799.08898 0.05158
2797.80322 0.05088
2796.51747 0.04909
2795.23171 0.04721
2793.94596 0.04589
2792.66020 0.04526
2791.37445 0.04515
2790.08869 0.04535
2788.80294 0.04549
2787.51718 0.04521
2786.23143 0.04441
2784.94567 0.04342
2783.65992 0.04272
2782.37416 0.04266
2781.08841 0.04324
2779.80265 0.04416
2778.51690 0.04496
2777.23114 0.04530
2775.94538 0.04523
2774.65963 0.04509
2773.37387 0.04526
2772.08812 0.04583
2770.80236 0.04647
2769.51661 0.04673
2768.23085 0.04635
2766.94510 0.04549
2765.65934 0.04449
2764.37359 0.04368
2763.08783 0.04330
2761.80208 0.04348
2760.51632 0.04411
2759.23057 0.04476
2757.94481 0.04498
2756.65906 0.04474
2755.37330 0.04441
2754.08755 0.04440
2752.80179 0.04469
2751.51604 0.04501
2750.23028 0.04522
2748.94453 0.04530
2747.65877 0.04524
2746.37302 0.04490
2745.08726 0.04436
2743.80151 0.04399
2742.51575 0.04409
2741.23000 0.04439
2739.94424 0.04429
2738.65849 0.04353
2737.37273 0.04253
2736.08698 0.04197
2734.80122 0.04215
2733.51546 0.04280
2732.22971 0.04345
2730.94395 0.04380
2729.65820 0.04373
2728.37244 0.04326
2727.08669 0.04255
2725.80093 0.04183
2724.51518 0.04129
2723.22942 0.04106
2721.94367 0.04114
2720.65791 0.04142
2719.37216 0.04170
2718.08640 0.04176
2716.80065 0.04150
2715.51489 0.04096
2714.22914 0.04038
2712.94338 0.04009
2711.65763 0.04023
2710.37187 0.04062
2709.08612 0.04092
2707.80036 0.04104
2706.51461 0.04113
2705.22885 0.04132
2703.94310 0.04152
2702.65734 0.04150
2701.37159 0.04112
2700.08583 0.04057
2698.80008 0.04026
2697.51432 0.04034
2696.22857 0.04053
2694.94281 0.04034
2693.65705 0.03969
2692.37130 0.03896
2691.08554 0.03855
2689.79979 0.03858
2688.51403 0.03890
2687.22828 0.03926
2685.94252 0.03945
2684.65677 0.03938
2683.37101 0.03913
2682.08526 0.03881
2680.79950 0.03845
2679.51375 0.03797
2678.22799 0.03740
2676.94224 0.03699
2675.65648 0.03704
2674.37073 0.03767
2673.08497 0.03858
2671.79922 0.03931
2670.51346 0.03959
2669.22771 0.03971
2667.94195 0.04029
2666.65620 0.04181
2665.37044 0.04429
2664.08469 0.04732
2662.79893 0.05040
2661.51318 0.05312
2660.22742 0.05529
2658.94167 0.05690
2657.65591 0.05808
2656.37016 0.05885
2655.08440 0.05909
2653.79865 0.05891
2652.51289 0.05878
2651.22713 0.05918
2649.94138 0.05994
2648.65562 0.06044
2647.36987 0.06029
2646.08411 0.05973
2644.79836 0.05924
2643.51260 0.05910
2642.22685 0.05933
2640.94109 0.05981
2639.65534 0.06036
2638.36958 0.06065
2637.08383 0.06042
2635.79807 0.05963
2634.51232 0.05857
2633.22656 0.05772
2631.94081 0.05744
2630.65505 0.05766
2629.36930 0.05798
2628.08354 0.05799
2626.79779 0.05759
2625.51203 0.05692
2624.22628 0.05615
2622.94052 0.05543
2621.65477 0.05474
2620.36901 0.05389
2619.08326 0.05275
2617.79750 0.05150
2616.51175 0.05055
2615.22599 0.05016
2613.94024 0.05017
2612.65448 0.05025
2611.36872 0.05015
2610.08297 0.04983
2608.79721 0.04935
2607.51146 0.04896
2606.22570 0.04890
2604.93995 0.04901
2603.65419 0.04886
2602.36844 0.04822
2601.08268 0.04725
2599.79693 0.04625
2598.51117 0.04544
2597.22542 0.04495
2595.93966 0.04485
2594.65391 0.04491
2593.36815 0.04484
2592.08240 0.04461
2590.79664 0.04440
2589.51089 0.04429
2588.22513 0.04423
2586.93938 0.04412
2585.65362 0.04388
2584.36787 0.04345
2583.08211 0.04288
2581.79636 0.04236
2580.51060 0.04199
2579.22485 0.04173
2577.93909 0.04145
2576.65334 0.04115
2575.36758 0.04089
2574.08183 0.04077
2572.79607 0.04073
2571.51031 0.04050
2570.22456 0.03981
2568.93880 0.03869
2567.65305 0.03751
2566.36729 0.03673
2565.08154 0.03649
2563.79578 0.03657
2562.51003 0.03653
2561.22427 0.03620
2559.93852 0.03584
2558.65276 0.03574
2557.36701 0.03596
2556.08125 0.03639
2554.79550 0.03680
2553.50974 0.03683
2552.22399 0.03616
2550.93823 0.03501
2549.65248 0.03427
2548.36672 0.03471
2547.08097 0.03606
2545.79521 0.03713
2544.50946 0.03694
2543.22370 0.03559
2541.93795 0.03410
2540.65219 0.03344
2539.36644 0.03377
2538.08068 0.03455
2536.79493 0.03524
2535.50917 0.03569
2534.22342 0.03607
2532.93766 0.03651
2531.65191 0.03682
2530.36615 0.03670
2529.08039 0.03597
2527.79464 0.03485
2526.50888 0.03393
2525.22313 0.03366
2523.93737 0.03382
2522.65162 0.03371
2521.36586 0.03292
2520.08011 0.03173
2518.79435 0.03071
2517.50860 0.03016
2516.22284 0.03004
2514.93709 0.03018
2513.65133 0.03037
2512.36558 0.03041
2511.07982 0.03021
2509.79407 0.02965
2508.50831 0.02859
2507.22256 0.02721
2505.93680 0.02618
2504.65105 0.02615
2503.36529 0.02711
2502.07954 0.02849
2500.79378 0.02978
2499.50803 0.03072
2498.22227 0.03116
2496.93652 0.03095
2495.65076 0.03025
2494.36501 0.02953
2493.07925 0.02916
2491.79350 0.02909
2490.50774 0.02899
2489.22198 0.02873
2487.93623 0.02840
2486.65047 0.02817
2485.36472 0.02803
2484.07896 0.02790
2482.79321 0.02781
2481.50745 0.02783
2480.22170 0.02805
2478.93594 0.02841
2477.65019 0.02863
2476.36443 0.02828
2475.07868 0.02727
2473.79292 0.02622
2472.50717 0.02585
2471.22141 0.02628
2469.93566 0.02690
2468.64990 0.02713
2467.36415 0.02687
2466.07839 0.02654
2464.79264 0.02661
2463.50688 0.02732
2462.22113 0.02855
2460.93537 0.02986
2459.64962 0.03085
2458.36386 0.03138
2457.07811 0.03152
2455.79235 0.03134
2454.50660 0.03086
2453.22084 0.03023
2451.93509 0.02989
2450.64933 0.03025
2449.36357 0.03113
2448.07782 0.03181
2446.79206 0.03176
2445.50631 0.03120
2444.22055 0.03067
2442.93480 0.03031
2441.64904 0.02979
2440.36329 0.02884
2439.07753 0.02763
2437.79178 0.02653
2436.50602 0.02579
2435.22027 0.02547
2433.93451 0.02538
2432.64876 0.02523
2431.36300 0.02477
2430.07725 0.02391
2428.79149 0.02272
2427.50574 0.02135
2426.21998 0.02000
2424.93423 0.01899
2423.64847 0.01867
2422.36272 0.01911
2421.07696 0.01993
2419.79121 0.02050
2418.50545 0.02053
2417.21970 0.02032
2415.93394 0.02043
2414.64819 0.02114
2413.36243 0.02217
2412.07668 0.02283
2410.79092 0.02239
2409.50517 0.02060
2408.21941 0.01802
2406.93365 0.01583
2405.64790 0.01488
2404.36214 0.01510
2403.07639 0.01564
2401.79063 0.01588
2400.50488 0.01559
2399.21912 0.01272
2397.93337 0.01379
2396.64761 0.01485
2395.36186 0.01519
2394.07610 0.01575
2392.79035 0.01659
2391.50459 0.01726
2390.21884 0.01736
2388.93308 0.01691
2387.64733 0.01628
2386.36157 0.01579
2385.07582 0.01550
2383.79006 0.01532
2382.50431 0.01516
2381.21855 0.01490
2379.93280 0.01449
2378.64704 0.01395
2377.36129 0.01372
2376.07553 0.01407
2374.78978 0.01450
2373.50402 0.01426
2372.21827 0.01313
2370.93251 0.01175
2369.64676 0.01087
2368.36100 0.01098
2367.07524 0.01211
2365.78949 0.01348
2364.50373 0.01465
2363.21798 0.01608
2361.93222 0.01737
2360.64647 0.01819
2359.36071 0.01890
2358.07496 0.01966
2356.78920 0.02046
2355.50345 0.02137
2354.21769 0.02223
2352.93194 0.02301
2351.64618 0.02341
2350.36043 0.02377
2349.07467 0.02452
2347.78892 0.02521
2346.50316 0.02507
2345.21741 0.02482
2343.93165 0.02538
2342.64590 0.02656
2341.36014 0.02621
2340.07439 0.02472
2338.78863 0.02488
2337.50288 0.02652
2336.21712 0.02642
2334.93137 0.02530
2333.64561 0.02583
2332.35986 0.02782
2331.07410 0.02949
2329.78835 0.03537
2328.50259 0.04724
2327.21684 0.06028
2325.93108 0.07031
2324.64532 0.07465
2323.35957 0.07224
2322.07381 0.06541
2320.78806 0.05928
2319.50230 0.05524
2318.21655 0.05270
2316.93079 0.05139
2315.64504 0.05049
2314.35928 0.05005
2313.07353 0.04996
2311.78777 0.04959
2310.50202 0.04913
2309.21626 0.04861
2307.93051 0.04787
2306.64475 0.04713
2305.35900 0.04625
2304.07324 0.04546
2302.78749 0.04503
2301.50173 0.04497
2300.21598 0.04522
2298.93022 0.04555
2297.64447 0.04602
2296.35871 0.04696
2295.07296 0.04863
2293.78720 0.05095
2292.50145 0.05359
2291.21569 0.05631
2289.92994 0.05889
2288.64418 0.06089
2287.35843 0.06176
2286.07267 0.06112
2284.78691 0.05918
2283.50116 0.05662
2282.21540 0.05423
2280.92965 0.05234
2279.64389 0.05072
2278.35814 0.04899
2277.07238 0.04704
2275.78663 0.04512
2274.50087 0.04363
2273.21512 0.04288
2271.92936 0.04266
2270.64361 0.04225
2269.35785 0.04094
2268.07210 0.03893
2266.78634 0.03729
2265.50059 0.03697
2264.21483 0.03797
2262.92908 0.03950
2261.64332 0.04079
2260.35757 0.04140
2259.07181 0.04104
2257.78606 0.03954
2256.50030 0.03721
2255.21455 0.03491
2253.92879 0.03365
2252.64304 0.03405
2251.35728 0.03634
2250.07153 0.03902
2248.78577 0.03819
2247.50002 0.03776
2246.21426 0.03671
2244.92850 0.03593
2243.64275 0.03600
2242.35699 0.03655
2241.07124 0.03668
2239.78548 0.03599
2238.49973 0.03501
2237.21397 0.03457
2235.92822 0.03493
2234.64246 0.03552
2233.35671 0.03552
2232.07095 0.03461
2230.78520 0.03322
2229.49944 0.03226
2228.21369 0.03229
2226.92793 0.03291
2225.64218 0.03293
2224.35642 0.03154
2223.07067 0.02915
2221.78491 0.02696
2220.49916 0.02555
2219.21340 0.02451
2217.92765 0.02346
2216.64189 0.02300
2215.35614 0.02402
2214.07038 0.02633
2212.78463 0.02880
2211.49887 0.03037
2210.21312 0.03115
2208.92736 0.03192
2207.64161 0.03289
2206.35585 0.03351
2205.07010 0.03329
2203.78434 0.03228
2202.49858 0.03072
2201.21283 0.02893
2199.92707 0.02730
2198.64132 0.02609
2197.35556 0.02517
2196.06981 0.02449
2194.78405 0.02469
2193.49830 0.02644
2192.21254 0.02957
2190.92679 0.03320
2189.64103 0.03669
2188.35528 0.03966
2187.06952 0.04103
2185.78377 0.03915
2184.49801 0.03375
2183.21226 0.02721
2181.92650 0.02278
2180.64075 0.02113
2179.35499 0.01991
2178.06924 0.01719
2176.78348 0.01420
2175.49773 0.01383
2174.21197 0.01728
2172.92622 0.02361
2171.64046 0.03140
2170.35471 0.03949
2169.06895 0.04641
2167.78320 0.05100
2166.49744 0.05382
2165.21169 0.05613
2163.92593 0.05621
2162.64017 0.04809
2161.35442 0.02696
2160.06866 -0.00293
2158.78291 -0.02902
2157.49715 -0.04125
2156.21140 -0.03984
2154.92564 -0.03164
2153.63989 -0.02330
2152.35413 -0.01796
2151.06838 -0.01563
2149.78262 -0.01488
2148.49687 -0.01447
2147.21111 -0.01392
2145.92536 -0.01318
2144.63960 -0.01240
2143.35385 -0.01177
2142.06809 -0.01139
2140.78234 -0.01130
2139.49658 -0.01198
2138.21083 -0.01446
2136.92507 -0.01902
2135.63932 -0.02404
2134.35356 -0.02685
2133.06781 -0.02589
2131.78205 -0.02184
2130.49630 -0.01659
2129.21054 -0.01157
2127.92479 -0.00713
2126.63903 -0.00319
2125.35328 0.00005
2124.06752 0.00224
2122.78176 0.00351
2121.49601 0.00467
2120.21025 0.00667
2118.92450 0.00982
2117.63874 0.01354
2116.35299 0.01678
2115.06723 0.01884
2113.78148 0.01980
2112.49572 0.02019
2111.20997 0.02037
2109.92421 0.02046
2108.63846 0.02060
2107.35270 0.02094
2106.06695 0.02148
2104.78119 0.02188
2103.49544 0.02185
2102.20968 0.02132
2100.92393 0.02060
2099.63817 0.02439
2098.35242 0.02344
2097.06666 0.01889
2095.78091 0.01420
2094.49515 0.01135
2093.20940 0.01092
2091.92364 0.01218
2090.63789 0.01406
2089.35213 0.01608
2088.06638 0.01829
2086.78062 0.02083
2085.49487 0.02361
2084.20911 0.02646
2082.92336 0.02918
2081.63760 0.03153
2080.35184 0.03332
2079.06609 0.03456
2077.78033 0.03545
2076.49458 0.03599
2075.20882 0.03585
2073.92307 0.03481
2072.63731 0.03324
2071.35156 0.03184
2070.06580 0.03099
2068.78005 0.03053
2067.49429 0.03009
2066.20854 0.02954
2064.92278 0.02896
2063.63703 0.02844
2062.35127 0.02798
2061.06552 0.02774
2059.77976 0.02799
2058.49401 0.02861
2057.20825 0.02944
2055.92250 0.03133
2054.63674 0.03600
2053.35099 0.04362
2052.06523 0.05093
2050.77948 0.05335
2049.49372 0.04942
2048.20797 0.04234
2046.92221 0.03664
2045.63646 0.03443
2044.35070 0.03504
2043.06495 0.03703
2041.77919 0.03960
2040.49343 0.04252
2039.20768 0.04503
2037.92192 0.04544
2036.63617 0.04236
2035.35041 0.03630
2034.06466 0.02951
2032.77890 0.02395
2031.49315 0.01999
2030.20739 0.01673
2028.92164 0.01342
2027.63588 0.01011
2026.35013 0.00752
2025.06437 0.00646
2023.77862 0.00716
2022.49286 0.00912
2021.20711 0.01153
2019.92135 0.01378
2018.63560 0.01552
2017.34984 0.01638
2016.06409 0.01629
2014.77833 0.01593
2013.49258 0.01648
2012.20682 0.01826
2010.92107 0.01978
2009.63531 0.01862
2008.34956 0.01373
2007.06380 0.00670
2005.77805 0.00043
2004.49229 -0.00320
2003.20654 -0.00418
2001.92078 -0.00334
2000.63503 -0.00128
1999.34927 0.00159
1998.06351 0.00472
1996.77776 0.00768
1995.49200 0.01055
1994.20625 0.01358
1992.92049 0.01660
1991.63474 0.01890
1990.34898 0.02018
1989.06323 0.02114
1987.77747 0.02298
1986.49172 0.02650
1985.20596 0.03180
1983.92021 0.03846
1982.63445 0.04501
1981.34870 0.04855
1980.06294 0.04623
1978.77719 0.03813
1977.49143 0.02799
1976.20568 0.02001
1974.91992 0.01554
1973.63417 0.01335
1972.34841 0.01204
1971.06266 0.01116
1969.77690 0.01068
1968.49115 0.01038
1967.20539 0.00999
1965.91964 0.00930
1964.63388 0.00792
1963.34813 0.00532
1962.06237 0.00149
1960.77662 -0.00247
1959.49086 -0.00509
1958.20510 -0.00577
1956.91935 -0.00524
1955.63359 -0.00457
1954.34784 -0.00408
1953.06208 -0.00327
1951.77633 -0.00173
1950.49057 0.00026
1949.20482 0.00190
1947.91906 0.00268
1946.63331 0.00278
1945.34755 0.00273
1944.06180 0.00286
1942.77604 0.00311
1941.49029 0.00334
1940.20453 0.00348
1938.91878 0.00367
1937.63302 0.00404
1936.34727 0.00456
1935.06151 0.00506
1933.77576 0.00528
1932.49000 0.00510
1931.20425 0.00458
1929.91849 0.00397
1928.63274 0.00357
1927.34698 0.00350
1926.06123 0.00362
1924.77547 0.00387
1923.48972 0.00453
1922.20396 0.00591
1920.91821 0.00784
1919.63245 0.00959
1918.34669 0.01046
1917.06094 0.01037
1915.77518 0.00981
1914.48943 0.00934
1913.20367 0.00922
1911.91792 0.00933
1910.63216 0.00949
1909.34641 0.00966
1908.06065 0.00983
1906.77490 0.00997
1905.48914 0.01002
1904.20339 0.01000
1902.91763 0.00999
1901.63188 0.01002
1900.34612 0.01008
1899.06037 0.01019
1897.77461 0.01037
1896.48886 0.01063
1895.20310 0.01093
1893.91735 0.01114
1892.63159 0.01119
1891.34584 0.01104
1890.06008 0.01086
1888.77433 0.01085
1887.48857 0.01102
1886.20282 0.01117
1884.91706 0.01103
1883.63131 0.01061
1882.34555 0.01019
1881.05980 0.00999
1879.77404 0.01005
1878.48829 0.01017
1877.20253 0.01012
1875.91677 0.00989
1874.63102 0.00975
1873.34526 0.01005
1872.05951 0.01082
1870.77375 0.01169
1869.48800 0.01220
1868.20224 0.01218
1866.91649 0.01179
1865.63073 0.01136
1864.34498 0.01114
1863.05922 0.01123
1861.77347 0.01148
1860.48771 0.01160
1859.20196 0.01142
1857.91620 0.01098
1856.63045 0.01050
1855.34469 0.01016
1854.05894 0.01002
1852.77318 0.00995
1851.48743 0.00987
1850.20167 0.00982
1848.91592 0.00996
1847.63016 0.01028
1846.34441 0.01057
1845.05865 0.01055
1843.77290 0.01012
1842.48714 0.00941
1841.20139 0.00858
1839.91563 0.00782
1838.62988 0.00736
1837.34412 0.00741
1836.05836 0.00793
1834.77261 0.00874
1833.48685 0.00960
1832.20110 0.01037
1830.91534 0.01106
1829.62959 0.01170
1828.34383 0.01227
1827.05808 0.01270
1825.77232 0.01299
1824.48657 0.01322
1823.20081 0.01320
1821.91506 0.01235
1820.62930 0.01009
1819.34355 0.00671
1818.05779 0.00345
1816.77204 0.00168
1815.48628 0.00180
1814.20053 0.00316
1812.91477 0.00480
1811.62902 0.00614
1810.34326 0.00709
1809.05751 0.00778
1807.77175 0.00836
1806.48600 0.00894
1805.20024 0.00957
1803.91449 0.01016
1802.62873 0.01061
1801.34298 0.01083
1800.05722 0.01087
1798.77147 0.01094
1797.48571 0.01137
1796.19995 0.01223
1794.91420 0.01324
1793.62844 0.01393
1792.34269 0.01401
1791.05693 0.01360
1789.77118 0.01310
1788.48542 0.01281
1787.19967 0.01284
1785.91391 0.01314
1784.62816 0.01354
1783.34240 0.01381
1782.05665 0.01371
1780.77089 0.01312
1779.48514 0.01227
1778.19938 0.01166
1776.91363 0.01166
1775.62787 0.01224
1774.34212 0.01299
1773.05636 0.01346
1771.77061 0.01350
1770.48485 0.01316
1769.19910 0.01257
1767.91334 0.01199
1766.62759 0.01169
1765.34183 0.01178
1764.05608 0.01204
1762.77032 0.01224
1761.48457 0.01234
1760.19881 0.01240
1758.91306 0.01241
1757.62730 0.01236
1756.34155 0.01247
1755.05579 0.01291
1753.77003 0.01352
1752.48428 0.01393
1751.19852 0.01388
1749.91277 0.01343
1748.62701 0.01279
1747.34126 0.01219
1746.05550 0.01183
1744.76975 0.01179
1743.48399 0.01192
1742.19824 0.01198
1740.91248 0.01201
1739.62673 0.01247
1738.34097 0.01372
1737.05522 0.01540
1735.76946 0.01659
1734.48371 0.01664
1733.19795 0.01574
1731.91220 0.01449
1730.62644 0.01326
1729.34069 0.01228
1728.05493 0.01165
1726.76918 0.01138
1725.48342 0.01139
1724.19767 0.01185
1722.91191 0.01302
1721.62616 0.01492
1720.34040 0.01701
1719.05465 0.01845
1717.76889 0.01877
1716.48314 0.01810
1715.19738 0.01695
1713.91162 0.01587
1712.62587 0.01515
1711.34011 0.01507
1710.05436 0.01562
1708.76860 0.01652
1707.48285 0.01751
1706.19709 0.01870
1704.91134 0.02040
1703.62558 0.02258
1702.33983 0.02476
1701.05407 0.02657
1699.76832 0.02792
1698.48256 0.02875
1697.19681 0.02878
1695.91105 0.02802
1694.62530 0.02697
1693.33954 0.02628
1692.05379 0.02637
1690.76803 0.02755
1689.48228 0.03010
1688.19652 0.03361
1686.91077 0.03691
1685.62501 0.03890
1684.33926 0.03926
1683.05350 0.03859
1681.76775 0.03788
1680.48199 0.03791
1679.19624 0.03892
1677.91048 0.04060
1676.62473 0.04239
1675.33897 0.04397
1674.05322 0.04533
1672.76746 0.04655
1671.48170 0.04754
1670.19595 0.04823
1668.91019 0.04879
1667.62444 0.04948
1666.33868 0.05035
1665.05293 0.05117
1663.76717 0.05166
1662.48142 0.05175
1661.19566 0.05175
1659.90991 0.05226
1658.62415 0.05398
1657.33840 0.05714
1656.05264 0.06076
1654.76689 0.06318
1653.48113 0.06342
1652.19538 0.06211
1650.90962 0.06066
1649.62387 0.05979
1648.33811 0.05941
1647.05236 0.05910
1645.76660 0.05860
1644.48085 0.05796
1643.19509 0.05738
1641.90934 0.05723
1640.62358 0.05782
1639.33783 0.05908
1638.05207 0.06030
1636.76632 0.06059
1635.48056 0.05963
1634.19481 0.05787
1632.90905 0.05602
1631.62329 0.05448
1630.33754 0.05340
1629.05178 0.05278
1627.76603 0.05245
1626.48027 0.05209
1625.19452 0.05139
1623.90876 0.05032
1622.62301 0.04933
1621.33725 0.04889
1620.05150 0.04896
1618.76574 0.04890
1617.47999 0.04808
1616.19423 0.04653
1614.90848 0.04473
1613.62272 0.04312
1612.33697 0.04192
1611.05121 0.04112
1609.76546 0.04063
1608.47970 0.04028
1607.19395 0.03997
1605.90819 0.03966
1604.62244 0.03936
1603.33668 0.03911
1602.05093 0.03892
1600.76517 0.03881
1599.47942 0.03877
1598.19366 0.03877
1596.90791 0.03876
1595.62215 0.03877
1594.33640 0.03884
1593.05064 0.03898
1591.76488 0.03916
1590.47913 0.03932
1589.19337 0.03943
1587.90762 0.03951
1586.62186 0.03956
1585.33611 0.03955
1584.05035 0.03954
1582.76460 0.03979
1581.47884 0.04069
1580.19309 0.04230
1578.90733 0.04411
1577.62158 0.04535
1576.33582 0.04567
1575.05007 0.04545
1573.76431 0.04529
1572.47856 0.04537
1571.19280 0.04548
1569.90705 0.04540
1568.62129 0.04513
1567.33554 0.04483
1566.04978 0.04497
1564.76403 0.04615
1563.47827 0.04866
1562.19252 0.05183
1560.90676 0.05433
1559.62101 0.05537
1558.33525 0.05492
1557.04950 0.05358
1555.76374 0.05203
1554.47799 0.05074
1553.19223 0.04996
1551.90648 0.04972
1550.62072 0.04985
1549.33496 0.05025
1548.04921 0.05092
1546.76345 0.05196
1545.47770 0.05343
1544.19194 0.05524
1542.90619 0.05688
1541.62043 0.05764
1540.33468 0.05704
1539.04892 0.05540
1537.76317 0.05361
1536.47741 0.05228
1535.19166 0.05148
1533.90590 0.05102
1532.62015 0.05082
1531.33439 0.05091
1530.04864 0.05127
1528.76288 0.05182
1527.47713 0.05259
1526.19137 0.05364
1524.90562 0.05486
1523.61986 0.05592
1522.33411 0.05639
1521.04835 0.05616
1519.76260 0.05549
1518.47684 0.05470
1517.19109 0.05400
1515.90533 0.05353
1514.61958 0.05341
1513.33382 0.05389
1512.04807 0.05526
1510.76231 0.05757
1509.47655 0.06020
1508.19080 0.06202
1506.90504 0.06232
1505.61929 0.06135
1504.33353 0.05996
1503.04778 0.05904
1501.76202 0.05905
1500.47627 0.05988
1499.19051 0.06101
1497.90476 0.06181
1496.61900 0.06208
1495.33325 0.06208
1494.04749 0.06222
1492.76174 0.06268
1491.47598 0.06329
1490.19023 0.06380
1488.90447 0.06408
1487.61872 0.06422
1486.33296 0.06436
1485.04721 0.06463
1483.76145 0.06506
1482.47570 0.06566
1481.18994 0.06646
1479.90419 0.06756
1478.61843 0.06905
1477.33268 0.07090
1476.04692 0.07286
1474.76117 0.07446
1473.47541 0.07533
1472.18966 0.07550
1470.90390 0.07537
1469.61814 0.07536
1468.33239 0.07560
1467.04663 0.07595
1465.76088 0.07623
1464.47512 0.07654
1463.18937 0.07731
1461.90361 0.07895
1460.61786 0.08132
1459.33210 0.08369
1458.04635 0.08513
1456.76059 0.08527
1455.47484 0.08445
1454.18908 0.08340
1452.90333 0.08265
1451.61757 0.08227
1450.33182 0.08212
1449.04606 0.08195
1447.76031 0.08156
1446.47455 0.08092
1445.18880 0.08009
1443.90304 0.07919
1442.61729 0.07841
1441.33153 0.07798
1440.04578 0.07790
1438.76002 0.07784
1437.47427 0.07743
1436.18851 0.07663
1434.90276 0.07577
1433.61700 0.07517
1432.33125 0.07497
1431.04549 0.07517
1429.75974 0.07569
1428.47398 0.07645
1427.18822 0.07739
1425.90247 0.07858
1424.61671 0.08012
1423.33096 0.08203
1422.04520 0.08403
1420.75945 0.08565
1419.47369 0.08661
1418.18794 0.08699
1416.90218 0.08711
1415.61643 0.08721
1414.33067 0.08744
1413.04492 0.08779
1411.75916 0.08815
1410.47341 0.08840
1409.18765 0.08844
1407.90190 0.08822
1406.61614 0.08769
1405.33039 0.08691
1404.04463 0.08604
1402.75888 0.08519
1401.47312 0.08433
1400.18737 0.08336
1398.90161 0.08222
1397.61586 0.08090
1396.33010 0.07933
1395.04435 0.07751
1393.75859 0.07560
1392.47284 0.07385
1391.18708 0.07239
1389.90133 0.07114
1388.61557 0.06990
1387.32981 0.06853
1386.04406 0.06702
1384.75830 0.06543
1383.47255 0.06385
1382.18679 0.06233
1380.90104 0.06090
1379.61528 0.05957
1378.32953 0.05831
1377.04377 0.05704
1375.75802 0.05563
1374.47226 0.05404
1373.18651 0.05233
1371.90075 0.05063
1370.61500 0.04906
1369.32924 0.04763
1368.04349 0.04638
1366.75773 0.04530
1365.47198 0.04429
1364.18622 0.04327
1362.90047 0.04217
1361.61471 0.04106
1360.32896 0.04001
1359.04320 0.03904
1357.75745 0.03815
1356.47169 0.03734
1355.18594 0.03662
1353.90018 0.03604
1352.61443 0.03560
1351.32867 0.03527
1350.04292 0.03498
1348.75716 0.03469
1347.47141 0.03437
1346.18565 0.03408
1344.89989 0.03388
1343.61414 0.03380
1342.32838 0.03382
1341.04263 0.03384
1339.75687 0.03377
1338.47112 0.03357
1337.18536 0.03326
1335.89961 0.03290
1334.61385 0.03250
1333.32810 0.03206
1332.04234 0.03166
1330.75659 0.03136
1329.47083 0.03119
1328.18508 0.03108
1326.89932 0.03096
1325.61357 0.03078
1324.32781 0.03053
1323.04206 0.03024
1321.75630 0.02996
1320.47055 0.02972
1319.18479 0.02949
1317.89904 0.02925
1316.61328 0.02897
1315.32753 0.02867
1314.04177 0.02834
1312.75602 0.02802
1311.47026 0.02775
1310.18451 0.02758
1308.89875 0.02744
1307.61300 0.02723
1306.32724 0.02687
1305.04148 0.02642
1303.75573 0.02597
1302.46997 0.02559
1301.18422 0.02526
1299.89846 0.02494
1298.61271 0.02460
1297.32695 0.02427
1296.04120 0.02397
1294.75544 0.02374
1293.46969 0.02358
1292.18393 0.02348
1290.89818 0.02339
1289.61242 0.02324
1288.32667 0.02302
1287.04091 0.02279
1285.75516 0.02262
1284.46940 0.02251
1283.18365 0.02244
1281.89789 0.02237
1280.61214 0.02229
1279.32638 0.02222
1278.04063 0.02213
1276.75487 0.02199
1275.46912 0.02184
1274.18336 0.02170
1272.89761 0.02163
1271.61185 0.02159
1270.32610 0.02157
1269.04034 0.02156
1267.75459 0.02157
1266.46883 0.02159
1265.18307 0.02160
1263.89732 0.02159
1262.61156 0.02154
1261.32581 0.02147
1260.04005 0.02139
1258.75430 0.02131
1257.46854 0.02123
1256.18279 0.02117
1254.89703 0.02112
1253.61128 0.02112
1252.32552 0.02117
1251.03977 0.02128
1249.75401 0.02140
1248.46826 0.02149
1247.18250 0.02154
1245.89675 0.02155
1244.61099 0.02157
1243.32524 0.02159
1242.03948 0.02161
1240.75373 0.02159
1239.46797 0.02151
1238.18222 0.02138
1236.89646 0.02122
1235.61071 0.02107
1234.32495 0.02092
1233.03920 0.02075
1231.75344 0.02056
1230.46769 0.02035
1229.18193 0.02014
1227.89618 0.01995
1226.61042 0.01978
1225.32467 0.01960
1224.03891 0.01937
1222.75315 0.01912
1221.46740 0.01891
1220.18164 0.01877
1218.89589 0.01869
1217.61013 0.01863
1216.32438 0.01859
1215.03862 0.01858
1213.75287 0.01864
1212.46711 0.01876
1211.18136 0.01890
1209.89560 0.01905
1208.60985 0.01919
1207.32409 0.01933
1206.03834 0.01948
1204.75258 0.01963
1203.46683 0.01982
1202.18107 0.02011
1200.89532 0.02003
1199.60956 0.01896
1198.32381 0.01889
1197.03805 0.01882
1195.75230 0.01866
1194.46654 0.01844
1193.18079 0.01820
1191.89503 0.01799
1190.60928 0.01784
1189.32352 0.01771
1188.03777 0.01754
1186.75201 0.01733
1185.46626 0.01710
1184.18050 0.01688
1182.89474 0.01671
1181.60899 0.01664
1180.32323 0.01663
1179.03748 0.01662
1177.75172 0.01657
1176.46597 0.01650
1175.18021 0.01648
1173.89446 0.01651
1172.60870 0.01655
1171.32295 0.01657
1170.03719 0.01661
1168.75144 0.01668
1167.46568 0.01677
1166.17993 0.01688
1164.89417 0.01700
1163.60842 0.01715
1162.32266 0.01727
1161.03691 0.01733
1159.75115 0.01732
1158.46540 0.01729
1157.17964 0.01731
1155.89389 0.01745
1154.60813 0.01767
1153.32238 0.01795
1152.03662 0.01827
1150.75087 0.01866
1149.46511 0.01911
1148.17936 0.01958
1146.89360 0.02001
1145.60785 0.02039
1144.32209 0.02079
1143.03633 0.02125
1141.75058 0.02176
1140.46482 0.02229
1139.17907 0.02284
1137.89331 0.02342
1136.60756 0.02408
1135.32180 0.02484
1134.03605 0.02573
1132.75029 0.02677
1131.46454 0.02798
1130.17878 0.02935
1128.89303 0.03085
1127.60727 0.03244
1126.32152 0.03415
1125.03576 0.03604
1123.75001 0.03813
1122.46425 0.04042
1121.17850 0.04284
1119.89274 0.04532
1118.60699 0.04780
1117.32123 0.05032
1116.03548 0.05294
1114.74972 0.05567
1113.46397 0.05842
1112.17821 0.06109
1110.89246 0.06366
1109.60670 0.06619
1108.32095 0.06869
1107.03519 0.07116
1105.74944 0.07358
1104.46368 0.07595
1103.17793 0.07828
1101.89217 0.08057
1100.60641 0.08278
1099.32066 0.08487
1098.03490 0.08684
1096.74915 0.08869
1095.46339 0.09048
1094.17764 0.09224
1092.89188 0.09391
1091.60613 0.09537
1090.32037 0.09658
1089.03462 0.09759
1087.74886 0.09852
1086.46311 0.09949
1085.17735 0.10059
1083.89160 0.10186
1082.60584 0.10329
1081.32009 0.10485
1080.03433 0.10652
1078.74858 0.10834
1077.46282 0.11035
1076.17707 0.11253
1074.89131 0.11480
1073.60556 0.11715
1072.31980 0.11958
1071.03405 0.12210
1069.74829 0.12471
1068.46254 0.12741
1067.17678 0.13015
1065.89103 0.13293
1064.60527 0.13574
1063.31952 0.13855
1062.03376 0.14136
1060.74800 0.14415
1059.46225 0.14692
1058.17649 0.14967
1056.89074 0.15239
1055.60498 0.15507
1054.31923 0.15771
1053.03347 0.16035
1051.74772 0.16300
1050.46196 0.16569
1049.17621 0.16839
1047.89045 0.17111
1046.60470 0.17385
1045.31894 0.17664
1044.03319 0.17950
1042.74743 0.18238
1041.46168 0.18523
1040.17592 0.18802
1038.89017 0.19080
1037.60441 0.19362
1036.31866 0.19646
1035.03290 0.19920
1033.74715 0.20171
1032.46139 0.20397
1031.17564 0.20599
1029.88988 0.20784
1028.60413 0.20953
1027.31837 0.21105
1026.03262 0.21236
1024.74686 0.21342
1023.46111 0.21416
1022.17535 0.21457
1020.88960 0.21464
1019.60384 0.21441
1018.31808 0.21390
1017.03233 0.21314
1015.74657 0.21210
1014.46082 0.21076
1013.17506 0.20909
1011.88931 0.20712
1010.60355 0.20490
1009.31780 0.20246
1008.03204 0.19980
1006.74629 0.19687
1005.46053 0.19367
1004.17478 0.19019
1002.88902 0.18650
1001.60327 0.18265
1000.31751 0.17871
999.03176 0.17470
997.74600 0.17064
996.46025 0.16651
995.17449 0.16227
993.88874 0.15797
992.60298 0.15370
991.31723 0.14953
990.03147 0.14547
988.74572 0.14148
987.45996 0.13753
986.17421 0.13360
984.88845 0.12972
983.60270 0.12592
982.31694 0.12224
981.03119 0.11875
979.74543 0.11543
978.45967 0.11225
977.17392 0.10920
975.88816 0.10635
974.60241 0.10382
973.31665 0.10171
972.03090 0.10003
970.74514 0.09875
969.45939 0.09792
968.17363 0.09761
966.88788 0.09781
965.60212 0.09837
964.31637 0.09905
963.03061 0.09956
961.74486 0.09968
960.45910 0.09924
959.17335 0.09820
957.88759 0.09665
956.60184 0.09473
955.31608 0.09260
954.03033 0.09042
952.74457 0.08831
951.45882 0.08631
950.17306 0.08441
948.88731 0.08255
947.60155 0.08069
946.31580 0.07892
945.03004 0.07732
943.74429 0.07586
942.45853 0.07448
941.17278 0.07312
939.88702 0.07181
938.60126 0.07060
937.31551 0.06949
936.02975 0.06843
934.74400 0.06734
933.45824 0.06620
932.17249 0.06505
930.88673 0.06395
929.60098 0.06293
928.31522 0.06200
927.02947 0.06115
925.74371 0.06041
924.45796 0.05977
923.17220 0.05921
921.88645 0.05864
920.60069 0.05808
919.31494 0.05756
918.02918 0.05715
916.74343 0.05680
915.45767 0.05643
914.17192 0.05592
912.88616 0.05519
911.60041 0.05426
910.31465 0.05328
909.02890 0.05244
907.74314 0.05179
906.45739 0.05123
905.17163 0.05063
903.88588 0.04995
902.60012 0.04927
901.31437 0.04860
900.02861 0.04794
898.74286 0.04733
897.45710 0.04681
896.17134 0.04638
894.88559 0.04600
893.59983 0.04559
892.31408 0.04518
891.02832 0.04487
889.74257 0.04473
888.45681 0.04481
887.17106 0.04513
885.88530 0.04585
884.59955 0.04715
883.31379 0.04902
882.02804 0.05113
880.74228 0.05299
879.45653 0.05434
878.17077 0.05530
876.88502 0.05621
875.59926 0.05731
874.31351 0.05847
873.02775 0.05929
871.74200 0.05948
870.45624 0.05899
869.17049 0.05797
867.88473 0.05659
866.59898 0.05491
865.31322 0.05300
864.02747 0.05099
862.74171 0.04909
861.45596 0.04748
860.17020 0.04624
858.88445 0.04534
857.59869 0.04469
856.31293 0.04420
855.02718 0.04381
853.74142 0.04344
852.45567 0.04304
851.16991 0.04258
849.88416 0.04211
848.59840 0.04168
847.31265 0.04126
846.02689 0.04080
844.74114 0.04029
843.45538 0.03986
842.16963 0.03963
840.88387 0.03960
839.59812 0.03971
838.31236 0.03991
837.02661 0.04019
835.74085 0.04056
834.45510 0.04100
833.16934 0.04144
831.88359 0.04180
830.59783 0.04199
829.31208 0.04193
828.02632 0.04161
826.74057 0.04110
825.45481 0.04055
824.16906 0.04004
822.88330 0.03958
821.59755 0.03909
820.31179 0.03850
819.02604 0.03780
817.74028 0.03709
816.45452 0.03644
815.16877 0.03590
813.88301 0.03551
812.59726 0.03523
811.31150 0.03504
810.02575 0.03483
808.73999 0.03453
807.45424 0.03414
806.16848 0.03374
804.88273 0.03350
803.59697 0.03370
802.31122 0.03459
801.02546 0.03612
799.73971 0.03779
798.45395 0.03888
797.16820 0.03903
795.88244 0.03844
794.59669 0.03762
793.31093 0.03691
792.02518 0.03636
790.73942 0.03592
789.45367 0.03556
788.16791 0.03529
786.88216 0.03512
785.59640 0.03504
784.31065 0.03506
783.02489 0.03518
781.73914 0.03538
780.45338 0.03558
779.16763 0.03572
777.88187 0.03579
776.59612 0.03582
775.31036 0.03579
774.02460 0.03570
772.73885 0.03558
771.45309 0.03544
770.16734 0.03533
768.88158 0.03525
767.59583 0.03518
766.31007 0.03510
765.02432 0.03502
763.73856 0.03499
762.45281 0.03506
761.16705 0.03522
759.88130 0.03540
758.59554 0.03553
757.30979 0.03567
756.02403 0.03584
754.73828 0.03603
753.45252 0.03617
752.16677 0.03622
750.88101 0.03621
749.59526 0.03618
748.30950 0.03619
747.02375 0.03637
745.73799 0.03681
744.45224 0.03738
743.16648 0.03770
741.88073 0.03733
740.59497 0.03616
739.30922 0.03458
738.02346 0.03330
736.73771 0.03234
735.45195 0.03179
734.16619 0.03144
732.88044 0.03113
731.59468 0.03087
730.30893 0.03075
729.02317 0.03082
727.73742 0.03094
726.45166 0.03101
725.16591 0.03096
723.88015 0.03028
722.59440 0.03060
721.30864 0.03082
720.02289 0.03062
718.73713 0.03012
717.45138 0.02944
716.16562 0.02878
714.87987 0.02841
713.59411 0.02849
712.30836 0.02898
711.02260 0.02968
709.73685 0.03039
708.45109 0.03101
707.16534 0.03154
705.87958 0.03205
704.59383 0.03256
703.30807 0.03311
702.02232 0.03367
700.73656 0.03422
699.45081 0.03470
698.16505 0.03503
696.87930 0.03516
695.59354 0.03511
694.30779 0.03493
693.02203 0.03469
691.73627 0.03444
690.45052 0.03420
689.16476 0.03396
687.87901 0.03373
686.59325 0.03352
685.30750 0.03337
684.02174 0.03325
682.73599 0.03315
681.45023 0.03309
680.16448 0.03309
678.87872 0.03314
677.59297 0.03323
676.30721 0.03334
675.02146 0.03342
673.73570 0.03348
672.44995 0.03348
671.16419 0.03346
669.87844 0.03342
668.59268 0.03343
667.30693 0.03351
666.02117 0.03351
664.73542 0.03344
663.44966 0.03330
662.16391 0.03313
660.87815 0.03301
659.59240 0.03296
658.30664 0.03293
657.02089 0.03287
655.73513 0.03278
654.44938 0.03270
653.16362 0.03269
651.87786 0.03278
650.59211 0.03298
649.30635 0.03326
648.02060 0.03355
646.73484 0.03377
645.44909 0.03393
644.16333 0.03405
642.87758 0.03418
641.59182 0.03433
640.30607 0.03454
639.02031 0.03484
637.73456 0.03526
636.44880 0.03588
635.16305 0.03693
633.87729 0.03866
632.59154 0.04158
631.30578 0.04796
630.02003 0.06116
628.73427 0.07300
627.44852 0.07035
626.16276 0.07816
624.87701 0.09057
623.59125 0.09811
622.30550 0.09890
621.01974 0.09438
619.73399 0.08685
618.44823 0.07816
617.16248 0.06964
615.87672 0.06271
614.59097 0.05892
613.30521 0.05897
612.01945 0.06200
610.73370 0.06639
609.44794 0.07145
608.16219 0.07770
606.87643 0.08493
605.59068 0.09117
604.30492 0.09409
603.01917 0.09325
601.73341 0.09026
600.44766 0.08702
599.16190 0.08429
597.87615 0.08193
596.59039 0.07974
595.30464 0.07775
594.01888 0.07608
592.73313 0.07475
591.44737 0.07371
590.16162 0.07297
588.87586 0.07265
587.59011 0.07290
586.30435 0.07381
585.01860 0.07528
583.73284 0.07712
582.44709 0.07917
581.16133 0.08140
579.87558 0.08386
578.58982 0.08654
577.30407 0.08936
576.01831 0.09229
574.73256 0.09534
573.44680 0.09854
572.16105 0.10194
570.87529 0.10548
569.58953 0.10905
568.30378 0.11245
567.01802 0.11546
565.73227 0.11788
564.44651 0.11951
563.16076 0.12016
561.87500 0.11975
560.58925 0.11832
559.30349 0.11599
558.01774 0.11291
556.73198 0.10925
555.44623 0.10523
554.16047 0.10105
552.87472 0.09689
551.58896 0.09291
550.30321 0.08918
549.01745 0.08566
547.73170 0.08231
546.44594 0.07910
545.16019 0.07608
543.87443 0.07327
542.58868 0.07069
541.30292 0.06836
540.01717 0.06628
538.73141 0.06445
537.44566 0.06279
536.15990 0.06122
534.87415 0.05970
533.58839 0.05824
532.30264 0.05684
531.01688 0.05553
529.73112 0.05426
528.44537 0.05300
527.15961 0.05176
525.87386 0.05059
524.58810 0.04954
523.30235 0.04862
522.01659 0.04775
520.73084 0.04686
519.44508 0.04591
518.15933 0.04492
516.87357 0.04398
515.58782 0.04317
514.30206 0.04247
513.01631 0.04181
511.73055 0.04115
510.44480 0.04047
509.15904 0.03982
507.87329 0.03923
506.58753 0.03867
505.30178 0.03808
504.01602 0.03747
502.73027 0.03690
501.44451 0.03637
500.15876 0.03585
498.87300 0.03532
497.58725 0.03479
496.30149 0.03433
495.01574 0.03397
493.72998 0.03368
492.44423 0.03346
491.15847 0.03328
489.87271 0.03308
488.58696 0.03286
487.30120 0.03259
486.01545 0.03227
484.72969 0.03188
483.44394 0.03146
482.15818 0.03108
480.87243 0.03083
479.58667 0.03075
478.30092 0.03079
477.01516 0.03093
475.72941 0.03113
474.44365 0.03136
473.15790 0.03153
471.87214 0.03157
470.58639 0.03144
469.30063 0.03117
468.01488 0.03080
466.72912 0.03039
465.44337 0.02997
464.15761 0.02955
462.87186 0.02914
461.58610 0.02876
460.30035 0.02838
459.01459 0.02802
457.72884 0.02765
456.44308 0.02725
455.15733 0.02681
453.87157 0.02636
452.58582 0.02595
451.30006 0.02562
450.01431 0.02542
448.72855 0.02531
447.44279 0.02526
446.15704 0.02520
444.87128 0.02507
443.58553 0.02487
442.29977 0.02462
441.01402 0.02440
439.72826 0.02424
438.44251 0.02411
437.15675 0.02399
435.87100 0.02384
434.58524 0.02368
433.29949 0.02352
432.01373 0.02335
430.72798 0.02319
429.44222 0.02307
428.15647 0.02300
426.87071 0.02293
425.58496 0.02281
424.29920 0.02264
423.01345 0.02247
421.72769 0.02233
420.44194 0.02218
419.15618 0.02193
417.87043 0.02154
416.58467 0.02107
415.29892 0.02064
414.01316 0.02037
412.72741 0.02028
411.44165 0.02031
410.15590 0.02034
408.87014 0.02032
407.58438 0.02028
406.29863 0.02024
405.01287 0.02022
403.72712 0.02022
402.44136 0.02026
401.15561 0.02036
399.86985 0.02047
