3998.69854 0.02148
3997.41278 0.02794
3996.12703 0.03407
3994.84127 0.03698
3993.55552 0.03498
3992.26976 0.02977
3990.98401 0.02491
3989.69825 0.02310
3988.41250 0.02467
3987.12674 0.02799
3985.84099 0.03084
3984.55523 0.03179
3983.26948 0.03114
3981.98372 0.03053
3980.69797 0.03130
3979.41221 0.03301
3978.12646 0.03372
3976.84070 0.03175
3975.55495 0.02710
3974.26919 0.02149
3972.98344 0.01748
3971.69768 0.01694
3970.41193 0.01952
3969.12617 0.02263
3967.84042 0.02370
3966.55466 0.02259
3965.26891 0.02116
3963.98315 0.02072
3962.69740 0.02088
3961.41164 0.02104
3960.12589 0.02168
3958.84013 0.02357
3957.55437 0.02602
3956.26862 0.02700
3954.98286 0.02523
3953.69711 0.02182
3952.41135 0.01950
3951.12560 0.02033
3949.83984 0.02434
3948.55409 0.02991
3947.26833 0.03483
3945.98258 0.03724
3944.69682 0.03631
3943.41107 0.03255
3942.12531 0.02739
3940.83956 0.02239
3939.55380 0.01876
3938.26805 0.01716
3936.98229 0.01758
3935.69654 0.01968
3934.41078 0.02309
3933.12503 0.02722
3931.83927 0.03088
3930.55352 0.03285
3929.26776 0.03267
3927.98201 0.03082
3926.69625 0.02815
3925.41050 0.02561
3924.12474 0.02409
3922.83899 0.02400
3921.55323 0.02491
3920.26748 0.02586
3918.98172 0.02621
3917.69596 0.02632
3916.41021 0.02724
3915.12445 0.02975
3913.83870 0.03350
3912.55294 0.03714
3911.26719 0.03907
3909.98143 0.03819
3908.69568 0.03437
3907.40992 0.02904
3906.12417 0.02510
3904.83841 0.02500
3903.55266 0.02880
3902.26690 0.03424
3900.98115 0.03895
3899.69539 0.04197
3898.40964 0.04317
3897.12388 0.04241
3895.83813 0.04003
3894.55237 0.03708
3893.26662 0.03456
3891.98086 0.03275
3890.69511 0.03167
3889.40935 0.03153
3888.12360 0.03223
3886.83784 0.03282
3885.55209 0.03232
3884.26633 0.03115
3882.98058 0.03111
3881.69482 0.03324
3880.40907 0.03596
3879.12331 0.03628
3877.83755 0.03301
3876.55180 0.02834
3875.26604 0.02564
3873.98029 0.02617
3872.69453 0.02835
3871.40878 0.03008
3870.12302 0.03093
3868.83727 0.03182
3867.55151 0.03316
3866.26576 0.03375
3864.98000 0.03181
3863.69425 0.02759
3862.40849 0.02399
3861.12274 0.02386
3859.83698 0.02701
3858.55123 0.03035
3857.26547 0.03129
3855.97972 0.03009
3854.69396 0.02900
3853.40821 0.02971
3852.12245 0.03186
3850.83670 0.03366
3849.55094 0.03368
3848.26519 0.03183
3846.97943 0.02902
3845.69368 0.02627
3844.40792 0.02427
3843.12217 0.02357
3841.83641 0.02442
3840.55066 0.02668
3839.26490 0.02941
3837.97915 0.03112
3836.69339 0.03066
3835.40763 0.02799
3834.12188 0.02399
3832.83612 0.02015
3831.55037 0.01752
3830.26461 0.01627
3828.97886 0.01629
3827.69310 0.01812
3826.40735 0.02268
3825.12159 0.02963
3823.83584 0.03655
3822.55008 0.04029
3821.26433 0.03962
3819.97857 0.03611
3818.69282 0.03273
3817.40706 0.03141
3816.12131 0.03167
3814.83555 0.03132
3813.54980 0.02911
3812.26404 0.02689
3810.97829 0.02848
3809.69253 0.03562
3808.40678 0.04492
3807.12102 0.04977
3805.83527 0.04595
3804.54951 0.03630
3803.26376 0.02860
3801.97800 0.02837
3800.69225 0.03437
3799.40649 0.04126
3798.12074 0.04540
3796.83498 0.04740
3795.54922 0.04905
3794.26347 0.04999
3792.97771 0.04806
3791.69196 0.04241
3790.40620 0.03553
3789.12045 0.03143
3787.83469 0.03209
3786.54894 0.03604
3785.26318 0.04049
3783.97743 0.04422
3782.69167 0.04780
3781.40592 0.05183
3780.12016 0.05560
3778.83441 0.05733
3777.54865 0.05566
3776.26290 0.05112
3774.97714 0.04646
3773.69139 0.04432
3772.40563 0.04431
3771.11988 0.04341
3769.83412 0.04011
3768.54837 0.03698
3767.26261 0.03771
3765.97686 0.04213
3764.69110 0.04612
3763.40535 0.04650
3762.11959 0.04440
3760.83384 0.04315
3759.54808 0.04445
3758.26233 0.04737
3756.97657 0.05030
3755.69081 0.05248
3754.40506 0.05423
3753.11930 0.05656
3751.83355 0.05986
3750.54779 0.06303
3749.26204 0.06442
3747.97628 0.06408
3746.69053 0.06410
3745.40477 0.06554
3744.11902 0.06606
3742.83326 0.06241
3741.54751 0.05553
3740.26175 0.05053
3738.97600 0.05098
3737.69024 0.05508
3736.40449 0.05839
3735.11873 0.05889
3733.83298 0.05760
3732.54722 0.05587
3731.26147 0.05379
3729.97571 0.05168
3728.68996 0.05158
3727.40420 0.05548
3726.11845 0.06236
3724.83269 0.06832
3723.54694 0.07036
3722.26118 0.06921
3720.97543 0.06796
3719.68967 0.06840
3718.40392 0.06934
3717.11816 0.06823
3715.83241 0.06435
3714.54665 0.05996
3713.26089 0.05822
3711.97514 0.06001
3710.68938 0.06309
3709.40363 0.06458
3708.11787 0.06372
3706.83212 0.06230
3705.54636 0.06260
3704.26061 0.06533
3702.97485 0.06918
3701.68910 0.07223
3700.40334 0.07382
3699.11759 0.07459
3697.83183 0.07482
3696.54608 0.07405
3695.26032 0.07268
3693.97457 0.07255
3692.68881 0.07506
3691.40306 0.07953
3690.11730 0.08397
3688.83155 0.08617
3687.54579 0.08474
3686.26004 0.07986
3684.97428 0.07360
3683.68853 0.06861
3682.40277 0.06573
3681.11702 0.06393
3679.83126 0.06296
3678.54551 0.06421
3677.25975 0.06811
3675.97400 0.07234
3674.68824 0.07387
3673.40248 0.07247
3672.11673 0.07091
3670.83097 0.07234
3669.54522 0.07814
3668.25946 0.08732
3666.97371 0.09638
3665.68795 0.10054
3664.40220 0.09706
3663.11644 0.08794
3661.83069 0.07878
3660.54493 0.07459
3659.25918 0.07686
3657.97342 0.08350
3656.68767 0.09075
3655.40191 0.09574
3654.11616 0.09815
3652.83040 0.09937
3651.54465 0.10020
3650.25889 0.09983
3648.97314 0.09686
3647.68738 0.09047
3646.40163 0.08119
3645.11587 0.07195
3643.83012 0.06811
3642.54436 0.07382
3641.25861 0.08777
3639.97285 0.10352
3638.68710 0.11437
3637.40134 0.11755
3636.11559 0.11420
3634.82983 0.10761
3633.54408 0.10223
3632.25832 0.10249
3630.97256 0.10964
3629.68681 0.11992
3628.40105 0.12766
3627.11530 0.13026
3625.82954 0.12904
3624.54379 0.12634
3623.25803 0.12438
3621.97228 0.12640
3620.68652 0.13481
3619.40077 0.14720
3618.11501 0.15723
3616.82926 0.16086
3615.54350 0.16002
3614.25775 0.15899
3612.97199 0.15957
3611.68624 0.16109
3610.40048 0.16284
3609.11473 0.16461
3607.82897 0.16532
3606.54322 0.16325
3605.25746 0.15789
3603.97171 0.15120
3602.68595 0.14633
3601.40020 0.14501
3600.11444 0.14672
3598.82869 0.15057
3597.54293 0.15713
3596.25718 0.16716
3594.97142 0.17901
3593.68567 0.18871
3592.39991 0.19329
3591.11415 0.19312
3589.82840 0.19094
3588.54264 0.18942
3587.25689 0.19032
3585.97113 0.19504
3584.68538 0.20420
3583.39962 0.21670
3582.11387 0.22967
3580.82811 0.23946
3579.54236 0.24291
3578.25660 0.23873
3576.97085 0.22884
3575.68509 0.21839
3574.39934 0.21352
3573.11358 0.21772
3571.82783 0.22906
3570.54207 0.24112
3569.25632 0.24794
3567.97056 0.24923
3566.68481 0.25042
3565.39905 0.25666
3564.11330 0.26720
3562.82754 0.27643
3561.54179 0.27955
3560.25603 0.27616
3558.97028 0.26967
3557.68452 0.26496
3556.39877 0.26595
3555.11301 0.27313
3553.82726 0.28296
3552.54150 0.29049
3551.25574 0.29310
3549.96999 0.29128
3548.68423 0.28730
3547.39848 0.28486
3546.11272 0.28847
3544.82697 0.30026
3543.54121 0.31703
3542.25546 0.33232
3540.96970 0.34190
3539.68395 0.34649
3538.39819 0.34921
3537.11244 0.35224
3535.82668 0.35629
3534.54093 0.36146
3533.25517 0.36709
3531.96942 0.37127
3530.68366 0.37215
3529.39791 0.37049
3528.11215 0.37015
3526.82640 0.37500
3525.54064 0.38542
3524.25489 0.39765
3522.96913 0.40633
3521.68338 0.40788
3520.39762 0.40333
3519.11187 0.39868
3517.82611 0.40085
3516.54036 0.41144
3515.25460 0.42504
3513.96885 0.43495
3512.68309 0.44004
3511.39734 0.44448
3510.11158 0.45171
3508.82582 0.46049
3507.54007 0.46767
3506.25431 0.47296
3504.96856 0.47931
3503.68280 0.48873
3502.39705 0.49953
3501.11129 0.50813
3499.82554 0.51245
3498.53978 0.51327
3497.25403 0.51351
3495.96827 0.51640
3494.68252 0.52261
3493.39676 0.52856
3492.11101 0.52968
3490.82525 0.52650
3489.53950 0.52566
3488.25374 0.53347
3486.96799 0.54947
3485.68223 0.56670
3484.39648 0.57756
3483.11072 0.57918
3481.82497 0.57483
3480.53921 0.57102
3479.25346 0.57294
3477.96770 0.58190
3476.68195 0.59605
3475.39619 0.61225
3474.11044 0.62732
3472.82468 0.63890
3471.53893 0.64635
3470.25317 0.65077
3468.96741 0.65410
3467.68166 0.65810
3466.39590 0.66361
3465.11015 0.66974
3463.82439 0.67480
3462.53864 0.67886
3461.25288 0.68440
3459.96713 0.69316
3458.68137 0.70345
3457.39562 0.71215
3456.10986 0.71847
3454.82411 0.72383
3453.53835 0.72854
3452.25260 0.73087
3450.96684 0.73009
3449.68109 0.72897
3448.39533 0.73197
3447.10958 0.74096
3445.82382 0.75344
3444.53807 0.76530
3443.25231 0.77418
3441.96656 0.77937
3440.68080 0.78025
3439.39505 0.77785
3438.10929 0.77717
3436.82354 0.78421
3435.53778 0.79955
3434.25203 0.81722
3432.96627 0.83135
3431.68052 0.84211
3430.39476 0.85341
3429.10900 0.86655
3427.82325 0.87827
3426.53749 0.88494
3425.25174 0.88711
3423.96598 0.88938
3422.68023 0.89616
3421.39447 0.90795
3420.10872 0.92148
3418.82296 0.93273
3417.53721 0.93887
3416.25145 0.93853
3414.96570 0.93188
3413.67994 0.92179
3412.39419 0.91405
3411.10843 0.91409
3409.82268 0.92229
3408.53692 0.93311
3407.25117 0.94059
3405.96541 0.94419
3404.67966 0.94775
3403.39390 0.95266
3402.10815 0.95636
3400.82239 0.95916
3399.53664 0.95930
3398.25088 0.95815
3396.96513 0.95933
3395.67937 0.96230
3394.39362 0.96311
3393.10786 0.95936
3391.82211 0.95266
3390.53635 0.94618
3389.25060 0.94162
3387.96484 0.93951
3386.67908 0.94092
3385.39333 0.94628
3384.10757 0.95270
3382.82182 0.95539
3381.53606 0.95237
3380.25031 0.94650
3378.96455 0.94212
3377.67880 0.94098
3376.39304 0.94193
3375.10729 0.94304
3373.82153 0.94298
3372.53578 0.94105
3371.25002 0.93680
3369.96427 0.93032
3368.67851 0.92289
3367.39276 0.91645
3366.10700 0.91145
3364.82125 0.90583
3363.53549 0.89734
3362.24974 0.88675
3360.96398 0.87698
3359.67823 0.86978
3358.39247 0.86519
3357.10672 0.86398
3355.82096 0.86758
3354.53521 0.87451
3353.24945 0.87938
3351.96370 0.87776
3350.67794 0.87122
3349.39219 0.86533
3348.10643 0.86327
3346.82067 0.86284
3345.53492 0.85996
3344.24916 0.85342
3342.96341 0.84551
3341.67765 0.83922
3340.39190 0.83594
3339.10614 0.83478
3337.82039 0.83302
3336.53463 0.82787
3335.24888 0.81915
3333.96312 0.81027
3332.67737 0.80555
3331.39161 0.80630
3330.10586 0.80986
3328.82010 0.81190
3327.53435 0.80901
3326.24859 0.80010
3324.96284 0.78687
3323.67708 0.77325
3322.39133 0.76295
3321.10557 0.75707
3319.81982 0.75423
3318.53406 0.75265
3317.24831 0.75099
3315.96255 0.74756
3314.67680 0.74045
3313.39104 0.72973
3312.10529 0.71863
3310.81953 0.71122
3309.53378 0.70877
3308.24802 0.70902
3306.96227 0.70900
3305.67651 0.70774
3304.39075 0.70614
3303.10500 0.70519
3301.81924 0.70474
3300.53349 0.70387
3299.24773 0.70170
3297.96198 0.69767
3296.67622 0.69157
3295.39047 0.68378
3294.10471 0.67542
3292.81896 0.66795
3291.53320 0.66218
3290.24745 0.65748
3288.96169 0.65192
3287.67594 0.64398
3286.39018 0.63471
3285.10443 0.62764
3283.81867 0.62556
3282.53292 0.62732
3281.24716 0.62877
3279.96141 0.62690
3278.67565 0.62226
3277.38990 0.61732
3276.10414 0.61357
3274.81839 0.61074
3273.53263 0.60794
3272.24688 0.60439
3270.96112 0.59917
3269.67537 0.59139
3268.38961 0.58138
3267.10386 0.57135
3265.81810 0.56418
3264.53234 0.56129
3263.24659 0.56209
3261.96083 0.56529
3260.67508 0.56948
3259.38932 0.57259
3258.10357 0.57205
3256.81781 0.56666
3255.53206 0.55792
3254.24630 0.54925
3252.96055 0.54371
3251.67479 0.54191
3250.38904 0.54159
3249.10328 0.53947
3247.81753 0.53406
3246.53177 0.52678
3245.24602 0.52032
3243.96026 0.51600
3242.67451 0.51304
3241.38875 0.51009
3240.10300 0.50712
3238.81724 0.50573
3237.53149 0.50726
3236.24573 0.51095
3234.95998 0.51428
3233.67422 0.51499
3232.38847 0.51259
3231.10271 0.50808
3229.81696 0.50325
3228.53120 0.49982
3227.24545 0.49830
3225.95969 0.49736
3224.67393 0.49487
3223.38818 0.49000
3222.10242 0.48393
3220.81667 0.47833
3219.53091 0.47356
3218.24516 0.46872
3216.95940 0.46317
3215.67365 0.45764
3214.38789 0.45372
3213.10214 0.45233
3211.81638 0.45258
3210.53063 0.45214
3209.24487 0.44901
3207.95912 0.44327
3206.67336 0.43720
3205.38761 0.43331
3204.10185 0.43222
3202.81610 0.43240
3201.53034 0.43184
3200.24459 0.42969
3198.95883 0.42665
3197.67308 0.42416
3196.38732 0.42316
3195.10157 0.42330
3193.81581 0.42331
3192.53006 0.42210
3191.24430 0.41929
3189.95855 0.41489
3188.67279 0.40926
3187.38704 0.40359
3186.10128 0.39952
3184.81553 0.39745
3183.52977 0.39583
3182.24401 0.39285
3180.95826 0.38875
3179.67250 0.38516
3178.38675 0.38266
3177.10099 0.38037
3175.81524 0.37782
3174.52948 0.37577
3173.24373 0.37447
3171.95797 0.37267
3170.67222 0.36922
3169.38646 0.36493
3168.10071 0.36152
3166.81495 0.35954
3165.52920 0.35796
3164.24344 0.35588
3162.95769 0.35357
3161.67193 0.35188
3160.38618 0.35107
3159.10042 0.35061
3157.81467 0.34978
3156.52891 0.34803
3155.24316 0.34512
3153.95740 0.34118
3152.67165 0.33707
3151.38589 0.33412
3150.10014 0.33331
3148.81438 0.33447
3147.52863 0.33631
3146.24287 0.33701
3144.95712 0.33548
3143.67136 0.33234
3142.38560 0.32932
3141.09985 0.32739
3139.81409 0.32592
3138.52834 0.32368
3137.24258 0.32031
3135.95683 0.31655
3134.67107 0.31340
3133.38532 0.31145
3132.09956 0.31073
3130.81381 0.31068
3129.52805 0.31054
3128.24230 0.30975
3126.95654 0.30828
3125.67079 0.30626
3124.38503 0.30362
3123.09928 0.30013
3121.81352 0.29624
3120.52777 0.29316
3119.24201 0.29172
3117.95626 0.29145
3116.67050 0.29138
3115.38475 0.29125
3114.09899 0.29126
3112.81324 0.29108
3111.52748 0.28993
3110.24173 0.28760
3108.95597 0.28469
3107.67022 0.28204
3106.38446 0.28015
3105.09871 0.27904
3103.81295 0.27838
3102.52719 0.27773
3101.24144 0.27672
3099.95568 0.27512
3098.66993 0.27300
3097.38417 0.27098
3096.09842 0.26980
3094.81266 0.26953
3093.52691 0.26954
3092.24115 0.26936
3090.95540 0.26914
3089.66964 0.26913
3088.38389 0.26907
3087.09813 0.26841
3085.81238 0.26700
3084.52662 0.26537
3083.24087 0.26410
3081.95511 0.26310
3080.66936 0.26189
3079.38360 0.26046
3078.09785 0.25926
3076.81209 0.25842
3075.52634 0.25746
3074.24058 0.25604
3072.95483 0.25426
3071.66907 0.25229
3070.38332 0.25017
3069.09756 0.24813
3067.81181 0.24664
3066.52605 0.24597
3065.24030 0.24579
3063.95454 0.24543
3062.66879 0.24438
3061.38303 0.24270
3060.09727 0.24099
3058.81152 0.23991
3057.52576 0.23947
3056.24001 0.23888
3054.95425 0.23719
3053.66850 0.23444
3052.38274 0.23192
3051.09699 0.23102
3049.81123 0.23162
3048.52548 0.23191
3047.23972 0.23012
3045.95397 0.22621
3044.66821 0.22178
3043.38246 0.21865
3042.09670 0.21763
3040.81095 0.21819
3039.52519 0.21909
3038.23944 0.21939
3036.95368 0.21895
3035.66793 0.21805
3034.38217 0.21688
3033.09642 0.21563
3031.81066 0.21476
3030.52491 0.21458
3029.23915 0.21458
3027.95340 0.21365
3026.66764 0.21112
3025.38189 0.20759
3024.09613 0.20450
3022.81038 0.20299
3021.52462 0.20310
3020.23886 0.20401
3018.95311 0.20479
3017.66735 0.20483
3016.38160 0.20394
3015.09584 0.20239
3013.81009 0.20083
3012.52433 0.19987
3011.23858 0.19975
3009.95282 0.20027
3008.66707 0.20109
3007.38131 0.20180
3006.09556 0.20203
3004.80980 0.20130
3003.52405 0.19890
3002.23829 0.19497
3000.95254 0.19302
2999.66678 0.19325
2998.38103 0.19208
2997.09527 0.19127
2995.80952 0.19081
2994.52376 0.19057
2993.23801 0.19037
2991.95225 0.19021
2990.66650 0.19044
2989.38074 0.19131
2988.09499 0.19241
2986.80923 0.19300
2985.52348 0.19294
2984.23772 0.19289
2982.95197 0.19349
2981.66621 0.19463
2980.38046 0.19567
2979.09470 0.19618
2977.80894 0.19638
2976.52319 0.19694
2975.23743 0.19850
2973.95168 0.20123
2972.66592 0.20483
2971.38017 0.20909
2970.09441 0.21421
2968.80866 0.22027
2967.52290 0.22664
2966.23715 0.23232
2964.95139 0.23673
2963.66564 0.23981
2962.37988 0.24158
2961.09413 0.24205
2959.80837 0.24128
2958.52262 0.23935
2957.23686 0.23626
2955.95111 0.23220
2954.66535 0.22780
2953.37960 0.22366
2952.09384 0.21985
2950.80809 0.21609
2949.52233 0.21220
2948.23658 0.20837
2946.95082 0.20510
2945.66507 0.20287
2944.37931 0.20147
2943.09356 0.20009
2941.80780 0.19822
2940.52205 0.19622
2939.23629 0.19458
2937.95053 0.19313
2936.66478 0.19178
2935.37902 0.19126
2934.09327 0.19229
2932.80751 0.19428
2931.52176 0.19564
2930.23600 0.19540
2928.95025 0.19399
2927.66449 0.19241
2926.37874 0.19125
2925.09298 0.19048
2923.80723 0.18983
2922.52147 0.18907
2921.23572 0.18810
2919.94996 0.18692
2918.66421 0.18558
2917.37845 0.18419
2916.09270 0.18284
2914.80694 0.18161
2913.52119 0.18075
2912.23543 0.18038
2910.94968 0.18011
2909.66392 0.17927
2908.37817 0.17753
2907.09241 0.17533
2905.80666 0.17326
2904.52090 0.17153
2903.23515 0.17006
2901.94939 0.16886
2900.66364 0.16802
2899.37788 0.16734
2898.09212 0.16637
2896.80637 0.16490
2895.52061 0.16315
2894.23486 0.16150
2892.94910 0.16011
2891.66335 0.15888
2890.37759 0.15781
2889.09184 0.15702
2887.80608 0.15647
2886.52033 0.15587
2885.23457 0.15502
2883.94882 0.15415
2882.66306 0.15368
2881.37731 0.15365
2880.09155 0.15372
2878.80580 0.15368
2877.52004 0.15356
2876.23429 0.15323
2874.94853 0.15227
2873.66278 0.15034
2872.37702 0.14782
2871.09127 0.14562
2869.80551 0.14449
2868.51976 0.14447
2867.23400 0.14496
2865.94825 0.14520
2864.66249 0.14485
2863.37674 0.14413
2862.09098 0.14340
2860.80523 0.14263
2859.51947 0.14158
2858.23372 0.14039
2856.94796 0.13964
2855.66220 0.13976
2854.37645 0.14038
2853.09069 0.14066
2851.80494 0.14012
2850.51918 0.13901
2849.23343 0.13784
2847.94767 0.13672
2846.66192 0.13534
2845.37616 0.13354
2844.09041 0.13170
2842.80465 0.13034
2841.51890 0.12963
2840.23314 0.12923
2838.94739 0.12866
2837.66163 0.12759
2836.37588 0.12609
2835.09012 0.12454
2833.80437 0.12342
2832.51861 0.12298
2831.23286 0.12298
2829.94710 0.12285
2828.66135 0.12225
2827.37559 0.12137
2826.08984 0.12067
2824.80408 0.12034
2823.51833 0.12021
2822.23257 0.12009
2820.94682 0.12004
2819.66106 0.12010
2818.37531 0.12001
2817.08955 0.11942
2815.80379 0.11832
2814.51804 0.11712
2813.23228 0.11628
2811.94653 0.11583
2810.66077 0.11538
2809.37502 0.11461
2808.08926 0.11361
2806.80351 0.11259
2805.51775 0.11163
2804.23200 0.11082
2802.94624 0.11044
2801.66049 0.11080
2800.37473 0.11172
2799.08898 0.11252
2797.80322 0.11263
2796.51747 0.11203
2795.23171 0.11116
2793.94596 0.11042
2792.66020 0.10990
2791.37445 0.10946
2790.08869 0.10881
2788.80294 0.10770
2787.51718 0.10609
2786.23143 0.10419
2784.94567 0.10246
2783.65992 0.10142
2782.37416 0.10141
2781.08841 0.10235
2779.80265 0.10365
2778.51690 0.10459
2777.23114 0.10485
2775.94538 0.10459
2774.65963 0.10404
2773.37387 0.10325
2772.08812 0.10223
2770.80236 0.10125
2769.51661 0.10071
2768.23085 0.10075
2766.94510 0.10107
2765.65934 0.10114
2764.37359 0.10058
2763.08783 0.09945
2761.80208 0.09832
2760.51632 0.09780
2759.23057 0.09799
2757.94481 0.09840
2756.65906 0.09841
2755.37330 0.09786
2754.08755 0.09714
2752.80179 0.09670
2751.51604 0.09671
2750.23028 0.09692
2748.94453 0.09686
2747.65877 0.09623
2746.37302 0.09520
2745.08726 0.09428
2743.80151 0.09386
2742.51575 0.09388
2741.23000 0.09403
2739.94424 0.09411
2738.65849 0.09417
2737.37273 0.09431
2736.08698 0.09440
2734.80122 0.09423
2733.51546 0.09376
2732.22971 0.09322
2730.94395 0.09288
2729.65820 0.09279
2728.37244 0.09276
2727.08669 0.09261
2725.80093 0.09220
2724.51518 0.09158
2723.22942 0.09098
2721.94367 0.09078
2720.65791 0.09098
2719.37216 0.09112
2718.08640 0.09060
2716.80065 0.08939
2715.51489 0.08809
2714.22914 0.08738
2712.94338 0.08747
2711.65763 0.08794
2710.37187 0.08813
2709.08612 0.08769
2707.80036 0.08690
2706.51461 0.08630
2705.22885 0.08613
2703.94310 0.08608
2702.65734 0.08570
2701.37159 0.08496
2700.08583 0.08429
2698.80008 0.08415
2697.51432 0.08444
2696.22857 0.08459
2694.94281 0.08418
2693.65705 0.08334
2692.37130 0.08261
2691.08554 0.08238
2689.79979 0.08267
2688.51403 0.08317
2687.22828 0.08344
2685.94252 0.08322
2684.65677 0.08266
2683.37101 0.08215
2682.08526 0.08196
2680.79950 0.08198
2679.51375 0.08187
2678.22799 0.08137
2676.94224 0.08050
2675.65648 0.07958
2674.37073 0.07907
2673.08497 0.07923
2671.79922 0.07980
2670.51346 0.08028
2669.22771 0.08026
2667.94195 0.07965
2666.65620 0.07861
2665.37044 0.07744
2664.08469 0.07646
2662.79893 0.07580
2661.51318 0.07527
2660.22742 0.07459
2658.94167 0.07366
2657.65591 0.07257
2656.37016 0.07147
2655.08440 0.07041
2653.79865 0.06948
2652.51289 0.06874
2651.22713 0.06815
2649.94138 0.06758
2648.65562 0.06696
2647.36987 0.06632
2646.08411 0.06573
2644.79836 0.06528
2643.51260 0.06521
2642.22685 0.06573
2640.94109 0.06673
2639.65534 0.06774
2638.36958 0.06830
2637.08383 0.06827
2635.79807 0.06778
2634.51232 0.06699
2633.22656 0.06602
2631.94081 0.06505
2630.65505 0.06430
2629.36930 0.06391
2628.08354 0.06385
2626.79779 0.06399
2625.51203 0.06408
2624.22628 0.06399
2622.94052 0.06374
2621.65477 0.06339
2620.36901 0.06289
2619.08326 0.06217
2617.79750 0.06138
2616.51175 0.06092
2615.22599 0.06112
2613.94024 0.06181
2612.65448 0.06236
2611.36872 0.06236
2610.08297 0.06196
2608.79721 0.06161
2607.51146 0.06162
2606.22570 0.06185
2604.93995 0.06189
2603.65419 0.06136
2602.36844 0.06035
2601.08268 0.05944
2599.79693 0.05922
2598.51117 0.05976
2597.22542 0.06066
2595.93966 0.06140
2594.65391 0.06156
2593.36815 0.06105
2592.08240 0.06020
2590.79664 0.05953
2589.51089 0.05923
2588.22513 0.05920
2586.93938 0.05933
2585.65362 0.05963
2584.36787 0.06009
2583.08211 0.06056
2581.79636 0.06083
2580.51060 0.06071
2579.22485 0.06010
2577.93909 0.05916
2576.65334 0.05822
2575.36758 0.05757
2574.08183 0.05732
2572.79607 0.05747
2571.51031 0.05789
2570.22456 0.05833
2568.93880 0.05847
2567.65305 0.05805
2566.36729 0.05713
2565.08154 0.05617
2563.79578 0.05565
2562.51003 0.05562
2561.22427 0.05591
2559.93852 0.05650
2558.65276 0.05738
2557.36701 0.05822
2556.08125 0.05863
2554.79550 0.05854
2553.50974 0.05810
2552.22399 0.05734
2550.93823 0.05643
2549.65248 0.05587
2548.36672 0.05617
2547.08097 0.05709
2545.79521 0.05782
2544.50946 0.05776
2543.22370 0.05714
2541.93795 0.05669
2540.65219 0.05693
2539.36644 0.05777
2538.08068 0.05869
2536.79493 0.05930
2535.50917 0.05959
2534.22342 0.05985
2532.93766 0.06021
2531.65191 0.06043
2530.36615 0.06002
2529.08039 0.05877
2527.79464 0.05703
2526.50888 0.05559
2525.22313 0.05497
2523.93737 0.05492
2522.65162 0.05479
2521.36586 0.05419
2520.08011 0.05345
2518.79435 0.05305
2517.50860 0.05307
2516.22284 0.05323
2514.93709 0.05344
2513.65133 0.05392
2512.36558 0.05478
2511.07982 0.05571
2509.79407 0.05616
2508.50831 0.05576
2507.22256 0.05468
2505.93680 0.05363
2504.65105 0.05331
2503.36529 0.05372
2502.07954 0.05427
2500.79378 0.05447
2499.50803 0.05443
2498.22227 0.05450
2496.93652 0.05473
2495.65076 0.05495
2494.36501 0.05511
2493.07925 0.05529
2491.79350 0.05542
2490.50774 0.05527
2489.22198 0.05468
2487.93623 0.05381
2486.65047 0.05300
2485.36472 0.05255
2484.07896 0.05250
2482.79321 0.05256
2481.50745 0.05241
2480.22170 0.05212
2478.93594 0.05206
2477.65019 0.05223
2476.36443 0.05229
2475.07868 0.05213
2473.79292 0.05228
2472.50717 0.05311
2471.22141 0.05405
2469.93566 0.05419
2468.64990 0.05334
2467.36415 0.05224
2466.07839 0.05170
2464.79264 0.05183
2463.50688 0.05221
2462.22113 0.05236
2460.93537 0.05205
2459.64962 0.05131
2458.36386 0.05039
2457.07811 0.04957
2455.79235 0.04903
2454.50660 0.04874
2453.22084 0.04862
2451.93509 0.04866
2450.64933 0.04887
2449.36357 0.04916
2448.07782 0.04946
2446.79206 0.04984
2445.50631 0.05050
2444.22055 0.05145
2442.93480 0.05234
2441.64904 0.05267
2440.36329 0.05226
2439.07753 0.05152
2437.79178 0.05101
2436.50602 0.05098
2435.22027 0.05130
2433.93451 0.05183
2432.64876 0.05242
2431.36300 0.05272
2430.07725 0.05244
2428.79149 0.05165
2427.50574 0.05074
2426.21998 0.05005
2424.93423 0.04980
2423.64847 0.05018
2422.36272 0.05113
2421.07696 0.05227
2419.79121 0.05309
2418.50545 0.05342
2417.21970 0.05331
2415.93394 0.05284
2414.64819 0.05213
2413.36243 0.05143
2412.07668 0.05090
2410.79092 0.05045
2409.50517 0.04985
2408.21941 0.04913
2406.93365 0.04864
2405.64790 0.04885
2404.36214 0.04985
2403.07639 0.05120
2401.79063 0.05231
2400.50488 0.05267
2399.21912 0.05009
2397.93337 0.05104
2396.64761 0.05186
2395.36186 0.05192
2394.07610 0.05199
2392.79035 0.05207
2391.50459 0.05187
2390.21884 0.05145
2388.93308 0.05109
2387.64733 0.05100
2386.36157 0.05106
2385.07582 0.05104
2383.79006 0.05095
2382.50431 0.05093
2381.21855 0.05093
2379.93280 0.05081
2378.64704 0.05060
2377.36129 0.05062
2376.07553 0.05111
2374.78978 0.05198
2373.50402 0.05285
2372.21827 0.05336
2370.93251 0.05346
2369.64676 0.05333
2368.36100 0.05303
2367.07524 0.05251
2365.78949 0.05166
2364.50373 0.05067
2363.21798 0.04992
2361.93222 0.04942
2360.64647 0.04896
2359.36071 0.04859
2358.07496 0.04830
2356.78920 0.04807
2355.50345 0.04794
2354.21769 0.04784
2352.93194 0.04775
2351.64618 0.04751
2350.36043 0.04713
2349.07467 0.04686
2347.78892 0.04668
2346.50316 0.04627
2345.21741 0.04578
2343.93165 0.04577
2342.64590 0.04620
2341.36014 0.04622
2340.07439 0.04562
2338.78863 0.04542
2337.50288 0.04587
2336.21712 0.04559
2334.93137 0.04486
2333.64561 0.04504
2332.35986 0.04549
2331.07410 0.04450
2329.78835 0.04256
2328.50259 0.04020
2327.21684 0.03591
2325.93108 0.03076
2324.64532 0.02730
2323.35957 0.02581
2322.07381 0.02598
2320.78806 0.02767
2319.50230 0.02929
2318.21655 0.03027
2316.93079 0.03130
2315.64504 0.03226
2314.35928 0.03326
2313.07353 0.03428
2311.78777 0.03471
2310.50202 0.03469
2309.21626 0.03460
2307.93051 0.03453
2306.64475 0.03442
2305.35900 0.03389
2304.07324 0.03307
2302.78749 0.03242
2301.50173 0.03210
2300.21598 0.03197
2298.93022 0.03166
2297.64447 0.03101
2296.35871 0.03002
2295.07296 0.02879
2293.78720 0.02759
2292.50145 0.02678
2291.21569 0.02654
2289.92994 0.02669
2288.64418 0.02684
2287.35843 0.02675
2286.07267 0.02642
2284.78691 0.02601
2283.50116 0.02581
2282.21540 0.02605
2280.92965 0.02669
2279.64389 0.02736
2278.35814 0.02767
2277.07238 0.02757
2275.78663 0.02733
2274.50087 0.02730
2273.21512 0.02758
2271.92936 0.02787
2270.64361 0.02774
2269.35785 0.02717
2268.07210 0.02672
2266.78634 0.02705
2265.50059 0.02808
2264.21483 0.02906
2262.92908 0.02928
2261.64332 0.02870
2260.35757 0.02774
2259.07181 0.02682
2257.78606 0.02625
2256.50030 0.02627
2255.21455 0.02689
2253.92879 0.02787
2252.64304 0.02917
2251.35728 0.03128
2250.07153 0.03339
2248.78577 0.03210
2247.50002 0.03109
2246.21426 0.02905
2244.92850 0.02704
2243.64275 0.02622
2242.35699 0.02661
2241.07124 0.02726
2239.78548 0.02729
2238.49973 0.02666
2237.21397 0.02569
2235.92822 0.02458
2234.64246 0.02365
2233.35671 0.02324
2232.07095 0.02325
2230.78520 0.02316
2229.49944 0.02297
2228.21369 0.02343
2226.92793 0.02514
2225.64218 0.02738
2224.35642 0.02857
2223.07067 0.02773
2221.78491 0.02543
2220.49916 0.02307
2219.21340 0.02150
2217.92765 0.02070
2216.64189 0.02063
2215.35614 0.02146
2214.07038 0.02285
2212.78463 0.02377
2211.49887 0.02366
2210.21312 0.02301
2208.92736 0.02256
2207.64161 0.02242
2206.35585 0.02240
2205.07010 0.02253
2203.78434 0.02290
2202.49858 0.02324
2201.21283 0.02316
2199.92707 0.02255
2198.64132 0.02151
2197.35556 0.02018
2196.06981 0.01883
2194.78405 0.01794
2193.49830 0.01798
2192.21254 0.01897
2190.92679 0.02052
2189.64103 0.02199
2188.35528 0.02280
2187.06952 0.02243
2185.78377 0.02086
2184.49801 0.01889
2183.21226 0.01781
2181.92650 0.01798
2180.64075 0.01826
2179.35499 0.01731
2178.06924 0.01549
2176.78348 0.01432
2175.49773 0.01431
2174.21197 0.01431
2172.92622 0.01340
2171.64046 0.01229
2170.35471 0.01219
2169.06895 0.01298
2167.78320 0.01354
2166.49744 0.01301
2165.21169 0.01123
2163.92593 0.00861
2162.64017 0.00681
2161.35442 0.00907
2160.06866 0.01763
2158.78291 0.03005
2157.49715 0.04041
2156.21140 0.04498
2154.92564 0.04473
2153.63989 0.04265
2152.35413 0.04093
2151.06838 0.04036
2149.78262 0.04074
2148.49687 0.04143
2147.21111 0.04184
2145.92536 0.04157
2144.63960 0.04026
2143.35385 0.03778
2142.06809 0.03489
2140.78234 0.03306
2139.49658 0.03342
2138.21083 0.03588
2136.92507 0.03926
2135.63932 0.04215
2134.35356 0.04362
2133.06781 0.04360
2131.78205 0.04259
2130.49630 0.04111
2129.21054 0.03957
2127.92479 0.03834
2126.63903 0.03745
2125.35328 0.03635
2124.06752 0.03442
2122.78176 0.03178
2121.49601 0.02932
2120.21025 0.02784
2118.92450 0.02739
2117.63874 0.02739
2116.35299 0.02725
2115.06723 0.02676
2113.78148 0.02612
2112.49572 0.02566
2111.20997 0.02539
2109.92421 0.02514
2108.63846 0.02480
2107.35270 0.02440
2106.06695 0.02391
2104.78119 0.02326
2103.49544 0.02250
2102.20968 0.02193
2100.92393 0.02192
2099.63817 0.02349
2098.35242 0.02440
2097.06666 0.02555
2095.78091 0.02702
2094.49515 0.02797
2093.20940 0.02756
2091.92364 0.02551
2090.63789 0.02244
2089.35213 0.01949
2088.06638 0.01760
2086.78062 0.01698
2085.49487 0.01717
2084.20911 0.01747
2082.92336 0.01743
2081.63760 0.01692
2080.35184 0.01595
2079.06609 0.01480
2077.78033 0.01399
2076.49458 0.01404
2075.20882 0.01484
2073.92307 0.01561
2072.63731 0.01561
2071.35156 0.01483
2070.06580 0.01384
2068.78005 0.01315
2067.49429 0.01286
2066.20854 0.01281
2064.92278 0.01277
2063.63703 0.01250
2062.35127 0.01187
2061.06552 0.01097
2059.77976 0.01021
2058.49401 0.00997
2057.20825 0.00999
2055.92250 0.00935
2054.63674 0.00714
2053.35099 0.00354
2052.06523 0.00020
2050.77948 -0.00098
2049.49372 0.00050
2048.20797 0.00330
2046.92221 0.00558
2045.63646 0.00662
2044.35070 0.00688
2043.06495 0.00713
2041.77919 0.00792
2040.49343 0.00931
2039.20768 0.01078
2037.92192 0.01165
2036.63617 0.01187
2035.35041 0.01203
2034.06466 0.01243
2032.77890 0.01264
2031.49315 0.01233
2030.20739 0.01181
2028.92164 0.01164
2027.63588 0.01185
2026.35013 0.01205
2025.06437 0.01224
2023.77862 0.01292
2022.49286 0.01428
2021.20711 0.01563
2019.92135 0.01604
2018.63560 0.01527
2017.34984 0.01386
2016.06409 0.01248
2014.77833 0.01149
2013.49258 0.01102
2012.20682 0.01135
2010.92107 0.01311
2009.63531 0.01679
2008.34956 0.02190
2007.06380 0.02679
2005.77805 0.02963
2004.49229 0.02968
2003.20654 0.02738
2001.92078 0.02378
2000.63503 0.02000
1999.34927 0.01703
1998.06351 0.01547
1996.77776 0.01528
1995.49200 0.01596
1994.20625 0.01689
1992.92049 0.01749
1991.63474 0.01730
1990.34898 0.01623
1989.06323 0.01479
1987.77747 0.01372
1986.49172 0.01315
1985.20596 0.01218
1983.92021 0.00980
1982.63445 0.00632
1981.34870 0.00385
1980.06294 0.00480
1978.77719 0.00968
1977.49143 0.01636
1976.20568 0.02184
1974.91992 0.02457
1973.63417 0.02501
1972.34841 0.02456
1971.06266 0.02437
1969.77690 0.02494
1968.49115 0.02598
1967.20539 0.02678
1965.91964 0.02699
1964.63388 0.02702
1963.34813 0.02767
1962.06237 0.02917
1960.77662 0.03077
1959.49086 0.03135
1958.20510 0.03051
1956.91935 0.02882
1955.63359 0.02730
1954.34784 0.02649
1953.06208 0.02631
1951.77633 0.02643
1950.49057 0.02672
1949.20482 0.02712
1947.91906 0.02756
1946.63331 0.02802
1945.34755 0.02859
1944.06180 0.02926
1942.77604 0.02972
1941.49029 0.02962
1940.20453 0.02908
1938.91878 0.02865
1937.63302 0.02887
1936.34727 0.02966
1935.06151 0.03041
1933.77576 0.03042
1932.49000 0.02954
1931.20425 0.02827
1929.91849 0.02737
1928.63274 0.02718
1927.34698 0.02739
1926.06123 0.02743
1924.77547 0.02697
1923.48972 0.02622
1922.20396 0.02566
1920.91821 0.02578
1919.63245 0.02664
1918.34669 0.02775
1917.06094 0.02842
1915.77518 0.02836
1914.48943 0.02783
1913.20367 0.02716
1911.91792 0.02647
1910.63216 0.02569
1909.34641 0.02494
1908.06065 0.02454
1906.77490 0.02469
1905.48914 0.02526
1904.20339 0.02584
1902.91763 0.02612
1901.63188 0.02604
1900.34612 0.02582
1899.06037 0.02572
1897.77461 0.02575
1896.48886 0.02582
1895.20310 0.02588
1893.91735 0.02594
1892.63159 0.02601
1891.34584 0.02598
1890.06008 0.02583
1888.77433 0.02568
1887.48857 0.02572
1886.20282 0.02599
1884.91706 0.02632
1883.63131 0.02646
1882.34555 0.02628
1881.05980 0.02586
1879.77404 0.02534
1878.48829 0.02487
1877.20253 0.02450
1875.91677 0.02423
1874.63102 0.02403
1873.34526 0.02401
1872.05951 0.02431
1870.77375 0.02491
1869.48800 0.02553
1868.20224 0.02578
1866.91649 0.02542
1865.63073 0.02461
1864.34498 0.02375
1863.05922 0.02316
1861.77347 0.02291
1860.48771 0.02296
1859.20196 0.02326
1857.91620 0.02377
1856.63045 0.02438
1855.34469 0.02488
1854.05894 0.02501
1852.77318 0.02467
1851.48743 0.02402
1850.20167 0.02344
1848.91592 0.02329
1847.63016 0.02372
1846.34441 0.02455
1845.05865 0.02535
1843.77290 0.02568
1842.48714 0.02538
1841.20139 0.02469
1839.91563 0.02405
1838.62988 0.02389
1837.34412 0.02426
1836.05836 0.02479
1834.77261 0.02508
1833.48685 0.02497
1832.20110 0.02470
1830.91534 0.02454
1829.62959 0.02451
1828.34383 0.02447
1827.05808 0.02431
1825.77232 0.02411
1824.48657 0.02398
1823.20081 0.02412
1821.91506 0.02469
1820.62930 0.02579
1819.34355 0.02719
1818.05779 0.02832
1816.77204 0.02861
1815.48628 0.02792
1814.20053 0.02675
1812.91477 0.02576
1811.62902 0.02529
1810.34326 0.02517
1809.05751 0.02504
1807.77175 0.02473
1806.48600 0.02434
1805.20024 0.02407
1803.91449 0.02401
1802.62873 0.02406
1801.34298 0.02400
1800.05722 0.02366
1798.77147 0.02311
1797.48571 0.02262
1796.19995 0.02249
1794.91420 0.02283
1793.62844 0.02340
1792.34269 0.02370
1791.05693 0.02343
1789.77118 0.02274
1788.48542 0.02211
1787.19967 0.02188
1785.91391 0.02206
1784.62816 0.02242
1783.34240 0.02271
1782.05665 0.02284
1780.77089 0.02284
1779.48514 0.02269
1778.19938 0.02246
1776.91363 0.02229
1775.62787 0.02247
1774.34212 0.02313
1773.05636 0.02399
1771.77061 0.02454
1770.48485 0.02444
1769.19910 0.02383
1767.91334 0.02310
1766.62759 0.02256
1765.34183 0.02235
1764.05608 0.02246
1762.77032 0.02277
1761.48457 0.02307
1760.19881 0.02315
1758.91306 0.02296
1757.62730 0.02260
1756.34155 0.02226
1755.05579 0.02221
1753.77003 0.02260
1752.48428 0.02333
1751.19852 0.02399
1749.91277 0.02410
1748.62701 0.02353
1747.34126 0.02257
1746.05550 0.02171
1744.76975 0.02128
1743.48399 0.02126
1742.19824 0.02144
1740.91248 0.02159
1739.62673 0.02168
1738.34097 0.02197
1737.05522 0.02283
1735.76946 0.02425
1734.48371 0.02566
1733.19795 0.02626
1731.91220 0.02576
1730.62644 0.02458
1729.34069 0.02350
1728.05493 0.02298
1726.76918 0.02291
1725.48342 0.02292
1724.19767 0.02286
1722.91191 0.02292
1721.62616 0.02350
1720.34040 0.02487
1719.05465 0.02684
1717.76889 0.02867
1716.48314 0.02955
1715.19738 0.02927
1713.91162 0.02831
1712.62587 0.02739
1711.34011 0.02709
1710.05436 0.02751
1708.76860 0.02836
1707.48285 0.02924
1706.19709 0.02993
1704.91134 0.03058
1703.62558 0.03158
1702.33983 0.03320
1701.05407 0.03526
1699.76832 0.03726
1698.48256 0.03879
1697.19681 0.03980
1695.91105 0.04034
1694.62530 0.04033
1693.33954 0.03985
1692.05379 0.03937
1690.76803 0.03956
1689.48228 0.04089
1688.19652 0.04338
1686.91077 0.04668
1685.62501 0.05008
1684.33926 0.05246
1683.05350 0.05308
1681.76775 0.05236
1680.48199 0.05152
1679.19624 0.05167
1677.91048 0.05302
1676.62473 0.05506
1675.33897 0.05703
1674.05322 0.05850
1672.76746 0.05960
1671.48170 0.06069
1670.19595 0.06191
1668.91019 0.06309
1667.62444 0.06400
1666.33868 0.06474
1665.05293 0.06557
1663.76717 0.06655
1662.48142 0.06732
1661.19566 0.06753
1659.90991 0.06727
1658.62415 0.06718
1657.33840 0.06816
1656.05264 0.07061
1654.76689 0.07387
1653.48113 0.07639
1652.19538 0.07692
1650.90962 0.07559
1649.62387 0.07373
1648.33811 0.07287
1647.05236 0.07330
1645.76660 0.07406
1644.48085 0.07415
1643.19509 0.07343
1641.90934 0.07255
1640.62358 0.07218
1639.33783 0.07261
1638.05207 0.07364
1636.76632 0.07462
1635.48056 0.07480
1634.19481 0.07383
1632.90905 0.07203
1631.62329 0.07008
1630.33754 0.06865
1629.05178 0.06788
1627.76603 0.06749
1626.48027 0.06712
1625.19452 0.06653
1623.90876 0.06566
1622.62301 0.06456
1621.33725 0.06350
1620.05150 0.06287
1618.76574 0.06280
1617.47999 0.06292
1616.19423 0.06258
1614.90848 0.06146
1613.62272 0.05986
1612.33697 0.05847
1611.05121 0.05776
1609.76546 0.05764
1608.47970 0.05767
1607.19395 0.05757
1605.90819 0.05729
1604.62244 0.05698
1603.33668 0.05673
1602.05093 0.05654
1600.76517 0.05639
1599.47942 0.05623
1598.19366 0.05611
1596.90791 0.05607
1595.62215 0.05612
1594.33640 0.05624
1593.05064 0.05638
1591.76488 0.05655
1590.47913 0.05671
1589.19337 0.05685
1587.90762 0.05692
1586.62186 0.05689
1585.33611 0.05673
1584.05035 0.05651
1582.76460 0.05635
1581.47884 0.05648
1580.19309 0.05715
1578.90733 0.05842
1577.62158 0.06002
1576.33582 0.06127
1575.05007 0.06162
1573.76431 0.06121
1572.47856 0.06076
1571.19280 0.06085
1569.90705 0.06133
1568.62129 0.06158
1567.33554 0.06118
1566.04978 0.06036
1564.76403 0.05985
1563.47827 0.06040
1562.19252 0.06225
1560.90676 0.06490
1559.62101 0.06736
1558.33525 0.06848
1557.04950 0.06792
1555.76374 0.06641
1554.47799 0.06507
1553.19223 0.06447
1551.90648 0.06448
1550.62072 0.06468
1549.33496 0.06478
1548.04921 0.06476
1546.76345 0.06475
1545.47770 0.06499
1544.19194 0.06567
1542.90619 0.06674
1541.62043 0.06793
1540.33468 0.06855
1539.04892 0.06804
1537.76317 0.06653
1536.47741 0.06481
1535.19166 0.06375
1533.90590 0.06355
1532.62015 0.06375
1531.33439 0.06381
1530.04864 0.06359
1528.76288 0.06334
1527.47713 0.06333
1526.19137 0.06363
1524.90562 0.06423
1523.61986 0.06509
1522.33411 0.06594
1521.04835 0.06641
1519.76260 0.06629
1518.47684 0.06572
1517.19109 0.06512
1515.90533 0.06476
1514.61958 0.06464
1513.33382 0.06473
1512.04807 0.06519
1510.76231 0.06633
1509.47655 0.06828
1508.19080 0.07063
1506.90504 0.07249
1505.61929 0.07305
1504.33353 0.07221
1503.04778 0.07082
1501.76202 0.07004
1500.47627 0.07046
1499.19051 0.07179
1497.90476 0.07323
1496.61900 0.07415
1495.33325 0.07426
1494.04749 0.07386
1492.76174 0.07354
1491.47598 0.07368
1490.19023 0.07422
1488.90447 0.07479
1487.61872 0.07516
1486.33296 0.07533
1485.04721 0.07551
1483.76145 0.07586
1482.47570 0.07640
1481.18994 0.07708
1479.90419 0.07793
1478.61843 0.07904
1477.33268 0.08053
1476.04692 0.08235
1474.76117 0.08424
1473.47541 0.08578
1472.18966 0.08664
1470.90390 0.08685
1469.61814 0.08673
1468.33239 0.08678
1467.04663 0.08721
1465.76088 0.08781
1464.47512 0.08827
1463.18937 0.08858
1461.90361 0.08919
1460.61786 0.09063
1459.33210 0.09299
1458.04635 0.09563
1456.76059 0.09755
1455.47484 0.09820
1454.18908 0.09787
1452.90333 0.09740
1451.61757 0.09744
1450.33182 0.09809
1449.04606 0.09898
1447.76031 0.09962
1446.47455 0.09972
1445.18880 0.09929
1443.90304 0.09850
1442.61729 0.09765
1441.33153 0.09701
1440.04578 0.09677
1438.76002 0.09685
1437.47427 0.09696
1436.18851 0.09678
1434.90276 0.09628
1433.61700 0.09570
1432.33125 0.09546
1431.04549 0.09575
1429.75974 0.09645
1428.47398 0.09731
1427.18822 0.09821
1425.90247 0.09921
1424.61671 0.10044
1423.33096 0.10198
1422.04520 0.10384
1420.75945 0.10583
1419.47369 0.10758
1418.18794 0.10877
1416.90218 0.10933
1415.61643 0.10953
1414.33067 0.10975
1413.04492 0.11012
1411.75916 0.11047
1410.47341 0.11056
1409.18765 0.11028
1407.90190 0.10964
1406.61614 0.10871
1405.33039 0.10752
1404.04463 0.10613
1402.75888 0.10460
1401.47312 0.10297
1400.18737 0.10124
1398.90161 0.09940
1397.61586 0.09742
1396.33010 0.09528
1395.04435 0.09296
1393.75859 0.09050
1392.47284 0.08801
1391.18708 0.08568
1389.90133 0.08363
1388.61557 0.08184
1387.32981 0.08008
1386.04406 0.07817
1384.75830 0.07609
1383.47255 0.07402
1382.18679 0.07209
1380.90104 0.07033
1379.61528 0.06866
1378.32953 0.06703
1377.04377 0.06540
1375.75802 0.06374
1374.47226 0.06202
1373.18651 0.06021
1371.90075 0.05833
1370.61500 0.05649
1369.32924 0.05480
1368.04349 0.05329
1366.75773 0.05196
1365.47198 0.05077
1364.18622 0.04971
1362.90047 0.04869
1361.61471 0.04761
1360.32896 0.04642
1359.04320 0.04519
1357.75745 0.04407
1356.47169 0.04316
1355.18594 0.04245
1353.90018 0.04187
1352.61443 0.04135
1351.32867 0.04084
1350.04292 0.04032
1348.75716 0.03979
1347.47141 0.03925
1346.18565 0.03872
1344.89989 0.03824
1343.61414 0.03783
1342.32838 0.03749
1341.04263 0.03713
1339.75687 0.03669
1338.47112 0.03616
1337.18536 0.03559
1335.89961 0.03506
1334.61385 0.03463
1333.32810 0.03428
1332.04234 0.03399
1330.75659 0.03367
1329.47083 0.03333
1328.18508 0.03300
1326.89932 0.03272
1325.61357 0.03246
1324.32781 0.03219
1323.04206 0.03188
1321.75630 0.03159
1320.47055 0.03132
1319.18479 0.03105
1317.89904 0.03078
1316.61328 0.03049
1315.32753 0.03020
1314.04177 0.02993
1312.75602 0.02968
1311.47026 0.02946
1310.18451 0.02921
1308.89875 0.02892
1307.61300 0.02860
1306.32724 0.02832
1305.04148 0.02813
1303.75573 0.02803
1302.46997 0.02794
1301.18422 0.02781
1299.89846 0.02764
1298.61271 0.02746
1297.32695 0.02732
1296.04120 0.02722
1294.75544 0.02714
1293.46969 0.02705
1292.18393 0.02697
1290.89818 0.02691
1289.61242 0.02688
1288.32667 0.02684
1287.04091 0.02681
1285.75516 0.02686
1284.46940 0.02700
1283.18365 0.02718
1281.89789 0.02735
1280.61214 0.02745
1279.32638 0.02753
1278.04063 0.02765
1276.75487 0.02790
1275.46912 0.02836
1274.18336 0.02909
1272.89761 0.03019
1271.61185 0.03189
1270.32610 0.03446
1269.04034 0.03824
1267.75459 0.04339
1266.46883 0.04975
1265.18307 0.05681
1263.89732 0.06371
1262.61156 0.06943
1261.32581 0.07301
1260.04005 0.07385
1258.75430 0.07191
1257.46854 0.06767
1256.18279 0.06203
1254.89703 0.05594
1253.61128 0.05017
1252.32552 0.04519
1251.03977 0.04116
1249.75401 0.03801
1248.46826 0.03556
1247.18250 0.03363
1245.89675 0.03208
1244.61099 0.03083
1243.32524 0.02987
1242.03948 0.02915
1240.75373 0.02858
1239.46797 0.02807
1238.18222 0.02757
1236.89646 0.02709
1235.61071 0.02664
1234.32495 0.02622
1233.03920 0.02582
1231.75344 0.02542
1230.46769 0.02506
1229.18193 0.02473
1227.89618 0.02442
1226.61042 0.02412
1225.32467 0.02379
1224.03891 0.02345
1222.75315 0.02310
1221.46740 0.02278
1220.18164 0.02253
1218.89589 0.02233
1217.61013 0.02217
1216.32438 0.02197
1215.03862 0.02174
1213.75287 0.02151
1212.46711 0.02134
1211.18136 0.02121
1209.89560 0.02113
1208.60985 0.02107
1207.32409 0.02106
1206.03834 0.02110
1204.75258 0.02113
1203.46683 0.02114
1202.18107 0.02122
1200.89532 0.02128
1199.60956 0.02087
1198.32381 0.02082
1197.03805 0.02075
1195.75230 0.02063
1194.46654 0.02047
1193.18079 0.02032
1191.89503 0.02019
1190.60928 0.02009
1189.32352 0.02000
1188.03777 0.01993
1186.75201 0.01987
1185.46626 0.01982
1184.18050 0.01977
1182.89474 0.01975
1181.60899 0.01977
1180.32323 0.01981
1179.03748 0.01986
1177.75172 0.01994
1176.46597 0.02007
1175.18021 0.02025
1173.89446 0.02044
1172.60870 0.02059
1171.32295 0.02072
1170.03719 0.02086
1168.75144 0.02106
1167.46568 0.02130
1166.17993 0.02156
1164.89417 0.02186
1163.60842 0.02217
1162.32266 0.02248
1161.03691 0.02273
1159.75115 0.02294
1158.46540 0.02312
1157.17964 0.02336
1155.89389 0.02369
1154.60813 0.02407
1153.32238 0.02447
1152.03662 0.02489
1150.75087 0.02536
1149.46511 0.02588
1148.17936 0.02646
1146.89360 0.02707
1145.60785 0.02772
1144.32209 0.02842
1143.03633 0.02918
1141.75058 0.03000
1140.46482 0.03091
1139.17907 0.03196
1137.89331 0.03318
1136.60756 0.03456
1135.32180 0.03606
1134.03605 0.03763
1132.75029 0.03931
1131.46454 0.04114
1130.17878 0.04314
1128.89303 0.04532
1127.60727 0.04765
1126.32152 0.05018
1125.03576 0.05293
1123.75001 0.05590
1122.46425 0.05904
1121.17850 0.06235
1119.89274 0.06582
1118.60699 0.06939
1117.32123 0.07303
1116.03548 0.07672
1114.74972 0.08047
1113.46397 0.08433
1112.17821 0.08825
1110.89246 0.09221
1109.60670 0.09615
1108.32095 0.10005
1107.03519 0.10391
1105.74944 0.10771
1104.46368 0.11148
1103.17793 0.11521
1101.89217 0.11895
1100.60641 0.12267
1099.32066 0.12633
1098.03490 0.12985
1096.74915 0.13318
1095.46339 0.13632
1094.17764 0.13924
1092.89188 0.14193
1091.60613 0.14437
1090.32037 0.14654
1089.03462 0.14845
1087.74886 0.15013
1086.46311 0.15170
1085.17735 0.15326
1083.89160 0.15489
1082.60584 0.15657
1081.32009 0.15831
1080.03433 0.16014
1078.74858 0.16211
1077.46282 0.16430
1076.17707 0.16674
1074.89131 0.16942
1073.60556 0.17229
1072.31980 0.17527
1071.03405 0.17832
1069.74829 0.18142
1068.46254 0.18458
1067.17678 0.18778
1065.89103 0.19104
1064.60527 0.19443
1063.31952 0.19794
1062.03376 0.20151
1060.74800 0.20510
1059.46225 0.20870
1058.17649 0.21230
1056.89074 0.21588
1055.60498 0.21942
1054.31923 0.22291
1053.03347 0.22642
1051.74772 0.22997
1050.46196 0.23353
1049.17621 0.23712
1047.89045 0.24077
1046.60470 0.24454
1045.31894 0.24843
1044.03319 0.25241
1042.74743 0.25639
1041.46168 0.26033
1040.17592 0.26427
1038.89017 0.26831
1037.60441 0.27247
1036.31866 0.27672
1035.03290 0.28094
1033.74715 0.28506
1032.46139 0.28901
1031.17564 0.29277
1029.88988 0.29632
1028.60413 0.29965
1027.31837 0.30276
1026.03262 0.30561
1024.74686 0.30813
1023.46111 0.31028
1022.17535 0.31206
1020.88960 0.31349
1019.60384 0.31455
1018.31808 0.31524
1017.03233 0.31550
1015.74657 0.31529
1014.46082 0.31454
1013.17506 0.31323
1011.88931 0.31138
1010.60355 0.30901
1009.31780 0.30614
1008.03204 0.30276
1006.74629 0.29888
1005.46053 0.29450
1004.17478 0.28966
1002.88902 0.28447
1001.60327 0.27906
1000.31751 0.27352
999.03176 0.26786
997.74600 0.26205
996.46025 0.25604
995.17449 0.24988
993.88874 0.24361
992.60298 0.23728
991.31723 0.23094
990.03147 0.22465
988.74572 0.21845
987.45996 0.21234
986.17421 0.20630
984.88845 0.20028
983.60270 0.19431
982.31694 0.18842
981.03119 0.18273
979.74543 0.17730
978.45967 0.17211
977.17392 0.16711
975.88816 0.16231
974.60241 0.15780
973.31665 0.15373
972.03090 0.15020
970.74514 0.14730
969.45939 0.14511
968.17363 0.14366
966.88788 0.14294
965.60212 0.14284
964.31637 0.14316
963.03061 0.14362
961.74486 0.14388
960.45910 0.14361
959.17335 0.14260
957.88759 0.14081
956.60184 0.13836
955.31608 0.13547
954.03033 0.13233
952.74457 0.12913
951.45882 0.12598
950.17306 0.12292
948.88731 0.11986
947.60155 0.11676
946.31580 0.11368
945.03004 0.11072
943.74429 0.10792
942.45853 0.10524
941.17278 0.10266
939.88702 0.10018
938.60126 0.09781
937.31551 0.09554
936.02975 0.09333
934.74400 0.09123
933.45824 0.08922
932.17249 0.08729
930.88673 0.08543
929.60098 0.08363
928.31522 0.08194
927.02947 0.08039
925.74371 0.07896
924.45796 0.07760
923.17220 0.07627
921.88645 0.07498
920.60069 0.07373
919.31494 0.07253
918.02918 0.07140
916.74343 0.07031
915.45767 0.06924
914.17192 0.06817
912.88616 0.06713
911.60041 0.06619
910.31465 0.06536
909.02890 0.06460
907.74314 0.06390
906.45739 0.06327
905.17163 0.06271
903.88588 0.06212
902.60012 0.06141
901.31437 0.06062
900.02861 0.05989
898.74286 0.05938
897.45710 0.05910
896.17134 0.05892
894.88559 0.05870
893.59983 0.05837
892.31408 0.05797
891.02832 0.05760
889.74257 0.05736
888.45681 0.05733
887.17106 0.05765
885.88530 0.05852
884.59955 0.06016
883.31379 0.06261
882.02804 0.06559
880.74228 0.06857
879.45653 0.07105
878.17077 0.07290
876.88502 0.07437
875.59926 0.07586
874.31351 0.07747
873.02775 0.07893
871.74200 0.07979
870.45624 0.07987
869.17049 0.07924
867.88473 0.07814
866.59898 0.07671
865.31322 0.07509
864.02747 0.07339
862.74171 0.07171
861.45596 0.07006
860.17020 0.06840
858.88445 0.06675
857.59869 0.06516
856.31293 0.06367
855.02718 0.06233
853.74142 0.06114
852.45567 0.06013
851.16991 0.05933
849.88416 0.05876
848.59840 0.05843
847.31265 0.05826
846.02689 0.05815
844.74114 0.05800
843.45538 0.05772
842.16963 0.05726
840.88387 0.05662
839.59812 0.05586
838.31236 0.05509
837.02661 0.05437
835.74085 0.05376
834.45510 0.05334
833.16934 0.05318
831.88359 0.05337
830.59783 0.05401
829.31208 0.05519
828.02632 0.05699
826.74057 0.05935
825.45481 0.06219
824.16906 0.06537
822.88330 0.06872
821.59755 0.07203
820.31179 0.07509
819.02604 0.07781
817.74028 0.08020
816.45452 0.08236
815.16877 0.08437
813.88301 0.08635
812.59726 0.08844
811.31150 0.09080
810.02575 0.09350
808.73999 0.09644
807.45424 0.09950
806.16848 0.10252
804.88273 0.10531
803.59697 0.10769
802.31122 0.10950
801.02546 0.11060
799.73971 0.11101
798.45395 0.11090
797.16820 0.11045
795.88244 0.10970
794.59669 0.10845
793.31093 0.10649
792.02518 0.10384
790.73942 0.10063
789.45367 0.09704
788.16791 0.09319
786.88216 0.08924
785.59640 0.08529
784.31065 0.08140
783.02489 0.07763
781.73914 0.07411
780.45338 0.07096
779.16763 0.06827
777.88187 0.06600
776.59612 0.06407
775.31036 0.06237
774.02460 0.06086
772.73885 0.05956
771.45309 0.05847
770.16734 0.05753
768.88158 0.05664
767.59583 0.05573
766.31007 0.05479
765.02432 0.05392
763.73856 0.05321
762.45281 0.05273
761.16705 0.05241
759.88130 0.05215
758.59554 0.05191
757.30979 0.05173
756.02403 0.05158
754.73828 0.05140
753.45252 0.05111
752.16677 0.05068
750.88101 0.05010
749.59526 0.04941
748.30950 0.04872
747.02375 0.04811
745.73799 0.04760
744.45224 0.04716
743.16648 0.04685
741.88073 0.04683
740.59497 0.04715
739.30922 0.04761
738.02346 0.04792
736.73771 0.04801
735.45195 0.04805
734.16619 0.04813
732.88044 0.04819
731.59468 0.04816
730.30893 0.04803
729.02317 0.04785
727.73742 0.04763
726.45166 0.04741
725.16591 0.04725
723.88015 0.04660
722.59440 0.04700
721.30864 0.04741
720.02289 0.04762
718.73713 0.04784
717.45138 0.04813
716.16562 0.04843
714.87987 0.04864
713.59411 0.04874
712.30836 0.04874
711.02260 0.04867
709.73685 0.04858
708.45109 0.04851
707.16534 0.04845
705.87958 0.04839
704.59383 0.04830
703.30807 0.04813
702.02232 0.04788
700.73656 0.04759
699.45081 0.04732
698.16505 0.04710
696.87930 0.04693
695.59354 0.04680
694.30779 0.04670
693.02203 0.04663
691.73627 0.04658
690.45052 0.04658
689.16476 0.04663
687.87901 0.04671
686.59325 0.04677
685.30750 0.04672
684.02174 0.04649
682.73599 0.04610
681.45023 0.04566
680.16448 0.04530
678.87872 0.04508
677.59297 0.04498
676.30721 0.04493
675.02146 0.04491
673.73570 0.04489
672.44995 0.04486
671.16419 0.04484
669.87844 0.04486
668.59268 0.04493
667.30693 0.04500
666.02117 0.04492
664.73542 0.04476
663.44966 0.04457
662.16391 0.04443
660.87815 0.04430
659.59240 0.04409
658.30664 0.04373
657.02089 0.04328
655.73513 0.04284
654.44938 0.04252
653.16362 0.04232
651.87786 0.04222
650.59211 0.04217
649.30635 0.04216
648.02060 0.04219
646.73484 0.04222
645.44909 0.04223
644.16333 0.04222
642.87758 0.04223
641.59182 0.04230
640.30607 0.04242
639.02031 0.04255
637.73456 0.04267
636.44880 0.04270
635.16305 0.04250
633.87729 0.04179
632.59154 0.04062
631.30578 0.04054
630.02003 0.04288
628.73427 0.04166
627.44852 0.03441
626.16276 0.03101
624.87701 0.03150
623.59125 0.03445
622.30550 0.03952
621.01974 0.04538
619.73399 0.05016
618.44823 0.05320
617.16248 0.05503
615.87672 0.05623
614.59097 0.05737
613.30521 0.05961
612.01945 0.06461
610.73370 0.07337
609.44794 0.08499
608.16219 0.09708
606.87643 0.10749
605.59068 0.11532
604.30492 0.12054
603.01917 0.12330
601.73341 0.12379
600.44766 0.12237
599.16190 0.11958
597.87615 0.11601
596.59039 0.11218
595.30464 0.10838
594.01888 0.10476
592.73313 0.10137
591.44737 0.09834
590.16162 0.09584
588.87586 0.09411
587.59011 0.09328
586.30435 0.09337
585.01860 0.09421
583.73284 0.09556
582.44709 0.09728
581.16133 0.09938
579.87558 0.10190
578.58982 0.10478
577.30407 0.10791
576.01831 0.11115
574.73256 0.11437
573.44680 0.11744
572.16105 0.12034
570.87529 0.12332
569.58953 0.12678
568.30378 0.13100
567.01802 0.13593
565.73227 0.14118
564.44651 0.14612
563.16076 0.15008
561.87500 0.15252
560.58925 0.15314
559.30349 0.15185
558.01774 0.14877
556.73198 0.14425
555.44623 0.13889
554.16047 0.13323
552.87472 0.12759
551.58896 0.12202
550.30321 0.11660
549.01745 0.11149
547.73170 0.10688
546.44594 0.10282
545.16019 0.09916
543.87443 0.09570
542.58868 0.09235
541.30292 0.08918
540.01717 0.08632
538.73141 0.08374
537.44566 0.08135
536.15990 0.07907
534.87415 0.07691
533.58839 0.07490
532.30264 0.07300
531.01688 0.07114
529.73112 0.06932
528.44537 0.06760
527.15961 0.06608
525.87386 0.06475
524.58810 0.06356
523.30235 0.06242
522.01659 0.06126
520.73084 0.06008
519.44508 0.05891
518.15933 0.05778
516.87357 0.05672
515.58782 0.05571
514.30206 0.05474
513.01631 0.05378
511.73055 0.05284
510.44480 0.05196
509.15904 0.05121
507.87329 0.05054
506.58753 0.04988
505.30178 0.04919
504.01602 0.04848
502.73027 0.04785
501.44451 0.04728
500.15876 0.04670
498.87300 0.04607
497.58725 0.04545
496.30149 0.04489
495.01574 0.04438
493.72998 0.04384
492.44423 0.04328
491.15847 0.04277
489.87271 0.04236
488.58696 0.04204
487.30120 0.04180
486.01545 0.04159
484.72969 0.04139
483.44394 0.04121
482.15818 0.04106
480.87243 0.04092
479.58667 0.04078
478.30092 0.04067
477.01516 0.04064
475.72941 0.04074
474.44365 0.04095
473.15790 0.04115
471.87214 0.04122
470.58639 0.04109
469.30063 0.04078
468.01488 0.04035
466.72912 0.03983
465.44337 0.03929
464.15761 0.03875
462.87186 0.03824
461.58610 0.03773
460.30035 0.03721
459.01459 0.03669
457.72884 0.03617
456.44308 0.03567
455.15733 0.03516
453.87157 0.03466
452.58582 0.03418
451.30006 0.03372
450.01431 0.03328
448.72855 0.03285
447.44279 0.03246
446.15704 0.03211
444.87128 0.03179
443.58553 0.03146
442.29977 0.03110
441.01402 0.03075
439.72826 0.03047
438.44251 0.03025
437.15675 0.03005
435.87100 0.02985
434.58524 0.02964
433.29949 0.02942
432.01373 0.02919
430.72798 0.02895
429.44222 0.02869
428.15647 0.02844
426.87071 0.02823
425.58496 0.02806
424.29920 0.02796
423.01345 0.02793
421.72769 0.02795
420.44194 0.02798
419.15618 0.02793
417.87043 0.02778
416.58467 0.02758
415.29892 0.02747
414.01316 0.02756
412.72741 0.02786
411.44165 0.02833
410.15590 0.02890
408.87014 0.02948
407.58438 0.02999
406.29863 0.03038
405.01287 0.03066
403.72712 0.03087
402.44136 0.03107
401.15561 0.03132
399.86985 0.03165
