3997.45528	0.02756
3996.16951	0.02819
3994.88374	0.02909
3993.59798	0.02984
3992.31221	0.03002
3991.02644	0.02981
3989.74067	0.02955
3988.45490	0.02936
3987.16913	0.02918
3985.88336	0.02905
3984.59759	0.02920
3983.31183	0.02969
3982.02606	0.03030
3980.74029	0.03065
3979.45452	0.03046
3978.16875	0.02978
3976.88298	0.02899
3975.59721	0.02856
3974.31144	0.02863
3973.02567	0.02893
3971.73991	0.02913
3970.45414	0.02923
3969.16837	0.02951
3967.88260	0.03019
3966.59683	0.03111
3965.31106	0.03190
3964.02529	0.03223
3962.73952	0.03202
3961.45376	0.03139
3960.16799	0.03062
3958.88222	0.03003
3957.59645	0.02991
3956.31068	0.03016
3955.02491	0.03033
3953.73914	0.03003
3952.45337	0.02930
3951.16760	0.02851
3949.88184	0.02790
3948.59607	0.02744
3947.31030	0.02702
3946.02453	0.02666
3944.73876	0.02646
3943.45299	0.02651
3942.16722	0.02683
3940.88145	0.02740
3939.59569	0.02805
3938.30992	0.02854
3937.02415	0.02871
3935.73838	0.02859
3934.45261	0.02845
3933.16684	0.02849
3931.88107	0.02868
3930.59530	0.02880
3929.30953	0.02871
3928.02377	0.02850
3926.73800	0.02833
3925.45223	0.02830
3924.16646	0.02843
3922.88069	0.02868
3921.59492	0.02887
3920.30915	0.02874
3919.02338	0.02815
3917.73762	0.02731
3916.45185	0.02673
3915.16608	0.02687
3913.88031	0.02776
3912.59454	0.02884
3911.30877	0.02943
3910.02300	0.02929
3908.73723	0.02880
3907.45146	0.02855
3906.16570	0.02875
3904.87993	0.02921
3903.59416	0.02959
3902.30839	0.02976
3901.02262	0.02961
3899.73685	0.02907
3898.45108	0.02818
3897.16531	0.02734
3895.87955	0.02706
3894.59378	0.02741
3893.30801	0.02784
3892.02224	0.02786
3890.73647	0.02750
3889.45070	0.02716
3888.16493	0.02707
3886.87916	0.02706
3885.59339	0.02697
3884.30763	0.02684
3883.02186	0.02682
3881.73609	0.02697
3880.45032	0.02715
3879.16455	0.02718
3877.87878	0.02700
3876.59301	0.02675
3875.30724	0.02664
3874.02148	0.02674
3872.73571	0.02696
3871.44994	0.02722
3870.16417	0.02745
3868.87840	0.02761
3867.59263	0.02761
3866.30686	0.02733
3865.02109	0.02684
3863.73532	0.02641
3862.44956	0.02629
3861.16379	0.02644
3859.87802	0.02661
3858.59225	0.02674
3857.30648	0.02705
3856.02071	0.02774
3854.73494	0.02864
3853.44917	0.02931
3852.16341	0.02941
3850.87764	0.02907
3849.59187	0.02870
3848.30610	0.02852
3847.02033	0.02844
3845.73456	0.02823
3844.44879	0.02788
3843.16302	0.02766
3841.87725	0.02780
3840.59149	0.02814
3839.30572	0.02826
3838.01995	0.02787
3836.73418	0.02702
3835.44841	0.02607
3834.16264	0.02544
3832.87687	0.02540
3831.59110	0.02593
3830.30534	0.02669
3829.01957	0.02724
3827.73380	0.02742
3826.44803	0.02737
3825.16226	0.02730
3823.87649	0.02719
3822.59072	0.02677
3821.30495	0.02595
3820.01918	0.02513
3818.73342	0.02502
3817.44765	0.02586
3816.16188	0.02715
3814.87611	0.02801
3813.59034	0.02802
3812.30457	0.02745
3811.01880	0.02676
3809.73303	0.02619
3808.44726	0.02571
3807.16150	0.02526
3805.87573	0.02493
3804.58996	0.02487
3803.30419	0.02519
3802.01842	0.02589
3800.73265	0.02681
3799.44688	0.02765
3798.16111	0.02818
3796.87535	0.02837
3795.58958	0.02828
3794.30381	0.02800
3793.01804	0.02763
3791.73227	0.02727
3790.44650	0.02700
3789.16073	0.02678
3787.87496	0.02651
3786.58919	0.02616
3785.30343	0.02577
3784.01766	0.02543
3782.73189	0.02515
3781.44612	0.02492
3780.16035	0.02473
3778.87458	0.02460
3777.58881	0.02460
3776.30304	0.02469
3775.01728	0.02485
3773.73151	0.02516
3772.44574	0.02569
3771.15997	0.02629
3769.87420	0.02663
3768.58843	0.02656
3767.30266	0.02624
3766.01689	0.02602
3764.73112	0.02607
3763.44536	0.02631
3762.15959	0.02650
3760.87382	0.02644
3759.58805	0.02611
3758.30228	0.02565
3757.01651	0.02520
3755.73074	0.02495
3754.44497	0.02497
3753.15921	0.02515
3751.87344	0.02530
3750.58767	0.02544
3749.30190	0.02581
3748.01613	0.02645
3746.73036	0.02695
3745.44459	0.02694
3744.15882	0.02652
3742.87305	0.02619
3741.58729	0.02618
3740.30152	0.02625
3739.01575	0.02610
3737.72998	0.02574
3736.44421	0.02539
3735.15844	0.02518
3733.87267	0.02500
3732.58690	0.02467
3731.30114	0.02418
3730.01537	0.02361
3728.72960	0.02317
3727.44383	0.02312
3726.15806	0.02369
3724.87229	0.02473
3723.58652	0.02563
3722.30075	0.02580
3721.01498	0.02518
3719.72922	0.02430
3718.44345	0.02377
3717.15768	0.02375
3715.87191	0.02400
3714.58614	0.02422
3713.30037	0.02425
3712.01460	0.02414
3710.72883	0.02406
3709.44307	0.02422
3708.15730	0.02457
3706.87153	0.02481
3705.58576	0.02468
3704.29999	0.02427
3703.01422	0.02396
3701.72845	0.02405
3700.44268	0.02451
3699.15691	0.02504
3697.87115	0.02527
3696.58538	0.02494
3695.29961	0.02415
3694.01384	0.02330
3692.72807	0.02277
3691.44230	0.02270
3690.15653	0.02299
3688.87076	0.02342
3687.58500	0.02379
3686.29923	0.02398
3685.01346	0.02398
3683.72769	0.02391
3682.44192	0.02396
3681.15615	0.02426
3679.87038	0.02481
3678.58461	0.02545
3677.29884	0.02588
3676.01308	0.02585
3674.72731	0.02530
3673.44154	0.02452
3672.15577	0.02406
3670.87000	0.02433
3669.58423	0.02525
3668.29846	0.02619
3667.01269	0.02660
3665.72693	0.02638
3664.44116	0.02589
3663.15539	0.02558
3661.86962	0.02564
3660.58385	0.02587
3659.29808	0.02600
3658.01231	0.02600
3656.72654	0.02611
3655.44077	0.02643
3654.15501	0.02675
3652.86924	0.02683
3651.58347	0.02672
3650.29770	0.02663
3649.01193	0.02661
3647.72616	0.02651
3646.44039	0.02620
3645.15462	0.02566
3643.86886	0.02502
3642.58309	0.02455
3641.29732	0.02452
3640.01155	0.02503
3638.72578	0.02588
3637.44001	0.02665
3636.15424	0.02691
3634.86847	0.02650
3633.58270	0.02567
3632.29694	0.02493
3631.01117	0.02467
3629.72540	0.02492
3628.43963	0.02542
3627.15386	0.02588
3625.86809	0.02614
3624.58232	0.02625
3623.29655	0.02634
3622.01079	0.02642
3620.72502	0.02639
3619.43925	0.02619
3618.15348	0.02595
3616.86771	0.02589
3615.58194	0.02608
3614.29617	0.02635
3613.01040	0.02648
3611.72463	0.02646
3610.43887	0.02642
3609.15310	0.02656
3607.86733	0.02702
3606.58156	0.02776
3605.29579	0.02850
3604.01002	0.02887
3602.72425	0.02876
3601.43848	0.02842
3600.15272	0.02814
3598.86695	0.02807
3597.58118	0.02810
3596.29541	0.02809
3595.00964	0.02787
3593.72387	0.02742
3592.43810	0.02693
3591.15233	0.02671
3589.86656	0.02690
3588.58080	0.02724
3587.29503	0.02730
3586.00926	0.02694
3584.72349	0.02645
3583.43772	0.02625
3582.15195	0.02648
3580.86618	0.02696
3579.58041	0.02738
3578.29464	0.02764
3577.00888	0.02793
3575.72311	0.02842
3574.43734	0.02912
3573.15157	0.02981
3571.86580	0.03030
3570.58003	0.03062
3569.29426	0.03091
3568.00849	0.03127
3566.72273	0.03163
3565.43696	0.03179
3564.15119	0.03161
3562.86542	0.03108
3561.57965	0.03040
3560.29388	0.02989
3559.00811	0.02978
3557.72234	0.03013
3556.43657	0.03090
3555.15081	0.03188
3553.86504	0.03272
3552.57927	0.03308
3551.29350	0.03294
3550.00773	0.03260
3548.72196	0.03242
3547.43619	0.03247
3546.15042	0.03258
3544.86466	0.03258
3543.57889	0.03247
3542.29312	0.03238
3541.00735	0.03245
3539.72158	0.03271
3538.43581	0.03308
3537.15004	0.03335
3535.86427	0.03333
3534.57850	0.03305
3533.29274	0.03275
3532.00697	0.03265
3530.72120	0.03266
3529.43543	0.03257
3528.14966	0.03235
3526.86389	0.03230
3525.57812	0.03272
3524.29235	0.03359
3523.00659	0.03450
3521.72082	0.03487
3520.43505	0.03447
3519.14928	0.03360
3517.86351	0.03287
3516.57774	0.03274
3515.29197	0.03324
3514.00620	0.03406
3512.72043	0.03475
3511.43467	0.03508
3510.14890	0.03502
3508.86313	0.03470
3507.57736	0.03426
3506.29159	0.03382
3505.00582	0.03353
3503.72005	0.03353
3502.43428	0.03376
3501.14852	0.03402
3499.86275	0.03412
3498.57698	0.03407
3497.29121	0.03403
3496.00544	0.03408
3494.71967	0.03417
3493.43390	0.03427
3492.14813	0.03444
3490.86236	0.03470
3489.57660	0.03498
3488.29083	0.03518
3487.00506	0.03525
3485.71929	0.03527
3484.43352	0.03534
3483.14775	0.03552
3481.86198	0.03577
3480.57621	0.03601
3479.29045	0.03626
3478.00468	0.03662
3476.71891	0.03708
3475.43314	0.03754
3474.14737	0.03784
3472.86160	0.03794
3471.57583	0.03786
3470.29006	0.03770
3469.00429	0.03758
3467.71853	0.03757
3466.43276	0.03757
3465.14699	0.03747
3463.86122	0.03732
3462.57545	0.03723
3461.28968	0.03726
3460.00391	0.03733
3458.71814	0.03738
3457.43238	0.03748
3456.14661	0.03772
3454.86084	0.03804
3453.57507	0.03828
3452.28930	0.03833
3451.00353	0.03826
3449.71776	0.03813
3448.43199	0.03789
3447.14622	0.03751
3445.86046	0.03718
3444.57469	0.03714
3443.28892	0.03744
3442.00315	0.03784
3440.71738	0.03817
3439.43161	0.03845
3438.14584	0.03884
3436.86007	0.03931
3435.57431	0.03965
3434.28854	0.03964
3433.00277	0.03935
3431.71700	0.03905
3430.43123	0.03898
3429.14546	0.03910
3427.85969	0.03925
3426.57392	0.03933
3425.28815	0.03941
3424.00239	0.03952
3422.71662	0.03957
3421.43085	0.03949
3420.14508	0.03936
3418.85931	0.03938
3417.57354	0.03958
3416.28777	0.03987
3415.00200	0.04017
3413.71624	0.04047
3412.43047	0.04077
3411.14470	0.04101
3409.85893	0.04118
3408.57316	0.04131
3407.28739	0.04145
3406.00162	0.04160
3404.71585	0.04166
3403.43008	0.04162
3402.14432	0.04150
3400.85855	0.04133
3399.57278	0.04109
3398.28701	0.04079
3397.00124	0.04054
3395.71547	0.04047
3394.42970	0.04053
3393.14393	0.04055
3391.85817	0.04044
3390.57240	0.04029
3389.28663	0.04035
3388.00086	0.04071
3386.71509	0.04130
3385.42932	0.04189
3384.14355	0.04223
3382.85778	0.04226
3381.57201	0.04210
3380.28625	0.04195
3379.00048	0.04185
3377.71471	0.04174
3376.42894	0.04163
3375.14317	0.04171
3373.85740	0.04212
3372.57163	0.04271
3371.28586	0.04316
3370.00010	0.04320
3368.71433	0.04285
3367.42856	0.04233
3366.14279	0.04189
3364.85702	0.04160
3363.57125	0.04151
3362.28548	0.04163
3360.99971	0.04192
3359.71394	0.04225
3358.42818	0.04240
3357.14241	0.04228
3355.85664	0.04198
3354.57087	0.04175
3353.28510	0.04182
3351.99933	0.04217
3350.71356	0.04253
3349.42779	0.04263
3348.14202	0.04246
3346.85626	0.04221
3345.57049	0.04205
3344.28472	0.04203
3342.99895	0.04221
3341.71318	0.04261
3340.42741	0.04317
3339.14164	0.04368
3337.85587	0.04395
3336.57011	0.04391
3335.28434	0.04364
3333.99857	0.04325
3332.71280	0.04292
3331.42703	0.04283
3330.14126	0.04301
3328.85549	0.04329
3327.56972	0.04342
3326.28395	0.04328
3324.99819	0.04298
3323.71242	0.04277
3322.42665	0.04273
3321.14088	0.04273
3319.85511	0.04263
3318.56934	0.04251
3317.28357	0.04257
3315.99780	0.04292
3314.71204	0.04344
3313.42627	0.04392
3312.14050	0.04419
3310.85473	0.04418
3309.56896	0.04400
3308.28319	0.04379
3306.99742	0.04363
3305.71165	0.04351
3304.42588	0.04342
3303.14012	0.04335
3301.85435	0.04335
3300.56858	0.04348
3299.28281	0.04374
3297.99704	0.04399
3296.71127	0.04407
3295.42550	0.04394
3294.13973	0.04376
3292.85397	0.04367
3291.56820	0.04367
3290.28243	0.04369
3288.99666	0.04373
3287.71089	0.04380
3286.42512	0.04389
3285.13935	0.04387
3283.85358	0.04364
3282.56781	0.04316
3281.28205	0.04259
3279.99628	0.04218
3278.71051	0.04214
3277.42474	0.04243
3276.13897	0.04285
3274.85320	0.04315
3273.56743	0.04321
3272.28166	0.04306
3270.99590	0.04280
3269.71013	0.04257
3268.42436	0.04253
3267.13859	0.04271
3265.85282	0.04304
3264.56705	0.04334
3263.28128	0.04348
3261.99551	0.04348
3260.70974	0.04345
3259.42398	0.04347
3258.13821	0.04356
3256.85244	0.04364
3255.56667	0.04367
3254.28090	0.04360
3252.99513	0.04345
3251.70936	0.04323
3250.42359	0.04297
3249.13783	0.04269
3247.85206	0.04237
3246.56629	0.04207
3245.28052	0.04182
3243.99475	0.04165
3242.70898	0.04148
3241.42321	0.04122
3240.13744	0.04088
3238.85167	0.04060
3237.56591	0.04051
3236.28014	0.04066
3234.99437	0.04096
3233.70860	0.04134
3232.42283	0.04172
3231.13706	0.04200
3229.85129	0.04217
3228.56552	0.04227
3227.27976	0.04229
3225.99399	0.04215
3224.70822	0.04184
3223.42245	0.04151
3222.13668	0.04133
3220.85091	0.04131
3219.56514	0.04127
3218.27937	0.04108
3216.99360	0.04079
3215.70784	0.04056
3214.42207	0.04050
3213.13630	0.04053
3211.85053	0.04052
3210.56476	0.04037
3209.27899	0.04017
3207.99322	0.04005
3206.70745	0.04003
3205.42169	0.04007
3204.13592	0.04010
3202.85015	0.04003
3201.56438	0.03984
3200.27861	0.03960
3198.99284	0.03951
3197.70707	0.03962
3196.42130	0.03980
3195.13553	0.03986
3193.84977	0.03985
3192.56400	0.03992
3191.27823	0.04011
3189.99246	0.04026
3188.70669	0.04016
3187.42092	0.03983
3186.13515	0.03950
3184.84938	0.03938
3183.56362	0.03947
3182.27785	0.03959
3180.99208	0.03957
3179.70631	0.03940
3178.42054	0.03914
3177.13477	0.03881
3175.84900	0.03843
3174.56323	0.03805
3173.27746	0.03783
3171.99170	0.03786
3170.70593	0.03805
3169.42016	0.03828
3168.13439	0.03846
3166.84862	0.03856
3165.56285	0.03858
3164.27708	0.03847
3162.99131	0.03819
3161.70555	0.03782
3160.41978	0.03751
3159.13401	0.03741
3157.84824	0.03753
3156.56247	0.03767
3155.27670	0.03761
3153.99093	0.03730
3152.70516	0.03703
3151.41939	0.03716
3150.13363	0.03770
3148.84786	0.03825
3147.56209	0.03835
3146.27632	0.03789
3144.99055	0.03719
3143.70478	0.03663
3142.41901	0.03631
3141.13324	0.03607
3139.84748	0.03584
3138.56171	0.03571
3137.27594	0.03579
3135.99017	0.03602
3134.70440	0.03626
3133.41863	0.03641
3132.13286	0.03651
3130.84709	0.03663
3129.56132	0.03673
3128.27556	0.03674
3126.98979	0.03658
3125.70402	0.03626
3124.41825	0.03588
3123.13248	0.03564
3121.84671	0.03561
3120.56094	0.03576
3119.27517	0.03590
3117.98940	0.03589
3116.70364	0.03573
3115.41787	0.03550
3114.13210	0.03524
3112.84633	0.03500
3111.56056	0.03488
3110.27479	0.03497
3108.98902	0.03525
3107.70325	0.03553
3106.41749	0.03565
3105.13172	0.03567
3103.84595	0.03571
3102.56018	0.03582
3101.27441	0.03593
3099.98864	0.03600
3098.70287	0.03600
3097.41710	0.03589
3096.13133	0.03564
3094.84557	0.03532
3093.55980	0.03508
3092.27403	0.03502
3090.98826	0.03508
3089.70249	0.03513
3088.41672	0.03511
3087.13095	0.03506
3085.84518	0.03507
3084.55942	0.03515
3083.27365	0.03522
3081.98788	0.03522
3080.70211	0.03520
3079.41634	0.03525
3078.13057	0.03534
3076.84480	0.03534
3075.55903	0.03522
3074.27326	0.03506
3072.98750	0.03501
3071.70173	0.03508
3070.41596	0.03515
3069.13019	0.03508
3067.84442	0.03483
3066.55865	0.03445
3065.27288	0.03408
3063.98711	0.03383
3062.70135	0.03374
3061.41558	0.03371
3060.12981	0.03364
3058.84404	0.03354
3057.55827	0.03351
3056.27250	0.03367
3054.98673	0.03402
3053.70096	0.03445
3052.41519	0.03483
3051.12943	0.03507
3049.84366	0.03512
3048.55789	0.03500
3047.27212	0.03474
3045.98635	0.03435
3044.70058	0.03391
3043.41481	0.03358
3042.12904	0.03347
3040.84328	0.03351
3039.55751	0.03359
3038.27174	0.03362
3036.98597	0.03359
3035.70020	0.03349
3034.41443	0.03327
3033.12866	0.03296
3031.84289	0.03260
3030.55712	0.03230
3029.27136	0.03211
3027.98559	0.03203
3026.69982	0.03202
3025.41405	0.03201
3024.12828	0.03196
3022.84251	0.03181
3021.55674	0.03157
3020.27097	0.03126
3018.98521	0.03097
3017.69944	0.03082
3016.41367	0.03089
3015.12790	0.03112
3013.84213	0.03140
3012.55636	0.03154
3011.27059	0.03148
3009.98482	0.03121
3008.69905	0.03087
3007.41329	0.03066
3006.12752	0.03069
3004.84175	0.03086
3003.55598	0.03099
3002.27021	0.03103
3000.98444	0.03108
2999.69867	0.03131
2998.41290	0.03175
2997.12714	0.03217
2995.84137	0.03237
2994.55560	0.03229
2993.26983	0.03205
2991.98406	0.03181
2990.69829	0.03172
2989.41252	0.03175
2988.12675	0.03177
2986.84098	0.03168
2985.55522	0.03151
2984.26945	0.03138
2982.98368	0.03138
2981.69791	0.03148
2980.41214	0.03166
2979.12637	0.03195
2977.84060	0.03232
2976.55483	0.03268
2975.26907	0.03299
2973.98330	0.03326
2972.69753	0.03343
2971.41176	0.03338
2970.12599	0.03306
2968.84022	0.03267
2967.55445	0.03245
2966.26868	0.03250
2964.98291	0.03278
2963.69715	0.03319
2962.41138	0.03363
2961.12561	0.03394
2959.83984	0.03393
2958.55407	0.03357
2957.26830	0.03310
2955.98253	0.03281
2954.69676	0.03279
2953.41100	0.03293
2952.12523	0.03303
2950.83946	0.03304
2949.55369	0.03301
2948.26792	0.03308
2946.98215	0.03330
2945.69638	0.03365
2944.41061	0.03403
2943.12484	0.03438
2941.83908	0.03465
2940.55331	0.03479
2939.26754	0.03476
2937.98177	0.03457
2936.69600	0.03429
2935.41023	0.03408
2934.12446	0.03407
2932.83869	0.03431
2931.55293	0.03468
2930.26716	0.03496
2928.98139	0.03506
2927.69562	0.03508
2926.40985	0.03514
2925.12408	0.03521
2923.83831	0.03518
2922.55254	0.03499
2921.26677	0.03472
2919.98101	0.03445
2918.69524	0.03423
2917.40947	0.03404
2916.12370	0.03389
2914.83793	0.03382
2913.55216	0.03385
2912.26639	0.03384
2910.98062	0.03364
2909.69486	0.03323
2908.40909	0.03281
2907.12332	0.03258
2905.83755	0.03261
2904.55178	0.03270
2903.26601	0.03267
2901.98024	0.03245
2900.69447	0.03215
2899.40870	0.03187
2898.12294	0.03161
2896.83717	0.03128
2895.55140	0.03095
2894.26563	0.03079
2892.97986	0.03092
2891.69409	0.03119
2890.40832	0.03129
2889.12255	0.03114
2887.83678	0.03101
2886.55102	0.03109
2885.26525	0.03126
2883.97948	0.03126
2882.69371	0.03103
2881.40794	0.03079
2880.12217	0.03068
2878.83640	0.03070
2877.55063	0.03080
2876.26487	0.03098
2874.97910	0.03125
2873.69333	0.03151
2872.40756	0.03164
2871.12179	0.03157
2869.83602	0.03135
2868.55025	0.03112
2867.26448	0.03094
2865.97871	0.03082
2864.69295	0.03071
2863.40718	0.03059
2862.12141	0.03051
2860.83564	0.03054
2859.54987	0.03063
2858.26410	0.03065
2856.97833	0.03048
2855.69256	0.03017
2854.40680	0.02991
2853.12103	0.02982
2851.83526	0.02990
2850.54949	0.03005
2849.26372	0.03014
2847.97795	0.03006
2846.69218	0.02974
2845.40641	0.02924
2844.12064	0.02874
2842.83488	0.02846
2841.54911	0.02845
2840.26334	0.02857
2838.97757	0.02866
2837.69180	0.02867
2836.40603	0.02863
2835.12026	0.02853
2833.83449	0.02831
2832.54873	0.02803
2831.26296	0.02778
2829.97719	0.02759
2828.69142	0.02742
2827.40565	0.02724
2826.11988	0.02708
2824.83411	0.02698
2823.54834	0.02694
2822.26257	0.02697
2820.97681	0.02710
2819.69104	0.02722
2818.40527	0.02719
2817.11950	0.02694
2815.83373	0.02658
2814.54796	0.02631
2813.26219	0.02624
2811.97642	0.02636
2810.69066	0.02648
2809.40489	0.02640
2808.11912	0.02607
2806.83335	0.02569
2805.54758	0.02549
2804.26181	0.02555
2802.97604	0.02573
2801.69027	0.02588
2800.40450	0.02591
2799.11874	0.02576
2797.83297	0.02543
2796.54720	0.02506
2795.26143	0.02482
2793.97566	0.02473
2792.68989	0.02473
2791.40412	0.02478
2790.11835	0.02494
2788.83259	0.02520
2787.54682	0.02548
2786.26105	0.02568
2784.97528	0.02571
2783.68951	0.02561
2782.40374	0.02547
2781.11797	0.02535
2779.83220	0.02532
2778.54643	0.02537
2777.26067	0.02548
2775.97490	0.02562
2774.68913	0.02569
2773.40336	0.02565
2772.11759	0.02551
2770.83182	0.02536
2769.54605	0.02524
2768.26028	0.02514
2766.97452	0.02501
2765.68875	0.02484
2764.40298	0.02468
2763.11721	0.02461
2761.83144	0.02464
2760.54567	0.02476
2759.25990	0.02488
2757.97413	0.02493
2756.68836	0.02489
2755.40260	0.02478
2754.11683	0.02462
2752.83106	0.02443
2751.54529	0.02425
2750.25952	0.02414
2748.97375	0.02412
2747.68798	0.02416
2746.40221	0.02421
2745.11645	0.02422
2743.83068	0.02417
2742.54491	0.02407
2741.25914	0.02399
2739.97337	0.02398
2738.68760	0.02405
2737.40183	0.02410
2736.11606	0.02402
2734.83029	0.02382
2733.54453	0.02365
2732.25876	0.02359
2730.97299	0.02366
2729.68722	0.02380
2728.40145	0.02395
2727.11568	0.02403
2725.82991	0.02396
2724.54414	0.02378
2723.25838	0.02360
2721.97261	0.02351
2720.68684	0.02352
2719.40107	0.02362
2718.11530	0.02380
2716.82953	0.02397
2715.54376	0.02402
2714.25799	0.02390
2712.97222	0.02368
2711.68646	0.02346
2710.40069	0.02331
2709.11492	0.02324
2707.82915	0.02321
2706.54338	0.02313
2705.25761	0.02300
2703.97184	0.02287
2702.68607	0.02280
2701.40031	0.02280
2700.11454	0.02286
2698.82877	0.02299
2697.54300	0.02315
2696.25723	0.02330
2694.97146	0.02338
2693.68569	0.02341
2692.39992	0.02345
2691.11415	0.02352
2689.82839	0.02358
2688.54262	0.02350
2687.25685	0.02327
2685.97108	0.02297
2684.68531	0.02270
2683.39954	0.02252
2682.11377	0.02245
2680.82800	0.02249
2679.54224	0.02264
2678.25647	0.02282
2676.97070	0.02291
2675.68493	0.02283
2674.39916	0.02267
2673.11339	0.02252
2671.82762	0.02246
2670.54185	0.02244
2669.25608	0.02243
2667.97032	0.02246
2666.68455	0.02257
2665.39878	0.02272
2664.11301	0.02280
2662.82724	0.02275
2661.54147	0.02262
2660.25570	0.02247
2658.96993	0.02235
2657.68417	0.02226
2656.39840	0.02220
2655.11263	0.02220
2653.82686	0.02225
2652.54109	0.02230
2651.25532	0.02236
2649.96955	0.02246
2648.68378	0.02259
2647.39801	0.02262
2646.11225	0.02242
2644.82648	0.02205
2643.54071	0.02172
2642.25494	0.02160
2640.96917	0.02165
2639.68340	0.02174
2638.39763	0.02182
2637.11186	0.02187
2635.82609	0.02189
2634.54033	0.02186
2633.25456	0.02174
2631.96879	0.02151
2630.68302	0.02121
2629.39725	0.02089
2628.11148	0.02062
2626.82571	0.02038
2625.53994	0.02018
2624.25418	0.02008
2622.96841	0.02015
2621.68264	0.02040
2620.39687	0.02072
2619.11110	0.02091
2617.82533	0.02083
2616.53956	0.02051
2615.25379	0.02013
2613.96802	0.01983
2612.68226	0.01969
2611.39649	0.01971
2610.11072	0.01986
2608.82495	0.02003
2607.53918	0.02015
2606.25341	0.02017
2604.96764	0.02006
2603.68187	0.01984
2602.39611	0.01960
2601.11034	0.01950
2599.82457	0.01959
2598.53880	0.01974
2597.25303	0.01983
2595.96726	0.01983
2594.68149	0.01983
2593.39572	0.01988
2592.10995	0.01994
2590.82419	0.01993
2589.53842	0.01977
2588.25265	0.01948
2586.96688	0.01916
2585.68111	0.01897
2584.39534	0.01905
2583.10957	0.01939
2581.82380	0.01983
2580.53804	0.02013
2579.25227	0.02012
2577.96650	0.01979
2576.68073	0.01928
2575.39496	0.01874
2574.10919	0.01835
2572.82342	0.01819
2571.53765	0.01817
2570.25188	0.01817
2568.96612	0.01818
2567.68035	0.01827
2566.39458	0.01846
2565.10881	0.01862
2563.82304	0.01863
2562.53727	0.01844
2561.25150	0.01815
2559.96573	0.01790
2558.67997	0.01784
2557.39420	0.01795
2556.10843	0.01800
2554.82266	0.01786
2553.53689	0.01769
2552.25112	0.01783
2550.96535	0.01831
2549.67958	0.01878
2548.39381	0.01889
2547.10805	0.01858
2545.82228	0.01814
2544.53651	0.01782
2543.25074	0.01772
2541.96497	0.01774
2540.67920	0.01774
2539.39343	0.01771
2538.10766	0.01768
2536.82190	0.01767
2535.53613	0.01770
2534.25036	0.01781
2532.96459	0.01800
2531.67882	0.01809
2530.39305	0.01788
2529.10728	0.01745
2527.82151	0.01710
2526.53574	0.01703
2525.24998	0.01722
2523.96421	0.01758
2522.67844	0.01802
2521.39267	0.01839
2520.10690	0.01847
2518.82113	0.01823
2517.53536	0.01782
2516.24959	0.01741
2514.96383	0.01703
2513.67806	0.01664
2512.39229	0.01632
2511.10652	0.01622
2509.82075	0.01637
2508.53498	0.01672
2507.24921	0.01713
2505.96344	0.01745
2504.67767	0.01750
2503.39191	0.01721
2502.10614	0.01674
2500.82037	0.01639
2499.53460	0.01638
2498.24883	0.01671
2496.96306	0.01717
2495.67729	0.01756
2494.39152	0.01771
2493.10576	0.01759
2491.81999	0.01731
2490.53422	0.01702
2489.24845	0.01688
2487.96268	0.01693
2486.67691	0.01714
2485.39114	0.01734
2484.10537	0.01736
2482.81960	0.01716
2481.53384	0.01686
2480.24807	0.01662
2478.96230	0.01654
2477.67653	0.01662
2476.39076	0.01688
2475.10499	0.01728
2473.81922	0.01774
2472.53345	0.01807
2471.24769	0.01807
2469.96192	0.01768
2468.67615	0.01712
2467.39038	0.01671
2466.10461	0.01668
2464.81884	0.01695
2463.53307	0.01734
2462.24730	0.01764
2460.96153	0.01770
2459.67577	0.01746
2458.39000	0.01697
2457.10423	0.01636
2455.81846	0.01578
2454.53269	0.01537
2453.24692	0.01522
2451.96115	0.01537
2450.67538	0.01567
2449.38962	0.01595
2448.10385	0.01613
2446.81808	0.01625
2445.53231	0.01635
2444.24654	0.01649
2442.96077	0.01668
2441.67500	0.01683
2440.38923	0.01679
2439.10346	0.01658
2437.81770	0.01639
2436.53193	0.01642
2435.24616	0.01664
2433.96039	0.01687
2432.67462	0.01689
2431.38885	0.01664
2430.10308	0.01619
2428.81731	0.01571
2427.53155	0.01546
2426.24578	0.01554
2424.96001	0.01575
2423.67424	0.01584
2422.38847	0.01590
2421.10270	0.01618
2419.81693	0.01670
2418.53116	0.01708
2417.24539	0.01701
2415.95963	0.01662
2414.67386	0.01631
2413.38809	0.01627
2412.10232	0.01635
2410.81655	0.01629
2409.53078	0.01602
2408.24501	0.01573
2406.95924	0.01565
2405.67347	0.01580
2404.38771	0.01603
2403.10194	0.01620
2401.81617	0.01635
2400.53040	0.01651
2399.24463	0.01660
2397.95886	0.01665
2396.67309	0.01665
2395.38732	0.01662
2394.10156	0.01655
2392.81579	0.01643
2391.53002	0.01628
2390.24425	0.01618
2388.95848	0.01612
2387.67271	0.01606
2386.38694	0.01596
2385.10117	0.01579
2383.81540	0.01556
2382.52964	0.01535
2381.24387	0.01529
2379.95810	0.01545
2378.67233	0.01578
2377.38656	0.01609
2376.10079	0.01620
2374.81502	0.01605
2373.52925	0.01578
2372.24349	0.01556
2370.95772	0.01548
2369.67195	0.01551
2368.38618	0.01559
2367.10041	0.01570
2365.81464	0.01581
2364.52887	0.01587
2363.24310	0.01582
2361.95733	0.01566
2360.67157	0.01547
2359.38580	0.01541
2358.10003	0.01552
2356.81426	0.01572
2355.52849	0.01588
2354.24272	0.01593
2352.95695	0.01585
2351.67118	0.01571
2350.38542	0.01564
2349.09965	0.01572
2347.81388	0.01589
2346.52811	0.01600
2345.24234	0.01601
2343.95657	0.01608
2342.67080	0.01617
2341.38503	0.01607
2340.09926	0.01581
2338.81350	0.01576
2337.52773	0.01601
2336.24196	0.01616
2334.95619	0.01610
2333.67042	0.01604
2332.38465	0.01596
2331.09888	0.01568
2329.81311	0.01561
2328.52735	0.01606
2327.24158	0.01653
2325.95581	0.01688
2324.67004	0.01724
2323.38427	0.01732
2322.09850	0.01711
2320.81273	0.01698
2319.52696	0.01676
2318.24119	0.01649
2316.95543	0.01637
2315.66966	0.01627
2314.38389	0.01619
2313.09812	0.01612
2311.81235	0.01589
2310.52658	0.01558
2309.24081	0.01530
2307.95504	0.01516
2306.66928	0.01523
2305.38351	0.01535
2304.09774	0.01535
2302.81197	0.01519
2301.52620	0.01498
2300.24043	0.01494
2298.95466	0.01512
2297.66889	0.01540
2296.38312	0.01557
2295.09736	0.01555
2293.81159	0.01542
2292.52582	0.01524
2291.24005	0.01505
2289.95428	0.01495
2288.66851	0.01503
2287.38274	0.01525
2286.09697	0.01545
2284.81121	0.01552
2283.52544	0.01547
2282.23967	0.01543
2280.95390	0.01543
2279.66813	0.01529
2278.38236	0.01481
2277.09659	0.01399
2275.81082	0.01319
2274.52505	0.01278
2273.23929	0.01285
2271.95352	0.01315
2270.66775	0.01329
2269.38198	0.01311
2268.09621	0.01272
2266.81044	0.01239
2265.52467	0.01230
2264.23890	0.01241
2262.95314	0.01256
2261.66737	0.01261
2260.38160	0.01254
2259.09583	0.01237
2257.81006	0.01210
2256.52429	0.01178
2255.23852	0.01146
2253.95275	0.01122
2252.66698	0.01102
2251.38122	0.01073
2250.09545	0.01039
2248.80968	0.01027
2247.52391	0.01054
2246.23814	0.01128
2244.95237	0.01198
2243.66660	0.01219
2242.38083	0.01187
2241.09507	0.01129
2239.80930	0.01066
2238.52353	0.01013
2237.23776	0.00991
2235.95199	0.01026
2234.66622	0.01117
2233.38045	0.01222
2232.09468	0.01289
2230.80891	0.01307
2229.52315	0.01301
2228.23738	0.01287
2226.95161	0.01258
2225.66584	0.01201
2224.38007	0.01131
2223.09430	0.01082
2221.80853	0.01082
2220.52276	0.01129
2219.23700	0.01195
2217.95123	0.01246
2216.66546	0.01268
2215.37969	0.01265
2214.09392	0.01251
2212.80815	0.01234
2211.52238	0.01214
2210.23661	0.01190
2208.95084	0.01163
2207.66508	0.01133
2206.37931	0.01098
2205.09354	0.01053
2203.80777	0.00998
2202.52200	0.00946
2201.23623	0.00919
2199.95046	0.00926
2198.66469	0.00942
2197.37893	0.00933
2196.09316	0.00891
2194.80739	0.00851
2193.52162	0.00862
2192.23585	0.00928
2190.95008	0.01000
2189.66431	0.01029
2188.37854	0.01020
2187.09277	0.01007
2185.80701	0.00999
2184.52124	0.00972
2183.23547	0.00903
2181.94970	0.00802
2180.66393	0.00699
2179.37816	0.00617
2178.09239	0.00569
2176.80662	0.00570
2175.52085	0.00628
2174.23509	0.00720
2172.94932	0.00791
2171.66355	0.00793
2170.37778	0.00727
2169.09201	0.00650
2167.80624	0.00633
2166.52047	0.00700
2165.23470	0.00814
2163.94894	0.00904
2162.66317	0.00924
2161.37740	0.00874
2160.09163	0.00777
2158.80586	0.00665
2157.52009	0.00599
2156.23432	0.00624
2154.94855	0.00719
2153.66278	0.00809
2152.37702	0.00845
2151.09125	0.00842
2149.80548	0.00841
2148.51971	0.00852
2147.23394	0.00848
2145.94817	0.00811
2144.66240	0.00758
2143.37663	0.00719
2142.09087	0.00706
2140.80510	0.00704
2139.51933	0.00705
2138.23356	0.00733
2136.94779	0.00820
2135.66202	0.00943
2134.37625	0.01036
2133.09048	0.01053
2131.80471	0.01011
2130.51895	0.00960
2129.23318	0.00936
2127.94741	0.00953
2126.66164	0.01013
2125.37587	0.01098
2124.09010	0.01163
2122.80433	0.01165
2121.51856	0.01099
2120.23280	0.01008
2118.94703	0.00941
2117.66126	0.00913
2116.37549	0.00908
2115.08972	0.00900
2113.80395	0.00882
2112.51818	0.00867
2111.23241	0.00874
2109.94664	0.00915
2108.66088	0.00979
2107.37511	0.01034
2106.08934	0.01053
2104.80357	0.01025
2103.51780	0.00965
2102.23203	0.00905
2100.94626	0.00880
2099.66049	0.00886
2098.37473	0.00920
2097.08896	0.00942
2095.80319	0.00931
2094.51742	0.00905
2093.23165	0.00896
2091.94588	0.00901
2090.66011	0.00892
2089.37434	0.00861
2088.08857	0.00838
2086.80281	0.00864
2085.51704	0.00933
2084.23127	0.00987
2082.94550	0.00979
2081.65973	0.00924
2080.37396	0.00870
2079.08819	0.00850
2077.80242	0.00854
2076.51666	0.00863
2075.23089	0.00872
2073.94512	0.00883
2072.65935	0.00880
2071.37358	0.00836
2070.08781	0.00744
2068.80204	0.00630
2067.51627	0.00537
2066.23050	0.00510
2064.94474	0.00563
2063.65897	0.00672
2062.37320	0.00775
2061.08743	0.00819
2059.80166	0.00793
2058.51589	0.00738
2057.23012	0.00699
2055.94435	0.00689
2054.65859	0.00677
2053.37282	0.00620
2052.08705	0.00510
2050.80128	0.00387
2049.51551	0.00305
2048.22974	0.00284
2046.94397	0.00297
2045.65820	0.00318
2044.37243	0.00358
2043.08667	0.00448
2041.80090	0.00577
2040.51513	0.00682
2039.22936	0.00708
2037.94359	0.00653
2036.65782	0.00556
2035.37205	0.00462
2034.08628	0.00407
2032.80052	0.00414
2031.51475	0.00472
2030.22898	0.00544
2028.94321	0.00586
2027.65744	0.00581
2026.37167	0.00534
2025.08590	0.00460
2023.80013	0.00382
2022.51436	0.00330
2021.22860	0.00326
2019.94283	0.00365
2018.65706	0.00411
2017.37129	0.00432
2016.08552	0.00423
2014.79975	0.00403
2013.51398	0.00389
2012.22821	0.00379
2010.94245	0.00356
2009.65668	0.00310
2008.37091	0.00253
2007.08514	0.00211
2005.79937	0.00213
2004.51360	0.00264
2003.22783	0.00347
2001.94206	0.00437
2000.65629	0.00523
1999.37053	0.00600
1998.08476	0.00672
1996.79899	0.00744
1995.51322	0.00807
1994.22745	0.00834
1992.94168	0.00802
1991.65591	0.00730
1990.37014	0.00667
1989.08438	0.00645
1987.79861	0.00654
1986.51284	0.00660
1985.22707	0.00647
1983.94130	0.00628
1982.65553	0.00622
1981.36976	0.00631
1980.08399	0.00632
1978.79822	0.00595
1977.51246	0.00516
1976.22669	0.00446
1974.94092	0.00455
1973.65515	0.00562
1972.36938	0.00701
1971.08361	0.00783
1969.79784	0.00773
1968.51207	0.00700
1967.22631	0.00606
1965.94054	0.00508
1964.65477	0.00408
1963.36900	0.00327
1962.08323	0.00298
1960.79746	0.00351
1959.51169	0.00477
1958.22592	0.00631
1956.94015	0.00755
1955.65439	0.00814
1954.36862	0.00817
1953.08285	0.00798
1951.79708	0.00790
1950.51131	0.00799
1949.22554	0.00806
1947.93977	0.00800
1946.65400	0.00796
1945.36823	0.00816
1944.08247	0.00855
1942.79670	0.00883
1941.51093	0.00878
1940.22516	0.00849
1938.93939	0.00819
1937.65362	0.00804
1936.36785	0.00803
1935.08208	0.00804
1933.79632	0.00797
1932.51055	0.00777
1931.22478	0.00749
1929.93901	0.00727
1928.65324	0.00721
1927.36747	0.00730
1926.08170	0.00750
1924.79593	0.00779
1923.51016	0.00823
1922.22440	0.00879
1920.93863	0.00930
1919.65286	0.00958
1918.36709	0.00959
1917.08132	0.00940
1915.79555	0.00913
1914.50978	0.00894
1913.22401	0.00896
1911.93825	0.00914
1910.65248	0.00927
1909.36671	0.00920
1908.08094	0.00894
1906.79517	0.00872
1905.50940	0.00868
1904.22363	0.00879
1902.93786	0.00893
1901.65209	0.00901
1900.36633	0.00898
1899.08056	0.00887
1897.79479	0.00872
1896.50902	0.00857
1895.22325	0.00840
1893.93748	0.00825
1892.65171	0.00819
1891.36594	0.00830
1890.08018	0.00853
1888.79441	0.00866
1887.50864	0.00856
1886.22287	0.00832
1884.93710	0.00816
1883.65133	0.00824
1882.36556	0.00843
1881.07979	0.00855
1879.79402	0.00855
1878.50826	0.00858
1877.22249	0.00870
1875.93672	0.00885
1874.65095	0.00886
1873.36518	0.00873
1872.07941	0.00855
1870.79364	0.00844
1869.50787	0.00846
1868.22211	0.00860
1866.93634	0.00882
1865.65057	0.00906
1864.36480	0.00924
1863.07903	0.00929
1861.79326	0.00918
1860.50749	0.00898
1859.22172	0.00887
1857.93595	0.00893
1856.65019	0.00906
1855.36442	0.00914
1854.07865	0.00913
1852.79288	0.00911
1851.50711	0.00922
1850.22134	0.00943
1848.93557	0.00958
1847.64980	0.00957
1846.36404	0.00943
1845.07827	0.00927
1843.79250	0.00921
1842.50673	0.00922
1841.22096	0.00924
1839.93519	0.00920
1838.64942	0.00911
1837.36365	0.00896
1836.07788	0.00877
1834.79212	0.00858
1833.50635	0.00848
1832.22058	0.00856
1830.93481	0.00881
1829.64904	0.00911
1828.36327	0.00933
1827.07750	0.00942
1825.79173	0.00944
1824.50597	0.00944
1823.22020	0.00943
1821.93443	0.00934
1820.64866	0.00916
1819.36289	0.00896
1818.07712	0.00884
1816.79135	0.00886
1815.50558	0.00899
1814.21981	0.00913
1812.93405	0.00920
1811.64828	0.00921
1810.36251	0.00919
1809.07674	0.00920
1807.79097	0.00925
1806.50520	0.00933
1805.21943	0.00940
1803.93366	0.00945
1802.64790	0.00949
1801.36213	0.00953
1800.07636	0.00955
1798.79059	0.00956
1797.50482	0.00958
1796.21905	0.00961
1794.93328	0.00966
1793.64751	0.00970
1792.36174	0.00972
1791.07598	0.00971
1789.79021	0.00968
1788.50444	0.00963
1787.21867	0.00953
1785.93290	0.00938
1784.64713	0.00921
1783.36136	0.00909
1782.07559	0.00910
1780.78983	0.00920
1779.50406	0.00932
1778.21829	0.00942
1776.93252	0.00949
1775.64675	0.00955
1774.36098	0.00959
1773.07521	0.00960
1771.78944	0.00960
1770.50367	0.00959
1769.21791	0.00956
1767.93214	0.00952
1766.64637	0.00946
1765.36060	0.00940
1764.07483	0.00937
1762.78906	0.00941
1761.50329	0.00949
1760.21752	0.00957
1758.93176	0.00961
1757.64599	0.00961
1756.36022	0.00961
1755.07445	0.00963
1753.78868	0.00966
1752.50291	0.00965
1751.21714	0.00953
1749.93137	0.00933
1748.64560	0.00917
1747.35984	0.00912
1746.07407	0.00919
1744.78830	0.00930
1743.50253	0.00940
1742.21676	0.00950
1740.93099	0.00962
1739.64522	0.00978
1738.35945	0.00993
1737.07369	0.00998
1735.78792	0.00995
1734.50215	0.00987
1733.21638	0.00984
1731.93061	0.00987
1730.64484	0.00993
1729.35907	0.00997
1728.07330	0.00998
1726.78753	0.00998
1725.50177	0.01001
1724.21600	0.01003
1722.93023	0.01002
1721.64446	0.01001
1720.35869	0.01004
1719.07292	0.01016
1717.78715	0.01036
1716.50138	0.01057
1715.21561	0.01075
1713.92985	0.01091
1712.64408	0.01110
1711.35831	0.01135
1710.07254	0.01164
1708.78677	0.01193
1707.50100	0.01222
1706.21523	0.01255
1704.92946	0.01295
1703.64370	0.01340
1702.35793	0.01384
1701.07216	0.01431
1699.78639	0.01484
1698.50062	0.01546
1697.21485	0.01616
1695.92908	0.01687
1694.64331	0.01756
1693.35754	0.01824
1692.07178	0.01893
1690.78601	0.01964
1689.50024	0.02036
1688.21447	0.02103
1686.92870	0.02162
1685.64293	0.02212
1684.35716	0.02262
1683.07139	0.02319
1681.78563	0.02387
1680.49986	0.02463
1679.21409	0.02543
1677.92832	0.02622
1676.64255	0.02696
1675.35678	0.02764
1674.07101	0.02827
1672.78524	0.02887
1671.49947	0.02953
1670.21371	0.03025
1668.92794	0.03100
1667.64217	0.03169
1666.35640	0.03227
1665.07063	0.03276
1663.78486	0.03324
1662.49909	0.03377
1661.21332	0.03436
1659.92756	0.03496
1658.64179	0.03547
1657.35602	0.03586
1656.07025	0.03618
1654.78448	0.03651
1653.49871	0.03692
1652.21294	0.03738
1650.92717	0.03780
1649.64140	0.03812
1648.35564	0.03835
1647.06987	0.03851
1645.78410	0.03865
1644.49833	0.03879
1643.21256	0.03893
1641.92679	0.03905
1640.64102	0.03912
1639.35525	0.03909
1638.06949	0.03896
1636.78372	0.03876
1635.49795	0.03852
1634.21218	0.03825
1632.92641	0.03794
1631.64064	0.03756
1630.35487	0.03710
1629.06910	0.03658
1627.78333	0.03602
1626.49757	0.03543
1625.21180	0.03482
1623.92603	0.03422
1622.64026	0.03368
1621.35449	0.03321
1620.06872	0.03276
1618.78295	0.03227
1617.49718	0.03171
1616.21142	0.03111
1614.92565	0.03052
1613.63988	0.02996
1612.35411	0.02942
1611.06834	0.02889
1609.78257	0.02838
1608.49680	0.02793
1607.21103	0.02754
1605.92526	0.02718
1604.63950	0.02684
1603.35373	0.02654
1602.06796	0.02629
1600.78219	0.02609
1599.49642	0.02591
1598.21065	0.02574
1596.92488	0.02561
1595.63911	0.02554
1594.35335	0.02553
1593.06758	0.02556
1591.78181	0.02559
1590.49604	0.02562
1589.21027	0.02567
1587.92450	0.02574
1586.63873	0.02584
1585.35296	0.02597
1584.06719	0.02611
1582.78143	0.02626
1581.49566	0.02641
1580.20989	0.02655
1578.92412	0.02668
1577.63835	0.02684
1576.35258	0.02710
1575.06681	0.02745
1573.78104	0.02782
1572.49528	0.02814
1571.20951	0.02837
1569.92374	0.02853
1568.63797	0.02868
1567.35220	0.02889
1566.06643	0.02918
1564.78066	0.02952
1563.49489	0.02985
1562.20912	0.03011
1560.92336	0.03029
1559.63759	0.03047
1558.35182	0.03071
1557.06605	0.03100
1555.78028	0.03131
1554.49451	0.03158
1553.20874	0.03179
1551.92297	0.03196
1550.63721	0.03211
1549.35144	0.03226
1548.06567	0.03240
1546.77990	0.03255
1545.49413	0.03268
1544.20836	0.03278
1542.92259	0.03283
1541.63682	0.03284
1540.35105	0.03285
1539.06529	0.03291
1537.77952	0.03298
1536.49375	0.03302
1535.20798	0.03303
1533.92221	0.03303
1532.63644	0.03306
1531.35067	0.03312
1530.06490	0.03318
1528.77914	0.03324
1527.49337	0.03326
1526.20760	0.03326
1524.92183	0.03326
1523.63606	0.03329
1522.35029	0.03340
1521.06452	0.03357
1519.77875	0.03375
1518.49298	0.03393
1517.20722	0.03408
1515.92145	0.03422
1514.63568	0.03437
1513.34991	0.03454
1512.06414	0.03473
1510.77837	0.03493
1509.49260	0.03513
1508.20683	0.03530
1506.92107	0.03544
1505.63530	0.03561
1504.34953	0.03580
1503.06376	0.03603
1501.77799	0.03625
1500.49222	0.03644
1499.20645	0.03657
1497.92068	0.03665
1496.63491	0.03671
1495.34915	0.03677
1494.06338	0.03684
1492.77761	0.03689
1491.49184	0.03695
1490.20607	0.03704
1488.92030	0.03723
1487.63453	0.03752
1486.34876	0.03786
1485.06299	0.03819
1483.77723	0.03852
1482.49146	0.03887
1481.20569	0.03928
1479.91992	0.03973
1478.63415	0.04019
1477.34838	0.04060
1476.06261	0.04098
1474.77684	0.04138
1473.49108	0.04187
1472.20531	0.04242
1470.91954	0.04296
1469.63377	0.04340
1468.34800	0.04369
1467.06223	0.04390
1465.77646	0.04411
1464.49069	0.04439
1463.20492	0.04473
1461.91916	0.04510
1460.63339	0.04547
1459.34762	0.04585
1458.06185	0.04629
1456.77608	0.04679
1455.49031	0.04730
1454.20454	0.04774
1452.91877	0.04806
1451.63301	0.04827
1450.34724	0.04840
1449.06147	0.04846
1447.77570	0.04846
1446.48993	0.04839
1445.20416	0.04826
1443.91839	0.04812
1442.63262	0.04799
1441.34685	0.04789
1440.06109	0.04780
1438.77532	0.04768
1437.48955	0.04757
1436.20378	0.04750
1434.91801	0.04752
1433.63224	0.04763
1432.34647	0.04782
1431.06070	0.04805
1429.77494	0.04833
1428.48917	0.04868
1427.20340	0.04911
1425.91763	0.04959
1424.63186	0.05009
1423.34609	0.05059
1422.06032	0.05107
1420.77455	0.05152
1419.48878	0.05192
1418.20302	0.05227
1416.91725	0.05259
1415.63148	0.05288
1414.34571	0.05316
1413.05994	0.05339
1411.77417	0.05354
1410.48840	0.05361
1409.20263	0.05361
1407.91687	0.05350
1406.63110	0.05328
1405.34533	0.05291
1404.05956	0.05242
1402.77379	0.05184
1401.48802	0.05121
1400.20225	0.05051
1398.91648	0.04976
1397.63071	0.04898
1396.34495	0.04820
1395.05918	0.04743
1393.77341	0.04668
1392.48764	0.04596
1391.20187	0.04523
1389.91610	0.04445
1388.63033	0.04362
1387.34456	0.04273
1386.05880	0.04184
1384.77303	0.04095
1383.48726	0.04010
1382.20149	0.03926
1380.91572	0.03841
1379.62995	0.03754
1378.34418	0.03667
1377.05841	0.03580
1375.77264	0.03493
1374.48688	0.03407
1373.20111	0.03323
1371.91534	0.03242
1370.62957	0.03165
1369.34380	0.03090
1368.05803	0.03018
1366.77226	0.02945
1365.48649	0.02872
1364.20073	0.02804
1362.91496	0.02741
1361.62919	0.02684
1360.34342	0.02630
1359.05765	0.02580
1357.77188	0.02534
1356.48611	0.02494
1355.20034	0.02457
1353.91457	0.02424
1352.62881	0.02397
1351.34304	0.02375
1350.05727	0.02353
1348.77150	0.02329
1347.48573	0.02303
1346.19996	0.02276
1344.91419	0.02253
1343.62842	0.02237
1342.34266	0.02228
1341.05689	0.02224
1339.77112	0.02218
1338.48535	0.02209
1337.19958	0.02198
1335.91381	0.02185
1334.62804	0.02170
1333.34227	0.02151
1332.05650	0.02127
1330.77074	0.02101
1329.48497	0.02077
1328.19920	0.02056
1326.91343	0.02038
1325.62766	0.02022
1324.34189	0.02006
1323.05612	0.01992
1321.77035	0.01979
1320.48459	0.01966
1319.19882	0.01953
1317.91305	0.01939
1316.62728	0.01924
1315.34151	0.01909
1314.05574	0.01894
1312.76997	0.01878
1311.48420	0.01860
1310.19843	0.01841
1308.91267	0.01822
1307.62690	0.01803
1306.34113	0.01786
1305.05536	0.01771
1303.76959	0.01757
1302.48382	0.01743
1301.19805	0.01727
1299.91228	0.01714
1298.62652	0.01708
1297.34075	0.01707
1296.05498	0.01704
1294.76921	0.01694
1293.48344	0.01678
1292.19767	0.01662
1290.91190	0.01647
1289.62613	0.01635
1288.34036	0.01627
1287.05460	0.01623
1285.76883	0.01622
1284.48306	0.01624
1283.19729	0.01626
1281.91152	0.01630
1280.62575	0.01633
1279.33998	0.01634
1278.05421	0.01633
1276.76845	0.01630
1275.48268	0.01625
1274.19691	0.01615
1272.91114	0.01603
1271.62537	0.01591
1270.33960	0.01583
1269.05383	0.01577
1267.76806	0.01572
1266.48229	0.01567
1265.19653	0.01564
1263.91076	0.01566
1262.62499	0.01572
1261.33922	0.01579
1260.05345	0.01584
1258.76768	0.01585
1257.48191	0.01582
1256.19614	0.01576
1254.91037	0.01572
1253.62461	0.01571
1252.33884	0.01571
1251.05307	0.01569
1249.76730	0.01567
1248.48153	0.01566
1247.19576	0.01566
1245.90999	0.01566
1244.62422	0.01566
1243.33846	0.01566
1242.05269	0.01564
1240.76692	0.01561
1239.48115	0.01557
1238.19538	0.01554
1236.90961	0.01553
1235.62384	0.01550
1234.33807	0.01544
1233.05230	0.01534
1231.76654	0.01521
1230.48077	0.01507
1229.19500	0.01488
1227.90923	0.01464
1226.62346	0.01436
1225.33769	0.01408
1224.05192	0.01387
1222.76615	0.01373
1221.48039	0.01363
1220.19462	0.01354
1218.90885	0.01341
1217.62308	0.01328
1216.33731	0.01317
1215.05154	0.01307
1213.76577	0.01296
1212.48000	0.01281
1211.19423	0.01264
1209.90847	0.01250
1208.62270	0.01239
1207.33693	0.01232
1206.05116	0.01230
1204.76539	0.01232
1203.47962	0.01236
1202.19385	0.01238
1200.90808	0.01237
1199.62232	0.01234
1198.33655	0.01228
1197.05078	0.01221
1195.76501	0.01214
1194.47924	0.01205
1193.19347	0.01192
1191.90770	0.01174
1190.62193	0.01154
1189.33616	0.01136
1188.05040	0.01123
1186.76463	0.01117
1185.47886	0.01116
1184.19309	0.01117
1182.90732	0.01116
1181.62155	0.01112
1180.33578	0.01106
1179.05001	0.01103
1177.76425	0.01102
1176.47848	0.01104
1175.19271	0.01105
1173.90694	0.01105
1172.62117	0.01105
1171.33540	0.01105
1170.04963	0.01107
1168.76386	0.01110
1167.47809	0.01114
1166.19233	0.01117
1164.90656	0.01119
1163.62079	0.01117
1162.33502	0.01114
1161.04925	0.01118
1159.76348	0.01129
1158.47771	0.01142
1157.19194	0.01147
1155.90618	0.01144
1154.62041	0.01144
1153.33464	0.01154
1152.04887	0.01171
1150.76310	0.01188
1149.47733	0.01203
1148.19156	0.01221
1146.90579	0.01246
1145.62002	0.01275
1144.33426	0.01304
1143.04849	0.01332
1141.76272	0.01361
1140.47695	0.01395
1139.19118	0.01437
1137.90541	0.01489
1136.61964	0.01549
1135.33387	0.01616
1134.04811	0.01688
1132.76234	0.01765
1131.47657	0.01853
1130.19080	0.01958
1128.90503	0.02078
1127.61926	0.02205
1126.33349	0.02338
1125.04772	0.02478
1123.76195	0.02626
1122.47619	0.02786
1121.19042	0.02954
1119.90465	0.03128
1118.61888	0.03304
1117.33311	0.03480
1116.04734	0.03655
1114.76157	0.03832
1113.47580	0.04010
1112.19004	0.04187
1110.90427	0.04363
1109.61850	0.04532
1108.33273	0.04691
1107.04696	0.04840
1105.76119	0.04983
1104.47542	0.05125
1103.18965	0.05267
1101.90388	0.05406
1100.61812	0.05540
1099.33235	0.05667
1098.04658	0.05787
1096.76081	0.05904
1095.47504	0.06019
1094.18927	0.06132
1092.90350	0.06237
1091.61773	0.06333
1090.33197	0.06426
1089.04620	0.06518
1087.76043	0.06609
1086.47466	0.06697
1085.18889	0.06782
1083.90312	0.06872
1082.61735	0.06971
1081.33158	0.07080
1080.04581	0.07197
1078.76005	0.07320
1077.47428	0.07449
1076.18851	0.07584
1074.90274	0.07723
1073.61697	0.07863
1072.33120	0.08004
1071.04543	0.08145
1069.75966	0.08289
1068.47390	0.08438
1067.18813	0.08597
1065.90236	0.08764
1064.61659	0.08939
1063.33082	0.09116
1062.04505	0.09293
1060.75928	0.09462
1059.47351	0.09624
1058.18774	0.09782
1056.90198	0.09943
1055.61621	0.10111
1054.33044	0.10279
1053.04467	0.10438
1051.75890	0.10586
1050.47313	0.10730
1049.18736	0.10875
1047.90159	0.11029
1046.61583	0.11190
1045.33006	0.11357
1044.04429	0.11523
1042.75852	0.11684
1041.47275	0.11838
1040.18698	0.11986
1038.90121	0.12131
1037.61544	0.12274
1036.32967	0.12418
1035.04391	0.12564
1033.75814	0.12712
1032.47237	0.12854
1031.18660	0.12982
1029.90083	0.13090
1028.61506	0.13181
1027.32929	0.13256
1026.04352	0.13317
1024.75775	0.13361
1023.47199	0.13385
1022.18622	0.13392
1020.90045	0.13382
1019.61468	0.13356
1018.32891	0.13313
1017.04314	0.13246
1015.75737	0.13155
1014.47160	0.13038
1013.18584	0.12896
1011.90007	0.12729
1010.61430	0.12542
1009.32853	0.12344
1008.04276	0.12138
1006.75699	0.11922
1005.47122	0.11688
1004.18545	0.11432
1002.89968	0.11161
1001.61392	0.10886
1000.32815	0.10611
999.04238	0.10338
997.75661	0.10064
996.47084	0.09788
995.18507	0.09508
993.89930	0.09223
992.61353	0.08937
991.32777	0.08653
990.04200	0.08374
988.75623	0.08101
987.47046	0.07839
986.18469	0.07591
984.89892	0.07364
983.61315	0.07153
982.32738	0.06948
981.04161	0.06740
979.75585	0.06528
978.47008	0.06319
977.18431	0.06125
975.89854	0.05956
974.61277	0.05814
973.32700	0.05693
972.04123	0.05588
970.75546	0.05500
969.46970	0.05433
968.18393	0.05393
966.89816	0.05382
965.61239	0.05396
964.32662	0.05429
963.04085	0.05471
961.75508	0.05508
960.46931	0.05522
959.18354	0.05500
957.89778	0.05442
956.61201	0.05359
955.32624	0.05261
954.04047	0.05156
952.75470	0.05045
951.46893	0.04934
950.18316	0.04827
948.89739	0.04727
947.61163	0.04634
946.32586	0.04543
945.04009	0.04448
943.75432	0.04348
942.46855	0.04246
941.18278	0.04146
939.89701	0.04050
938.61124	0.03961
937.32547	0.03881
936.03971	0.03808
934.75394	0.03746
933.46817	0.03691
932.18240	0.03642
930.89663	0.03590
929.61086	0.03531
928.32509	0.03466
927.03932	0.03404
925.75356	0.03354
924.46779	0.03315
923.18202	0.03278
921.89625	0.03239
920.61048	0.03196
919.32471	0.03155
918.03894	0.03119
916.75317	0.03090
915.46740	0.03067
914.18164	0.03043
912.89587	0.03013
911.61010	0.02970
910.32433	0.02920
909.03856	0.02873
907.75279	0.02837
906.46702	0.02810
905.18125	0.02783
903.89549	0.02754
902.60972	0.02726
901.32395	0.02701
900.03818	0.02678
898.75241	0.02658
897.46664	0.02641
896.18087	0.02628
894.89510	0.02615
893.60933	0.02601
892.32357	0.02586
891.03780	0.02569
889.75203	0.02550
888.46626	0.02541
887.18049	0.02555
885.89472	0.02605
884.60895	0.02693
883.32318	0.02809
882.03742	0.02937
880.75165	0.03055
879.46588	0.03150
878.18011	0.03224
876.89434	0.03295
875.60857	0.03379
874.32280	0.03471
873.03703	0.03549
871.75126	0.03592
870.46550	0.03598
869.17973	0.03573
867.89396	0.03521
866.60819	0.03441
865.32242	0.03341
864.03665	0.03235
862.75088	0.03133
861.46511	0.03041
860.17935	0.02958
858.89358	0.02878
857.60781	0.02798
856.32204	0.02722
855.03627	0.02659
853.75050	0.02615
852.46473	0.02589
851.17896	0.02573
849.89319	0.02560
848.60743	0.02546
847.32166	0.02528
846.03589	0.02507
844.75012	0.02484
843.46435	0.02459
842.17858	0.02428
840.89281	0.02394
839.60704	0.02367
838.32128	0.02353
837.03551	0.02347
835.74974	0.02341
834.46397	0.02329
833.17820	0.02314
831.89243	0.02300
830.60666	0.02289
829.32089	0.02277
828.03512	0.02262
826.74936	0.02247
825.46359	0.02236
824.17782	0.02235
822.89205	0.02239
821.60628	0.02243
820.32051	0.02242
819.03474	0.02238
817.74897	0.02234
816.46321	0.02226
815.17744	0.02215
813.89167	0.02206
812.60590	0.02205
811.32013	0.02212
810.03436	0.02221
808.74859	0.02224
807.46282	0.02212
806.17705	0.02191
804.89129	0.02172
803.60552	0.02164
802.31975	0.02167
801.03398	0.02173
799.74821	0.02176
798.46244	0.02181
797.17667	0.02189
795.89090	0.02198
794.60513	0.02204
793.31937	0.02203
792.03360	0.02200
790.74783	0.02198
789.46206	0.02201
788.17629	0.02206
786.89052	0.02208
785.60475	0.02204
784.31898	0.02192
783.03322	0.02175
781.74745	0.02157
780.46168	0.02141
779.17591	0.02130
777.89014	0.02127
776.60437	0.02132
775.31860	0.02138
774.03283	0.02140
772.74706	0.02141
771.46130	0.02145
770.17553	0.02152
768.88976	0.02159
767.60399	0.02163
766.31822	0.02168
765.03245	0.02174
763.74668	0.02181
762.46091	0.02183
761.17515	0.02175
759.88938	0.02161
758.60361	0.02146
757.31784	0.02135
756.03207	0.02129
754.74630	0.02127
753.46053	0.02132
752.17476	0.02147
750.88899	0.02165
749.60323	0.02179
748.31746	0.02183
747.03169	0.02181
745.74592	0.02180
744.46015	0.02183
743.17438	0.02188
741.88861	0.02196
740.60284	0.02203
739.31708	0.02201
738.03131	0.02183
736.74554	0.02153
735.45977	0.02133
734.17400	0.02138
732.88823	0.02169
731.60246	0.02205
730.31669	0.02229
729.03092	0.02232
727.74516	0.02219
726.45939	0.02200
725.17362	0.02187
723.88785	0.02183
722.60208	0.02196
721.31631	0.02221
720.03054	0.02247
718.74477	0.02266
717.45901	0.02273
716.17324	0.02267
714.88747	0.02256
713.60170	0.02248
712.31593	0.02245
711.03016	0.02246
709.74439	0.02249
708.45862	0.02251
707.17285	0.02251
705.88709	0.02251
704.60132	0.02252
703.31555	0.02254
702.02978	0.02259
700.74401	0.02263
699.45824	0.02262
698.17247	0.02258
696.88670	0.02253
695.60094	0.02251
694.31517	0.02247
693.02940	0.02240
691.74363	0.02232
690.45786	0.02228
689.17209	0.02231
687.88632	0.02237
686.60055	0.02239
685.31478	0.02231
684.02902	0.02216
682.74325	0.02201
681.45748	0.02192
680.17171	0.02194
678.88594	0.02204
677.60017	0.02216
676.31440	0.02225
675.02863	0.02228
673.74287	0.02226
672.45710	0.02223
671.17133	0.02221
669.88556	0.02221
668.59979	0.02224
667.31402	0.02226
666.02825	0.02224
664.74248	0.02221
663.45671	0.02213
662.17095	0.02202
660.88518	0.02188
659.59941	0.02173
658.31364	0.02159
657.02787	0.02146
655.74210	0.02134
654.45633	0.02123
653.17056	0.02113
651.88480	0.02106
650.59903	0.02104
649.31326	0.02112
648.02749	0.02125
646.74172	0.02133
645.45595	0.02130
644.17018	0.02116
642.88441	0.02099
641.59864	0.02086
640.31288	0.02077
639.02711	0.02075
637.74134	0.02080
636.45557	0.02091
635.16980	0.02107
633.88403	0.02125
632.59826	0.02144
631.31249	0.02159
630.02673	0.02154
628.74096	0.02134
627.45519	0.02137
626.16942	0.02080
624.88365	0.01982
623.59788	0.01923
622.31211	0.01989
621.02634	0.02206
619.74057	0.02495
618.45481	0.02765
617.16904	0.03002
615.88327	0.03226
614.59750	0.03417
613.31173	0.03527
612.02596	0.03570
610.74019	0.03651
609.45442	0.03875
608.16866	0.04235
606.88289	0.04630
605.59712	0.04969
604.31135	0.05220
603.02558	0.05395
601.73981	0.05510
600.45404	0.05561
599.16827	0.05536
597.88250	0.05436
596.59674	0.05285
595.31097	0.05117
594.02520	0.04962
592.73943	0.04843
591.45366	0.04771
590.16789	0.04746
588.88212	0.04756
587.59635	0.04790
586.31059	0.04845
585.02482	0.04927
583.73905	0.05038
582.45328	0.05172
581.16751	0.05317
579.88174	0.05462
578.59597	0.05604
577.31020	0.05744
576.02443	0.05887
574.73867	0.06035
573.45290	0.06182
572.16713	0.06320
570.88136	0.06452
569.59559	0.06590
568.30982	0.06749
567.02405	0.06934
565.73828	0.07132
564.45251	0.07310
563.16675	0.07433
561.88098	0.07483
560.59521	0.07457
559.30944	0.07353
558.02367	0.07170
556.73790	0.06913
555.45213	0.06610
554.16636	0.06297
552.88060	0.05997
551.59483	0.05720
550.30906	0.05466
549.02329	0.05236
547.73752	0.05033
546.45175	0.04855
545.16598	0.04694
543.88021	0.04543
542.59444	0.04396
541.30868	0.04253
540.02291	0.04113
538.73714	0.03981
537.45137	0.03861
536.16560	0.03761
534.87983	0.03679
533.59406	0.03605
532.30829	0.03532
531.02253	0.03462
529.73676	0.03399
528.45099	0.03342
527.16522	0.03287
525.87945	0.03225
524.59368	0.03155
523.30791	0.03082
522.02214	0.03016
520.73637	0.02960
519.45061	0.02912
518.16484	0.02865
516.87907	0.02818
515.59330	0.02777
514.30753	0.02744
513.02176	0.02712
511.73599	0.02676
510.45022	0.02631
509.16446	0.02585
507.87869	0.02546
506.59292	0.02514
505.30715	0.02487
504.02138	0.02461
502.73561	0.02434
501.44984	0.02404
500.16407	0.02372
498.87830	0.02342
497.59254	0.02321
496.30677	0.02303
495.02100	0.02280
493.73523	0.02247
492.44946	0.02211
491.16369	0.02186
489.87792	0.02177
488.59215	0.02177
487.30639	0.02176
486.02062	0.02168
484.73485	0.02152
483.44908	0.02134
482.16331	0.02121
480.87754	0.02114
479.59177	0.02112
478.30600	0.02111
477.02023	0.02116
475.73447	0.02129
474.44870	0.02148
473.16293	0.02166
471.87716	0.02177
470.59139	0.02176
469.30562	0.02164
468.01985	0.02148
466.73408	0.02130
465.44832	0.02115
464.16255	0.02101
462.87678	0.02084
461.59101	0.02061
460.30524	0.02035
459.01947	0.02010
457.73370	0.01989
456.44793	0.01970
455.16216	0.01951
453.87640	0.01929
452.59063	0.01907
451.30486	0.01886
450.01909	0.01870
448.73332	0.01857
447.44755	0.01847
446.16178	0.01836
444.87601	0.01821
443.59025	0.01803
442.30448	0.01787
441.01871	0.01779
439.73294	0.01777
438.44717	0.01774
437.16140	0.01764
435.87563	0.01747
434.58986	0.01729
433.30409	0.01715
432.01833	0.01705
430.73256	0.01695
429.44679	0.01686
428.16102	0.01677
426.87525	0.01669
425.58948	0.01661
424.30371	0.01654
423.01794	0.01644
421.73218	0.01630
420.44641	0.01615
419.16064	0.01599
417.87487	0.01585
416.58910	0.01571
415.30333	0.01556
414.01756	0.01543
412.73179	0.01534
411.44602	0.01529
410.16026	0.01527
408.87449	0.01525
407.58872	0.01523
406.30295	0.01522
405.01718	0.01520
403.73141	0.01515
402.44564	0.01508
401.15987	0.01503
399.87411	0.01501
