3997.45528	0.03261
3996.16951	0.03262
3994.88374	0.03204
3993.59798	0.03106
3992.31221	0.03026
3991.02644	0.03004
3989.74067	0.03032
3988.45490	0.03082
3987.16913	0.03130
3985.88336	0.03172
3984.59759	0.03210
3983.31183	0.03246
3982.02606	0.03278
3980.74029	0.03303
3979.45452	0.03326
3978.16875	0.03354
3976.88298	0.03388
3975.59721	0.03416
3974.31144	0.03428
3973.02567	0.03421
3971.73991	0.03405
3970.45414	0.03384
3969.16837	0.03360
3967.88260	0.03339
3966.59683	0.03331
3965.31106	0.03337
3964.02529	0.03340
3962.73952	0.03324
3961.45376	0.03300
3960.16799	0.03299
3958.88222	0.03343
3957.59645	0.03419
3956.31068	0.03499
3955.02491	0.03561
3953.73914	0.03605
3952.45337	0.03633
3951.16760	0.03642
3949.88184	0.03628
3948.59607	0.03587
3947.31030	0.03514
3946.02453	0.03408
3944.73876	0.03298
3943.45299	0.03236
3942.16722	0.03256
3940.88145	0.03332
3939.59569	0.03410
3938.30992	0.03456
3937.02415	0.03470
3935.73838	0.03457
3934.45261	0.03417
3933.16684	0.03350
3931.88107	0.03273
3930.59530	0.03212
3929.30953	0.03195
3928.02377	0.03238
3926.73800	0.03321
3925.45223	0.03404
3924.16646	0.03461
3922.88069	0.03490
3921.59492	0.03492
3920.30915	0.03456
3919.02338	0.03379
3917.73762	0.03291
3916.45185	0.03245
3915.16608	0.03266
3913.88031	0.03330
3912.59454	0.03393
3911.30877	0.03428
3910.02300	0.03432
3908.73723	0.03410
3907.45146	0.03364
3906.16570	0.03297
3904.87993	0.03229
3903.59416	0.03195
3902.30839	0.03204
3901.02262	0.03235
3899.73685	0.03253
3898.45108	0.03248
3897.16531	0.03229
3895.87955	0.03220
3894.59378	0.03229
3893.30801	0.03248
3892.02224	0.03272
3890.73647	0.03309
3889.45070	0.03335
3888.16493	0.03308
3886.87916	0.03242
3885.59339	0.03220
3884.30763	0.03283
3883.02186	0.03375
3881.73609	0.03422
3880.45032	0.03415
3879.16455	0.03384
3877.87878	0.03349
3876.59301	0.03330
3875.30724	0.03350
3874.02148	0.03402
3872.73571	0.03426
3871.44994	0.03385
3870.16417	0.03323
3868.87840	0.03301
3867.59263	0.03306
3866.30686	0.03295
3865.02109	0.03255
3863.73532	0.03192
3862.44956	0.03107
3861.16379	0.03031
3859.87802	0.03019
3858.59225	0.03092
3857.30648	0.03195
3856.02071	0.03257
3854.73494	0.03278
3853.44917	0.03328
3852.16341	0.03436
3850.87764	0.03541
3849.59187	0.03588
3848.30610	0.03579
3847.02033	0.03540
3845.73456	0.03487
3844.44879	0.03433
3843.16302	0.03387
3841.87725	0.03337
3840.59149	0.03257
3839.30572	0.03164
3838.01995	0.03123
3836.73418	0.03178
3835.44841	0.03287
3834.16264	0.03365
3832.87687	0.03376
3831.59110	0.03345
3830.30534	0.03307
3829.01957	0.03276
3827.73380	0.03252
3826.44803	0.03243
3825.16226	0.03249
3823.87649	0.03249
3822.59072	0.03246
3821.30495	0.03278
3820.01918	0.03338
3818.73342	0.03354
3817.44765	0.03302
3816.16188	0.03266
3814.87611	0.03302
3813.59034	0.03341
3812.30457	0.03296
3811.01880	0.03182
3809.73303	0.03067
3808.44726	0.03002
3807.16150	0.03018
3805.87573	0.03100
3804.58996	0.03161
3803.30419	0.03138
3802.01842	0.03088
3800.73265	0.03121
3799.44688	0.03242
3798.16111	0.03356
3796.87535	0.03406
3795.58958	0.03395
3794.30381	0.03342
3793.01804	0.03262
3791.73227	0.03183
3790.44650	0.03127
3789.16073	0.03098
3787.87496	0.03088
3786.58919	0.03102
3785.30343	0.03147
3784.01766	0.03213
3782.73189	0.03268
3781.44612	0.03281
3780.16035	0.03258
3778.87458	0.03229
3777.58881	0.03213
3776.30304	0.03206
3775.01728	0.03201
3773.73151	0.03194
3772.44574	0.03180
3771.15997	0.03166
3769.87420	0.03177
3768.58843	0.03214
3767.30266	0.03251
3766.01689	0.03266
3764.73112	0.03253
3763.44536	0.03212
3762.15959	0.03147
3760.87382	0.03088
3759.58805	0.03064
3758.30228	0.03077
3757.01651	0.03105
3755.73074	0.03126
3754.44497	0.03123
3753.15921	0.03114
3751.87344	0.03133
3750.58767	0.03191
3749.30190	0.03261
3748.01613	0.03299
3746.73036	0.03266
3745.44459	0.03194
3744.15882	0.03169
3742.87305	0.03195
3741.58729	0.03197
3740.30152	0.03164
3739.01575	0.03147
3737.72998	0.03155
3736.44421	0.03150
3735.15844	0.03113
3733.87267	0.03073
3732.58690	0.03075
3731.30114	0.03138
3730.01537	0.03217
3728.72960	0.03233
3727.44383	0.03178
3726.15806	0.03101
3724.87229	0.03041
3723.58652	0.02999
3722.30075	0.02956
3721.01498	0.02912
3719.72922	0.02893
3718.44345	0.02914
3717.15768	0.02971
3715.87191	0.03036
3714.58614	0.03086
3713.30037	0.03120
3712.01460	0.03128
3710.72883	0.03111
3709.44307	0.03083
3708.15730	0.03039
3706.87153	0.02991
3705.58576	0.02953
3704.29999	0.02930
3703.01422	0.02927
3701.72845	0.02926
3700.44268	0.02911
3699.15691	0.02882
3697.87115	0.02865
3696.58538	0.02886
3695.29961	0.02940
3694.01384	0.03005
3692.72807	0.03059
3691.44230	0.03106
3690.15653	0.03142
3688.87076	0.03147
3687.58500	0.03126
3686.29923	0.03088
3685.01346	0.03037
3683.72769	0.03007
3682.44192	0.03034
3681.15615	0.03110
3679.87038	0.03184
3678.58461	0.03197
3677.29884	0.03141
3676.01308	0.03099
3674.72731	0.03144
3673.44154	0.03217
3672.15577	0.03221
3670.87000	0.03169
3669.58423	0.03151
3668.29846	0.03178
3667.01269	0.03190
3665.72693	0.03168
3664.44116	0.03145
3663.15539	0.03150
3661.86962	0.03180
3660.58385	0.03222
3659.29808	0.03263
3658.01231	0.03296
3656.72654	0.03329
3655.44077	0.03376
3654.15501	0.03422
3652.86924	0.03430
3651.58347	0.03399
3650.29770	0.03378
3649.01193	0.03401
3647.72616	0.03453
3646.44039	0.03491
3645.15462	0.03493
3643.86886	0.03462
3642.58309	0.03423
3641.29732	0.03400
3640.01155	0.03414
3638.72578	0.03469
3637.44001	0.03546
3636.15424	0.03611
3634.86847	0.03647
3633.58270	0.03667
3632.29694	0.03680
3631.01117	0.03673
3629.72540	0.03645
3628.43963	0.03630
3627.15386	0.03646
3625.86809	0.03673
3624.58232	0.03695
3623.29655	0.03741
3622.01079	0.03821
3620.72502	0.03927
3619.43925	0.04032
3618.15348	0.04106
3616.86771	0.04130
3615.58194	0.04113
3614.29617	0.04102
3613.01040	0.04133
3611.72463	0.04176
3610.43887	0.04166
3609.15310	0.04103
3607.86733	0.04057
3606.58156	0.04080
3605.29579	0.04148
3604.01002	0.04216
3602.72425	0.04278
3601.43848	0.04340
3600.15272	0.04401
3598.86695	0.04454
3597.58118	0.04492
3596.29541	0.04502
3595.00964	0.04508
3593.72387	0.04535
3592.43810	0.04572
3591.15233	0.04608
3589.86656	0.04626
3588.58080	0.04619
3587.29503	0.04615
3586.00926	0.04611
3584.72349	0.04585
3583.43772	0.04549
3582.15195	0.04546
3580.86618	0.04598
3579.58041	0.04681
3578.29464	0.04756
3577.00888	0.04815
3575.72311	0.04869
3574.43734	0.04919
3573.15157	0.04955
3571.86580	0.04971
3570.58003	0.04975
3569.29426	0.04986
3568.00849	0.05022
3566.72273	0.05091
3565.43696	0.05186
3564.15119	0.05290
3562.86542	0.05387
3561.57965	0.05466
3560.29388	0.05515
3559.00811	0.05526
3557.72234	0.05498
3556.43657	0.05438
3555.15081	0.05367
3553.86504	0.05316
3552.57927	0.05303
3551.29350	0.05327
3550.00773	0.05371
3548.72196	0.05426
3547.43619	0.05486
3546.15042	0.05538
3544.86466	0.05559
3543.57889	0.05539
3542.29312	0.05500
3541.00735	0.05473
3539.72158	0.05480
3538.43581	0.05523
3537.15004	0.05590
3535.86427	0.05659
3534.57850	0.05700
3533.29274	0.05697
3532.00697	0.05667
3530.72120	0.05651
3529.43543	0.05679
3528.14966	0.05742
3526.86389	0.05803
3525.57812	0.05838
3524.29235	0.05857
3523.00659	0.05884
3521.72082	0.05916
3520.43505	0.05922
3519.14928	0.05888
3517.86351	0.05844
3516.57774	0.05844
3515.29197	0.05904
3514.00620	0.05998
3512.72043	0.06078
3511.43467	0.06125
3510.14890	0.06156
3508.86313	0.06193
3507.57736	0.06232
3506.29159	0.06256
3505.00582	0.06255
3503.72005	0.06248
3502.43428	0.06261
3501.14852	0.06305
3499.86275	0.06369
3498.57698	0.06427
3497.29121	0.06466
3496.00544	0.06495
3494.71967	0.06528
3493.43390	0.06556
3492.14813	0.06557
3490.86236	0.06523
3489.57660	0.06474
3488.29083	0.06441
3487.00506	0.06448
3485.71929	0.06500
3484.43352	0.06586
3483.14775	0.06676
3481.86198	0.06742
3480.57621	0.06768
3479.29045	0.06765
3478.00468	0.06749
3476.71891	0.06733
3475.43314	0.06728
3474.14737	0.06740
3472.86160	0.06760
3471.57583	0.06768
3470.29006	0.06761
3469.00429	0.06752
3467.71853	0.06762
3466.43276	0.06791
3465.14699	0.06831
3463.86122	0.06879
3462.57545	0.06932
3461.28968	0.06969
3460.00391	0.06969
3458.71814	0.06944
3457.43238	0.06935
3456.14661	0.06966
3454.86084	0.07017
3453.57507	0.07054
3452.28930	0.07075
3451.00353	0.07099
3449.71776	0.07123
3448.43199	0.07116
3447.14622	0.07064
3445.86046	0.06997
3444.57469	0.06965
3443.28892	0.06994
3442.00315	0.07073
3440.71738	0.07170
3439.43161	0.07246
3438.14584	0.07277
3436.86007	0.07264
3435.57431	0.07236
3434.28854	0.07228
3433.00277	0.07253
3431.71700	0.07286
3430.43123	0.07300
3429.14546	0.07293
3427.85969	0.07291
3426.57392	0.07313
3425.28815	0.07361
3424.00239	0.07417
3422.71662	0.07458
3421.43085	0.07472
3420.14508	0.07473
3418.85931	0.07479
3417.57354	0.07498
3416.28777	0.07515
3415.00200	0.07516
3413.71624	0.07507
3412.43047	0.07507
3411.14470	0.07530
3409.85893	0.07567
3408.57316	0.07600
3407.28739	0.07620
3406.00162	0.07637
3404.71585	0.07661
3403.43008	0.07682
3402.14432	0.07679
3400.85855	0.07649
3399.57278	0.07607
3398.28701	0.07573
3397.00124	0.07553
3395.71547	0.07541
3394.42970	0.07535
3393.14393	0.07540
3391.85817	0.07562
3390.57240	0.07601
3389.28663	0.07650
3388.00086	0.07703
3386.71509	0.07757
3385.42932	0.07804
3384.14355	0.07825
3382.85778	0.07805
3381.57201	0.07751
3380.28625	0.07690
3379.00048	0.07653
3377.71471	0.07649
3376.42894	0.07663
3375.14317	0.07679
3373.85740	0.07688
3372.57163	0.07696
3371.28586	0.07705
3370.00010	0.07716
3368.71433	0.07729
3367.42856	0.07743
3366.14279	0.07750
3364.85702	0.07744
3363.57125	0.07725
3362.28548	0.07700
3360.99971	0.07675
3359.71394	0.07653
3358.42818	0.07635
3357.14241	0.07630
3355.85664	0.07652
3354.57087	0.07710
3353.28510	0.07793
3351.99933	0.07865
3350.71356	0.07890
3349.42779	0.07857
3348.14202	0.07787
3346.85626	0.07715
3345.57049	0.07666
3344.28472	0.07648
3342.99895	0.07662
3341.71318	0.07700
3340.42741	0.07744
3339.14164	0.07771
3337.85587	0.07776
3336.57011	0.07768
3335.28434	0.07762
3333.99857	0.07763
3332.71280	0.07764
3331.42703	0.07749
3330.14126	0.07710
3328.85549	0.07658
3327.56972	0.07621
3326.28395	0.07631
3324.99819	0.07695
3323.71242	0.07787
3322.42665	0.07860
3321.14088	0.07878
3319.85511	0.07841
3318.56934	0.07770
3317.28357	0.07690
3315.99780	0.07617
3314.71204	0.07569
3313.42627	0.07561
3312.14050	0.07591
3310.85473	0.07629
3309.56896	0.07640
3308.28319	0.07613
3306.99742	0.07568
3305.71165	0.07538
3304.42588	0.07534
3303.14012	0.07540
3301.85435	0.07543
3300.56858	0.07548
3299.28281	0.07562
3297.99704	0.07579
3296.71127	0.07584
3295.42550	0.07573
3294.13973	0.07559
3292.85397	0.07550
3291.56820	0.07549
3290.28243	0.07554
3288.99666	0.07553
3287.71089	0.07537
3286.42512	0.07512
3285.13935	0.07495
3283.85358	0.07499
3282.56781	0.07512
3281.28205	0.07514
3279.99628	0.07496
3278.71051	0.07476
3277.42474	0.07473
3276.13897	0.07492
3274.85320	0.07515
3273.56743	0.07525
3272.28166	0.07524
3270.99590	0.07524
3269.71013	0.07525
3268.42436	0.07509
3267.13859	0.07470
3265.85282	0.07427
3264.56705	0.07402
3263.28128	0.07402
3261.99551	0.07418
3260.70974	0.07440
3259.42398	0.07466
3258.13821	0.07497
3256.85244	0.07528
3255.56667	0.07547
3254.28090	0.07540
3252.99513	0.07504
3251.70936	0.07454
3250.42359	0.07405
3249.13783	0.07363
3247.85206	0.07324
3246.56629	0.07285
3245.28052	0.07256
3243.99475	0.07252
3242.70898	0.07278
3241.42321	0.07318
3240.13744	0.07348
3238.85167	0.07349
3237.56591	0.07327
3236.28014	0.07303
3234.99437	0.07290
3233.70860	0.07289
3232.42283	0.07283
3231.13706	0.07259
3229.85129	0.07217
3228.56552	0.07175
3227.27976	0.07151
3225.99399	0.07144
3224.70822	0.07140
3223.42245	0.07124
3222.13668	0.07096
3220.85091	0.07073
3219.56514	0.07068
3218.27937	0.07085
3216.99360	0.07112
3215.70784	0.07135
3214.42207	0.07151
3213.13630	0.07167
3211.85053	0.07188
3210.56476	0.07208
3209.27899	0.07207
3207.99322	0.07172
3206.70745	0.07109
3205.42169	0.07054
3204.13592	0.07036
3202.85015	0.07048
3201.56438	0.07064
3200.27861	0.07064
3198.99284	0.07055
3197.70707	0.07051
3196.42130	0.07059
3195.13553	0.07074
3193.84977	0.07087
3192.56400	0.07089
3191.27823	0.07081
3189.99246	0.07067
3188.70669	0.07056
3187.42092	0.07046
3186.13515	0.07027
3184.84938	0.06993
3183.56362	0.06953
3182.27785	0.06934
3180.99208	0.06951
3179.70631	0.06984
3178.42054	0.06998
3177.13477	0.06973
3175.84900	0.06926
3174.56323	0.06887
3173.27746	0.06875
3171.99170	0.06888
3170.70593	0.06901
3169.42016	0.06897
3168.13439	0.06884
3166.84862	0.06887
3165.56285	0.06915
3164.27708	0.06940
3162.99131	0.06925
3161.70555	0.06863
3160.41978	0.06789
3159.13401	0.06740
3157.84824	0.06725
3156.56247	0.06719
3155.27670	0.06694
3153.99093	0.06650
3152.70516	0.06609
3151.41939	0.06584
3150.13363	0.06571
3148.84786	0.06559
3147.56209	0.06547
3146.27632	0.06542
3144.99055	0.06548
3143.70478	0.06556
3142.41901	0.06549
3141.13324	0.06521
3139.84748	0.06486
3138.56171	0.06463
3137.27594	0.06459
3135.99017	0.06461
3134.70440	0.06452
3133.41863	0.06428
3132.13286	0.06395
3130.84709	0.06370
3129.56132	0.06369
3128.27556	0.06403
3126.98979	0.06461
3125.70402	0.06515
3124.41825	0.06539
3123.13248	0.06532
3121.84671	0.06504
3120.56094	0.06461
3119.27517	0.06406
3117.98940	0.06349
3116.70364	0.06311
3115.41787	0.06303
3114.13210	0.06313
3112.84633	0.06318
3111.56056	0.06312
3110.27479	0.06309
3108.98902	0.06318
3107.70325	0.06336
3106.41749	0.06343
3105.13172	0.06321
3103.84595	0.06266
3102.56018	0.06196
3101.27441	0.06141
3099.98864	0.06125
3098.70287	0.06146
3097.41710	0.06174
3096.13133	0.06177
3094.84557	0.06141
3093.55980	0.06082
3092.27403	0.06026
3090.98826	0.05999
3089.70249	0.06013
3088.41672	0.06069
3087.13095	0.06149
3085.84518	0.06221
3084.55942	0.06255
3083.27365	0.06241
3081.98788	0.06194
3080.70211	0.06140
3079.41634	0.06093
3078.13057	0.06059
3076.84480	0.06031
3075.55903	0.06002
3074.27326	0.05966
3072.98750	0.05923
3071.70173	0.05880
3070.41596	0.05845
3069.13019	0.05832
3067.84442	0.05847
3066.55865	0.05881
3065.27288	0.05912
3063.98711	0.05922
3062.70135	0.05913
3061.41558	0.05899
3060.12981	0.05889
3058.84404	0.05882
3057.55827	0.05874
3056.27250	0.05865
3054.98673	0.05854
3053.70096	0.05838
3052.41519	0.05815
3051.12943	0.05786
3049.84366	0.05754
3048.55789	0.05728
3047.27212	0.05715
3045.98635	0.05716
3044.70058	0.05721
3043.41481	0.05720
3042.12904	0.05712
3040.84328	0.05708
3039.55751	0.05711
3038.27174	0.05710
3036.98597	0.05689
3035.70020	0.05653
3034.41443	0.05627
3033.12866	0.05633
3031.84289	0.05674
3030.55712	0.05724
3029.27136	0.05751
3027.98559	0.05740
3026.69982	0.05701
3025.41405	0.05652
3024.12828	0.05606
3022.84251	0.05569
3021.55674	0.05551
3020.27097	0.05558
3018.98521	0.05579
3017.69944	0.05589
3016.41367	0.05575
3015.12790	0.05550
3013.84213	0.05539
3012.55636	0.05548
3011.27059	0.05564
3009.98482	0.05570
3008.69905	0.05564
3007.41329	0.05553
3006.12752	0.05537
3004.84175	0.05510
3003.55598	0.05473
3002.27021	0.05437
3000.98444	0.05415
2999.69867	0.05411
2998.41290	0.05421
2997.12714	0.05431
2995.84137	0.05436
2994.55560	0.05436
2993.26983	0.05431
2991.98406	0.05426
2990.69829	0.05428
2989.41252	0.05443
2988.12675	0.05465
2986.84098	0.05487
2985.55522	0.05505
2984.26945	0.05522
2982.98368	0.05539
2981.69791	0.05560
2980.41214	0.05593
2979.12637	0.05642
2977.84060	0.05709
2976.55483	0.05786
2975.26907	0.05863
2973.98330	0.05932
2972.69753	0.05989
2971.41176	0.06043
2970.12599	0.06108
2968.84022	0.06194
2967.55445	0.06304
2966.26868	0.06429
2964.98291	0.06555
2963.69715	0.06669
2962.41138	0.06766
2961.12561	0.06857
2959.83984	0.06950
2958.55407	0.07043
2957.26830	0.07119
2955.98253	0.07165
2954.69676	0.07185
2953.41100	0.07188
2952.12523	0.07180
2950.83946	0.07165
2949.55369	0.07155
2948.26792	0.07164
2946.98215	0.07186
2945.69638	0.07194
2944.41061	0.07167
2943.12484	0.07116
2941.83908	0.07078
2940.55331	0.07086
2939.26754	0.07144
2937.98177	0.07232
2936.69600	0.07325
2935.41023	0.07403
2934.12446	0.07462
2932.83869	0.07518
2931.55293	0.07592
2930.26716	0.07687
2928.98139	0.07787
2927.69562	0.07879
2926.40985	0.07955
2925.12408	0.08006
2923.83831	0.08017
2922.55254	0.07987
2921.26677	0.07939
2919.98101	0.07890
2918.69524	0.07828
2917.40947	0.07731
2916.12370	0.07600
2914.83793	0.07462
2913.55216	0.07341
2912.26639	0.07244
2910.98062	0.07170
2909.69486	0.07117
2908.40909	0.07078
2907.12332	0.07039
2905.83755	0.06989
2904.55178	0.06928
2903.26601	0.06865
2901.98024	0.06808
2900.69447	0.06750
2899.40870	0.06683
2898.12294	0.06606
2896.83717	0.06536
2895.55140	0.06489
2894.26563	0.06450
2892.97986	0.06394
2891.69409	0.06307
2890.40832	0.06207
2889.12255	0.06128
2887.83678	0.06089
2886.55102	0.06081
2885.26525	0.06080
2883.97948	0.06068
2882.69371	0.06046
2881.40794	0.06029
2880.12217	0.06036
2878.83640	0.06077
2877.55063	0.06140
2876.26487	0.06199
2874.97910	0.06237
2873.69333	0.06256
2872.40756	0.06276
2871.12179	0.06304
2869.83602	0.06324
2868.55025	0.06320
2867.26448	0.06293
2865.97871	0.06264
2864.69295	0.06259
2863.40718	0.06278
2862.12141	0.06307
2860.83564	0.06328
2859.54987	0.06339
2858.26410	0.06338
2856.97833	0.06325
2855.69256	0.06298
2854.40680	0.06257
2853.12103	0.06206
2851.83526	0.06146
2850.54949	0.06074
2849.26372	0.05990
2847.97795	0.05898
2846.69218	0.05802
2845.40641	0.05707
2844.12064	0.05618
2842.83488	0.05543
2841.54911	0.05487
2840.26334	0.05445
2838.97757	0.05400
2837.69180	0.05336
2836.40603	0.05254
2835.12026	0.05158
2833.83449	0.05055
2832.54873	0.04952
2831.26296	0.04865
2829.97719	0.04814
2828.69142	0.04804
2827.40565	0.04816
2826.11988	0.04819
2824.83411	0.04793
2823.54834	0.04745
2822.26257	0.04697
2820.97681	0.04662
2819.69104	0.04638
2818.40527	0.04615
2817.11950	0.04591
2815.83373	0.04570
2814.54796	0.04551
2813.26219	0.04527
2811.97642	0.04495
2810.69066	0.04468
2809.40489	0.04455
2808.11912	0.04454
2806.83335	0.04454
2805.54758	0.04446
2804.26181	0.04431
2802.97604	0.04413
2801.69027	0.04395
2800.40450	0.04384
2799.11874	0.04383
2797.83297	0.04386
2796.54720	0.04379
2795.26143	0.04354
2793.97566	0.04313
2792.68989	0.04271
2791.40412	0.04246
2790.11835	0.04249
2788.83259	0.04272
2787.54682	0.04291
2786.26105	0.04282
2784.97528	0.04247
2783.68951	0.04206
2782.40374	0.04182
2781.11797	0.04181
2779.83220	0.04193
2778.54643	0.04200
2777.26067	0.04188
2775.97490	0.04158
2774.68913	0.04122
2773.40336	0.04100
2772.11759	0.04104
2770.83182	0.04122
2769.54605	0.04130
2768.26028	0.04114
2766.97452	0.04085
2765.68875	0.04072
2764.40298	0.04081
2763.11721	0.04097
2761.83144	0.04095
2760.54567	0.04068
2759.25990	0.04037
2757.97413	0.04030
2756.68836	0.04047
2755.40260	0.04066
2754.11683	0.04062
2752.83106	0.04036
2751.54529	0.04009
2750.25952	0.03996
2748.97375	0.03995
2747.68798	0.03993
2746.40221	0.03981
2745.11645	0.03966
2743.83068	0.03961
2742.54491	0.03968
2741.25914	0.03971
2739.97337	0.03956
2738.68760	0.03930
2737.40183	0.03912
2736.11606	0.03915
2734.83029	0.03935
2733.54453	0.03956
2732.25876	0.03961
2730.97299	0.03943
2729.68722	0.03909
2728.40145	0.03880
2727.11568	0.03873
2725.82991	0.03884
2724.54414	0.03893
2723.25838	0.03882
2721.97261	0.03855
2720.68684	0.03828
2719.40107	0.03814
2718.11530	0.03813
2716.82953	0.03818
2715.54376	0.03828
2714.25799	0.03834
2712.97222	0.03826
2711.68646	0.03802
2710.40069	0.03768
2709.11492	0.03736
2707.82915	0.03715
2706.54338	0.03714
2705.25761	0.03732
2703.97184	0.03752
2702.68607	0.03757
2701.40031	0.03740
2700.11454	0.03712
2698.82877	0.03685
2697.54300	0.03668
2696.25723	0.03663
2694.97146	0.03672
2693.68569	0.03685
2692.39992	0.03691
2691.11415	0.03687
2689.82839	0.03678
2688.54262	0.03673
2687.25685	0.03670
2685.97108	0.03662
2684.68531	0.03641
2683.39954	0.03613
2682.11377	0.03591
2680.82800	0.03585
2679.54224	0.03591
2678.25647	0.03593
2676.97070	0.03589
2675.68493	0.03582
2674.39916	0.03578
2673.11339	0.03575
2671.82762	0.03571
2670.54185	0.03572
2669.25608	0.03580
2667.97032	0.03590
2666.68455	0.03593
2665.39878	0.03586
2664.11301	0.03578
2662.82724	0.03583
2661.54147	0.03601
2660.25570	0.03627
2658.96993	0.03649
2657.68417	0.03655
2656.39840	0.03638
2655.11263	0.03603
2653.82686	0.03558
2652.54109	0.03512
2651.25532	0.03470
2649.96955	0.03439
2648.68378	0.03422
2647.39801	0.03417
2646.11225	0.03416
2644.82648	0.03405
2643.54071	0.03378
2642.25494	0.03343
2640.96917	0.03313
2639.68340	0.03297
2638.39763	0.03288
2637.11186	0.03273
2635.82609	0.03248
2634.54033	0.03222
2633.25456	0.03208
2631.96879	0.03207
2630.68302	0.03213
2629.39725	0.03218
2628.11148	0.03216
2626.82571	0.03202
2625.53994	0.03178
2624.25418	0.03150
2622.96841	0.03126
2621.68264	0.03105
2620.39687	0.03084
2619.11110	0.03063
2617.82533	0.03046
2616.53956	0.03038
2615.25379	0.03042
2613.96802	0.03056
2612.68226	0.03074
2611.39649	0.03084
2610.11072	0.03078
2608.82495	0.03060
2607.53918	0.03038
2606.25341	0.03027
2604.96764	0.03033
2603.68187	0.03048
2602.39611	0.03054
2601.11034	0.03034
2599.82457	0.02993
2598.53880	0.02947
2597.25303	0.02911
2595.96726	0.02896
2594.68149	0.02899
2593.39572	0.02912
2592.10995	0.02928
2590.82419	0.02946
2589.53842	0.02963
2588.25265	0.02967
2586.96688	0.02952
2585.68111	0.02919
2584.39534	0.02889
2583.10957	0.02877
2581.82380	0.02880
2580.53804	0.02873
2579.25227	0.02834
2577.96650	0.02772
2576.68073	0.02723
2575.39496	0.02720
2574.10919	0.02755
2572.82342	0.02787
2571.53765	0.02782
2570.25188	0.02742
2568.96612	0.02703
2567.68035	0.02700
2566.39458	0.02733
2565.10881	0.02776
2563.82304	0.02809
2562.53727	0.02828
2561.25150	0.02836
2559.96573	0.02829
2558.67997	0.02800
2557.39420	0.02761
2556.10843	0.02733
2554.82266	0.02724
2553.53689	0.02730
2552.25112	0.02737
2550.96535	0.02736
2549.67958	0.02717
2548.39381	0.02674
2547.10805	0.02621
2545.82228	0.02583
2544.53651	0.02576
2543.25074	0.02592
2541.96497	0.02618
2540.67920	0.02642
2539.39343	0.02656
2538.10766	0.02657
2536.82190	0.02649
2535.53613	0.02641
2534.25036	0.02639
2532.96459	0.02646
2531.67882	0.02656
2530.39305	0.02656
2529.10728	0.02638
2527.82151	0.02612
2526.53574	0.02601
2525.24998	0.02613
2523.96421	0.02640
2522.67844	0.02660
2521.39267	0.02657
2520.10690	0.02634
2518.82113	0.02604
2517.53536	0.02582
2516.24959	0.02574
2514.96383	0.02576
2513.67806	0.02580
2512.39229	0.02578
2511.10652	0.02570
2509.82075	0.02561
2508.53498	0.02551
2507.24921	0.02538
2505.96344	0.02528
2504.67767	0.02544
2503.39191	0.02593
2502.10614	0.02643
2500.82037	0.02651
2499.53460	0.02614
2498.24883	0.02571
2496.96306	0.02554
2495.67729	0.02562
2494.39152	0.02578
2493.10576	0.02591
2491.81999	0.02596
2490.53422	0.02588
2489.24845	0.02571
2487.96268	0.02561
2486.67691	0.02559
2485.39114	0.02552
2484.10537	0.02527
2482.81960	0.02491
2481.53384	0.02463
2480.24807	0.02453
2478.96230	0.02456
2477.67653	0.02463
2476.39076	0.02468
2475.10499	0.02459
2473.81922	0.02440
2472.53345	0.02428
2471.24769	0.02444
2469.96192	0.02488
2468.67615	0.02534
2467.39038	0.02560
2466.10461	0.02563
2464.81884	0.02553
2463.53307	0.02539
2462.24730	0.02526
2460.96153	0.02516
2459.67577	0.02514
2458.39000	0.02525
2457.10423	0.02545
2455.81846	0.02557
2454.53269	0.02547
2453.24692	0.02524
2451.96115	0.02509
2450.67538	0.02508
2449.38962	0.02502
2448.10385	0.02468
2446.81808	0.02412
2445.53231	0.02360
2444.24654	0.02334
2442.96077	0.02335
2441.67500	0.02356
2440.38923	0.02387
2439.10346	0.02420
2437.81770	0.02436
2436.53193	0.02422
2435.24616	0.02382
2433.96039	0.02334
2432.67462	0.02300
2431.38885	0.02283
2430.10308	0.02271
2428.81731	0.02257
2427.53155	0.02250
2426.24578	0.02263
2424.96001	0.02299
2423.67424	0.02341
2422.38847	0.02363
2421.10270	0.02354
2419.81693	0.02325
2418.53116	0.02298
2417.24539	0.02280
2415.95963	0.02267
2414.67386	0.02254
2413.38809	0.02250
2412.10232	0.02268
2410.81655	0.02304
2409.53078	0.02342
2408.24501	0.02360
2406.95924	0.02349
2405.67347	0.02316
2404.38771	0.02282
2403.10194	0.02259
2401.81617	0.02251
2400.53040	0.02256
2399.24463	0.02287
2397.95886	0.02317
2396.67309	0.02336
2395.38732	0.02342
2394.10156	0.02336
2392.81579	0.02316
2391.53002	0.02289
2390.24425	0.02265
2388.95848	0.02255
2387.67271	0.02263
2386.38694	0.02281
2385.10117	0.02292
2383.81540	0.02286
2382.52964	0.02267
2381.24387	0.02252
2379.95810	0.02263
2378.67233	0.02290
2377.38656	0.02301
2376.10079	0.02308
2374.81502	0.02311
2373.52925	0.02290
2372.24349	0.02247
2370.95772	0.02185
2369.67195	0.02175
2368.38618	0.02209
2367.10041	0.02193
2365.81464	0.02130
2364.52887	0.02103
2363.24310	0.02072
2361.95733	0.01978
2360.67157	0.01916
2359.38580	0.02031
2358.10003	0.02245
2356.81426	0.02420
2355.52849	0.02507
2354.24272	0.02492
2352.95695	0.02414
2351.67118	0.02235
2350.38542	0.01943
2349.09965	0.01813
2347.81388	0.02070
2346.52811	0.02449
2345.24234	0.02568
2343.95657	0.02445
2342.67080	0.02342
2341.38503	0.02337
2340.09926	0.02372
2338.81350	0.02413
2337.52773	0.02402
2336.24196	0.02355
2334.95619	0.02272
2333.67042	0.02185
2332.38465	0.02184
2331.09888	0.02231
2329.81311	0.02281
2328.52735	0.02368
2327.24158	0.02431
2325.95581	0.02456
2324.67004	0.02498
2323.38427	0.02520
2322.09850	0.02502
2320.81273	0.02478
2319.52696	0.02415
2318.24119	0.02318
2316.95543	0.02252
2315.66966	0.02233
2314.38389	0.02229
2313.09812	0.02205
2311.81235	0.02183
2310.52658	0.02183
2309.24081	0.02201
2307.95504	0.02227
2306.66928	0.02241
2305.38351	0.02229
2304.09774	0.02204
2302.81197	0.02193
2301.52620	0.02201
2300.24043	0.02202
2298.95466	0.02184
2297.66889	0.02143
2296.38312	0.02089
2295.09736	0.02045
2293.81159	0.02024
2292.52582	0.02035
2291.24005	0.02070
2289.95428	0.02108
2288.66851	0.02130
2287.38274	0.02125
2286.09697	0.02100
2284.81121	0.02072
2283.52544	0.02057
2282.23967	0.02052
2280.95390	0.02042
2279.66813	0.02016
2278.38236	0.01988
2277.09659	0.01983
2275.81082	0.02003
2274.52505	0.02022
2273.23929	0.02009
2271.95352	0.01961
2270.66775	0.01907
2269.38198	0.01881
2268.09621	0.01886
2266.81044	0.01890
2265.52467	0.01870
2264.23890	0.01834
2262.95314	0.01807
2261.66737	0.01809
2260.38160	0.01835
2259.09583	0.01857
2257.81006	0.01854
2256.52429	0.01820
2255.23852	0.01767
2253.95275	0.01723
2252.66698	0.01713
2251.38122	0.01733
2250.09545	0.01761
2248.80968	0.01766
2247.52391	0.01730
2246.23814	0.01695
2244.95237	0.01698
2243.66660	0.01744
2242.38083	0.01796
2241.09507	0.01807
2239.80930	0.01758
2238.52353	0.01671
2237.23776	0.01582
2235.95199	0.01526
2234.66622	0.01522
2233.38045	0.01561
2232.09468	0.01607
2230.80891	0.01621
2229.52315	0.01591
2228.23738	0.01534
2226.95161	0.01478
2225.66584	0.01446
2224.38007	0.01432
2223.09430	0.01407
2221.80853	0.01352
2220.52276	0.01288
2219.23700	0.01258
2217.95123	0.01284
2216.66546	0.01335
2215.37969	0.01357
2214.09392	0.01325
2212.80815	0.01255
2211.52238	0.01192
2210.23661	0.01181
2208.95084	0.01242
2207.66508	0.01340
2206.37931	0.01405
2205.09354	0.01399
2203.80777	0.01344
2202.52200	0.01288
2201.23623	0.01251
2199.95046	0.01218
2198.66469	0.01170
2197.37893	0.01109
2196.09316	0.01057
2194.80739	0.01041
2193.52162	0.01052
2192.23585	0.01042
2190.95008	0.00965
2189.66431	0.00836
2188.37854	0.00718
2187.09277	0.00665
2185.80701	0.00681
2184.52124	0.00737
2183.23547	0.00812
2181.94970	0.00900
2180.66393	0.00988
2179.37816	0.01034
2178.09239	0.00997
2176.80662	0.00876
2175.52085	0.00728
2174.23509	0.00613
2172.94932	0.00554
2171.66355	0.00547
2170.37778	0.00590
2169.09201	0.00676
2167.80624	0.00772
2166.52047	0.00825
2165.23470	0.00823
2163.94894	0.00796
2162.66317	0.00770
2161.37740	0.00733
2160.09163	0.00658
2158.80586	0.00544
2157.52009	0.00410
2156.23432	0.00288
2154.94855	0.00225
2153.66278	0.00263
2152.37702	0.00396
2151.09125	0.00572
2149.80548	0.00743
2148.51971	0.00893
2147.23394	0.01000
2145.94817	0.01031
2144.66240	0.00977
2143.37663	0.00892
2142.09087	0.00858
2140.80510	0.00913
2139.51933	0.01021
2138.23356	0.01102
2136.94779	0.01096
2135.66202	0.01015
2134.37625	0.00927
2133.09048	0.00897
2131.80471	0.00930
2130.51895	0.00983
2129.23318	0.01017
2127.94741	0.01020
2126.66164	0.01009
2125.37587	0.01009
2124.09010	0.01034
2122.80433	0.01075
2121.51856	0.01111
2120.23280	0.01132
2118.94703	0.01144
2117.66126	0.01148
2116.37549	0.01143
2115.08972	0.01140
2113.80395	0.01161
2112.51818	0.01195
2111.23241	0.01201
2109.94664	0.01162
2108.66088	0.01117
2107.37511	0.01119
2106.08934	0.01171
2104.80357	0.01216
2103.51780	0.01211
2102.23203	0.01164
2100.94626	0.01110
2099.66049	0.01076
2098.37473	0.01024
2097.08896	0.00962
2095.80319	0.00927
2094.51742	0.00953
2093.23165	0.01031
2091.94588	0.01111
2090.66011	0.01138
2089.37434	0.01104
2088.08857	0.01052
2086.80281	0.01030
2085.51704	0.01045
2084.23127	0.01063
2082.94550	0.01057
2081.65973	0.01032
2080.37396	0.01007
2079.08819	0.00989
2077.80242	0.00966
2076.51666	0.00922
2075.23089	0.00856
2073.94512	0.00784
2072.65935	0.00735
2071.37358	0.00726
2070.08781	0.00761
2068.80204	0.00832
2067.51627	0.00916
2066.23050	0.00974
2064.94474	0.00979
2063.65897	0.00943
2062.37320	0.00908
2061.08743	0.00903
2059.80166	0.00925
2058.51589	0.00943
2057.23012	0.00929
2055.94435	0.00872
2054.65859	0.00788
2053.37282	0.00712
2052.08705	0.00681
2050.80128	0.00697
2049.51551	0.00727
2048.22974	0.00727
2046.94397	0.00683
2045.65820	0.00622
2044.37243	0.00577
2043.08667	0.00553
2041.80090	0.00534
2040.51513	0.00507
2039.22936	0.00472
2037.94359	0.00427
2036.65782	0.00381
2035.37205	0.00360
2034.08628	0.00385
2032.80052	0.00426
2031.51475	0.00417
2030.22898	0.00338
2028.94321	0.00249
2027.65744	0.00215
2026.37167	0.00238
2025.08590	0.00263
2023.80013	0.00265
2022.51436	0.00275
2021.22860	0.00335
2019.94283	0.00440
2018.65706	0.00544
2017.37129	0.00606
2016.08552	0.00618
2014.79975	0.00597
2013.51398	0.00576
2012.22821	0.00583
2010.94245	0.00616
2009.65668	0.00640
2008.37091	0.00630
2007.08514	0.00603
2005.79937	0.00601
2004.51360	0.00639
2003.22783	0.00688
2001.94206	0.00707
2000.65629	0.00691
1999.37053	0.00676
1998.08476	0.00700
1996.79899	0.00760
1995.51322	0.00817
1994.22745	0.00837
1992.94168	0.00829
1991.65591	0.00826
1990.37014	0.00853
1989.08438	0.00908
1987.79861	0.00963
1986.51284	0.00982
1985.22707	0.00948
1983.94130	0.00887
1982.65553	0.00841
1981.36976	0.00822
1980.08399	0.00808
1978.79822	0.00783
1977.51246	0.00764
1976.22669	0.00773
1974.94092	0.00795
1973.65515	0.00805
1972.36938	0.00805
1971.08361	0.00818
1969.79784	0.00853
1968.51207	0.00891
1967.22631	0.00922
1965.94054	0.00953
1964.65477	0.00979
1963.36900	0.00978
1962.08323	0.00950
1960.79746	0.00928
1959.51169	0.00944
1958.22592	0.00984
1956.94015	0.01003
1955.65439	0.00984
1954.36862	0.00957
1953.08285	0.00966
1951.79708	0.01021
1950.51131	0.01086
1949.22554	0.01117
1947.93977	0.01096
1946.65400	0.01044
1945.36823	0.01004
1944.08247	0.01010
1942.79670	0.01072
1941.51093	0.01163
1940.22516	0.01239
1938.93939	0.01267
1937.65362	0.01247
1936.36785	0.01203
1935.08208	0.01167
1933.79632	0.01151
1932.51055	0.01149
1931.22478	0.01142
1929.93901	0.01118
1928.65324	0.01083
1927.36747	0.01052
1926.08170	0.01040
1924.79593	0.01048
1923.51016	0.01068
1922.22440	0.01095
1920.93863	0.01125
1919.65286	0.01150
1918.36709	0.01162
1917.08132	0.01156
1915.79555	0.01137
1914.50978	0.01117
1913.22401	0.01106
1911.93825	0.01096
1910.65248	0.01077
1909.36671	0.01059
1908.08094	0.01065
1906.79517	0.01107
1905.50940	0.01163
1904.22363	0.01202
1902.93786	0.01214
1901.65209	0.01213
1900.36633	0.01217
1899.08056	0.01229
1897.79479	0.01236
1896.50902	0.01231
1895.22325	0.01218
1893.93748	0.01211
1892.65171	0.01210
1891.36594	0.01209
1890.08018	0.01204
1888.79441	0.01208
1887.50864	0.01234
1886.22287	0.01280
1884.93710	0.01322
1883.65133	0.01331
1882.36556	0.01301
1881.07979	0.01247
1879.79402	0.01194
1878.50826	0.01164
1877.22249	0.01163
1875.93672	0.01183
1874.65095	0.01213
1873.36518	0.01243
1872.07941	0.01270
1870.79364	0.01286
1869.50787	0.01291
1868.22211	0.01284
1866.93634	0.01269
1865.65057	0.01253
1864.36480	0.01245
1863.07903	0.01253
1861.79326	0.01274
1860.50749	0.01295
1859.22172	0.01308
1857.93595	0.01310
1856.65019	0.01307
1855.36442	0.01300
1854.07865	0.01287
1852.79288	0.01269
1851.50711	0.01253
1850.22134	0.01249
1848.93557	0.01260
1847.64980	0.01283
1846.36404	0.01300
1845.07827	0.01303
1843.79250	0.01302
1842.50673	0.01304
1841.22096	0.01307
1839.93519	0.01307
1838.64942	0.01306
1837.36365	0.01308
1836.07788	0.01305
1834.79212	0.01295
1833.50635	0.01284
1832.22058	0.01277
1830.93481	0.01283
1829.64904	0.01300
1828.36327	0.01318
1827.07750	0.01322
1825.79173	0.01310
1824.50597	0.01303
1823.22020	0.01307
1821.93443	0.01316
1820.64866	0.01316
1819.36289	0.01301
1818.07712	0.01277
1816.79135	0.01262
1815.50558	0.01274
1814.21981	0.01308
1812.93405	0.01346
1811.64828	0.01371
1810.36251	0.01382
1809.07674	0.01382
1807.79097	0.01374
1806.50520	0.01365
1805.21943	0.01360
1803.93366	0.01364
1802.64790	0.01372
1801.36213	0.01377
1800.07636	0.01378
1798.79059	0.01379
1797.50482	0.01388
1796.21905	0.01407
1794.93328	0.01428
1793.64751	0.01441
1792.36174	0.01451
1791.07598	0.01465
1789.79021	0.01475
1788.50444	0.01472
1787.21867	0.01453
1785.93290	0.01432
1784.64713	0.01421
1783.36136	0.01423
1782.07559	0.01432
1780.78983	0.01441
1779.50406	0.01452
1778.21829	0.01468
1776.93252	0.01492
1775.64675	0.01519
1774.36098	0.01534
1773.07521	0.01535
1771.78944	0.01535
1770.50367	0.01538
1769.21791	0.01542
1767.93214	0.01551
1766.64637	0.01569
1765.36060	0.01586
1764.07483	0.01587
1762.78906	0.01579
1761.50329	0.01582
1760.21752	0.01597
1758.93176	0.01608
1757.64599	0.01610
1756.36022	0.01614
1755.07445	0.01628
1753.78868	0.01638
1752.50291	0.01632
1751.21714	0.01622
1749.93137	0.01617
1748.64560	0.01617
1747.35984	0.01619
1746.07407	0.01623
1744.78830	0.01632
1743.50253	0.01642
1742.21676	0.01649
1740.93099	0.01656
1739.64522	0.01674
1738.35945	0.01707
1737.07369	0.01733
1735.78792	0.01733
1734.50215	0.01727
1733.21638	0.01744
1731.93061	0.01775
1730.64484	0.01794
1729.35907	0.01797
1728.07330	0.01802
1726.78753	0.01815
1725.50177	0.01832
1724.21600	0.01852
1722.93023	0.01878
1721.64446	0.01909
1720.35869	0.01932
1719.07292	0.01940
1717.78715	0.01952
1716.50138	0.01984
1715.21561	0.02031
1713.92985	0.02075
1712.64408	0.02109
1711.35831	0.02136
1710.07254	0.02164
1708.78677	0.02193
1707.50100	0.02223
1706.21523	0.02260
1704.92946	0.02311
1703.64370	0.02364
1702.35793	0.02394
1701.07216	0.02411
1699.78639	0.02445
1698.50062	0.02486
1697.21485	0.02498
1695.92908	0.02493
1694.64331	0.02507
1693.35754	0.02540
1692.07178	0.02564
1690.78601	0.02582
1689.50024	0.02616
1688.21447	0.02661
1686.92870	0.02689
1685.64293	0.02693
1684.35716	0.02701
1683.07139	0.02731
1681.78563	0.02763
1680.49986	0.02779
1679.21409	0.02791
1677.92832	0.02806
1676.64255	0.02826
1675.35678	0.02859
1674.07101	0.02908
1672.78524	0.02957
1671.49947	0.02986
1670.21371	0.03005
1668.92794	0.03035
1667.64217	0.03082
1666.35640	0.03128
1665.07063	0.03155
1663.78486	0.03169
1662.49909	0.03187
1661.21332	0.03214
1659.92756	0.03248
1658.64179	0.03287
1657.35602	0.03332
1656.07025	0.03361
1654.78448	0.03359
1653.49871	0.03354
1652.21294	0.03385
1650.92717	0.03440
1649.64140	0.03467
1648.35564	0.03453
1647.06987	0.03432
1645.78410	0.03433
1644.49833	0.03449
1643.21256	0.03460
1641.92679	0.03461
1640.64102	0.03464
1639.35525	0.03473
1638.06949	0.03475
1636.78372	0.03470
1635.49795	0.03474
1634.21218	0.03497
1632.92641	0.03526
1631.64064	0.03543
1630.35487	0.03550
1629.06910	0.03559
1627.78333	0.03576
1626.49757	0.03596
1625.21180	0.03611
1623.92603	0.03622
1622.64026	0.03643
1621.35449	0.03674
1620.06872	0.03701
1618.78295	0.03709
1617.49718	0.03712
1616.21142	0.03731
1614.92565	0.03764
1613.63988	0.03790
1612.35411	0.03802
1611.06834	0.03819
1609.78257	0.03852
1608.49680	0.03892
1607.21103	0.03930
1605.92526	0.03961
1604.63950	0.03987
1603.35373	0.04010
1602.06796	0.04034
1600.78219	0.04058
1599.49642	0.04083
1598.21065	0.04107
1596.92488	0.04131
1595.63911	0.04154
1594.35335	0.04178
1593.06758	0.04200
1591.78181	0.04220
1590.49604	0.04239
1589.21027	0.04262
1587.92450	0.04290
1586.63873	0.04323
1585.35296	0.04358
1584.06719	0.04392
1582.78143	0.04425
1581.49566	0.04462
1580.20989	0.04502
1578.92412	0.04535
1577.63835	0.04556
1576.35258	0.04584
1575.06681	0.04636
1573.78104	0.04699
1572.49528	0.04744
1571.20951	0.04771
1569.92374	0.04799
1568.63797	0.04837
1567.35220	0.04874
1566.06643	0.04899
1564.78066	0.04927
1563.49489	0.04966
1562.20912	0.05001
1560.92336	0.05019
1559.63759	0.05038
1558.35182	0.05081
1557.06605	0.05134
1555.78028	0.05163
1554.49451	0.05166
1553.20874	0.05168
1551.92297	0.05176
1550.63721	0.05183
1549.35144	0.05187
1548.06567	0.05194
1546.77990	0.05204
1545.49413	0.05214
1544.20836	0.05223
1542.92259	0.05221
1541.63682	0.05200
1540.35105	0.05171
1539.06529	0.05156
1537.77952	0.05158
1536.49375	0.05152
1535.20798	0.05127
1533.92221	0.05104
1532.63644	0.05105
1531.35067	0.05126
1530.06490	0.05155
1528.77914	0.05189
1527.49337	0.05236
1526.20760	0.05301
1524.92183	0.05374
1523.63606	0.05443
1522.35029	0.05511
1521.06452	0.05600
1519.77875	0.05715
1518.49298	0.05834
1517.20722	0.05950
1515.92145	0.06071
1514.63568	0.06203
1513.34991	0.06341
1512.06414	0.06487
1510.77837	0.06640
1509.49260	0.06791
1508.20683	0.06930
1506.92107	0.07069
1505.63530	0.07224
1504.34953	0.07383
1503.06376	0.07522
1501.77799	0.07638
1500.49222	0.07750
1499.20645	0.07864
1497.92068	0.07974
1496.63491	0.08080
1495.34915	0.08187
1494.06338	0.08290
1492.77761	0.08381
1491.49184	0.08467
1490.20607	0.08563
1488.92030	0.08670
1487.63453	0.08784
1486.34876	0.08902
1485.06299	0.09031
1483.77723	0.09172
1482.49146	0.09323
1481.20569	0.09478
1479.91992	0.09629
1478.63415	0.09774
1477.34838	0.09912
1476.06261	0.10046
1474.77684	0.10172
1473.49108	0.10291
1472.20531	0.10406
1470.91954	0.10514
1469.63377	0.10601
1468.34800	0.10660
1467.06223	0.10697
1465.77646	0.10727
1464.49069	0.10765
1463.20492	0.10814
1461.91916	0.10872
1460.63339	0.10930
1459.34762	0.10984
1458.06185	0.11038
1456.77608	0.11107
1455.49031	0.11187
1454.20454	0.11253
1452.91877	0.11289
1451.63301	0.11307
1450.34724	0.11320
1449.06147	0.11328
1447.77570	0.11325
1446.48993	0.11309
1445.20416	0.11280
1443.91839	0.11242
1442.63262	0.11200
1441.34685	0.11161
1440.06109	0.11121
1438.77532	0.11078
1437.48955	0.11044
1436.20378	0.11040
1434.91801	0.11066
1433.63224	0.11110
1432.34647	0.11165
1431.06070	0.11246
1429.77494	0.11363
1428.48917	0.11513
1427.20340	0.11683
1425.91763	0.11859
1424.63186	0.12039
1423.34609	0.12222
1422.06032	0.12398
1420.77455	0.12558
1419.48878	0.12708
1418.20302	0.12850
1416.91725	0.12966
1415.63148	0.13041
1414.34571	0.13080
1413.05994	0.13094
1411.77417	0.13086
1410.48840	0.13054
1409.20263	0.12991
1407.91687	0.12898
1406.63110	0.12775
1405.34533	0.12627
1404.05956	0.12458
1402.77379	0.12266
1401.48802	0.12049
1400.20225	0.11812
1398.91648	0.11568
1397.63071	0.11324
1396.34495	0.11075
1395.05918	0.10817
1393.77341	0.10554
1392.48764	0.10287
1391.20187	0.10018
1389.91610	0.09746
1388.63033	0.09479
1387.34456	0.09224
1386.05880	0.08986
1384.77303	0.08759
1383.48726	0.08537
1382.20149	0.08319
1380.91572	0.08101
1379.62995	0.07882
1378.34418	0.07656
1377.05841	0.07420
1375.77264	0.07171
1374.48688	0.06915
1373.20111	0.06660
1371.91534	0.06411
1370.62957	0.06173
1369.34380	0.05949
1368.05803	0.05744
1366.77226	0.05556
1365.48649	0.05378
1364.20073	0.05202
1362.91496	0.05031
1361.62919	0.04875
1360.34342	0.04735
1359.05765	0.04606
1357.77188	0.04483
1356.48611	0.04361
1355.20034	0.04245
1353.91457	0.04137
1352.62881	0.04040
1351.34304	0.03952
1350.05727	0.03870
1348.77150	0.03792
1347.48573	0.03717
1346.19996	0.03646
1344.91419	0.03581
1343.62842	0.03519
1342.34266	0.03460
1341.05689	0.03403
1339.77112	0.03348
1338.48535	0.03300
1337.19958	0.03258
1335.91381	0.03221
1334.62804	0.03186
1333.34227	0.03149
1332.05650	0.03107
1330.77074	0.03065
1329.48497	0.03025
1328.19920	0.02991
1326.91343	0.02961
1325.62766	0.02933
1324.34189	0.02905
1323.05612	0.02877
1321.77035	0.02850
1320.48459	0.02826
1319.19882	0.02804
1317.91305	0.02783
1316.62728	0.02759
1315.34151	0.02734
1314.05574	0.02709
1312.76997	0.02687
1311.48420	0.02668
1310.19843	0.02651
1308.91267	0.02636
1307.62690	0.02619
1306.34113	0.02599
1305.05536	0.02577
1303.76959	0.02554
1302.48382	0.02532
1301.19805	0.02511
1299.91228	0.02489
1298.62652	0.02467
1297.34075	0.02445
1296.05498	0.02426
1294.76921	0.02409
1293.48344	0.02396
1292.19767	0.02384
1290.91190	0.02374
1289.62613	0.02365
1288.34036	0.02356
1287.05460	0.02347
1285.76883	0.02336
1284.48306	0.02321
1283.19729	0.02305
1281.91152	0.02288
1280.62575	0.02271
1279.33998	0.02251
1278.05421	0.02233
1276.76845	0.02217
1275.48268	0.02206
1274.19691	0.02197
1272.91114	0.02188
1271.62537	0.02179
1270.33960	0.02171
1269.05383	0.02163
1267.76806	0.02154
1266.48229	0.02143
1265.19653	0.02129
1263.91076	0.02115
1262.62499	0.02102
1261.33922	0.02091
1260.05345	0.02080
1258.76768	0.02069
1257.48191	0.02058
1256.19614	0.02051
1254.91037	0.02049
1253.62461	0.02050
1252.33884	0.02051
1251.05307	0.02048
1249.76730	0.02039
1248.48153	0.02027
1247.19576	0.02011
1245.90999	0.01996
1244.62422	0.01984
1243.33846	0.01979
1242.05269	0.01979
1240.76692	0.01979
1239.48115	0.01973
1238.19538	0.01960
1236.90961	0.01947
1235.62384	0.01939
1234.33807	0.01935
1233.05230	0.01933
1231.76654	0.01930
1230.48077	0.01924
1229.19500	0.01918
1227.90923	0.01913
1226.62346	0.01910
1225.33769	0.01908
1224.05192	0.01907
1222.76615	0.01902
1221.48039	0.01893
1220.19462	0.01878
1218.90885	0.01862
1217.62308	0.01850
1216.33731	0.01844
1215.05154	0.01845
1213.76577	0.01849
1212.48000	0.01854
1211.19423	0.01858
1209.90847	0.01861
1208.62270	0.01862
1207.33693	0.01860
1206.05116	0.01856
1204.76539	0.01848
1203.47962	0.01837
1202.19385	0.01829
1200.90808	0.01824
1199.62232	0.01821
1198.33655	0.01823
1197.05078	0.01824
1195.76501	0.01822
1194.47924	0.01820
1193.19347	0.01819
1191.90770	0.01819
1190.62193	0.01819
1189.33616	0.01817
1188.05040	0.01817
1186.76463	0.01820
1185.47886	0.01825
1184.19309	0.01832
1182.90732	0.01838
1181.62155	0.01843
1180.33578	0.01844
1179.05001	0.01843
1177.76425	0.01846
1176.47848	0.01856
1175.19271	0.01872
1173.90694	0.01890
1172.62117	0.01907
1171.33540	0.01920
1170.04963	0.01930
1168.76386	0.01938
1167.47809	0.01950
1166.19233	0.01969
1164.90656	0.01995
1163.62079	0.02025
1162.33502	0.02053
1161.04925	0.02074
1159.76348	0.02090
1158.47771	0.02108
1157.19194	0.02135
1155.90618	0.02169
1154.62041	0.02204
1153.33464	0.02238
1152.04887	0.02271
1150.76310	0.02308
1149.47733	0.02352
1148.19156	0.02404
1146.90579	0.02463
1145.62002	0.02530
1144.33426	0.02604
1143.04849	0.02686
1141.76272	0.02775
1140.47695	0.02872
1139.19118	0.02983
1137.90541	0.03112
1136.61964	0.03262
1135.33387	0.03431
1134.04811	0.03613
1132.76234	0.03805
1131.47657	0.04011
1130.19080	0.04240
1128.90503	0.04496
1127.61926	0.04777
1126.33349	0.05084
1125.04772	0.05416
1123.76195	0.05773
1122.47619	0.06147
1121.19042	0.06532
1119.90465	0.06926
1118.61888	0.07330
1117.33311	0.07740
1116.04734	0.08148
1114.76157	0.08552
1113.47580	0.08954
1112.19004	0.09353
1110.90427	0.09741
1109.61850	0.10111
1108.33273	0.10462
1107.04696	0.10801
1105.76119	0.11136
1104.47542	0.11464
1103.18965	0.11783
1101.90388	0.12091
1100.61812	0.12390
1099.33235	0.12681
1098.04658	0.12963
1096.76081	0.13236
1095.47504	0.13498
1094.18927	0.13751
1092.90350	0.13995
1091.61773	0.14230
1090.33197	0.14453
1089.04620	0.14665
1087.76043	0.14869
1086.47466	0.15070
1085.18889	0.15274
1083.90312	0.15481
1082.61735	0.15695
1081.33158	0.15919
1080.04581	0.16158
1078.76005	0.16417
1077.47428	0.16698
1076.18851	0.16996
1074.90274	0.17311
1073.61697	0.17641
1072.33120	0.17988
1071.04543	0.18350
1069.75966	0.18724
1068.47390	0.19105
1067.18813	0.19492
1065.90236	0.19889
1064.61659	0.20297
1063.33082	0.20711
1062.04505	0.21125
1060.75928	0.21538
1059.47351	0.21953
1058.18774	0.22368
1056.90198	0.22775
1055.61621	0.23177
1054.33044	0.23583
1053.04467	0.23998
1051.75890	0.24416
1050.47313	0.24836
1049.18736	0.25261
1047.90159	0.25699
1046.61583	0.26155
1045.33006	0.26627
1044.04429	0.27110
1042.75852	0.27590
1041.47275	0.28065
1040.18698	0.28541
1038.90121	0.29027
1037.61544	0.29526
1036.32967	0.30029
1035.04391	0.30522
1033.75814	0.30995
1032.47237	0.31438
1031.18660	0.31846
1029.90083	0.32217
1028.61506	0.32547
1027.32929	0.32832
1026.04352	0.33065
1024.75775	0.33246
1023.47199	0.33381
1022.18622	0.33469
1020.90045	0.33508
1019.61468	0.33496
1018.32891	0.33428
1017.04314	0.33294
1015.75737	0.33081
1014.47160	0.32786
1013.18584	0.32421
1011.90007	0.31993
1010.61430	0.31507
1009.32853	0.30958
1008.04276	0.30344
1006.75699	0.29665
1005.47122	0.28923
1004.18545	0.28119
1002.89968	0.27263
1001.61392	0.26369
1000.32815	0.25456
999.04238	0.24534
997.75661	0.23605
996.47084	0.22664
995.18507	0.21716
993.89930	0.20771
992.61353	0.19843
991.32777	0.18949
990.04200	0.18096
988.75623	0.17287
987.47046	0.16515
986.18469	0.15775
984.89892	0.15069
983.61315	0.14402
982.32738	0.13785
981.04161	0.13223
979.75585	0.12713
978.47008	0.12252
977.18431	0.11836
975.89854	0.11470
974.61277	0.11155
973.32700	0.10896
972.04123	0.10696
970.75546	0.10563
969.46970	0.10506
968.18393	0.10530
966.89816	0.10630
965.61239	0.10785
964.32662	0.10964
963.04085	0.11128
961.75508	0.11239
960.46931	0.11268
959.18354	0.11200
957.89778	0.11038
956.61201	0.10799
955.32624	0.10505
954.04047	0.10179
952.75470	0.09841
951.46893	0.09504
950.18316	0.09175
948.89739	0.08861
947.61163	0.08563
946.32586	0.08279
945.04009	0.08002
943.75432	0.07729
942.46855	0.07468
941.18278	0.07229
939.89701	0.07015
938.61124	0.06822
937.32547	0.06639
936.03971	0.06463
934.75394	0.06297
933.46817	0.06143
932.18240	0.06003
930.89663	0.05874
929.61086	0.05755
928.32509	0.05646
927.03932	0.05549
925.75356	0.05461
924.46779	0.05378
923.18202	0.05296
921.89625	0.05216
920.61048	0.05140
919.32471	0.05074
918.03894	0.05015
916.75317	0.04961
915.46740	0.04906
914.18164	0.04849
912.89587	0.04791
911.61010	0.04735
910.32433	0.04687
909.03856	0.04643
907.75279	0.04601
906.46702	0.04554
905.18125	0.04504
903.89549	0.04457
902.60972	0.04419
901.32395	0.04394
900.03818	0.04376
898.75241	0.04357
897.46664	0.04335
896.18087	0.04310
894.89510	0.04287
893.60933	0.04273
892.32357	0.04276
891.03780	0.04303
889.75203	0.04355
888.46626	0.04432
887.18049	0.04549
885.89472	0.04726
884.60895	0.04984
883.32318	0.05325
882.03742	0.05720
880.75165	0.06112
879.46588	0.06442
878.18011	0.06682
876.89434	0.06863
875.60857	0.07037
874.32280	0.07223
873.03703	0.07380
871.75126	0.07446
870.46550	0.07387
869.17973	0.07218
867.89396	0.06966
866.60819	0.06656
865.32242	0.06308
864.03665	0.05954
862.75088	0.05628
861.46511	0.05352
860.17935	0.05123
858.89358	0.04932
857.60781	0.04773
856.32204	0.04639
855.03627	0.04529
853.75050	0.04441
852.46473	0.04368
851.17896	0.04303
849.89319	0.04239
848.60743	0.04175
847.32166	0.04118
846.03589	0.04072
844.75012	0.04034
843.46435	0.04003
842.17858	0.03974
840.89281	0.03945
839.60704	0.03917
838.32128	0.03890
837.03551	0.03864
835.74974	0.03836
834.46397	0.03805
833.17820	0.03773
831.89243	0.03748
830.60666	0.03734
829.32089	0.03730
828.03512	0.03726
826.74936	0.03715
825.46359	0.03699
824.17782	0.03681
822.89205	0.03665
821.60628	0.03649
820.32051	0.03634
819.03474	0.03623
817.74897	0.03615
816.46321	0.03606
815.17744	0.03592
813.89167	0.03577
812.60590	0.03570
811.32013	0.03568
810.03436	0.03566
808.74859	0.03559
807.46282	0.03551
806.17705	0.03548
804.89129	0.03550
803.60552	0.03553
802.31975	0.03555
801.03398	0.03558
799.74821	0.03558
798.46244	0.03550
797.17667	0.03531
795.89090	0.03503
794.60513	0.03478
793.31937	0.03464
792.03360	0.03463
790.74783	0.03466
789.46206	0.03469
788.17629	0.03470
786.89052	0.03471
785.60475	0.03472
784.31898	0.03473
783.03322	0.03472
781.74745	0.03468
780.46168	0.03460
779.17591	0.03445
777.89014	0.03425
776.60437	0.03409
775.31860	0.03403
774.03283	0.03406
772.74706	0.03410
771.46130	0.03411
770.17553	0.03412
768.88976	0.03415
767.60399	0.03417
766.31822	0.03416
765.03245	0.03412
763.74668	0.03411
762.46091	0.03416
761.17515	0.03426
759.88938	0.03436
758.60361	0.03442
757.31784	0.03446
756.03207	0.03447
754.74630	0.03445
753.46053	0.03442
752.17476	0.03439
750.88899	0.03438
749.60323	0.03442
748.31746	0.03446
747.03169	0.03446
745.74592	0.03443
744.46015	0.03438
743.17438	0.03428
741.88861	0.03410
740.60284	0.03382
739.31708	0.03355
738.03131	0.03342
736.74554	0.03346
735.45977	0.03362
734.17400	0.03384
732.88823	0.03407
731.60246	0.03425
730.31669	0.03434
729.03092	0.03437
727.74516	0.03436
726.45939	0.03432
725.17362	0.03423
723.88785	0.03404
722.60208	0.03395
721.31631	0.03405
720.03054	0.03416
718.74477	0.03414
717.45901	0.03415
716.17324	0.03414
714.88747	0.03404
713.60170	0.03391
712.31593	0.03381
711.03016	0.03375
709.74439	0.03370
708.45862	0.03364
707.17285	0.03356
705.88709	0.03348
704.60132	0.03342
703.31555	0.03338
702.02978	0.03335
700.74401	0.03332
699.45824	0.03327
698.17247	0.03320
696.88670	0.03314
695.60094	0.03312
694.31517	0.03312
693.02940	0.03312
691.74363	0.03308
690.45786	0.03298
689.17209	0.03282
687.88632	0.03264
686.60055	0.03246
685.31478	0.03229
684.02902	0.03214
682.74325	0.03203
681.45748	0.03198
680.17171	0.03197
678.88594	0.03198
677.60017	0.03202
676.31440	0.03210
675.02863	0.03214
673.74287	0.03197
672.45710	0.03142
671.17133	0.03097
669.88556	0.03208
668.59979	0.03450
667.31402	0.03433
666.02825	0.03233
664.74248	0.03186
663.45671	0.03236
662.17095	0.03257
660.88518	0.03240
659.59941	0.03211
658.31364	0.03187
657.02787	0.03175
655.74210	0.03175
654.45633	0.03177
653.17056	0.03177
651.88480	0.03174
650.59903	0.03175
649.31326	0.03184
648.02749	0.03199
646.74172	0.03218
645.45595	0.03242
644.17018	0.03269
642.88441	0.03296
641.59864	0.03322
640.31288	0.03348
639.02711	0.03373
637.74134	0.03402
636.45557	0.03434
635.16980	0.03471
633.88403	0.03513
632.59826	0.03563
631.31249	0.03628
630.02673	0.03714
628.74096	0.03807
627.45519	0.03888
626.16942	0.04016
624.88365	0.04176
623.59788	0.04370
622.31211	0.04641
621.02634	0.04984
619.74057	0.05314
618.45481	0.05576
617.16904	0.05825
615.88327	0.06142
614.59750	0.06538
613.31173	0.06988
612.02596	0.07505
610.74019	0.08135
609.45442	0.08842
608.16866	0.09491
606.88289	0.09991
605.59712	0.10389
604.31135	0.10767
603.02558	0.11125
601.73981	0.11375
600.45404	0.11431
599.16827	0.11274
597.88250	0.10954
596.59674	0.10556
595.31097	0.10156
594.02520	0.09802
592.73943	0.09510
591.45366	0.09284
590.16789	0.09124
588.88212	0.09039
587.59635	0.09037
586.31059	0.09117
585.02482	0.09272
583.73905	0.09489
582.45328	0.09752
581.16751	0.10048
579.88174	0.10369
578.59597	0.10704
577.31020	0.11045
576.02443	0.11381
574.73867	0.11703
573.45290	0.12007
572.16713	0.12301
570.88136	0.12614
569.59559	0.12986
568.30982	0.13439
567.02405	0.13955
565.73828	0.14477
564.45251	0.14930
563.16675	0.15248
561.88098	0.15387
560.59521	0.15319
559.30944	0.15031
558.02367	0.14533
556.73790	0.13868
555.45213	0.13102
554.16636	0.12297
552.88060	0.11503
551.59483	0.10750
550.30906	0.10055
549.02329	0.09424
547.73752	0.08859
546.45175	0.08356
545.16598	0.07911
543.88021	0.07518
542.59444	0.07170
541.30868	0.06857
540.02291	0.06571
538.73714	0.06307
537.45137	0.06060
536.16560	0.05831
534.87983	0.05627
533.59406	0.05453
532.30829	0.05305
531.02253	0.05166
529.73676	0.05026
528.45099	0.04888
527.16522	0.04762
525.87945	0.04654
524.59368	0.04558
523.30791	0.04465
522.02214	0.04368
520.73637	0.04273
519.45061	0.04184
518.16484	0.04106
516.87907	0.04034
515.59330	0.03961
514.30753	0.03883
513.02176	0.03803
511.73599	0.03728
510.45022	0.03659
509.16446	0.03598
507.87869	0.03539
506.59292	0.03476
505.30715	0.03410
504.02138	0.03349
502.73561	0.03299
501.44984	0.03260
500.16407	0.03229
498.87830	0.03199
497.59254	0.03169
496.30677	0.03137
495.02100	0.03100
493.73523	0.03062
492.44946	0.03033
491.16369	0.03023
489.87792	0.03026
488.59215	0.03028
487.30639	0.03020
486.02062	0.03003
484.73485	0.02987
483.44908	0.02982
482.16331	0.02990
480.87754	0.03009
479.59177	0.03035
478.30600	0.03062
477.02023	0.03090
475.73447	0.03121
474.44870	0.03154
473.16293	0.03186
471.87716	0.03210
470.59139	0.03222
469.30562	0.03220
468.01985	0.03211
466.73408	0.03195
465.44832	0.03172
464.16255	0.03138
462.87678	0.03096
461.59101	0.03052
460.30524	0.03012
459.01947	0.02980
457.73370	0.02956
456.44793	0.02933
455.16216	0.02905
453.87640	0.02871
452.59063	0.02837
451.30486	0.02808
450.01909	0.02782
448.73332	0.02753
447.44755	0.02721
446.16178	0.02685
444.87601	0.02652
443.59025	0.02630
442.30448	0.02620
441.01871	0.02617
439.73294	0.02611
438.44717	0.02599
437.16140	0.02586
435.87563	0.02578
434.58986	0.02580
433.30409	0.02589
432.01833	0.02597
430.73256	0.02598
429.44679	0.02588
428.16102	0.02573
426.87525	0.02558
425.58948	0.02549
424.30371	0.02545
423.01794	0.02542
421.73218	0.02533
420.44641	0.02517
419.16064	0.02502
417.87487	0.02498
416.58910	0.02499
415.30333	0.02498
414.01756	0.02490
412.73179	0.02477
411.44602	0.02464
410.16026	0.02458
408.87449	0.02460
407.58872	0.02471
406.30295	0.02486
405.01718	0.02501
403.73141	0.02515
402.44564	0.02528
401.15987	0.02539
399.87411	0.02549
