3997.45528	0.06389
3996.16951	0.06400
3994.88374	0.06434
3993.59798	0.06486
3992.31221	0.06519
3991.02644	0.06496
3989.74067	0.06407
3988.45490	0.06289
3987.16913	0.06206
3985.88336	0.06212
3984.59759	0.06304
3983.31183	0.06430
3982.02606	0.06522
3980.74029	0.06534
3979.45452	0.06465
3978.16875	0.06344
3976.88298	0.06221
3975.59721	0.06136
3974.31144	0.06111
3973.02567	0.06144
3971.73991	0.06218
3970.45414	0.06298
3969.16837	0.06345
3967.88260	0.06343
3966.59683	0.06310
3965.31106	0.06271
3964.02529	0.06239
3962.73952	0.06214
3961.45376	0.06200
3960.16799	0.06199
3958.88222	0.06205
3957.59645	0.06217
3956.31068	0.06245
3955.02491	0.06289
3953.73914	0.06324
3952.45337	0.06320
3951.16760	0.06271
3949.88184	0.06208
3948.59607	0.06174
3947.31030	0.06176
3946.02453	0.06184
3944.73876	0.06170
3943.45299	0.06155
3942.16722	0.06184
3940.88145	0.06264
3939.59569	0.06358
3938.30992	0.06421
3937.02415	0.06430
3935.73838	0.06380
3934.45261	0.06298
3933.16684	0.06231
3931.88107	0.06216
3930.59530	0.06241
3929.30953	0.06259
3928.02377	0.06249
3926.73800	0.06223
3925.45223	0.06195
3924.16646	0.06164
3922.88069	0.06120
3921.59492	0.06070
3920.30915	0.06029
3919.02338	0.06012
3917.73762	0.06030
3916.45185	0.06089
3915.16608	0.06163
3913.88031	0.06202
3912.59454	0.06183
3911.30877	0.06134
3910.02300	0.06095
3908.73723	0.06086
3907.45146	0.06096
3906.16570	0.06108
3904.87993	0.06119
3903.59416	0.06127
3902.30839	0.06117
3901.02262	0.06081
3899.73685	0.06045
3898.45108	0.06043
3897.16531	0.06079
3895.87955	0.06119
3894.59378	0.06131
3893.30801	0.06107
3892.02224	0.06067
3890.73647	0.06041
3889.45070	0.06039
3888.16493	0.06029
3886.87916	0.05999
3885.59339	0.05980
3884.30763	0.05995
3883.02186	0.06021
3881.73609	0.06018
3880.45032	0.05983
3879.16455	0.05946
3877.87878	0.05921
3876.59301	0.05915
3875.30724	0.05945
3874.02148	0.06014
3872.73571	0.06075
3871.44994	0.06065
3870.16417	0.05999
3868.87840	0.05951
3867.59263	0.05953
3866.30686	0.05984
3865.02109	0.06018
3863.73532	0.06039
3862.44956	0.06020
3861.16379	0.05965
3859.87802	0.05924
3858.59225	0.05956
3857.30648	0.06060
3856.02071	0.06158
3854.73494	0.06181
3853.44917	0.06146
3852.16341	0.06117
3850.87764	0.06131
3849.59187	0.06185
3848.30610	0.06252
3847.02033	0.06281
3845.73456	0.06251
3844.44879	0.06195
3843.16302	0.06169
3841.87725	0.06178
3840.59149	0.06163
3839.30572	0.06082
3838.01995	0.05975
3836.73418	0.05918
3835.44841	0.05935
3834.16264	0.05982
3832.87687	0.06011
3831.59110	0.05996
3830.30534	0.05931
3829.01957	0.05838
3827.73380	0.05773
3826.44803	0.05799
3825.16226	0.05907
3823.87649	0.06005
3822.59072	0.06017
3821.30495	0.05977
3820.01918	0.05960
3818.73342	0.05962
3817.44765	0.05925
3816.16188	0.05855
3814.87611	0.05807
3813.59034	0.05806
3812.30457	0.05841
3811.01880	0.05901
3809.73303	0.05952
3808.44726	0.05961
3807.16150	0.05959
3805.87573	0.06010
3804.58996	0.06110
3803.30419	0.06189
3802.01842	0.06198
3800.73265	0.06144
3799.44688	0.06036
3798.16111	0.05890
3796.87535	0.05760
3795.58958	0.05706
3794.30381	0.05721
3793.01804	0.05755
3791.73227	0.05772
3790.44650	0.05774
3789.16073	0.05772
3787.87496	0.05771
3786.58919	0.05770
3785.30343	0.05779
3784.01766	0.05808
3782.73189	0.05845
3781.44612	0.05866
3780.16035	0.05866
3778.87458	0.05862
3777.58881	0.05852
3776.30304	0.05826
3775.01728	0.05787
3773.73151	0.05752
3772.44574	0.05722
3771.15997	0.05686
3769.87420	0.05642
3768.58843	0.05584
3767.30266	0.05508
3766.01689	0.05438
3764.73112	0.05423
3763.44536	0.05486
3762.15959	0.05591
3760.87382	0.05676
3759.58805	0.05699
3758.30228	0.05668
3757.01651	0.05639
3755.73074	0.05656
3754.44497	0.05720
3753.15921	0.05800
3751.87344	0.05872
3750.58767	0.05925
3749.30190	0.05971
3748.01613	0.06001
3746.73036	0.05947
3745.44459	0.05785
3744.15882	0.05610
3742.87305	0.05518
3741.58729	0.05504
3740.30152	0.05535
3739.01575	0.05602
3737.72998	0.05688
3736.44421	0.05761
3735.15844	0.05789
3733.87267	0.05761
3732.58690	0.05696
3731.30114	0.05634
3730.01537	0.05588
3728.72960	0.05533
3727.44383	0.05475
3726.15806	0.05447
3724.87229	0.05461
3723.58652	0.05498
3722.30075	0.05518
3721.01498	0.05498
3719.72922	0.05453
3718.44345	0.05426
3717.15768	0.05462
3715.87191	0.05560
3714.58614	0.05662
3713.30037	0.05710
3712.01460	0.05685
3710.72883	0.05627
3709.44307	0.05584
3708.15730	0.05562
3706.87153	0.05557
3705.58576	0.05555
3704.29999	0.05543
3703.01422	0.05521
3701.72845	0.05504
3700.44268	0.05508
3699.15691	0.05530
3697.87115	0.05547
3696.58538	0.05545
3695.29961	0.05520
3694.01384	0.05487
3692.72807	0.05465
3691.44230	0.05456
3690.15653	0.05442
3688.87076	0.05416
3687.58500	0.05403
3686.29923	0.05419
3685.01346	0.05455
3683.72769	0.05512
3682.44192	0.05592
3681.15615	0.05676
3679.87038	0.05730
3678.58461	0.05714
3677.29884	0.05617
3676.01308	0.05512
3674.72731	0.05486
3673.44154	0.05515
3672.15577	0.05503
3670.87000	0.05443
3669.58423	0.05422
3668.29846	0.05488
3667.01269	0.05594
3665.72693	0.05676
3664.44116	0.05712
3663.15539	0.05727
3661.86962	0.05752
3660.58385	0.05790
3659.29808	0.05805
3658.01231	0.05770
3656.72654	0.05710
3655.44077	0.05684
3654.15501	0.05704
3652.86924	0.05721
3651.58347	0.05690
3650.29770	0.05623
3649.01193	0.05563
3647.72616	0.05533
3646.44039	0.05531
3645.15462	0.05536
3643.86886	0.05537
3642.58309	0.05541
3641.29732	0.05571
3640.01155	0.05646
3638.72578	0.05769
3637.44001	0.05917
3636.15424	0.06060
3634.86847	0.06182
3633.58270	0.06273
3632.29694	0.06316
3631.01117	0.06289
3629.72540	0.06212
3628.43963	0.06150
3627.15386	0.06135
3625.86809	0.06151
3624.58232	0.06182
3623.29655	0.06215
3622.01079	0.06215
3620.72502	0.06160
3619.43925	0.06077
3618.15348	0.06037
3616.86771	0.06078
3615.58194	0.06172
3614.29617	0.06256
3613.01040	0.06278
3611.72463	0.06229
3610.43887	0.06133
3609.15310	0.06036
3607.86733	0.05981
3606.58156	0.05979
3605.29579	0.06014
3604.01002	0.06072
3602.72425	0.06141
3601.43848	0.06204
3600.15272	0.06262
3598.86695	0.06324
3597.58118	0.06393
3596.29541	0.06451
3595.00964	0.06497
3593.72387	0.06548
3592.43810	0.06610
3591.15233	0.06681
3589.86656	0.06742
3588.58080	0.06777
3587.29503	0.06785
3586.00926	0.06771
3584.72349	0.06749
3583.43772	0.06744
3582.15195	0.06759
3580.86618	0.06768
3579.58041	0.06750
3578.29464	0.06715
3577.00888	0.06704
3575.72311	0.06752
3574.43734	0.06853
3573.15157	0.06975
3571.86580	0.07089
3570.58003	0.07173
3569.29426	0.07215
3568.00849	0.07222
3566.72273	0.07215
3565.43696	0.07212
3564.15119	0.07214
3562.86542	0.07209
3561.57965	0.07185
3560.29388	0.07139
3559.00811	0.07091
3557.72234	0.07066
3556.43657	0.07071
3555.15081	0.07082
3553.86504	0.07066
3552.57927	0.07030
3551.29350	0.07023
3550.00773	0.07087
3548.72196	0.07212
3547.43619	0.07348
3546.15042	0.07445
3544.86466	0.07480
3543.57889	0.07462
3542.29312	0.07424
3541.00735	0.07403
3539.72158	0.07413
3538.43581	0.07450
3537.15004	0.07494
3535.86427	0.07527
3534.57850	0.07539
3533.29274	0.07541
3532.00697	0.07561
3530.72120	0.07621
3529.43543	0.07710
3528.14966	0.07794
3526.86389	0.07841
3525.57812	0.07843
3524.29235	0.07818
3523.00659	0.07801
3521.72082	0.07815
3520.43505	0.07856
3519.14928	0.07901
3517.86351	0.07933
3516.57774	0.07947
3515.29197	0.07958
3514.00620	0.07987
3512.72043	0.08038
3511.43467	0.08091
3510.14890	0.08127
3508.86313	0.08142
3507.57736	0.08150
3506.29159	0.08160
3505.00582	0.08169
3503.72005	0.08174
3502.43428	0.08184
3501.14852	0.08204
3499.86275	0.08235
3498.57698	0.08263
3497.29121	0.08277
3496.00544	0.08270
3494.71967	0.08247
3493.43390	0.08222
3492.14813	0.08213
3490.86236	0.08230
3489.57660	0.08281
3488.29083	0.08370
3487.00506	0.08490
3485.71929	0.08615
3484.43352	0.08700
3483.14775	0.08715
3481.86198	0.08658
3480.57621	0.08562
3479.29045	0.08478
3478.00468	0.08447
3476.71891	0.08473
3475.43314	0.08529
3474.14737	0.08586
3472.86160	0.08638
3471.57583	0.08685
3470.29006	0.08716
3469.00429	0.08716
3467.71853	0.08692
3466.43276	0.08673
3465.14699	0.08678
3463.86122	0.08703
3462.57545	0.08731
3461.28968	0.08764
3460.00391	0.08813
3458.71814	0.08876
3457.43238	0.08927
3456.14661	0.08942
3454.86084	0.08924
3453.57507	0.08892
3452.28930	0.08871
3451.00353	0.08873
3449.71776	0.08897
3448.43199	0.08923
3447.14622	0.08939
3445.86046	0.08952
3444.57469	0.08981
3443.28892	0.09029
3442.00315	0.09072
3440.71738	0.09081
3439.43161	0.09057
3438.14584	0.09028
3436.86007	0.09022
3435.57431	0.09044
3434.28854	0.09077
3433.00277	0.09104
3431.71700	0.09120
3430.43123	0.09134
3429.14546	0.09155
3427.85969	0.09172
3426.57392	0.09170
3425.28815	0.09155
3424.00239	0.09158
3422.71662	0.09199
3421.43085	0.09270
3420.14508	0.09346
3418.85931	0.09415
3417.57354	0.09465
3416.28777	0.09476
3415.00200	0.09436
3413.71624	0.09364
3412.43047	0.09297
3411.14470	0.09269
3409.85893	0.09284
3408.57316	0.09330
3407.28739	0.09381
3406.00162	0.09418
3404.71585	0.09435
3403.43008	0.09446
3402.14432	0.09466
3400.85855	0.09494
3399.57278	0.09520
3398.28701	0.09530
3397.00124	0.09524
3395.71547	0.09519
3394.42970	0.09523
3393.14393	0.09525
3391.85817	0.09521
3390.57240	0.09522
3389.28663	0.09546
3388.00086	0.09599
3386.71509	0.09666
3385.42932	0.09718
3384.14355	0.09733
3382.85778	0.09711
3381.57201	0.09680
3380.28625	0.09663
3379.00048	0.09664
3377.71471	0.09669
3376.42894	0.09661
3375.14317	0.09643
3373.85740	0.09631
3372.57163	0.09642
3371.28586	0.09683
3370.00010	0.09741
3368.71433	0.09794
3367.42856	0.09816
3366.14279	0.09804
3364.85702	0.09778
3363.57125	0.09765
3362.28548	0.09770
3360.99971	0.09781
3359.71394	0.09790
3358.42818	0.09805
3357.14241	0.09833
3355.85664	0.09870
3354.57087	0.09899
3353.28510	0.09905
3351.99933	0.09886
3350.71356	0.09855
3349.42779	0.09832
3348.14202	0.09826
3346.85626	0.09835
3345.57049	0.09851
3344.28472	0.09868
3342.99895	0.09872
3341.71318	0.09841
3340.42741	0.09764
3339.14164	0.09665
3337.85587	0.09599
3336.57011	0.09614
3335.28434	0.09715
3333.99857	0.09859
3332.71280	0.09981
3331.42703	0.10042
3330.14126	0.10040
3328.85549	0.10003
3327.56972	0.09961
3326.28395	0.09929
3324.99819	0.09907
3323.71242	0.09892
3322.42665	0.09892
3321.14088	0.09914
3319.85511	0.09953
3318.56934	0.09995
3317.28357	0.10031
3315.99780	0.10057
3314.71204	0.10069
3313.42627	0.10058
3312.14050	0.10018
3310.85473	0.09960
3309.56896	0.09905
3308.28319	0.09869
3306.99742	0.09853
3305.71165	0.09854
3304.42588	0.09871
3303.14012	0.09896
3301.85435	0.09908
3300.56858	0.09892
3299.28281	0.09858
3297.99704	0.09835
3296.71127	0.09840
3295.42550	0.09862
3294.13973	0.09879
3292.85397	0.09878
3291.56820	0.09868
3290.28243	0.09856
3288.99666	0.09841
3287.71089	0.09820
3286.42512	0.09800
3285.13935	0.09800
3283.85358	0.09831
3282.56781	0.09878
3281.28205	0.09907
3279.99628	0.09890
3278.71051	0.09837
3277.42474	0.09784
3276.13897	0.09763
3274.85320	0.09768
3273.56743	0.09770
3272.28166	0.09751
3270.99590	0.09723
3269.71013	0.09719
3268.42436	0.09755
3267.13859	0.09815
3265.85282	0.09861
3264.56705	0.09866
3263.28128	0.09834
3261.99551	0.09797
3260.70974	0.09780
3259.42398	0.09779
3258.13821	0.09772
3256.85244	0.09751
3255.56667	0.09731
3254.28090	0.09731
3252.99513	0.09749
3251.70936	0.09768
3250.42359	0.09775
3249.13783	0.09773
3247.85206	0.09761
3246.56629	0.09734
3245.28052	0.09692
3243.99475	0.09653
3242.70898	0.09638
3241.42321	0.09656
3240.13744	0.09695
3238.85167	0.09735
3237.56591	0.09767
3236.28014	0.09790
3234.99437	0.09801
3233.70860	0.09792
3232.42283	0.09757
3231.13706	0.09705
3229.85129	0.09647
3228.56552	0.09592
3227.27976	0.09551
3225.99399	0.09537
3224.70822	0.09559
3223.42245	0.09605
3222.13668	0.09645
3220.85091	0.09650
3219.56514	0.09614
3218.27937	0.09554
3216.99360	0.09498
3215.70784	0.09465
3214.42207	0.09459
3213.13630	0.09469
3211.85053	0.09473
3210.56476	0.09459
3209.27899	0.09433
3207.99322	0.09423
3206.70745	0.09454
3205.42169	0.09523
3204.13592	0.09595
3202.85015	0.09630
3201.56438	0.09616
3200.27861	0.09567
3198.99284	0.09503
3197.70707	0.09437
3196.42130	0.09381
3195.13553	0.09349
3193.84977	0.09352
3192.56400	0.09385
3191.27823	0.09426
3189.99246	0.09450
3188.70669	0.09448
3187.42092	0.09435
3186.13515	0.09434
3184.84938	0.09444
3183.56362	0.09443
3182.27785	0.09411
3180.99208	0.09348
3179.70631	0.09276
3178.42054	0.09223
3177.13477	0.09209
3175.84900	0.09235
3174.56323	0.09284
3173.27746	0.09327
3171.99170	0.09337
3170.70593	0.09307
3169.42016	0.09253
3168.13439	0.09199
3166.84862	0.09160
3165.56285	0.09136
3164.27708	0.09121
3162.99131	0.09118
3161.70555	0.09129
3160.41978	0.09144
3159.13401	0.09139
3157.84824	0.09102
3156.56247	0.09048
3155.27670	0.09002
3153.99093	0.08975
3152.70516	0.08960
3151.41939	0.08952
3150.13363	0.08955
3148.84786	0.08975
3147.56209	0.09008
3146.27632	0.09041
3144.99055	0.09058
3143.70478	0.09053
3142.41901	0.09028
3141.13324	0.08993
3139.84748	0.08961
3138.56171	0.08937
3137.27594	0.08921
3135.99017	0.08913
3134.70440	0.08912
3133.41863	0.08917
3132.13286	0.08916
3130.84709	0.08906
3129.56132	0.08887
3128.27556	0.08866
3126.98979	0.08843
3125.70402	0.08820
3124.41825	0.08800
3123.13248	0.08790
3121.84671	0.08790
3120.56094	0.08794
3119.27517	0.08796
3117.98940	0.08787
3116.70364	0.08762
3115.41787	0.08723
3114.13210	0.08684
3112.84633	0.08664
3111.56056	0.08668
3110.27479	0.08684
3108.98902	0.08693
3107.70325	0.08689
3106.41749	0.08681
3105.13172	0.08679
3103.84595	0.08687
3102.56018	0.08701
3101.27441	0.08714
3099.98864	0.08719
3098.70287	0.08713
3097.41710	0.08698
3096.13133	0.08676
3094.84557	0.08648
3093.55980	0.08611
3092.27403	0.08569
3090.98826	0.08536
3089.70249	0.08519
3088.41672	0.08518
3087.13095	0.08515
3085.84518	0.08495
3084.55942	0.08452
3083.27365	0.08400
3081.98788	0.08360
3080.70211	0.08348
3079.41634	0.08362
3078.13057	0.08391
3076.84480	0.08420
3075.55903	0.08438
3074.27326	0.08441
3072.98750	0.08428
3071.70173	0.08407
3070.41596	0.08382
3069.13019	0.08357
3067.84442	0.08339
3066.55865	0.08331
3065.27288	0.08331
3063.98711	0.08331
3062.70135	0.08324
3061.41558	0.08310
3060.12981	0.08292
3058.84404	0.08272
3057.55827	0.08244
3056.27250	0.08209
3054.98673	0.08177
3053.70096	0.08157
3052.41519	0.08151
3051.12943	0.08154
3049.84366	0.08161
3048.55789	0.08171
3047.27212	0.08181
3045.98635	0.08193
3044.70058	0.08209
3043.41481	0.08223
3042.12904	0.08223
3040.84328	0.08203
3039.55751	0.08169
3038.27174	0.08132
3036.98597	0.08099
3035.70020	0.08073
3034.41443	0.08052
3033.12866	0.08035
3031.84289	0.08024
3030.55712	0.08018
3029.27136	0.08017
3027.98559	0.08016
3026.69982	0.08009
3025.41405	0.07997
3024.12828	0.07981
3022.84251	0.07967
3021.55674	0.07954
3020.27097	0.07940
3018.98521	0.07928
3017.69944	0.07917
3016.41367	0.07900
3015.12790	0.07874
3013.84213	0.07840
3012.55636	0.07802
3011.27059	0.07765
3009.98482	0.07733
3008.69905	0.07719
3007.41329	0.07728
3006.12752	0.07755
3004.84175	0.07782
3003.55598	0.07790
3002.27021	0.07773
3000.98444	0.07742
2999.69867	0.07724
2998.41290	0.07722
2997.12714	0.07748
2995.84137	0.07787
2994.55560	0.07813
2993.26983	0.07804
2991.98406	0.07760
2990.69829	0.07702
2989.41252	0.07653
2988.12675	0.07625
2986.84098	0.07624
2985.55522	0.07655
2984.26945	0.07709
2982.98368	0.07760
2981.69791	0.07798
2980.41214	0.07834
2979.12637	0.07890
2977.84060	0.07970
2976.55483	0.08059
2975.26907	0.08142
2973.98330	0.08218
2972.69753	0.08306
2971.41176	0.08426
2970.12599	0.08579
2968.84022	0.08743
2967.55445	0.08896
2966.26868	0.09037
2964.98291	0.09181
2963.69715	0.09339
2962.41138	0.09498
2961.12561	0.09637
2959.83984	0.09740
2958.55407	0.09807
2957.26830	0.09860
2955.98253	0.09924
2954.69676	0.10009
2953.41100	0.10101
2952.12523	0.10174
2950.83946	0.10213
2949.55369	0.10225
2948.26792	0.10217
2946.98215	0.10195
2945.69638	0.10161
2944.41061	0.10126
2943.12484	0.10104
2941.83908	0.10107
2940.55331	0.10130
2939.26754	0.10167
2937.98177	0.10222
2936.69600	0.10310
2935.41023	0.10439
2934.12446	0.10589
2932.83869	0.10727
2931.55293	0.10834
2930.26716	0.10915
2928.98139	0.10984
2927.69562	0.11047
2926.40985	0.11105
2925.12408	0.11152
2923.83831	0.11181
2922.55254	0.11186
2921.26677	0.11168
2919.98101	0.11128
2918.69524	0.11069
2917.40947	0.10993
2916.12370	0.10906
2914.83793	0.10819
2913.55216	0.10748
2912.26639	0.10694
2910.98062	0.10643
2909.69486	0.10573
2908.40909	0.10475
2907.12332	0.10362
2905.83755	0.10254
2904.55178	0.10160
2903.26601	0.10078
2901.98024	0.10008
2900.69447	0.09946
2899.40870	0.09883
2898.12294	0.09810
2896.83717	0.09724
2895.55140	0.09632
2894.26563	0.09541
2892.97986	0.09453
2891.69409	0.09372
2890.40832	0.09293
2889.12255	0.09215
2887.83678	0.09140
2886.55102	0.09079
2885.26525	0.09036
2883.97948	0.09005
2882.69371	0.08977
2881.40794	0.08956
2880.12217	0.08944
2878.83640	0.08942
2877.55063	0.08949
2876.26487	0.08972
2874.97910	0.09011
2873.69333	0.09056
2872.40756	0.09103
2871.12179	0.09159
2869.83602	0.09227
2868.55025	0.09291
2867.26448	0.09329
2865.97871	0.09332
2864.69295	0.09307
2863.40718	0.09272
2862.12141	0.09242
2860.83564	0.09232
2859.54987	0.09248
2858.26410	0.09276
2856.97833	0.09294
2855.69256	0.09288
2854.40680	0.09263
2853.12103	0.09236
2851.83526	0.09214
2850.54949	0.09185
2849.26372	0.09129
2847.97795	0.09043
2846.69218	0.08941
2845.40641	0.08841
2844.12064	0.08745
2842.83488	0.08640
2841.54911	0.08520
2840.26334	0.08393
2838.97757	0.08274
2837.69180	0.08168
2836.40603	0.08066
2835.12026	0.07956
2833.83449	0.07837
2832.54873	0.07723
2831.26296	0.07631
2829.97719	0.07564
2828.69142	0.07510
2827.40565	0.07455
2826.11988	0.07394
2824.83411	0.07329
2823.54834	0.07269
2822.26257	0.07219
2820.97681	0.07184
2819.69104	0.07160
2818.40527	0.07133
2817.11950	0.07098
2815.83373	0.07059
2814.54796	0.07031
2813.26219	0.07017
2811.97642	0.07011
2810.69066	0.07006
2809.40489	0.07000
2808.11912	0.06993
2806.83335	0.06979
2805.54758	0.06953
2804.26181	0.06916
2802.97604	0.06875
2801.69027	0.06835
2800.40450	0.06802
2799.11874	0.06776
2797.83297	0.06759
2796.54720	0.06748
2795.26143	0.06736
2793.97566	0.06723
2792.68989	0.06713
2791.40412	0.06705
2790.11835	0.06691
2788.83259	0.06665
2787.54682	0.06624
2786.26105	0.06576
2784.97528	0.06531
2783.68951	0.06498
2782.40374	0.06481
2781.11797	0.06483
2779.83220	0.06502
2778.54643	0.06521
2777.26067	0.06518
2775.97490	0.06481
2774.68913	0.06423
2773.40336	0.06371
2772.11759	0.06347
2770.83182	0.06353
2769.54605	0.06376
2768.26028	0.06400
2766.97452	0.06411
2765.68875	0.06408
2764.40298	0.06396
2763.11721	0.06378
2761.83144	0.06354
2760.54567	0.06326
2759.25990	0.06302
2757.97413	0.06285
2756.68836	0.06273
2755.40260	0.06270
2754.11683	0.06277
2752.83106	0.06289
2751.54529	0.06290
2750.25952	0.06272
2748.97375	0.06242
2747.68798	0.06213
2746.40221	0.06194
2745.11645	0.06185
2743.83068	0.06181
2742.54491	0.06176
2741.25914	0.06171
2739.97337	0.06168
2738.68760	0.06170
2737.40183	0.06169
2736.11606	0.06159
2734.83029	0.06146
2733.54453	0.06143
2732.25876	0.06157
2730.97299	0.06175
2729.68722	0.06182
2728.40145	0.06164
2727.11568	0.06119
2725.82991	0.06065
2724.54414	0.06024
2723.25838	0.06009
2721.97261	0.06008
2720.68684	0.06001
2719.40107	0.05984
2718.11530	0.05969
2716.82953	0.05967
2715.54376	0.05973
2714.25799	0.05978
2712.97222	0.05973
2711.68646	0.05961
2710.40069	0.05946
2709.11492	0.05934
2707.82915	0.05925
2706.54338	0.05920
2705.25761	0.05921
2703.97184	0.05925
2702.68607	0.05927
2701.40031	0.05916
2700.11454	0.05890
2698.82877	0.05855
2697.54300	0.05827
2696.25723	0.05818
2694.97146	0.05823
2693.68569	0.05831
2692.39992	0.05830
2691.11415	0.05822
2689.82839	0.05809
2688.54262	0.05795
2687.25685	0.05786
2685.97108	0.05788
2684.68531	0.05793
2683.39954	0.05787
2682.11377	0.05763
2680.82800	0.05730
2679.54224	0.05708
2678.25647	0.05706
2676.97070	0.05710
2675.68493	0.05704
2674.39916	0.05689
2673.11339	0.05678
2671.82762	0.05681
2670.54185	0.05691
2669.25608	0.05695
2667.97032	0.05691
2666.68455	0.05680
2665.39878	0.05665
2664.11301	0.05649
2662.82724	0.05638
2661.54147	0.05636
2660.25570	0.05646
2658.96993	0.05658
2657.68417	0.05664
2656.39840	0.05658
2655.11263	0.05641
2653.82686	0.05616
2652.54109	0.05587
2651.25532	0.05560
2649.96955	0.05543
2648.68378	0.05535
2647.39801	0.05527
2646.11225	0.05508
2644.82648	0.05479
2643.54071	0.05452
2642.25494	0.05435
2640.96917	0.05422
2639.68340	0.05396
2638.39763	0.05355
2637.11186	0.05316
2635.82609	0.05299
2634.54033	0.05304
2633.25456	0.05310
2631.96879	0.05298
2630.68302	0.05270
2629.39725	0.05241
2628.11148	0.05216
2626.82571	0.05186
2625.53994	0.05149
2624.25418	0.05112
2622.96841	0.05092
2621.68264	0.05088
2620.39687	0.05091
2619.11110	0.05088
2617.82533	0.05077
2616.53956	0.05055
2615.25379	0.05021
2613.96802	0.04979
2612.68226	0.04944
2611.39649	0.04931
2610.11072	0.04941
2608.82495	0.04960
2607.53918	0.04970
2606.25341	0.04966
2604.96764	0.04951
2603.68187	0.04923
2602.39611	0.04876
2601.11034	0.04814
2599.82457	0.04754
2598.53880	0.04718
2597.25303	0.04711
2595.96726	0.04718
2594.68149	0.04722
2593.39572	0.04726
2592.10995	0.04740
2590.82419	0.04757
2589.53842	0.04756
2588.25265	0.04723
2586.96688	0.04679
2585.68111	0.04654
2584.39534	0.04656
2583.10957	0.04666
2581.82380	0.04666
2580.53804	0.04659
2579.25227	0.04650
2577.96650	0.04638
2576.68073	0.04615
2575.39496	0.04582
2574.10919	0.04556
2572.82342	0.04552
2571.53765	0.04570
2570.25188	0.04585
2568.96612	0.04580
2567.68035	0.04554
2566.39458	0.04518
2565.10881	0.04480
2563.82304	0.04452
2562.53727	0.04450
2561.25150	0.04476
2559.96573	0.04506
2558.67997	0.04508
2557.39420	0.04477
2556.10843	0.04439
2554.82266	0.04419
2553.53689	0.04422
2552.25112	0.04438
2550.96535	0.04458
2549.67958	0.04477
2548.39381	0.04481
2547.10805	0.04465
2545.82228	0.04444
2544.53651	0.04432
2543.25074	0.04427
2541.96497	0.04414
2540.67920	0.04397
2539.39343	0.04391
2538.10766	0.04398
2536.82190	0.04397
2535.53613	0.04373
2534.25036	0.04342
2532.96459	0.04331
2531.67882	0.04348
2530.39305	0.04374
2529.10728	0.04387
2527.82151	0.04374
2526.53574	0.04342
2525.24998	0.04306
2523.96421	0.04279
2522.67844	0.04259
2521.39267	0.04232
2520.10690	0.04197
2518.82113	0.04178
2517.53536	0.04199
2516.24959	0.04254
2514.96383	0.04313
2513.67806	0.04347
2512.39229	0.04345
2511.10652	0.04315
2509.82075	0.04278
2508.53498	0.04247
2507.24921	0.04226
2505.96344	0.04207
2504.67767	0.04192
2503.39191	0.04185
2502.10614	0.04186
2500.82037	0.04188
2499.53460	0.04189
2498.24883	0.04190
2496.96306	0.04189
2495.67729	0.04178
2494.39152	0.04150
2493.10576	0.04114
2491.81999	0.04085
2490.53422	0.04073
2489.24845	0.04079
2487.96268	0.04098
2486.67691	0.04118
2485.39114	0.04120
2484.10537	0.04100
2482.81960	0.04077
2481.53384	0.04078
2480.24807	0.04106
2478.96230	0.04135
2477.67653	0.04142
2476.39076	0.04122
2475.10499	0.04092
2473.81922	0.04067
2472.53345	0.04049
2471.24769	0.04036
2469.96192	0.04022
2468.67615	0.04008
2467.39038	0.04008
2466.10461	0.04034
2464.81884	0.04080
2463.53307	0.04119
2462.24730	0.04134
2460.96153	0.04135
2459.67577	0.04142
2458.39000	0.04159
2457.10423	0.04166
2455.81846	0.04149
2454.53269	0.04117
2453.24692	0.04097
2451.96115	0.04104
2450.67538	0.04124
2449.38962	0.04126
2448.10385	0.04096
2446.81808	0.04048
2445.53231	0.04008
2444.24654	0.03986
2442.96077	0.03974
2441.67500	0.03964
2440.38923	0.03955
2439.10346	0.03950
2437.81770	0.03947
2436.53193	0.03943
2435.24616	0.03934
2433.96039	0.03926
2432.67462	0.03926
2431.38885	0.03938
2430.10308	0.03956
2428.81731	0.03966
2427.53155	0.03963
2426.24578	0.03959
2424.96001	0.03967
2423.67424	0.03983
2422.38847	0.03987
2421.10270	0.03972
2419.81693	0.03948
2418.53116	0.03924
2417.24539	0.03906
2415.95963	0.03898
2414.67386	0.03909
2413.38809	0.03932
2412.10232	0.03948
2410.81655	0.03934
2409.53078	0.03894
2408.24501	0.03847
2406.95924	0.03815
2405.67347	0.03803
2404.38771	0.03808
2403.10194	0.03833
2401.81617	0.03886
2400.53040	0.03951
2399.24463	0.03974
2397.95886	0.03948
2396.67309	0.03882
2395.38732	0.03803
2394.10156	0.03745
2392.81579	0.03722
2391.53002	0.03731
2390.24425	0.03759
2388.95848	0.03796
2387.67271	0.03838
2386.38694	0.03883
2385.10117	0.03934
2383.81540	0.03993
2382.52964	0.04065
2381.24387	0.04150
2379.95810	0.04244
2378.67233	0.04333
2377.38656	0.04408
2376.10079	0.04483
2374.81502	0.04545
2373.52925	0.04547
2372.24349	0.04463
2370.95772	0.04287
2369.67195	0.04080
2368.38618	0.03887
2367.10041	0.03717
2365.81464	0.03629
2364.52887	0.03682
2363.24310	0.03802
2361.95733	0.03860
2360.67157	0.03817
2359.38580	0.03732
2358.10003	0.03620
2356.81426	0.03491
2355.52849	0.03382
2354.24272	0.03305
2352.95695	0.03296
2351.67118	0.03343
2350.38542	0.03419
2349.09965	0.03614
2347.81388	0.03977
2346.52811	0.04299
2345.24234	0.04350
2343.95657	0.04167
2342.67080	0.03953
2341.38503	0.03803
2340.09926	0.03715
2338.81350	0.03696
2337.52773	0.03721
2336.24196	0.03784
2334.95619	0.03832
2333.67042	0.03824
2332.38465	0.03789
2331.09888	0.03731
2329.81311	0.03669
2328.52735	0.03667
2327.24158	0.03711
2325.95581	0.03773
2324.67004	0.03841
2323.38427	0.03859
2322.09850	0.03814
2320.81273	0.03754
2319.52696	0.03697
2318.24119	0.03658
2316.95543	0.03662
2315.66966	0.03701
2314.38389	0.03739
2313.09812	0.03743
2311.81235	0.03719
2310.52658	0.03691
2309.24081	0.03675
2307.95504	0.03682
2306.66928	0.03701
2305.38351	0.03713
2304.09774	0.03717
2302.81197	0.03722
2301.52620	0.03731
2300.24043	0.03741
2298.95466	0.03746
2297.66889	0.03739
2296.38312	0.03718
2295.09736	0.03693
2293.81159	0.03674
2292.52582	0.03665
2291.24005	0.03661
2289.95428	0.03653
2288.66851	0.03640
2287.38274	0.03631
2286.09697	0.03631
2284.81121	0.03636
2283.52544	0.03630
2282.23967	0.03599
2280.95390	0.03544
2279.66813	0.03484
2278.38236	0.03436
2277.09659	0.03397
2275.81082	0.03349
2274.52505	0.03291
2273.23929	0.03243
2271.95352	0.03218
2270.66775	0.03200
2269.38198	0.03161
2268.09621	0.03095
2266.81044	0.03031
2265.52467	0.03011
2264.23890	0.03058
2262.95314	0.03159
2261.66737	0.03272
2260.38160	0.03346
2259.09583	0.03346
2257.81006	0.03276
2256.52429	0.03166
2255.23852	0.03050
2253.95275	0.02962
2252.66698	0.02924
2251.38122	0.02940
2250.09545	0.02978
2248.80968	0.02986
2247.52391	0.02974
2246.23814	0.02968
2244.95237	0.02991
2243.66660	0.03016
2242.38083	0.03006
2241.09507	0.02957
2239.80930	0.02908
2238.52353	0.02889
2237.23776	0.02894
2235.95199	0.02893
2234.66622	0.02873
2233.38045	0.02837
2232.09468	0.02788
2230.80891	0.02719
2229.52315	0.02637
2228.23738	0.02578
2226.95161	0.02585
2225.66584	0.02664
2224.38007	0.02771
2223.09430	0.02849
2221.80853	0.02866
2220.52276	0.02822
2219.23700	0.02746
2217.95123	0.02679
2216.66546	0.02656
2215.37969	0.02677
2214.09392	0.02700
2212.80815	0.02688
2211.52238	0.02642
2210.23661	0.02590
2208.95084	0.02549
2207.66508	0.02522
2206.37931	0.02510
2205.09354	0.02501
2203.80777	0.02467
2202.52200	0.02392
2201.23623	0.02292
2199.95046	0.02208
2198.66469	0.02169
2197.37893	0.02173
2196.09316	0.02201
2194.80739	0.02226
2193.52162	0.02238
2192.23585	0.02240
2190.95008	0.02241
2189.66431	0.02248
2188.37854	0.02263
2187.09277	0.02278
2185.80701	0.02273
2184.52124	0.02228
2183.23547	0.02148
2181.94970	0.02052
2180.66393	0.01949
2179.37816	0.01832
2178.09239	0.01724
2176.80662	0.01694
2175.52085	0.01809
2174.23509	0.02051
2172.94932	0.02300
2171.66355	0.02411
2170.37778	0.02340
2169.09201	0.02164
2167.80624	0.01982
2166.52047	0.01829
2165.23470	0.01701
2163.94894	0.01593
2162.66317	0.01493
2161.37740	0.01354
2160.09163	0.01159
2158.80586	0.00997
2157.52009	0.00991
2156.23432	0.01151
2154.94855	0.01359
2153.66278	0.01513
2152.37702	0.01607
2151.09125	0.01683
2149.80548	0.01750
2148.51971	0.01760
2147.23394	0.01670
2145.94817	0.01507
2144.66240	0.01371
2143.37663	0.01352
2142.09087	0.01453
2140.80510	0.01589
2139.51933	0.01683
2138.23356	0.01731
2136.94779	0.01769
2135.66202	0.01813
2134.37625	0.01859
2133.09048	0.01913
2131.80471	0.01983
2130.51895	0.02050
2129.23318	0.02093
2127.94741	0.02122
2126.66164	0.02162
2125.37587	0.02213
2124.09010	0.02249
2122.80433	0.02255
2121.51856	0.02241
2120.23280	0.02222
2118.94703	0.02207
2117.66126	0.02201
2116.37549	0.02209
2115.08972	0.02224
2113.80395	0.02236
2112.51818	0.02245
2111.23241	0.02260
2109.94664	0.02276
2108.66088	0.02268
2107.37511	0.02216
2106.08934	0.02137
2104.80357	0.02068
2103.51780	0.02042
2102.23203	0.02066
2100.94626	0.02134
2099.66049	0.02283
2098.37473	0.02385
2097.08896	0.02416
2095.80319	0.02381
2094.51742	0.02306
2093.23165	0.02245
2091.94588	0.02237
2090.66011	0.02265
2089.37434	0.02279
2088.08857	0.02246
2086.80281	0.02183
2085.51704	0.02134
2084.23127	0.02123
2082.94550	0.02143
2081.65973	0.02172
2080.37396	0.02191
2079.08819	0.02186
2077.80242	0.02154
2076.51666	0.02115
2075.23089	0.02099
2073.94512	0.02115
2072.65935	0.02127
2071.37358	0.02090
2070.08781	0.02001
2068.80204	0.01916
2067.51627	0.01885
2066.23050	0.01903
2064.94474	0.01921
2063.65897	0.01907
2062.37320	0.01882
2061.08743	0.01892
2059.80166	0.01944
2058.51589	0.01993
2057.23012	0.01987
2055.94435	0.01933
2054.65859	0.01885
2053.37282	0.01880
2052.08705	0.01895
2050.80128	0.01876
2049.51551	0.01802
2048.22974	0.01710
2046.94397	0.01640
2045.65820	0.01590
2044.37243	0.01524
2043.08667	0.01420
2041.80090	0.01297
2040.51513	0.01187
2039.22936	0.01108
2037.94359	0.01057
2036.65782	0.01016
2035.37205	0.00973
2034.08628	0.00937
2032.80052	0.00941
2031.51475	0.00995
2030.22898	0.01065
2028.94321	0.01104
2027.65744	0.01091
2026.37167	0.01038
2025.08590	0.00968
2023.80013	0.00909
2022.51436	0.00897
2021.22860	0.00959
2019.94283	0.01081
2018.65706	0.01210
2017.37129	0.01301
2016.08552	0.01357
2014.79975	0.01418
2013.51398	0.01506
2012.22821	0.01595
2010.94245	0.01633
2009.65668	0.01594
2008.37091	0.01510
2007.08514	0.01433
2005.79937	0.01379
2004.51360	0.01332
2003.22783	0.01300
2001.94206	0.01328
2000.65629	0.01443
1999.37053	0.01612
1998.08476	0.01772
1996.79899	0.01869
1995.51322	0.01872
1994.22745	0.01783
1992.94168	0.01655
1991.65591	0.01577
1990.37014	0.01602
1989.08438	0.01701
1987.79861	0.01805
1986.51284	0.01863
1985.22707	0.01872
1983.94130	0.01864
1982.65553	0.01872
1981.36976	0.01896
1980.08399	0.01887
1978.79822	0.01796
1977.51246	0.01635
1976.22669	0.01475
1974.94092	0.01390
1973.65515	0.01405
1972.36938	0.01492
1971.08361	0.01590
1969.79784	0.01638
1968.51207	0.01620
1967.22631	0.01575
1965.94054	0.01554
1964.65477	0.01570
1963.36900	0.01603
1962.08323	0.01637
1960.79746	0.01678
1959.51169	0.01739
1958.22592	0.01805
1956.94015	0.01841
1955.65439	0.01824
1954.36862	0.01767
1953.08285	0.01710
1951.79708	0.01692
1950.51131	0.01726
1949.22554	0.01790
1947.93977	0.01845
1946.65400	0.01865
1945.36823	0.01848
1944.08247	0.01815
1942.79670	0.01792
1941.51093	0.01792
1940.22516	0.01814
1938.93939	0.01848
1937.65362	0.01897
1936.36785	0.01965
1935.08208	0.02043
1933.79632	0.02108
1932.51055	0.02146
1931.22478	0.02158
1929.93901	0.02153
1928.65324	0.02141
1927.36747	0.02130
1926.08170	0.02131
1924.79593	0.02148
1923.51016	0.02170
1922.22440	0.02188
1920.93863	0.02203
1919.65286	0.02223
1918.36709	0.02255
1917.08132	0.02289
1915.79555	0.02306
1914.50978	0.02298
1913.22401	0.02277
1911.93825	0.02256
1910.65248	0.02240
1909.36671	0.02229
1908.08094	0.02225
1906.79517	0.02229
1905.50940	0.02237
1904.22363	0.02245
1902.93786	0.02246
1901.65209	0.02242
1900.36633	0.02238
1899.08056	0.02242
1897.79479	0.02251
1896.50902	0.02256
1895.22325	0.02247
1893.93748	0.02223
1892.65171	0.02187
1891.36594	0.02152
1890.08018	0.02138
1888.79441	0.02157
1887.50864	0.02204
1886.22287	0.02257
1884.93710	0.02294
1883.65133	0.02303
1882.36556	0.02290
1881.07979	0.02273
1879.79402	0.02266
1878.50826	0.02270
1877.22249	0.02279
1875.93672	0.02287
1874.65095	0.02294
1873.36518	0.02298
1872.07941	0.02296
1870.79364	0.02285
1869.50787	0.02276
1868.22211	0.02276
1866.93634	0.02280
1865.65057	0.02275
1864.36480	0.02257
1863.07903	0.02237
1861.79326	0.02226
1860.50749	0.02228
1859.22172	0.02240
1857.93595	0.02253
1856.65019	0.02262
1855.36442	0.02266
1854.07865	0.02273
1852.79288	0.02287
1851.50711	0.02308
1850.22134	0.02329
1848.93557	0.02341
1847.64980	0.02341
1846.36404	0.02322
1845.07827	0.02289
1843.79250	0.02258
1842.50673	0.02244
1841.22096	0.02251
1839.93519	0.02266
1838.64942	0.02280
1837.36365	0.02287
1836.07788	0.02297
1834.79212	0.02319
1833.50635	0.02350
1832.22058	0.02368
1830.93481	0.02362
1829.64904	0.02342
1828.36327	0.02328
1827.07750	0.02323
1825.79173	0.02320
1824.50597	0.02319
1823.22020	0.02318
1821.93443	0.02318
1820.64866	0.02318
1819.36289	0.02319
1818.07712	0.02319
1816.79135	0.02320
1815.50558	0.02321
1814.21981	0.02323
1812.93405	0.02322
1811.64828	0.02318
1810.36251	0.02313
1809.07674	0.02310
1807.79097	0.02313
1806.50520	0.02323
1805.21943	0.02341
1803.93366	0.02360
1802.64790	0.02374
1801.36213	0.02376
1800.07636	0.02373
1798.79059	0.02374
1797.50482	0.02386
1796.21905	0.02406
1794.93328	0.02420
1793.64751	0.02417
1792.36174	0.02403
1791.07598	0.02391
1789.79021	0.02390
1788.50444	0.02399
1787.21867	0.02408
1785.93290	0.02411
1784.64713	0.02408
1783.36136	0.02403
1782.07559	0.02401
1780.78983	0.02405
1779.50406	0.02416
1778.21829	0.02432
1776.93252	0.02449
1775.64675	0.02459
1774.36098	0.02459
1773.07521	0.02453
1771.78944	0.02452
1770.50367	0.02454
1769.21791	0.02445
1767.93214	0.02428
1766.64637	0.02416
1765.36060	0.02412
1764.07483	0.02408
1762.78906	0.02408
1761.50329	0.02418
1760.21752	0.02439
1758.93176	0.02460
1757.64599	0.02474
1756.36022	0.02490
1755.07445	0.02511
1753.78868	0.02525
1752.50291	0.02523
1751.21714	0.02514
1749.93137	0.02508
1748.64560	0.02506
1747.35984	0.02505
1746.07407	0.02502
1744.78830	0.02500
1743.50253	0.02497
1742.21676	0.02495
1740.93099	0.02498
1739.64522	0.02519
1738.35945	0.02564
1737.07369	0.02612
1735.78792	0.02629
1734.50215	0.02614
1733.21638	0.02590
1731.93061	0.02570
1730.64484	0.02550
1729.35907	0.02536
1728.07330	0.02538
1726.78753	0.02553
1725.50177	0.02570
1724.21600	0.02589
1722.93023	0.02617
1721.64446	0.02659
1720.35869	0.02700
1719.07292	0.02725
1717.78715	0.02736
1716.50138	0.02743
1715.21561	0.02751
1713.92985	0.02761
1712.64408	0.02781
1711.35831	0.02812
1710.07254	0.02845
1708.78677	0.02869
1707.50100	0.02886
1706.21523	0.02909
1704.92946	0.02960
1703.64370	0.03031
1702.35793	0.03091
1701.07216	0.03132
1699.78639	0.03176
1698.50062	0.03217
1697.21485	0.03227
1695.92908	0.03211
1694.64331	0.03206
1693.35754	0.03220
1692.07178	0.03236
1690.78601	0.03262
1689.50024	0.03314
1688.21447	0.03387
1686.92870	0.03447
1685.64293	0.03475
1684.35716	0.03488
1683.07139	0.03512
1681.78563	0.03545
1680.49986	0.03581
1679.21409	0.03623
1677.92832	0.03665
1676.64255	0.03695
1675.35678	0.03719
1674.07101	0.03753
1672.78524	0.03795
1671.49947	0.03828
1670.21371	0.03851
1668.92794	0.03877
1667.64217	0.03917
1666.35640	0.03964
1665.07063	0.04007
1663.78486	0.04040
1662.49909	0.04071
1661.21332	0.04104
1659.92756	0.04143
1658.64179	0.04197
1657.35602	0.04270
1656.07025	0.04338
1654.78448	0.04366
1653.49871	0.04358
1652.21294	0.04355
1650.92717	0.04371
1649.64140	0.04384
1648.35564	0.04375
1647.06987	0.04356
1645.78410	0.04344
1644.49833	0.04339
1643.21256	0.04336
1641.92679	0.04337
1640.64102	0.04351
1639.35525	0.04377
1638.06949	0.04395
1636.78372	0.04387
1635.49795	0.04367
1634.21218	0.04354
1632.92641	0.04349
1631.64064	0.04342
1630.35487	0.04329
1629.06910	0.04313
1627.78333	0.04301
1626.49757	0.04297
1625.21180	0.04295
1623.92603	0.04293
1622.64026	0.04298
1621.35449	0.04314
1620.06872	0.04328
1618.78295	0.04326
1617.49718	0.04311
1616.21142	0.04302
1614.92565	0.04305
1613.63988	0.04310
1612.35411	0.04311
1611.06834	0.04314
1609.78257	0.04327
1608.49680	0.04350
1607.21103	0.04378
1605.92526	0.04407
1604.63950	0.04433
1603.35373	0.04454
1602.06796	0.04471
1600.78219	0.04483
1599.49642	0.04494
1598.21065	0.04508
1596.92488	0.04529
1595.63911	0.04558
1594.35335	0.04596
1593.06758	0.04638
1591.78181	0.04682
1590.49604	0.04727
1589.21027	0.04771
1587.92450	0.04814
1586.63873	0.04856
1585.35296	0.04899
1584.06719	0.04942
1582.78143	0.04991
1581.49566	0.05050
1580.20989	0.05119
1578.92412	0.05187
1577.63835	0.05237
1576.35258	0.05283
1575.06681	0.05347
1573.78104	0.05427
1572.49528	0.05501
1571.20951	0.05559
1569.92374	0.05613
1568.63797	0.05673
1567.35220	0.05739
1566.06643	0.05808
1564.78066	0.05888
1563.49489	0.05985
1562.20912	0.06078
1560.92336	0.06143
1559.63759	0.06185
1558.35182	0.06228
1557.06605	0.06277
1555.78028	0.06316
1554.49451	0.06345
1553.20874	0.06377
1551.92297	0.06410
1550.63721	0.06440
1549.35144	0.06467
1548.06567	0.06495
1546.77990	0.06519
1545.49413	0.06536
1544.20836	0.06549
1542.92259	0.06547
1541.63682	0.06512
1540.35105	0.06447
1539.06529	0.06376
1537.77952	0.06317
1536.49375	0.06262
1535.20798	0.06198
1533.92221	0.06134
1532.63644	0.06088
1531.35067	0.06060
1530.06490	0.06041
1528.77914	0.06028
1527.49337	0.06024
1526.20760	0.06036
1524.92183	0.06064
1523.63606	0.06097
1522.35029	0.06128
1521.06452	0.06166
1519.77875	0.06215
1518.49298	0.06265
1517.20722	0.06311
1515.92145	0.06364
1514.63568	0.06432
1513.34991	0.06515
1512.06414	0.06619
1510.77837	0.06743
1509.49260	0.06869
1508.20683	0.06975
1506.92107	0.07062
1505.63530	0.07150
1504.34953	0.07245
1503.06376	0.07335
1501.77799	0.07419
1500.49222	0.07504
1499.20645	0.07589
1497.92068	0.07663
1496.63491	0.07724
1495.34915	0.07780
1494.06338	0.07837
1492.77761	0.07894
1491.49184	0.07951
1490.20607	0.08017
1488.92030	0.08092
1487.63453	0.08172
1486.34876	0.08254
1485.06299	0.08340
1483.77723	0.08434
1482.49146	0.08537
1481.20569	0.08655
1479.91992	0.08786
1478.63415	0.08921
1477.34838	0.09052
1476.06261	0.09175
1474.77684	0.09286
1473.49108	0.09388
1472.20531	0.09491
1470.91954	0.09599
1469.63377	0.09707
1468.34800	0.09807
1467.06223	0.09894
1465.77646	0.09973
1464.49069	0.10050
1463.20492	0.10135
1461.91916	0.10230
1460.63339	0.10328
1459.34762	0.10418
1458.06185	0.10488
1456.77608	0.10546
1455.49031	0.10601
1454.20454	0.10647
1452.91877	0.10683
1451.63301	0.10713
1450.34724	0.10744
1449.06147	0.10766
1447.77570	0.10774
1446.48993	0.10767
1445.20416	0.10744
1443.91839	0.10708
1442.63262	0.10664
1441.34685	0.10619
1440.06109	0.10573
1438.77532	0.10525
1437.48955	0.10480
1436.20378	0.10453
1434.91801	0.10452
1433.63224	0.10472
1432.34647	0.10508
1431.06070	0.10568
1429.77494	0.10656
1428.48917	0.10771
1427.20340	0.10908
1425.91763	0.11063
1424.63186	0.11235
1423.34609	0.11420
1422.06032	0.11600
1420.77455	0.11758
1419.48878	0.11891
1418.20302	0.12010
1416.91725	0.12119
1415.63148	0.12212
1414.34571	0.12287
1413.05994	0.12342
1411.77417	0.12373
1410.48840	0.12381
1409.20263	0.12364
1407.91687	0.12316
1406.63110	0.12233
1405.34533	0.12116
1404.05956	0.11974
1402.77379	0.11815
1401.48802	0.11638
1400.20225	0.11441
1398.91648	0.11231
1397.63071	0.11010
1396.34495	0.10775
1395.05918	0.10529
1393.77341	0.10281
1392.48764	0.10038
1391.20187	0.09804
1389.91610	0.09575
1388.63033	0.09352
1387.34456	0.09139
1386.05880	0.08939
1384.77303	0.08748
1383.48726	0.08562
1382.20149	0.08379
1380.91572	0.08199
1379.62995	0.08019
1378.34418	0.07838
1377.05841	0.07650
1375.77264	0.07450
1374.48688	0.07237
1373.20111	0.07014
1371.91534	0.06788
1370.62957	0.06565
1369.34380	0.06351
1368.05803	0.06153
1366.77226	0.05973
1365.48649	0.05805
1364.20073	0.05643
1362.91496	0.05486
1361.62919	0.05335
1360.34342	0.05193
1359.05765	0.05062
1357.77188	0.04945
1356.48611	0.04840
1355.20034	0.04746
1353.91457	0.04660
1352.62881	0.04578
1351.34304	0.04500
1350.05727	0.04426
1348.77150	0.04357
1347.48573	0.04292
1346.19996	0.04231
1344.91419	0.04172
1343.62842	0.04116
1342.34266	0.04063
1341.05689	0.04013
1339.77112	0.03967
1338.48535	0.03924
1337.19958	0.03879
1335.91381	0.03828
1334.62804	0.03776
1333.34227	0.03728
1332.05650	0.03689
1330.77074	0.03662
1329.48497	0.03640
1328.19920	0.03618
1326.91343	0.03592
1325.62766	0.03562
1324.34189	0.03532
1323.05612	0.03507
1321.77035	0.03488
1320.48459	0.03473
1319.19882	0.03459
1317.91305	0.03441
1316.62728	0.03419
1315.34151	0.03393
1314.05574	0.03364
1312.76997	0.03335
1311.48420	0.03309
1310.19843	0.03288
1308.91267	0.03270
1307.62690	0.03253
1306.34113	0.03234
1305.05536	0.03211
1303.76959	0.03182
1302.48382	0.03149
1301.19805	0.03116
1299.91228	0.03088
1298.62652	0.03066
1297.34075	0.03048
1296.05498	0.03032
1294.76921	0.03017
1293.48344	0.03003
1292.19767	0.02991
1290.91190	0.02976
1289.62613	0.02956
1288.34036	0.02930
1287.05460	0.02902
1285.76883	0.02877
1284.48306	0.02858
1283.19729	0.02847
1281.91152	0.02841
1280.62575	0.02836
1279.33998	0.02827
1278.05421	0.02813
1276.76845	0.02797
1275.48268	0.02781
1274.19691	0.02766
1272.91114	0.02757
1271.62537	0.02761
1270.33960	0.02782
1269.05383	0.02823
1267.76806	0.02881
1266.48229	0.02952
1265.19653	0.03028
1263.91076	0.03097
1262.62499	0.03141
1261.33922	0.03149
1260.05345	0.03117
1258.76768	0.03052
1257.48191	0.02970
1256.19614	0.02883
1254.91037	0.02801
1253.62461	0.02729
1252.33884	0.02667
1251.05307	0.02615
1249.76730	0.02572
1248.48153	0.02539
1247.19576	0.02512
1245.90999	0.02492
1244.62422	0.02475
1243.33846	0.02459
1242.05269	0.02441
1240.76692	0.02422
1239.48115	0.02403
1238.19538	0.02387
1236.90961	0.02375
1235.62384	0.02362
1234.33807	0.02347
1233.05230	0.02328
1231.76654	0.02310
1230.48077	0.02294
1229.19500	0.02279
1227.90923	0.02264
1226.62346	0.02248
1225.33769	0.02230
1224.05192	0.02211
1222.76615	0.02191
1221.48039	0.02172
1220.19462	0.02159
1218.90885	0.02151
1217.62308	0.02149
1216.33731	0.02148
1215.05154	0.02144
1213.76577	0.02131
1212.48000	0.02114
1211.19423	0.02098
1209.90847	0.02085
1208.62270	0.02075
1207.33693	0.02067
1206.05116	0.02063
1204.76539	0.02063
1203.47962	0.02066
1202.19385	0.02067
1200.90808	0.02057
1199.62232	0.02029
1198.33655	0.02008
1197.05078	0.01991
1195.76501	0.01983
1194.47924	0.01986
1193.19347	0.01991
1191.90770	0.01991
1190.62193	0.01982
1189.33616	0.01969
1188.05040	0.01957
1186.76463	0.01948
1185.47886	0.01947
1184.19309	0.01951
1182.90732	0.01953
1181.62155	0.01947
1180.33578	0.01936
1179.05001	0.01927
1177.76425	0.01927
1176.47848	0.01936
1175.19271	0.01946
1173.90694	0.01954
1172.62117	0.01960
1171.33540	0.01966
1170.04963	0.01977
1168.76386	0.01993
1167.47809	0.02015
1166.19233	0.02038
1164.90656	0.02064
1163.62079	0.02091
1162.33502	0.02122
1161.04925	0.02158
1159.76348	0.02194
1158.47771	0.02228
1157.19194	0.02256
1155.90618	0.02282
1154.62041	0.02312
1153.33464	0.02345
1152.04887	0.02380
1150.76310	0.02414
1149.47733	0.02455
1148.19156	0.02511
1146.90579	0.02585
1145.62002	0.02673
1144.33426	0.02769
1143.04849	0.02868
1141.76272	0.02967
1140.47695	0.03067
1139.19118	0.03172
1137.90541	0.03288
1136.61964	0.03420
1135.33387	0.03570
1134.04811	0.03740
1132.76234	0.03929
1131.47657	0.04136
1130.19080	0.04367
1128.90503	0.04629
1127.61926	0.04928
1126.33349	0.05258
1125.04772	0.05609
1123.76195	0.05973
1122.47619	0.06351
1121.19042	0.06747
1119.90465	0.07165
1118.61888	0.07594
1117.33311	0.08021
1116.04734	0.08439
1114.76157	0.08849
1113.47580	0.09254
1112.19004	0.09651
1110.90427	0.10040
1109.61850	0.10423
1108.33273	0.10799
1107.04696	0.11164
1105.76119	0.11515
1104.47542	0.11850
1103.18965	0.12174
1101.90388	0.12486
1100.61812	0.12783
1099.33235	0.13062
1098.04658	0.13325
1096.76081	0.13574
1095.47504	0.13810
1094.18927	0.14031
1092.90350	0.14234
1091.61773	0.14416
1090.33197	0.14578
1089.04620	0.14725
1087.76043	0.14868
1086.47466	0.15012
1085.18889	0.15164
1083.90312	0.15325
1082.61735	0.15500
1081.33158	0.15693
1080.04581	0.15910
1078.76005	0.16153
1077.47428	0.16419
1076.18851	0.16699
1074.90274	0.16990
1073.61697	0.17290
1072.33120	0.17599
1071.04543	0.17916
1069.75966	0.18242
1068.47390	0.18583
1067.18813	0.18940
1065.90236	0.19311
1064.61659	0.19688
1063.33082	0.20066
1062.04505	0.20446
1060.75928	0.20826
1059.47351	0.21204
1058.18774	0.21578
1056.90198	0.21947
1055.61621	0.22317
1054.33044	0.22692
1053.04467	0.23074
1051.75890	0.23466
1050.47313	0.23870
1049.18736	0.24291
1047.90159	0.24734
1046.61583	0.25196
1045.33006	0.25670
1044.04429	0.26148
1042.75852	0.26634
1041.47275	0.27135
1040.18698	0.27657
1038.90121	0.28195
1037.61544	0.28744
1036.32967	0.29294
1035.04391	0.29831
1033.75814	0.30341
1032.47237	0.30819
1031.18660	0.31273
1029.90083	0.31703
1028.61506	0.32097
1027.32929	0.32448
1026.04352	0.32757
1024.75775	0.33023
1023.47199	0.33244
1022.18622	0.33413
1020.90045	0.33532
1019.61468	0.33605
1018.32891	0.33628
1017.04314	0.33598
1015.75737	0.33509
1014.47160	0.33357
1013.18584	0.33140
1011.90007	0.32857
1010.61430	0.32510
1009.32853	0.32109
1008.04276	0.31660
1006.75699	0.31163
1005.47122	0.30612
1004.18545	0.30003
1002.89968	0.29347
1001.61392	0.28654
1000.32815	0.27929
999.04238	0.27165
997.75661	0.26361
996.47084	0.25527
995.18507	0.24678
993.89930	0.23828
992.61353	0.22983
991.32777	0.22150
990.04200	0.21332
988.75623	0.20539
987.47046	0.19782
986.18469	0.19066
984.89892	0.18383
983.61315	0.17726
982.32738	0.17092
981.04161	0.16489
979.75585	0.15924
978.47008	0.15402
977.18431	0.14923
975.89854	0.14486
974.61277	0.14093
973.32700	0.13750
972.04123	0.13468
970.75546	0.13258
969.46970	0.13128
968.18393	0.13076
966.89816	0.13089
965.61239	0.13152
964.32662	0.13248
963.04085	0.13354
961.75508	0.13441
960.46931	0.13476
959.18354	0.13430
957.89778	0.13290
956.61201	0.13067
955.32624	0.12788
954.04047	0.12480
952.75470	0.12160
951.46893	0.11839
950.18316	0.11523
948.89739	0.11216
947.61163	0.10916
946.32586	0.10620
945.04009	0.10328
943.75432	0.10047
942.46855	0.09786
941.18278	0.09548
939.89701	0.09329
938.61124	0.09125
937.32547	0.08933
936.03971	0.08745
934.75394	0.08555
933.46817	0.08367
932.18240	0.08191
930.89663	0.08034
929.61086	0.07896
928.32509	0.07769
927.03932	0.07652
925.75356	0.07542
924.46779	0.07438
923.18202	0.07336
921.89625	0.07235
920.61048	0.07141
919.32471	0.07060
918.03894	0.06990
916.75317	0.06920
915.46740	0.06845
914.18164	0.06768
912.89587	0.06696
911.61010	0.06630
910.32433	0.06567
909.03856	0.06500
907.75279	0.06429
906.46702	0.06358
905.18125	0.06295
903.89549	0.06240
902.60972	0.06184
901.32395	0.06122
900.03818	0.06058
898.75241	0.06008
897.46664	0.05978
896.18087	0.05962
894.89510	0.05946
893.60933	0.05926
892.32357	0.05903
891.03780	0.05885
889.75203	0.05883
888.46626	0.05911
887.18049	0.05979
885.89472	0.06096
884.60895	0.06277
883.32318	0.06528
882.03742	0.06831
880.75165	0.07136
879.46588	0.07384
878.18011	0.07554
876.89434	0.07680
875.60857	0.07810
874.32280	0.07960
873.03703	0.08097
871.75126	0.08176
870.46550	0.08176
869.17973	0.08103
867.89396	0.07969
866.60819	0.07784
865.32242	0.07565
864.03665	0.07334
862.75088	0.07110
861.46511	0.06906
860.17935	0.06723
858.89358	0.06556
857.60781	0.06402
856.32204	0.06261
855.03627	0.06142
853.75050	0.06046
852.46473	0.05969
851.17896	0.05900
849.89319	0.05834
848.60743	0.05767
847.32166	0.05701
846.03589	0.05640
844.75012	0.05588
843.46435	0.05543
842.17858	0.05502
840.89281	0.05461
839.60704	0.05420
838.32128	0.05382
837.03551	0.05352
835.74974	0.05331
834.46397	0.05316
833.17820	0.05302
831.89243	0.05285
830.60666	0.05264
829.32089	0.05248
828.03512	0.05246
826.74936	0.05259
825.46359	0.05282
824.17782	0.05303
822.89205	0.05323
821.60628	0.05346
820.32051	0.05368
819.03474	0.05387
817.74897	0.05402
816.46321	0.05414
815.17744	0.05424
813.89167	0.05426
812.60590	0.05423
811.32013	0.05428
810.03436	0.05452
808.74859	0.05488
807.46282	0.05522
806.17705	0.05546
804.89129	0.05563
803.60552	0.05577
802.31975	0.05585
801.03398	0.05583
799.74821	0.05568
798.46244	0.05545
797.17667	0.05518
795.89090	0.05491
794.60513	0.05462
793.31937	0.05428
792.03360	0.05387
790.74783	0.05338
789.46206	0.05282
788.17629	0.05220
786.89052	0.05158
785.60475	0.05099
784.31898	0.05044
783.03322	0.04991
781.74745	0.04938
780.46168	0.04885
779.17591	0.04833
777.89014	0.04787
776.60437	0.04754
775.31860	0.04731
774.03283	0.04715
772.74706	0.04702
771.46130	0.04693
770.17553	0.04691
768.88976	0.04691
767.60399	0.04688
766.31822	0.04679
765.03245	0.04670
763.74668	0.04664
762.46091	0.04662
761.17515	0.04664
759.88938	0.04670
758.60361	0.04679
757.31784	0.04684
756.03207	0.04678
754.74630	0.04669
753.46053	0.04666
752.17476	0.04671
750.88899	0.04675
749.60323	0.04667
748.31746	0.04648
747.03169	0.04631
745.74592	0.04624
744.46015	0.04628
743.17438	0.04631
741.88861	0.04618
740.60284	0.04589
739.31708	0.04556
738.03131	0.04530
736.74554	0.04517
735.45977	0.04512
734.17400	0.04513
732.88823	0.04517
731.60246	0.04519
730.31669	0.04513
729.03092	0.04501
727.74516	0.04488
726.45939	0.04480
725.17362	0.04474
723.88785	0.04459
722.60208	0.04444
721.31631	0.04433
720.03054	0.04422
718.74477	0.04408
717.45901	0.04402
716.17324	0.04401
714.88747	0.04398
713.60170	0.04394
712.31593	0.04390
711.03016	0.04386
709.74439	0.04382
708.45862	0.04378
707.17285	0.04372
705.88709	0.04365
704.60132	0.04357
703.31555	0.04352
702.02978	0.04351
700.74401	0.04351
699.45824	0.04351
698.17247	0.04346
696.88670	0.04334
695.60094	0.04316
694.31517	0.04295
693.02940	0.04276
691.74363	0.04263
690.45786	0.04254
689.17209	0.04247
687.88632	0.04239
686.60055	0.04227
685.31478	0.04208
684.02902	0.04184
682.74325	0.04157
681.45748	0.04132
680.17171	0.04113
678.88594	0.04099
677.60017	0.04092
676.31440	0.04095
675.02863	0.04104
673.74287	0.04109
672.45710	0.04092
671.17133	0.04069
669.88556	0.04107
668.59979	0.04205
667.31402	0.04170
666.02825	0.04052
664.74248	0.04027
663.45671	0.04047
662.17095	0.04049
660.88518	0.04032
659.59941	0.04015
658.31364	0.04002
657.02787	0.03992
655.74210	0.03982
654.45633	0.03969
653.17056	0.03956
651.88480	0.03945
650.59903	0.03939
649.31326	0.03938
648.02749	0.03941
646.74172	0.03949
645.45595	0.03961
644.17018	0.03976
642.88441	0.03994
641.59864	0.04015
640.31288	0.04038
639.02711	0.04062
637.74134	0.04089
636.45557	0.04120
635.16980	0.04161
633.88403	0.04214
632.59826	0.04285
631.31249	0.04392
630.02673	0.04539
628.74096	0.04642
627.45519	0.04622
626.16942	0.04777
624.88365	0.05089
623.59788	0.05478
622.31211	0.05862
621.02634	0.06140
619.74057	0.06305
618.45481	0.06471
617.16904	0.06731
615.88327	0.07081
614.59750	0.07475
613.31173	0.07874
612.02596	0.08281
610.74019	0.08763
609.45442	0.09412
608.16866	0.10228
606.88289	0.11091
605.59712	0.11860
604.31135	0.12432
603.02558	0.12747
601.73981	0.12794
600.45404	0.12609
599.16827	0.12265
597.88250	0.11850
596.59674	0.11435
595.31097	0.11050
594.02520	0.10702
592.73943	0.10394
591.45366	0.10144
590.16789	0.09967
588.88212	0.09869
587.59635	0.09848
586.31059	0.09902
585.02482	0.10029
583.73905	0.10220
582.45328	0.10459
581.16751	0.10732
579.88174	0.11035
578.59597	0.11364
577.31020	0.11706
576.02443	0.12046
574.73867	0.12378
573.45290	0.12710
572.16713	0.13054
570.88136	0.13421
569.59559	0.13826
568.30982	0.14289
567.02405	0.14818
565.73828	0.15390
564.45251	0.15944
563.16675	0.16407
561.88098	0.16721
560.59521	0.16847
559.30944	0.16764
558.02367	0.16463
556.73790	0.15967
555.45213	0.15325
554.16636	0.14604
552.88060	0.13861
551.59483	0.13137
550.30906	0.12449
549.02329	0.11805
547.73752	0.11203
546.45175	0.10637
545.16598	0.10106
543.88021	0.09627
542.59444	0.09226
541.30868	0.08906
540.02291	0.08632
538.73714	0.08363
537.45137	0.08078
536.16560	0.07793
534.87983	0.07533
533.59406	0.07308
532.30829	0.07107
531.02253	0.06916
529.73676	0.06729
528.45099	0.06546
527.16522	0.06375
525.87945	0.06222
524.59368	0.06090
523.30791	0.05969
522.02214	0.05844
520.73637	0.05707
519.45061	0.05565
518.16484	0.05427
516.87907	0.05303
515.59330	0.05195
514.30753	0.05100
513.02176	0.05010
511.73599	0.04915
510.45022	0.04814
509.16446	0.04716
507.87869	0.04631
506.59292	0.04560
505.30715	0.04497
504.02138	0.04432
502.73561	0.04363
501.44984	0.04292
500.16407	0.04226
498.87830	0.04172
497.59254	0.04126
496.30677	0.04082
495.02100	0.04032
493.73523	0.03979
492.44946	0.03932
491.16369	0.03898
489.87792	0.03875
488.59215	0.03849
487.30639	0.03816
486.02062	0.03781
484.73485	0.03755
483.44908	0.03744
482.16331	0.03743
480.87754	0.03745
479.59177	0.03748
478.30600	0.03754
477.02023	0.03769
475.73447	0.03789
474.44870	0.03809
473.16293	0.03823
471.87716	0.03829
470.59139	0.03825
469.30562	0.03813
468.01985	0.03795
466.73408	0.03773
465.44832	0.03744
464.16255	0.03703
462.87678	0.03652
461.59101	0.03600
460.30524	0.03556
459.01947	0.03517
457.73370	0.03474
456.44793	0.03425
455.16216	0.03374
453.87640	0.03329
452.59063	0.03293
451.30486	0.03263
450.01909	0.03236
448.73332	0.03210
447.44755	0.03183
446.16178	0.03158
444.87601	0.03137
443.59025	0.03126
442.30448	0.03124
441.01871	0.03125
439.73294	0.03121
438.44717	0.03105
437.16140	0.03079
435.87563	0.03051
434.58986	0.03025
433.30409	0.03007
432.01833	0.02997
430.73256	0.02998
429.44679	0.03003
428.16102	0.03006
426.87525	0.03002
425.58948	0.02991
424.30371	0.02979
423.01794	0.02964
421.73218	0.02945
420.44641	0.02923
419.16064	0.02908
417.87487	0.02900
416.58910	0.02894
415.30333	0.02883
414.01756	0.02871
412.73179	0.02862
411.44602	0.02857
410.16026	0.02857
408.87449	0.02866
407.58872	0.02886
406.30295	0.02912
405.01718	0.02936
403.73141	0.02950
402.44564	0.02955
401.15987	0.02953
399.87411	0.02948
