3997.45528	0.02702
3996.16951	0.02679
3994.88374	0.02683
3993.59798	0.02725
3992.31221	0.02789
3991.02644	0.02848
3989.74067	0.02880
3988.45490	0.02891
3987.16913	0.02898
3985.88336	0.02914
3984.59759	0.02930
3983.31183	0.02938
3982.02606	0.02940
3980.74029	0.02944
3979.45452	0.02949
3978.16875	0.02945
3976.88298	0.02929
3975.59721	0.02912
3974.31144	0.02905
3973.02567	0.02900
3971.73991	0.02873
3970.45414	0.02799
3969.16837	0.02688
3967.88260	0.02589
3966.59683	0.02555
3965.31106	0.02600
3964.02529	0.02687
3962.73952	0.02769
3961.45376	0.02829
3960.16799	0.02864
3958.88222	0.02866
3957.59645	0.02823
3956.31068	0.02754
3955.02491	0.02704
3953.73914	0.02710
3952.45337	0.02763
3951.16760	0.02828
3949.88184	0.02869
3948.59607	0.02873
3947.31030	0.02851
3946.02453	0.02826
3944.73876	0.02825
3943.45299	0.02858
3942.16722	0.02906
3940.88145	0.02921
3939.59569	0.02861
3938.30992	0.02736
3937.02415	0.02608
3935.73838	0.02538
3934.45261	0.02536
3933.16684	0.02566
3931.88107	0.02587
3930.59530	0.02589
3929.30953	0.02590
3928.02377	0.02602
3926.73800	0.02612
3925.45223	0.02604
3924.16646	0.02592
3922.88069	0.02608
3921.59492	0.02670
3920.30915	0.02760
3919.02338	0.02843
3917.73762	0.02886
3916.45185	0.02885
3915.16608	0.02860
3913.88031	0.02829
3912.59454	0.02805
3911.30877	0.02790
3910.02300	0.02788
3908.73723	0.02803
3907.45146	0.02822
3906.16570	0.02811
3904.87993	0.02749
3903.59416	0.02654
3902.30839	0.02573
3901.02262	0.02553
3899.73685	0.02608
3898.45108	0.02706
3897.16531	0.02791
3895.87955	0.02824
3894.59378	0.02805
3893.30801	0.02744
3892.02224	0.02651
3890.73647	0.02560
3889.45070	0.02516
3888.16493	0.02540
3886.87916	0.02624
3885.59339	0.02736
3884.30763	0.02818
3883.02186	0.02821
3881.73609	0.02754
3880.45032	0.02678
3879.16455	0.02641
3877.87878	0.02638
3876.59301	0.02647
3875.30724	0.02665
3874.02148	0.02688
3872.73571	0.02689
3871.44994	0.02651
3870.16417	0.02615
3868.87840	0.02626
3867.59263	0.02654
3866.30686	0.02654
3865.02109	0.02645
3863.73532	0.02674
3862.44956	0.02742
3861.16379	0.02807
3859.87802	0.02824
3858.59225	0.02784
3857.30648	0.02714
3856.02071	0.02646
3854.73494	0.02612
3853.44917	0.02631
3852.16341	0.02675
3850.87764	0.02695
3849.59187	0.02683
3848.30610	0.02665
3847.02033	0.02646
3845.73456	0.02614
3844.44879	0.02576
3843.16302	0.02562
3841.87725	0.02589
3840.59149	0.02626
3839.30572	0.02639
3838.01995	0.02627
3836.73418	0.02602
3835.44841	0.02544
3834.16264	0.02447
3832.87687	0.02361
3831.59110	0.02351
3830.30534	0.02427
3829.01957	0.02536
3827.73380	0.02624
3826.44803	0.02684
3825.16226	0.02725
3823.87649	0.02726
3822.59072	0.02676
3821.30495	0.02628
3820.01918	0.02636
3818.73342	0.02679
3817.44765	0.02693
3816.16188	0.02667
3814.87611	0.02631
3813.59034	0.02597
3812.30457	0.02573
3811.01880	0.02578
3809.73303	0.02604
3808.44726	0.02621
3807.16150	0.02631
3805.87573	0.02657
3804.58996	0.02694
3803.30419	0.02721
3802.01842	0.02738
3800.73265	0.02744
3799.44688	0.02705
3798.16111	0.02610
3796.87535	0.02516
3795.58958	0.02489
3794.30381	0.02524
3793.01804	0.02580
3791.73227	0.02625
3790.44650	0.02639
3789.16073	0.02617
3787.87496	0.02582
3786.58919	0.02563
3785.30343	0.02568
3784.01766	0.02570
3782.73189	0.02538
3781.44612	0.02471
3780.16035	0.02395
3778.87458	0.02342
3777.58881	0.02320
3776.30304	0.02326
3775.01728	0.02356
3773.73151	0.02394
3772.44574	0.02403
3771.15997	0.02373
3769.87420	0.02337
3768.58843	0.02331
3767.30266	0.02354
3766.01689	0.02378
3764.73112	0.02393
3763.44536	0.02396
3762.15959	0.02395
3760.87382	0.02405
3759.58805	0.02433
3758.30228	0.02463
3757.01651	0.02472
3755.73074	0.02454
3754.44497	0.02414
3753.15921	0.02391
3751.87344	0.02420
3750.58767	0.02494
3749.30190	0.02575
3748.01613	0.02621
3746.73036	0.02589
3745.44459	0.02501
3744.15882	0.02447
3742.87305	0.02449
3741.58729	0.02440
3740.30152	0.02396
3739.01575	0.02362
3737.72998	0.02382
3736.44421	0.02462
3735.15844	0.02562
3733.87267	0.02614
3732.58690	0.02590
3731.30114	0.02529
3730.01537	0.02476
3728.72960	0.02444
3727.44383	0.02438
3726.15806	0.02465
3724.87229	0.02507
3723.58652	0.02530
3722.30075	0.02520
3721.01498	0.02484
3719.72922	0.02444
3718.44345	0.02423
3717.15768	0.02433
3715.87191	0.02460
3714.58614	0.02470
3713.30037	0.02450
3712.01460	0.02413
3710.72883	0.02381
3709.44307	0.02365
3708.15730	0.02373
3706.87153	0.02406
3705.58576	0.02442
3704.29999	0.02451
3703.01422	0.02421
3701.72845	0.02368
3700.44268	0.02302
3699.15691	0.02220
3697.87115	0.02142
3696.58538	0.02106
3695.29961	0.02124
3694.01384	0.02166
3692.72807	0.02211
3691.44230	0.02247
3690.15653	0.02267
3688.87076	0.02285
3687.58500	0.02318
3686.29923	0.02348
3685.01346	0.02358
3683.72769	0.02364
3682.44192	0.02389
3681.15615	0.02439
3679.87038	0.02498
3678.58461	0.02536
3677.29884	0.02530
3676.01308	0.02512
3674.72731	0.02537
3673.44154	0.02608
3672.15577	0.02667
3670.87000	0.02690
3669.58423	0.02690
3668.29846	0.02670
3667.01269	0.02634
3665.72693	0.02593
3664.44116	0.02557
3663.15539	0.02525
3661.86962	0.02503
3660.58385	0.02489
3659.29808	0.02461
3658.01231	0.02408
3656.72654	0.02370
3655.44077	0.02396
3654.15501	0.02470
3652.86924	0.02522
3651.58347	0.02520
3650.29770	0.02489
3649.01193	0.02453
3647.72616	0.02417
3646.44039	0.02388
3645.15462	0.02401
3643.86886	0.02475
3642.58309	0.02589
3641.29732	0.02696
3640.01155	0.02762
3638.72578	0.02787
3637.44001	0.02788
3636.15424	0.02773
3634.86847	0.02745
3633.58270	0.02719
3632.29694	0.02699
3631.01117	0.02673
3629.72540	0.02638
3628.43963	0.02607
3627.15386	0.02580
3625.86809	0.02565
3624.58232	0.02591
3623.29655	0.02668
3622.01079	0.02747
3620.72502	0.02771
3619.43925	0.02738
3618.15348	0.02687
3616.86771	0.02652
3615.58194	0.02645
3614.29617	0.02669
3613.01040	0.02721
3611.72463	0.02783
3610.43887	0.02829
3609.15310	0.02851
3607.86733	0.02861
3606.58156	0.02870
3605.29579	0.02884
3604.01002	0.02897
3602.72425	0.02890
3601.43848	0.02856
3600.15272	0.02827
3598.86695	0.02843
3597.58118	0.02914
3596.29541	0.03009
3595.00964	0.03071
3593.72387	0.03070
3592.43810	0.03024
3591.15233	0.02984
3589.86656	0.02988
3588.58080	0.03033
3587.29503	0.03080
3586.00926	0.03081
3584.72349	0.03031
3583.43772	0.02985
3582.15195	0.02993
3580.86618	0.03041
3579.58041	0.03084
3578.29464	0.03097
3577.00888	0.03106
3575.72311	0.03145
3574.43734	0.03215
3573.15157	0.03286
3571.86580	0.03337
3570.58003	0.03369
3569.29426	0.03396
3568.00849	0.03422
3566.72273	0.03434
3565.43696	0.03415
3564.15119	0.03361
3562.86542	0.03282
3561.57965	0.03197
3560.29388	0.03134
3559.00811	0.03117
3557.72234	0.03145
3556.43657	0.03195
3555.15081	0.03241
3553.86504	0.03271
3552.57927	0.03284
3551.29350	0.03280
3550.00773	0.03260
3548.72196	0.03237
3547.43619	0.03228
3546.15042	0.03233
3544.86466	0.03237
3543.57889	0.03237
3542.29312	0.03256
3541.00735	0.03312
3539.72158	0.03384
3538.43581	0.03424
3537.15004	0.03408
3535.86427	0.03359
3534.57850	0.03313
3533.29274	0.03285
3532.00697	0.03275
3530.72120	0.03295
3529.43543	0.03356
3528.14966	0.03454
3526.86389	0.03547
3525.57812	0.03584
3524.29235	0.03541
3523.00659	0.03441
3521.72082	0.03342
3520.43505	0.03300
3519.14928	0.03333
3517.86351	0.03408
3516.57774	0.03471
3515.29197	0.03487
3514.00620	0.03471
3512.72043	0.03456
3511.43467	0.03459
3510.14890	0.03473
3508.86313	0.03488
3507.57736	0.03501
3506.29159	0.03523
3505.00582	0.03557
3503.72005	0.03597
3502.43428	0.03624
3501.14852	0.03625
3499.86275	0.03611
3498.57698	0.03610
3497.29121	0.03637
3496.00544	0.03676
3494.71967	0.03697
3493.43390	0.03688
3492.14813	0.03664
3490.86236	0.03643
3489.57660	0.03630
3488.29083	0.03616
3487.00506	0.03597
3485.71929	0.03581
3484.43352	0.03582
3483.14775	0.03604
3481.86198	0.03636
3480.57621	0.03659
3479.29045	0.03663
3478.00468	0.03659
3476.71891	0.03669
3475.43314	0.03707
3474.14737	0.03766
3472.86160	0.03825
3471.57583	0.03861
3470.29006	0.03875
3469.00429	0.03878
3467.71853	0.03870
3466.43276	0.03839
3465.14699	0.03788
3463.86122	0.03745
3462.57545	0.03739
3461.28968	0.03771
3460.00391	0.03812
3458.71814	0.03829
3457.43238	0.03818
3456.14661	0.03798
3454.86084	0.03791
3453.57507	0.03804
3452.28930	0.03828
3451.00353	0.03853
3449.71776	0.03878
3448.43199	0.03900
3447.14622	0.03913
3445.86046	0.03907
3444.57469	0.03877
3443.28892	0.03832
3442.00315	0.03781
3440.71738	0.03734
3439.43161	0.03704
3438.14584	0.03711
3436.86007	0.03760
3435.57431	0.03830
3434.28854	0.03894
3433.00277	0.03943
3431.71700	0.03984
3430.43123	0.04025
3429.14546	0.04064
3427.85969	0.04090
3426.57392	0.04091
3425.28815	0.04060
3424.00239	0.04010
3422.71662	0.03976
3421.43085	0.03983
3420.14508	0.04033
3418.85931	0.04102
3417.57354	0.04156
3416.28777	0.04168
3415.00200	0.04132
3413.71624	0.04073
3412.43047	0.04032
3411.14470	0.04041
3409.85893	0.04089
3408.57316	0.04134
3407.28739	0.04147
3406.00162	0.04135
3404.71585	0.04120
3403.43008	0.04113
3402.14432	0.04105
3400.85855	0.04090
3399.57278	0.04083
3398.28701	0.04094
3397.00124	0.04123
3395.71547	0.04156
3394.42970	0.04178
3393.14393	0.04181
3391.85817	0.04169
3390.57240	0.04154
3389.28663	0.04150
3388.00086	0.04163
3386.71509	0.04178
3385.42932	0.04180
3384.14355	0.04163
3382.85778	0.04136
3381.57201	0.04107
3380.28625	0.04090
3379.00048	0.04094
3377.71471	0.04115
3376.42894	0.04144
3375.14317	0.04166
3373.85740	0.04177
3372.57163	0.04175
3371.28586	0.04165
3370.00010	0.04153
3368.71433	0.04146
3367.42856	0.04150
3366.14279	0.04163
3364.85702	0.04183
3363.57125	0.04202
3362.28548	0.04202
3360.99971	0.04172
3359.71394	0.04129
3358.42818	0.04109
3357.14241	0.04138
3355.85664	0.04199
3354.57087	0.04247
3353.28510	0.04249
3351.99933	0.04211
3350.71356	0.04165
3349.42779	0.04140
3348.14202	0.04137
3346.85626	0.04136
3345.57049	0.04126
3344.28472	0.04111
3342.99895	0.04105
3341.71318	0.04110
3340.42741	0.04117
3339.14164	0.04118
3337.85587	0.04117
3336.57011	0.04118
3335.28434	0.04123
3333.99857	0.04135
3332.71280	0.04162
3331.42703	0.04208
3330.14126	0.04253
3328.85549	0.04259
3327.56972	0.04205
3326.28395	0.04111
3324.99819	0.04033
3323.71242	0.04013
3322.42665	0.04043
3321.14088	0.04082
3319.85511	0.04088
3318.56934	0.04052
3317.28357	0.03999
3315.99780	0.03972
3314.71204	0.03993
3313.42627	0.04051
3312.14050	0.04117
3310.85473	0.04170
3309.56896	0.04209
3308.28319	0.04237
3306.99742	0.04251
3305.71165	0.04244
3304.42588	0.04210
3303.14012	0.04155
3301.85435	0.04101
3300.56858	0.04070
3299.28281	0.04068
3297.99704	0.04085
3296.71127	0.04109
3295.42550	0.04139
3294.13973	0.04174
3292.85397	0.04200
3291.56820	0.04202
3290.28243	0.04178
3288.99666	0.04144
3287.71089	0.04117
3286.42512	0.04107
3285.13935	0.04104
3283.85358	0.04098
3282.56781	0.04088
3281.28205	0.04088
3279.99628	0.04115
3278.71051	0.04164
3277.42474	0.04210
3276.13897	0.04226
3274.85320	0.04213
3273.56743	0.04187
3272.28166	0.04167
3270.99590	0.04154
3269.71013	0.04134
3268.42436	0.04100
3267.13859	0.04055
3265.85282	0.04016
3264.56705	0.03995
3263.28128	0.03992
3261.99551	0.04000
3260.70974	0.04013
3259.42398	0.04033
3258.13821	0.04062
3256.85244	0.04089
3255.56667	0.04103
3254.28090	0.04097
3252.99513	0.04078
3251.70936	0.04058
3250.42359	0.04047
3249.13783	0.04043
3247.85206	0.04037
3246.56629	0.04025
3245.28052	0.04014
3243.99475	0.04010
3242.70898	0.04019
3241.42321	0.04040
3240.13744	0.04069
3238.85167	0.04092
3237.56591	0.04096
3236.28014	0.04074
3234.99437	0.04028
3233.70860	0.03969
3232.42283	0.03920
3231.13706	0.03893
3229.85129	0.03889
3228.56552	0.03898
3227.27976	0.03915
3225.99399	0.03944
3224.70822	0.03987
3223.42245	0.04030
3222.13668	0.04055
3220.85091	0.04058
3219.56514	0.04051
3218.27937	0.04051
3216.99360	0.04058
3215.70784	0.04063
3214.42207	0.04056
3213.13630	0.04040
3211.85053	0.04020
3210.56476	0.04001
3209.27899	0.03989
3207.99322	0.03988
3206.70745	0.03998
3205.42169	0.04012
3204.13592	0.04020
3202.85015	0.04014
3201.56438	0.03997
3200.27861	0.03981
3198.99284	0.03978
3197.70707	0.03987
3196.42130	0.03986
3195.13553	0.03957
3193.84977	0.03903
3192.56400	0.03853
3191.27823	0.03835
3189.99246	0.03853
3188.70669	0.03887
3187.42092	0.03919
3186.13515	0.03942
3184.84938	0.03954
3183.56362	0.03957
3182.27785	0.03950
3180.99208	0.03936
3179.70631	0.03914
3178.42054	0.03888
3177.13477	0.03869
3175.84900	0.03860
3174.56323	0.03856
3173.27746	0.03843
3171.99170	0.03816
3170.70593	0.03785
3169.42016	0.03763
3168.13439	0.03755
3166.84862	0.03754
3165.56285	0.03743
3164.27708	0.03714
3162.99131	0.03681
3161.70555	0.03668
3160.41978	0.03687
3159.13401	0.03726
3157.84824	0.03765
3156.56247	0.03795
3155.27670	0.03827
3153.99093	0.03872
3152.70516	0.03926
3151.41939	0.03963
3150.13363	0.03965
3148.84786	0.03938
3147.56209	0.03902
3146.27632	0.03871
3144.99055	0.03843
3143.70478	0.03820
3142.41901	0.03809
3141.13324	0.03810
3139.84748	0.03813
3138.56171	0.03808
3137.27594	0.03798
3135.99017	0.03798
3134.70440	0.03812
3133.41863	0.03831
3132.13286	0.03839
3130.84709	0.03828
3129.56132	0.03805
3128.27556	0.03776
3126.98979	0.03740
3125.70402	0.03697
3124.41825	0.03667
3123.13248	0.03664
3121.84671	0.03680
3120.56094	0.03692
3119.27517	0.03691
3117.98940	0.03687
3116.70364	0.03689
3115.41787	0.03693
3114.13210	0.03682
3112.84633	0.03650
3111.56056	0.03607
3110.27479	0.03572
3108.98902	0.03558
3107.70325	0.03565
3106.41749	0.03583
3105.13172	0.03605
3103.84595	0.03626
3102.56018	0.03642
3101.27441	0.03646
3099.98864	0.03630
3098.70287	0.03593
3097.41710	0.03547
3096.13133	0.03513
3094.84557	0.03505
3093.55980	0.03523
3092.27403	0.03558
3090.98826	0.03592
3089.70249	0.03609
3088.41672	0.03606
3087.13095	0.03600
3085.84518	0.03610
3084.55942	0.03634
3083.27365	0.03653
3081.98788	0.03647
3080.70211	0.03617
3079.41634	0.03583
3078.13057	0.03557
3076.84480	0.03538
3075.55903	0.03517
3074.27326	0.03493
3072.98750	0.03479
3071.70173	0.03489
3070.41596	0.03527
3069.13019	0.03579
3067.84442	0.03621
3066.55865	0.03626
3065.27288	0.03588
3063.98711	0.03530
3062.70135	0.03483
3061.41558	0.03463
3060.12981	0.03462
3058.84404	0.03467
3057.55827	0.03469
3056.27250	0.03463
3054.98673	0.03447
3053.70096	0.03427
3052.41519	0.03416
3051.12943	0.03415
3049.84366	0.03411
3048.55789	0.03392
3047.27212	0.03365
3045.98635	0.03352
3044.70058	0.03364
3043.41481	0.03392
3042.12904	0.03420
3040.84328	0.03430
3039.55751	0.03418
3038.27174	0.03392
3036.98597	0.03370
3035.70020	0.03362
3034.41443	0.03366
3033.12866	0.03371
3031.84289	0.03368
3030.55712	0.03356
3029.27136	0.03336
3027.98559	0.03310
3026.69982	0.03282
3025.41405	0.03255
3024.12828	0.03233
3022.84251	0.03221
3021.55674	0.03222
3020.27097	0.03241
3018.98521	0.03276
3017.69944	0.03318
3016.41367	0.03344
3015.12790	0.03340
3013.84213	0.03306
3012.55636	0.03266
3011.27059	0.03242
3009.98482	0.03238
3008.69905	0.03241
3007.41329	0.03236
3006.12752	0.03222
3004.84175	0.03215
3003.55598	0.03229
3002.27021	0.03263
3000.98444	0.03299
2999.69867	0.03318
2998.41290	0.03315
2997.12714	0.03303
2995.84137	0.03297
2994.55560	0.03299
2993.26983	0.03303
2991.98406	0.03293
2990.69829	0.03261
2989.41252	0.03214
2988.12675	0.03178
2986.84098	0.03182
2985.55522	0.03225
2984.26945	0.03274
2982.98368	0.03298
2981.69791	0.03301
2980.41214	0.03308
2979.12637	0.03335
2977.84060	0.03368
2976.55483	0.03388
2975.26907	0.03399
2973.98330	0.03420
2972.69753	0.03459
2971.41176	0.03498
2970.12599	0.03516
2968.84022	0.03513
2967.55445	0.03512
2966.26868	0.03542
2964.98291	0.03608
2963.69715	0.03684
2962.41138	0.03740
2961.12561	0.03767
2959.83984	0.03785
2958.55407	0.03811
2957.26830	0.03843
2955.98253	0.03874
2954.69676	0.03900
2953.41100	0.03923
2952.12523	0.03942
2950.83946	0.03951
2949.55369	0.03942
2948.26792	0.03916
2946.98215	0.03884
2945.69638	0.03856
2944.41061	0.03835
2943.12484	0.03816
2941.83908	0.03795
2940.55331	0.03778
2939.26754	0.03779
2937.98177	0.03806
2936.69600	0.03851
2935.41023	0.03889
2934.12446	0.03905
2932.83869	0.03909
2931.55293	0.03925
2930.26716	0.03957
2928.98139	0.03986
2927.69562	0.03998
2926.40985	0.03991
2925.12408	0.03974
2923.83831	0.03951
2922.55254	0.03933
2921.26677	0.03930
2919.98101	0.03938
2918.69524	0.03938
2917.40947	0.03914
2916.12370	0.03870
2914.83793	0.03824
2913.55216	0.03794
2912.26639	0.03777
2910.98062	0.03757
2909.69486	0.03724
2908.40909	0.03688
2907.12332	0.03666
2905.83755	0.03664
2904.55178	0.03675
2903.26601	0.03687
2901.98024	0.03688
2900.69447	0.03671
2899.40870	0.03638
2898.12294	0.03602
2896.83717	0.03573
2895.55140	0.03552
2894.26563	0.03536
2892.97986	0.03522
2891.69409	0.03506
2890.40832	0.03484
2889.12255	0.03451
2887.83678	0.03411
2886.55102	0.03376
2885.26525	0.03357
2883.97948	0.03350
2882.69371	0.03336
2881.40794	0.03303
2880.12217	0.03264
2878.83640	0.03243
2877.55063	0.03249
2876.26487	0.03276
2874.97910	0.03306
2873.69333	0.03323
2872.40756	0.03323
2871.12179	0.03316
2869.83602	0.03312
2868.55025	0.03313
2867.26448	0.03313
2865.97871	0.03311
2864.69295	0.03310
2863.40718	0.03308
2862.12141	0.03295
2860.83564	0.03272
2859.54987	0.03251
2858.26410	0.03241
2856.97833	0.03243
2855.69256	0.03248
2854.40680	0.03249
2853.12103	0.03245
2851.83526	0.03240
2850.54949	0.03233
2849.26372	0.03223
2847.97795	0.03207
2846.69218	0.03190
2845.40641	0.03175
2844.12064	0.03161
2842.83488	0.03138
2841.54911	0.03101
2840.26334	0.03054
2838.97757	0.03010
2837.69180	0.02981
2836.40603	0.02971
2835.12026	0.02970
2833.83449	0.02958
2832.54873	0.02926
2831.26296	0.02883
2829.97719	0.02847
2828.69142	0.02826
2827.40565	0.02814
2826.11988	0.02803
2824.83411	0.02790
2823.54834	0.02781
2822.26257	0.02777
2820.97681	0.02772
2819.69104	0.02760
2818.40527	0.02744
2817.11950	0.02733
2815.83373	0.02733
2814.54796	0.02739
2813.26219	0.02738
2811.97642	0.02727
2810.69066	0.02712
2809.40489	0.02703
2808.11912	0.02701
2806.83335	0.02703
2805.54758	0.02702
2804.26181	0.02696
2802.97604	0.02688
2801.69027	0.02676
2800.40450	0.02662
2799.11874	0.02644
2797.83297	0.02620
2796.54720	0.02599
2795.26143	0.02588
2793.97566	0.02588
2792.68989	0.02595
2791.40412	0.02603
2790.11835	0.02603
2788.83259	0.02593
2787.54682	0.02579
2786.26105	0.02574
2784.97528	0.02580
2783.68951	0.02582
2782.40374	0.02564
2781.11797	0.02528
2779.83220	0.02496
2778.54643	0.02486
2777.26067	0.02504
2775.97490	0.02537
2774.68913	0.02564
2773.40336	0.02571
2772.11759	0.02558
2770.83182	0.02539
2769.54605	0.02525
2768.26028	0.02520
2766.97452	0.02518
2765.68875	0.02512
2764.40298	0.02499
2763.11721	0.02481
2761.83144	0.02466
2760.54567	0.02457
2759.25990	0.02450
2757.97413	0.02441
2756.68836	0.02428
2755.40260	0.02414
2754.11683	0.02406
2752.83106	0.02407
2751.54529	0.02412
2750.25952	0.02417
2748.97375	0.02422
2747.68798	0.02427
2746.40221	0.02427
2745.11645	0.02420
2743.83068	0.02415
2742.54491	0.02422
2741.25914	0.02444
2739.97337	0.02471
2738.68760	0.02490
2737.40183	0.02498
2736.11606	0.02495
2734.83029	0.02489
2733.54453	0.02488
2732.25876	0.02494
2730.97299	0.02498
2729.68722	0.02490
2728.40145	0.02470
2727.11568	0.02442
2725.82991	0.02409
2724.54414	0.02376
2723.25838	0.02353
2721.97261	0.02348
2720.68684	0.02358
2719.40107	0.02373
2718.11530	0.02385
2716.82953	0.02389
2715.54376	0.02381
2714.25799	0.02363
2712.97222	0.02346
2711.68646	0.02338
2710.40069	0.02338
2709.11492	0.02335
2707.82915	0.02325
2706.54338	0.02317
2705.25761	0.02317
2703.97184	0.02326
2702.68607	0.02336
2701.40031	0.02343
2700.11454	0.02347
2698.82877	0.02351
2697.54300	0.02360
2696.25723	0.02370
2694.97146	0.02374
2693.68569	0.02363
2692.39992	0.02344
2691.11415	0.02327
2689.82839	0.02320
2688.54262	0.02318
2687.25685	0.02315
2685.97108	0.02316
2684.68531	0.02326
2683.39954	0.02339
2682.11377	0.02344
2680.82800	0.02335
2679.54224	0.02316
2678.25647	0.02295
2676.97070	0.02278
2675.68493	0.02268
2674.39916	0.02261
2673.11339	0.02253
2671.82762	0.02242
2670.54185	0.02233
2669.25608	0.02231
2667.97032	0.02237
2666.68455	0.02242
2665.39878	0.02241
2664.11301	0.02231
2662.82724	0.02217
2661.54147	0.02203
2660.25570	0.02197
2658.96993	0.02201
2657.68417	0.02216
2656.39840	0.02237
2655.11263	0.02253
2653.82686	0.02258
2652.54109	0.02252
2651.25532	0.02241
2649.96955	0.02235
2648.68378	0.02236
2647.39801	0.02240
2646.11225	0.02239
2644.82648	0.02223
2643.54071	0.02200
2642.25494	0.02184
2640.96917	0.02185
2639.68340	0.02192
2638.39763	0.02183
2637.11186	0.02150
2635.82609	0.02107
2634.54033	0.02076
2633.25456	0.02064
2631.96879	0.02063
2630.68302	0.02061
2629.39725	0.02060
2628.11148	0.02067
2626.82571	0.02089
2625.53994	0.02121
2624.25418	0.02145
2622.96841	0.02146
2621.68264	0.02124
2620.39687	0.02096
2619.11110	0.02077
2617.82533	0.02068
2616.53956	0.02050
2615.25379	0.02006
2613.96802	0.01936
2612.68226	0.01863
2611.39649	0.01822
2610.11072	0.01841
2608.82495	0.01908
2607.53918	0.01982
2606.25341	0.02021
2604.96764	0.02016
2603.68187	0.01986
2602.39611	0.01950
2601.11034	0.01919
2599.82457	0.01897
2598.53880	0.01887
2597.25303	0.01884
2595.96726	0.01882
2594.68149	0.01890
2593.39572	0.01913
2592.10995	0.01942
2590.82419	0.01958
2589.53842	0.01957
2588.25265	0.01948
2586.96688	0.01943
2585.68111	0.01943
2584.39534	0.01951
2583.10957	0.01970
2581.82380	0.01991
2580.53804	0.01999
2579.25227	0.01991
2577.96650	0.01978
2576.68073	0.01972
2575.39496	0.01971
2574.10919	0.01968
2572.82342	0.01959
2571.53765	0.01940
2570.25188	0.01911
2568.96612	0.01880
2567.68035	0.01859
2566.39458	0.01858
2565.10881	0.01873
2563.82304	0.01889
2562.53727	0.01901
2561.25150	0.01912
2559.96573	0.01921
2558.67997	0.01923
2557.39420	0.01909
2556.10843	0.01885
2554.82266	0.01859
2553.53689	0.01832
2552.25112	0.01812
2550.96535	0.01810
2549.67958	0.01830
2548.39381	0.01860
2547.10805	0.01879
2545.82228	0.01882
2544.53651	0.01880
2543.25074	0.01885
2541.96497	0.01892
2540.67920	0.01890
2539.39343	0.01868
2538.10766	0.01832
2536.82190	0.01797
2535.53613	0.01778
2534.25036	0.01778
2532.96459	0.01784
2531.67882	0.01780
2530.39305	0.01760
2529.10728	0.01728
2527.82151	0.01694
2526.53574	0.01674
2525.24998	0.01677
2523.96421	0.01706
2522.67844	0.01740
2521.39267	0.01749
2520.10690	0.01715
2518.82113	0.01661
2517.53536	0.01625
2516.24959	0.01630
2514.96383	0.01658
2513.67806	0.01680
2512.39229	0.01677
2511.10652	0.01654
2509.82075	0.01629
2508.53498	0.01623
2507.24921	0.01641
2505.96344	0.01674
2504.67767	0.01711
2503.39191	0.01748
2502.10614	0.01780
2500.82037	0.01798
2499.53460	0.01793
2498.24883	0.01771
2496.96306	0.01747
2495.67729	0.01727
2494.39152	0.01708
2493.10576	0.01679
2491.81999	0.01636
2490.53422	0.01592
2489.24845	0.01574
2487.96268	0.01599
2486.67691	0.01660
2485.39114	0.01729
2484.10537	0.01769
2482.81960	0.01767
2481.53384	0.01728
2480.24807	0.01677
2478.96230	0.01637
2477.67653	0.01619
2476.39076	0.01623
2475.10499	0.01641
2473.81922	0.01661
2472.53345	0.01669
2471.24769	0.01655
2469.96192	0.01619
2468.67615	0.01571
2467.39038	0.01528
2466.10461	0.01517
2464.81884	0.01553
2463.53307	0.01626
2462.24730	0.01697
2460.96153	0.01734
2459.67577	0.01736
2458.39000	0.01720
2457.10423	0.01699
2455.81846	0.01670
2454.53269	0.01631
2453.24692	0.01588
2451.96115	0.01558
2450.67538	0.01559
2449.38962	0.01594
2448.10385	0.01644
2446.81808	0.01690
2445.53231	0.01720
2444.24654	0.01733
2442.96077	0.01729
2441.67500	0.01713
2440.38923	0.01689
2439.10346	0.01659
2437.81770	0.01618
2436.53193	0.01569
2435.24616	0.01530
2433.96039	0.01520
2432.67462	0.01536
2431.38885	0.01557
2430.10308	0.01564
2428.81731	0.01557
2427.53155	0.01553
2426.24578	0.01566
2424.96001	0.01588
2423.67424	0.01595
2422.38847	0.01579
2421.10270	0.01549
2419.81693	0.01523
2418.53116	0.01511
2417.24539	0.01512
2415.95963	0.01523
2414.67386	0.01536
2413.38809	0.01544
2412.10232	0.01548
2410.81655	0.01557
2409.53078	0.01569
2408.24501	0.01570
2406.95924	0.01551
2405.67347	0.01525
2404.38771	0.01511
2403.10194	0.01513
2401.81617	0.01519
2400.53040	0.01521
2399.24463	0.01532
2397.95886	0.01536
2396.67309	0.01538
2395.38732	0.01544
2394.10156	0.01553
2392.81579	0.01561
2391.53002	0.01563
2390.24425	0.01558
2388.95848	0.01548
2387.67271	0.01534
2386.38694	0.01517
2385.10117	0.01500
2383.81540	0.01489
2382.52964	0.01488
2381.24387	0.01493
2379.95810	0.01500
2378.67233	0.01507
2377.38656	0.01512
2376.10079	0.01518
2374.81502	0.01515
2373.52925	0.01505
2372.24349	0.01493
2370.95772	0.01487
2369.67195	0.01477
2368.38618	0.01472
2367.10041	0.01480
2365.81464	0.01511
2364.52887	0.01534
2363.24310	0.01547
2361.95733	0.01560
2360.67157	0.01591
2359.38580	0.01602
2358.10003	0.01584
2356.81426	0.01551
2355.52849	0.01517
2354.24272	0.01490
2352.95695	0.01477
2351.67118	0.01500
2350.38542	0.01536
2349.09965	0.01539
2347.81388	0.01509
2346.52811	0.01521
2345.24234	0.01559
2343.95657	0.01536
2342.67080	0.01457
2341.38503	0.01465
2340.09926	0.01568
2338.81350	0.01571
2337.52773	0.01467
2336.24196	0.01501
2334.95619	0.01637
2333.67042	0.01622
2332.38465	0.01523
2331.09888	0.01612
2329.81311	0.01711
2328.52735	0.01632
2327.24158	0.01677
2325.95581	0.01790
2324.67004	0.01733
2323.38427	0.01684
2322.09850	0.01692
2320.81273	0.01579
2319.52696	0.01529
2318.24119	0.01545
2316.95543	0.01503
2315.66966	0.01513
2314.38389	0.01547
2313.09812	0.01535
2311.81235	0.01542
2310.52658	0.01520
2309.24081	0.01490
2307.95504	0.01484
2306.66928	0.01463
2305.38351	0.01458
2304.09774	0.01463
2302.81197	0.01475
2301.52620	0.01501
2300.24043	0.01512
2298.95466	0.01519
2297.66889	0.01522
2296.38312	0.01522
2295.09736	0.01514
2293.81159	0.01492
2292.52582	0.01467
2291.24005	0.01445
2289.95428	0.01438
2288.66851	0.01452
2287.38274	0.01483
2286.09697	0.01515
2284.81121	0.01523
2283.52544	0.01499
2282.23967	0.01456
2280.95390	0.01416
2279.66813	0.01388
2278.38236	0.01371
2277.09659	0.01361
2275.81082	0.01353
2274.52505	0.01340
2273.23929	0.01317
2271.95352	0.01294
2270.66775	0.01284
2269.38198	0.01287
2268.09621	0.01294
2266.81044	0.01297
2265.52467	0.01295
2264.23890	0.01288
2262.95314	0.01277
2261.66737	0.01266
2260.38160	0.01259
2259.09583	0.01266
2257.81006	0.01297
2256.52429	0.01343
2255.23852	0.01371
2253.95275	0.01360
2252.66698	0.01326
2251.38122	0.01305
2250.09545	0.01300
2248.80968	0.01281
2247.52391	0.01269
2246.23814	0.01234
2244.95237	0.01206
2243.66660	0.01197
2242.38083	0.01181
2241.09507	0.01131
2239.80930	0.01060
2238.52353	0.01015
2237.23776	0.01024
2235.95199	0.01064
2234.66622	0.01096
2233.38045	0.01099
2232.09468	0.01080
2230.80891	0.01048
2229.52315	0.01017
2228.23738	0.01005
2226.95161	0.01023
2225.66584	0.01066
2224.38007	0.01112
2223.09430	0.01142
2221.80853	0.01151
2220.52276	0.01154
2219.23700	0.01170
2217.95123	0.01202
2216.66546	0.01222
2215.37969	0.01200
2214.09392	0.01133
2212.80815	0.01067
2211.52238	0.01056
2210.23661	0.01117
2208.95084	0.01206
2207.66508	0.01250
2206.37931	0.01211
2205.09354	0.01115
2203.80777	0.01012
2202.52200	0.00932
2201.23623	0.00885
2199.95046	0.00869
2198.66469	0.00866
2197.37893	0.00850
2196.09316	0.00812
2194.80739	0.00779
2193.52162	0.00782
2192.23585	0.00814
2190.95008	0.00848
2189.66431	0.00869
2188.37854	0.00878
2187.09277	0.00884
2185.80701	0.00889
2184.52124	0.00884
2183.23547	0.00854
2181.94970	0.00783
2180.66393	0.00681
2179.37816	0.00583
2178.09239	0.00524
2176.80662	0.00513
2175.52085	0.00537
2174.23509	0.00574
2172.94932	0.00603
2171.66355	0.00602
2170.37778	0.00570
2169.09201	0.00530
2167.80624	0.00517
2166.52047	0.00543
2165.23470	0.00595
2163.94894	0.00645
2162.66317	0.00644
2161.37740	0.00536
2160.09163	0.00334
2158.80586	0.00162
2157.52009	0.00154
2156.23432	0.00300
2154.94855	0.00473
2153.66278	0.00570
2152.37702	0.00580
2151.09125	0.00543
2149.80548	0.00504
2148.51971	0.00484
2147.23394	0.00475
2145.94817	0.00446
2144.66240	0.00399
2143.37663	0.00375
2142.09087	0.00404
2140.80510	0.00475
2139.51933	0.00561
2138.23356	0.00661
2136.94779	0.00780
2135.66202	0.00894
2134.37625	0.00946
2133.09048	0.00903
2131.80471	0.00786
2130.51895	0.00662
2129.23318	0.00598
2127.94741	0.00620
2126.66164	0.00713
2125.37587	0.00837
2124.09010	0.00944
2122.80433	0.00991
2121.51856	0.00970
2120.23280	0.00908
2118.94703	0.00844
2117.66126	0.00805
2116.37549	0.00797
2115.08972	0.00808
2113.80395	0.00820
2112.51818	0.00818
2111.23241	0.00796
2109.94664	0.00753
2108.66088	0.00692
2107.37511	0.00628
2106.08934	0.00593
2104.80357	0.00602
2103.51780	0.00640
2102.23203	0.00678
2100.94626	0.00702
2099.66049	0.00772
2098.37473	0.00799
2097.08896	0.00786
2095.80319	0.00757
2094.51742	0.00725
2093.23165	0.00697
2091.94588	0.00673
2090.66011	0.00654
2089.37434	0.00645
2088.08857	0.00643
2086.80281	0.00633
2085.51704	0.00599
2084.23127	0.00547
2082.94550	0.00504
2081.65973	0.00493
2080.37396	0.00518
2079.08819	0.00566
2077.80242	0.00614
2076.51666	0.00641
2075.23089	0.00636
2073.94512	0.00609
2072.65935	0.00588
2071.37358	0.00587
2070.08781	0.00590
2068.80204	0.00566
2067.51627	0.00513
2066.23050	0.00463
2064.94474	0.00446
2063.65897	0.00461
2062.37320	0.00484
2061.08743	0.00503
2059.80166	0.00518
2058.51589	0.00522
2057.23012	0.00502
2055.94435	0.00467
2054.65859	0.00443
2053.37282	0.00443
2052.08705	0.00449
2050.80128	0.00443
2049.51551	0.00427
2048.22974	0.00410
2046.94397	0.00384
2045.65820	0.00333
2044.37243	0.00251
2043.08667	0.00157
2041.80090	0.00075
2040.51513	0.00026
2039.22936	0.00021
2037.94359	0.00064
2036.65782	0.00151
2035.37205	0.00263
2034.08628	0.00366
2032.80052	0.00416
2031.51475	0.00383
2030.22898	0.00294
2028.94321	0.00227
2027.65744	0.00237
2026.37167	0.00295
2025.08590	0.00328
2023.80013	0.00311
2022.51436	0.00298
2021.22860	0.00339
2019.94283	0.00417
2018.65706	0.00483
2017.37129	0.00515
2016.08552	0.00524
2014.79975	0.00519
2013.51398	0.00497
2012.22821	0.00465
2010.94245	0.00430
2009.65668	0.00389
2008.37091	0.00346
2007.08514	0.00323
2005.79937	0.00340
2004.51360	0.00391
2003.22783	0.00452
2001.94206	0.00508
2000.65629	0.00552
1999.37053	0.00585
1998.08476	0.00614
1996.79899	0.00637
1995.51322	0.00637
1994.22745	0.00599
1992.94168	0.00544
1991.65591	0.00520
1990.37014	0.00558
1989.08438	0.00630
1987.79861	0.00681
1986.51284	0.00674
1985.22707	0.00625
1983.94130	0.00591
1982.65553	0.00620
1981.36976	0.00710
1980.08399	0.00816
1978.79822	0.00886
1977.51246	0.00888
1976.22669	0.00828
1974.94092	0.00743
1973.65515	0.00664
1972.36938	0.00599
1971.08361	0.00545
1969.79784	0.00508
1968.51207	0.00502
1967.22631	0.00524
1965.94054	0.00557
1964.65477	0.00590
1963.36900	0.00628
1962.08323	0.00671
1960.79746	0.00701
1959.51169	0.00702
1958.22592	0.00684
1956.94015	0.00670
1955.65439	0.00672
1954.36862	0.00681
1953.08285	0.00695
1951.79708	0.00721
1950.51131	0.00763
1949.22554	0.00807
1947.93977	0.00842
1946.65400	0.00866
1945.36823	0.00882
1944.08247	0.00890
1942.79670	0.00896
1941.51093	0.00909
1940.22516	0.00923
1938.93939	0.00913
1937.65362	0.00873
1936.36785	0.00827
1935.08208	0.00805
1933.79632	0.00804
1932.51055	0.00803
1931.22478	0.00794
1929.93901	0.00785
1928.65324	0.00780
1927.36747	0.00773
1926.08170	0.00767
1924.79593	0.00774
1923.51016	0.00800
1922.22440	0.00834
1920.93863	0.00862
1919.65286	0.00883
1918.36709	0.00911
1917.08132	0.00946
1915.79555	0.00975
1914.50978	0.00976
1913.22401	0.00947
1911.93825	0.00905
1910.65248	0.00869
1909.36671	0.00851
1908.08094	0.00851
1906.79517	0.00868
1905.50940	0.00902
1904.22363	0.00947
1902.93786	0.00983
1901.65209	0.00990
1900.36633	0.00964
1899.08056	0.00921
1897.79479	0.00887
1896.50902	0.00874
1895.22325	0.00884
1893.93748	0.00908
1892.65171	0.00932
1891.36594	0.00942
1890.08018	0.00933
1888.79441	0.00912
1887.50864	0.00896
1886.22287	0.00891
1884.93710	0.00889
1883.65133	0.00874
1882.36556	0.00846
1881.07979	0.00827
1879.79402	0.00839
1878.50826	0.00880
1877.22249	0.00926
1875.93672	0.00953
1874.65095	0.00959
1873.36518	0.00957
1872.07941	0.00953
1870.79364	0.00945
1869.50787	0.00931
1868.22211	0.00918
1866.93634	0.00916
1865.65057	0.00923
1864.36480	0.00930
1863.07903	0.00934
1861.79326	0.00931
1860.50749	0.00922
1859.22172	0.00912
1857.93595	0.00907
1856.65019	0.00913
1855.36442	0.00928
1854.07865	0.00941
1852.79288	0.00946
1851.50711	0.00946
1850.22134	0.00946
1848.93557	0.00949
1847.64980	0.00948
1846.36404	0.00937
1845.07827	0.00918
1843.79250	0.00905
1842.50673	0.00904
1841.22096	0.00909
1839.93519	0.00913
1838.64942	0.00916
1837.36365	0.00921
1836.07788	0.00927
1834.79212	0.00934
1833.50635	0.00940
1832.22058	0.00944
1830.93481	0.00948
1829.64904	0.00955
1828.36327	0.00964
1827.07750	0.00971
1825.79173	0.00976
1824.50597	0.00985
1823.22020	0.00996
1821.93443	0.01002
1820.64866	0.01005
1819.36289	0.01006
1818.07712	0.01005
1816.79135	0.01002
1815.50558	0.00997
1814.21981	0.00989
1812.93405	0.00972
1811.64828	0.00950
1810.36251	0.00929
1809.07674	0.00919
1807.79097	0.00924
1806.50520	0.00938
1805.21943	0.00952
1803.93366	0.00955
1802.64790	0.00947
1801.36213	0.00938
1800.07636	0.00941
1798.79059	0.00957
1797.50482	0.00980
1796.21905	0.00996
1794.93328	0.00998
1793.64751	0.00988
1792.36174	0.00978
1791.07598	0.00979
1789.79021	0.00983
1788.50444	0.00981
1787.21867	0.00971
1785.93290	0.00962
1784.64713	0.00964
1783.36136	0.00976
1782.07559	0.00990
1780.78983	0.00999
1779.50406	0.01006
1778.21829	0.01014
1776.93252	0.01021
1775.64675	0.01022
1774.36098	0.01012
1773.07521	0.01002
1771.78944	0.01005
1770.50367	0.01018
1769.21791	0.01025
1767.93214	0.01024
1766.64637	0.01024
1765.36060	0.01026
1764.07483	0.01024
1762.78906	0.01024
1761.50329	0.01033
1760.21752	0.01044
1758.93176	0.01048
1757.64599	0.01043
1756.36022	0.01046
1755.07445	0.01058
1753.78868	0.01066
1752.50291	0.01061
1751.21714	0.01053
1749.93137	0.01052
1748.64560	0.01054
1747.35984	0.01055
1746.07407	0.01057
1744.78830	0.01064
1743.50253	0.01075
1742.21676	0.01084
1740.93099	0.01089
1739.64522	0.01097
1738.35945	0.01113
1737.07369	0.01126
1735.78792	0.01123
1734.50215	0.01119
1733.21638	0.01130
1731.93061	0.01148
1730.64484	0.01151
1729.35907	0.01142
1728.07330	0.01136
1726.78753	0.01137
1725.50177	0.01140
1724.21600	0.01145
1722.93023	0.01156
1721.64446	0.01174
1720.35869	0.01188
1719.07292	0.01193
1717.78715	0.01198
1716.50138	0.01215
1715.21561	0.01239
1713.92985	0.01259
1712.64408	0.01275
1711.35831	0.01290
1710.07254	0.01306
1708.78677	0.01323
1707.50100	0.01335
1706.21523	0.01345
1704.92946	0.01360
1703.64370	0.01380
1702.35793	0.01392
1701.07216	0.01405
1699.78639	0.01437
1698.50062	0.01474
1697.21485	0.01485
1695.92908	0.01480
1694.64331	0.01495
1693.35754	0.01524
1692.07178	0.01541
1690.78601	0.01548
1689.50024	0.01562
1688.21447	0.01583
1686.92870	0.01594
1685.64293	0.01593
1684.35716	0.01603
1683.07139	0.01631
1681.78563	0.01655
1680.49986	0.01663
1679.21409	0.01673
1677.92832	0.01696
1676.64255	0.01724
1675.35678	0.01754
1674.07101	0.01784
1672.78524	0.01805
1671.49947	0.01811
1670.21371	0.01811
1668.92794	0.01820
1667.64217	0.01838
1666.35640	0.01858
1665.07063	0.01872
1663.78486	0.01885
1662.49909	0.01902
1661.21332	0.01920
1659.92756	0.01937
1658.64179	0.01956
1657.35602	0.01984
1656.07025	0.02007
1654.78448	0.02007
1653.49871	0.01997
1652.21294	0.02008
1650.92717	0.02034
1649.64140	0.02046
1648.35564	0.02036
1647.06987	0.02030
1645.78410	0.02040
1644.49833	0.02056
1643.21256	0.02062
1641.92679	0.02061
1640.64102	0.02068
1639.35525	0.02087
1638.06949	0.02102
1636.78372	0.02101
1635.49795	0.02093
1634.21218	0.02089
1632.92641	0.02087
1631.64064	0.02083
1630.35487	0.02080
1629.06910	0.02083
1627.78333	0.02091
1626.49757	0.02100
1625.21180	0.02106
1623.92603	0.02111
1622.64026	0.02118
1621.35449	0.02129
1620.06872	0.02134
1618.78295	0.02132
1617.49718	0.02132
1616.21142	0.02149
1614.92565	0.02175
1613.63988	0.02191
1612.35411	0.02193
1611.06834	0.02191
1609.78257	0.02191
1608.49680	0.02191
1607.21103	0.02194
1605.92526	0.02203
1604.63950	0.02217
1603.35373	0.02235
1602.06796	0.02253
1600.78219	0.02271
1599.49642	0.02286
1598.21065	0.02297
1596.92488	0.02307
1595.63911	0.02322
1594.35335	0.02343
1593.06758	0.02368
1591.78181	0.02391
1590.49604	0.02410
1589.21027	0.02424
1587.92450	0.02436
1586.63873	0.02449
1585.35296	0.02463
1584.06719	0.02478
1582.78143	0.02497
1581.49566	0.02525
1580.20989	0.02561
1578.92412	0.02591
1577.63835	0.02604
1576.35258	0.02613
1575.06681	0.02638
1573.78104	0.02675
1572.49528	0.02702
1571.20951	0.02717
1569.92374	0.02731
1568.63797	0.02756
1567.35220	0.02786
1566.06643	0.02813
1564.78066	0.02842
1563.49489	0.02877
1562.20912	0.02909
1560.92336	0.02930
1559.63759	0.02951
1558.35182	0.02986
1557.06605	0.03025
1555.78028	0.03046
1554.49451	0.03054
1553.20874	0.03073
1551.92297	0.03103
1550.63721	0.03132
1549.35144	0.03155
1548.06567	0.03175
1546.77990	0.03191
1545.49413	0.03208
1544.20836	0.03231
1542.92259	0.03255
1541.63682	0.03269
1540.35105	0.03275
1539.06529	0.03287
1537.77952	0.03308
1536.49375	0.03324
1535.20798	0.03330
1533.92221	0.03343
1532.63644	0.03377
1531.35067	0.03426
1530.06490	0.03476
1528.77914	0.03523
1527.49337	0.03575
1526.20760	0.03635
1524.92183	0.03704
1523.63606	0.03774
1522.35029	0.03841
1521.06452	0.03916
1519.77875	0.04000
1518.49298	0.04082
1517.20722	0.04157
1515.92145	0.04240
1514.63568	0.04334
1513.34991	0.04437
1512.06414	0.04548
1510.77837	0.04671
1509.49260	0.04796
1508.20683	0.04910
1506.92107	0.05016
1505.63530	0.05125
1504.34953	0.05236
1503.06376	0.05336
1501.77799	0.05421
1500.49222	0.05502
1499.20645	0.05580
1497.92068	0.05652
1496.63491	0.05721
1495.34915	0.05795
1494.06338	0.05871
1492.77761	0.05940
1491.49184	0.06002
1490.20607	0.06068
1488.92030	0.06138
1487.63453	0.06213
1486.34876	0.06296
1485.06299	0.06387
1483.77723	0.06482
1482.49146	0.06575
1481.20569	0.06666
1479.91992	0.06759
1478.63415	0.06852
1477.34838	0.06942
1476.06261	0.07023
1474.77684	0.07091
1473.49108	0.07149
1472.20531	0.07203
1470.91954	0.07255
1469.63377	0.07297
1468.34800	0.07322
1467.06223	0.07336
1465.77646	0.07345
1464.49069	0.07356
1463.20492	0.07370
1461.91916	0.07390
1460.63339	0.07415
1459.34762	0.07442
1458.06185	0.07470
1456.77608	0.07510
1455.49031	0.07564
1454.20454	0.07615
1452.91877	0.07651
1451.63301	0.07676
1450.34724	0.07697
1449.06147	0.07717
1447.77570	0.07735
1446.48993	0.07751
1445.20416	0.07754
1443.91839	0.07738
1442.63262	0.07706
1441.34685	0.07669
1440.06109	0.07632
1438.77532	0.07597
1437.48955	0.07570
1436.20378	0.07565
1434.91801	0.07587
1433.63224	0.07626
1432.34647	0.07675
1431.06070	0.07737
1429.77494	0.07817
1428.48917	0.07914
1427.20340	0.08020
1425.91763	0.08130
1424.63186	0.08242
1423.34609	0.08357
1422.06032	0.08467
1420.77455	0.08564
1419.48878	0.08651
1418.20302	0.08731
1416.91725	0.08797
1415.63148	0.08836
1414.34571	0.08850
1413.05994	0.08846
1411.77417	0.08832
1410.48840	0.08806
1409.20263	0.08761
1407.91687	0.08691
1406.63110	0.08598
1405.34533	0.08488
1404.05956	0.08369
1402.77379	0.08239
1401.48802	0.08094
1400.20225	0.07932
1398.91648	0.07759
1397.63071	0.07581
1396.34495	0.07400
1395.05918	0.07222
1393.77341	0.07049
1392.48764	0.06878
1391.20187	0.06703
1389.91610	0.06523
1388.63033	0.06342
1387.34456	0.06168
1386.05880	0.06001
1384.77303	0.05837
1383.48726	0.05672
1382.20149	0.05505
1380.91572	0.05338
1379.62995	0.05171
1378.34418	0.05003
1377.05841	0.04835
1375.77264	0.04666
1374.48688	0.04497
1373.20111	0.04328
1371.91534	0.04157
1370.62957	0.03989
1369.34380	0.03829
1368.05803	0.03686
1366.77226	0.03559
1365.48649	0.03442
1364.20073	0.03331
1362.91496	0.03225
1361.62919	0.03124
1360.34342	0.03030
1359.05765	0.02943
1357.77188	0.02861
1356.48611	0.02783
1355.20034	0.02707
1353.91457	0.02636
1352.62881	0.02571
1351.34304	0.02511
1350.05727	0.02451
1348.77150	0.02391
1347.48573	0.02334
1346.19996	0.02283
1344.91419	0.02237
1343.62842	0.02194
1342.34266	0.02149
1341.05689	0.02108
1339.77112	0.02074
1338.48535	0.02050
1337.19958	0.02028
1335.91381	0.02003
1334.62804	0.01973
1333.34227	0.01941
1332.05650	0.01910
1330.77074	0.01882
1329.48497	0.01858
1328.19920	0.01839
1326.91343	0.01826
1325.62766	0.01816
1324.34189	0.01806
1323.05612	0.01793
1321.77035	0.01776
1320.48459	0.01758
1319.19882	0.01741
1317.91305	0.01727
1316.62728	0.01714
1315.34151	0.01699
1314.05574	0.01684
1312.76997	0.01670
1311.48420	0.01659
1310.19843	0.01649
1308.91267	0.01637
1307.62690	0.01624
1306.34113	0.01610
1305.05536	0.01595
1303.76959	0.01579
1302.48382	0.01563
1301.19805	0.01546
1299.91228	0.01530
1298.62652	0.01515
1297.34075	0.01502
1296.05498	0.01493
1294.76921	0.01489
1293.48344	0.01486
1292.19767	0.01483
1290.91190	0.01478
1289.62613	0.01470
1288.34036	0.01457
1287.05460	0.01440
1285.76883	0.01421
1284.48306	0.01404
1283.19729	0.01394
1281.91152	0.01393
1280.62575	0.01397
1279.33998	0.01402
1278.05421	0.01402
1276.76845	0.01398
1275.48268	0.01391
1274.19691	0.01383
1272.91114	0.01374
1271.62537	0.01365
1270.33960	0.01353
1269.05383	0.01339
1267.76806	0.01325
1266.48229	0.01312
1265.19653	0.01304
1263.91076	0.01300
1262.62499	0.01300
1261.33922	0.01298
1260.05345	0.01293
1258.76768	0.01284
1257.48191	0.01274
1256.19614	0.01264
1254.91037	0.01258
1253.62461	0.01258
1252.33884	0.01261
1251.05307	0.01263
1249.76730	0.01261
1248.48153	0.01255
1247.19576	0.01248
1245.90999	0.01243
1244.62422	0.01241
1243.33846	0.01239
1242.05269	0.01236
1240.76692	0.01231
1239.48115	0.01225
1238.19538	0.01216
1236.90961	0.01205
1235.62384	0.01197
1234.33807	0.01192
1233.05230	0.01190
1231.76654	0.01188
1230.48077	0.01185
1229.19500	0.01181
1227.90923	0.01174
1226.62346	0.01167
1225.33769	0.01160
1224.05192	0.01155
1222.76615	0.01151
1221.48039	0.01147
1220.19462	0.01145
1218.90885	0.01143
1217.62308	0.01140
1216.33731	0.01134
1215.05154	0.01127
1213.76577	0.01122
1212.48000	0.01122
1211.19423	0.01127
1209.90847	0.01133
1208.62270	0.01136
1207.33693	0.01136
1206.05116	0.01134
1204.76539	0.01133
1203.47962	0.01134
1202.19385	0.01139
1200.90808	0.01143
1199.62232	0.01141
1198.33655	0.01147
1197.05078	0.01153
1195.76501	0.01156
1194.47924	0.01156
1193.19347	0.01153
1191.90770	0.01151
1190.62193	0.01151
1189.33616	0.01151
1188.05040	0.01148
1186.76463	0.01145
1185.47886	0.01145
1184.19309	0.01150
1182.90732	0.01157
1181.62155	0.01159
1180.33578	0.01157
1179.05001	0.01156
1177.76425	0.01161
1176.47848	0.01172
1175.19271	0.01187
1173.90694	0.01200
1172.62117	0.01212
1171.33540	0.01223
1170.04963	0.01234
1168.76386	0.01246
1167.47809	0.01262
1166.19233	0.01280
1164.90656	0.01295
1163.62079	0.01306
1162.33502	0.01317
1161.04925	0.01333
1159.76348	0.01356
1158.47771	0.01386
1157.19194	0.01419
1155.90618	0.01451
1154.62041	0.01479
1153.33464	0.01505
1152.04887	0.01532
1150.76310	0.01562
1149.47733	0.01597
1148.19156	0.01638
1146.90579	0.01689
1145.62002	0.01751
1144.33426	0.01821
1143.04849	0.01894
1141.76272	0.01967
1140.47695	0.02041
1139.19118	0.02123
1137.90541	0.02218
1136.61964	0.02331
1135.33387	0.02461
1134.04811	0.02608
1132.76234	0.02771
1131.47657	0.02949
1130.19080	0.03141
1128.90503	0.03346
1127.61926	0.03567
1126.33349	0.03803
1125.04772	0.04055
1123.76195	0.04323
1122.47619	0.04608
1121.19042	0.04904
1119.90465	0.05203
1118.61888	0.05501
1117.33311	0.05797
1116.04734	0.06096
1114.76157	0.06399
1113.47580	0.06703
1112.19004	0.07003
1110.90427	0.07296
1109.61850	0.07583
1108.33273	0.07868
1107.04696	0.08154
1105.76119	0.08435
1104.47542	0.08707
1103.18965	0.08964
1101.90388	0.09209
1100.61812	0.09448
1099.33235	0.09687
1098.04658	0.09921
1096.76081	0.10145
1095.47504	0.10356
1094.18927	0.10558
1092.90350	0.10756
1091.61773	0.10950
1090.33197	0.11138
1089.04620	0.11317
1087.76043	0.11488
1086.47466	0.11653
1085.18889	0.11816
1083.90312	0.11984
1082.61735	0.12163
1081.33158	0.12358
1080.04581	0.12567
1078.76005	0.12790
1077.47428	0.13026
1076.18851	0.13276
1074.90274	0.13541
1073.61697	0.13821
1072.33120	0.14113
1071.04543	0.14407
1069.75966	0.14695
1068.47390	0.14974
1067.18813	0.15251
1065.90236	0.15535
1064.61659	0.15831
1063.33082	0.16135
1062.04505	0.16444
1060.75928	0.16755
1059.47351	0.17063
1058.18774	0.17362
1056.90198	0.17650
1055.61621	0.17929
1054.33044	0.18203
1053.04467	0.18480
1051.75890	0.18766
1050.47313	0.19060
1049.18736	0.19358
1047.90159	0.19657
1046.61583	0.19960
1045.33006	0.20270
1044.04429	0.20585
1042.75852	0.20905
1041.47275	0.21227
1040.18698	0.21545
1038.90121	0.21852
1037.61544	0.22151
1036.32967	0.22452
1035.04391	0.22755
1033.75814	0.23051
1032.47237	0.23321
1031.18660	0.23556
1029.90083	0.23755
1028.61506	0.23926
1027.32929	0.24069
1026.04352	0.24181
1024.75775	0.24257
1023.47199	0.24295
1022.18622	0.24297
1020.90045	0.24256
1019.61468	0.24167
1018.32891	0.24026
1017.04314	0.23833
1015.75737	0.23592
1014.47160	0.23305
1013.18584	0.22974
1011.90007	0.22602
1010.61430	0.22186
1009.32853	0.21715
1008.04276	0.21184
1006.75699	0.20601
1005.47122	0.19980
1004.18545	0.19331
1002.89968	0.18657
1001.61392	0.17959
1000.32815	0.17244
999.04238	0.16521
997.75661	0.15800
996.47084	0.15084
995.18507	0.14374
993.89930	0.13671
992.61353	0.12983
991.32777	0.12322
990.04200	0.11695
988.75623	0.11106
987.47046	0.10554
986.18469	0.10036
984.89892	0.09547
983.61315	0.09088
982.32738	0.08663
981.04161	0.08275
979.75585	0.07926
978.47008	0.07615
977.18431	0.07339
975.89854	0.07094
974.61277	0.06885
973.32700	0.06717
972.04123	0.06594
970.75546	0.06515
969.46970	0.06480
968.18393	0.06493
966.89816	0.06553
965.61239	0.06651
964.32662	0.06767
963.04085	0.06878
961.75508	0.06961
960.46931	0.06996
959.18354	0.06963
957.89778	0.06858
956.61201	0.06697
955.32624	0.06506
954.04047	0.06308
952.75470	0.06110
951.46893	0.05910
950.18316	0.05705
948.89739	0.05499
947.61163	0.05299
946.32586	0.05111
945.04009	0.04934
943.75432	0.04768
942.46855	0.04611
941.18278	0.04463
939.89701	0.04321
938.61124	0.04187
937.32547	0.04065
936.03971	0.03957
934.75394	0.03862
933.46817	0.03772
932.18240	0.03688
930.89663	0.03611
929.61086	0.03543
928.32509	0.03482
927.03932	0.03424
925.75356	0.03369
924.46779	0.03317
923.18202	0.03269
921.89625	0.03226
920.61048	0.03186
919.32471	0.03149
918.03894	0.03115
916.75317	0.03081
915.46740	0.03045
914.18164	0.03007
912.89587	0.02968
911.61010	0.02934
910.32433	0.02910
909.03856	0.02896
907.75279	0.02885
906.46702	0.02874
905.18125	0.02860
903.89549	0.02843
902.60972	0.02824
901.32395	0.02802
900.03818	0.02777
898.75241	0.02754
897.46664	0.02733
896.18087	0.02721
894.89510	0.02722
893.60933	0.02741
892.32357	0.02775
891.03780	0.02822
889.75203	0.02884
888.46626	0.02966
887.18049	0.03080
885.89472	0.03238
884.60895	0.03455
883.32318	0.03727
882.03742	0.04024
880.75165	0.04296
879.46588	0.04503
878.18011	0.04644
876.89434	0.04748
875.60857	0.04846
874.32280	0.04942
873.03703	0.05016
871.75126	0.05038
870.46550	0.04994
869.17973	0.04880
867.89396	0.04708
866.60819	0.04491
865.32242	0.04253
864.03665	0.04014
862.75088	0.03790
861.46511	0.03588
860.17935	0.03414
858.89358	0.03272
857.60781	0.03162
856.32204	0.03074
855.03627	0.02997
853.75050	0.02927
852.46473	0.02869
851.17896	0.02828
849.89319	0.02800
848.60743	0.02775
847.32166	0.02747
846.03589	0.02717
844.75012	0.02689
843.46435	0.02663
842.17858	0.02634
840.89281	0.02601
839.60704	0.02568
838.32128	0.02536
837.03551	0.02506
835.74974	0.02480
834.46397	0.02462
833.17820	0.02454
831.89243	0.02451
830.60666	0.02447
829.32089	0.02438
828.03512	0.02421
826.74936	0.02400
825.46359	0.02383
824.17782	0.02374
822.89205	0.02369
821.60628	0.02362
820.32051	0.02356
819.03474	0.02360
817.74897	0.02373
816.46321	0.02386
815.17744	0.02383
813.89167	0.02364
812.60590	0.02340
811.32013	0.02323
810.03436	0.02317
808.74859	0.02317
807.46282	0.02321
806.17705	0.02323
804.89129	0.02322
803.60552	0.02314
802.31975	0.02304
801.03398	0.02296
799.74821	0.02293
798.46244	0.02295
797.17667	0.02301
795.89090	0.02308
794.60513	0.02310
793.31937	0.02306
792.03360	0.02296
790.74783	0.02286
789.46206	0.02278
788.17629	0.02272
786.89052	0.02267
785.60475	0.02262
784.31898	0.02256
783.03322	0.02252
781.74745	0.02253
780.46168	0.02259
779.17591	0.02264
777.89014	0.02265
776.60437	0.02264
775.31860	0.02267
774.03283	0.02277
772.74706	0.02285
771.46130	0.02282
770.17553	0.02269
768.88976	0.02252
767.60399	0.02236
766.31822	0.02225
765.03245	0.02220
763.74668	0.02220
762.46091	0.02226
761.17515	0.02234
759.88938	0.02245
758.60361	0.02257
757.31784	0.02269
756.03207	0.02277
754.74630	0.02278
753.46053	0.02276
752.17476	0.02276
750.88899	0.02278
749.60323	0.02275
748.31746	0.02262
747.03169	0.02247
745.74592	0.02239
744.46015	0.02239
743.17438	0.02242
741.88861	0.02242
740.60284	0.02240
739.31708	0.02242
738.03131	0.02249
736.74554	0.02257
735.45977	0.02255
734.17400	0.02242
732.88823	0.02230
731.60246	0.02233
730.31669	0.02254
729.03092	0.02281
727.74516	0.02305
726.45939	0.02320
725.17362	0.02328
723.88785	0.02337
722.60208	0.02325
721.31631	0.02305
720.03054	0.02290
718.74477	0.02281
717.45901	0.02274
716.17324	0.02268
714.88747	0.02263
713.60170	0.02261
712.31593	0.02260
711.03016	0.02260
709.74439	0.02260
708.45862	0.02258
707.17285	0.02254
705.88709	0.02249
704.60132	0.02246
703.31555	0.02246
702.02978	0.02246
700.74401	0.02248
699.45824	0.02250
698.17247	0.02253
696.88670	0.02257
695.60094	0.02263
694.31517	0.02267
693.02940	0.02268
691.74363	0.02265
690.45786	0.02262
689.17209	0.02264
687.88632	0.02273
686.60055	0.02282
685.31478	0.02285
684.02902	0.02283
682.74325	0.02277
681.45748	0.02270
680.17171	0.02263
678.88594	0.02258
677.60017	0.02257
676.31440	0.02259
675.02863	0.02261
673.74287	0.02262
672.45710	0.02267
671.17133	0.02280
669.88556	0.02302
668.59979	0.02312
667.31402	0.02315
666.02825	0.02327
664.74248	0.02314
663.45671	0.02296
662.17095	0.02279
660.88518	0.02262
659.59941	0.02247
658.31364	0.02236
657.02787	0.02231
655.74210	0.02231
654.45633	0.02232
653.17056	0.02236
651.88480	0.02245
650.59903	0.02259
649.31326	0.02273
648.02749	0.02281
646.74172	0.02280
645.45595	0.02279
644.17018	0.02287
642.88441	0.02309
641.59864	0.02343
640.31288	0.02386
639.02711	0.02434
637.74134	0.02481
636.45557	0.02525
635.16980	0.02566
633.88403	0.02604
632.59826	0.02640
631.31249	0.02683
630.02673	0.02773
628.74096	0.02899
627.45519	0.02932
626.16942	0.03125
624.88365	0.03431
623.59788	0.03722
622.31211	0.03944
621.02634	0.04127
619.74057	0.04337
618.45481	0.04586
617.16904	0.04835
615.88327	0.05071
614.59750	0.05325
613.31173	0.05644
612.02596	0.06052
610.74019	0.06532
609.45442	0.07021
608.16866	0.07461
606.88289	0.07842
605.59712	0.08187
604.31135	0.08486
603.02558	0.08671
601.73981	0.08690
600.45404	0.08569
599.16827	0.08374
597.88250	0.08154
596.59674	0.07923
595.31097	0.07683
594.02520	0.07452
592.73943	0.07257
591.45366	0.07120
590.16789	0.07044
588.88212	0.07023
587.59635	0.07052
586.31059	0.07132
585.02482	0.07266
583.73905	0.07450
582.45328	0.07671
581.16751	0.07913
579.88174	0.08168
578.59597	0.08431
577.31020	0.08697
576.02443	0.08959
574.73867	0.09212
573.45290	0.09466
572.16713	0.09734
570.88136	0.10023
569.59559	0.10330
568.30982	0.10653
567.02405	0.10980
565.73828	0.11289
564.45251	0.11536
563.16675	0.11676
561.88098	0.11673
560.59521	0.11509
559.30944	0.11185
558.02367	0.10725
556.73790	0.10164
555.45213	0.09542
554.16636	0.08900
552.88060	0.08273
551.59483	0.07687
550.30906	0.07154
549.02329	0.06675
547.73752	0.06252
546.45175	0.05883
545.16598	0.05560
543.88021	0.05271
542.59444	0.05004
541.30868	0.04758
540.02291	0.04540
538.73714	0.04353
537.45137	0.04197
536.16560	0.04059
534.87983	0.03929
533.59406	0.03801
532.30829	0.03676
531.02253	0.03562
529.73676	0.03461
528.45099	0.03372
527.16522	0.03293
525.87945	0.03223
524.59368	0.03158
523.30791	0.03092
522.02214	0.03022
520.73637	0.02952
519.45061	0.02891
518.16484	0.02840
516.87907	0.02795
515.59330	0.02746
514.30753	0.02688
513.02176	0.02625
511.73599	0.02565
510.45022	0.02517
509.16446	0.02484
507.87869	0.02462
506.59292	0.02443
505.30715	0.02418
504.02138	0.02384
502.73561	0.02344
501.44984	0.02305
500.16407	0.02271
498.87830	0.02241
497.59254	0.02214
496.30677	0.02189
495.02100	0.02169
493.73523	0.02152
492.44946	0.02137
491.16369	0.02126
489.87792	0.02118
488.59215	0.02112
487.30639	0.02107
486.02062	0.02104
484.73485	0.02104
483.44908	0.02108
482.16331	0.02118
480.87754	0.02132
479.59177	0.02151
478.30600	0.02172
477.02023	0.02193
475.73447	0.02214
474.44870	0.02236
473.16293	0.02260
471.87716	0.02282
470.59139	0.02299
469.30562	0.02303
468.01985	0.02290
466.73408	0.02263
465.44832	0.02225
464.16255	0.02186
462.87678	0.02153
461.59101	0.02133
460.30524	0.02123
459.01947	0.02114
457.73370	0.02096
456.44793	0.02066
455.16216	0.02029
453.87640	0.01997
452.59063	0.01978
451.30486	0.01972
450.01909	0.01970
448.73332	0.01967
447.44755	0.01960
446.16178	0.01953
444.87601	0.01946
443.59025	0.01942
442.30448	0.01944
441.01871	0.01947
439.73294	0.01949
438.44717	0.01945
437.16140	0.01937
435.87563	0.01932
434.58986	0.01931
433.30409	0.01934
432.01833	0.01938
430.73256	0.01941
429.44679	0.01940
428.16102	0.01937
426.87525	0.01933
425.58948	0.01930
424.30371	0.01931
423.01794	0.01935
421.73218	0.01939
420.44641	0.01941
419.16064	0.01939
417.87487	0.01936
416.58910	0.01934
415.30333	0.01934
414.01756	0.01934
412.73179	0.01935
411.44602	0.01938
410.16026	0.01944
408.87449	0.01956
407.58872	0.01974
406.30295	0.01990
405.01718	0.02003
403.73141	0.02016
402.44564	0.02034
401.15987	0.02057
399.87411	0.02084
