3997.45528	0.03771
3996.16951	0.03761
3994.88374	0.03809
3993.59798	0.03888
3992.31221	0.03927
3991.02644	0.03899
3989.74067	0.03835
3988.45490	0.03781
3987.16913	0.03750
3985.88336	0.03732
3984.59759	0.03710
3983.31183	0.03681
3982.02606	0.03658
3980.74029	0.03656
3979.45452	0.03676
3978.16875	0.03698
3976.88298	0.03707
3975.59721	0.03706
3974.31144	0.03704
3973.02567	0.03708
3971.73991	0.03719
3970.45414	0.03737
3969.16837	0.03754
3967.88260	0.03757
3966.59683	0.03742
3965.31106	0.03727
3964.02529	0.03733
3962.73952	0.03755
3961.45376	0.03768
3960.16799	0.03760
3958.88222	0.03746
3957.59645	0.03745
3956.31068	0.03743
3955.02491	0.03708
3953.73914	0.03640
3952.45337	0.03577
3951.16760	0.03552
3949.88184	0.03559
3948.59607	0.03577
3947.31030	0.03601
3946.02453	0.03631
3944.73876	0.03658
3943.45299	0.03677
3942.16722	0.03697
3940.88145	0.03723
3939.59569	0.03748
3938.30992	0.03760
3937.02415	0.03759
3935.73838	0.03741
3934.45261	0.03701
3933.16684	0.03653
3931.88107	0.03623
3930.59530	0.03628
3929.30953	0.03661
3928.02377	0.03688
3926.73800	0.03665
3925.45223	0.03578
3924.16646	0.03474
3922.88069	0.03415
3921.59492	0.03433
3920.30915	0.03510
3919.02338	0.03609
3917.73762	0.03697
3916.45185	0.03754
3915.16608	0.03754
3913.88031	0.03687
3912.59454	0.03605
3911.30877	0.03588
3910.02300	0.03658
3908.73723	0.03751
3907.45146	0.03780
3906.16570	0.03720
3904.87993	0.03635
3903.59416	0.03601
3902.30839	0.03627
3901.02262	0.03671
3899.73685	0.03719
3898.45108	0.03787
3897.16531	0.03864
3895.87955	0.03908
3894.59378	0.03890
3893.30801	0.03824
3892.02224	0.03766
3890.73647	0.03778
3889.45070	0.03824
3888.16493	0.03799
3886.87916	0.03693
3885.59339	0.03624
3884.30763	0.03651
3883.02186	0.03689
3881.73609	0.03666
3880.45032	0.03630
3879.16455	0.03648
3877.87878	0.03690
3876.59301	0.03699
3875.30724	0.03690
3874.02148	0.03706
3872.73571	0.03717
3871.44994	0.03673
3870.16417	0.03626
3868.87840	0.03641
3867.59263	0.03663
3866.30686	0.03619
3865.02109	0.03553
3863.73532	0.03527
3862.44956	0.03515
3861.16379	0.03476
3859.87802	0.03438
3858.59225	0.03449
3857.30648	0.03482
3856.02071	0.03464
3854.73494	0.03396
3853.44917	0.03372
3852.16341	0.03417
3850.87764	0.03450
3849.59187	0.03432
3848.30610	0.03416
3847.02033	0.03431
3845.73456	0.03464
3844.44879	0.03508
3843.16302	0.03577
3841.87725	0.03651
3840.59149	0.03658
3839.30572	0.03574
3838.01995	0.03480
3836.73418	0.03470
3835.44841	0.03527
3834.16264	0.03566
3832.87687	0.03559
3831.59110	0.03538
3830.30534	0.03522
3829.01957	0.03502
3827.73380	0.03480
3826.44803	0.03488
3825.16226	0.03512
3823.87649	0.03481
3822.59072	0.03398
3821.30495	0.03387
3820.01918	0.03502
3818.73342	0.03609
3817.44765	0.03586
3816.16188	0.03512
3814.87611	0.03503
3813.59034	0.03514
3812.30457	0.03463
3811.01880	0.03370
3809.73303	0.03270
3808.44726	0.03176
3807.16150	0.03154
3805.87573	0.03260
3804.58996	0.03416
3803.30419	0.03501
3802.01842	0.03531
3800.73265	0.03588
3799.44688	0.03635
3798.16111	0.03579
3796.87535	0.03469
3795.58958	0.03424
3794.30381	0.03459
3793.01804	0.03505
3791.73227	0.03523
3790.44650	0.03516
3789.16073	0.03486
3787.87496	0.03428
3786.58919	0.03352
3785.30343	0.03288
3784.01766	0.03265
3782.73189	0.03278
3781.44612	0.03301
3780.16035	0.03325
3778.87458	0.03351
3777.58881	0.03370
3776.30304	0.03372
3775.01728	0.03379
3773.73151	0.03408
3772.44574	0.03440
3771.15997	0.03459
3769.87420	0.03470
3768.58843	0.03455
3767.30266	0.03377
3766.01689	0.03264
3764.73112	0.03196
3763.44536	0.03193
3762.15959	0.03202
3760.87382	0.03192
3759.58805	0.03186
3758.30228	0.03198
3757.01651	0.03214
3755.73074	0.03200
3754.44497	0.03123
3753.15921	0.03008
3751.87344	0.02923
3750.58767	0.02924
3749.30190	0.03022
3748.01613	0.03141
3746.73036	0.03136
3745.44459	0.03020
3744.15882	0.03012
3742.87305	0.03199
3741.58729	0.03409
3740.30152	0.03491
3739.01575	0.03450
3737.72998	0.03346
3736.44421	0.03241
3735.15844	0.03170
3733.87267	0.03109
3732.58690	0.03053
3731.30114	0.03038
3730.01537	0.03064
3728.72960	0.03068
3727.44383	0.03044
3726.15806	0.03054
3724.87229	0.03112
3723.58652	0.03160
3722.30075	0.03155
3721.01498	0.03115
3719.72922	0.03079
3718.44345	0.03077
3717.15768	0.03116
3715.87191	0.03170
3714.58614	0.03206
3713.30037	0.03223
3712.01460	0.03254
3710.72883	0.03311
3709.44307	0.03361
3708.15730	0.03381
3706.87153	0.03385
3705.58576	0.03381
3704.29999	0.03367
3703.01422	0.03348
3701.72845	0.03335
3700.44268	0.03328
3699.15691	0.03309
3697.87115	0.03267
3696.58538	0.03232
3695.29961	0.03252
3694.01384	0.03322
3692.72807	0.03390
3691.44230	0.03377
3690.15653	0.03260
3688.87076	0.03120
3687.58500	0.03067
3686.29923	0.03107
3685.01346	0.03159
3683.72769	0.03197
3682.44192	0.03257
3681.15615	0.03348
3679.87038	0.03432
3678.58461	0.03442
3677.29884	0.03361
3676.01308	0.03294
3674.72731	0.03345
3673.44154	0.03436
3672.15577	0.03416
3670.87000	0.03314
3669.58423	0.03272
3668.29846	0.03312
3667.01269	0.03353
3665.72693	0.03365
3664.44116	0.03376
3663.15539	0.03406
3661.86962	0.03463
3660.58385	0.03553
3659.29808	0.03656
3658.01231	0.03722
3656.72654	0.03731
3655.44077	0.03709
3654.15501	0.03656
3652.86924	0.03559
3651.58347	0.03454
3650.29770	0.03421
3649.01193	0.03497
3647.72616	0.03637
3646.44039	0.03772
3645.15462	0.03852
3643.86886	0.03875
3642.58309	0.03867
3641.29732	0.03863
3640.01155	0.03872
3638.72578	0.03890
3637.44001	0.03910
3636.15424	0.03922
3634.86847	0.03924
3633.58270	0.03924
3632.29694	0.03896
3631.01117	0.03811
3629.72540	0.03731
3628.43963	0.03772
3627.15386	0.03926
3625.86809	0.04060
3624.58232	0.04104
3623.29655	0.04095
3622.01079	0.04088
3620.72502	0.04106
3619.43925	0.04166
3618.15348	0.04263
3616.86771	0.04355
3615.58194	0.04403
3614.29617	0.04404
3613.01040	0.04371
3611.72463	0.04301
3610.43887	0.04200
3609.15310	0.04133
3607.86733	0.04167
3606.58156	0.04285
3605.29579	0.04399
3604.01002	0.04459
3602.72425	0.04480
3601.43848	0.04505
3600.15272	0.04553
3598.86695	0.04616
3597.58118	0.04662
3596.29541	0.04674
3595.00964	0.04653
3593.72387	0.04637
3592.43810	0.04643
3591.15233	0.04650
3589.86656	0.04637
3588.58080	0.04610
3587.29503	0.04601
3586.00926	0.04639
3584.72349	0.04732
3583.43772	0.04868
3582.15195	0.05018
3580.86618	0.05150
3579.58041	0.05240
3578.29464	0.05284
3577.00888	0.05292
3575.72311	0.05269
3574.43734	0.05219
3573.15157	0.05162
3571.86580	0.05144
3570.58003	0.05190
3569.29426	0.05279
3568.00849	0.05355
3566.72273	0.05378
3565.43696	0.05351
3564.15119	0.05313
3562.86542	0.05296
3561.57965	0.05299
3560.29388	0.05298
3559.00811	0.05290
3557.72234	0.05295
3556.43657	0.05321
3555.15081	0.05349
3553.86504	0.05367
3552.57927	0.05397
3551.29350	0.05467
3550.00773	0.05565
3548.72196	0.05653
3547.43619	0.05711
3546.15042	0.05740
3544.86466	0.05748
3543.57889	0.05741
3542.29312	0.05726
3541.00735	0.05716
3539.72158	0.05717
3538.43581	0.05734
3537.15004	0.05761
3535.86427	0.05787
3534.57850	0.05804
3533.29274	0.05817
3532.00697	0.05838
3530.72120	0.05876
3529.43543	0.05932
3528.14966	0.06005
3526.86389	0.06085
3525.57812	0.06164
3524.29235	0.06242
3523.00659	0.06325
3521.72082	0.06405
3520.43505	0.06443
3519.14928	0.06415
3517.86351	0.06337
3516.57774	0.06252
3515.29197	0.06188
3514.00620	0.06153
3512.72043	0.06148
3511.43467	0.06173
3510.14890	0.06216
3508.86313	0.06260
3507.57736	0.06298
3506.29159	0.06330
3505.00582	0.06358
3503.72005	0.06373
3502.43428	0.06374
3501.14852	0.06365
3499.86275	0.06360
3498.57698	0.06366
3497.29121	0.06385
3496.00544	0.06412
3494.71967	0.06442
3493.43390	0.06469
3492.14813	0.06483
3490.86236	0.06477
3489.57660	0.06455
3488.29083	0.06434
3487.00506	0.06428
3485.71929	0.06447
3484.43352	0.06499
3483.14775	0.06582
3481.86198	0.06680
3480.57621	0.06758
3479.29045	0.06796
3478.00468	0.06805
3476.71891	0.06806
3475.43314	0.06820
3474.14737	0.06852
3472.86160	0.06897
3471.57583	0.06945
3470.29006	0.06982
3469.00429	0.06991
3467.71853	0.06965
3466.43276	0.06908
3465.14699	0.06839
3463.86122	0.06788
3462.57545	0.06782
3461.28968	0.06823
3460.00391	0.06884
3458.71814	0.06949
3457.43238	0.07021
3456.14661	0.07100
3454.86084	0.07169
3453.57507	0.07199
3452.28930	0.07183
3451.00353	0.07139
3449.71776	0.07101
3448.43199	0.07100
3447.14622	0.07141
3445.86046	0.07199
3444.57469	0.07240
3443.28892	0.07257
3442.00315	0.07263
3440.71738	0.07270
3439.43161	0.07274
3438.14584	0.07279
3436.86007	0.07294
3435.57431	0.07324
3434.28854	0.07353
3433.00277	0.07361
3431.71700	0.07337
3430.43123	0.07302
3429.14546	0.07288
3427.85969	0.07315
3426.57392	0.07371
3425.28815	0.07433
3424.00239	0.07482
3422.71662	0.07512
3421.43085	0.07515
3420.14508	0.07489
3418.85931	0.07445
3417.57354	0.07409
3416.28777	0.07403
3415.00200	0.07421
3413.71624	0.07443
3412.43047	0.07457
3411.14470	0.07478
3409.85893	0.07518
3408.57316	0.07568
3407.28739	0.07603
3406.00162	0.07604
3404.71585	0.07578
3403.43008	0.07544
3402.14432	0.07526
3400.85855	0.07536
3399.57278	0.07571
3398.28701	0.07613
3397.00124	0.07632
3395.71547	0.07615
3394.42970	0.07574
3393.14393	0.07538
3391.85817	0.07523
3390.57240	0.07536
3389.28663	0.07575
3388.00086	0.07636
3386.71509	0.07696
3385.42932	0.07722
3384.14355	0.07709
3382.85778	0.07682
3381.57201	0.07675
3380.28625	0.07690
3379.00048	0.07703
3377.71471	0.07695
3376.42894	0.07671
3375.14317	0.07644
3373.85740	0.07618
3372.57163	0.07594
3371.28586	0.07584
3370.00010	0.07599
3368.71433	0.07635
3367.42856	0.07674
3366.14279	0.07707
3364.85702	0.07741
3363.57125	0.07777
3362.28548	0.07803
3360.99971	0.07799
3359.71394	0.07763
3358.42818	0.07710
3357.14241	0.07662
3355.85664	0.07640
3354.57087	0.07651
3353.28510	0.07680
3351.99933	0.07701
3350.71356	0.07697
3349.42779	0.07674
3348.14202	0.07655
3346.85626	0.07653
3345.57049	0.07665
3344.28472	0.07672
3342.99895	0.07657
3341.71318	0.07617
3340.42741	0.07564
3339.14164	0.07517
3337.85587	0.07491
3336.57011	0.07489
3335.28434	0.07504
3333.99857	0.07522
3332.71280	0.07527
3331.42703	0.07516
3330.14126	0.07498
3328.85549	0.07493
3327.56972	0.07510
3326.28395	0.07537
3324.99819	0.07548
3323.71242	0.07530
3322.42665	0.07493
3321.14088	0.07454
3319.85511	0.07427
3318.56934	0.07418
3317.28357	0.07435
3315.99780	0.07471
3314.71204	0.07505
3313.42627	0.07511
3312.14050	0.07481
3310.85473	0.07437
3309.56896	0.07407
3308.28319	0.07398
3306.99742	0.07395
3305.71165	0.07387
3304.42588	0.07377
3303.14012	0.07374
3301.85435	0.07374
3300.56858	0.07364
3299.28281	0.07332
3297.99704	0.07281
3296.71127	0.07227
3295.42550	0.07189
3294.13973	0.07175
3292.85397	0.07178
3291.56820	0.07190
3290.28243	0.07213
3288.99666	0.07247
3287.71089	0.07280
3286.42512	0.07284
3285.13935	0.07248
3283.85358	0.07194
3282.56781	0.07167
3281.28205	0.07188
3279.99628	0.07238
3278.71051	0.07273
3277.42474	0.07273
3276.13897	0.07250
3274.85320	0.07231
3273.56743	0.07226
3272.28166	0.07226
3270.99590	0.07216
3269.71013	0.07192
3268.42436	0.07165
3267.13859	0.07141
3265.85282	0.07127
3264.56705	0.07124
3263.28128	0.07141
3261.99551	0.07176
3260.70974	0.07217
3259.42398	0.07249
3258.13821	0.07264
3256.85244	0.07258
3255.56667	0.07227
3254.28090	0.07176
3252.99513	0.07121
3251.70936	0.07082
3250.42359	0.07067
3249.13783	0.07069
3247.85206	0.07070
3246.56629	0.07058
3245.28052	0.07037
3243.99475	0.07025
3242.70898	0.07032
3241.42321	0.07046
3240.13744	0.07035
3238.85167	0.06984
3237.56591	0.06913
3236.28014	0.06859
3234.99437	0.06850
3233.70860	0.06875
3232.42283	0.06910
3231.13706	0.06936
3229.85129	0.06957
3228.56552	0.06981
3227.27976	0.07006
3225.99399	0.07018
3224.70822	0.07004
3223.42245	0.06967
3222.13668	0.06924
3220.85091	0.06884
3219.56514	0.06839
3218.27937	0.06770
3216.99360	0.06686
3215.70784	0.06616
3214.42207	0.06586
3213.13630	0.06590
3211.85053	0.06599
3210.56476	0.06598
3209.27899	0.06587
3207.99322	0.06579
3206.70745	0.06582
3205.42169	0.06594
3204.13592	0.06611
3202.85015	0.06620
3201.56438	0.06611
3200.27861	0.06588
3198.99284	0.06570
3197.70707	0.06570
3196.42130	0.06581
3195.13553	0.06583
3193.84977	0.06558
3192.56400	0.06513
3191.27823	0.06463
3189.99246	0.06419
3188.70669	0.06383
3187.42092	0.06359
3186.13515	0.06357
3184.84938	0.06382
3183.56362	0.06425
3182.27785	0.06472
3180.99208	0.06512
3179.70631	0.06541
3178.42054	0.06553
3177.13477	0.06537
3175.84900	0.06486
3174.56323	0.06413
3173.27746	0.06346
3171.99170	0.06313
3170.70593	0.06318
3169.42016	0.06336
3168.13439	0.06336
3166.84862	0.06307
3165.56285	0.06267
3164.27708	0.06243
3162.99131	0.06238
3161.70555	0.06239
3160.41978	0.06235
3159.13401	0.06228
3157.84824	0.06217
3156.56247	0.06194
3155.27670	0.06153
3153.99093	0.06109
3152.70516	0.06081
3151.41939	0.06079
3150.13363	0.06088
3148.84786	0.06091
3147.56209	0.06079
3146.27632	0.06063
3144.99055	0.06055
3143.70478	0.06056
3142.41901	0.06054
3141.13324	0.06040
3139.84748	0.06016
3138.56171	0.05986
3137.27594	0.05959
3135.99017	0.05944
3134.70440	0.05943
3133.41863	0.05946
3132.13286	0.05939
3130.84709	0.05922
3129.56132	0.05904
3128.27556	0.05894
3126.98979	0.05884
3125.70402	0.05862
3124.41825	0.05826
3123.13248	0.05792
3121.84671	0.05779
3120.56094	0.05794
3119.27517	0.05822
3117.98940	0.05839
3116.70364	0.05834
3115.41787	0.05818
3114.13210	0.05813
3112.84633	0.05826
3111.56056	0.05847
3110.27479	0.05854
3108.98902	0.05833
3107.70325	0.05793
3106.41749	0.05752
3105.13172	0.05719
3103.84595	0.05689
3102.56018	0.05659
3101.27441	0.05635
3099.98864	0.05621
3098.70287	0.05607
3097.41710	0.05581
3096.13133	0.05549
3094.84557	0.05527
3093.55980	0.05522
3092.27403	0.05524
3090.98826	0.05521
3089.70249	0.05515
3088.41672	0.05519
3087.13095	0.05545
3085.84518	0.05584
3084.55942	0.05614
3083.27365	0.05620
3081.98788	0.05604
3080.70211	0.05575
3079.41634	0.05539
3078.13057	0.05488
3076.84480	0.05423
3075.55903	0.05362
3074.27326	0.05322
3072.98750	0.05312
3071.70173	0.05325
3070.41596	0.05352
3069.13019	0.05377
3067.84442	0.05382
3066.55865	0.05359
3065.27288	0.05316
3063.98711	0.05269
3062.70135	0.05229
3061.41558	0.05195
3060.12981	0.05172
3058.84404	0.05169
3057.55827	0.05190
3056.27250	0.05223
3054.98673	0.05245
3053.70096	0.05246
3052.41519	0.05231
3051.12943	0.05209
3049.84366	0.05185
3048.55789	0.05155
3047.27212	0.05118
3045.98635	0.05084
3044.70058	0.05063
3043.41481	0.05059
3042.12904	0.05066
3040.84328	0.05068
3039.55751	0.05049
3038.27174	0.05010
3036.98597	0.04968
3035.70020	0.04939
3034.41443	0.04924
3033.12866	0.04910
3031.84289	0.04895
3030.55712	0.04887
3029.27136	0.04893
3027.98559	0.04897
3026.69982	0.04878
3025.41405	0.04831
3024.12828	0.04773
3022.84251	0.04734
3021.55674	0.04733
3020.27097	0.04760
3018.98521	0.04792
3017.69944	0.04813
3016.41367	0.04826
3015.12790	0.04839
3013.84213	0.04847
3012.55636	0.04840
3011.27059	0.04822
3009.98482	0.04806
3008.69905	0.04800
3007.41329	0.04792
3006.12752	0.04766
3004.84175	0.04726
3003.55598	0.04694
3002.27021	0.04685
3000.98444	0.04700
2999.69867	0.04731
2998.41290	0.04766
2997.12714	0.04796
2995.84137	0.04809
2994.55560	0.04798
2993.26983	0.04771
2991.98406	0.04740
2990.69829	0.04718
2989.41252	0.04713
2988.12675	0.04720
2986.84098	0.04730
2985.55522	0.04739
2984.26945	0.04748
2982.98368	0.04749
2981.69791	0.04729
2980.41214	0.04690
2979.12637	0.04654
2977.84060	0.04644
2976.55483	0.04661
2975.26907	0.04686
2973.98330	0.04702
2972.69753	0.04708
2971.41176	0.04721
2970.12599	0.04750
2968.84022	0.04793
2967.55445	0.04837
2966.26868	0.04870
2964.98291	0.04881
2963.69715	0.04861
2962.41138	0.04811
2961.12561	0.04752
2959.83984	0.04720
2958.55407	0.04735
2957.26830	0.04783
2955.98253	0.04833
2954.69676	0.04859
2953.41100	0.04862
2952.12523	0.04861
2950.83946	0.04871
2949.55369	0.04893
2948.26792	0.04911
2946.98215	0.04903
2945.69638	0.04865
2944.41061	0.04818
2943.12484	0.04784
2941.83908	0.04765
2940.55331	0.04751
2939.26754	0.04734
2937.98177	0.04721
2936.69600	0.04714
2935.41023	0.04712
2934.12446	0.04713
2932.83869	0.04713
2931.55293	0.04709
2930.26716	0.04695
2928.98139	0.04677
2927.69562	0.04664
2926.40985	0.04663
2925.12408	0.04667
2923.83831	0.04661
2922.55254	0.04638
2921.26677	0.04607
2919.98101	0.04582
2918.69524	0.04568
2917.40947	0.04561
2916.12370	0.04551
2914.83793	0.04535
2913.55216	0.04521
2912.26639	0.04523
2910.98062	0.04544
2909.69486	0.04570
2908.40909	0.04586
2907.12332	0.04579
2905.83755	0.04551
2904.55178	0.04511
2903.26601	0.04474
2901.98024	0.04455
2900.69447	0.04462
2899.40870	0.04485
2898.12294	0.04503
2896.83717	0.04497
2895.55140	0.04463
2894.26563	0.04412
2892.97986	0.04356
2891.69409	0.04299
2890.40832	0.04251
2889.12255	0.04221
2887.83678	0.04215
2886.55102	0.04230
2885.26525	0.04256
2883.97948	0.04279
2882.69371	0.04291
2881.40794	0.04293
2880.12217	0.04296
2878.83640	0.04303
2877.55063	0.04304
2876.26487	0.04289
2874.97910	0.04261
2873.69333	0.04236
2872.40756	0.04224
2871.12179	0.04221
2869.83602	0.04224
2868.55025	0.04230
2867.26448	0.04234
2865.97871	0.04228
2864.69295	0.04213
2863.40718	0.04195
2862.12141	0.04176
2860.83564	0.04146
2859.54987	0.04096
2858.26410	0.04040
2856.97833	0.04000
2855.69256	0.03989
2854.40680	0.03998
2853.12103	0.04000
2851.83526	0.03974
2850.54949	0.03922
2849.26372	0.03873
2847.97795	0.03846
2846.69218	0.03839
2845.40641	0.03842
2844.12064	0.03850
2842.83488	0.03859
2841.54911	0.03855
2840.26334	0.03830
2838.97757	0.03797
2837.69180	0.03778
2836.40603	0.03778
2835.12026	0.03783
2833.83449	0.03777
2832.54873	0.03760
2831.26296	0.03738
2829.97719	0.03716
2828.69142	0.03694
2827.40565	0.03673
2826.11988	0.03659
2824.83411	0.03653
2823.54834	0.03646
2822.26257	0.03628
2820.97681	0.03599
2819.69104	0.03572
2818.40527	0.03557
2817.11950	0.03553
2815.83373	0.03558
2814.54796	0.03570
2813.26219	0.03586
2811.97642	0.03599
2810.69066	0.03604
2809.40489	0.03599
2808.11912	0.03586
2806.83335	0.03567
2805.54758	0.03544
2804.26181	0.03520
2802.97604	0.03503
2801.69027	0.03496
2800.40450	0.03499
2799.11874	0.03504
2797.83297	0.03503
2796.54720	0.03495
2795.26143	0.03484
2793.97566	0.03469
2792.68989	0.03444
2791.40412	0.03411
2790.11835	0.03381
2788.83259	0.03363
2787.54682	0.03360
2786.26105	0.03368
2784.97528	0.03381
2783.68951	0.03400
2782.40374	0.03421
2781.11797	0.03434
2779.83220	0.03426
2778.54643	0.03404
2777.26067	0.03384
2775.97490	0.03378
2774.68913	0.03375
2773.40336	0.03354
2772.11759	0.03318
2770.83182	0.03293
2769.54605	0.03305
2768.26028	0.03341
2766.97452	0.03367
2765.68875	0.03366
2764.40298	0.03348
2763.11721	0.03331
2761.83144	0.03318
2760.54567	0.03297
2759.25990	0.03269
2757.97413	0.03248
2756.68836	0.03241
2755.40260	0.03246
2754.11683	0.03256
2752.83106	0.03266
2751.54529	0.03274
2750.25952	0.03279
2748.97375	0.03281
2747.68798	0.03277
2746.40221	0.03258
2745.11645	0.03225
2743.83068	0.03188
2742.54491	0.03167
2741.25914	0.03172
2739.97337	0.03202
2738.68760	0.03239
2737.40183	0.03257
2736.11606	0.03243
2734.83029	0.03206
2733.54453	0.03171
2732.25876	0.03160
2730.97299	0.03171
2729.68722	0.03185
2728.40145	0.03181
2727.11568	0.03151
2725.82991	0.03108
2724.54414	0.03078
2723.25838	0.03082
2721.97261	0.03120
2720.68684	0.03170
2719.40107	0.03201
2718.11530	0.03198
2716.82953	0.03173
2715.54376	0.03146
2714.25799	0.03125
2712.97222	0.03106
2711.68646	0.03087
2710.40069	0.03077
2709.11492	0.03078
2707.82915	0.03075
2706.54338	0.03052
2705.25761	0.03018
2703.97184	0.02992
2702.68607	0.02990
2701.40031	0.03005
2700.11454	0.03023
2698.82877	0.03034
2697.54300	0.03043
2696.25723	0.03052
2694.97146	0.03067
2693.68569	0.03082
2692.39992	0.03091
2691.11415	0.03082
2689.82839	0.03056
2688.54262	0.03026
2687.25685	0.03005
2685.97108	0.02999
2684.68531	0.03001
2683.39954	0.03002
2682.11377	0.03002
2680.82800	0.03000
2679.54224	0.02987
2678.25647	0.02961
2676.97070	0.02935
2675.68493	0.02927
2674.39916	0.02943
2673.11339	0.02968
2671.82762	0.02980
2670.54185	0.02971
2669.25608	0.02954
2667.97032	0.02942
2666.68455	0.02941
2665.39878	0.02947
2664.11301	0.02953
2662.82724	0.02950
2661.54147	0.02940
2660.25570	0.02924
2658.96993	0.02908
2657.68417	0.02891
2656.39840	0.02874
2655.11263	0.02858
2653.82686	0.02847
2652.54109	0.02839
2651.25532	0.02834
2649.96955	0.02833
2648.68378	0.02835
2647.39801	0.02841
2646.11225	0.02845
2644.82648	0.02845
2643.54071	0.02838
2642.25494	0.02824
2640.96917	0.02802
2639.68340	0.02775
2638.39763	0.02753
2637.11186	0.02741
2635.82609	0.02735
2634.54033	0.02728
2633.25456	0.02720
2631.96879	0.02725
2630.68302	0.02750
2629.39725	0.02781
2628.11148	0.02797
2626.82571	0.02787
2625.53994	0.02755
2624.25418	0.02721
2622.96841	0.02697
2621.68264	0.02686
2620.39687	0.02679
2619.11110	0.02666
2617.82533	0.02641
2616.53956	0.02607
2615.25379	0.02570
2613.96802	0.02532
2612.68226	0.02499
2611.39649	0.02482
2610.11072	0.02497
2608.82495	0.02536
2607.53918	0.02572
2606.25341	0.02584
2604.96764	0.02573
2603.68187	0.02557
2602.39611	0.02547
2601.11034	0.02540
2599.82457	0.02527
2598.53880	0.02506
2597.25303	0.02479
2595.96726	0.02451
2594.68149	0.02424
2593.39572	0.02400
2592.10995	0.02387
2590.82419	0.02391
2589.53842	0.02414
2588.25265	0.02443
2586.96688	0.02463
2585.68111	0.02464
2584.39534	0.02450
2583.10957	0.02433
2581.82380	0.02418
2580.53804	0.02403
2579.25227	0.02389
2577.96650	0.02380
2576.68073	0.02381
2575.39496	0.02384
2574.10919	0.02372
2572.82342	0.02347
2571.53765	0.02324
2570.25188	0.02322
2568.96612	0.02340
2567.68035	0.02364
2566.39458	0.02384
2565.10881	0.02398
2563.82304	0.02409
2562.53727	0.02408
2561.25150	0.02384
2559.96573	0.02329
2558.67997	0.02253
2557.39420	0.02184
2556.10843	0.02147
2554.82266	0.02151
2553.53689	0.02185
2552.25112	0.02237
2550.96535	0.02291
2549.67958	0.02319
2548.39381	0.02303
2547.10805	0.02263
2545.82228	0.02242
2544.53651	0.02264
2543.25074	0.02317
2541.96497	0.02376
2540.67920	0.02426
2539.39343	0.02455
2538.10766	0.02447
2536.82190	0.02392
2535.53613	0.02305
2534.25036	0.02207
2532.96459	0.02119
2531.67882	0.02053
2530.39305	0.02024
2529.10728	0.02040
2527.82151	0.02088
2526.53574	0.02142
2525.24998	0.02185
2523.96421	0.02214
2522.67844	0.02227
2521.39267	0.02226
2520.10690	0.02217
2518.82113	0.02208
2517.53536	0.02201
2516.24959	0.02188
2514.96383	0.02165
2513.67806	0.02134
2512.39229	0.02112
2511.10652	0.02115
2509.82075	0.02148
2508.53498	0.02193
2507.24921	0.02224
2505.96344	0.02230
2504.67767	0.02221
2503.39191	0.02215
2502.10614	0.02214
2500.82037	0.02207
2499.53460	0.02189
2498.24883	0.02161
2496.96306	0.02128
2495.67729	0.02094
2494.39152	0.02067
2493.10576	0.02054
2491.81999	0.02052
2490.53422	0.02047
2489.24845	0.02038
2487.96268	0.02037
2486.67691	0.02056
2485.39114	0.02091
2484.10537	0.02115
2482.81960	0.02111
2481.53384	0.02087
2480.24807	0.02072
2478.96230	0.02085
2477.67653	0.02114
2476.39076	0.02132
2475.10499	0.02124
2473.81922	0.02101
2472.53345	0.02080
2471.24769	0.02073
2469.96192	0.02088
2468.67615	0.02118
2467.39038	0.02138
2466.10461	0.02130
2464.81884	0.02103
2463.53307	0.02079
2462.24730	0.02073
2460.96153	0.02077
2459.67577	0.02075
2458.39000	0.02061
2457.10423	0.02051
2455.81846	0.02054
2454.53269	0.02065
2453.24692	0.02072
2451.96115	0.02079
2450.67538	0.02098
2449.38962	0.02121
2448.10385	0.02127
2446.81808	0.02113
2445.53231	0.02091
2444.24654	0.02070
2442.96077	0.02043
2441.67500	0.02008
2440.38923	0.01976
2439.10346	0.01964
2437.81770	0.01978
2436.53193	0.02006
2435.24616	0.02031
2433.96039	0.02035
2432.67462	0.02017
2431.38885	0.01988
2430.10308	0.01967
2428.81731	0.01964
2427.53155	0.01968
2426.24578	0.01965
2424.96001	0.01953
2423.67424	0.01945
2422.38847	0.01951
2421.10270	0.01969
2419.81693	0.01987
2418.53116	0.02000
2417.24539	0.02002
2415.95963	0.01989
2414.67386	0.01963
2413.38809	0.01939
2412.10232	0.01927
2410.81655	0.01932
2409.53078	0.01949
2408.24501	0.01966
2406.95924	0.01976
2405.67347	0.01969
2404.38771	0.01947
2403.10194	0.01916
2401.81617	0.01887
2400.53040	0.01867
2399.24463	0.01857
2397.95886	0.01856
2396.67309	0.01868
2395.38732	0.01891
2394.10156	0.01912
2392.81579	0.01918
2391.53002	0.01912
2390.24425	0.01906
2388.95848	0.01908
2387.67271	0.01913
2386.38694	0.01911
2385.10117	0.01905
2383.81540	0.01906
2382.52964	0.01919
2381.24387	0.01930
2379.95810	0.01930
2378.67233	0.01898
2377.38656	0.01853
2376.10079	0.01819
2374.81502	0.01803
2373.52925	0.01750
2372.24349	0.01710
2370.95772	0.01701
2369.67195	0.01686
2368.38618	0.01652
2367.10041	0.01615
2365.81464	0.01579
2364.52887	0.01549
2363.24310	0.01537
2361.95733	0.01557
2360.67157	0.01610
2359.38580	0.01659
2358.10003	0.01683
2356.81426	0.01689
2355.52849	0.01708
2354.24272	0.01776
2352.95695	0.01880
2351.67118	0.01916
2350.38542	0.01899
2349.09965	0.01874
2347.81388	0.01843
2346.52811	0.01818
2345.24234	0.01806
2343.95657	0.01811
2342.67080	0.01831
2341.38503	0.01799
2340.09926	0.01795
2338.81350	0.01815
2337.52773	0.01813
2336.24196	0.01790
2334.95619	0.01798
2333.67042	0.01801
2332.38465	0.01801
2331.09888	0.01732
2329.81311	0.01722
2328.52735	0.01736
2327.24158	0.01769
2325.95581	0.01847
2324.67004	0.01894
2323.38427	0.01933
2322.09850	0.01937
2320.81273	0.01903
2319.52696	0.01885
2318.24119	0.01898
2316.95543	0.01910
2315.66966	0.01930
2314.38389	0.01943
2313.09812	0.01931
2311.81235	0.01927
2310.52658	0.01938
2309.24081	0.01945
2307.95504	0.01931
2306.66928	0.01893
2305.38351	0.01851
2304.09774	0.01827
2302.81197	0.01825
2301.52620	0.01837
2300.24043	0.01851
2298.95466	0.01865
2297.66889	0.01878
2296.38312	0.01888
2295.09736	0.01893
2293.81159	0.01895
2292.52582	0.01898
2291.24005	0.01909
2289.95428	0.01927
2288.66851	0.01945
2287.38274	0.01955
2286.09697	0.01948
2284.81121	0.01924
2283.52544	0.01889
2282.23967	0.01859
2280.95390	0.01840
2279.66813	0.01824
2278.38236	0.01806
2277.09659	0.01790
2275.81082	0.01789
2274.52505	0.01805
2273.23929	0.01821
2271.95352	0.01820
2270.66775	0.01795
2269.38198	0.01766
2268.09621	0.01748
2266.81044	0.01743
2265.52467	0.01736
2264.23890	0.01711
2262.95314	0.01674
2261.66737	0.01637
2260.38160	0.01611
2259.09583	0.01600
2257.81006	0.01603
2256.52429	0.01611
2255.23852	0.01603
2253.95275	0.01576
2252.66698	0.01545
2251.38122	0.01534
2250.09545	0.01551
2248.80968	0.01586
2247.52391	0.01606
2246.23814	0.01643
2244.95237	0.01687
2243.66660	0.01697
2242.38083	0.01647
2241.09507	0.01558
2239.80930	0.01471
2238.52353	0.01416
2237.23776	0.01387
2235.95199	0.01365
2234.66622	0.01342
2233.38045	0.01309
2232.09468	0.01256
2230.80891	0.01178
2229.52315	0.01092
2228.23738	0.01038
2226.95161	0.01045
2225.66584	0.01108
2224.38007	0.01195
2223.09430	0.01272
2221.80853	0.01313
2220.52276	0.01302
2219.23700	0.01246
2217.95123	0.01186
2216.66546	0.01167
2215.37969	0.01180
2214.09392	0.01168
2212.80815	0.01105
2211.52238	0.01035
2210.23661	0.01013
2208.95084	0.01041
2207.66508	0.01069
2206.37931	0.01059
2205.09354	0.01011
2203.80777	0.00945
2202.52200	0.00894
2201.23623	0.00902
2199.95046	0.00989
2198.66469	0.01109
2197.37893	0.01166
2196.09316	0.01111
2194.80739	0.00990
2193.52162	0.00890
2192.23585	0.00859
2190.95008	0.00879
2189.66431	0.00914
2188.37854	0.00934
2187.09277	0.00932
2185.80701	0.00927
2184.52124	0.00953
2183.23547	0.01021
2181.94970	0.01099
2180.66393	0.01128
2179.37816	0.01076
2178.09239	0.00981
2176.80662	0.00920
2175.52085	0.00928
2174.23509	0.00954
2172.94932	0.00923
2171.66355	0.00823
2170.37778	0.00696
2169.09201	0.00572
2167.80624	0.00455
2166.52047	0.00362
2165.23470	0.00327
2163.94894	0.00355
2162.66317	0.00393
2161.37740	0.00387
2160.09163	0.00335
2158.80586	0.00279
2157.52009	0.00254
2156.23432	0.00265
2154.94855	0.00316
2153.66278	0.00420
2152.37702	0.00563
2151.09125	0.00698
2149.80548	0.00781
2148.51971	0.00803
2147.23394	0.00794
2145.94817	0.00797
2144.66240	0.00829
2143.37663	0.00867
2142.09087	0.00864
2140.80510	0.00805
2139.51933	0.00727
2138.23356	0.00681
2136.94779	0.00681
2135.66202	0.00702
2134.37625	0.00728
2133.09048	0.00757
2131.80471	0.00786
2130.51895	0.00804
2129.23318	0.00804
2127.94741	0.00793
2126.66164	0.00789
2125.37587	0.00800
2124.09010	0.00827
2122.80433	0.00863
2121.51856	0.00913
2120.23280	0.00986
2118.94703	0.01080
2117.66126	0.01162
2116.37549	0.01182
2115.08972	0.01119
2113.80395	0.01000
2112.51818	0.00882
2111.23241	0.00804
2109.94664	0.00771
2108.66088	0.00774
2107.37511	0.00812
2106.08934	0.00879
2104.80357	0.00952
2103.51780	0.00999
2102.23203	0.01004
2100.94626	0.00972
2099.66049	0.00948
2098.37473	0.00883
2097.08896	0.00800
2095.80319	0.00742
2094.51742	0.00729
2093.23165	0.00757
2091.94588	0.00808
2090.66011	0.00856
2089.37434	0.00881
2088.08857	0.00881
2086.80281	0.00871
2085.51704	0.00866
2084.23127	0.00868
2082.94550	0.00872
2081.65973	0.00879
2080.37396	0.00885
2079.08819	0.00875
2077.80242	0.00840
2076.51666	0.00793
2075.23089	0.00769
2073.94512	0.00790
2072.65935	0.00839
2071.37358	0.00876
2070.08781	0.00867
2068.80204	0.00809
2067.51627	0.00729
2066.23050	0.00664
2064.94474	0.00628
2063.65897	0.00600
2062.37320	0.00562
2061.08743	0.00520
2059.80166	0.00504
2058.51589	0.00517
2057.23012	0.00526
2055.94435	0.00514
2054.65859	0.00508
2053.37282	0.00552
2052.08705	0.00637
2050.80128	0.00703
2049.51551	0.00697
2048.22974	0.00625
2046.94397	0.00530
2045.65820	0.00439
2044.37243	0.00358
2043.08667	0.00294
2041.80090	0.00260
2040.51513	0.00243
2039.22936	0.00200
2037.94359	0.00096
2036.65782	-0.00041
2035.37205	-0.00141
2034.08628	-0.00157
2032.80052	-0.00111
2031.51475	-0.00045
2030.22898	0.00037
2028.94321	0.00154
2027.65744	0.00291
2026.37167	0.00393
2025.08590	0.00414
2023.80013	0.00361
2022.51436	0.00278
2021.22860	0.00213
2019.94283	0.00189
2018.65706	0.00201
2017.37129	0.00223
2016.08552	0.00228
2014.79975	0.00213
2013.51398	0.00204
2012.22821	0.00230
2010.94245	0.00287
2009.65668	0.00339
2008.37091	0.00353
2007.08514	0.00338
2005.79937	0.00334
2004.51360	0.00381
2003.22783	0.00480
2001.94206	0.00600
2000.65629	0.00704
1999.37053	0.00768
1998.08476	0.00787
1996.79899	0.00762
1995.51322	0.00704
1994.22745	0.00649
1992.94168	0.00637
1991.65591	0.00667
1990.37014	0.00692
1989.08438	0.00672
1987.79861	0.00620
1986.51284	0.00595
1985.22707	0.00639
1983.94130	0.00752
1982.65553	0.00894
1981.36976	0.00997
1980.08399	0.01005
1978.79822	0.00905
1977.51246	0.00738
1976.22669	0.00573
1974.94092	0.00463
1973.65515	0.00421
1972.36938	0.00437
1971.08361	0.00489
1969.79784	0.00548
1968.51207	0.00584
1967.22631	0.00584
1965.94054	0.00563
1964.65477	0.00548
1963.36900	0.00558
1962.08323	0.00600
1960.79746	0.00663
1959.51169	0.00727
1958.22592	0.00765
1956.94015	0.00758
1955.65439	0.00714
1954.36862	0.00668
1953.08285	0.00651
1951.79708	0.00664
1950.51131	0.00686
1949.22554	0.00703
1947.93977	0.00728
1946.65400	0.00780
1945.36823	0.00855
1944.08247	0.00922
1942.79670	0.00953
1941.51093	0.00944
1940.22516	0.00910
1938.93939	0.00868
1937.65362	0.00837
1936.36785	0.00830
1935.08208	0.00850
1933.79632	0.00892
1932.51055	0.00943
1931.22478	0.00989
1929.93901	0.01015
1928.65324	0.01011
1927.36747	0.00976
1926.08170	0.00923
1924.79593	0.00878
1923.51016	0.00867
1922.22440	0.00901
1920.93863	0.00959
1919.65286	0.01006
1918.36709	0.01029
1917.08132	0.01039
1915.79555	0.01036
1914.50978	0.01016
1913.22401	0.00985
1911.93825	0.00954
1910.65248	0.00935
1909.36671	0.00936
1908.08094	0.00964
1906.79517	0.01012
1905.50940	0.01067
1904.22363	0.01113
1902.93786	0.01145
1901.65209	0.01168
1900.36633	0.01189
1899.08056	0.01204
1897.79479	0.01207
1896.50902	0.01189
1895.22325	0.01153
1893.93748	0.01112
1892.65171	0.01074
1891.36594	0.01044
1890.08018	0.01026
1888.79441	0.01020
1887.50864	0.01022
1886.22287	0.01027
1884.93710	0.01039
1883.65133	0.01057
1882.36556	0.01075
1881.07979	0.01087
1879.79402	0.01093
1878.50826	0.01096
1877.22249	0.01094
1875.93672	0.01091
1874.65095	0.01091
1873.36518	0.01096
1872.07941	0.01095
1870.79364	0.01083
1869.50787	0.01067
1868.22211	0.01064
1866.93634	0.01071
1865.65057	0.01073
1864.36480	0.01064
1863.07903	0.01052
1861.79326	0.01053
1860.50749	0.01069
1859.22172	0.01089
1857.93595	0.01098
1856.65019	0.01088
1855.36442	0.01067
1854.07865	0.01048
1852.79288	0.01040
1851.50711	0.01043
1850.22134	0.01055
1848.93557	0.01073
1847.64980	0.01085
1846.36404	0.01075
1845.07827	0.01055
1843.79250	0.01062
1842.50673	0.01103
1841.22096	0.01139
1839.93519	0.01136
1838.64942	0.01107
1837.36365	0.01083
1836.07788	0.01079
1834.79212	0.01094
1833.50635	0.01120
1832.22058	0.01139
1830.93481	0.01146
1829.64904	0.01148
1828.36327	0.01153
1827.07750	0.01152
1825.79173	0.01150
1824.50597	0.01161
1823.22020	0.01185
1821.93443	0.01203
1820.64866	0.01202
1819.36289	0.01184
1818.07712	0.01157
1816.79135	0.01135
1815.50558	0.01126
1814.21981	0.01126
1812.93405	0.01124
1811.64828	0.01117
1810.36251	0.01111
1809.07674	0.01115
1807.79097	0.01133
1806.50520	0.01161
1805.21943	0.01187
1803.93366	0.01196
1802.64790	0.01189
1801.36213	0.01183
1800.07636	0.01195
1798.79059	0.01225
1797.50482	0.01260
1796.21905	0.01287
1794.93328	0.01292
1793.64751	0.01278
1792.36174	0.01270
1791.07598	0.01284
1789.79021	0.01309
1788.50444	0.01319
1787.21867	0.01311
1785.93290	0.01296
1784.64713	0.01287
1783.36136	0.01280
1782.07559	0.01267
1780.78983	0.01251
1779.50406	0.01251
1778.21829	0.01269
1776.93252	0.01293
1775.64675	0.01300
1774.36098	0.01282
1773.07521	0.01260
1771.78944	0.01273
1770.50367	0.01309
1769.21791	0.01337
1767.93214	0.01350
1766.64637	0.01368
1765.36060	0.01382
1764.07483	0.01375
1762.78906	0.01355
1761.50329	0.01353
1760.21752	0.01368
1758.93176	0.01376
1757.64599	0.01371
1756.36022	0.01379
1755.07445	0.01409
1753.78868	0.01428
1752.50291	0.01415
1751.21714	0.01391
1749.93137	0.01385
1748.64560	0.01395
1747.35984	0.01407
1746.07407	0.01418
1744.78830	0.01430
1743.50253	0.01440
1742.21676	0.01443
1740.93099	0.01442
1739.64522	0.01460
1738.35945	0.01506
1737.07369	0.01535
1735.78792	0.01507
1734.50215	0.01466
1733.21638	0.01476
1731.93061	0.01526
1730.64484	0.01559
1729.35907	0.01563
1728.07330	0.01565
1726.78753	0.01574
1725.50177	0.01583
1724.21600	0.01596
1722.93023	0.01626
1721.64446	0.01668
1720.35869	0.01690
1719.07292	0.01682
1717.78715	0.01679
1716.50138	0.01710
1715.21561	0.01760
1713.92985	0.01800
1712.64408	0.01827
1711.35831	0.01851
1710.07254	0.01875
1708.78677	0.01898
1707.50100	0.01914
1706.21523	0.01933
1704.92946	0.01974
1703.64370	0.02016
1702.35793	0.02017
1701.07216	0.02006
1699.78639	0.02051
1698.50062	0.02128
1697.21485	0.02157
1695.92908	0.02151
1694.64331	0.02185
1693.35754	0.02250
1692.07178	0.02286
1690.78601	0.02297
1689.50024	0.02329
1688.21447	0.02380
1686.92870	0.02402
1685.64293	0.02390
1684.35716	0.02403
1683.07139	0.02477
1681.78563	0.02559
1680.49986	0.02608
1679.21409	0.02637
1677.92832	0.02660
1676.64255	0.02674
1675.35678	0.02700
1674.07101	0.02753
1672.78524	0.02808
1671.49947	0.02829
1670.21371	0.02834
1668.92794	0.02864
1667.64217	0.02925
1666.35640	0.02981
1665.07063	0.03005
1663.78486	0.03012
1662.49909	0.03036
1661.21332	0.03086
1659.92756	0.03145
1658.64179	0.03208
1657.35602	0.03273
1656.07025	0.03301
1654.78448	0.03264
1653.49871	0.03224
1652.21294	0.03272
1650.92717	0.03384
1649.64140	0.03450
1648.35564	0.03434
1647.06987	0.03402
1645.78410	0.03418
1644.49833	0.03470
1643.21256	0.03518
1641.92679	0.03545
1640.64102	0.03571
1639.35525	0.03599
1638.06949	0.03605
1636.78372	0.03590
1635.49795	0.03593
1634.21218	0.03640
1632.92641	0.03700
1631.64064	0.03732
1630.35487	0.03742
1629.06910	0.03756
1627.78333	0.03784
1626.49757	0.03811
1625.21180	0.03822
1623.92603	0.03826
1622.64026	0.03852
1621.35449	0.03903
1620.06872	0.03944
1618.78295	0.03946
1617.49718	0.03933
1616.21142	0.03958
1614.92565	0.04022
1613.63988	0.04078
1612.35411	0.04102
1611.06834	0.04113
1609.78257	0.04130
1608.49680	0.04152
1607.21103	0.04177
1605.92526	0.04204
1604.63950	0.04233
1603.35373	0.04265
1602.06796	0.04296
1600.78219	0.04326
1599.49642	0.04351
1598.21065	0.04370
1596.92488	0.04386
1595.63911	0.04402
1594.35335	0.04422
1593.06758	0.04445
1591.78181	0.04465
1590.49604	0.04478
1589.21027	0.04488
1587.92450	0.04493
1586.63873	0.04496
1585.35296	0.04501
1584.06719	0.04510
1582.78143	0.04526
1581.49566	0.04551
1580.20989	0.04576
1578.92412	0.04575
1577.63835	0.04541
1576.35258	0.04518
1575.06681	0.04551
1573.78104	0.04611
1572.49528	0.04635
1571.20951	0.04614
1569.92374	0.04594
1568.63797	0.04607
1567.35220	0.04636
1566.06643	0.04657
1564.78066	0.04678
1563.49489	0.04710
1562.20912	0.04718
1560.92336	0.04680
1559.63759	0.04640
1558.35182	0.04663
1557.06605	0.04732
1555.78028	0.04776
1554.49451	0.04785
1553.20874	0.04801
1551.92297	0.04833
1550.63721	0.04863
1549.35144	0.04892
1548.06567	0.04925
1546.77990	0.04954
1545.49413	0.04981
1544.20836	0.05011
1542.92259	0.05034
1541.63682	0.05036
1540.35105	0.05042
1539.06529	0.05098
1537.77952	0.05201
1536.49375	0.05292
1535.20798	0.05338
1533.92221	0.05378
1532.63644	0.05457
1531.35067	0.05565
1530.06490	0.05668
1528.77914	0.05758
1527.49337	0.05852
1526.20760	0.05968
1524.92183	0.06098
1523.63606	0.06217
1522.35029	0.06327
1521.06452	0.06464
1519.77875	0.06637
1518.49298	0.06808
1517.20722	0.06960
1515.92145	0.07118
1514.63568	0.07294
1513.34991	0.07477
1512.06414	0.07667
1510.77837	0.07862
1509.49260	0.08038
1508.20683	0.08184
1506.92107	0.08339
1505.63530	0.08551
1504.34953	0.08795
1503.06376	0.09007
1501.77799	0.09166
1500.49222	0.09302
1499.20645	0.09437
1497.92068	0.09572
1496.63491	0.09713
1495.34915	0.09867
1494.06338	0.10022
1492.77761	0.10155
1491.49184	0.10273
1490.20607	0.10404
1488.92030	0.10558
1487.63453	0.10720
1486.34876	0.10881
1485.06299	0.11037
1483.77723	0.11193
1482.49146	0.11351
1481.20569	0.11516
1479.91992	0.11688
1478.63415	0.11857
1477.34838	0.12017
1476.06261	0.12163
1474.77684	0.12288
1473.49108	0.12391
1472.20531	0.12493
1470.91954	0.12599
1469.63377	0.12688
1468.34800	0.12741
1467.06223	0.12762
1465.77646	0.12774
1464.49069	0.12804
1463.20492	0.12860
1461.91916	0.12927
1460.63339	0.12984
1459.34762	0.13012
1458.06185	0.13029
1456.77608	0.13080
1455.49031	0.13181
1454.20454	0.13286
1452.91877	0.13355
1451.63301	0.13397
1450.34724	0.13431
1449.06147	0.13457
1447.77570	0.13474
1446.48993	0.13483
1445.20416	0.13481
1443.91839	0.13465
1442.63262	0.13444
1441.34685	0.13427
1440.06109	0.13409
1438.77532	0.13380
1437.48955	0.13360
1436.20378	0.13383
1434.91801	0.13452
1433.63224	0.13535
1432.34647	0.13616
1431.06070	0.13716
1429.77494	0.13853
1428.48917	0.14022
1427.20340	0.14204
1425.91763	0.14385
1424.63186	0.14567
1423.34609	0.14753
1422.06032	0.14925
1420.77455	0.15071
1419.48878	0.15208
1418.20302	0.15347
1416.91725	0.15468
1415.63148	0.15544
1414.34571	0.15580
1413.05994	0.15593
1411.77417	0.15584
1410.48840	0.15544
1409.20263	0.15467
1407.91687	0.15348
1406.63110	0.15192
1405.34533	0.15008
1404.05956	0.14810
1402.77379	0.14595
1401.48802	0.14352
1400.20225	0.14075
1398.91648	0.13782
1397.63071	0.13484
1396.34495	0.13179
1395.05918	0.12868
1393.77341	0.12560
1392.48764	0.12252
1391.20187	0.11935
1389.91610	0.11602
1388.63033	0.11266
1387.34456	0.10943
1386.05880	0.10636
1384.77303	0.10333
1383.48726	0.10021
1382.20149	0.09705
1380.91572	0.09390
1379.62995	0.09081
1378.34418	0.08778
1377.05841	0.08481
1375.77264	0.08187
1374.48688	0.07898
1373.20111	0.07621
1371.91534	0.07356
1370.62957	0.07101
1369.34380	0.06857
1368.05803	0.06631
1366.77226	0.06424
1365.48649	0.06226
1364.20073	0.06031
1362.91496	0.05842
1361.62919	0.05664
1360.34342	0.05498
1359.05765	0.05341
1357.77188	0.05195
1356.48611	0.05061
1355.20034	0.04937
1353.91457	0.04817
1352.62881	0.04697
1351.34304	0.04577
1350.05727	0.04463
1348.77150	0.04360
1347.48573	0.04266
1346.19996	0.04176
1344.91419	0.04087
1343.62842	0.04001
1342.34266	0.03917
1341.05689	0.03836
1339.77112	0.03758
1338.48535	0.03686
1337.19958	0.03621
1335.91381	0.03562
1334.62804	0.03509
1333.34227	0.03457
1332.05650	0.03402
1330.77074	0.03346
1329.48497	0.03292
1328.19920	0.03242
1326.91343	0.03198
1325.62766	0.03161
1324.34189	0.03128
1323.05612	0.03100
1321.77035	0.03074
1320.48459	0.03045
1319.19882	0.03013
1317.91305	0.02980
1316.62728	0.02946
1315.34151	0.02914
1314.05574	0.02883
1312.76997	0.02855
1311.48420	0.02829
1310.19843	0.02804
1308.91267	0.02775
1307.62690	0.02745
1306.34113	0.02715
1305.05536	0.02686
1303.76959	0.02660
1302.48382	0.02639
1301.19805	0.02621
1299.91228	0.02604
1298.62652	0.02584
1297.34075	0.02562
1296.05498	0.02539
1294.76921	0.02518
1293.48344	0.02500
1292.19767	0.02484
1290.91190	0.02467
1289.62613	0.02450
1288.34036	0.02433
1287.05460	0.02417
1285.76883	0.02398
1284.48306	0.02377
1283.19729	0.02357
1281.91152	0.02343
1280.62575	0.02336
1279.33998	0.02333
1278.05421	0.02328
1276.76845	0.02317
1275.48268	0.02302
1274.19691	0.02283
1272.91114	0.02262
1271.62537	0.02240
1270.33960	0.02221
1269.05383	0.02209
1267.76806	0.02206
1266.48229	0.02210
1265.19653	0.02214
1263.91076	0.02214
1262.62499	0.02206
1261.33922	0.02195
1260.05345	0.02184
1258.76768	0.02174
1257.48191	0.02164
1256.19614	0.02154
1254.91037	0.02143
1253.62461	0.02134
1252.33884	0.02127
1251.05307	0.02120
1249.76730	0.02113
1248.48153	0.02106
1247.19576	0.02098
1245.90999	0.02093
1244.62422	0.02090
1243.33846	0.02087
1242.05269	0.02084
1240.76692	0.02078
1239.48115	0.02068
1238.19538	0.02055
1236.90961	0.02043
1235.62384	0.02038
1234.33807	0.02039
1233.05230	0.02041
1231.76654	0.02040
1230.48077	0.02035
1229.19500	0.02030
1227.90923	0.02026
1226.62346	0.02025
1225.33769	0.02025
1224.05192	0.02025
1222.76615	0.02024
1221.48039	0.02024
1220.19462	0.02028
1218.90885	0.02036
1217.62308	0.02044
1216.33731	0.02049
1215.05154	0.02052
1213.76577	0.02060
1212.48000	0.02077
1211.19423	0.02099
1209.90847	0.02120
1208.62270	0.02136
1207.33693	0.02149
1206.05116	0.02159
1204.76539	0.02170
1203.47962	0.02184
1202.19385	0.02201
1200.90808	0.02218
1199.62232	0.02231
1198.33655	0.02247
1197.05078	0.02260
1195.76501	0.02273
1194.47924	0.02287
1193.19347	0.02304
1191.90770	0.02322
1190.62193	0.02334
1189.33616	0.02340
1188.05040	0.02346
1186.76463	0.02360
1185.47886	0.02381
1184.19309	0.02405
1182.90732	0.02425
1181.62155	0.02440
1180.33578	0.02454
1179.05001	0.02468
1177.76425	0.02482
1176.47848	0.02493
1175.19271	0.02504
1173.90694	0.02519
1172.62117	0.02541
1171.33540	0.02567
1170.04963	0.02594
1168.76386	0.02620
1167.47809	0.02648
1166.19233	0.02679
1164.90656	0.02711
1163.62079	0.02745
1162.33502	0.02779
1161.04925	0.02816
1159.76348	0.02857
1158.47771	0.02900
1157.19194	0.02944
1155.90618	0.02989
1154.62041	0.03035
1153.33464	0.03083
1152.04887	0.03138
1150.76310	0.03198
1149.47733	0.03261
1148.19156	0.03323
1146.90579	0.03389
1145.62002	0.03465
1144.33426	0.03552
1143.04849	0.03647
1141.76272	0.03746
1140.47695	0.03857
1139.19118	0.03983
1137.90541	0.04126
1136.61964	0.04282
1135.33387	0.04454
1134.04811	0.04644
1132.76234	0.04851
1131.47657	0.05075
1130.19080	0.05316
1128.90503	0.05580
1127.61926	0.05872
1126.33349	0.06192
1125.04772	0.06535
1123.76195	0.06895
1122.47619	0.07267
1121.19042	0.07651
1119.90465	0.08048
1118.61888	0.08454
1117.33311	0.08866
1116.04734	0.09281
1114.76157	0.09694
1113.47580	0.10105
1112.19004	0.10513
1110.90427	0.10916
1109.61850	0.11311
1108.33273	0.11696
1107.04696	0.12071
1105.76119	0.12438
1104.47542	0.12801
1103.18965	0.13164
1101.90388	0.13531
1100.61812	0.13895
1099.33235	0.14248
1098.04658	0.14583
1096.76081	0.14899
1095.47504	0.15194
1094.18927	0.15475
1092.90350	0.15748
1091.61773	0.16020
1090.33197	0.16290
1089.04620	0.16550
1087.76043	0.16794
1086.47466	0.17025
1085.18889	0.17250
1083.90312	0.17479
1082.61735	0.17721
1081.33158	0.17985
1080.04581	0.18276
1078.76005	0.18593
1077.47428	0.18931
1076.18851	0.19281
1074.90274	0.19641
1073.61697	0.20014
1072.33120	0.20407
1071.04543	0.20822
1069.75966	0.21255
1068.47390	0.21703
1067.18813	0.22165
1065.90236	0.22644
1064.61659	0.23143
1063.33082	0.23658
1062.04505	0.24187
1060.75928	0.24723
1059.47351	0.25260
1058.18774	0.25792
1056.90198	0.26318
1055.61621	0.26842
1054.33044	0.27367
1053.04467	0.27893
1051.75890	0.28425
1050.47313	0.28967
1049.18736	0.29522
1047.90159	0.30091
1046.61583	0.30669
1045.33006	0.31256
1044.04429	0.31854
1042.75852	0.32463
1041.47275	0.33086
1040.18698	0.33725
1038.90121	0.34388
1037.61544	0.35070
1036.32967	0.35759
1035.04391	0.36431
1033.75814	0.37074
1032.47237	0.37684
1031.18660	0.38265
1029.90083	0.38816
1028.61506	0.39330
1027.32929	0.39793
1026.04352	0.40197
1024.75775	0.40538
1023.47199	0.40816
1022.18622	0.41028
1020.90045	0.41170
1019.61468	0.41238
1018.32891	0.41226
1017.04314	0.41125
1015.75737	0.40931
1014.47160	0.40644
1013.18584	0.40264
1011.90007	0.39790
1010.61430	0.39220
1009.32853	0.38553
1008.04276	0.37786
1006.75699	0.36919
1005.47122	0.35961
1004.18545	0.34924
1002.89968	0.33821
1001.61392	0.32669
1000.32815	0.31486
999.04238	0.30287
997.75661	0.29078
996.47084	0.27861
995.18507	0.26640
993.89930	0.25432
992.61353	0.24251
991.32777	0.23110
990.04200	0.22015
988.75623	0.20966
987.47046	0.19967
986.18469	0.19018
984.89892	0.18120
983.61315	0.17268
982.32738	0.16458
981.04161	0.15696
979.75585	0.14989
978.47008	0.14345
977.18431	0.13767
975.89854	0.13262
974.61277	0.12833
973.32700	0.12479
972.04123	0.12198
970.75546	0.11992
969.46970	0.11870
968.18393	0.11836
966.89816	0.11878
965.61239	0.11973
964.32662	0.12095
963.04085	0.12208
961.75508	0.12276
960.46931	0.12263
959.18354	0.12144
957.89778	0.11917
956.61201	0.11598
955.32624	0.11220
954.04047	0.10822
952.75470	0.10430
951.46893	0.10057
950.18316	0.09700
948.89739	0.09353
947.61163	0.09013
946.32586	0.08682
945.04009	0.08367
943.75432	0.08074
942.46855	0.07803
941.18278	0.07551
939.89701	0.07315
938.61124	0.07093
937.32547	0.06884
936.03971	0.06688
934.75394	0.06508
933.46817	0.06346
932.18240	0.06200
930.89663	0.06070
929.61086	0.05954
928.32509	0.05849
927.03932	0.05749
925.75356	0.05650
924.46779	0.05556
923.18202	0.05470
921.89625	0.05393
920.61048	0.05327
919.32471	0.05269
918.03894	0.05216
916.75317	0.05164
915.46740	0.05110
914.18164	0.05052
912.89587	0.04994
911.61010	0.04942
910.32433	0.04897
909.03856	0.04859
907.75279	0.04821
906.46702	0.04777
905.18125	0.04724
903.89549	0.04667
902.60972	0.04617
901.32395	0.04579
900.03818	0.04550
898.75241	0.04522
897.46664	0.04492
896.18087	0.04463
894.89510	0.04441
893.60933	0.04429
892.32357	0.04433
891.03780	0.04467
889.75203	0.04549
888.46626	0.04687
887.18049	0.04892
885.89472	0.05179
884.60895	0.05570
883.32318	0.06064
882.03742	0.06625
880.75165	0.07180
879.46588	0.07656
878.18011	0.08026
876.89434	0.08323
875.60857	0.08592
874.32280	0.08835
873.03703	0.08994
871.75126	0.08997
870.46550	0.08818
869.17973	0.08487
867.89396	0.08063
866.60819	0.07605
865.32242	0.07151
864.03665	0.06727
862.75088	0.06346
861.46511	0.06011
860.17935	0.05717
858.89358	0.05463
857.60781	0.05249
856.32204	0.05077
855.03627	0.04941
853.75050	0.04830
852.46473	0.04730
851.17896	0.04633
849.89319	0.04539
848.60743	0.04453
847.32166	0.04384
846.03589	0.04331
844.75012	0.04289
843.46435	0.04247
842.17858	0.04201
840.89281	0.04154
839.60704	0.04112
838.32128	0.04075
837.03551	0.04042
835.74974	0.04012
834.46397	0.03985
833.17820	0.03959
831.89243	0.03935
830.60666	0.03913
829.32089	0.03896
828.03512	0.03884
826.74936	0.03875
825.46359	0.03864
824.17782	0.03847
822.89205	0.03824
821.60628	0.03800
820.32051	0.03783
819.03474	0.03771
817.74897	0.03760
816.46321	0.03750
815.17744	0.03743
813.89167	0.03741
812.60590	0.03746
811.32013	0.03750
810.03436	0.03747
808.74859	0.03736
807.46282	0.03724
806.17705	0.03717
804.89129	0.03715
803.60552	0.03717
802.31975	0.03721
801.03398	0.03728
799.74821	0.03737
798.46244	0.03748
797.17667	0.03757
795.89090	0.03758
794.60513	0.03745
793.31937	0.03723
792.03360	0.03702
790.74783	0.03692
789.46206	0.03692
788.17629	0.03698
786.89052	0.03707
785.60475	0.03717
784.31898	0.03730
783.03322	0.03738
781.74745	0.03734
780.46168	0.03720
779.17591	0.03702
777.89014	0.03687
776.60437	0.03675
775.31860	0.03664
774.03283	0.03656
772.74706	0.03655
771.46130	0.03667
770.17553	0.03691
768.88976	0.03715
767.60399	0.03731
766.31822	0.03740
765.03245	0.03749
763.74668	0.03757
762.46091	0.03761
761.17515	0.03762
759.88938	0.03761
758.60361	0.03758
757.31784	0.03751
756.03207	0.03740
754.74630	0.03729
753.46053	0.03723
752.17476	0.03724
750.88899	0.03732
749.60323	0.03738
748.31746	0.03738
747.03169	0.03735
745.74592	0.03733
744.46015	0.03731
743.17438	0.03726
741.88861	0.03724
740.60284	0.03727
739.31708	0.03732
738.03131	0.03734
736.74554	0.03734
735.45977	0.03736
734.17400	0.03738
732.88823	0.03741
731.60246	0.03752
730.31669	0.03776
729.03092	0.03804
727.74516	0.03827
726.45939	0.03842
725.17362	0.03857
723.88785	0.03872
722.60208	0.03902
721.31631	0.03940
720.03054	0.03976
718.74477	0.04007
717.45901	0.04027
716.17324	0.04030
714.88747	0.04020
713.60170	0.04001
712.31593	0.03981
711.03016	0.03962
709.74439	0.03944
708.45862	0.03927
707.17285	0.03911
705.88709	0.03900
704.60132	0.03899
703.31555	0.03907
702.02978	0.03919
700.74401	0.03931
699.45824	0.03938
698.17247	0.03944
696.88670	0.03951
695.60094	0.03960
694.31517	0.03970
693.02940	0.03978
691.74363	0.03983
690.45786	0.03987
689.17209	0.03990
687.88632	0.03993
686.60055	0.03995
685.31478	0.03997
684.02902	0.04003
682.74325	0.04010
681.45748	0.04018
680.17171	0.04023
678.88594	0.04026
677.60017	0.04030
676.31440	0.04030
675.02863	0.04034
673.74287	0.04043
672.45710	0.04061
671.17133	0.04084
669.88556	0.04111
668.59979	0.04138
667.31402	0.04162
666.02825	0.04177
664.74248	0.04179
663.45671	0.04170
662.17095	0.04156
660.88518	0.04140
659.59941	0.04121
658.31364	0.04100
657.02787	0.04080
655.74210	0.04065
654.45633	0.04054
653.17056	0.04047
651.88480	0.04044
650.59903	0.04044
649.31326	0.04046
648.02749	0.04052
646.74172	0.04063
645.45595	0.04078
644.17018	0.04095
642.88441	0.04112
641.59864	0.04128
640.31288	0.04146
639.02711	0.04167
637.74134	0.04190
636.45557	0.04216
635.16980	0.04251
633.88403	0.04295
632.59826	0.04343
631.31249	0.04393
630.02673	0.04469
628.74096	0.04564
627.45519	0.04594
626.16942	0.04726
624.88365	0.04935
623.59788	0.05166
622.31211	0.05436
621.02634	0.05780
619.74057	0.06184
618.45481	0.06579
617.16904	0.06916
615.88327	0.07201
614.59750	0.07489
613.31173	0.07856
612.02596	0.08377
610.74019	0.09082
609.45442	0.09902
608.16866	0.10712
606.88289	0.11437
605.59712	0.12068
604.31135	0.12587
603.02558	0.12936
601.73981	0.13059
600.45404	0.12955
599.16827	0.12675
597.88250	0.12290
596.59674	0.11866
595.31097	0.11443
594.02520	0.11047
592.73943	0.10703
591.45366	0.10439
590.16789	0.10279
588.88212	0.10234
587.59635	0.10301
586.31059	0.10463
585.02482	0.10694
583.73905	0.10964
582.45328	0.11258
581.16751	0.11577
579.88174	0.11930
578.59597	0.12313
577.31020	0.12712
576.02443	0.13106
574.73867	0.13486
573.45290	0.13852
572.16713	0.14214
570.88136	0.14595
569.59559	0.15025
568.30982	0.15526
567.02405	0.16093
565.73828	0.16669
564.45251	0.17169
563.16675	0.17503
561.88098	0.17614
560.59521	0.17472
559.30944	0.17072
558.02367	0.16431
556.73790	0.15589
555.45213	0.14616
554.16636	0.13598
552.88060	0.12612
551.59483	0.11707
550.30906	0.10901
549.02329	0.10198
547.73752	0.09594
546.45175	0.09085
545.16598	0.08662
543.88021	0.08307
542.59444	0.08001
541.30868	0.07728
540.02291	0.07483
538.73714	0.07265
537.45137	0.07077
536.16560	0.06910
534.87983	0.06751
533.59406	0.06589
532.30829	0.06417
531.02253	0.06240
529.73676	0.06070
528.45099	0.05914
527.16522	0.05771
525.87945	0.05632
524.59368	0.05496
523.30791	0.05369
522.02214	0.05257
520.73637	0.05158
519.45061	0.05072
518.16484	0.04999
516.87907	0.04938
515.59330	0.04884
514.30753	0.04831
513.02176	0.04775
511.73599	0.04716
510.45022	0.04657
509.16446	0.04599
507.87869	0.04552
506.59292	0.04523
505.30715	0.04508
504.02138	0.04493
502.73561	0.04466
501.44984	0.04428
500.16407	0.04392
498.87830	0.04370
497.59254	0.04366
496.30677	0.04372
495.02100	0.04380
493.73523	0.04389
492.44946	0.04402
491.16369	0.04420
489.87792	0.04442
488.59215	0.04465
487.30639	0.04491
486.02062	0.04522
484.73485	0.04556
483.44908	0.04593
482.16331	0.04636
480.87754	0.04689
479.59177	0.04754
478.30600	0.04834
477.02023	0.04927
475.73447	0.05024
474.44870	0.05110
473.16293	0.05178
471.87716	0.05226
470.59139	0.05263
469.30562	0.05295
468.01985	0.05326
466.73408	0.05357
465.44832	0.05387
464.16255	0.05409
462.87678	0.05421
461.59101	0.05422
460.30524	0.05415
459.01947	0.05403
457.73370	0.05394
456.44793	0.05394
455.16216	0.05399
453.87640	0.05408
452.59063	0.05412
451.30486	0.05401
450.01909	0.05365
448.73332	0.05303
447.44755	0.05224
446.16178	0.05138
444.87601	0.05054
443.59025	0.04972
442.30448	0.04892
441.01871	0.04808
439.73294	0.04719
438.44717	0.04629
437.16140	0.04546
435.87563	0.04477
434.58986	0.04420
433.30409	0.04369
432.01833	0.04318
430.73256	0.04267
429.44679	0.04217
428.16102	0.04168
426.87525	0.04118
425.58948	0.04068
424.30371	0.04016
423.01794	0.03962
421.73218	0.03902
420.44641	0.03837
419.16064	0.03779
417.87487	0.03737
416.58910	0.03702
415.30333	0.03664
414.01756	0.03625
412.73179	0.03593
411.44602	0.03574
410.16026	0.03565
408.87449	0.03561
407.58872	0.03559
406.30295	0.03561
405.01718	0.03570
403.73141	0.03587
402.44564	0.03609
401.15987	0.03631
399.87411	0.03650
