3997.45528	0.06655
3996.16951	0.06607
3994.88374	0.06529
3993.59798	0.06456
3992.31221	0.06427
3991.02644	0.06433
3989.74067	0.06434
3988.45490	0.06414
3987.16913	0.06393
3985.88336	0.06391
3984.59759	0.06393
3983.31183	0.06373
3982.02606	0.06318
3980.74029	0.06243
3979.45452	0.06175
3978.16875	0.06135
3976.88298	0.06126
3975.59721	0.06125
3974.31144	0.06115
3973.02567	0.06108
3971.73991	0.06141
3970.45414	0.06229
3969.16837	0.06341
3967.88260	0.06417
3966.59683	0.06415
3965.31106	0.06332
3964.02529	0.06219
3962.73952	0.06139
3961.45376	0.06130
3960.16799	0.06172
3958.88222	0.06213
3957.59645	0.06213
3956.31068	0.06164
3955.02491	0.06074
3953.73914	0.05954
3952.45337	0.05829
3951.16760	0.05739
3949.88184	0.05716
3948.59607	0.05772
3947.31030	0.05888
3946.02453	0.06013
3944.73876	0.06088
3943.45299	0.06085
3942.16722	0.06019
3940.88145	0.05931
3939.59569	0.05860
3938.30992	0.05837
3937.02415	0.05875
3935.73838	0.05952
3934.45261	0.06022
3933.16684	0.06054
3931.88107	0.06048
3930.59530	0.06034
3929.30953	0.06030
3928.02377	0.06031
3926.73800	0.06022
3925.45223	0.05994
3924.16646	0.05951
3922.88069	0.05917
3921.59492	0.05914
3920.30915	0.05950
3919.02338	0.06012
3917.73762	0.06066
3916.45185	0.06081
3915.16608	0.06046
3913.88031	0.05974
3912.59454	0.05878
3911.30877	0.05773
3910.02300	0.05691
3908.73723	0.05669
3907.45146	0.05711
3906.16570	0.05777
3904.87993	0.05812
3903.59416	0.05799
3902.30839	0.05767
3901.02262	0.05752
3899.73685	0.05747
3898.45108	0.05725
3897.16531	0.05682
3895.87955	0.05648
3894.59378	0.05653
3893.30801	0.05696
3892.02224	0.05741
3890.73647	0.05755
3889.45070	0.05748
3888.16493	0.05758
3886.87916	0.05797
3885.59339	0.05832
3884.30763	0.05835
3883.02186	0.05810
3881.73609	0.05768
3880.45032	0.05705
3879.16455	0.05635
3877.87878	0.05598
3876.59301	0.05614
3875.30724	0.05647
3874.02148	0.05640
3872.73571	0.05583
3871.44994	0.05518
3870.16417	0.05488
3868.87840	0.05508
3867.59263	0.05566
3866.30686	0.05621
3865.02109	0.05630
3863.73532	0.05593
3862.44956	0.05551
3861.16379	0.05529
3859.87802	0.05512
3858.59225	0.05481
3857.30648	0.05449
3856.02071	0.05456
3854.73494	0.05515
3853.44917	0.05594
3852.16341	0.05652
3850.87764	0.05672
3849.59187	0.05655
3848.30610	0.05605
3847.02033	0.05541
3845.73456	0.05490
3844.44879	0.05474
3843.16302	0.05492
3841.87725	0.05520
3840.59149	0.05537
3839.30572	0.05541
3838.01995	0.05545
3836.73418	0.05550
3835.44841	0.05537
3834.16264	0.05482
3832.87687	0.05389
3831.59110	0.05295
3830.30534	0.05251
3829.01957	0.05280
3827.73380	0.05364
3826.44803	0.05466
3825.16226	0.05554
3823.87649	0.05616
3822.59072	0.05641
3821.30495	0.05623
3820.01918	0.05569
3818.73342	0.05511
3817.44765	0.05465
3816.16188	0.05414
3814.87611	0.05348
3813.59034	0.05301
3812.30457	0.05301
3811.01880	0.05329
3809.73303	0.05338
3808.44726	0.05306
3807.16150	0.05238
3805.87573	0.05167
3804.58996	0.05128
3803.30419	0.05129
3802.01842	0.05153
3800.73265	0.05192
3799.44688	0.05257
3798.16111	0.05342
3796.87535	0.05406
3795.58958	0.05414
3794.30381	0.05383
3793.01804	0.05345
3791.73227	0.05309
3790.44650	0.05265
3789.16073	0.05209
3787.87496	0.05159
3786.58919	0.05131
3785.30343	0.05119
3784.01766	0.05109
3782.73189	0.05097
3781.44612	0.05087
3780.16035	0.05077
3778.87458	0.05062
3777.58881	0.05054
3776.30304	0.05075
3775.01728	0.05131
3773.73151	0.05190
3772.44574	0.05218
3771.15997	0.05210
3769.87420	0.05190
3768.58843	0.05188
3767.30266	0.05203
3766.01689	0.05210
3764.73112	0.05188
3763.44536	0.05150
3762.15959	0.05125
3760.87382	0.05137
3759.58805	0.05187
3758.30228	0.05248
3757.01651	0.05270
3755.73074	0.05225
3754.44497	0.05137
3753.15921	0.05060
3751.87344	0.05029
3750.58767	0.05046
3749.30190	0.05098
3748.01613	0.05175
3746.73036	0.05281
3745.44459	0.05377
3744.15882	0.05387
3742.87305	0.05300
3741.58729	0.05189
3740.30152	0.05116
3739.01575	0.05082
3737.72998	0.05063
3736.44421	0.05054
3735.15844	0.05069
3733.87267	0.05113
3732.58690	0.05159
3731.30114	0.05170
3730.01537	0.05141
3728.72960	0.05098
3727.44383	0.05063
3726.15806	0.05038
3724.87229	0.05024
3723.58652	0.05014
3722.30075	0.04995
3721.01498	0.04971
3719.72922	0.04966
3718.44345	0.04997
3717.15768	0.05045
3715.87191	0.05076
3714.58614	0.05074
3713.30037	0.05044
3712.01460	0.04991
3710.72883	0.04927
3709.44307	0.04871
3708.15730	0.04842
3706.87153	0.04848
3705.58576	0.04891
3704.29999	0.04953
3703.01422	0.05003
3701.72845	0.05022
3700.44268	0.05024
3699.15691	0.05030
3697.87115	0.05037
3696.58538	0.05028
3695.29961	0.05010
3694.01384	0.05011
3692.72807	0.05032
3691.44230	0.05041
3690.15653	0.05002
3688.87076	0.04911
3687.58500	0.04806
3686.29923	0.04742
3685.01346	0.04736
3683.72769	0.04752
3682.44192	0.04761
3681.15615	0.04770
3679.87038	0.04808
3678.58461	0.04880
3677.29884	0.04957
3676.01308	0.04999
3674.72731	0.05005
3673.44154	0.05024
3672.15577	0.05084
3670.87000	0.05136
3669.58423	0.05116
3668.29846	0.05023
3667.01269	0.04902
3665.72693	0.04804
3664.44116	0.04773
3663.15539	0.04830
3661.86962	0.04947
3660.58385	0.05057
3659.29808	0.05110
3658.01231	0.05112
3656.72654	0.05099
3655.44077	0.05106
3654.15501	0.05153
3652.86924	0.05239
3651.58347	0.05328
3650.29770	0.05364
3649.01193	0.05314
3647.72616	0.05206
3646.44039	0.05110
3645.15462	0.05095
3643.86886	0.05166
3642.58309	0.05266
3641.29732	0.05334
3640.01155	0.05359
3638.72578	0.05371
3637.44001	0.05383
3636.15424	0.05373
3634.86847	0.05325
3633.58270	0.05251
3632.29694	0.05182
3631.01117	0.05144
3629.72540	0.05148
3628.43963	0.05191
3627.15386	0.05266
3625.86809	0.05341
3624.58232	0.05367
3623.29655	0.05345
3622.01079	0.05343
3620.72502	0.05423
3619.43925	0.05569
3618.15348	0.05706
3616.86771	0.05776
3615.58194	0.05775
3614.29617	0.05726
3613.01040	0.05656
3611.72463	0.05593
3610.43887	0.05563
3609.15310	0.05573
3607.86733	0.05599
3606.58156	0.05606
3605.29579	0.05584
3604.01002	0.05568
3602.72425	0.05609
3601.43848	0.05723
3600.15272	0.05877
3598.86695	0.06018
3597.58118	0.06109
3596.29541	0.06139
3595.00964	0.06129
3593.72387	0.06108
3592.43810	0.06092
3591.15233	0.06082
3589.86656	0.06090
3588.58080	0.06133
3587.29503	0.06203
3586.00926	0.06270
3584.72349	0.06306
3583.43772	0.06304
3582.15195	0.06274
3580.86618	0.06237
3579.58041	0.06214
3578.29464	0.06213
3577.00888	0.06235
3575.72311	0.06269
3574.43734	0.06310
3573.15157	0.06357
3571.86580	0.06414
3570.58003	0.06487
3569.29426	0.06566
3568.00849	0.06620
3566.72273	0.06615
3565.43696	0.06558
3564.15119	0.06489
3562.86542	0.06449
3561.57965	0.06447
3560.29388	0.06459
3559.00811	0.06452
3557.72234	0.06420
3556.43657	0.06383
3555.15081	0.06374
3553.86504	0.06407
3552.57927	0.06466
3551.29350	0.06517
3550.00773	0.06546
3548.72196	0.06570
3547.43619	0.06606
3546.15042	0.06647
3544.86466	0.06675
3543.57889	0.06687
3542.29312	0.06700
3541.00735	0.06726
3539.72158	0.06759
3538.43581	0.06779
3537.15004	0.06776
3535.86427	0.06756
3534.57850	0.06731
3533.29274	0.06712
3532.00697	0.06710
3530.72120	0.06735
3529.43543	0.06796
3528.14966	0.06881
3526.86389	0.06960
3525.57812	0.06996
3524.29235	0.06983
3523.00659	0.06946
3521.72082	0.06921
3520.43505	0.06918
3519.14928	0.06929
3517.86351	0.06949
3516.57774	0.06984
3515.29197	0.07027
3514.00620	0.07049
3512.72043	0.07037
3511.43467	0.07008
3510.14890	0.06990
3508.86313	0.07001
3507.57736	0.07046
3506.29159	0.07122
3505.00582	0.07210
3503.72005	0.07277
3502.43428	0.07312
3501.14852	0.07326
3499.86275	0.07335
3498.57698	0.07332
3497.29121	0.07305
3496.00544	0.07260
3494.71967	0.07228
3493.43390	0.07230
3492.14813	0.07260
3490.86236	0.07307
3489.57660	0.07362
3488.29083	0.07413
3487.00506	0.07438
3485.71929	0.07426
3484.43352	0.07396
3483.14775	0.07376
3481.86198	0.07372
3480.57621	0.07375
3479.29045	0.07385
3478.00468	0.07416
3476.71891	0.07473
3475.43314	0.07541
3474.14737	0.07595
3472.86160	0.07622
3471.57583	0.07625
3470.29006	0.07612
3469.00429	0.07597
3467.71853	0.07599
3466.43276	0.07628
3465.14699	0.07673
3463.86122	0.07707
3462.57545	0.07715
3461.28968	0.07714
3460.00391	0.07729
3458.71814	0.07766
3457.43238	0.07814
3456.14661	0.07864
3454.86084	0.07904
3453.57507	0.07920
3452.28930	0.07898
3451.00353	0.07852
3449.71776	0.07816
3448.43199	0.07813
3447.14622	0.07833
3445.86046	0.07854
3444.57469	0.07876
3443.28892	0.07910
3442.00315	0.07959
3440.71738	0.08003
3439.43161	0.08019
3438.14584	0.08004
3436.86007	0.07978
3435.57431	0.07968
3434.28854	0.07986
3433.00277	0.08025
3431.71700	0.08072
3430.43123	0.08112
3429.14546	0.08143
3427.85969	0.08172
3426.57392	0.08210
3425.28815	0.08253
3424.00239	0.08274
3422.71662	0.08249
3421.43085	0.08181
3420.14508	0.08103
3418.85931	0.08045
3417.57354	0.08016
3416.28777	0.08008
3415.00200	0.08019
3413.71624	0.08052
3412.43047	0.08092
3411.14470	0.08116
3409.85893	0.08114
3408.57316	0.08103
3407.28739	0.08105
3406.00162	0.08132
3404.71585	0.08178
3403.43008	0.08222
3402.14432	0.08241
3400.85855	0.08219
3399.57278	0.08166
3398.28701	0.08107
3397.00124	0.08071
3395.71547	0.08067
3394.42970	0.08098
3393.14393	0.08162
3391.85817	0.08249
3390.57240	0.08335
3389.28663	0.08382
3388.00086	0.08368
3386.71509	0.08300
3385.42932	0.08210
3384.14355	0.08137
3382.85778	0.08100
3381.57201	0.08096
3380.28625	0.08116
3379.00048	0.08156
3377.71471	0.08211
3376.42894	0.08265
3375.14317	0.08297
3373.85740	0.08295
3372.57163	0.08268
3371.28586	0.08238
3370.00010	0.08229
3368.71433	0.08259
3367.42856	0.08324
3366.14279	0.08394
3364.85702	0.08424
3363.57125	0.08391
3362.28548	0.08315
3360.99971	0.08247
3359.71394	0.08229
3358.42818	0.08260
3357.14241	0.08302
3355.85664	0.08322
3354.57087	0.08309
3353.28510	0.08273
3351.99933	0.08225
3350.71356	0.08173
3349.42779	0.08131
3348.14202	0.08113
3346.85626	0.08114
3345.57049	0.08119
3344.28472	0.08123
3342.99895	0.08138
3341.71318	0.08180
3340.42741	0.08249
3339.14164	0.08317
3337.85587	0.08347
3336.57011	0.08313
3335.28434	0.08222
3333.99857	0.08114
3332.71280	0.08049
3331.42703	0.08058
3330.14126	0.08120
3328.85549	0.08183
3327.56972	0.08208
3326.28395	0.08193
3324.99819	0.08168
3323.71242	0.08161
3322.42665	0.08175
3321.14088	0.08192
3319.85511	0.08194
3318.56934	0.08186
3317.28357	0.08181
3315.99780	0.08186
3314.71204	0.08187
3313.42627	0.08172
3312.14050	0.08150
3310.85473	0.08144
3309.56896	0.08164
3308.28319	0.08192
3306.99742	0.08196
3305.71165	0.08159
3304.42588	0.08089
3303.14012	0.08016
3301.85435	0.07980
3300.56858	0.07996
3299.28281	0.08049
3297.99704	0.08097
3296.71127	0.08109
3295.42550	0.08086
3294.13973	0.08061
3292.85397	0.08060
3291.56820	0.08084
3290.28243	0.08099
3288.99666	0.08075
3287.71089	0.08015
3286.42512	0.07958
3285.13935	0.07937
3283.85358	0.07957
3282.56781	0.07991
3281.28205	0.08014
3279.99628	0.08021
3278.71051	0.08015
3277.42474	0.07994
3276.13897	0.07959
3274.85320	0.07918
3273.56743	0.07891
3272.28166	0.07892
3270.99590	0.07918
3269.71013	0.07948
3268.42436	0.07963
3267.13859	0.07962
3265.85282	0.07952
3264.56705	0.07936
3263.28128	0.07908
3261.99551	0.07875
3260.70974	0.07860
3259.42398	0.07881
3258.13821	0.07926
3256.85244	0.07958
3255.56667	0.07949
3254.28090	0.07899
3252.99513	0.07835
3251.70936	0.07790
3250.42359	0.07779
3249.13783	0.07798
3247.85206	0.07830
3246.56629	0.07861
3245.28052	0.07887
3243.99475	0.07909
3242.70898	0.07925
3241.42321	0.07925
3240.13744	0.07906
3238.85167	0.07871
3237.56591	0.07829
3236.28014	0.07782
3234.99437	0.07730
3233.70860	0.07677
3232.42283	0.07640
3231.13706	0.07633
3229.85129	0.07652
3228.56552	0.07680
3227.27976	0.07695
3225.99399	0.07690
3224.70822	0.07673
3223.42245	0.07655
3222.13668	0.07643
3220.85091	0.07639
3219.56514	0.07645
3218.27937	0.07660
3216.99360	0.07675
3215.70784	0.07681
3214.42207	0.07668
3213.13630	0.07628
3211.85053	0.07563
3210.56476	0.07498
3209.27899	0.07461
3207.99322	0.07461
3206.70745	0.07483
3205.42169	0.07510
3204.13592	0.07543
3202.85015	0.07586
3201.56438	0.07627
3200.27861	0.07645
3198.99284	0.07633
3197.70707	0.07613
3196.42130	0.07607
3195.13553	0.07612
3193.84977	0.07602
3192.56400	0.07560
3191.27823	0.07504
3189.99246	0.07463
3188.70669	0.07451
3187.42092	0.07460
3186.13515	0.07467
3184.84938	0.07450
3183.56362	0.07405
3182.27785	0.07355
3180.99208	0.07334
3179.70631	0.07350
3178.42054	0.07378
3177.13477	0.07389
3175.84900	0.07369
3174.56323	0.07322
3173.27746	0.07259
3171.99170	0.07202
3170.70593	0.07171
3169.42016	0.07173
3168.13439	0.07191
3166.84862	0.07206
3165.56285	0.07217
3164.27708	0.07237
3162.99131	0.07260
3161.70555	0.07269
3160.41978	0.07250
3159.13401	0.07213
3157.84824	0.07181
3156.56247	0.07169
3155.27670	0.07170
3153.99093	0.07170
3152.70516	0.07165
3151.41939	0.07161
3150.13363	0.07164
3148.84786	0.07160
3147.56209	0.07133
3146.27632	0.07079
3144.99055	0.07016
3143.70478	0.06965
3142.41901	0.06941
3141.13324	0.06950
3139.84748	0.06984
3138.56171	0.07020
3137.27594	0.07035
3135.99017	0.07019
3134.70440	0.06983
3133.41863	0.06947
3132.13286	0.06924
3130.84709	0.06922
3129.56132	0.06938
3128.27556	0.06955
3126.98979	0.06960
3125.70402	0.06947
3124.41825	0.06930
3123.13248	0.06913
3121.84671	0.06896
3120.56094	0.06875
3119.27517	0.06853
3117.98940	0.06832
3116.70364	0.06813
3115.41787	0.06794
3114.13210	0.06778
3112.84633	0.06768
3111.56056	0.06767
3110.27479	0.06776
3108.98902	0.06784
3107.70325	0.06775
3106.41749	0.06747
3105.13172	0.06714
3103.84595	0.06690
3102.56018	0.06676
3101.27441	0.06662
3099.98864	0.06647
3098.70287	0.06642
3097.41710	0.06652
3096.13133	0.06670
3094.84557	0.06678
3093.55980	0.06660
3092.27403	0.06616
3090.98826	0.06564
3089.70249	0.06522
3088.41672	0.06498
3087.13095	0.06488
3085.84518	0.06482
3084.55942	0.06471
3083.27365	0.06452
3081.98788	0.06429
3080.70211	0.06414
3079.41634	0.06413
3078.13057	0.06419
3076.84480	0.06425
3075.55903	0.06424
3074.27326	0.06420
3072.98750	0.06415
3071.70173	0.06408
3070.41596	0.06401
3069.13019	0.06401
3067.84442	0.06407
3066.55865	0.06410
3065.27288	0.06399
3063.98711	0.06378
3062.70135	0.06360
3061.41558	0.06350
3060.12981	0.06341
3058.84404	0.06320
3057.55827	0.06287
3056.27250	0.06245
3054.98673	0.06203
3053.70096	0.06172
3052.41519	0.06163
3051.12943	0.06177
3049.84366	0.06202
3048.55789	0.06219
3047.27212	0.06218
3045.98635	0.06202
3044.70058	0.06177
3043.41481	0.06147
3042.12904	0.06113
3040.84328	0.06082
3039.55751	0.06065
3038.27174	0.06066
3036.98597	0.06075
3035.70020	0.06074
3034.41443	0.06060
3033.12866	0.06046
3031.84289	0.06043
3030.55712	0.06046
3029.27136	0.06044
3027.98559	0.06034
3026.69982	0.06027
3025.41405	0.06029
3024.12828	0.06035
3022.84251	0.06035
3021.55674	0.06026
3020.27097	0.06009
3018.98521	0.05991
3017.69944	0.05972
3016.41367	0.05954
3015.12790	0.05940
3013.84213	0.05931
3012.55636	0.05919
3011.27059	0.05896
3009.98482	0.05861
3008.69905	0.05824
3007.41329	0.05800
3006.12752	0.05789
3004.84175	0.05781
3003.55598	0.05769
3002.27021	0.05755
3000.98444	0.05750
2999.69867	0.05753
2998.41290	0.05755
2997.12714	0.05746
2995.84137	0.05732
2994.55560	0.05721
2993.26983	0.05725
2991.98406	0.05741
2990.69829	0.05756
2989.41252	0.05763
2988.12675	0.05775
2986.84098	0.05807
2985.55522	0.05856
2984.26945	0.05907
2982.98368	0.05948
2981.69791	0.05983
2980.41214	0.06017
2979.12637	0.06049
2977.84060	0.06075
2976.55483	0.06090
2975.26907	0.06100
2973.98330	0.06117
2972.69753	0.06161
2971.41176	0.06236
2970.12599	0.06327
2968.84022	0.06416
2967.55445	0.06495
2966.26868	0.06564
2964.98291	0.06627
2963.69715	0.06690
2962.41138	0.06766
2961.12561	0.06856
2959.83984	0.06944
2958.55407	0.07009
2957.26830	0.07046
2955.98253	0.07071
2954.69676	0.07097
2953.41100	0.07122
2952.12523	0.07137
2950.83946	0.07135
2949.55369	0.07115
2948.26792	0.07088
2946.98215	0.07069
2945.69638	0.07067
2944.41061	0.07078
2943.12484	0.07091
2941.83908	0.07100
2940.55331	0.07099
2939.26754	0.07096
2937.98177	0.07110
2936.69600	0.07153
2935.41023	0.07217
2934.12446	0.07283
2932.83869	0.07338
2931.55293	0.07389
2930.26716	0.07443
2928.98139	0.07498
2927.69562	0.07543
2926.40985	0.07570
2925.12408	0.07573
2923.83831	0.07549
2922.55254	0.07503
2921.26677	0.07452
2919.98101	0.07410
2918.69524	0.07381
2917.40947	0.07353
2916.12370	0.07309
2914.83793	0.07246
2913.55216	0.07173
2912.26639	0.07104
2910.98062	0.07048
2909.69486	0.07003
2908.40909	0.06953
2907.12332	0.06886
2905.83755	0.06803
2904.55178	0.06725
2903.26601	0.06672
2901.98024	0.06638
2900.69447	0.06598
2899.40870	0.06539
2898.12294	0.06471
2896.83717	0.06410
2895.55140	0.06365
2894.26563	0.06328
2892.97986	0.06292
2891.69409	0.06257
2890.40832	0.06219
2889.12255	0.06175
2887.83678	0.06125
2886.55102	0.06076
2885.26525	0.06041
2883.97948	0.06026
2882.69371	0.06015
2881.40794	0.05996
2880.12217	0.05977
2878.83640	0.05981
2877.55063	0.06012
2876.26487	0.06048
2874.97910	0.06072
2873.69333	0.06089
2872.40756	0.06110
2871.12179	0.06135
2869.83602	0.06154
2868.55025	0.06158
2867.26448	0.06149
2865.97871	0.06136
2864.69295	0.06127
2863.40718	0.06118
2862.12141	0.06098
2860.83564	0.06060
2859.54987	0.06016
2858.26410	0.05987
2856.97833	0.05975
2855.69256	0.05962
2854.40680	0.05929
2853.12103	0.05881
2851.83526	0.05833
2850.54949	0.05795
2849.26372	0.05761
2847.97795	0.05724
2846.69218	0.05676
2845.40641	0.05615
2844.12064	0.05551
2842.83488	0.05487
2841.54911	0.05419
2840.26334	0.05341
2838.97757	0.05259
2837.69180	0.05184
2836.40603	0.05124
2835.12026	0.05078
2833.83449	0.05037
2832.54873	0.04984
2831.26296	0.04911
2829.97719	0.04830
2828.69142	0.04766
2827.40565	0.04730
2826.11988	0.04716
2824.83411	0.04714
2823.54834	0.04713
2822.26257	0.04708
2820.97681	0.04693
2819.69104	0.04666
2818.40527	0.04633
2817.11950	0.04605
2815.83373	0.04586
2814.54796	0.04576
2813.26219	0.04570
2811.97642	0.04568
2810.69066	0.04567
2809.40489	0.04553
2808.11912	0.04516
2806.83335	0.04462
2805.54758	0.04412
2804.26181	0.04387
2802.97604	0.04394
2801.69027	0.04426
2800.40450	0.04464
2799.11874	0.04479
2797.83297	0.04455
2796.54720	0.04405
2795.26143	0.04353
2793.97566	0.04318
2792.68989	0.04299
2791.40412	0.04290
2790.11835	0.04288
2788.83259	0.04291
2787.54682	0.04297
2786.26105	0.04301
2784.97528	0.04298
2783.68951	0.04283
2782.40374	0.04256
2781.11797	0.04228
2779.83220	0.04214
2778.54643	0.04221
2777.26067	0.04235
2775.97490	0.04242
2774.68913	0.04234
2773.40336	0.04215
2772.11759	0.04197
2770.83182	0.04185
2769.54605	0.04177
2768.26028	0.04171
2766.97452	0.04165
2765.68875	0.04154
2764.40298	0.04133
2763.11721	0.04109
2761.83144	0.04094
2760.54567	0.04095
2759.25990	0.04098
2757.97413	0.04090
2756.68836	0.04072
2755.40260	0.04060
2754.11683	0.04064
2752.83106	0.04077
2751.54529	0.04084
2750.25952	0.04078
2748.97375	0.04064
2747.68798	0.04046
2746.40221	0.04025
2745.11645	0.03999
2743.83068	0.03976
2742.54491	0.03966
2741.25914	0.03970
2739.97337	0.03985
2738.68760	0.04000
2737.40183	0.04012
2736.11606	0.04017
2734.83029	0.04015
2733.54453	0.04005
2732.25876	0.03991
2730.97299	0.03977
2729.68722	0.03967
2728.40145	0.03962
2727.11568	0.03959
2725.82991	0.03952
2724.54414	0.03940
2723.25838	0.03926
2721.97261	0.03913
2720.68684	0.03902
2719.40107	0.03891
2718.11530	0.03880
2716.82953	0.03871
2715.54376	0.03863
2714.25799	0.03859
2712.97222	0.03855
2711.68646	0.03850
2710.40069	0.03841
2709.11492	0.03835
2707.82915	0.03835
2706.54338	0.03837
2705.25761	0.03831
2703.97184	0.03816
2702.68607	0.03803
2701.40031	0.03800
2700.11454	0.03807
2698.82877	0.03816
2697.54300	0.03816
2696.25723	0.03801
2694.97146	0.03775
2693.68569	0.03750
2692.39992	0.03736
2691.11415	0.03731
2689.82839	0.03726
2688.54262	0.03713
2687.25685	0.03698
2685.97108	0.03689
2684.68531	0.03688
2683.39954	0.03692
2682.11377	0.03696
2680.82800	0.03695
2679.54224	0.03683
2678.25647	0.03661
2676.97070	0.03641
2675.68493	0.03633
2674.39916	0.03637
2673.11339	0.03643
2671.82762	0.03640
2670.54185	0.03625
2669.25608	0.03611
2667.97032	0.03611
2666.68455	0.03625
2665.39878	0.03639
2664.11301	0.03636
2662.82724	0.03618
2661.54147	0.03600
2660.25570	0.03596
2658.96993	0.03608
2657.68417	0.03629
2656.39840	0.03650
2655.11263	0.03659
2653.82686	0.03654
2652.54109	0.03639
2651.25532	0.03623
2649.96955	0.03603
2648.68378	0.03573
2647.39801	0.03534
2646.11225	0.03497
2644.82648	0.03476
2643.54071	0.03475
2642.25494	0.03483
2640.96917	0.03483
2639.68340	0.03466
2638.39763	0.03436
2637.11186	0.03405
2635.82609	0.03387
2634.54033	0.03387
2633.25456	0.03394
2631.96879	0.03396
2630.68302	0.03384
2629.39725	0.03363
2628.11148	0.03346
2626.82571	0.03336
2625.53994	0.03327
2624.25418	0.03313
2622.96841	0.03294
2621.68264	0.03275
2620.39687	0.03257
2619.11110	0.03239
2617.82533	0.03225
2616.53956	0.03217
2615.25379	0.03212
2613.96802	0.03206
2612.68226	0.03191
2611.39649	0.03164
2610.11072	0.03128
2608.82495	0.03100
2607.53918	0.03095
2606.25341	0.03113
2604.96764	0.03139
2603.68187	0.03156
2602.39611	0.03154
2601.11034	0.03135
2599.82457	0.03112
2598.53880	0.03097
2597.25303	0.03091
2595.96726	0.03076
2594.68149	0.03038
2593.39572	0.02981
2592.10995	0.02930
2590.82419	0.02915
2589.53842	0.02941
2588.25265	0.02988
2586.96688	0.03030
2585.68111	0.03051
2584.39534	0.03054
2583.10957	0.03048
2581.82380	0.03038
2580.53804	0.03021
2579.25227	0.02994
2577.96650	0.02965
2576.68073	0.02942
2575.39496	0.02929
2574.10919	0.02922
2572.82342	0.02914
2571.53765	0.02895
2570.25188	0.02868
2568.96612	0.02851
2567.68035	0.02868
2566.39458	0.02912
2565.10881	0.02945
2563.82304	0.02934
2562.53727	0.02888
2561.25150	0.02847
2559.96573	0.02840
2558.67997	0.02853
2557.39420	0.02862
2556.10843	0.02868
2554.82266	0.02890
2553.53689	0.02928
2552.25112	0.02948
2550.96535	0.02921
2549.67958	0.02862
2548.39381	0.02818
2547.10805	0.02815
2545.82228	0.02840
2544.53651	0.02858
2543.25074	0.02856
2541.96497	0.02842
2540.67920	0.02832
2539.39343	0.02825
2538.10766	0.02820
2536.82190	0.02818
2535.53613	0.02818
2534.25036	0.02805
2532.96459	0.02771
2531.67882	0.02728
2530.39305	0.02700
2529.10728	0.02707
2527.82151	0.02742
2526.53574	0.02776
2525.24998	0.02778
2523.96421	0.02741
2522.67844	0.02685
2521.39267	0.02643
2520.10690	0.02628
2518.82113	0.02635
2517.53536	0.02645
2516.24959	0.02638
2514.96383	0.02616
2513.67806	0.02606
2512.39229	0.02625
2511.10652	0.02661
2509.82075	0.02683
2508.53498	0.02672
2507.24921	0.02636
2505.96344	0.02594
2504.67767	0.02562
2503.39191	0.02552
2502.10614	0.02566
2500.82037	0.02594
2499.53460	0.02621
2498.24883	0.02642
2496.96306	0.02665
2495.67729	0.02690
2494.39152	0.02699
2493.10576	0.02672
2491.81999	0.02617
2490.53422	0.02570
2489.24845	0.02553
2487.96268	0.02567
2486.67691	0.02598
2485.39114	0.02633
2484.10537	0.02656
2482.81960	0.02658
2481.53384	0.02647
2480.24807	0.02640
2478.96230	0.02640
2477.67653	0.02637
2476.39076	0.02630
2475.10499	0.02626
2473.81922	0.02625
2472.53345	0.02613
2471.24769	0.02579
2469.96192	0.02533
2468.67615	0.02499
2467.39038	0.02489
2466.10461	0.02499
2464.81884	0.02519
2463.53307	0.02546
2462.24730	0.02580
2460.96153	0.02606
2459.67577	0.02612
2458.39000	0.02596
2457.10423	0.02579
2455.81846	0.02576
2454.53269	0.02583
2453.24692	0.02586
2451.96115	0.02575
2450.67538	0.02546
2449.38962	0.02503
2448.10385	0.02459
2446.81808	0.02428
2445.53231	0.02415
2444.24654	0.02415
2442.96077	0.02417
2441.67500	0.02422
2440.38923	0.02432
2439.10346	0.02443
2437.81770	0.02449
2436.53193	0.02442
2435.24616	0.02421
2433.96039	0.02391
2432.67462	0.02368
2431.38885	0.02365
2430.10308	0.02389
2428.81731	0.02429
2427.53155	0.02464
2426.24578	0.02474
2424.96001	0.02450
2423.67424	0.02405
2422.38847	0.02369
2421.10270	0.02365
2419.81693	0.02399
2418.53116	0.02450
2417.24539	0.02491
2415.95963	0.02505
2414.67386	0.02490
2413.38809	0.02459
2412.10232	0.02427
2410.81655	0.02404
2409.53078	0.02388
2408.24501	0.02368
2406.95924	0.02342
2405.67347	0.02318
2404.38771	0.02309
2403.10194	0.02317
2401.81617	0.02331
2400.53040	0.02339
2399.24463	0.02337
2397.95886	0.02338
2396.67309	0.02343
2395.38732	0.02352
2394.10156	0.02362
2392.81579	0.02369
2391.53002	0.02368
2390.24425	0.02354
2388.95848	0.02325
2387.67271	0.02292
2386.38694	0.02274
2385.10117	0.02280
2383.81540	0.02299
2382.52964	0.02314
2381.24387	0.02320
2379.95810	0.02325
2378.67233	0.02337
2377.38656	0.02355
2376.10079	0.02372
2374.81502	0.02387
2373.52925	0.02394
2372.24349	0.02393
2370.95772	0.02380
2369.67195	0.02367
2368.38618	0.02358
2367.10041	0.02358
2365.81464	0.02370
2364.52887	0.02395
2363.24310	0.02423
2361.95733	0.02438
2360.67157	0.02431
2359.38580	0.02421
2358.10003	0.02423
2356.81426	0.02435
2355.52849	0.02444
2354.24272	0.02446
2352.95695	0.02441
2351.67118	0.02429
2350.38542	0.02420
2349.09965	0.02426
2347.81388	0.02437
2346.52811	0.02424
2345.24234	0.02401
2343.95657	0.02409
2342.67080	0.02443
2341.38503	0.02444
2340.09926	0.02407
2338.81350	0.02411
2337.52773	0.02461
2336.24196	0.02461
2334.95619	0.02419
2333.67042	0.02425
2332.38465	0.02447
2331.09888	0.02395
2329.81311	0.02352
2328.52735	0.02404
2327.24158	0.02454
2325.95581	0.02502
2324.67004	0.02592
2323.38427	0.02629
2322.09850	0.02589
2320.81273	0.02553
2319.52696	0.02493
2318.24119	0.02425
2316.95543	0.02396
2315.66966	0.02377
2314.38389	0.02372
2313.09812	0.02390
2311.81235	0.02391
2310.52658	0.02376
2309.24081	0.02348
2307.95504	0.02312
2306.66928	0.02294
2305.38351	0.02286
2304.09774	0.02283
2302.81197	0.02275
2301.52620	0.02258
2300.24043	0.02241
2298.95466	0.02226
2297.66889	0.02218
2296.38312	0.02216
2295.09736	0.02223
2293.81159	0.02246
2292.52582	0.02284
2291.24005	0.02322
2289.95428	0.02339
2288.66851	0.02327
2287.38274	0.02290
2286.09697	0.02236
2284.81121	0.02176
2283.52544	0.02131
2282.23967	0.02120
2280.95390	0.02143
2279.66813	0.02175
2278.38236	0.02183
2277.09659	0.02157
2275.81082	0.02109
2274.52505	0.02065
2273.23929	0.02037
2271.95352	0.02024
2270.66775	0.02009
2269.38198	0.01979
2268.09621	0.01937
2266.81044	0.01898
2265.52467	0.01878
2264.23890	0.01884
2262.95314	0.01912
2261.66737	0.01940
2260.38160	0.01950
2259.09583	0.01937
2257.81006	0.01913
2256.52429	0.01894
2255.23852	0.01883
2253.95275	0.01862
2252.66698	0.01815
2251.38122	0.01751
2250.09545	0.01707
2248.80968	0.01717
2247.52391	0.01758
2246.23814	0.01797
2244.95237	0.01799
2243.66660	0.01759
2242.38083	0.01696
2241.09507	0.01631
2239.80930	0.01589
2238.52353	0.01583
2237.23776	0.01604
2235.95199	0.01623
2234.66622	0.01621
2233.38045	0.01597
2232.09468	0.01554
2230.80891	0.01497
2229.52315	0.01442
2228.23738	0.01414
2226.95161	0.01429
2225.66584	0.01472
2224.38007	0.01506
2223.09430	0.01511
2221.80853	0.01496
2220.52276	0.01488
2219.23700	0.01499
2217.95123	0.01519
2216.66546	0.01527
2215.37969	0.01515
2214.09392	0.01500
2212.80815	0.01507
2211.52238	0.01535
2210.23661	0.01553
2208.95084	0.01536
2207.66508	0.01500
2206.37931	0.01477
2205.09354	0.01477
2203.80777	0.01475
2202.52200	0.01443
2201.23623	0.01398
2199.95046	0.01390
2198.66469	0.01455
2197.37893	0.01553
2196.09316	0.01597
2194.80739	0.01530
2193.52162	0.01373
2192.23585	0.01202
2190.95008	0.01095
2189.66431	0.01096
2188.37854	0.01181
2187.09277	0.01272
2185.80701	0.01299
2184.52124	0.01251
2183.23547	0.01156
2181.94970	0.01046
2180.66393	0.00952
2179.37816	0.00910
2178.09239	0.00925
2176.80662	0.00962
2175.52085	0.00989
2174.23509	0.01007
2172.94932	0.01029
2171.66355	0.01051
2170.37778	0.01070
2169.09201	0.01088
2167.80624	0.01102
2166.52047	0.01101
2165.23470	0.01096
2163.94894	0.01112
2162.66317	0.01135
2161.37740	0.01101
2160.09163	0.00963
2158.80586	0.00760
2157.52009	0.00574
2156.23432	0.00454
2154.94855	0.00399
2153.66278	0.00399
2152.37702	0.00432
2151.09125	0.00459
2149.80548	0.00457
2148.51971	0.00452
2147.23394	0.00492
2145.94817	0.00593
2144.66240	0.00733
2143.37663	0.00879
2142.09087	0.01006
2140.80510	0.01089
2139.51933	0.01106
2138.23356	0.01057
2136.94779	0.00980
2135.66202	0.00929
2134.37625	0.00933
2133.09048	0.00975
2131.80471	0.01029
2130.51895	0.01079
2129.23318	0.01106
2127.94741	0.01098
2126.66164	0.01063
2125.37587	0.01038
2124.09010	0.01042
2122.80433	0.01059
2121.51856	0.01076
2120.23280	0.01103
2118.94703	0.01156
2117.66126	0.01221
2116.37549	0.01266
2115.08972	0.01288
2113.80395	0.01303
2112.51818	0.01325
2111.23241	0.01340
2109.94664	0.01331
2108.66088	0.01289
2107.37511	0.01223
2106.08934	0.01148
2104.80357	0.01088
2103.51780	0.01054
2102.23203	0.01046
2100.94626	0.01056
2099.66049	0.00996
2098.37473	0.00983
2097.08896	0.01003
2095.80319	0.01019
2094.51742	0.01038
2093.23165	0.01075
2091.94588	0.01123
2090.66011	0.01163
2089.37434	0.01180
2088.08857	0.01174
2086.80281	0.01156
2085.51704	0.01136
2084.23127	0.01117
2082.94550	0.01100
2081.65973	0.01084
2080.37396	0.01061
2079.08819	0.01011
2077.80242	0.00918
2076.51666	0.00800
2075.23089	0.00703
2073.94512	0.00667
2072.65935	0.00705
2071.37358	0.00789
2070.08781	0.00866
2068.80204	0.00888
2067.51627	0.00846
2066.23050	0.00775
2064.94474	0.00729
2063.65897	0.00739
2062.37320	0.00790
2061.08743	0.00842
2059.80166	0.00863
2058.51589	0.00850
2057.23012	0.00824
2055.94435	0.00807
2054.65859	0.00808
2053.37282	0.00807
2052.08705	0.00761
2050.80128	0.00644
2049.51551	0.00482
2048.22974	0.00339
2046.94397	0.00263
2045.65820	0.00245
2044.37243	0.00246
2043.08667	0.00252
2041.80090	0.00277
2040.51513	0.00332
2039.22936	0.00393
2037.94359	0.00411
2036.65782	0.00367
2035.37205	0.00295
2034.08628	0.00245
2032.80052	0.00232
2031.51475	0.00233
2030.22898	0.00237
2028.94321	0.00265
2027.65744	0.00329
2026.37167	0.00399
2025.08590	0.00427
2023.80013	0.00395
2022.51436	0.00333
2021.22860	0.00277
2019.94283	0.00234
2018.65706	0.00186
2017.37129	0.00121
2016.08552	0.00062
2014.79975	0.00053
2013.51398	0.00115
2012.22821	0.00216
2010.94245	0.00297
2009.65668	0.00334
2008.37091	0.00365
2007.08514	0.00444
2005.79937	0.00573
2004.51360	0.00696
2003.22783	0.00772
2001.94206	0.00817
2000.65629	0.00873
1999.37053	0.00958
1998.08476	0.01049
1996.79899	0.01115
1995.51322	0.01131
1994.22745	0.01090
1992.94168	0.01004
1991.65591	0.00900
1990.37014	0.00808
1989.08438	0.00757
1987.79861	0.00756
1986.51284	0.00796
1985.22707	0.00846
1983.94130	0.00875
1982.65553	0.00861
1981.36976	0.00787
1980.08399	0.00649
1978.79822	0.00488
1977.51246	0.00368
1976.22669	0.00326
1974.94092	0.00343
1973.65515	0.00375
1972.36938	0.00394
1971.08361	0.00398
1969.79784	0.00398
1968.51207	0.00411
1967.22631	0.00443
1965.94054	0.00490
1964.65477	0.00541
1963.36900	0.00588
1962.08323	0.00632
1960.79746	0.00678
1959.51169	0.00726
1958.22592	0.00761
1956.94015	0.00771
1955.65439	0.00761
1954.36862	0.00749
1953.08285	0.00758
1951.79708	0.00807
1950.51131	0.00900
1949.22554	0.01012
1947.93977	0.01089
1946.65400	0.01090
1945.36823	0.01026
1944.08247	0.00950
1942.79670	0.00910
1941.51093	0.00911
1940.22516	0.00933
1938.93939	0.00962
1937.65362	0.00996
1936.36785	0.01020
1935.08208	0.01013
1933.79632	0.00978
1932.51055	0.00953
1931.22478	0.00976
1929.93901	0.01048
1928.65324	0.01135
1927.36747	0.01200
1926.08170	0.01226
1924.79593	0.01225
1923.51016	0.01214
1922.22440	0.01209
1920.93863	0.01216
1919.65286	0.01234
1918.36709	0.01248
1917.08132	0.01234
1915.79555	0.01184
1914.50978	0.01121
1913.22401	0.01079
1911.93825	0.01078
1910.65248	0.01106
1909.36671	0.01139
1908.08094	0.01158
1906.79517	0.01160
1905.50940	0.01152
1904.22363	0.01141
1902.93786	0.01128
1901.65209	0.01112
1900.36633	0.01093
1899.08056	0.01086
1897.79479	0.01103
1896.50902	0.01137
1895.22325	0.01168
1893.93748	0.01171
1892.65171	0.01140
1891.36594	0.01095
1890.08018	0.01062
1888.79441	0.01058
1887.50864	0.01082
1886.22287	0.01119
1884.93710	0.01156
1883.65133	0.01185
1882.36556	0.01201
1881.07979	0.01206
1879.79402	0.01204
1878.50826	0.01203
1877.22249	0.01205
1875.93672	0.01206
1874.65095	0.01198
1873.36518	0.01182
1872.07941	0.01170
1870.79364	0.01171
1869.50787	0.01184
1868.22211	0.01192
1866.93634	0.01184
1865.65057	0.01163
1864.36480	0.01144
1863.07903	0.01139
1861.79326	0.01145
1860.50749	0.01156
1859.22172	0.01170
1857.93595	0.01188
1856.65019	0.01209
1855.36442	0.01225
1854.07865	0.01227
1852.79288	0.01218
1851.50711	0.01206
1850.22134	0.01197
1848.93557	0.01189
1847.64980	0.01177
1846.36404	0.01166
1845.07827	0.01167
1843.79250	0.01184
1842.50673	0.01207
1841.22096	0.01221
1839.93519	0.01222
1838.64942	0.01221
1837.36365	0.01231
1836.07788	0.01245
1834.79212	0.01248
1833.50635	0.01233
1832.22058	0.01212
1830.93481	0.01201
1829.64904	0.01200
1828.36327	0.01202
1827.07750	0.01200
1825.79173	0.01190
1824.50597	0.01174
1823.22020	0.01157
1821.93443	0.01149
1820.64866	0.01150
1819.36289	0.01159
1818.07712	0.01175
1816.79135	0.01199
1815.50558	0.01225
1814.21981	0.01245
1812.93405	0.01263
1811.64828	0.01288
1810.36251	0.01321
1809.07674	0.01351
1807.79097	0.01367
1806.50520	0.01368
1805.21943	0.01363
1803.93366	0.01357
1802.64790	0.01351
1801.36213	0.01339
1800.07636	0.01324
1798.79059	0.01314
1797.50482	0.01313
1796.21905	0.01316
1794.93328	0.01319
1793.64751	0.01325
1792.36174	0.01335
1791.07598	0.01350
1789.79021	0.01365
1788.50444	0.01376
1787.21867	0.01381
1785.93290	0.01381
1784.64713	0.01380
1783.36136	0.01380
1782.07559	0.01381
1780.78983	0.01381
1779.50406	0.01376
1778.21829	0.01366
1776.93252	0.01357
1775.64675	0.01357
1774.36098	0.01371
1773.07521	0.01391
1771.78944	0.01410
1770.50367	0.01428
1769.21791	0.01453
1767.93214	0.01481
1766.64637	0.01498
1765.36060	0.01498
1764.07483	0.01490
1762.78906	0.01482
1761.50329	0.01481
1760.21752	0.01484
1758.93176	0.01486
1757.64599	0.01483
1756.36022	0.01475
1755.07445	0.01468
1753.78868	0.01470
1752.50291	0.01485
1751.21714	0.01503
1749.93137	0.01520
1748.64560	0.01535
1747.35984	0.01549
1746.07407	0.01556
1744.78830	0.01555
1743.50253	0.01549
1742.21676	0.01546
1740.93099	0.01552
1739.64522	0.01564
1738.35945	0.01573
1737.07369	0.01582
1735.78792	0.01598
1734.50215	0.01617
1733.21638	0.01634
1731.93061	0.01649
1730.64484	0.01670
1729.35907	0.01694
1728.07330	0.01714
1726.78753	0.01731
1725.50177	0.01750
1724.21600	0.01778
1722.93023	0.01813
1721.64446	0.01846
1720.35869	0.01871
1719.07292	0.01888
1717.78715	0.01898
1716.50138	0.01906
1715.21561	0.01922
1713.92985	0.01949
1712.64408	0.01979
1711.35831	0.02005
1710.07254	0.02026
1708.78677	0.02046
1707.50100	0.02068
1706.21523	0.02094
1704.92946	0.02120
1703.64370	0.02149
1702.35793	0.02187
1701.07216	0.02229
1699.78639	0.02261
1698.50062	0.02284
1697.21485	0.02311
1695.92908	0.02344
1694.64331	0.02375
1693.35754	0.02407
1692.07178	0.02445
1690.78601	0.02484
1689.50024	0.02513
1688.21447	0.02532
1686.92870	0.02551
1685.64293	0.02578
1684.35716	0.02612
1683.07139	0.02648
1681.78563	0.02688
1680.49986	0.02729
1679.21409	0.02763
1677.92832	0.02789
1676.64255	0.02817
1675.35678	0.02848
1674.07101	0.02875
1672.78524	0.02901
1671.49947	0.02928
1670.21371	0.02956
1668.92794	0.02981
1667.64217	0.03008
1666.35640	0.03038
1665.07063	0.03072
1663.78486	0.03103
1662.49909	0.03126
1661.21332	0.03147
1659.92756	0.03171
1658.64179	0.03194
1657.35602	0.03203
1656.07025	0.03200
1654.78448	0.03199
1653.49871	0.03205
1652.21294	0.03215
1650.92717	0.03234
1649.64140	0.03270
1648.35564	0.03318
1647.06987	0.03358
1645.78410	0.03381
1644.49833	0.03388
1643.21256	0.03387
1641.92679	0.03383
1640.64102	0.03379
1639.35525	0.03377
1638.06949	0.03383
1636.78372	0.03395
1635.49795	0.03405
1634.21218	0.03412
1632.92641	0.03423
1631.64064	0.03441
1630.35487	0.03461
1629.06910	0.03475
1627.78333	0.03482
1626.49757	0.03484
1625.21180	0.03486
1623.92603	0.03491
1622.64026	0.03498
1621.35449	0.03504
1620.06872	0.03513
1618.78295	0.03529
1617.49718	0.03550
1616.21142	0.03567
1614.92565	0.03575
1613.63988	0.03582
1612.35411	0.03592
1611.06834	0.03604
1609.78257	0.03618
1608.49680	0.03635
1607.21103	0.03655
1605.92526	0.03676
1604.63950	0.03695
1603.35373	0.03713
1602.06796	0.03731
1600.78219	0.03754
1599.49642	0.03780
1598.21065	0.03809
1596.92488	0.03836
1595.63911	0.03860
1594.35335	0.03877
1593.06758	0.03890
1591.78181	0.03903
1590.49604	0.03921
1589.21027	0.03945
1587.92450	0.03972
1586.63873	0.04001
1585.35296	0.04031
1584.06719	0.04061
1582.78143	0.04091
1581.49566	0.04120
1580.20989	0.04147
1578.92412	0.04177
1577.63835	0.04215
1576.35258	0.04253
1575.06681	0.04284
1573.78104	0.04309
1572.49528	0.04341
1571.20951	0.04381
1569.92374	0.04423
1568.63797	0.04461
1567.35220	0.04493
1566.06643	0.04522
1564.78066	0.04543
1563.49489	0.04556
1562.20912	0.04568
1560.92336	0.04591
1559.63759	0.04625
1558.35182	0.04665
1557.06605	0.04707
1555.78028	0.04753
1554.49451	0.04802
1553.20874	0.04847
1551.92297	0.04886
1550.63721	0.04922
1549.35144	0.04953
1548.06567	0.04976
1546.77990	0.04989
1545.49413	0.04988
1544.20836	0.04974
1542.92259	0.04956
1541.63682	0.04947
1540.35105	0.04951
1539.06529	0.04961
1537.77952	0.04972
1536.49375	0.04988
1535.20798	0.05014
1533.92221	0.05047
1532.63644	0.05084
1531.35067	0.05122
1530.06490	0.05167
1528.77914	0.05216
1527.49337	0.05271
1526.20760	0.05332
1524.92183	0.05402
1523.63606	0.05483
1522.35029	0.05577
1521.06452	0.05677
1519.77875	0.05783
1518.49298	0.05904
1517.20722	0.06040
1515.92145	0.06183
1514.63568	0.06324
1513.34991	0.06465
1512.06414	0.06609
1510.77837	0.06757
1509.49260	0.06913
1508.20683	0.07077
1506.92107	0.07245
1505.63530	0.07407
1504.34953	0.07561
1503.06376	0.07709
1501.77799	0.07848
1500.49222	0.07969
1499.20645	0.08074
1497.92068	0.08169
1496.63491	0.08261
1495.34915	0.08350
1494.06338	0.08442
1492.77761	0.08541
1491.49184	0.08646
1490.20607	0.08754
1488.92030	0.08868
1487.63453	0.08996
1486.34876	0.09140
1485.06299	0.09295
1483.77723	0.09457
1482.49146	0.09620
1481.20569	0.09782
1479.91992	0.09940
1478.63415	0.10093
1477.34838	0.10235
1476.06261	0.10360
1474.77684	0.10469
1473.49108	0.10566
1472.20531	0.10656
1470.91954	0.10738
1469.63377	0.10811
1468.34800	0.10874
1467.06223	0.10925
1465.77646	0.10963
1464.49069	0.10985
1463.20492	0.10998
1461.91916	0.11012
1460.63339	0.11037
1459.34762	0.11078
1458.06185	0.11129
1456.77608	0.11180
1455.49031	0.11229
1454.20454	0.11284
1452.91877	0.11345
1451.63301	0.11401
1450.34724	0.11439
1449.06147	0.11459
1447.77570	0.11465
1446.48993	0.11458
1445.20416	0.11438
1443.91839	0.11404
1442.63262	0.11353
1441.34685	0.11290
1440.06109	0.11223
1438.77532	0.11166
1437.48955	0.11127
1436.20378	0.11108
1434.91801	0.11114
1433.63224	0.11156
1432.34647	0.11237
1431.06070	0.11354
1429.77494	0.11498
1428.48917	0.11659
1427.20340	0.11833
1425.91763	0.12019
1424.63186	0.12212
1423.34609	0.12403
1422.06032	0.12582
1420.77455	0.12746
1419.48878	0.12889
1418.20302	0.13010
1416.91725	0.13110
1415.63148	0.13189
1414.34571	0.13243
1413.05994	0.13267
1411.77417	0.13260
1410.48840	0.13220
1409.20263	0.13148
1407.91687	0.13045
1406.63110	0.12912
1405.34533	0.12748
1404.05956	0.12552
1402.77379	0.12328
1401.48802	0.12080
1400.20225	0.11817
1398.91648	0.11544
1397.63071	0.11266
1396.34495	0.10986
1395.05918	0.10706
1393.77341	0.10426
1392.48764	0.10149
1391.20187	0.09876
1389.91610	0.09607
1388.63033	0.09341
1387.34456	0.09077
1386.05880	0.08815
1384.77303	0.08558
1383.48726	0.08305
1382.20149	0.08057
1380.91572	0.07811
1379.62995	0.07565
1378.34418	0.07314
1377.05841	0.07056
1375.77264	0.06793
1374.48688	0.06530
1373.20111	0.06273
1371.91534	0.06025
1370.62957	0.05790
1369.34380	0.05568
1368.05803	0.05364
1366.77226	0.05179
1365.48649	0.05009
1364.20073	0.04846
1362.91496	0.04685
1361.62919	0.04525
1360.34342	0.04375
1359.05765	0.04238
1357.77188	0.04116
1356.48611	0.04008
1355.20034	0.03913
1353.91457	0.03826
1352.62881	0.03741
1351.34304	0.03654
1350.05727	0.03568
1348.77150	0.03485
1347.48573	0.03409
1346.19996	0.03342
1344.91419	0.03284
1343.62842	0.03229
1342.34266	0.03173
1341.05689	0.03116
1339.77112	0.03060
1338.48535	0.03011
1337.19958	0.02968
1335.91381	0.02931
1334.62804	0.02896
1333.34227	0.02866
1332.05650	0.02841
1330.77074	0.02818
1329.48497	0.02793
1328.19920	0.02761
1326.91343	0.02725
1325.62766	0.02692
1324.34189	0.02668
1323.05612	0.02649
1321.77035	0.02630
1320.48459	0.02607
1319.19882	0.02581
1317.91305	0.02558
1316.62728	0.02539
1315.34151	0.02523
1314.05574	0.02509
1312.76997	0.02493
1311.48420	0.02473
1310.19843	0.02451
1308.91267	0.02429
1307.62690	0.02409
1306.34113	0.02389
1305.05536	0.02369
1303.76959	0.02349
1302.48382	0.02330
1301.19805	0.02317
1299.91228	0.02312
1298.62652	0.02310
1297.34075	0.02305
1296.05498	0.02291
1294.76921	0.02270
1293.48344	0.02251
1292.19767	0.02238
1290.91190	0.02231
1289.62613	0.02224
1288.34036	0.02212
1287.05460	0.02198
1285.76883	0.02185
1284.48306	0.02177
1283.19729	0.02172
1281.91152	0.02165
1280.62575	0.02152
1279.33998	0.02135
1278.05421	0.02118
1276.76845	0.02106
1275.48268	0.02098
1274.19691	0.02091
1272.91114	0.02082
1271.62537	0.02071
1270.33960	0.02058
1269.05383	0.02045
1267.76806	0.02030
1266.48229	0.02018
1265.19653	0.02009
1263.91076	0.02004
1262.62499	0.02000
1261.33922	0.01993
1260.05345	0.01983
1258.76768	0.01972
1257.48191	0.01964
1256.19614	0.01958
1254.91037	0.01952
1253.62461	0.01943
1252.33884	0.01931
1251.05307	0.01918
1249.76730	0.01909
1248.48153	0.01904
1247.19576	0.01902
1245.90999	0.01902
1244.62422	0.01901
1243.33846	0.01896
1242.05269	0.01888
1240.76692	0.01877
1239.48115	0.01863
1238.19538	0.01847
1236.90961	0.01833
1235.62384	0.01823
1234.33807	0.01817
1233.05230	0.01816
1231.76654	0.01815
1230.48077	0.01811
1229.19500	0.01803
1227.90923	0.01793
1226.62346	0.01784
1225.33769	0.01780
1224.05192	0.01779
1222.76615	0.01777
1221.48039	0.01775
1220.19462	0.01773
1218.90885	0.01771
1217.62308	0.01771
1216.33731	0.01773
1215.05154	0.01777
1213.76577	0.01782
1212.48000	0.01784
1211.19423	0.01781
1209.90847	0.01772
1208.62270	0.01761
1207.33693	0.01753
1206.05116	0.01750
1204.76539	0.01754
1203.47962	0.01761
1202.19385	0.01766
1200.90808	0.01771
1199.62232	0.01776
1198.33655	0.01766
1197.05078	0.01762
1195.76501	0.01767
1194.47924	0.01778
1193.19347	0.01788
1191.90770	0.01793
1190.62193	0.01793
1189.33616	0.01792
1188.05040	0.01791
1186.76463	0.01795
1185.47886	0.01803
1184.19309	0.01816
1182.90732	0.01831
1181.62155	0.01844
1180.33578	0.01853
1179.05001	0.01859
1177.76425	0.01865
1176.47848	0.01874
1175.19271	0.01887
1173.90694	0.01905
1172.62117	0.01924
1171.33540	0.01943
1170.04963	0.01960
1168.76386	0.01980
1167.47809	0.02005
1166.19233	0.02035
1164.90656	0.02068
1163.62079	0.02103
1162.33502	0.02138
1161.04925	0.02173
1159.76348	0.02209
1158.47771	0.02245
1157.19194	0.02284
1155.90618	0.02326
1154.62041	0.02370
1153.33464	0.02413
1152.04887	0.02460
1150.76310	0.02521
1149.47733	0.02598
1148.19156	0.02686
1146.90579	0.02774
1145.62002	0.02860
1144.33426	0.02946
1143.04849	0.03041
1141.76272	0.03154
1140.47695	0.03287
1139.19118	0.03436
1137.90541	0.03594
1136.61964	0.03757
1135.33387	0.03931
1134.04811	0.04123
1132.76234	0.04341
1131.47657	0.04585
1130.19080	0.04859
1128.90503	0.05162
1127.61926	0.05490
1126.33349	0.05833
1125.04772	0.06188
1123.76195	0.06555
1122.47619	0.06940
1121.19042	0.07346
1119.90465	0.07770
1118.61888	0.08201
1117.33311	0.08637
1116.04734	0.09078
1114.76157	0.09525
1113.47580	0.09971
1112.19004	0.10406
1110.90427	0.10823
1109.61850	0.11219
1108.33273	0.11597
1107.04696	0.11965
1105.76119	0.12332
1104.47542	0.12700
1103.18965	0.13067
1101.90388	0.13427
1100.61812	0.13778
1099.33235	0.14120
1098.04658	0.14454
1096.76081	0.14781
1095.47504	0.15099
1094.18927	0.15407
1092.90350	0.15696
1091.61773	0.15966
1090.33197	0.16219
1089.04620	0.16461
1087.76043	0.16693
1086.47466	0.16918
1085.18889	0.17143
1083.90312	0.17378
1082.61735	0.17635
1081.33158	0.17918
1080.04581	0.18227
1078.76005	0.18559
1077.47428	0.18908
1076.18851	0.19268
1074.90274	0.19630
1073.61697	0.19996
1072.33120	0.20376
1071.04543	0.20780
1069.75966	0.21207
1068.47390	0.21644
1067.18813	0.22087
1065.90236	0.22543
1064.61659	0.23019
1063.33082	0.23511
1062.04505	0.24008
1060.75928	0.24498
1059.47351	0.24972
1058.18774	0.25427
1056.90198	0.25869
1055.61621	0.26305
1054.33044	0.26742
1053.04467	0.27184
1051.75890	0.27633
1050.47313	0.28094
1049.18736	0.28577
1047.90159	0.29084
1046.61583	0.29610
1045.33006	0.30146
1044.04429	0.30688
1042.75852	0.31237
1041.47275	0.31798
1040.18698	0.32372
1038.90121	0.32955
1037.61544	0.33540
1036.32967	0.34125
1035.04391	0.34710
1033.75814	0.35289
1032.47237	0.35847
1031.18660	0.36365
1029.90083	0.36828
1028.61506	0.37235
1027.32929	0.37591
1026.04352	0.37899
1024.75775	0.38159
1023.47199	0.38368
1022.18622	0.38521
1020.90045	0.38612
1019.61468	0.38632
1018.32891	0.38574
1017.04314	0.38440
1015.75737	0.38232
1014.47160	0.37941
1013.18584	0.37560
1011.90007	0.37093
1010.61430	0.36548
1009.32853	0.35930
1008.04276	0.35230
1006.75699	0.34441
1005.47122	0.33566
1004.18545	0.32620
1002.89968	0.31621
1001.61392	0.30576
1000.32815	0.29487
999.04238	0.28354
997.75661	0.27190
996.47084	0.26014
995.18507	0.24839
993.89930	0.23675
992.61353	0.22529
991.32777	0.21412
990.04200	0.20334
988.75623	0.19302
987.47046	0.18325
986.18469	0.17409
984.89892	0.16556
983.61315	0.15762
982.32738	0.15024
981.04161	0.14341
979.75585	0.13719
978.47008	0.13158
977.18431	0.12655
975.89854	0.12207
974.61277	0.11819
973.32700	0.11508
972.04123	0.11285
970.75546	0.11159
969.46970	0.11128
968.18393	0.11187
966.89816	0.11315
965.61239	0.11483
964.32662	0.11659
963.04085	0.11814
961.75508	0.11915
960.46931	0.11932
959.18354	0.11846
957.89778	0.11658
956.61201	0.11382
955.32624	0.11042
954.04047	0.10666
952.75470	0.10278
951.46893	0.09896
950.18316	0.09529
948.89739	0.09180
947.61163	0.08852
946.32586	0.08539
945.04009	0.08234
943.75432	0.07930
942.46855	0.07633
941.18278	0.07353
939.89701	0.07099
938.61124	0.06872
937.32547	0.06669
936.03971	0.06486
934.75394	0.06320
933.46817	0.06167
932.18240	0.06022
930.89663	0.05882
929.61086	0.05751
928.32509	0.05631
927.03932	0.05519
925.75356	0.05416
924.46779	0.05323
923.18202	0.05246
921.89625	0.05182
920.61048	0.05123
919.32471	0.05064
918.03894	0.05002
916.75317	0.04937
915.46740	0.04871
914.18164	0.04809
912.89587	0.04753
911.61010	0.04702
910.32433	0.04657
909.03856	0.04619
907.75279	0.04591
906.46702	0.04568
905.18125	0.04542
903.89549	0.04508
902.60972	0.04468
901.32395	0.04430
900.03818	0.04401
898.75241	0.04386
897.46664	0.04382
896.18087	0.04380
894.89510	0.04375
893.60933	0.04373
892.32357	0.04391
891.03780	0.04438
889.75203	0.04518
888.46626	0.04632
887.18049	0.04789
885.89472	0.05008
884.60895	0.05312
883.32318	0.05704
882.03742	0.06148
880.75165	0.06571
879.46588	0.06900
878.18011	0.07116
876.89434	0.07260
875.60857	0.07399
874.32280	0.07556
873.03703	0.07695
871.75126	0.07749
870.46550	0.07676
869.17973	0.07482
867.89396	0.07203
866.60819	0.06876
865.32242	0.06524
864.03665	0.06168
862.75088	0.05829
861.46511	0.05529
860.17935	0.05273
858.89358	0.05058
857.60781	0.04879
856.32204	0.04732
855.03627	0.04617
853.75050	0.04525
852.46473	0.04449
851.17896	0.04383
849.89319	0.04322
848.60743	0.04263
847.32166	0.04206
846.03589	0.04157
844.75012	0.04117
843.46435	0.04084
842.17858	0.04050
840.89281	0.04013
839.60704	0.03974
838.32128	0.03934
837.03551	0.03894
835.74974	0.03858
834.46397	0.03828
833.17820	0.03805
831.89243	0.03786
830.60666	0.03766
829.32089	0.03746
828.03512	0.03731
826.74936	0.03723
825.46359	0.03720
824.17782	0.03713
822.89205	0.03699
821.60628	0.03684
820.32051	0.03678
819.03474	0.03678
817.74897	0.03674
816.46321	0.03663
815.17744	0.03651
813.89167	0.03646
812.60590	0.03648
811.32013	0.03652
810.03436	0.03650
808.74859	0.03641
807.46282	0.03630
806.17705	0.03620
804.89129	0.03612
803.60552	0.03606
802.31975	0.03599
801.03398	0.03590
799.74821	0.03578
798.46244	0.03566
797.17667	0.03560
795.89090	0.03560
794.60513	0.03562
793.31937	0.03562
792.03360	0.03559
790.74783	0.03557
789.46206	0.03556
788.17629	0.03556
786.89052	0.03553
785.60475	0.03544
784.31898	0.03529
783.03322	0.03512
781.74745	0.03502
780.46168	0.03503
779.17591	0.03511
777.89014	0.03522
776.60437	0.03534
775.31860	0.03545
774.03283	0.03549
772.74706	0.03541
771.46130	0.03524
770.17553	0.03508
768.88976	0.03498
767.60399	0.03491
766.31822	0.03488
765.03245	0.03486
763.74668	0.03486
762.46091	0.03489
761.17515	0.03500
759.88938	0.03523
758.60361	0.03558
757.31784	0.03592
756.03207	0.03612
754.74630	0.03611
753.46053	0.03596
752.17476	0.03579
750.88899	0.03566
749.60323	0.03559
748.31746	0.03556
747.03169	0.03554
745.74592	0.03555
744.46015	0.03554
743.17438	0.03547
741.88861	0.03530
740.60284	0.03510
739.31708	0.03497
738.03131	0.03497
736.74554	0.03505
735.45977	0.03517
734.17400	0.03528
732.88823	0.03532
731.60246	0.03526
730.31669	0.03517
729.03092	0.03513
727.74516	0.03524
726.45939	0.03540
725.17362	0.03547
723.88785	0.03531
722.60208	0.03514
721.31631	0.03502
720.03054	0.03498
718.74477	0.03500
717.45901	0.03504
716.17324	0.03510
714.88747	0.03519
713.60170	0.03531
712.31593	0.03539
711.03016	0.03536
709.74439	0.03522
708.45862	0.03504
707.17285	0.03490
705.88709	0.03484
704.60132	0.03483
703.31555	0.03482
702.02978	0.03479
700.74401	0.03478
699.45824	0.03481
698.17247	0.03486
696.88670	0.03491
695.60094	0.03493
694.31517	0.03496
693.02940	0.03504
691.74363	0.03513
690.45786	0.03520
689.17209	0.03520
687.88632	0.03514
686.60055	0.03505
685.31478	0.03495
684.02902	0.03483
682.74325	0.03471
681.45748	0.03461
680.17171	0.03458
678.88594	0.03460
677.60017	0.03465
676.31440	0.03470
675.02863	0.03475
673.74287	0.03480
672.45710	0.03485
671.17133	0.03492
669.88556	0.03506
668.59979	0.03529
667.31402	0.03550
666.02825	0.03551
664.74248	0.03534
663.45671	0.03507
662.17095	0.03480
660.88518	0.03460
659.59941	0.03448
658.31364	0.03443
657.02787	0.03443
655.74210	0.03446
654.45633	0.03449
653.17056	0.03454
651.88480	0.03461
650.59903	0.03474
649.31326	0.03492
648.02749	0.03510
646.74172	0.03525
645.45595	0.03538
644.17018	0.03555
642.88441	0.03581
641.59864	0.03617
640.31288	0.03657
639.02711	0.03698
637.74134	0.03740
636.45557	0.03790
635.16980	0.03856
633.88403	0.03937
632.59826	0.04024
631.31249	0.04096
630.02673	0.04106
628.74096	0.04085
627.45519	0.04238
626.16942	0.04216
624.88365	0.04056
623.59788	0.03896
622.31211	0.03849
621.02634	0.04034
619.74057	0.04515
618.45481	0.05244
617.16904	0.06089
615.88327	0.06912
614.59750	0.07642
613.31173	0.08288
612.02596	0.08880
610.74019	0.09400
609.45442	0.09825
608.16866	0.10207
606.88289	0.10639
605.59712	0.11144
604.31135	0.11651
603.02558	0.12048
601.73981	0.12255
600.45404	0.12256
599.16827	0.12081
597.88250	0.11785
596.59674	0.11430
595.31097	0.11067
594.02520	0.10727
592.73943	0.10428
591.45366	0.10192
590.16789	0.10043
588.88212	0.09995
587.59635	0.10042
586.31059	0.10164
585.02482	0.10350
583.73905	0.10598
582.45328	0.10905
581.16751	0.11265
579.88174	0.11655
578.59597	0.12049
577.31020	0.12432
576.02443	0.12806
574.73867	0.13179
573.45290	0.13552
572.16713	0.13921
570.88136	0.14298
569.59559	0.14712
568.30982	0.15190
567.02405	0.15724
565.73828	0.16271
564.45251	0.16769
563.16675	0.17154
561.88098	0.17361
560.59521	0.17328
559.30944	0.17025
558.02367	0.16469
556.73790	0.15718
555.45213	0.14840
554.16636	0.13896
552.88060	0.12943
551.59483	0.12033
550.30906	0.11201
549.02329	0.10461
547.73752	0.09803
546.45175	0.09213
545.16598	0.08682
543.88021	0.08207
542.59444	0.07792
541.30868	0.07436
540.02291	0.07129
538.73714	0.06861
537.45137	0.06618
536.16560	0.06391
534.87983	0.06176
533.59406	0.05972
532.30829	0.05778
531.02253	0.05595
529.73676	0.05422
528.45099	0.05263
527.16522	0.05117
525.87945	0.04982
524.59368	0.04857
523.30791	0.04738
522.02214	0.04620
520.73637	0.04502
519.45061	0.04386
518.16484	0.04276
516.87907	0.04176
515.59330	0.04087
514.30753	0.04009
513.02176	0.03939
511.73599	0.03877
510.45022	0.03816
509.16446	0.03750
507.87869	0.03677
506.59292	0.03602
505.30715	0.03542
504.02138	0.03502
502.73561	0.03476
501.44984	0.03445
500.16407	0.03399
498.87830	0.03341
497.59254	0.03285
496.30677	0.03244
495.02100	0.03222
493.73523	0.03210
492.44946	0.03199
491.16369	0.03182
489.87792	0.03160
488.59215	0.03139
487.30639	0.03124
486.02062	0.03121
484.73485	0.03132
483.44908	0.03151
482.16331	0.03171
480.87754	0.03193
479.59177	0.03219
478.30600	0.03250
477.02023	0.03286
475.73447	0.03326
474.44870	0.03368
473.16293	0.03406
471.87716	0.03434
470.59139	0.03446
469.30562	0.03442
468.01985	0.03427
466.73408	0.03402
465.44832	0.03368
464.16255	0.03328
462.87678	0.03287
461.59101	0.03249
460.30524	0.03214
459.01947	0.03178
457.73370	0.03137
456.44793	0.03093
455.16216	0.03054
453.87640	0.03026
452.59063	0.03008
451.30486	0.02994
450.01909	0.02982
448.73332	0.02969
447.44755	0.02956
446.16178	0.02942
444.87601	0.02929
443.59025	0.02914
442.30448	0.02901
441.01871	0.02890
439.73294	0.02885
438.44717	0.02890
437.16140	0.02901
435.87563	0.02913
434.58986	0.02918
433.30409	0.02917
432.01833	0.02913
430.73256	0.02911
429.44679	0.02913
428.16102	0.02916
426.87525	0.02918
425.58948	0.02916
424.30371	0.02912
423.01794	0.02909
421.73218	0.02905
420.44641	0.02900
419.16064	0.02893
417.87487	0.02886
416.58910	0.02878
415.30333	0.02871
414.01756	0.02862
412.73179	0.02857
411.44602	0.02859
410.16026	0.02870
408.87449	0.02887
407.58872	0.02908
406.30295	0.02932
405.01718	0.02954
403.73141	0.02976
402.44564	0.02999
401.15987	0.03023
399.87411	0.03047
