3997.45528	0.05157
3996.16951	0.05115
3994.88374	0.05091
3993.59798	0.05107
3992.31221	0.05152
3991.02644	0.05172
3989.74067	0.05129
3988.45490	0.05046
3987.16913	0.04986
3985.88336	0.04987
3984.59759	0.05029
3983.31183	0.05063
3982.02606	0.05056
3980.74029	0.05008
3979.45452	0.04939
3978.16875	0.04873
3976.88298	0.04828
3975.59721	0.04813
3974.31144	0.04832
3973.02567	0.04881
3971.73991	0.04953
3970.45414	0.05034
3969.16837	0.05103
3967.88260	0.05131
3966.59683	0.05100
3965.31106	0.05022
3964.02529	0.04946
3962.73952	0.04919
3961.45376	0.04940
3960.16799	0.04963
3958.88222	0.04943
3957.59645	0.04876
3956.31068	0.04790
3955.02491	0.04708
3953.73914	0.04636
3952.45337	0.04583
3951.16760	0.04571
3949.88184	0.04616
3948.59607	0.04715
3947.31030	0.04841
3946.02453	0.04952
3944.73876	0.05001
3943.45299	0.04961
3942.16722	0.04850
3940.88145	0.04729
3939.59569	0.04653
3938.30992	0.04638
3937.02415	0.04667
3935.73838	0.04715
3934.45261	0.04764
3933.16684	0.04810
3931.88107	0.04846
3930.59530	0.04862
3929.30953	0.04849
3928.02377	0.04806
3926.73800	0.04747
3925.45223	0.04685
3924.16646	0.04636
3922.88069	0.04618
3921.59492	0.04631
3920.30915	0.04659
3919.02338	0.04684
3917.73762	0.04707
3916.45185	0.04733
3915.16608	0.04754
3913.88031	0.04750
3912.59454	0.04703
3911.30877	0.04619
3910.02300	0.04537
3908.73723	0.04508
3907.45146	0.04548
3906.16570	0.04631
3904.87993	0.04701
3903.59416	0.04728
3902.30839	0.04727
3901.02262	0.04733
3899.73685	0.04738
3898.45108	0.04702
3897.16531	0.04611
3895.87955	0.04505
3894.59378	0.04440
3893.30801	0.04440
3892.02224	0.04478
3890.73647	0.04509
3889.45070	0.04527
3888.16493	0.04567
3886.87916	0.04640
3885.59339	0.04710
3884.30763	0.04750
3883.02186	0.04771
3881.73609	0.04776
3880.45032	0.04740
3879.16455	0.04659
3877.87878	0.04576
3876.59301	0.04532
3875.30724	0.04525
3874.02148	0.04524
3872.73571	0.04514
3871.44994	0.04501
3870.16417	0.04493
3868.87840	0.04513
3867.59263	0.04593
3866.30686	0.04717
3865.02109	0.04805
3863.73532	0.04804
3862.44956	0.04743
3861.16379	0.04673
3859.87802	0.04608
3858.59225	0.04530
3857.30648	0.04446
3856.02071	0.04392
3854.73494	0.04388
3853.44917	0.04402
3852.16341	0.04407
3850.87764	0.04410
3849.59187	0.04421
3848.30610	0.04432
3847.02033	0.04436
3845.73456	0.04440
3844.44879	0.04455
3843.16302	0.04482
3841.87725	0.04502
3840.59149	0.04496
3839.30572	0.04465
3838.01995	0.04434
3836.73418	0.04432
3835.44841	0.04465
3834.16264	0.04496
3832.87687	0.04483
3831.59110	0.04420
3830.30534	0.04342
3829.01957	0.04289
3827.73380	0.04284
3826.44803	0.04318
3825.16226	0.04370
3823.87649	0.04422
3822.59072	0.04452
3821.30495	0.04429
3820.01918	0.04354
3818.73342	0.04284
3817.44765	0.04268
3816.16188	0.04278
3814.87611	0.04267
3813.59034	0.04246
3812.30457	0.04252
3811.01880	0.04286
3809.73303	0.04322
3808.44726	0.04330
3807.16150	0.04291
3805.87573	0.04217
3804.58996	0.04158
3803.30419	0.04149
3802.01842	0.04172
3800.73265	0.04196
3799.44688	0.04233
3798.16111	0.04297
3796.87535	0.04355
3795.58958	0.04366
3794.30381	0.04339
3793.01804	0.04303
3791.73227	0.04256
3790.44650	0.04175
3789.16073	0.04068
3787.87496	0.03984
3786.58919	0.03974
3785.30343	0.04036
3784.01766	0.04116
3782.73189	0.04157
3781.44612	0.04162
3780.16035	0.04162
3778.87458	0.04181
3777.58881	0.04212
3776.30304	0.04235
3775.01728	0.04237
3773.73151	0.04225
3772.44574	0.04221
3771.15997	0.04237
3769.87420	0.04248
3768.58843	0.04228
3767.30266	0.04183
3766.01689	0.04144
3764.73112	0.04135
3763.44536	0.04159
3762.15959	0.04195
3760.87382	0.04218
3759.58805	0.04219
3758.30228	0.04212
3757.01651	0.04198
3755.73074	0.04158
3754.44497	0.04088
3753.15921	0.04017
3751.87344	0.03994
3750.58767	0.04040
3749.30190	0.04118
3748.01613	0.04173
3746.73036	0.04200
3745.44459	0.04200
3744.15882	0.04145
3742.87305	0.04054
3741.58729	0.04004
3740.30152	0.04023
3739.01575	0.04070
3737.72998	0.04101
3736.44421	0.04098
3735.15844	0.04074
3733.87267	0.04073
3732.58690	0.04113
3731.30114	0.04162
3730.01537	0.04180
3728.72960	0.04167
3727.44383	0.04139
3726.15806	0.04108
3724.87229	0.04084
3723.58652	0.04072
3722.30075	0.04066
3721.01498	0.04068
3719.72922	0.04087
3718.44345	0.04128
3717.15768	0.04175
3715.87191	0.04210
3714.58614	0.04219
3713.30037	0.04177
3712.01460	0.04063
3710.72883	0.03896
3709.44307	0.03746
3708.15730	0.03679
3706.87153	0.03712
3705.58576	0.03813
3704.29999	0.03936
3703.01422	0.04053
3701.72845	0.04156
3700.44268	0.04236
3699.15691	0.04277
3697.87115	0.04264
3696.58538	0.04211
3695.29961	0.04161
3694.01384	0.04157
3692.72807	0.04190
3691.44230	0.04208
3690.15653	0.04172
3688.87076	0.04084
3687.58500	0.03993
3686.29923	0.03960
3685.01346	0.03998
3683.72769	0.04053
3682.44192	0.04065
3681.15615	0.04014
3679.87038	0.03908
3678.58461	0.03785
3677.29884	0.03696
3676.01308	0.03667
3674.72731	0.03690
3673.44154	0.03762
3672.15577	0.03877
3670.87000	0.03981
3669.58423	0.04014
3668.29846	0.03974
3667.01269	0.03900
3665.72693	0.03825
3664.44116	0.03778
3663.15539	0.03787
3661.86962	0.03850
3660.58385	0.03936
3659.29808	0.04011
3658.01231	0.04065
3656.72654	0.04094
3655.44077	0.04095
3654.15501	0.04081
3652.86924	0.04076
3651.58347	0.04082
3650.29770	0.04087
3649.01193	0.04085
3647.72616	0.04083
3646.44039	0.04088
3645.15462	0.04111
3643.86886	0.04153
3642.58309	0.04191
3641.29732	0.04199
3640.01155	0.04185
3638.72578	0.04187
3637.44001	0.04223
3636.15424	0.04264
3634.86847	0.04251
3633.58270	0.04159
3632.29694	0.04034
3631.01117	0.03957
3629.72540	0.03971
3628.43963	0.04051
3627.15386	0.04148
3625.86809	0.04225
3624.58232	0.04255
3623.29655	0.04248
3622.01079	0.04257
3620.72502	0.04313
3619.43925	0.04388
3618.15348	0.04427
3616.86771	0.04410
3615.58194	0.04356
3614.29617	0.04285
3613.01040	0.04209
3611.72463	0.04152
3610.43887	0.04142
3609.15310	0.04180
3607.86733	0.04237
3606.58156	0.04276
3605.29579	0.04284
3604.01002	0.04280
3602.72425	0.04310
3601.43848	0.04398
3600.15272	0.04511
3598.86695	0.04585
3597.58118	0.04587
3596.29541	0.04536
3595.00964	0.04483
3593.72387	0.04455
3592.43810	0.04450
3591.15233	0.04464
3589.86656	0.04511
3588.58080	0.04587
3587.29503	0.04654
3586.00926	0.04670
3584.72349	0.04635
3583.43772	0.04583
3582.15195	0.04545
3580.86618	0.04531
3579.58041	0.04541
3578.29464	0.04568
3577.00888	0.04603
3575.72311	0.04636
3574.43734	0.04666
3573.15157	0.04698
3571.86580	0.04745
3570.58003	0.04811
3569.29426	0.04875
3568.00849	0.04900
3566.72273	0.04866
3565.43696	0.04794
3564.15119	0.04732
3562.86542	0.04711
3561.57965	0.04725
3560.29388	0.04747
3559.00811	0.04745
3557.72234	0.04708
3556.43657	0.04651
3555.15081	0.04610
3553.86504	0.04612
3552.57927	0.04652
3551.29350	0.04700
3550.00773	0.04729
3548.72196	0.04739
3547.43619	0.04750
3546.15042	0.04781
3544.86466	0.04824
3543.57889	0.04863
3542.29312	0.04893
3541.00735	0.04927
3539.72158	0.04969
3538.43581	0.05007
3537.15004	0.05012
3535.86427	0.04962
3534.57850	0.04866
3533.29274	0.04769
3532.00697	0.04722
3530.72120	0.04749
3529.43543	0.04827
3528.14966	0.04914
3526.86389	0.04986
3525.57812	0.05040
3524.29235	0.05076
3523.00659	0.05090
3521.72082	0.05072
3520.43505	0.05029
3519.14928	0.04984
3517.86351	0.04966
3516.57774	0.04985
3515.29197	0.05016
3514.00620	0.05023
3512.72043	0.04999
3511.43467	0.04974
3510.14890	0.04974
3508.86313	0.05002
3507.57736	0.05049
3506.29159	0.05108
3505.00582	0.05166
3503.72005	0.05203
3502.43428	0.05201
3501.14852	0.05171
3499.86275	0.05135
3498.57698	0.05109
3497.29121	0.05095
3496.00544	0.05079
3494.71967	0.05052
3493.43390	0.05023
3492.14813	0.05023
3490.86236	0.05078
3489.57660	0.05183
3488.29083	0.05299
3487.00506	0.05382
3485.71929	0.05407
3484.43352	0.05374
3483.14775	0.05306
3481.86198	0.05239
3480.57621	0.05207
3479.29045	0.05213
3478.00468	0.05241
3476.71891	0.05270
3475.43314	0.05297
3474.14737	0.05324
3472.86160	0.05346
3471.57583	0.05360
3470.29006	0.05371
3469.00429	0.05397
3467.71853	0.05446
3466.43276	0.05506
3465.14699	0.05548
3463.86122	0.05553
3462.57545	0.05525
3461.28968	0.05491
3460.00391	0.05474
3458.71814	0.05480
3457.43238	0.05493
3456.14661	0.05502
3454.86084	0.05506
3453.57507	0.05503
3452.28930	0.05491
3451.00353	0.05474
3449.71776	0.05470
3448.43199	0.05492
3447.14622	0.05531
3445.86046	0.05576
3444.57469	0.05626
3443.28892	0.05680
3442.00315	0.05726
3440.71738	0.05738
3439.43161	0.05703
3438.14584	0.05634
3436.86007	0.05559
3435.57431	0.05509
3434.28854	0.05502
3433.00277	0.05540
3431.71700	0.05607
3430.43123	0.05673
3429.14546	0.05718
3427.85969	0.05740
3426.57392	0.05747
3425.28815	0.05743
3424.00239	0.05727
3422.71662	0.05694
3421.43085	0.05654
3420.14508	0.05626
3418.85931	0.05619
3417.57354	0.05628
3416.28777	0.05636
3415.00200	0.05635
3413.71624	0.05624
3412.43047	0.05609
3411.14470	0.05593
3409.85893	0.05583
3408.57316	0.05589
3407.28739	0.05624
3406.00162	0.05685
3404.71585	0.05751
3403.43008	0.05789
3402.14432	0.05777
3400.85855	0.05717
3399.57278	0.05643
3398.28701	0.05591
3397.00124	0.05590
3395.71547	0.05644
3394.42970	0.05731
3393.14393	0.05824
3391.85817	0.05895
3390.57240	0.05925
3389.28663	0.05902
3388.00086	0.05840
3386.71509	0.05765
3385.42932	0.05703
3384.14355	0.05664
3382.85778	0.05642
3381.57201	0.05627
3380.28625	0.05616
3379.00048	0.05615
3377.71471	0.05628
3376.42894	0.05654
3375.14317	0.05680
3373.85740	0.05697
3372.57163	0.05703
3371.28586	0.05707
3370.00010	0.05724
3368.71433	0.05769
3367.42856	0.05840
3366.14279	0.05915
3364.85702	0.05959
3363.57125	0.05943
3362.28548	0.05873
3360.99971	0.05790
3359.71394	0.05748
3358.42818	0.05762
3357.14241	0.05808
3355.85664	0.05840
3354.57087	0.05834
3353.28510	0.05792
3351.99933	0.05743
3350.71356	0.05709
3349.42779	0.05695
3348.14202	0.05688
3346.85626	0.05672
3345.57049	0.05645
3344.28472	0.05618
3342.99895	0.05609
3341.71318	0.05633
3340.42741	0.05684
3339.14164	0.05741
3337.85587	0.05781
3336.57011	0.05788
3335.28434	0.05761
3333.99857	0.05711
3332.71280	0.05668
3331.42703	0.05662
3330.14126	0.05701
3328.85549	0.05754
3327.56972	0.05785
3326.28395	0.05780
3324.99819	0.05760
3323.71242	0.05750
3322.42665	0.05757
3321.14088	0.05776
3319.85511	0.05793
3318.56934	0.05805
3317.28357	0.05815
3315.99780	0.05829
3314.71204	0.05836
3313.42627	0.05818
3312.14050	0.05775
3310.85473	0.05731
3309.56896	0.05710
3308.28319	0.05715
3306.99742	0.05726
3305.71165	0.05720
3304.42588	0.05687
3303.14012	0.05629
3301.85435	0.05563
3300.56858	0.05513
3299.28281	0.05501
3297.99704	0.05523
3296.71127	0.05561
3295.42550	0.05601
3294.13973	0.05637
3292.85397	0.05669
3291.56820	0.05688
3290.28243	0.05685
3288.99666	0.05663
3287.71089	0.05629
3286.42512	0.05593
3285.13935	0.05568
3283.85358	0.05568
3282.56781	0.05595
3281.28205	0.05637
3279.99628	0.05666
3278.71051	0.05666
3277.42474	0.05636
3276.13897	0.05592
3274.85320	0.05553
3273.56743	0.05531
3272.28166	0.05521
3270.99590	0.05511
3269.71013	0.05493
3268.42436	0.05475
3267.13859	0.05469
3265.85282	0.05478
3264.56705	0.05485
3263.28128	0.05478
3261.99551	0.05467
3260.70974	0.05471
3259.42398	0.05496
3258.13821	0.05518
3256.85244	0.05505
3255.56667	0.05450
3254.28090	0.05383
3252.99513	0.05343
3251.70936	0.05347
3250.42359	0.05381
3249.13783	0.05409
3247.85206	0.05412
3246.56629	0.05402
3245.28052	0.05414
3243.99475	0.05463
3242.70898	0.05531
3241.42321	0.05581
3240.13744	0.05590
3238.85167	0.05568
3237.56591	0.05535
3236.28014	0.05505
3234.99437	0.05474
3233.70860	0.05438
3232.42283	0.05397
3231.13706	0.05365
3229.85129	0.05359
3228.56552	0.05384
3227.27976	0.05422
3225.99399	0.05456
3224.70822	0.05481
3223.42245	0.05497
3222.13668	0.05496
3220.85091	0.05476
3219.56514	0.05447
3218.27937	0.05427
3216.99360	0.05427
3215.70784	0.05439
3214.42207	0.05447
3213.13630	0.05434
3211.85053	0.05398
3210.56476	0.05351
3209.27899	0.05313
3207.99322	0.05291
3206.70745	0.05275
3205.42169	0.05260
3204.13592	0.05257
3202.85015	0.05275
3201.56438	0.05302
3200.27861	0.05307
3198.99284	0.05284
3197.70707	0.05253
3196.42130	0.05236
3195.13553	0.05231
3193.84977	0.05225
3192.56400	0.05219
3191.27823	0.05225
3189.99246	0.05246
3188.70669	0.05266
3187.42092	0.05265
3186.13515	0.05234
3184.84938	0.05181
3183.56362	0.05126
3182.27785	0.05097
3180.99208	0.05114
3179.70631	0.05173
3178.42054	0.05249
3177.13477	0.05306
3175.84900	0.05315
3174.56323	0.05270
3173.27746	0.05189
3171.99170	0.05100
3170.70593	0.05027
3169.42016	0.04984
3168.13439	0.04967
3166.84862	0.04963
3165.56285	0.04965
3164.27708	0.04976
3162.99131	0.05002
3161.70555	0.05031
3160.41978	0.05043
3159.13401	0.05031
3157.84824	0.05008
3156.56247	0.05003
3155.27670	0.05029
3153.99093	0.05074
3152.70516	0.05116
3151.41939	0.05142
3150.13363	0.05151
3148.84786	0.05141
3147.56209	0.05099
3146.27632	0.05033
3144.99055	0.04967
3143.70478	0.04921
3142.41901	0.04901
3141.13324	0.04898
3139.84748	0.04903
3138.56171	0.04905
3137.27594	0.04897
3135.99017	0.04881
3134.70440	0.04871
3133.41863	0.04871
3132.13286	0.04880
3130.84709	0.04891
3129.56132	0.04899
3128.27556	0.04901
3126.98979	0.04893
3125.70402	0.04881
3124.41825	0.04871
3123.13248	0.04863
3121.84671	0.04851
3120.56094	0.04834
3119.27517	0.04818
3117.98940	0.04807
3116.70364	0.04795
3115.41787	0.04772
3114.13210	0.04734
3112.84633	0.04700
3111.56056	0.04693
3110.27479	0.04723
3108.98902	0.04771
3107.70325	0.04807
3106.41749	0.04817
3105.13172	0.04806
3103.84595	0.04785
3102.56018	0.04760
3101.27441	0.04741
3099.98864	0.04736
3098.70287	0.04740
3097.41710	0.04737
3096.13133	0.04719
3094.84557	0.04689
3093.55980	0.04660
3092.27403	0.04641
3090.98826	0.04628
3089.70249	0.04617
3088.41672	0.04608
3087.13095	0.04613
3085.84518	0.04634
3084.55942	0.04664
3083.27365	0.04684
3081.98788	0.04682
3080.70211	0.04666
3079.41634	0.04648
3078.13057	0.04635
3076.84480	0.04623
3075.55903	0.04610
3074.27326	0.04605
3072.98750	0.04615
3071.70173	0.04632
3070.41596	0.04642
3069.13019	0.04636
3067.84442	0.04615
3066.55865	0.04581
3065.27288	0.04535
3063.98711	0.04493
3062.70135	0.04474
3061.41558	0.04484
3060.12981	0.04508
3058.84404	0.04519
3057.55827	0.04505
3056.27250	0.04470
3054.98673	0.04432
3053.70096	0.04412
3052.41519	0.04418
3051.12943	0.04443
3049.84366	0.04468
3048.55789	0.04481
3047.27212	0.04479
3045.98635	0.04468
3044.70058	0.04455
3043.41481	0.04449
3042.12904	0.04445
3040.84328	0.04439
3039.55751	0.04428
3038.27174	0.04417
3036.98597	0.04407
3035.70020	0.04388
3034.41443	0.04351
3033.12866	0.04304
3031.84289	0.04266
3030.55712	0.04249
3029.27136	0.04255
3027.98559	0.04278
3026.69982	0.04307
3025.41405	0.04330
3024.12828	0.04339
3022.84251	0.04334
3021.55674	0.04322
3020.27097	0.04313
3018.98521	0.04312
3017.69944	0.04316
3016.41367	0.04314
3015.12790	0.04298
3013.84213	0.04270
3012.55636	0.04238
3011.27059	0.04211
3009.98482	0.04190
3008.69905	0.04177
3007.41329	0.04172
3006.12752	0.04176
3004.84175	0.04181
3003.55598	0.04177
3002.27021	0.04165
3000.98444	0.04158
2999.69867	0.04168
2998.41290	0.04191
2997.12714	0.04204
2995.84137	0.04197
2994.55560	0.04185
2993.26983	0.04188
2991.98406	0.04211
2990.69829	0.04232
2989.41252	0.04232
2988.12675	0.04219
2986.84098	0.04220
2985.55522	0.04246
2984.26945	0.04280
2982.98368	0.04311
2981.69791	0.04346
2980.41214	0.04389
2979.12637	0.04430
2977.84060	0.04458
2976.55483	0.04475
2975.26907	0.04489
2973.98330	0.04504
2972.69753	0.04527
2971.41176	0.04568
2970.12599	0.04631
2968.84022	0.04708
2967.55445	0.04780
2966.26868	0.04840
2964.98291	0.04896
2963.69715	0.04962
2962.41138	0.05040
2961.12561	0.05114
2959.83984	0.05162
2958.55407	0.05188
2957.26830	0.05214
2955.98253	0.05262
2954.69676	0.05330
2953.41100	0.05394
2952.12523	0.05436
2950.83946	0.05449
2949.55369	0.05441
2948.26792	0.05424
2946.98215	0.05416
2945.69638	0.05424
2944.41061	0.05442
2943.12484	0.05458
2941.83908	0.05464
2940.55331	0.05460
2939.26754	0.05450
2937.98177	0.05444
2936.69600	0.05453
2935.41023	0.05481
2934.12446	0.05525
2932.83869	0.05577
2931.55293	0.05639
2930.26716	0.05713
2928.98139	0.05794
2927.69562	0.05865
2926.40985	0.05917
2925.12408	0.05946
2923.83831	0.05955
2922.55254	0.05951
2921.26677	0.05941
2919.98101	0.05933
2918.69524	0.05924
2917.40947	0.05897
2916.12370	0.05836
2914.83793	0.05746
2913.55216	0.05649
2912.26639	0.05573
2910.98062	0.05530
2909.69486	0.05511
2908.40909	0.05500
2907.12332	0.05480
2905.83755	0.05445
2904.55178	0.05401
2903.26601	0.05356
2901.98024	0.05319
2900.69447	0.05289
2899.40870	0.05255
2898.12294	0.05201
2896.83717	0.05129
2895.55140	0.05055
2894.26563	0.05002
2892.97986	0.04970
2891.69409	0.04945
2890.40832	0.04918
2889.12255	0.04888
2887.83678	0.04856
2886.55102	0.04822
2885.26525	0.04791
2883.97948	0.04771
2882.69371	0.04757
2881.40794	0.04741
2880.12217	0.04725
2878.83640	0.04721
2877.55063	0.04732
2876.26487	0.04748
2874.97910	0.04754
2873.69333	0.04752
2872.40756	0.04754
2871.12179	0.04776
2869.83602	0.04813
2868.55025	0.04849
2867.26448	0.04868
2865.97871	0.04872
2864.69295	0.04876
2863.40718	0.04883
2862.12141	0.04882
2860.83564	0.04863
2859.54987	0.04836
2858.26410	0.04816
2856.97833	0.04810
2855.69256	0.04806
2854.40680	0.04790
2853.12103	0.04757
2851.83526	0.04711
2850.54949	0.04661
2849.26372	0.04618
2847.97795	0.04590
2846.69218	0.04568
2845.40641	0.04541
2844.12064	0.04504
2842.83488	0.04453
2841.54911	0.04389
2840.26334	0.04314
2838.97757	0.04241
2837.69180	0.04185
2836.40603	0.04149
2835.12026	0.04126
2833.83449	0.04107
2832.54873	0.04076
2831.26296	0.04027
2829.97719	0.03968
2828.69142	0.03919
2827.40565	0.03891
2826.11988	0.03876
2824.83411	0.03866
2823.54834	0.03858
2822.26257	0.03846
2820.97681	0.03821
2819.69104	0.03777
2818.40527	0.03722
2817.11950	0.03676
2815.83373	0.03655
2814.54796	0.03653
2813.26219	0.03659
2811.97642	0.03663
2810.69066	0.03662
2809.40489	0.03648
2808.11912	0.03617
2806.83335	0.03573
2805.54758	0.03532
2804.26181	0.03512
2802.97604	0.03519
2801.69027	0.03544
2800.40450	0.03568
2799.11874	0.03571
2797.83297	0.03548
2796.54720	0.03514
2795.26143	0.03488
2793.97566	0.03475
2792.68989	0.03469
2791.40412	0.03467
2790.11835	0.03476
2788.83259	0.03493
2787.54682	0.03508
2786.26105	0.03510
2784.97528	0.03499
2783.68951	0.03481
2782.40374	0.03462
2781.11797	0.03443
2779.83220	0.03428
2778.54643	0.03425
2777.26067	0.03433
2775.97490	0.03441
2774.68913	0.03436
2773.40336	0.03418
2772.11759	0.03397
2770.83182	0.03384
2769.54605	0.03381
2768.26028	0.03382
2766.97452	0.03379
2765.68875	0.03365
2764.40298	0.03347
2763.11721	0.03336
2761.83144	0.03337
2760.54567	0.03343
2759.25990	0.03341
2757.97413	0.03326
2756.68836	0.03304
2755.40260	0.03288
2754.11683	0.03283
2752.83106	0.03290
2751.54529	0.03303
2750.25952	0.03311
2748.97375	0.03309
2747.68798	0.03292
2746.40221	0.03272
2745.11645	0.03262
2743.83068	0.03266
2742.54491	0.03273
2741.25914	0.03271
2739.97337	0.03263
2738.68760	0.03256
2737.40183	0.03258
2736.11606	0.03262
2734.83029	0.03261
2733.54453	0.03249
2732.25876	0.03229
2730.97299	0.03214
2729.68722	0.03213
2728.40145	0.03225
2727.11568	0.03237
2725.82991	0.03238
2724.54414	0.03225
2723.25838	0.03201
2721.97261	0.03177
2720.68684	0.03162
2719.40107	0.03153
2718.11530	0.03146
2716.82953	0.03138
2715.54376	0.03134
2714.25799	0.03136
2712.97222	0.03143
2711.68646	0.03148
2710.40069	0.03149
2709.11492	0.03150
2707.82915	0.03154
2706.54338	0.03157
2705.25761	0.03150
2703.97184	0.03133
2702.68607	0.03110
2701.40031	0.03091
2700.11454	0.03075
2698.82877	0.03062
2697.54300	0.03051
2696.25723	0.03043
2694.97146	0.03044
2693.68569	0.03056
2692.39992	0.03077
2691.11415	0.03092
2689.82839	0.03087
2688.54262	0.03062
2687.25685	0.03033
2685.97108	0.03020
2684.68531	0.03021
2683.39954	0.03024
2682.11377	0.03023
2680.82800	0.03021
2679.54224	0.03024
2678.25647	0.03032
2676.97070	0.03041
2675.68493	0.03047
2674.39916	0.03044
2673.11339	0.03029
2671.82762	0.03007
2670.54185	0.02986
2669.25608	0.02971
2667.97032	0.02965
2666.68455	0.02970
2665.39878	0.02981
2664.11301	0.02992
2662.82724	0.03001
2661.54147	0.03016
2660.25570	0.03038
2658.96993	0.03057
2657.68417	0.03062
2656.39840	0.03044
2655.11263	0.03008
2653.82686	0.02971
2652.54109	0.02951
2651.25532	0.02952
2649.96955	0.02958
2648.68378	0.02952
2647.39801	0.02930
2646.11225	0.02905
2644.82648	0.02892
2643.54071	0.02899
2642.25494	0.02914
2640.96917	0.02917
2639.68340	0.02896
2638.39763	0.02860
2637.11186	0.02833
2635.82609	0.02830
2634.54033	0.02844
2633.25456	0.02855
2631.96879	0.02848
2630.68302	0.02822
2629.39725	0.02789
2628.11148	0.02760
2626.82571	0.02742
2625.53994	0.02731
2624.25418	0.02717
2622.96841	0.02693
2621.68264	0.02666
2620.39687	0.02650
2619.11110	0.02654
2617.82533	0.02669
2616.53956	0.02682
2615.25379	0.02690
2613.96802	0.02697
2612.68226	0.02700
2611.39649	0.02687
2610.11072	0.02655
2608.82495	0.02622
2607.53918	0.02604
2606.25341	0.02602
2604.96764	0.02599
2603.68187	0.02586
2602.39611	0.02566
2601.11034	0.02557
2599.82457	0.02568
2598.53880	0.02599
2597.25303	0.02634
2595.96726	0.02654
2594.68149	0.02645
2593.39572	0.02610
2592.10995	0.02571
2590.82419	0.02554
2589.53842	0.02563
2588.25265	0.02577
2586.96688	0.02574
2585.68111	0.02550
2584.39534	0.02518
2583.10957	0.02496
2581.82380	0.02496
2580.53804	0.02521
2579.25227	0.02554
2577.96650	0.02572
2576.68073	0.02556
2575.39496	0.02509
2574.10919	0.02456
2572.82342	0.02424
2571.53765	0.02422
2570.25188	0.02442
2568.96612	0.02476
2567.68035	0.02511
2566.39458	0.02526
2565.10881	0.02507
2563.82304	0.02462
2562.53727	0.02427
2561.25150	0.02424
2559.96573	0.02439
2558.67997	0.02444
2557.39420	0.02426
2556.10843	0.02409
2554.82266	0.02419
2553.53689	0.02458
2552.25112	0.02495
2550.96535	0.02496
2549.67958	0.02456
2548.39381	0.02397
2547.10805	0.02350
2545.82228	0.02328
2544.53651	0.02325
2543.25074	0.02330
2541.96497	0.02342
2540.67920	0.02356
2539.39343	0.02370
2538.10766	0.02376
2536.82190	0.02373
2535.53613	0.02358
2534.25036	0.02329
2532.96459	0.02294
2531.67882	0.02274
2530.39305	0.02279
2529.10728	0.02301
2527.82151	0.02324
2526.53574	0.02336
2525.24998	0.02341
2523.96421	0.02341
2522.67844	0.02337
2521.39267	0.02321
2520.10690	0.02292
2518.82113	0.02267
2517.53536	0.02266
2516.24959	0.02290
2514.96383	0.02323
2513.67806	0.02354
2512.39229	0.02381
2511.10652	0.02392
2509.82075	0.02371
2508.53498	0.02312
2507.24921	0.02231
2505.96344	0.02151
2504.67767	0.02098
2503.39191	0.02094
2502.10614	0.02140
2500.82037	0.02215
2499.53460	0.02284
2498.24883	0.02326
2496.96306	0.02340
2495.67729	0.02331
2494.39152	0.02304
2493.10576	0.02273
2491.81999	0.02249
2490.53422	0.02236
2489.24845	0.02225
2487.96268	0.02213
2486.67691	0.02202
2485.39114	0.02198
2484.10537	0.02201
2482.81960	0.02207
2481.53384	0.02212
2480.24807	0.02218
2478.96230	0.02228
2477.67653	0.02241
2476.39076	0.02247
2475.10499	0.02237
2473.81922	0.02215
2472.53345	0.02186
2471.24769	0.02158
2469.96192	0.02134
2468.67615	0.02121
2467.39038	0.02129
2466.10461	0.02160
2464.81884	0.02195
2463.53307	0.02218
2462.24730	0.02219
2460.96153	0.02204
2459.67577	0.02179
2458.39000	0.02154
2457.10423	0.02142
2455.81846	0.02155
2454.53269	0.02186
2453.24692	0.02211
2451.96115	0.02212
2450.67538	0.02183
2449.38962	0.02130
2448.10385	0.02072
2446.81808	0.02032
2445.53231	0.02028
2444.24654	0.02060
2442.96077	0.02110
2441.67500	0.02152
2440.38923	0.02167
2439.10346	0.02155
2437.81770	0.02133
2436.53193	0.02110
2435.24616	0.02081
2433.96039	0.02043
2432.67462	0.02016
2431.38885	0.02023
2430.10308	0.02064
2428.81731	0.02116
2427.53155	0.02151
2426.24578	0.02153
2424.96001	0.02117
2423.67424	0.02058
2422.38847	0.02003
2421.10270	0.01983
2419.81693	0.02013
2418.53116	0.02073
2417.24539	0.02123
2415.95963	0.02135
2414.67386	0.02108
2413.38809	0.02065
2412.10232	0.02033
2410.81655	0.02030
2409.53078	0.02054
2408.24501	0.02085
2406.95924	0.02096
2405.67347	0.02085
2404.38771	0.02072
2403.10194	0.02068
2401.81617	0.02068
2400.53040	0.02059
2399.24463	0.02036
2397.95886	0.02015
2396.67309	0.02006
2395.38732	0.02010
2394.10156	0.02022
2392.81579	0.02028
2391.53002	0.02019
2390.24425	0.01994
2388.95848	0.01961
2387.67271	0.01937
2386.38694	0.01936
2385.10117	0.01956
2383.81540	0.01979
2382.52964	0.01991
2381.24387	0.01999
2379.95810	0.02013
2378.67233	0.02035
2377.38656	0.02052
2376.10079	0.02058
2374.81502	0.02056
2373.52925	0.02053
2372.24349	0.02052
2370.95772	0.02049
2369.67195	0.02042
2368.38618	0.02035
2367.10041	0.02037
2365.81464	0.02050
2364.52887	0.02073
2363.24310	0.02096
2361.95733	0.02113
2360.67157	0.02122
2359.38580	0.02126
2358.10003	0.02131
2356.81426	0.02133
2355.52849	0.02132
2354.24272	0.02127
2352.95695	0.02119
2351.67118	0.02107
2350.38542	0.02092
2349.09965	0.02077
2347.81388	0.02064
2346.52811	0.02049
2345.24234	0.02036
2343.95657	0.02039
2342.67080	0.02061
2341.38503	0.02087
2340.09926	0.02104
2338.81350	0.02114
2337.52773	0.02117
2336.24196	0.02104
2334.95619	0.02087
2333.67042	0.02087
2332.38465	0.02088
2331.09888	0.02064
2329.81311	0.02041
2328.52735	0.02056
2327.24158	0.02096
2325.95581	0.02156
2324.67004	0.02225
2323.38427	0.02265
2322.09850	0.02265
2320.81273	0.02245
2319.52696	0.02204
2318.24119	0.02148
2316.95543	0.02095
2315.66966	0.02055
2314.38389	0.02044
2313.09812	0.02070
2311.81235	0.02109
2310.52658	0.02137
2309.24081	0.02133
2307.95504	0.02098
2306.66928	0.02057
2305.38351	0.02032
2304.09774	0.02028
2302.81197	0.02036
2301.52620	0.02040
2300.24043	0.02038
2298.95466	0.02028
2297.66889	0.02011
2296.38312	0.01986
2295.09736	0.01960
2293.81159	0.01949
2292.52582	0.01963
2291.24005	0.01992
2289.95428	0.02014
2288.66851	0.02010
2287.38274	0.01978
2286.09697	0.01929
2284.81121	0.01882
2283.52544	0.01854
2282.23967	0.01849
2280.95390	0.01853
2279.66813	0.01848
2278.38236	0.01835
2277.09659	0.01828
2275.81082	0.01818
2274.52505	0.01778
2273.23929	0.01695
2271.95352	0.01598
2270.66775	0.01535
2269.38198	0.01531
2268.09621	0.01579
2266.81044	0.01653
2265.52467	0.01729
2264.23890	0.01784
2262.95314	0.01803
2261.66737	0.01781
2260.38160	0.01734
2259.09583	0.01686
2257.81006	0.01655
2256.52429	0.01648
2255.23852	0.01667
2253.95275	0.01698
2252.66698	0.01715
2251.38122	0.01705
2250.09545	0.01680
2248.80968	0.01658
2247.52391	0.01627
2246.23814	0.01591
2244.95237	0.01553
2243.66660	0.01520
2242.38083	0.01487
2241.09507	0.01439
2239.80930	0.01384
2238.52353	0.01351
2237.23776	0.01361
2235.95199	0.01411
2234.66622	0.01474
2233.38045	0.01517
2232.09468	0.01508
2230.80891	0.01449
2229.52315	0.01387
2228.23738	0.01388
2226.95161	0.01466
2225.66584	0.01556
2224.38007	0.01571
2223.09430	0.01491
2221.80853	0.01377
2220.52276	0.01304
2219.23700	0.01296
2217.95123	0.01333
2216.66546	0.01396
2215.37969	0.01470
2214.09392	0.01530
2212.80815	0.01555
2211.52238	0.01539
2210.23661	0.01496
2208.95084	0.01440
2207.66508	0.01372
2206.37931	0.01294
2205.09354	0.01218
2203.80777	0.01160
2202.52200	0.01124
2201.23623	0.01109
2199.95046	0.01133
2198.66469	0.01212
2197.37893	0.01318
2196.09316	0.01376
2194.80739	0.01345
2193.52162	0.01271
2192.23585	0.01237
2190.95008	0.01282
2189.66431	0.01371
2188.37854	0.01441
2187.09277	0.01447
2185.80701	0.01380
2184.52124	0.01262
2183.23547	0.01125
2181.94970	0.00992
2180.66393	0.00871
2179.37816	0.00776
2178.09239	0.00729
2176.80662	0.00751
2175.52085	0.00833
2174.23509	0.00923
2172.94932	0.00964
2171.66355	0.00954
2170.37778	0.00941
2169.09201	0.00968
2167.80624	0.01030
2166.52047	0.01098
2165.23470	0.01143
2163.94894	0.01151
2162.66317	0.01106
2161.37740	0.00983
2160.09163	0.00768
2158.80586	0.00491
2157.52009	0.00249
2156.23432	0.00143
2154.94855	0.00199
2153.66278	0.00355
2152.37702	0.00521
2151.09125	0.00638
2149.80548	0.00703
2148.51971	0.00751
2147.23394	0.00802
2145.94817	0.00847
2144.66240	0.00860
2143.37663	0.00848
2142.09087	0.00844
2140.80510	0.00872
2139.51933	0.00922
2138.23356	0.00967
2136.94779	0.00990
2135.66202	0.00991
2134.37625	0.00980
2133.09048	0.00980
2131.80471	0.01008
2130.51895	0.01057
2129.23318	0.01095
2127.94741	0.01096
2126.66164	0.01072
2125.37587	0.01058
2124.09010	0.01066
2122.80433	0.01076
2121.51856	0.01075
2120.23280	0.01076
2118.94703	0.01099
2117.66126	0.01135
2116.37549	0.01160
2115.08972	0.01166
2113.80395	0.01174
2112.51818	0.01203
2111.23241	0.01250
2109.94664	0.01296
2108.66088	0.01325
2107.37511	0.01326
2106.08934	0.01295
2104.80357	0.01242
2103.51780	0.01185
2102.23203	0.01135
2100.94626	0.01083
2099.66049	0.00843
2098.37473	0.00699
2097.08896	0.00661
2095.80319	0.00676
2094.51742	0.00746
2093.23165	0.00869
2091.94588	0.01012
2090.66011	0.01125
2089.37434	0.01176
2088.08857	0.01168
2086.80281	0.01131
2085.51704	0.01087
2084.23127	0.01046
2082.94550	0.01009
2081.65973	0.00982
2080.37396	0.00955
2079.08819	0.00906
2077.80242	0.00821
2076.51666	0.00713
2075.23089	0.00614
2073.94512	0.00551
2072.65935	0.00538
2071.37358	0.00573
2070.08781	0.00633
2068.80204	0.00678
2067.51627	0.00685
2066.23050	0.00665
2064.94474	0.00646
2063.65897	0.00651
2062.37320	0.00683
2061.08743	0.00734
2059.80166	0.00793
2058.51589	0.00848
2057.23012	0.00892
2055.94435	0.00926
2054.65859	0.00947
2053.37282	0.00941
2052.08705	0.00887
2050.80128	0.00773
2049.51551	0.00610
2048.22974	0.00425
2046.94397	0.00244
2045.65820	0.00087
2044.37243	-0.00022
2043.08667	-0.00065
2041.80090	-0.00040
2040.51513	0.00025
2039.22936	0.00091
2037.94359	0.00131
2036.65782	0.00144
2035.37205	0.00145
2034.08628	0.00148
2032.80052	0.00150
2031.51475	0.00154
2030.22898	0.00169
2028.94321	0.00197
2027.65744	0.00218
2026.37167	0.00218
2025.08590	0.00210
2023.80013	0.00219
2022.51436	0.00249
2021.22860	0.00264
2019.94283	0.00228
2018.65706	0.00138
2017.37129	0.00030
2016.08552	-0.00056
2014.79975	-0.00095
2013.51398	-0.00086
2012.22821	-0.00047
2010.94245	-0.00004
2009.65668	0.00039
2008.37091	0.00114
2007.08514	0.00259
2005.79937	0.00454
2004.51360	0.00631
2003.22783	0.00738
2001.94206	0.00791
2000.65629	0.00838
1999.37053	0.00906
1998.08476	0.00973
1996.79899	0.00997
1995.51322	0.00957
1994.22745	0.00879
1992.94168	0.00807
1991.65591	0.00766
1990.37014	0.00745
1989.08438	0.00736
1987.79861	0.00742
1986.51284	0.00766
1985.22707	0.00779
1983.94130	0.00736
1982.65553	0.00608
1981.36976	0.00412
1980.08399	0.00207
1978.79822	0.00062
1977.51246	0.00013
1976.22669	0.00040
1974.94092	0.00090
1973.65515	0.00118
1972.36938	0.00121
1971.08361	0.00128
1969.79784	0.00167
1968.51207	0.00232
1967.22631	0.00296
1965.94054	0.00352
1964.65477	0.00418
1963.36900	0.00500
1962.08323	0.00573
1960.79746	0.00607
1959.51169	0.00605
1958.22592	0.00597
1956.94015	0.00600
1955.65439	0.00607
1954.36862	0.00606
1953.08285	0.00607
1951.79708	0.00631
1950.51131	0.00670
1949.22554	0.00696
1947.93977	0.00682
1946.65400	0.00639
1945.36823	0.00608
1944.08247	0.00632
1942.79670	0.00711
1941.51093	0.00800
1940.22516	0.00843
1938.93939	0.00828
1937.65362	0.00781
1936.36785	0.00739
1935.08208	0.00710
1933.79632	0.00689
1932.51055	0.00681
1931.22478	0.00702
1929.93901	0.00754
1928.65324	0.00818
1927.36747	0.00864
1926.08170	0.00883
1924.79593	0.00892
1923.51016	0.00908
1922.22440	0.00926
1920.93863	0.00935
1919.65286	0.00931
1918.36709	0.00925
1917.08132	0.00922
1915.79555	0.00921
1914.50978	0.00923
1913.22401	0.00929
1911.93825	0.00942
1910.65248	0.00958
1909.36671	0.00966
1908.08094	0.00961
1906.79517	0.00947
1905.50940	0.00940
1904.22363	0.00949
1902.93786	0.00967
1901.65209	0.00980
1900.36633	0.00974
1899.08056	0.00956
1897.79479	0.00947
1896.50902	0.00961
1895.22325	0.00987
1893.93748	0.01000
1892.65171	0.00984
1891.36594	0.00949
1890.08018	0.00920
1888.79441	0.00914
1887.50864	0.00931
1886.22287	0.00961
1884.93710	0.00987
1883.65133	0.00995
1882.36556	0.00980
1881.07979	0.00951
1879.79402	0.00926
1878.50826	0.00915
1877.22249	0.00914
1875.93672	0.00915
1874.65095	0.00916
1873.36518	0.00928
1872.07941	0.00958
1870.79364	0.01000
1869.50787	0.01036
1868.22211	0.01050
1866.93634	0.01043
1865.65057	0.01025
1864.36480	0.01004
1863.07903	0.00984
1861.79326	0.00973
1860.50749	0.00975
1859.22172	0.00988
1857.93595	0.00999
1856.65019	0.00998
1855.36442	0.00989
1854.07865	0.00981
1852.79288	0.00979
1851.50711	0.00982
1850.22134	0.00987
1848.93557	0.00995
1847.64980	0.01003
1846.36404	0.01012
1845.07827	0.01020
1843.79250	0.01020
1842.50673	0.01016
1841.22096	0.01016
1839.93519	0.01025
1838.64942	0.01036
1837.36365	0.01043
1836.07788	0.01046
1834.79212	0.01049
1833.50635	0.01052
1832.22058	0.01053
1830.93481	0.01046
1829.64904	0.01024
1828.36327	0.00990
1827.07750	0.00957
1825.79173	0.00931
1824.50597	0.00907
1823.22020	0.00885
1821.93443	0.00868
1820.64866	0.00862
1819.36289	0.00866
1818.07712	0.00886
1816.79135	0.00922
1815.50558	0.00973
1814.21981	0.01026
1812.93405	0.01072
1811.64828	0.01105
1810.36251	0.01125
1809.07674	0.01135
1807.79097	0.01140
1806.50520	0.01143
1805.21943	0.01144
1803.93366	0.01140
1802.64790	0.01129
1801.36213	0.01112
1800.07636	0.01095
1798.79059	0.01086
1797.50482	0.01084
1796.21905	0.01082
1794.93328	0.01079
1793.64751	0.01076
1792.36174	0.01077
1791.07598	0.01079
1789.79021	0.01083
1788.50444	0.01090
1787.21867	0.01100
1785.93290	0.01110
1784.64713	0.01116
1783.36136	0.01113
1782.07559	0.01105
1780.78983	0.01098
1779.50406	0.01092
1778.21829	0.01086
1776.93252	0.01082
1775.64675	0.01087
1774.36098	0.01109
1773.07521	0.01135
1771.78944	0.01149
1770.50367	0.01156
1769.21791	0.01170
1767.93214	0.01197
1766.64637	0.01221
1765.36060	0.01232
1764.07483	0.01231
1762.78906	0.01224
1761.50329	0.01220
1760.21752	0.01223
1758.93176	0.01232
1757.64599	0.01237
1756.36022	0.01228
1755.07445	0.01212
1753.78868	0.01207
1752.50291	0.01218
1751.21714	0.01233
1749.93137	0.01239
1748.64560	0.01239
1747.35984	0.01240
1746.07407	0.01242
1744.78830	0.01242
1743.50253	0.01243
1742.21676	0.01250
1740.93099	0.01263
1739.64522	0.01269
1738.35945	0.01258
1737.07369	0.01241
1735.78792	0.01237
1734.50215	0.01246
1733.21638	0.01260
1731.93061	0.01279
1730.64484	0.01308
1729.35907	0.01340
1728.07330	0.01359
1726.78753	0.01370
1725.50177	0.01383
1724.21600	0.01401
1722.93023	0.01416
1721.64446	0.01422
1720.35869	0.01423
1719.07292	0.01428
1717.78715	0.01435
1716.50138	0.01444
1715.21561	0.01462
1713.92985	0.01492
1712.64408	0.01523
1711.35831	0.01548
1710.07254	0.01567
1708.78677	0.01586
1707.50100	0.01605
1706.21523	0.01622
1704.92946	0.01629
1703.64370	0.01633
1702.35793	0.01652
1701.07216	0.01685
1699.78639	0.01710
1698.50062	0.01731
1697.21485	0.01768
1695.92908	0.01815
1694.64331	0.01846
1693.35754	0.01868
1692.07178	0.01896
1690.78601	0.01924
1689.50024	0.01933
1688.21447	0.01929
1686.92870	0.01931
1685.64293	0.01950
1684.35716	0.01976
1683.07139	0.01999
1681.78563	0.02032
1680.49986	0.02072
1679.21409	0.02103
1677.92832	0.02121
1676.64255	0.02142
1675.35678	0.02171
1674.07101	0.02201
1672.78524	0.02230
1671.49947	0.02259
1670.21371	0.02286
1668.92794	0.02307
1667.64217	0.02323
1666.35640	0.02345
1665.07063	0.02375
1663.78486	0.02410
1662.49909	0.02441
1661.21332	0.02466
1659.92756	0.02483
1658.64179	0.02485
1657.35602	0.02468
1656.07025	0.02446
1654.78448	0.02443
1653.49871	0.02456
1652.21294	0.02464
1650.92717	0.02468
1649.64140	0.02491
1648.35564	0.02534
1647.06987	0.02575
1645.78410	0.02597
1644.49833	0.02607
1643.21256	0.02614
1641.92679	0.02621
1640.64102	0.02620
1639.35525	0.02608
1638.06949	0.02596
1636.78372	0.02592
1635.49795	0.02589
1634.21218	0.02587
1632.92641	0.02593
1631.64064	0.02611
1630.35487	0.02633
1629.06910	0.02649
1627.78333	0.02657
1626.49757	0.02658
1625.21180	0.02656
1623.92603	0.02652
1622.64026	0.02646
1621.35449	0.02638
1620.06872	0.02638
1618.78295	0.02650
1617.49718	0.02664
1616.21142	0.02665
1614.92565	0.02658
1613.63988	0.02662
1612.35411	0.02683
1611.06834	0.02709
1609.78257	0.02729
1608.49680	0.02744
1607.21103	0.02755
1605.92526	0.02765
1604.63950	0.02776
1603.35373	0.02788
1602.06796	0.02808
1600.78219	0.02833
1599.49642	0.02860
1598.21065	0.02885
1596.92488	0.02907
1595.63911	0.02928
1594.35335	0.02946
1593.06758	0.02962
1591.78181	0.02978
1590.49604	0.02998
1589.21027	0.03022
1587.92450	0.03048
1586.63873	0.03073
1585.35296	0.03097
1584.06719	0.03121
1582.78143	0.03143
1581.49566	0.03161
1580.20989	0.03175
1578.92412	0.03195
1577.63835	0.03230
1576.35258	0.03272
1575.06681	0.03304
1573.78104	0.03327
1572.49528	0.03354
1571.20951	0.03388
1569.92374	0.03421
1568.63797	0.03448
1567.35220	0.03476
1566.06643	0.03507
1564.78066	0.03529
1563.49489	0.03531
1562.20912	0.03524
1560.92336	0.03529
1559.63759	0.03547
1558.35182	0.03570
1557.06605	0.03598
1555.78028	0.03639
1554.49451	0.03685
1553.20874	0.03720
1551.92297	0.03742
1550.63721	0.03761
1549.35144	0.03773
1548.06567	0.03775
1546.77990	0.03767
1545.49413	0.03746
1544.20836	0.03712
1542.92259	0.03673
1541.63682	0.03644
1540.35105	0.03630
1539.06529	0.03621
1537.77952	0.03609
1536.49375	0.03602
1535.20798	0.03607
1533.92221	0.03616
1532.63644	0.03624
1531.35067	0.03632
1530.06490	0.03645
1528.77914	0.03663
1527.49337	0.03684
1526.20760	0.03706
1524.92183	0.03728
1523.63606	0.03757
1522.35029	0.03798
1521.06452	0.03844
1519.77875	0.03894
1518.49298	0.03958
1517.20722	0.04038
1515.92145	0.04123
1514.63568	0.04209
1513.34991	0.04295
1512.06414	0.04381
1510.77837	0.04463
1509.49260	0.04546
1508.20683	0.04641
1506.92107	0.04741
1505.63530	0.04836
1504.34953	0.04925
1503.06376	0.05014
1501.77799	0.05099
1500.49222	0.05172
1499.20645	0.05234
1497.92068	0.05294
1496.63491	0.05352
1495.34915	0.05403
1494.06338	0.05448
1492.77761	0.05497
1491.49184	0.05552
1490.20607	0.05611
1488.92030	0.05676
1487.63453	0.05752
1486.34876	0.05838
1485.06299	0.05930
1483.77723	0.06023
1482.49146	0.06116
1481.20569	0.06205
1479.91992	0.06289
1478.63415	0.06368
1477.34838	0.06440
1476.06261	0.06503
1474.77684	0.06558
1473.49108	0.06610
1472.20531	0.06664
1470.91954	0.06718
1469.63377	0.06773
1468.34800	0.06824
1467.06223	0.06869
1465.77646	0.06904
1464.49069	0.06927
1463.20492	0.06939
1461.91916	0.06942
1460.63339	0.06944
1459.34762	0.06954
1458.06185	0.06977
1456.77608	0.07007
1455.49031	0.07041
1454.20454	0.07085
1452.91877	0.07142
1451.63301	0.07197
1450.34724	0.07238
1449.06147	0.07264
1447.77570	0.07277
1446.48993	0.07282
1445.20416	0.07282
1443.91839	0.07279
1442.63262	0.07270
1441.34685	0.07250
1440.06109	0.07223
1438.77532	0.07200
1437.48955	0.07186
1436.20378	0.07176
1434.91801	0.07172
1433.63224	0.07189
1432.34647	0.07235
1431.06070	0.07304
1429.77494	0.07385
1428.48917	0.07474
1427.20340	0.07572
1425.91763	0.07681
1424.63186	0.07793
1423.34609	0.07900
1422.06032	0.08002
1420.77455	0.08103
1419.48878	0.08197
1418.20302	0.08274
1416.91725	0.08335
1415.63148	0.08387
1414.34571	0.08429
1413.05994	0.08457
1411.77417	0.08468
1410.48840	0.08463
1409.20263	0.08441
1407.91687	0.08404
1406.63110	0.08352
1405.34533	0.08281
1404.05956	0.08188
1402.77379	0.08076
1401.48802	0.07953
1400.20225	0.07821
1398.91648	0.07682
1397.63071	0.07540
1396.34495	0.07398
1395.05918	0.07258
1393.77341	0.07115
1392.48764	0.06966
1391.20187	0.06814
1389.91610	0.06661
1388.63033	0.06508
1387.34456	0.06356
1386.05880	0.06205
1384.77303	0.06060
1383.48726	0.05923
1382.20149	0.05793
1380.91572	0.05665
1379.62995	0.05535
1378.34418	0.05401
1377.05841	0.05260
1375.77264	0.05108
1374.48688	0.04947
1373.20111	0.04779
1371.91534	0.04615
1370.62957	0.04460
1369.34380	0.04317
1368.05803	0.04181
1366.77226	0.04050
1365.48649	0.03924
1364.20073	0.03802
1362.91496	0.03687
1361.62919	0.03579
1360.34342	0.03481
1359.05765	0.03393
1357.77188	0.03311
1356.48611	0.03235
1355.20034	0.03162
1353.91457	0.03092
1352.62881	0.03024
1351.34304	0.02960
1350.05727	0.02900
1348.77150	0.02846
1347.48573	0.02797
1346.19996	0.02752
1344.91419	0.02708
1343.62842	0.02662
1342.34266	0.02616
1341.05689	0.02570
1339.77112	0.02529
1338.48535	0.02494
1337.19958	0.02468
1335.91381	0.02446
1334.62804	0.02425
1333.34227	0.02401
1332.05650	0.02376
1330.77074	0.02350
1329.48497	0.02325
1328.19920	0.02300
1326.91343	0.02275
1325.62766	0.02254
1324.34189	0.02233
1323.05612	0.02213
1321.77035	0.02192
1320.48459	0.02172
1319.19882	0.02155
1317.91305	0.02139
1316.62728	0.02124
1315.34151	0.02107
1314.05574	0.02091
1312.76997	0.02074
1311.48420	0.02058
1310.19843	0.02042
1308.91267	0.02028
1307.62690	0.02014
1306.34113	0.02001
1305.05536	0.01989
1303.76959	0.01978
1302.48382	0.01969
1301.19805	0.01958
1299.91228	0.01946
1298.62652	0.01933
1297.34075	0.01919
1296.05498	0.01904
1294.76921	0.01889
1293.48344	0.01876
1292.19767	0.01869
1290.91190	0.01864
1289.62613	0.01858
1288.34036	0.01847
1287.05460	0.01833
1285.76883	0.01817
1284.48306	0.01802
1283.19729	0.01788
1281.91152	0.01778
1280.62575	0.01771
1279.33998	0.01765
1278.05421	0.01757
1276.76845	0.01748
1275.48268	0.01743
1274.19691	0.01741
1272.91114	0.01736
1271.62537	0.01725
1270.33960	0.01708
1269.05383	0.01690
1267.76806	0.01676
1266.48229	0.01667
1265.19653	0.01662
1263.91076	0.01656
1262.62499	0.01647
1261.33922	0.01636
1260.05345	0.01627
1258.76768	0.01622
1257.48191	0.01620
1256.19614	0.01618
1254.91037	0.01610
1253.62461	0.01594
1252.33884	0.01573
1251.05307	0.01554
1249.76730	0.01541
1248.48153	0.01536
1247.19576	0.01536
1245.90999	0.01539
1244.62422	0.01536
1243.33846	0.01526
1242.05269	0.01510
1240.76692	0.01494
1239.48115	0.01481
1238.19538	0.01473
1236.90961	0.01466
1235.62384	0.01461
1234.33807	0.01455
1233.05230	0.01449
1231.76654	0.01442
1230.48077	0.01434
1229.19500	0.01424
1227.90923	0.01417
1226.62346	0.01413
1225.33769	0.01412
1224.05192	0.01413
1222.76615	0.01411
1221.48039	0.01404
1220.19462	0.01394
1218.90885	0.01383
1217.62308	0.01372
1216.33731	0.01364
1215.05154	0.01361
1213.76577	0.01361
1212.48000	0.01358
1211.19423	0.01351
1209.90847	0.01341
1208.62270	0.01329
1207.33693	0.01318
1206.05116	0.01307
1204.76539	0.01300
1203.47962	0.01294
1202.19385	0.01289
1200.90808	0.01292
1199.62232	0.01309
1198.33655	0.01302
1197.05078	0.01299
1195.76501	0.01301
1194.47924	0.01300
1193.19347	0.01293
1191.90770	0.01285
1190.62193	0.01280
1189.33616	0.01278
1188.05040	0.01277
1186.76463	0.01274
1185.47886	0.01268
1184.19309	0.01263
1182.90732	0.01258
1181.62155	0.01254
1180.33578	0.01252
1179.05001	0.01254
1177.76425	0.01258
1176.47848	0.01260
1175.19271	0.01264
1173.90694	0.01272
1172.62117	0.01286
1171.33540	0.01296
1170.04963	0.01298
1168.76386	0.01296
1167.47809	0.01296
1166.19233	0.01304
1164.90656	0.01319
1163.62079	0.01338
1162.33502	0.01355
1161.04925	0.01367
1159.76348	0.01374
1158.47771	0.01380
1157.19194	0.01388
1155.90618	0.01399
1154.62041	0.01411
1153.33464	0.01426
1152.04887	0.01448
1150.76310	0.01482
1149.47733	0.01524
1148.19156	0.01564
1146.90579	0.01598
1145.62002	0.01628
1144.33426	0.01660
1143.04849	0.01699
1141.76272	0.01746
1140.47695	0.01802
1139.19118	0.01871
1137.90541	0.01955
1136.61964	0.02054
1135.33387	0.02164
1134.04811	0.02283
1132.76234	0.02410
1131.47657	0.02547
1130.19080	0.02698
1128.90503	0.02867
1127.61926	0.03056
1126.33349	0.03258
1125.04772	0.03471
1123.76195	0.03695
1122.47619	0.03936
1121.19042	0.04195
1119.90465	0.04463
1118.61888	0.04728
1117.33311	0.04990
1116.04734	0.05255
1114.76157	0.05525
1113.47580	0.05792
1112.19004	0.06048
1110.90427	0.06290
1109.61850	0.06520
1108.33273	0.06738
1107.04696	0.06946
1105.76119	0.07147
1104.47542	0.07339
1103.18965	0.07524
1101.90388	0.07707
1100.61812	0.07892
1099.33235	0.08078
1098.04658	0.08256
1096.76081	0.08421
1095.47504	0.08573
1094.18927	0.08717
1092.90350	0.08849
1091.61773	0.08969
1090.33197	0.09079
1089.04620	0.09185
1087.76043	0.09290
1086.47466	0.09395
1085.18889	0.09498
1083.90312	0.09605
1082.61735	0.09724
1081.33158	0.09860
1080.04581	0.10012
1078.76005	0.10173
1077.47428	0.10340
1076.18851	0.10512
1074.90274	0.10690
1073.61697	0.10872
1072.33120	0.11062
1071.04543	0.11261
1069.75966	0.11470
1068.47390	0.11688
1067.18813	0.11914
1065.90236	0.12143
1064.61659	0.12375
1063.33082	0.12608
1062.04505	0.12838
1060.75928	0.13066
1059.47351	0.13289
1058.18774	0.13508
1056.90198	0.13721
1055.61621	0.13930
1054.33044	0.14136
1053.04467	0.14339
1051.75890	0.14542
1050.47313	0.14747
1049.18736	0.14958
1047.90159	0.15180
1046.61583	0.15412
1045.33006	0.15648
1044.04429	0.15889
1042.75852	0.16134
1041.47275	0.16382
1040.18698	0.16625
1038.90121	0.16857
1037.61544	0.17080
1036.32967	0.17301
1035.04391	0.17525
1033.75814	0.17750
1032.47237	0.17965
1031.18660	0.18159
1029.90083	0.18324
1028.61506	0.18456
1027.32929	0.18560
1026.04352	0.18643
1024.75775	0.18711
1023.47199	0.18761
1022.18622	0.18784
1020.90045	0.18772
1019.61468	0.18727
1018.32891	0.18658
1017.04314	0.18571
1015.75737	0.18460
1014.47160	0.18313
1013.18584	0.18124
1011.90007	0.17892
1010.61430	0.17625
1009.32853	0.17332
1008.04276	0.17018
1006.75699	0.16681
1005.47122	0.16319
1004.18545	0.15928
1002.89968	0.15507
1001.61392	0.15057
1000.32815	0.14585
999.04238	0.14102
997.75661	0.13617
996.47084	0.13134
995.18507	0.12647
993.89930	0.12157
992.61353	0.11668
991.32777	0.11191
990.04200	0.10735
988.75623	0.10304
987.47046	0.09893
986.18469	0.09497
984.89892	0.09117
983.61315	0.08759
982.32738	0.08430
981.04161	0.08128
979.75585	0.07844
978.47008	0.07573
977.18431	0.07319
975.89854	0.07093
974.61277	0.06900
973.32700	0.06746
972.04123	0.06633
970.75546	0.06567
969.46970	0.06553
968.18393	0.06586
966.89816	0.06652
965.61239	0.06731
964.32662	0.06812
963.04085	0.06889
961.75508	0.06952
960.46931	0.06980
959.18354	0.06955
957.89778	0.06871
956.61201	0.06738
955.32624	0.06572
954.04047	0.06390
952.75470	0.06204
951.46893	0.06028
950.18316	0.05863
948.89739	0.05705
947.61163	0.05545
946.32586	0.05382
945.04009	0.05220
943.75432	0.05063
942.46855	0.04913
941.18278	0.04771
939.89701	0.04637
938.61124	0.04514
937.32547	0.04404
936.03971	0.04310
934.75394	0.04229
933.46817	0.04151
932.18240	0.04070
930.89663	0.03984
929.61086	0.03898
928.32509	0.03817
927.03932	0.03743
925.75356	0.03679
924.46779	0.03625
923.18202	0.03580
921.89625	0.03542
920.61048	0.03506
919.32471	0.03472
918.03894	0.03434
916.75317	0.03390
915.46740	0.03343
914.18164	0.03301
912.89587	0.03264
911.61010	0.03233
910.32433	0.03205
909.03856	0.03182
907.75279	0.03162
906.46702	0.03140
905.18125	0.03112
903.89549	0.03081
902.60972	0.03053
901.32395	0.03030
900.03818	0.03010
898.75241	0.02994
897.46664	0.02986
896.18087	0.02985
894.89510	0.02990
893.60933	0.02993
892.32357	0.02994
891.03780	0.02998
889.75203	0.03015
888.46626	0.03056
887.18049	0.03125
885.89472	0.03227
884.60895	0.03368
883.32318	0.03557
882.03742	0.03782
880.75165	0.04013
879.46588	0.04209
878.18011	0.04352
876.89434	0.04458
875.60857	0.04562
874.32280	0.04680
873.03703	0.04798
871.75126	0.04878
870.46550	0.04886
869.17973	0.04814
867.89396	0.04672
866.60819	0.04485
865.32242	0.04277
864.03665	0.04064
862.75088	0.03861
861.46511	0.03681
860.17935	0.03530
858.89358	0.03406
857.60781	0.03299
856.32204	0.03209
855.03627	0.03137
853.75050	0.03082
852.46473	0.03035
851.17896	0.02992
849.89319	0.02953
848.60743	0.02922
847.32166	0.02895
846.03589	0.02869
844.75012	0.02841
843.46435	0.02815
842.17858	0.02791
840.89281	0.02769
839.60704	0.02749
838.32128	0.02728
837.03551	0.02707
835.74974	0.02684
834.46397	0.02660
833.17820	0.02637
831.89243	0.02615
830.60666	0.02595
829.32089	0.02585
828.03512	0.02587
826.74936	0.02595
825.46359	0.02597
824.17782	0.02590
822.89205	0.02581
821.60628	0.02578
820.32051	0.02582
819.03474	0.02583
817.74897	0.02571
816.46321	0.02546
815.17744	0.02516
813.89167	0.02495
812.60590	0.02491
811.32013	0.02501
810.03436	0.02513
808.74859	0.02517
807.46282	0.02511
806.17705	0.02499
804.89129	0.02491
803.60552	0.02490
802.31975	0.02488
801.03398	0.02477
799.74821	0.02458
798.46244	0.02440
797.17667	0.02430
795.89090	0.02426
794.60513	0.02423
793.31937	0.02417
792.03360	0.02414
790.74783	0.02420
789.46206	0.02432
788.17629	0.02444
786.89052	0.02451
785.60475	0.02451
784.31898	0.02445
783.03322	0.02437
781.74745	0.02430
780.46168	0.02425
779.17591	0.02422
777.89014	0.02422
776.60437	0.02423
775.31860	0.02426
774.03283	0.02428
772.74706	0.02421
771.46130	0.02402
770.17553	0.02375
768.88976	0.02353
767.60399	0.02343
766.31822	0.02347
765.03245	0.02356
763.74668	0.02362
762.46091	0.02361
761.17515	0.02362
759.88938	0.02371
758.60361	0.02390
757.31784	0.02411
756.03207	0.02423
754.74630	0.02421
753.46053	0.02408
752.17476	0.02393
750.88899	0.02383
749.60323	0.02383
748.31746	0.02389
747.03169	0.02392
745.74592	0.02381
744.46015	0.02355
743.17438	0.02326
741.88861	0.02310
740.60284	0.02313
739.31708	0.02332
738.03131	0.02355
736.74554	0.02372
735.45977	0.02378
734.17400	0.02376
732.88823	0.02367
731.60246	0.02349
730.31669	0.02328
729.03092	0.02314
727.74516	0.02311
726.45939	0.02313
725.17362	0.02310
723.88785	0.02297
722.60208	0.02295
721.31631	0.02304
720.03054	0.02319
718.74477	0.02331
717.45901	0.02334
716.17324	0.02329
714.88747	0.02321
713.60170	0.02315
712.31593	0.02308
711.03016	0.02300
709.74439	0.02291
708.45862	0.02285
707.17285	0.02284
705.88709	0.02286
704.60132	0.02289
703.31555	0.02290
702.02978	0.02290
700.74401	0.02294
699.45824	0.02302
698.17247	0.02308
696.88670	0.02307
695.60094	0.02301
694.31517	0.02295
693.02940	0.02295
691.74363	0.02301
690.45786	0.02305
689.17209	0.02303
687.88632	0.02293
686.60055	0.02279
685.31478	0.02268
684.02902	0.02262
682.74325	0.02260
681.45748	0.02260
680.17171	0.02261
678.88594	0.02262
677.60017	0.02260
676.31440	0.02255
675.02863	0.02249
673.74287	0.02246
672.45710	0.02248
671.17133	0.02255
669.88556	0.02266
668.59979	0.02276
667.31402	0.02283
666.02825	0.02278
664.74248	0.02265
663.45671	0.02246
662.17095	0.02227
660.88518	0.02214
659.59941	0.02206
658.31364	0.02202
657.02787	0.02200
655.74210	0.02197
654.45633	0.02193
653.17056	0.02189
651.88480	0.02188
650.59903	0.02190
649.31326	0.02194
648.02749	0.02199
646.74172	0.02203
645.45595	0.02207
644.17018	0.02213
642.88441	0.02223
641.59864	0.02238
640.31288	0.02257
639.02711	0.02277
637.74134	0.02295
636.45557	0.02313
635.16980	0.02332
633.88403	0.02360
632.59826	0.02402
631.31249	0.02431
630.02673	0.02339
628.74096	0.02175
627.45519	0.02362
626.16942	0.02152
624.88365	0.01674
623.59788	0.01268
622.31211	0.01134
621.02634	0.01345
619.74057	0.01817
618.45481	0.02382
617.16904	0.02918
615.88327	0.03391
614.59750	0.03813
613.31173	0.04207
612.02596	0.04571
610.74019	0.04878
609.45442	0.05099
608.16866	0.05240
606.88289	0.05349
605.59712	0.05479
604.31135	0.05663
603.02558	0.05898
601.73981	0.06143
600.45404	0.06334
599.16827	0.06420
597.88250	0.06391
596.59674	0.06269
595.31097	0.06090
594.02520	0.05893
592.73943	0.05712
591.45366	0.05580
590.16789	0.05514
588.88212	0.05513
587.59635	0.05563
586.31059	0.05647
585.02482	0.05757
583.73905	0.05893
582.45328	0.06052
581.16751	0.06231
579.88174	0.06422
578.59597	0.06619
577.31020	0.06811
576.02443	0.06990
574.73867	0.07151
573.45290	0.07294
572.16713	0.07423
570.88136	0.07549
569.59559	0.07693
568.30982	0.07881
567.02405	0.08124
565.73828	0.08404
564.45251	0.08676
563.16675	0.08891
561.88098	0.09007
560.59521	0.09001
559.30944	0.08868
558.02367	0.08615
556.73790	0.08265
555.45213	0.07851
554.16636	0.07410
552.88060	0.06970
551.59483	0.06548
550.30906	0.06156
549.02329	0.05799
547.73752	0.05477
546.45175	0.05183
545.16598	0.04908
543.88021	0.04657
542.59444	0.04442
541.30868	0.04264
540.02291	0.04113
538.73714	0.03974
537.45137	0.03840
536.16560	0.03718
534.87983	0.03613
533.59406	0.03524
532.30829	0.03442
531.02253	0.03355
529.73676	0.03263
528.45099	0.03169
527.16522	0.03082
525.87945	0.03005
524.59368	0.02939
523.30791	0.02883
522.02214	0.02835
520.73637	0.02787
519.45061	0.02732
518.16484	0.02668
516.87907	0.02598
515.59330	0.02533
514.30753	0.02484
513.02176	0.02456
511.73599	0.02441
510.45022	0.02424
509.16446	0.02391
507.87869	0.02344
506.59292	0.02291
505.30715	0.02243
504.02138	0.02204
502.73561	0.02171
501.44984	0.02142
500.16407	0.02116
498.87830	0.02096
497.59254	0.02081
496.30677	0.02068
495.02100	0.02054
493.73523	0.02040
492.44946	0.02030
491.16369	0.02024
489.87792	0.02020
488.59215	0.02014
487.30639	0.02003
486.02062	0.01989
484.73485	0.01978
483.44908	0.01974
482.16331	0.01977
480.87754	0.01982
479.59177	0.01990
478.30600	0.02001
477.02023	0.02018
475.73447	0.02038
474.44870	0.02059
473.16293	0.02079
471.87716	0.02096
470.59139	0.02108
469.30562	0.02114
468.01985	0.02111
466.73408	0.02098
465.44832	0.02075
464.16255	0.02044
462.87678	0.02008
461.59101	0.01974
460.30524	0.01944
459.01947	0.01919
457.73370	0.01898
456.44793	0.01877
455.16216	0.01857
453.87640	0.01838
452.59063	0.01821
451.30486	0.01808
450.01909	0.01797
448.73332	0.01788
447.44755	0.01780
446.16178	0.01772
444.87601	0.01766
443.59025	0.01762
442.30448	0.01758
441.01871	0.01751
439.73294	0.01741
438.44717	0.01732
437.16140	0.01727
435.87563	0.01726
434.58986	0.01726
433.30409	0.01724
432.01833	0.01718
430.73256	0.01711
429.44679	0.01708
428.16102	0.01707
426.87525	0.01703
425.58948	0.01694
424.30371	0.01680
423.01794	0.01664
421.73218	0.01649
420.44641	0.01637
419.16064	0.01626
417.87487	0.01617
416.58910	0.01609
415.30333	0.01604
414.01756	0.01603
412.73179	0.01606
411.44602	0.01610
410.16026	0.01615
408.87449	0.01619
407.58872	0.01623
406.30295	0.01629
405.01718	0.01636
403.73141	0.01645
402.44564	0.01654
401.15987	0.01664
399.87411	0.01675
