3997.45528	0.03813
3996.16951	0.03760
3994.88374	0.03719
3993.59798	0.03721
3992.31221	0.03768
3991.02644	0.03828
3989.74067	0.03860
3988.45490	0.03851
3987.16913	0.03825
3985.88336	0.03816
3984.59759	0.03832
3983.31183	0.03846
3982.02606	0.03829
3980.74029	0.03775
3979.45452	0.03706
3978.16875	0.03652
3976.88298	0.03628
3975.59721	0.03636
3974.31144	0.03669
3973.02567	0.03724
3971.73991	0.03798
3970.45414	0.03876
3969.16837	0.03916
3967.88260	0.03880
3966.59683	0.03778
3965.31106	0.03667
3964.02529	0.03599
3962.73952	0.03586
3961.45376	0.03609
3960.16799	0.03645
3958.88222	0.03674
3957.59645	0.03682
3956.31068	0.03677
3955.02491	0.03695
3953.73914	0.03753
3952.45337	0.03822
3951.16760	0.03849
3949.88184	0.03803
3948.59607	0.03708
3947.31030	0.03616
3946.02453	0.03572
3944.73876	0.03569
3943.45299	0.03565
3942.16722	0.03528
3940.88145	0.03476
3939.59569	0.03450
3938.30992	0.03466
3937.02415	0.03498
3935.73838	0.03521
3934.45261	0.03537
3933.16684	0.03566
3931.88107	0.03619
3930.59530	0.03680
3929.30953	0.03710
3928.02377	0.03675
3926.73800	0.03585
3925.45223	0.03490
3924.16646	0.03435
3922.88069	0.03431
3921.59492	0.03466
3920.30915	0.03530
3919.02338	0.03616
3917.73762	0.03702
3916.45185	0.03745
3915.16608	0.03719
3913.88031	0.03637
3912.59454	0.03545
3911.30877	0.03481
3910.02300	0.03456
3908.73723	0.03448
3907.45146	0.03437
3906.16570	0.03428
3904.87993	0.03446
3903.59416	0.03501
3902.30839	0.03568
3901.02262	0.03609
3899.73685	0.03607
3898.45108	0.03578
3897.16531	0.03553
3895.87955	0.03550
3894.59378	0.03562
3893.30801	0.03581
3892.02224	0.03591
3890.73647	0.03561
3889.45070	0.03485
3888.16493	0.03402
3886.87916	0.03359
3885.59339	0.03353
3884.30763	0.03345
3883.02186	0.03307
3881.73609	0.03250
3880.45032	0.03194
3879.16455	0.03159
3877.87878	0.03160
3876.59301	0.03197
3875.30724	0.03246
3874.02148	0.03280
3872.73571	0.03299
3871.44994	0.03318
3870.16417	0.03327
3868.87840	0.03301
3867.59263	0.03253
3866.30686	0.03222
3865.02109	0.03231
3863.73532	0.03274
3862.44956	0.03336
3861.16379	0.03392
3859.87802	0.03413
3858.59225	0.03381
3857.30648	0.03317
3856.02071	0.03267
3854.73494	0.03262
3853.44917	0.03285
3852.16341	0.03311
3850.87764	0.03341
3849.59187	0.03379
3848.30610	0.03411
3847.02033	0.03423
3845.73456	0.03408
3844.44879	0.03368
3843.16302	0.03311
3841.87725	0.03252
3840.59149	0.03222
3839.30572	0.03236
3838.01995	0.03271
3836.73418	0.03290
3835.44841	0.03288
3834.16264	0.03286
3832.87687	0.03287
3831.59110	0.03270
3830.30534	0.03231
3829.01957	0.03196
3827.73380	0.03192
3826.44803	0.03211
3825.16226	0.03230
3823.87649	0.03253
3822.59072	0.03297
3821.30495	0.03351
3820.01918	0.03383
3818.73342	0.03382
3817.44765	0.03355
3816.16188	0.03303
3814.87611	0.03240
3813.59034	0.03198
3812.30457	0.03191
3811.01880	0.03199
3809.73303	0.03207
3808.44726	0.03215
3807.16150	0.03205
3805.87573	0.03159
3804.58996	0.03101
3803.30419	0.03071
3802.01842	0.03068
3800.73265	0.03059
3799.44688	0.03041
3798.16111	0.03046
3796.87535	0.03084
3795.58958	0.03140
3794.30381	0.03201
3793.01804	0.03249
3791.73227	0.03270
3790.44650	0.03264
3789.16073	0.03253
3787.87496	0.03256
3786.58919	0.03262
3785.30343	0.03247
3784.01766	0.03212
3782.73189	0.03189
3781.44612	0.03203
3780.16035	0.03238
3778.87458	0.03247
3777.58881	0.03207
3776.30304	0.03128
3775.01728	0.03052
3773.73151	0.03018
3772.44574	0.03043
3771.15997	0.03101
3769.87420	0.03138
3768.58843	0.03119
3767.30266	0.03059
3766.01689	0.02997
3764.73112	0.02959
3763.44536	0.02952
3762.15959	0.02970
3760.87382	0.02993
3759.58805	0.03002
3758.30228	0.03001
3757.01651	0.03001
3755.73074	0.03016
3754.44497	0.03048
3753.15921	0.03084
3751.87344	0.03111
3750.58767	0.03120
3749.30190	0.03106
3748.01613	0.03091
3746.73036	0.03137
3745.44459	0.03259
3744.15882	0.03365
3742.87305	0.03352
3741.58729	0.03219
3740.30152	0.03057
3739.01575	0.02965
3737.72998	0.02976
3736.44421	0.03043
3735.15844	0.03098
3733.87267	0.03130
3732.58690	0.03177
3731.30114	0.03242
3730.01537	0.03286
3728.72960	0.03279
3727.44383	0.03226
3726.15806	0.03154
3724.87229	0.03077
3723.58652	0.02992
3722.30075	0.02890
3721.01498	0.02786
3719.72922	0.02713
3718.44345	0.02697
3717.15768	0.02725
3715.87191	0.02761
3714.58614	0.02782
3713.30037	0.02788
3712.01460	0.02791
3710.72883	0.02808
3709.44307	0.02856
3708.15730	0.02932
3706.87153	0.03004
3705.58576	0.03032
3704.29999	0.02998
3703.01422	0.02920
3701.72845	0.02839
3700.44268	0.02801
3699.15691	0.02828
3697.87115	0.02901
3696.58538	0.02967
3695.29961	0.02993
3694.01384	0.02983
3692.72807	0.02962
3691.44230	0.02965
3690.15653	0.03012
3688.87076	0.03078
3687.58500	0.03108
3686.29923	0.03069
3685.01346	0.02982
3683.72769	0.02906
3682.44192	0.02890
3681.15615	0.02927
3679.87038	0.02962
3678.58461	0.02955
3677.29884	0.02927
3676.01308	0.02910
3674.72731	0.02908
3673.44154	0.02919
3672.15577	0.02956
3670.87000	0.03006
3669.58423	0.03023
3668.29846	0.02984
3667.01269	0.02914
3665.72693	0.02871
3664.44116	0.02891
3663.15539	0.02965
3661.86962	0.03047
3660.58385	0.03098
3659.29808	0.03114
3658.01231	0.03109
3656.72654	0.03092
3655.44077	0.03063
3654.15501	0.03041
3652.86924	0.03048
3651.58347	0.03085
3650.29770	0.03129
3649.01193	0.03153
3647.72616	0.03149
3646.44039	0.03123
3645.15462	0.03088
3643.86886	0.03066
3642.58309	0.03071
3641.29732	0.03095
3640.01155	0.03117
3638.72578	0.03128
3637.44001	0.03142
3636.15424	0.03173
3634.86847	0.03201
3633.58270	0.03186
3632.29694	0.03133
3631.01117	0.03098
3629.72540	0.03129
3628.43963	0.03208
3627.15386	0.03289
3625.86809	0.03353
3624.58232	0.03408
3623.29655	0.03463
3622.01079	0.03513
3620.72502	0.03542
3619.43925	0.03534
3618.15348	0.03505
3616.86771	0.03490
3615.58194	0.03516
3614.29617	0.03572
3613.01040	0.03623
3611.72463	0.03649
3610.43887	0.03664
3609.15310	0.03680
3607.86733	0.03689
3606.58156	0.03682
3605.29579	0.03663
3604.01002	0.03647
3602.72425	0.03647
3601.43848	0.03666
3600.15272	0.03698
3598.86695	0.03733
3597.58118	0.03773
3596.29541	0.03830
3595.00964	0.03907
3593.72387	0.03963
3592.43810	0.03943
3591.15233	0.03846
3589.86656	0.03752
3588.58080	0.03748
3587.29503	0.03842
3586.00926	0.03962
3584.72349	0.04038
3583.43772	0.04061
3582.15195	0.04065
3580.86618	0.04078
3579.58041	0.04101
3578.29464	0.04115
3577.00888	0.04099
3575.72311	0.04053
3574.43734	0.03998
3573.15157	0.03965
3571.86580	0.03973
3570.58003	0.04028
3569.29426	0.04118
3568.00849	0.04207
3566.72273	0.04253
3565.43696	0.04239
3564.15119	0.04186
3562.86542	0.04133
3561.57965	0.04108
3560.29388	0.04122
3559.00811	0.04173
3557.72234	0.04248
3556.43657	0.04325
3555.15081	0.04384
3553.86504	0.04425
3552.57927	0.04461
3551.29350	0.04492
3550.00773	0.04505
3548.72196	0.04498
3547.43619	0.04496
3546.15042	0.04524
3544.86466	0.04575
3543.57889	0.04610
3542.29312	0.04596
3541.00735	0.04552
3539.72158	0.04531
3538.43581	0.04557
3537.15004	0.04602
3535.86427	0.04622
3534.57850	0.04612
3533.29274	0.04612
3532.00697	0.04654
3530.72120	0.04730
3529.43543	0.04800
3528.14966	0.04829
3526.86389	0.04815
3525.57812	0.04792
3524.29235	0.04799
3523.00659	0.04851
3521.72082	0.04927
3520.43505	0.04993
3519.14928	0.05026
3517.86351	0.05019
3516.57774	0.04993
3515.29197	0.04980
3514.00620	0.05000
3512.72043	0.05043
3511.43467	0.05086
3510.14890	0.05108
3508.86313	0.05105
3507.57736	0.05087
3506.29159	0.05066
3505.00582	0.05056
3503.72005	0.05065
3502.43428	0.05091
3501.14852	0.05127
3499.86275	0.05166
3498.57698	0.05202
3497.29121	0.05229
3496.00544	0.05240
3494.71967	0.05233
3493.43390	0.05224
3492.14813	0.05237
3490.86236	0.05277
3489.57660	0.05319
3488.29083	0.05328
3487.00506	0.05291
3485.71929	0.05235
3484.43352	0.05194
3483.14775	0.05196
3481.86198	0.05243
3480.57621	0.05317
3479.29045	0.05382
3478.00468	0.05404
3476.71891	0.05382
3475.43314	0.05356
3474.14737	0.05364
3472.86160	0.05401
3471.57583	0.05438
3470.29006	0.05463
3469.00429	0.05488
3467.71853	0.05518
3466.43276	0.05542
3465.14699	0.05552
3463.86122	0.05552
3462.57545	0.05547
3461.28968	0.05529
3460.00391	0.05508
3458.71814	0.05506
3457.43238	0.05529
3456.14661	0.05554
3454.86084	0.05553
3453.57507	0.05537
3452.28930	0.05536
3451.00353	0.05566
3449.71776	0.05605
3448.43199	0.05619
3447.14622	0.05598
3445.86046	0.05564
3444.57469	0.05546
3443.28892	0.05556
3442.00315	0.05592
3440.71738	0.05643
3439.43161	0.05695
3438.14584	0.05740
3436.86007	0.05786
3435.57431	0.05847
3434.28854	0.05905
3433.00277	0.05919
3431.71700	0.05866
3430.43123	0.05778
3429.14546	0.05716
3427.85969	0.05711
3426.57392	0.05745
3425.28815	0.05788
3424.00239	0.05828
3422.71662	0.05866
3421.43085	0.05891
3420.14508	0.05890
3418.85931	0.05863
3417.57354	0.05830
3416.28777	0.05808
3415.00200	0.05804
3413.71624	0.05809
3412.43047	0.05813
3411.14470	0.05811
3409.85893	0.05816
3408.57316	0.05841
3407.28739	0.05889
3406.00162	0.05943
3404.71585	0.05990
3403.43008	0.06023
3402.14432	0.06041
3400.85855	0.06045
3399.57278	0.06039
3398.28701	0.06028
3397.00124	0.06011
3395.71547	0.06002
3394.42970	0.06007
3393.14393	0.06026
3391.85817	0.06056
3390.57240	0.06095
3389.28663	0.06137
3388.00086	0.06170
3386.71509	0.06186
3385.42932	0.06186
3384.14355	0.06180
3382.85778	0.06180
3381.57201	0.06194
3380.28625	0.06221
3379.00048	0.06255
3377.71471	0.06286
3376.42894	0.06306
3375.14317	0.06307
3373.85740	0.06284
3372.57163	0.06246
3371.28586	0.06210
3370.00010	0.06195
3368.71433	0.06210
3367.42856	0.06241
3366.14279	0.06263
3364.85702	0.06262
3363.57125	0.06245
3362.28548	0.06236
3360.99971	0.06248
3359.71394	0.06271
3358.42818	0.06288
3357.14241	0.06294
3355.85664	0.06298
3354.57087	0.06310
3353.28510	0.06332
3351.99933	0.06357
3350.71356	0.06380
3349.42779	0.06401
3348.14202	0.06422
3346.85626	0.06436
3345.57049	0.06431
3344.28472	0.06400
3342.99895	0.06353
3341.71318	0.06320
3340.42741	0.06323
3339.14164	0.06360
3337.85587	0.06402
3336.57011	0.06424
3335.28434	0.06423
3333.99857	0.06421
3332.71280	0.06436
3331.42703	0.06464
3330.14126	0.06487
3328.85549	0.06494
3327.56972	0.06489
3326.28395	0.06485
3324.99819	0.06495
3323.71242	0.06524
3322.42665	0.06567
3321.14088	0.06612
3319.85511	0.06640
3318.56934	0.06644
3317.28357	0.06634
3315.99780	0.06630
3314.71204	0.06645
3313.42627	0.06669
3312.14050	0.06681
3310.85473	0.06674
3309.56896	0.06663
3308.28319	0.06668
3306.99742	0.06687
3305.71165	0.06702
3304.42588	0.06700
3303.14012	0.06687
3301.85435	0.06678
3300.56858	0.06677
3299.28281	0.06675
3297.99704	0.06663
3296.71127	0.06645
3295.42550	0.06635
3294.13973	0.06645
3292.85397	0.06667
3291.56820	0.06674
3290.28243	0.06644
3288.99666	0.06583
3287.71089	0.06525
3286.42512	0.06509
3285.13935	0.06548
3283.85358	0.06621
3282.56781	0.06689
3281.28205	0.06734
3279.99628	0.06767
3278.71051	0.06801
3277.42474	0.06825
3276.13897	0.06817
3274.85320	0.06775
3273.56743	0.06726
3272.28166	0.06696
3270.99590	0.06688
3269.71013	0.06686
3268.42436	0.06677
3267.13859	0.06661
3265.85282	0.06649
3264.56705	0.06654
3263.28128	0.06675
3261.99551	0.06699
3260.70974	0.06706
3259.42398	0.06690
3258.13821	0.06653
3256.85244	0.06604
3255.56667	0.06546
3254.28090	0.06481
3252.99513	0.06416
3251.70936	0.06364
3250.42359	0.06345
3249.13783	0.06369
3247.85206	0.06430
3246.56629	0.06509
3245.28052	0.06576
3243.99475	0.06604
3242.70898	0.06581
3241.42321	0.06521
3240.13744	0.06460
3238.85167	0.06432
3237.56591	0.06436
3236.28014	0.06438
3234.99437	0.06414
3233.70860	0.06380
3232.42283	0.06372
3231.13706	0.06404
3229.85129	0.06449
3228.56552	0.06468
3227.27976	0.06451
3225.99399	0.06415
3224.70822	0.06384
3223.42245	0.06368
3222.13668	0.06372
3220.85091	0.06388
3219.56514	0.06395
3218.27937	0.06372
3216.99360	0.06324
3215.70784	0.06284
3214.42207	0.06279
3213.13630	0.06305
3211.85053	0.06335
3210.56476	0.06339
3209.27899	0.06310
3207.99322	0.06264
3206.70745	0.06229
3205.42169	0.06225
3204.13592	0.06254
3202.85015	0.06293
3201.56438	0.06306
3200.27861	0.06278
3198.99284	0.06223
3197.70707	0.06170
3196.42130	0.06140
3195.13553	0.06133
3193.84977	0.06137
3192.56400	0.06143
3191.27823	0.06151
3189.99246	0.06160
3188.70669	0.06162
3187.42092	0.06146
3186.13515	0.06111
3184.84938	0.06075
3183.56362	0.06059
3182.27785	0.06064
3180.99208	0.06066
3179.70631	0.06041
3178.42054	0.05994
3177.13477	0.05951
3175.84900	0.05933
3174.56323	0.05938
3173.27746	0.05950
3171.99170	0.05951
3170.70593	0.05937
3169.42016	0.05911
3168.13439	0.05883
3166.84862	0.05867
3165.56285	0.05871
3164.27708	0.05887
3162.99131	0.05892
3161.70555	0.05871
3160.41978	0.05832
3159.13401	0.05794
3157.84824	0.05764
3156.56247	0.05733
3155.27670	0.05701
3153.99093	0.05676
3152.70516	0.05667
3151.41939	0.05673
3150.13363	0.05684
3148.84786	0.05693
3147.56209	0.05692
3146.27632	0.05677
3144.99055	0.05652
3143.70478	0.05630
3142.41901	0.05625
3141.13324	0.05643
3139.84748	0.05671
3138.56171	0.05692
3137.27594	0.05692
3135.99017	0.05675
3134.70440	0.05652
3133.41863	0.05630
3132.13286	0.05603
3130.84709	0.05561
3129.56132	0.05504
3128.27556	0.05445
3126.98979	0.05400
3125.70402	0.05383
3124.41825	0.05401
3123.13248	0.05439
3121.84671	0.05474
3120.56094	0.05484
3119.27517	0.05474
3117.98940	0.05463
3116.70364	0.05464
3115.41787	0.05471
3114.13210	0.05470
3112.84633	0.05460
3111.56056	0.05450
3110.27479	0.05456
3108.98902	0.05478
3107.70325	0.05500
3106.41749	0.05503
3105.13172	0.05473
3103.84595	0.05421
3102.56018	0.05370
3101.27441	0.05341
3099.98864	0.05329
3098.70287	0.05324
3097.41710	0.05322
3096.13133	0.05332
3094.84557	0.05356
3093.55980	0.05383
3092.27403	0.05396
3090.98826	0.05387
3089.70249	0.05360
3088.41672	0.05330
3087.13095	0.05315
3085.84518	0.05322
3084.55942	0.05343
3083.27365	0.05360
3081.98788	0.05357
3080.70211	0.05331
3079.41634	0.05294
3078.13057	0.05266
3076.84480	0.05267
3075.55903	0.05293
3074.27326	0.05322
3072.98750	0.05332
3071.70173	0.05318
3070.41596	0.05289
3069.13019	0.05252
3067.84442	0.05216
3066.55865	0.05189
3065.27288	0.05179
3063.98711	0.05188
3062.70135	0.05205
3061.41558	0.05222
3060.12981	0.05231
3058.84404	0.05228
3057.55827	0.05211
3056.27250	0.05186
3054.98673	0.05167
3053.70096	0.05159
3052.41519	0.05153
3051.12943	0.05139
3049.84366	0.05114
3048.55789	0.05087
3047.27212	0.05070
3045.98635	0.05073
3044.70058	0.05090
3043.41481	0.05105
3042.12904	0.05106
3040.84328	0.05087
3039.55751	0.05049
3038.27174	0.04992
3036.98597	0.04928
3035.70020	0.04880
3034.41443	0.04861
3033.12866	0.04861
3031.84289	0.04861
3030.55712	0.04854
3029.27136	0.04849
3027.98559	0.04853
3026.69982	0.04857
3025.41405	0.04848
3024.12828	0.04825
3022.84251	0.04798
3021.55674	0.04771
3020.27097	0.04752
3018.98521	0.04748
3017.69944	0.04763
3016.41367	0.04791
3015.12790	0.04815
3013.84213	0.04816
3012.55636	0.04787
3011.27059	0.04733
3009.98482	0.04676
3008.69905	0.04641
3007.41329	0.04637
3006.12752	0.04652
3004.84175	0.04660
3003.55598	0.04646
3002.27021	0.04615
3000.98444	0.04584
2999.69867	0.04574
2998.41290	0.04577
2997.12714	0.04588
2995.84137	0.04598
2994.55560	0.04605
2993.26983	0.04610
2991.98406	0.04619
2990.69829	0.04636
2989.41252	0.04654
2988.12675	0.04669
2986.84098	0.04683
2985.55522	0.04698
2984.26945	0.04711
2982.98368	0.04716
2981.69791	0.04719
2980.41214	0.04732
2979.12637	0.04757
2977.84060	0.04785
2976.55483	0.04805
2975.26907	0.04817
2973.98330	0.04827
2972.69753	0.04834
2971.41176	0.04833
2970.12599	0.04823
2968.84022	0.04822
2967.55445	0.04849
2966.26868	0.04903
2964.98291	0.04960
2963.69715	0.04991
2962.41138	0.04992
2961.12561	0.04989
2959.83984	0.05009
2958.55407	0.05048
2957.26830	0.05078
2955.98253	0.05083
2954.69676	0.05065
2953.41100	0.05038
2952.12523	0.05018
2950.83946	0.05010
2949.55369	0.05013
2948.26792	0.05013
2946.98215	0.05001
2945.69638	0.04980
2944.41061	0.04961
2943.12484	0.04946
2941.83908	0.04932
2940.55331	0.04922
2939.26754	0.04925
2937.98177	0.04944
2936.69600	0.04963
2935.41023	0.04967
2934.12446	0.04955
2932.83869	0.04940
2931.55293	0.04939
2930.26716	0.04955
2928.98139	0.04978
2927.69562	0.04986
2926.40985	0.04960
2925.12408	0.04904
2923.83831	0.04841
2922.55254	0.04796
2921.26677	0.04776
2919.98101	0.04779
2918.69524	0.04795
2917.40947	0.04811
2916.12370	0.04813
2914.83793	0.04800
2913.55216	0.04782
2912.26639	0.04766
2910.98062	0.04746
2909.69486	0.04716
2908.40909	0.04681
2907.12332	0.04657
2905.83755	0.04651
2904.55178	0.04662
2903.26601	0.04681
2901.98024	0.04694
2900.69447	0.04685
2899.40870	0.04644
2898.12294	0.04580
2896.83717	0.04524
2895.55140	0.04499
2894.26563	0.04495
2892.97986	0.04491
2891.69409	0.04473
2890.40832	0.04449
2889.12255	0.04431
2887.83678	0.04422
2886.55102	0.04416
2885.26525	0.04407
2883.97948	0.04389
2882.69371	0.04370
2881.40794	0.04362
2880.12217	0.04373
2878.83640	0.04387
2877.55063	0.04385
2876.26487	0.04364
2874.97910	0.04344
2873.69333	0.04347
2872.40756	0.04370
2871.12179	0.04393
2869.83602	0.04400
2868.55025	0.04395
2867.26448	0.04387
2865.97871	0.04376
2864.69295	0.04360
2863.40718	0.04340
2862.12141	0.04321
2860.83564	0.04301
2859.54987	0.04274
2858.26410	0.04237
2856.97833	0.04195
2855.69256	0.04153
2854.40680	0.04113
2853.12103	0.04076
2851.83526	0.04039
2850.54949	0.04001
2849.26372	0.03967
2847.97795	0.03949
2846.69218	0.03951
2845.40641	0.03965
2844.12064	0.03972
2842.83488	0.03963
2841.54911	0.03940
2840.26334	0.03910
2838.97757	0.03881
2837.69180	0.03854
2836.40603	0.03826
2835.12026	0.03799
2833.83449	0.03776
2832.54873	0.03765
2831.26296	0.03760
2829.97719	0.03752
2828.69142	0.03734
2827.40565	0.03711
2826.11988	0.03693
2824.83411	0.03685
2823.54834	0.03684
2822.26257	0.03678
2820.97681	0.03663
2819.69104	0.03646
2818.40527	0.03637
2817.11950	0.03637
2815.83373	0.03634
2814.54796	0.03618
2813.26219	0.03589
2811.97642	0.03555
2810.69066	0.03522
2809.40489	0.03495
2808.11912	0.03472
2806.83335	0.03456
2805.54758	0.03445
2804.26181	0.03440
2802.97604	0.03440
2801.69027	0.03451
2800.40450	0.03471
2799.11874	0.03488
2797.83297	0.03483
2796.54720	0.03453
2795.26143	0.03412
2793.97566	0.03383
2792.68989	0.03368
2791.40412	0.03359
2790.11835	0.03355
2788.83259	0.03357
2787.54682	0.03362
2786.26105	0.03353
2784.97528	0.03321
2783.68951	0.03278
2782.40374	0.03248
2781.11797	0.03239
2779.83220	0.03246
2778.54643	0.03251
2777.26067	0.03249
2775.97490	0.03241
2774.68913	0.03238
2773.40336	0.03245
2772.11759	0.03260
2770.83182	0.03278
2769.54605	0.03292
2768.26028	0.03294
2766.97452	0.03283
2765.68875	0.03267
2764.40298	0.03253
2763.11721	0.03237
2761.83144	0.03214
2760.54567	0.03190
2759.25990	0.03181
2757.97413	0.03192
2756.68836	0.03204
2755.40260	0.03200
2754.11683	0.03187
2752.83106	0.03177
2751.54529	0.03172
2750.25952	0.03163
2748.97375	0.03148
2747.68798	0.03138
2746.40221	0.03139
2745.11645	0.03143
2743.83068	0.03143
2742.54491	0.03140
2741.25914	0.03136
2739.97337	0.03133
2738.68760	0.03124
2737.40183	0.03108
2736.11606	0.03084
2734.83029	0.03059
2733.54453	0.03036
2732.25876	0.03014
2730.97299	0.02994
2729.68722	0.02977
2728.40145	0.02967
2727.11568	0.02971
2725.82991	0.02986
2724.54414	0.03003
2723.25838	0.03010
2721.97261	0.03006
2720.68684	0.02997
2719.40107	0.02996
2718.11530	0.03002
2716.82953	0.03006
2715.54376	0.02995
2714.25799	0.02971
2712.97222	0.02948
2711.68646	0.02933
2710.40069	0.02923
2709.11492	0.02906
2707.82915	0.02879
2706.54338	0.02851
2705.25761	0.02837
2703.97184	0.02842
2702.68607	0.02853
2701.40031	0.02856
2700.11454	0.02849
2698.82877	0.02840
2697.54300	0.02842
2696.25723	0.02851
2694.97146	0.02857
2693.68569	0.02851
2692.39992	0.02832
2691.11415	0.02807
2689.82839	0.02787
2688.54262	0.02777
2687.25685	0.02780
2685.97108	0.02792
2684.68531	0.02804
2683.39954	0.02807
2682.11377	0.02800
2680.82800	0.02789
2679.54224	0.02780
2678.25647	0.02775
2676.97070	0.02771
2675.68493	0.02765
2674.39916	0.02754
2673.11339	0.02743
2671.82762	0.02739
2670.54185	0.02746
2669.25608	0.02761
2667.97032	0.02774
2666.68455	0.02782
2665.39878	0.02782
2664.11301	0.02774
2662.82724	0.02754
2661.54147	0.02722
2660.25570	0.02689
2658.96993	0.02666
2657.68417	0.02657
2656.39840	0.02656
2655.11263	0.02656
2653.82686	0.02655
2652.54109	0.02652
2651.25532	0.02643
2649.96955	0.02630
2648.68378	0.02620
2647.39801	0.02615
2646.11225	0.02609
2644.82648	0.02598
2643.54071	0.02583
2642.25494	0.02570
2640.96917	0.02557
2639.68340	0.02540
2638.39763	0.02519
2637.11186	0.02495
2635.82609	0.02465
2634.54033	0.02434
2633.25456	0.02419
2631.96879	0.02426
2630.68302	0.02446
2629.39725	0.02456
2628.11148	0.02449
2626.82571	0.02428
2625.53994	0.02404
2624.25418	0.02384
2622.96841	0.02374
2621.68264	0.02377
2620.39687	0.02388
2619.11110	0.02395
2617.82533	0.02388
2616.53956	0.02368
2615.25379	0.02343
2613.96802	0.02328
2612.68226	0.02326
2611.39649	0.02333
2610.11072	0.02339
2608.82495	0.02343
2607.53918	0.02349
2606.25341	0.02350
2604.96764	0.02339
2603.68187	0.02318
2602.39611	0.02299
2601.11034	0.02294
2599.82457	0.02294
2598.53880	0.02285
2597.25303	0.02261
2595.96726	0.02236
2594.68149	0.02230
2593.39572	0.02252
2592.10995	0.02283
2590.82419	0.02298
2589.53842	0.02287
2588.25265	0.02265
2586.96688	0.02246
2585.68111	0.02231
2584.39534	0.02216
2583.10957	0.02205
2581.82380	0.02203
2580.53804	0.02202
2579.25227	0.02189
2577.96650	0.02163
2576.68073	0.02138
2575.39496	0.02128
2574.10919	0.02136
2572.82342	0.02156
2571.53765	0.02176
2570.25188	0.02189
2568.96612	0.02194
2567.68035	0.02194
2566.39458	0.02190
2565.10881	0.02186
2563.82304	0.02183
2562.53727	0.02187
2561.25150	0.02195
2559.96573	0.02196
2558.67997	0.02178
2557.39420	0.02144
2556.10843	0.02112
2554.82266	0.02091
2553.53689	0.02078
2552.25112	0.02065
2550.96535	0.02056
2549.67958	0.02059
2548.39381	0.02079
2547.10805	0.02110
2545.82228	0.02143
2544.53651	0.02163
2543.25074	0.02163
2541.96497	0.02142
2540.67920	0.02110
2539.39343	0.02077
2538.10766	0.02052
2536.82190	0.02041
2535.53613	0.02049
2534.25036	0.02071
2532.96459	0.02098
2531.67882	0.02119
2530.39305	0.02126
2529.10728	0.02121
2527.82151	0.02107
2526.53574	0.02086
2525.24998	0.02070
2523.96421	0.02063
2522.67844	0.02059
2521.39267	0.02041
2520.10690	0.02002
2518.82113	0.01950
2517.53536	0.01907
2516.24959	0.01892
2514.96383	0.01912
2513.67806	0.01954
2512.39229	0.02000
2511.10652	0.02038
2509.82075	0.02063
2508.53498	0.02078
2507.24921	0.02087
2505.96344	0.02095
2504.67767	0.02096
2503.39191	0.02086
2502.10614	0.02069
2500.82037	0.02053
2499.53460	0.02037
2498.24883	0.02008
2496.96306	0.01955
2495.67729	0.01884
2494.39152	0.01828
2493.10576	0.01824
2491.81999	0.01875
2490.53422	0.01935
2489.24845	0.01951
2487.96268	0.01917
2486.67691	0.01871
2485.39114	0.01846
2484.10537	0.01844
2482.81960	0.01850
2481.53384	0.01868
2480.24807	0.01911
2478.96230	0.01973
2477.67653	0.02026
2476.39076	0.02050
2475.10499	0.02047
2473.81922	0.02033
2472.53345	0.02017
2471.24769	0.02005
2469.96192	0.01999
2468.67615	0.01996
2467.39038	0.01998
2466.10461	0.02015
2464.81884	0.02049
2463.53307	0.02076
2462.24730	0.02067
2460.96153	0.02014
2459.67577	0.01944
2458.39000	0.01892
2457.10423	0.01865
2455.81846	0.01853
2454.53269	0.01849
2453.24692	0.01854
2451.96115	0.01856
2450.67538	0.01831
2449.38962	0.01777
2448.10385	0.01720
2446.81808	0.01690
2445.53231	0.01692
2444.24654	0.01710
2442.96077	0.01726
2441.67500	0.01734
2440.38923	0.01736
2439.10346	0.01745
2437.81770	0.01773
2436.53193	0.01819
2435.24616	0.01864
2433.96039	0.01887
2432.67462	0.01888
2431.38885	0.01886
2430.10308	0.01898
2428.81731	0.01912
2427.53155	0.01901
2426.24578	0.01860
2424.96001	0.01814
2423.67424	0.01791
2422.38847	0.01797
2421.10270	0.01815
2419.81693	0.01823
2418.53116	0.01806
2417.24539	0.01768
2415.95963	0.01737
2414.67386	0.01739
2413.38809	0.01776
2412.10232	0.01821
2410.81655	0.01841
2409.53078	0.01828
2408.24501	0.01801
2406.95924	0.01785
2405.67347	0.01795
2404.38771	0.01828
2403.10194	0.01871
2401.81617	0.01904
2400.53040	0.01912
2399.24463	0.01872
2397.95886	0.01834
2396.67309	0.01791
2395.38732	0.01754
2394.10156	0.01745
2392.81579	0.01762
2391.53002	0.01789
2390.24425	0.01805
2388.95848	0.01806
2387.67271	0.01802
2386.38694	0.01802
2385.10117	0.01808
2383.81540	0.01815
2382.52964	0.01818
2381.24387	0.01818
2379.95810	0.01819
2378.67233	0.01821
2377.38656	0.01823
2376.10079	0.01826
2374.81502	0.01832
2373.52925	0.01837
2372.24349	0.01837
2370.95772	0.01825
2369.67195	0.01807
2368.38618	0.01790
2367.10041	0.01783
2365.81464	0.01783
2364.52887	0.01790
2363.24310	0.01801
2361.95733	0.01813
2360.67157	0.01823
2359.38580	0.01826
2358.10003	0.01822
2356.81426	0.01821
2355.52849	0.01833
2354.24272	0.01850
2352.95695	0.01853
2351.67118	0.01835
2350.38542	0.01810
2349.09965	0.01798
2347.81388	0.01802
2346.52811	0.01804
2345.24234	0.01802
2343.95657	0.01809
2342.67080	0.01822
2341.38503	0.01816
2340.09926	0.01783
2338.81350	0.01756
2337.52773	0.01756
2336.24196	0.01764
2334.95619	0.01774
2333.67042	0.01796
2332.38465	0.01816
2331.09888	0.01800
2329.81311	0.01778
2328.52735	0.01785
2327.24158	0.01793
2325.95581	0.01808
2324.67004	0.01845
2323.38427	0.01859
2322.09850	0.01838
2320.81273	0.01817
2319.52696	0.01791
2318.24119	0.01772
2316.95543	0.01778
2315.66966	0.01783
2314.38389	0.01776
2313.09812	0.01758
2311.81235	0.01724
2310.52658	0.01699
2309.24081	0.01688
2307.95504	0.01681
2306.66928	0.01667
2305.38351	0.01643
2304.09774	0.01627
2302.81197	0.01634
2301.52620	0.01657
2300.24043	0.01681
2298.95466	0.01688
2297.66889	0.01677
2296.38312	0.01657
2295.09736	0.01642
2293.81159	0.01634
2292.52582	0.01621
2291.24005	0.01593
2289.95428	0.01559
2288.66851	0.01537
2287.38274	0.01536
2286.09697	0.01549
2284.81121	0.01563
2283.52544	0.01573
2282.23967	0.01572
2280.95390	0.01556
2279.66813	0.01524
2278.38236	0.01490
2277.09659	0.01466
2275.81082	0.01456
2274.52505	0.01453
2273.23929	0.01451
2271.95352	0.01449
2270.66775	0.01446
2269.38198	0.01441
2268.09621	0.01433
2266.81044	0.01425
2265.52467	0.01418
2264.23890	0.01418
2262.95314	0.01423
2261.66737	0.01431
2260.38160	0.01434
2259.09583	0.01435
2257.81006	0.01440
2256.52429	0.01452
2255.23852	0.01461
2253.95275	0.01452
2252.66698	0.01416
2251.38122	0.01367
2250.09545	0.01322
2248.80968	0.01280
2247.52391	0.01274
2246.23814	0.01288
2244.95237	0.01315
2243.66660	0.01345
2242.38083	0.01361
2241.09507	0.01348
2239.80930	0.01300
2238.52353	0.01229
2237.23776	0.01161
2235.95199	0.01118
2234.66622	0.01102
2233.38045	0.01099
2232.09468	0.01099
2230.80891	0.01095
2229.52315	0.01074
2228.23738	0.01028
2226.95161	0.00985
2225.66584	0.00997
2224.38007	0.01084
2223.09430	0.01199
2221.80853	0.01268
2220.52276	0.01252
2219.23700	0.01170
2217.95123	0.01076
2216.66546	0.01017
2215.37969	0.01012
2214.09392	0.01056
2212.80815	0.01129
2211.52238	0.01185
2210.23661	0.01176
2208.95084	0.01097
2207.66508	0.01009
2206.37931	0.00984
2205.09354	0.01039
2203.80777	0.01137
2202.52200	0.01238
2201.23623	0.01324
2199.95046	0.01380
2198.66469	0.01377
2197.37893	0.01305
2196.09316	0.01203
2194.80739	0.01123
2193.52162	0.01080
2192.23585	0.01047
2190.95008	0.01017
2189.66431	0.01016
2188.37854	0.01056
2187.09277	0.01091
2185.80701	0.01066
2184.52124	0.00984
2183.23547	0.00903
2181.94970	0.00865
2180.66393	0.00848
2179.37816	0.00809
2178.09239	0.00741
2176.80662	0.00682
2175.52085	0.00671
2174.23509	0.00704
2172.94932	0.00752
2171.66355	0.00795
2170.37778	0.00830
2169.09201	0.00849
2167.80624	0.00837
2166.52047	0.00791
2165.23470	0.00720
2163.94894	0.00651
2162.66317	0.00603
2161.37740	0.00577
2160.09163	0.00555
2158.80586	0.00527
2157.52009	0.00496
2156.23432	0.00464
2154.94855	0.00421
2153.66278	0.00394
2152.37702	0.00439
2151.09125	0.00586
2149.80548	0.00778
2148.51971	0.00912
2147.23394	0.00932
2145.94817	0.00876
2144.66240	0.00829
2143.37663	0.00831
2142.09087	0.00855
2140.80510	0.00858
2139.51933	0.00833
2138.23356	0.00814
2136.94779	0.00825
2135.66202	0.00859
2134.37625	0.00894
2133.09048	0.00913
2131.80471	0.00914
2130.51895	0.00912
2129.23318	0.00937
2127.94741	0.01012
2126.66164	0.01118
2125.37587	0.01201
2124.09010	0.01215
2122.80433	0.01169
2121.51856	0.01116
2120.23280	0.01093
2118.94703	0.01090
2117.66126	0.01073
2116.37549	0.01038
2115.08972	0.01008
2113.80395	0.00994
2112.51818	0.00990
2111.23241	0.00986
2109.94664	0.00975
2108.66088	0.00952
2107.37511	0.00913
2106.08934	0.00880
2104.80357	0.00892
2103.51780	0.00952
2102.23203	0.01018
2100.94626	0.01040
2099.66049	0.01002
2098.37473	0.00936
2097.08896	0.00875
2095.80319	0.00829
2094.51742	0.00804
2093.23165	0.00806
2091.94588	0.00825
2090.66011	0.00841
2089.37434	0.00841
2088.08857	0.00825
2086.80281	0.00807
2085.51704	0.00808
2084.23127	0.00842
2082.94550	0.00894
2081.65973	0.00926
2080.37396	0.00908
2079.08819	0.00855
2077.80242	0.00814
2076.51666	0.00812
2075.23089	0.00828
2073.94512	0.00828
2072.65935	0.00812
2071.37358	0.00807
2070.08781	0.00816
2068.80204	0.00816
2067.51627	0.00807
2066.23050	0.00819
2064.94474	0.00867
2063.65897	0.00920
2062.37320	0.00939
2061.08743	0.00913
2059.80166	0.00850
2058.51589	0.00765
2057.23012	0.00679
2055.94435	0.00623
2054.65859	0.00620
2053.37282	0.00659
2052.08705	0.00704
2050.80128	0.00719
2049.51551	0.00690
2048.22974	0.00631
2046.94397	0.00565
2045.65820	0.00507
2044.37243	0.00457
2043.08667	0.00406
2041.80090	0.00346
2040.51513	0.00283
2039.22936	0.00232
2037.94359	0.00210
2036.65782	0.00220
2035.37205	0.00261
2034.08628	0.00337
2032.80052	0.00442
2031.51475	0.00539
2030.22898	0.00578
2028.94321	0.00552
2027.65744	0.00515
2026.37167	0.00530
2025.08590	0.00606
2023.80013	0.00691
2022.51436	0.00714
2021.22860	0.00642
2019.94283	0.00504
2018.65706	0.00367
2017.37129	0.00281
2016.08552	0.00253
2014.79975	0.00253
2013.51398	0.00269
2012.22821	0.00320
2010.94245	0.00424
2009.65668	0.00555
2008.37091	0.00651
2007.08514	0.00677
2005.79937	0.00657
2004.51360	0.00639
2003.22783	0.00638
2001.94206	0.00646
2000.65629	0.00651
1999.37053	0.00650
1998.08476	0.00641
1996.79899	0.00622
1995.51322	0.00604
1994.22745	0.00597
1992.94168	0.00596
1991.65591	0.00594
1990.37014	0.00601
1989.08438	0.00633
1987.79861	0.00688
1986.51284	0.00740
1985.22707	0.00761
1983.94130	0.00750
1982.65553	0.00728
1981.36976	0.00723
1980.08399	0.00743
1978.79822	0.00765
1977.51246	0.00744
1976.22669	0.00670
1974.94092	0.00585
1973.65515	0.00545
1972.36938	0.00563
1971.08361	0.00603
1969.79784	0.00628
1968.51207	0.00635
1967.22631	0.00652
1965.94054	0.00701
1964.65477	0.00775
1963.36900	0.00842
1962.08323	0.00869
1960.79746	0.00855
1959.51169	0.00832
1958.22592	0.00816
1956.94015	0.00779
1955.65439	0.00694
1954.36862	0.00586
1953.08285	0.00522
1951.79708	0.00540
1950.51131	0.00613
1949.22554	0.00686
1947.93977	0.00732
1946.65400	0.00759
1945.36823	0.00784
1944.08247	0.00806
1942.79670	0.00817
1941.51093	0.00817
1940.22516	0.00815
1938.93939	0.00820
1937.65362	0.00830
1936.36785	0.00836
1935.08208	0.00838
1933.79632	0.00843
1932.51055	0.00861
1931.22478	0.00898
1929.93901	0.00951
1928.65324	0.01001
1927.36747	0.01025
1926.08170	0.01016
1924.79593	0.00985
1923.51016	0.00949
1922.22440	0.00916
1920.93863	0.00899
1919.65286	0.00912
1918.36709	0.00951
1917.08132	0.00990
1915.79555	0.01008
1914.50978	0.01004
1913.22401	0.00981
1911.93825	0.00936
1910.65248	0.00874
1909.36671	0.00817
1908.08094	0.00798
1906.79517	0.00821
1905.50940	0.00863
1904.22363	0.00894
1902.93786	0.00896
1901.65209	0.00876
1900.36633	0.00851
1899.08056	0.00843
1897.79479	0.00859
1896.50902	0.00887
1895.22325	0.00904
1893.93748	0.00908
1892.65171	0.00917
1891.36594	0.00936
1890.08018	0.00951
1888.79441	0.00944
1887.50864	0.00922
1886.22287	0.00906
1884.93710	0.00902
1883.65133	0.00895
1882.36556	0.00874
1881.07979	0.00850
1879.79402	0.00842
1878.50826	0.00859
1877.22249	0.00891
1875.93672	0.00915
1874.65095	0.00919
1873.36518	0.00912
1872.07941	0.00912
1870.79364	0.00925
1869.50787	0.00943
1868.22211	0.00953
1866.93634	0.00959
1865.65057	0.00969
1864.36480	0.00983
1863.07903	0.00990
1861.79326	0.00985
1860.50749	0.00977
1859.22172	0.00978
1857.93595	0.00990
1856.65019	0.01004
1855.36442	0.01007
1854.07865	0.00998
1852.79288	0.00977
1851.50711	0.00950
1850.22134	0.00925
1848.93557	0.00912
1847.64980	0.00922
1846.36404	0.00953
1845.07827	0.00989
1843.79250	0.01007
1842.50673	0.01001
1841.22096	0.00978
1839.93519	0.00957
1838.64942	0.00948
1837.36365	0.00952
1836.07788	0.00964
1834.79212	0.00972
1833.50635	0.00969
1832.22058	0.00960
1830.93481	0.00957
1829.64904	0.00959
1828.36327	0.00961
1827.07750	0.00960
1825.79173	0.00959
1824.50597	0.00956
1823.22020	0.00951
1821.93443	0.00944
1820.64866	0.00939
1819.36289	0.00940
1818.07712	0.00948
1816.79135	0.00964
1815.50558	0.00985
1814.21981	0.01006
1812.93405	0.01021
1811.64828	0.01029
1810.36251	0.01033
1809.07674	0.01033
1807.79097	0.01030
1806.50520	0.01023
1805.21943	0.01013
1803.93366	0.01003
1802.64790	0.00998
1801.36213	0.01000
1800.07636	0.01008
1798.79059	0.01017
1797.50482	0.01023
1796.21905	0.01026
1794.93328	0.01027
1793.64751	0.01027
1792.36174	0.01019
1791.07598	0.01002
1789.79021	0.00988
1788.50444	0.00987
1787.21867	0.00996
1785.93290	0.01005
1784.64713	0.01003
1783.36136	0.00995
1782.07559	0.00992
1780.78983	0.00997
1779.50406	0.01002
1778.21829	0.00999
1776.93252	0.00988
1775.64675	0.00978
1774.36098	0.00978
1773.07521	0.00987
1771.78944	0.00993
1770.50367	0.00994
1769.21791	0.01000
1767.93214	0.01016
1766.64637	0.01035
1765.36060	0.01050
1764.07483	0.01059
1762.78906	0.01061
1761.50329	0.01054
1760.21752	0.01042
1758.93176	0.01036
1757.64599	0.01037
1756.36022	0.01041
1755.07445	0.01040
1753.78868	0.01037
1752.50291	0.01034
1751.21714	0.01028
1749.93137	0.01021
1748.64560	0.01020
1747.35984	0.01030
1746.07407	0.01044
1744.78830	0.01054
1743.50253	0.01054
1742.21676	0.01044
1740.93099	0.01030
1739.64522	0.01013
1738.35945	0.00998
1737.07369	0.00995
1735.78792	0.01012
1734.50215	0.01037
1733.21638	0.01052
1731.93061	0.01054
1730.64484	0.01057
1729.35907	0.01067
1728.07330	0.01079
1726.78753	0.01090
1725.50177	0.01101
1724.21600	0.01113
1722.93023	0.01124
1721.64446	0.01132
1720.35869	0.01144
1719.07292	0.01169
1717.78715	0.01205
1716.50138	0.01243
1715.21561	0.01278
1713.92985	0.01310
1712.64408	0.01341
1711.35831	0.01374
1710.07254	0.01411
1708.78677	0.01456
1707.50100	0.01509
1706.21523	0.01566
1704.92946	0.01619
1703.64370	0.01668
1702.35793	0.01729
1701.07216	0.01805
1699.78639	0.01885
1698.50062	0.01971
1697.21485	0.02073
1695.92908	0.02186
1694.64331	0.02289
1693.35754	0.02381
1692.07178	0.02476
1690.78601	0.02575
1689.50024	0.02669
1688.21447	0.02755
1686.92870	0.02847
1685.64293	0.02949
1684.35716	0.03048
1683.07139	0.03132
1681.78563	0.03211
1680.49986	0.03297
1679.21409	0.03389
1677.92832	0.03487
1676.64255	0.03588
1675.35678	0.03684
1674.07101	0.03767
1672.78524	0.03842
1671.49947	0.03922
1670.21371	0.04008
1668.92794	0.04090
1667.64217	0.04163
1666.35640	0.04233
1665.07063	0.04311
1663.78486	0.04396
1662.49909	0.04481
1661.21332	0.04560
1659.92756	0.04627
1658.64179	0.04678
1657.35602	0.04712
1656.07025	0.04748
1654.78448	0.04805
1653.49871	0.04877
1652.21294	0.04936
1650.92717	0.04975
1649.64140	0.05011
1648.35564	0.05058
1647.06987	0.05104
1645.78410	0.05133
1644.49833	0.05147
1643.21256	0.05154
1641.92679	0.05157
1640.64102	0.05151
1639.35525	0.05136
1638.06949	0.05120
1636.78372	0.05109
1635.49795	0.05092
1634.21218	0.05056
1632.92641	0.05002
1631.64064	0.04941
1630.35487	0.04878
1629.06910	0.04814
1627.78333	0.04745
1626.49757	0.04671
1625.21180	0.04596
1623.92603	0.04520
1622.64026	0.04438
1621.35449	0.04348
1620.06872	0.04257
1618.78295	0.04176
1617.49718	0.04103
1616.21142	0.04027
1614.92565	0.03942
1613.63988	0.03859
1612.35411	0.03788
1611.06834	0.03730
1609.78257	0.03681
1608.49680	0.03635
1607.21103	0.03590
1605.92526	0.03546
1604.63950	0.03503
1603.35373	0.03465
1602.06796	0.03428
1600.78219	0.03394
1599.49642	0.03364
1598.21065	0.03343
1596.92488	0.03332
1595.63911	0.03332
1594.35335	0.03338
1593.06758	0.03345
1591.78181	0.03352
1590.49604	0.03357
1589.21027	0.03362
1587.92450	0.03370
1586.63873	0.03385
1585.35296	0.03408
1584.06719	0.03438
1582.78143	0.03469
1581.49566	0.03500
1580.20989	0.03531
1578.92412	0.03571
1577.63835	0.03624
1576.35258	0.03680
1575.06681	0.03725
1573.78104	0.03761
1572.49528	0.03802
1571.20951	0.03854
1569.92374	0.03910
1568.63797	0.03960
1567.35220	0.04006
1566.06643	0.04048
1564.78066	0.04078
1563.49489	0.04096
1562.20912	0.04116
1560.92336	0.04156
1559.63759	0.04212
1558.35182	0.04264
1557.06605	0.04306
1555.78028	0.04349
1554.49451	0.04396
1553.20874	0.04439
1551.92297	0.04474
1550.63721	0.04504
1549.35144	0.04528
1548.06567	0.04548
1546.77990	0.04564
1545.49413	0.04577
1544.20836	0.04584
1542.92259	0.04591
1541.63682	0.04607
1540.35105	0.04631
1539.06529	0.04646
1537.77952	0.04647
1536.49375	0.04645
1535.20798	0.04655
1533.92221	0.04673
1532.63644	0.04686
1531.35067	0.04689
1530.06490	0.04689
1528.77914	0.04690
1527.49337	0.04691
1526.20760	0.04690
1524.92183	0.04689
1523.63606	0.04698
1522.35029	0.04724
1521.06452	0.04757
1519.77875	0.04791
1518.49298	0.04826
1517.20722	0.04865
1515.92145	0.04902
1514.63568	0.04936
1513.34991	0.04966
1512.06414	0.04994
1510.77837	0.05020
1509.49260	0.05051
1508.20683	0.05092
1506.92107	0.05135
1505.63530	0.05166
1504.34953	0.05186
1503.06376	0.05207
1501.77799	0.05237
1500.49222	0.05268
1499.20645	0.05296
1497.92068	0.05319
1496.63491	0.05336
1495.34915	0.05342
1494.06338	0.05341
1492.77761	0.05344
1491.49184	0.05356
1490.20607	0.05375
1488.92030	0.05397
1487.63453	0.05420
1486.34876	0.05446
1485.06299	0.05477
1483.77723	0.05516
1482.49146	0.05563
1481.20569	0.05613
1479.91992	0.05663
1478.63415	0.05716
1477.34838	0.05773
1476.06261	0.05835
1474.77684	0.05899
1473.49108	0.05959
1472.20531	0.06010
1470.91954	0.06046
1469.63377	0.06071
1468.34800	0.06095
1467.06223	0.06126
1465.77646	0.06166
1464.49069	0.06209
1463.20492	0.06248
1461.91916	0.06281
1460.63339	0.06317
1459.34762	0.06370
1458.06185	0.06443
1456.77608	0.06521
1455.49031	0.06590
1454.20454	0.06646
1452.91877	0.06693
1451.63301	0.06733
1450.34724	0.06766
1449.06147	0.06799
1447.77570	0.06833
1446.48993	0.06862
1445.20416	0.06882
1443.91839	0.06887
1442.63262	0.06879
1441.34685	0.06865
1440.06109	0.06854
1438.77532	0.06853
1437.48955	0.06858
1436.20378	0.06858
1434.91801	0.06853
1433.63224	0.06856
1432.34647	0.06878
1431.06070	0.06919
1429.77494	0.06969
1428.48917	0.07023
1427.20340	0.07081
1425.91763	0.07149
1424.63186	0.07224
1423.34609	0.07300
1422.06032	0.07372
1420.77455	0.07443
1419.48878	0.07507
1418.20302	0.07560
1416.91725	0.07605
1415.63148	0.07645
1414.34571	0.07683
1413.05994	0.07716
1411.77417	0.07739
1410.48840	0.07750
1409.20263	0.07746
1407.91687	0.07730
1406.63110	0.07705
1405.34533	0.07672
1404.05956	0.07631
1402.77379	0.07580
1401.48802	0.07521
1400.20225	0.07450
1398.91648	0.07367
1397.63071	0.07278
1396.34495	0.07188
1395.05918	0.07097
1393.77341	0.06994
1392.48764	0.06878
1391.20187	0.06757
1389.91610	0.06640
1388.63033	0.06529
1387.34456	0.06418
1386.05880	0.06300
1384.77303	0.06174
1383.48726	0.06044
1382.20149	0.05912
1380.91572	0.05781
1379.62995	0.05650
1378.34418	0.05517
1377.05841	0.05381
1375.77264	0.05243
1374.48688	0.05107
1373.20111	0.04972
1371.91534	0.04839
1370.62957	0.04708
1369.34380	0.04579
1368.05803	0.04451
1366.77226	0.04326
1365.48649	0.04205
1364.20073	0.04093
1362.91496	0.03988
1361.62919	0.03889
1360.34342	0.03799
1359.05765	0.03717
1357.77188	0.03643
1356.48611	0.03571
1355.20034	0.03499
1353.91457	0.03426
1352.62881	0.03358
1351.34304	0.03297
1350.05727	0.03244
1348.77150	0.03197
1347.48573	0.03155
1346.19996	0.03117
1344.91419	0.03083
1343.62842	0.03052
1342.34266	0.03024
1341.05689	0.02995
1339.77112	0.02965
1338.48535	0.02939
1337.19958	0.02919
1335.91381	0.02899
1334.62804	0.02874
1333.34227	0.02840
1332.05650	0.02800
1330.77074	0.02760
1329.48497	0.02722
1328.19920	0.02687
1326.91343	0.02654
1325.62766	0.02624
1324.34189	0.02598
1323.05612	0.02575
1321.77035	0.02553
1320.48459	0.02529
1319.19882	0.02504
1317.91305	0.02480
1316.62728	0.02460
1315.34151	0.02443
1314.05574	0.02424
1312.76997	0.02399
1311.48420	0.02370
1310.19843	0.02339
1308.91267	0.02309
1307.62690	0.02283
1306.34113	0.02261
1305.05536	0.02243
1303.76959	0.02227
1302.48382	0.02212
1301.19805	0.02196
1299.91228	0.02176
1298.62652	0.02152
1297.34075	0.02128
1296.05498	0.02109
1294.76921	0.02095
1293.48344	0.02084
1292.19767	0.02075
1290.91190	0.02065
1289.62613	0.02058
1288.34036	0.02054
1287.05460	0.02053
1285.76883	0.02053
1284.48306	0.02050
1283.19729	0.02044
1281.91152	0.02036
1280.62575	0.02026
1279.33998	0.02016
1278.05421	0.02006
1276.76845	0.01996
1275.48268	0.01986
1274.19691	0.01978
1272.91114	0.01972
1271.62537	0.01966
1270.33960	0.01960
1269.05383	0.01953
1267.76806	0.01947
1266.48229	0.01943
1265.19653	0.01941
1263.91076	0.01941
1262.62499	0.01943
1261.33922	0.01944
1260.05345	0.01941
1258.76768	0.01931
1257.48191	0.01916
1256.19614	0.01901
1254.91037	0.01891
1253.62461	0.01888
1252.33884	0.01890
1251.05307	0.01895
1249.76730	0.01898
1248.48153	0.01899
1247.19576	0.01899
1245.90999	0.01896
1244.62422	0.01893
1243.33846	0.01891
1242.05269	0.01892
1240.76692	0.01892
1239.48115	0.01887
1238.19538	0.01876
1236.90961	0.01861
1235.62384	0.01848
1234.33807	0.01837
1233.05230	0.01824
1231.76654	0.01805
1230.48077	0.01780
1229.19500	0.01751
1227.90923	0.01724
1226.62346	0.01700
1225.33769	0.01677
1224.05192	0.01655
1222.76615	0.01632
1221.48039	0.01610
1220.19462	0.01591
1218.90885	0.01574
1217.62308	0.01557
1216.33731	0.01539
1215.05154	0.01519
1213.76577	0.01498
1212.48000	0.01480
1211.19423	0.01466
1209.90847	0.01456
1208.62270	0.01451
1207.33693	0.01448
1206.05116	0.01448
1204.76539	0.01448
1203.47962	0.01446
1202.19385	0.01442
1200.90808	0.01437
1199.62232	0.01428
1198.33655	0.01420
1197.05078	0.01410
1195.76501	0.01396
1194.47924	0.01381
1193.19347	0.01369
1191.90770	0.01361
1190.62193	0.01354
1189.33616	0.01342
1188.05040	0.01327
1186.76463	0.01313
1185.47886	0.01302
1184.19309	0.01295
1182.90732	0.01291
1181.62155	0.01288
1180.33578	0.01286
1179.05001	0.01283
1177.76425	0.01274
1176.47848	0.01262
1175.19271	0.01253
1173.90694	0.01254
1172.62117	0.01261
1171.33540	0.01269
1170.04963	0.01271
1168.76386	0.01272
1167.47809	0.01276
1166.19233	0.01283
1164.90656	0.01291
1163.62079	0.01297
1162.33502	0.01303
1161.04925	0.01309
1159.76348	0.01314
1158.47771	0.01316
1157.19194	0.01322
1155.90618	0.01336
1154.62041	0.01358
1153.33464	0.01378
1152.04887	0.01391
1150.76310	0.01396
1149.47733	0.01401
1148.19156	0.01414
1146.90579	0.01435
1145.62002	0.01460
1144.33426	0.01489
1143.04849	0.01523
1141.76272	0.01563
1140.47695	0.01608
1139.19118	0.01657
1137.90541	0.01713
1136.61964	0.01779
1135.33387	0.01854
1134.04811	0.01933
1132.76234	0.02017
1131.47657	0.02111
1130.19080	0.02218
1128.90503	0.02339
1127.61926	0.02472
1126.33349	0.02619
1125.04772	0.02776
1123.76195	0.02944
1122.47619	0.03122
1121.19042	0.03312
1119.90465	0.03509
1118.61888	0.03705
1117.33311	0.03894
1116.04734	0.04076
1114.76157	0.04254
1113.47580	0.04429
1112.19004	0.04599
1110.90427	0.04770
1109.61850	0.04946
1108.33273	0.05125
1107.04696	0.05298
1105.76119	0.05461
1104.47542	0.05621
1103.18965	0.05783
1101.90388	0.05945
1100.61812	0.06101
1099.33235	0.06247
1098.04658	0.06383
1096.76081	0.06509
1095.47504	0.06627
1094.18927	0.06738
1092.90350	0.06845
1091.61773	0.06947
1090.33197	0.07045
1089.04620	0.07141
1087.76043	0.07238
1086.47466	0.07336
1085.18889	0.07433
1083.90312	0.07526
1082.61735	0.07617
1081.33158	0.07712
1080.04581	0.07817
1078.76005	0.07935
1077.47428	0.08064
1076.18851	0.08201
1074.90274	0.08345
1073.61697	0.08491
1072.33120	0.08637
1071.04543	0.08778
1069.75966	0.08916
1068.47390	0.09059
1067.18813	0.09214
1065.90236	0.09379
1064.61659	0.09547
1063.33082	0.09710
1062.04505	0.09870
1060.75928	0.10031
1059.47351	0.10196
1058.18774	0.10363
1056.90198	0.10527
1055.61621	0.10685
1054.33044	0.10836
1053.04467	0.10981
1051.75890	0.11122
1050.47313	0.11265
1049.18736	0.11411
1047.90159	0.11561
1046.61583	0.11712
1045.33006	0.11857
1044.04429	0.11995
1042.75852	0.12130
1041.47275	0.12265
1040.18698	0.12402
1038.90121	0.12543
1037.61544	0.12689
1036.32967	0.12840
1035.04391	0.12997
1033.75814	0.13152
1032.47237	0.13294
1031.18660	0.13414
1029.90083	0.13514
1028.61506	0.13607
1027.32929	0.13701
1026.04352	0.13795
1024.75775	0.13880
1023.47199	0.13943
1022.18622	0.13980
1020.90045	0.13996
1019.61468	0.13998
1018.32891	0.13988
1017.04314	0.13963
1015.75737	0.13918
1014.47160	0.13849
1013.18584	0.13759
1011.90007	0.13657
1010.61430	0.13549
1009.32853	0.13434
1008.04276	0.13304
1006.75699	0.13155
1005.47122	0.12986
1004.18545	0.12804
1002.89968	0.12611
1001.61392	0.12410
1000.32815	0.12200
999.04238	0.11984
997.75661	0.11761
996.47084	0.11531
995.18507	0.11295
993.89930	0.11052
992.61353	0.10803
991.32777	0.10551
990.04200	0.10300
988.75623	0.10056
987.47046	0.09818
986.18469	0.09583
984.89892	0.09346
983.61315	0.09110
982.32738	0.08881
981.04161	0.08664
979.75585	0.08460
978.47008	0.08264
977.18431	0.08073
975.89854	0.07888
974.61277	0.07716
973.32700	0.07567
972.04123	0.07445
970.75546	0.07351
969.46970	0.07281
968.18393	0.07233
966.89816	0.07209
965.61239	0.07209
964.32662	0.07226
963.04085	0.07248
961.75508	0.07263
960.46931	0.07262
959.18354	0.07240
957.89778	0.07193
956.61201	0.07121
955.32624	0.07030
954.04047	0.06927
952.75470	0.06816
951.46893	0.06697
950.18316	0.06572
948.89739	0.06442
947.61163	0.06314
946.32586	0.06188
945.04009	0.06063
943.75432	0.05942
942.46855	0.05829
941.18278	0.05723
939.89701	0.05617
938.61124	0.05503
937.32547	0.05382
936.03971	0.05257
934.75394	0.05139
933.46817	0.05035
932.18240	0.04950
930.89663	0.04880
929.61086	0.04818
928.32509	0.04755
927.03932	0.04690
925.75356	0.04625
924.46779	0.04567
923.18202	0.04517
921.89625	0.04470
920.61048	0.04415
919.32471	0.04349
918.03894	0.04276
916.75317	0.04206
915.46740	0.04142
914.18164	0.04083
912.89587	0.04029
911.61010	0.03984
910.32433	0.03948
909.03856	0.03915
907.75279	0.03872
906.46702	0.03819
905.18125	0.03768
903.89549	0.03731
902.60972	0.03709
901.32395	0.03692
900.03818	0.03669
898.75241	0.03633
897.46664	0.03588
896.18087	0.03543
894.89510	0.03514
893.60933	0.03504
892.32357	0.03504
891.03780	0.03501
889.75203	0.03488
888.46626	0.03475
887.18049	0.03486
885.89472	0.03537
884.60895	0.03636
883.32318	0.03778
882.03742	0.03950
880.75165	0.04127
879.46588	0.04279
878.18011	0.04395
876.89434	0.04488
875.60857	0.04585
874.32280	0.04693
873.03703	0.04798
871.75126	0.04863
870.46550	0.04869
869.17973	0.04820
867.89396	0.04736
866.60819	0.04632
865.32242	0.04511
864.03665	0.04380
862.75088	0.04249
861.46511	0.04131
860.17935	0.04027
858.89358	0.03935
857.60781	0.03851
856.32204	0.03769
855.03627	0.03690
853.75050	0.03618
852.46473	0.03559
851.17896	0.03511
849.89319	0.03469
848.60743	0.03427
847.32166	0.03389
846.03589	0.03359
844.75012	0.03335
843.46435	0.03312
842.17858	0.03283
840.89281	0.03251
839.60704	0.03221
838.32128	0.03193
837.03551	0.03168
835.74974	0.03146
834.46397	0.03130
833.17820	0.03122
831.89243	0.03115
830.60666	0.03106
829.32089	0.03093
828.03512	0.03077
826.74936	0.03058
825.46359	0.03037
824.17782	0.03016
822.89205	0.03001
821.60628	0.02993
820.32051	0.02985
819.03474	0.02972
817.74897	0.02955
816.46321	0.02940
815.17744	0.02932
813.89167	0.02930
812.60590	0.02931
811.32013	0.02930
810.03436	0.02922
808.74859	0.02905
807.46282	0.02884
806.17705	0.02869
804.89129	0.02864
803.60552	0.02867
802.31975	0.02872
801.03398	0.02874
799.74821	0.02870
798.46244	0.02860
797.17667	0.02849
795.89090	0.02844
794.60513	0.02847
793.31937	0.02855
792.03360	0.02859
790.74783	0.02856
789.46206	0.02846
788.17629	0.02837
786.89052	0.02835
785.60475	0.02837
784.31898	0.02840
783.03322	0.02837
781.74745	0.02831
780.46168	0.02820
779.17591	0.02809
777.89014	0.02799
776.60437	0.02797
775.31860	0.02803
774.03283	0.02812
772.74706	0.02817
771.46130	0.02817
770.17553	0.02814
768.88976	0.02810
767.60399	0.02804
766.31822	0.02794
765.03245	0.02783
763.74668	0.02777
762.46091	0.02779
761.17515	0.02785
759.88938	0.02791
758.60361	0.02796
757.31784	0.02800
756.03207	0.02803
754.74630	0.02798
753.46053	0.02787
752.17476	0.02778
750.88899	0.02782
749.60323	0.02798
748.31746	0.02812
747.03169	0.02816
745.74592	0.02807
744.46015	0.02792
743.17438	0.02779
741.88861	0.02775
740.60284	0.02787
739.31708	0.02811
738.03131	0.02835
736.74554	0.02846
735.45977	0.02843
734.17400	0.02832
732.88823	0.02823
731.60246	0.02817
730.31669	0.02810
729.03092	0.02802
727.74516	0.02794
726.45939	0.02795
725.17362	0.02805
723.88785	0.02814
722.60208	0.02833
721.31631	0.02850
720.03054	0.02860
718.74477	0.02867
717.45901	0.02870
716.17324	0.02866
714.88747	0.02858
713.60170	0.02849
712.31593	0.02843
711.03016	0.02841
709.74439	0.02845
708.45862	0.02852
707.17285	0.02858
705.88709	0.02858
704.60132	0.02851
703.31555	0.02842
702.02978	0.02835
700.74401	0.02830
699.45824	0.02824
698.17247	0.02814
696.88670	0.02803
695.60094	0.02795
694.31517	0.02796
693.02940	0.02806
691.74363	0.02818
690.45786	0.02825
689.17209	0.02822
687.88632	0.02813
686.60055	0.02803
685.31478	0.02796
684.02902	0.02793
682.74325	0.02790
681.45748	0.02785
680.17171	0.02775
678.88594	0.02762
677.60017	0.02748
676.31440	0.02739
675.02863	0.02738
673.74287	0.02745
672.45710	0.02754
671.17133	0.02762
669.88556	0.02768
668.59979	0.02773
667.31402	0.02772
666.02825	0.02761
664.74248	0.02745
663.45671	0.02726
662.17095	0.02708
660.88518	0.02694
659.59941	0.02681
658.31364	0.02668
657.02787	0.02654
655.74210	0.02641
654.45633	0.02629
653.17056	0.02620
651.88480	0.02615
650.59903	0.02612
649.31326	0.02610
648.02749	0.02603
646.74172	0.02592
645.45595	0.02584
644.17018	0.02583
642.88441	0.02590
641.59864	0.02597
640.31288	0.02597
639.02711	0.02589
637.74134	0.02578
636.45557	0.02571
635.16980	0.02571
633.88403	0.02573
632.59826	0.02577
631.31249	0.02590
630.02673	0.02616
628.74096	0.02611
627.45519	0.02592
626.16942	0.02527
624.88365	0.02428
623.59788	0.02368
622.31211	0.02438
621.02634	0.02640
619.74057	0.02860
618.45481	0.02999
617.16904	0.03086
615.88327	0.03219
614.59750	0.03446
613.31173	0.03749
612.02596	0.04079
610.74019	0.04410
609.45442	0.04734
608.16866	0.05042
606.88289	0.05330
605.59712	0.05606
604.31135	0.05865
603.02558	0.06074
601.73981	0.06194
600.45404	0.06220
599.16827	0.06171
597.88250	0.06071
596.59674	0.05943
595.31097	0.05807
594.02520	0.05678
592.73943	0.05568
591.45366	0.05481
590.16789	0.05417
588.88212	0.05374
587.59635	0.05353
586.31059	0.05356
585.02482	0.05386
583.73905	0.05449
582.45328	0.05548
581.16751	0.05675
579.88174	0.05822
578.59597	0.05975
577.31020	0.06129
576.02443	0.06275
574.73867	0.06404
573.45290	0.06512
572.16713	0.06603
570.88136	0.06699
569.59559	0.06823
568.30982	0.06986
567.02405	0.07172
565.73828	0.07351
564.45251	0.07499
563.16675	0.07604
561.88098	0.07663
560.59521	0.07677
559.30944	0.07648
558.02367	0.07574
556.73790	0.07446
555.45213	0.07257
554.16636	0.07013
552.88060	0.06740
551.59483	0.06474
550.30906	0.06245
549.02329	0.06053
547.73752	0.05882
546.45175	0.05718
545.16598	0.05557
543.88021	0.05404
542.59444	0.05260
541.30868	0.05122
540.02291	0.04989
538.73714	0.04866
537.45137	0.04761
536.16560	0.04676
534.87983	0.04606
533.59406	0.04537
532.30829	0.04456
531.02253	0.04362
529.73676	0.04259
528.45099	0.04157
527.16522	0.04064
525.87945	0.03988
524.59368	0.03929
523.30791	0.03882
522.02214	0.03839
520.73637	0.03794
519.45061	0.03748
518.16484	0.03699
516.87907	0.03643
515.59330	0.03581
514.30753	0.03514
513.02176	0.03443
511.73599	0.03374
510.45022	0.03317
509.16446	0.03280
507.87869	0.03258
506.59292	0.03237
505.30715	0.03204
504.02138	0.03161
502.73561	0.03117
501.44984	0.03077
500.16407	0.03039
498.87830	0.02998
497.59254	0.02956
496.30677	0.02919
495.02100	0.02890
493.73523	0.02867
492.44946	0.02844
491.16369	0.02821
489.87792	0.02803
488.59215	0.02785
487.30639	0.02757
486.02062	0.02716
484.73485	0.02673
483.44908	0.02645
482.16331	0.02638
480.87754	0.02646
479.59177	0.02660
478.30600	0.02675
477.02023	0.02688
475.73447	0.02697
474.44870	0.02701
473.16293	0.02701
471.87716	0.02696
470.59139	0.02686
469.30562	0.02672
468.01985	0.02657
466.73408	0.02640
465.44832	0.02619
464.16255	0.02593
462.87678	0.02559
461.59101	0.02522
460.30524	0.02488
459.01947	0.02461
457.73370	0.02436
456.44793	0.02409
455.16216	0.02378
453.87640	0.02348
452.59063	0.02320
451.30486	0.02296
450.01909	0.02275
448.73332	0.02255
447.44755	0.02233
446.16178	0.02206
444.87601	0.02178
443.59025	0.02149
442.30448	0.02124
441.01871	0.02103
439.73294	0.02087
438.44717	0.02078
437.16140	0.02078
435.87563	0.02080
434.58986	0.02074
433.30409	0.02056
432.01833	0.02030
430.73256	0.02006
429.44679	0.01989
428.16102	0.01977
426.87525	0.01962
425.58948	0.01943
424.30371	0.01920
423.01794	0.01896
421.73218	0.01871
420.44641	0.01846
419.16064	0.01823
417.87487	0.01806
416.58910	0.01799
415.30333	0.01799
414.01756	0.01797
412.73179	0.01786
411.44602	0.01768
410.16026	0.01750
408.87449	0.01735
407.58872	0.01726
406.30295	0.01719
405.01718	0.01714
403.73141	0.01709
402.44564	0.01705
401.15987	0.01701
399.87411	0.01700
