3997.45528	0.06979
3996.16951	0.06909
3994.88374	0.06855
3993.59798	0.06851
3992.31221	0.06914
3991.02644	0.07007
3989.74067	0.07069
3988.45490	0.07076
3987.16913	0.07060
3985.88336	0.07068
3984.59759	0.07103
3983.31183	0.07127
3982.02606	0.07109
3980.74029	0.07054
3979.45452	0.06987
3978.16875	0.06928
3976.88298	0.06881
3975.59721	0.06845
3974.31144	0.06817
3973.02567	0.06793
3971.73991	0.06769
3970.45414	0.06743
3969.16837	0.06716
3967.88260	0.06688
3966.59683	0.06666
3965.31106	0.06660
3964.02529	0.06669
3962.73952	0.06680
3961.45376	0.06684
3960.16799	0.06686
3958.88222	0.06692
3957.59645	0.06706
3956.31068	0.06722
3955.02491	0.06734
3953.73914	0.06736
3952.45337	0.06721
3951.16760	0.06689
3949.88184	0.06649
3948.59607	0.06618
3947.31030	0.06609
3946.02453	0.06623
3944.73876	0.06637
3943.45299	0.06624
3942.16722	0.06579
3940.88145	0.06528
3939.59569	0.06501
3938.30992	0.06502
3937.02415	0.06519
3935.73838	0.06543
3934.45261	0.06565
3933.16684	0.06574
3931.88107	0.06563
3930.59530	0.06541
3929.30953	0.06517
3928.02377	0.06484
3926.73800	0.06443
3925.45223	0.06416
3924.16646	0.06415
3922.88069	0.06429
3921.59492	0.06432
3920.30915	0.06419
3919.02338	0.06400
3917.73762	0.06384
3916.45185	0.06372
3915.16608	0.06365
3913.88031	0.06363
3912.59454	0.06363
3911.30877	0.06366
3910.02300	0.06382
3908.73723	0.06414
3907.45146	0.06445
3906.16570	0.06456
3904.87993	0.06437
3903.59416	0.06394
3902.30839	0.06341
3901.02262	0.06279
3899.73685	0.06208
3898.45108	0.06134
3897.16531	0.06077
3895.87955	0.06057
3894.59378	0.06070
3893.30801	0.06090
3892.02224	0.06097
3890.73647	0.06096
3889.45070	0.06104
3888.16493	0.06127
3886.87916	0.06149
3885.59339	0.06142
3884.30763	0.06095
3883.02186	0.06027
3881.73609	0.05971
3880.45032	0.05944
3879.16455	0.05942
3877.87878	0.05956
3876.59301	0.05987
3875.30724	0.06031
3874.02148	0.06076
3872.73571	0.06118
3871.44994	0.06156
3870.16417	0.06183
3868.87840	0.06172
3867.59263	0.06107
3866.30686	0.06009
3865.02109	0.05926
3863.73532	0.05887
3862.44956	0.05881
3861.16379	0.05887
3859.87802	0.05904
3858.59225	0.05953
3857.30648	0.06036
3856.02071	0.06123
3854.73494	0.06171
3853.44917	0.06160
3852.16341	0.06114
3850.87764	0.06077
3849.59187	0.06076
3848.30610	0.06104
3847.02033	0.06128
3845.73456	0.06117
3844.44879	0.06065
3843.16302	0.05991
3841.87725	0.05932
3840.59149	0.05911
3839.30572	0.05919
3838.01995	0.05925
3836.73418	0.05907
3835.44841	0.05869
3834.16264	0.05835
3832.87687	0.05814
3831.59110	0.05798
3830.30534	0.05786
3829.01957	0.05800
3827.73380	0.05859
3826.44803	0.05942
3825.16226	0.05996
3823.87649	0.05985
3822.59072	0.05927
3821.30495	0.05872
3820.01918	0.05855
3818.73342	0.05866
3817.44765	0.05872
3816.16188	0.05853
3814.87611	0.05823
3813.59034	0.05805
3812.30457	0.05812
3811.01880	0.05839
3809.73303	0.05877
3808.44726	0.05904
3807.16150	0.05895
3805.87573	0.05841
3804.58996	0.05763
3803.30419	0.05691
3802.01842	0.05644
3800.73265	0.05621
3799.44688	0.05622
3798.16111	0.05654
3796.87535	0.05726
3795.58958	0.05828
3794.30381	0.05928
3793.01804	0.05973
3791.73227	0.05942
3790.44650	0.05867
3789.16073	0.05798
3787.87496	0.05752
3786.58919	0.05713
3785.30343	0.05671
3784.01766	0.05640
3782.73189	0.05643
3781.44612	0.05672
3780.16035	0.05690
3778.87458	0.05662
3777.58881	0.05587
3776.30304	0.05500
3775.01728	0.05444
3773.73151	0.05439
3772.44574	0.05477
3771.15997	0.05535
3769.87420	0.05592
3768.58843	0.05627
3767.30266	0.05620
3766.01689	0.05559
3764.73112	0.05463
3763.44536	0.05382
3762.15959	0.05362
3760.87382	0.05411
3759.58805	0.05497
3758.30228	0.05575
3757.01651	0.05619
3755.73074	0.05630
3754.44497	0.05620
3753.15921	0.05609
3751.87344	0.05615
3750.58767	0.05650
3749.30190	0.05705
3748.01613	0.05767
3746.73036	0.05824
3745.44459	0.05856
3744.15882	0.05831
3742.87305	0.05735
3741.58729	0.05610
3740.30152	0.05524
3739.01575	0.05517
3737.72998	0.05564
3736.44421	0.05610
3735.15844	0.05622
3733.87267	0.05614
3732.58690	0.05618
3731.30114	0.05644
3730.01537	0.05665
3728.72960	0.05640
3727.44383	0.05556
3726.15806	0.05440
3724.87229	0.05334
3723.58652	0.05273
3722.30075	0.05262
3721.01498	0.05276
3719.72922	0.05285
3718.44345	0.05277
3717.15768	0.05270
3715.87191	0.05283
3714.58614	0.05309
3713.30037	0.05324
3712.01460	0.05311
3710.72883	0.05286
3709.44307	0.05274
3708.15730	0.05289
3706.87153	0.05313
3705.58576	0.05318
3704.29999	0.05290
3703.01422	0.05239
3701.72845	0.05190
3700.44268	0.05167
3699.15691	0.05174
3697.87115	0.05196
3696.58538	0.05223
3695.29961	0.05258
3694.01384	0.05296
3692.72807	0.05317
3691.44230	0.05303
3690.15653	0.05257
3688.87076	0.05195
3687.58500	0.05137
3686.29923	0.05107
3685.01346	0.05119
3683.72769	0.05172
3682.44192	0.05253
3681.15615	0.05336
3679.87038	0.05391
3678.58461	0.05399
3677.29884	0.05365
3676.01308	0.05314
3674.72731	0.05264
3673.44154	0.05216
3672.15577	0.05169
3670.87000	0.05123
3669.58423	0.05084
3668.29846	0.05057
3667.01269	0.05045
3665.72693	0.05057
3664.44116	0.05092
3663.15539	0.05126
3661.86962	0.05131
3660.58385	0.05104
3659.29808	0.05079
3658.01231	0.05092
3656.72654	0.05143
3655.44077	0.05208
3654.15501	0.05268
3652.86924	0.05316
3651.58347	0.05346
3650.29770	0.05344
3649.01193	0.05302
3647.72616	0.05233
3646.44039	0.05163
3645.15462	0.05116
3643.86886	0.05103
3642.58309	0.05112
3641.29732	0.05122
3640.01155	0.05120
3638.72578	0.05119
3637.44001	0.05132
3636.15424	0.05152
3634.86847	0.05155
3633.58270	0.05131
3632.29694	0.05099
3631.01117	0.05082
3629.72540	0.05082
3628.43963	0.05087
3627.15386	0.05092
3625.86809	0.05099
3624.58232	0.05110
3623.29655	0.05123
3622.01079	0.05140
3620.72502	0.05160
3619.43925	0.05173
3618.15348	0.05166
3616.86771	0.05137
3615.58194	0.05104
3614.29617	0.05084
3613.01040	0.05076
3611.72463	0.05068
3610.43887	0.05058
3609.15310	0.05048
3607.86733	0.05044
3606.58156	0.05054
3605.29579	0.05082
3604.01002	0.05127
3602.72425	0.05173
3601.43848	0.05196
3600.15272	0.05184
3598.86695	0.05144
3597.58118	0.05100
3596.29541	0.05081
3595.00964	0.05104
3593.72387	0.05155
3592.43810	0.05186
3591.15233	0.05174
3589.86656	0.05153
3588.58080	0.05178
3587.29503	0.05255
3586.00926	0.05327
3584.72349	0.05340
3583.43772	0.05303
3582.15195	0.05271
3580.86618	0.05286
3579.58041	0.05335
3578.29464	0.05371
3577.00888	0.05364
3575.72311	0.05330
3574.43734	0.05309
3573.15157	0.05319
3571.86580	0.05349
3570.58003	0.05377
3569.29426	0.05397
3568.00849	0.05399
3566.72273	0.05373
3565.43696	0.05318
3564.15119	0.05250
3562.86542	0.05189
3561.57965	0.05135
3560.29388	0.05092
3559.00811	0.05086
3557.72234	0.05138
3556.43657	0.05227
3555.15081	0.05292
3553.86504	0.05293
3552.57927	0.05245
3551.29350	0.05197
3550.00773	0.05179
3548.72196	0.05187
3547.43619	0.05206
3546.15042	0.05227
3544.86466	0.05248
3543.57889	0.05267
3542.29312	0.05286
3541.00735	0.05309
3539.72158	0.05340
3538.43581	0.05367
3537.15004	0.05367
3535.86427	0.05333
3534.57850	0.05288
3533.29274	0.05274
3532.00697	0.05305
3530.72120	0.05357
3529.43543	0.05390
3528.14966	0.05386
3526.86389	0.05365
3525.57812	0.05355
3524.29235	0.05364
3523.00659	0.05372
3521.72082	0.05358
3520.43505	0.05328
3519.14928	0.05305
3517.86351	0.05300
3516.57774	0.05306
3515.29197	0.05324
3514.00620	0.05358
3512.72043	0.05409
3511.43467	0.05457
3510.14890	0.05481
3508.86313	0.05483
3507.57736	0.05475
3506.29159	0.05470
3505.00582	0.05474
3503.72005	0.05485
3502.43428	0.05495
3501.14852	0.05493
3499.86275	0.05471
3498.57698	0.05437
3497.29121	0.05407
3496.00544	0.05382
3494.71967	0.05354
3493.43390	0.05326
3492.14813	0.05316
3490.86236	0.05339
3489.57660	0.05387
3488.29083	0.05430
3487.00506	0.05450
3485.71929	0.05456
3484.43352	0.05467
3483.14775	0.05489
3481.86198	0.05508
3480.57621	0.05511
3479.29045	0.05495
3478.00468	0.05464
3476.71891	0.05425
3475.43314	0.05392
3474.14737	0.05375
3472.86160	0.05377
3471.57583	0.05393
3470.29006	0.05422
3469.00429	0.05460
3467.71853	0.05496
3466.43276	0.05517
3465.14699	0.05521
3463.86122	0.05511
3462.57545	0.05492
3461.28968	0.05463
3460.00391	0.05430
3458.71814	0.05398
3457.43238	0.05373
3456.14661	0.05363
3454.86084	0.05376
3453.57507	0.05427
3452.28930	0.05511
3451.00353	0.05594
3449.71776	0.05633
3448.43199	0.05610
3447.14622	0.05548
3445.86046	0.05482
3444.57469	0.05437
3443.28892	0.05420
3442.00315	0.05437
3440.71738	0.05489
3439.43161	0.05559
3438.14584	0.05622
3436.86007	0.05662
3435.57431	0.05681
3434.28854	0.05678
3433.00277	0.05648
3431.71700	0.05596
3430.43123	0.05552
3429.14546	0.05549
3427.85969	0.05586
3426.57392	0.05628
3425.28815	0.05644
3424.00239	0.05636
3422.71662	0.05624
3421.43085	0.05611
3420.14508	0.05582
3418.85931	0.05537
3417.57354	0.05495
3416.28777	0.05473
3415.00200	0.05469
3413.71624	0.05471
3412.43047	0.05473
3411.14470	0.05476
3409.85893	0.05483
3408.57316	0.05501
3407.28739	0.05531
3406.00162	0.05565
3404.71585	0.05585
3403.43008	0.05582
3402.14432	0.05563
3400.85855	0.05550
3399.57278	0.05556
3398.28701	0.05578
3397.00124	0.05606
3395.71547	0.05633
3394.42970	0.05648
3393.14393	0.05639
3391.85817	0.05612
3390.57240	0.05596
3389.28663	0.05618
3388.00086	0.05672
3386.71509	0.05727
3385.42932	0.05762
3384.14355	0.05774
3382.85778	0.05771
3381.57201	0.05759
3380.28625	0.05746
3379.00048	0.05745
3377.71471	0.05753
3376.42894	0.05752
3375.14317	0.05727
3373.85740	0.05688
3372.57163	0.05655
3371.28586	0.05643
3370.00010	0.05648
3368.71433	0.05664
3367.42856	0.05680
3366.14279	0.05684
3364.85702	0.05672
3363.57125	0.05651
3362.28548	0.05634
3360.99971	0.05627
3359.71394	0.05621
3358.42818	0.05611
3357.14241	0.05606
3355.85664	0.05620
3354.57087	0.05658
3353.28510	0.05706
3351.99933	0.05756
3350.71356	0.05812
3349.42779	0.05871
3348.14202	0.05921
3346.85626	0.05944
3345.57049	0.05936
3344.28472	0.05905
3342.99895	0.05861
3341.71318	0.05810
3340.42741	0.05760
3339.14164	0.05725
3337.85587	0.05717
3336.57011	0.05742
3335.28434	0.05792
3333.99857	0.05852
3332.71280	0.05902
3331.42703	0.05925
3330.14126	0.05917
3328.85549	0.05891
3327.56972	0.05874
3326.28395	0.05888
3324.99819	0.05934
3323.71242	0.05991
3322.42665	0.06035
3321.14088	0.06053
3319.85511	0.06047
3318.56934	0.06029
3317.28357	0.06014
3315.99780	0.06014
3314.71204	0.06029
3313.42627	0.06047
3312.14050	0.06050
3310.85473	0.06027
3309.56896	0.05987
3308.28319	0.05950
3306.99742	0.05932
3305.71165	0.05934
3304.42588	0.05947
3303.14012	0.05960
3301.85435	0.05966
3300.56858	0.05963
3299.28281	0.05954
3297.99704	0.05941
3296.71127	0.05924
3295.42550	0.05905
3294.13973	0.05891
3292.85397	0.05882
3291.56820	0.05865
3290.28243	0.05826
3288.99666	0.05771
3287.71089	0.05733
3286.42512	0.05740
3285.13935	0.05797
3283.85358	0.05879
3282.56781	0.05954
3281.28205	0.06001
3279.99628	0.06026
3278.71051	0.06040
3277.42474	0.06047
3276.13897	0.06039
3274.85320	0.06020
3273.56743	0.06011
3272.28166	0.06023
3270.99590	0.06042
3269.71013	0.06041
3268.42436	0.06010
3267.13859	0.05968
3265.85282	0.05942
3264.56705	0.05944
3263.28128	0.05962
3261.99551	0.05973
3260.70974	0.05959
3259.42398	0.05927
3258.13821	0.05895
3256.85244	0.05878
3255.56667	0.05866
3254.28090	0.05844
3252.99513	0.05811
3251.70936	0.05783
3250.42359	0.05774
3249.13783	0.05788
3247.85206	0.05814
3246.56629	0.05841
3245.28052	0.05859
3243.99475	0.05852
3242.70898	0.05809
3241.42321	0.05744
3240.13744	0.05688
3238.85167	0.05674
3237.56591	0.05706
3236.28014	0.05756
3234.99437	0.05791
3233.70860	0.05798
3232.42283	0.05787
3231.13706	0.05777
3229.85129	0.05779
3228.56552	0.05793
3227.27976	0.05810
3225.99399	0.05817
3224.70822	0.05801
3223.42245	0.05765
3222.13668	0.05725
3220.85091	0.05693
3219.56514	0.05666
3218.27937	0.05644
3216.99360	0.05633
3215.70784	0.05644
3214.42207	0.05673
3213.13630	0.05698
3211.85053	0.05700
3210.56476	0.05676
3209.27899	0.05639
3207.99322	0.05606
3206.70745	0.05586
3205.42169	0.05577
3204.13592	0.05572
3202.85015	0.05564
3201.56438	0.05551
3200.27861	0.05531
3198.99284	0.05503
3197.70707	0.05474
3196.42130	0.05455
3195.13553	0.05453
3193.84977	0.05467
3192.56400	0.05483
3191.27823	0.05495
3189.99246	0.05506
3188.70669	0.05520
3187.42092	0.05535
3186.13515	0.05540
3184.84938	0.05534
3183.56362	0.05525
3182.27785	0.05521
3180.99208	0.05518
3179.70631	0.05507
3178.42054	0.05484
3177.13477	0.05455
3175.84900	0.05432
3174.56323	0.05419
3173.27746	0.05419
3171.99170	0.05426
3170.70593	0.05434
3169.42016	0.05435
3168.13439	0.05421
3166.84862	0.05395
3165.56285	0.05363
3164.27708	0.05332
3162.99131	0.05307
3161.70555	0.05286
3160.41978	0.05265
3159.13401	0.05249
3157.84824	0.05243
3156.56247	0.05245
3155.27670	0.05250
3153.99093	0.05253
3152.70516	0.05259
3151.41939	0.05275
3150.13363	0.05300
3148.84786	0.05325
3147.56209	0.05335
3146.27632	0.05327
3144.99055	0.05308
3143.70478	0.05291
3142.41901	0.05286
3141.13324	0.05294
3139.84748	0.05309
3138.56171	0.05318
3137.27594	0.05313
3135.99017	0.05293
3134.70440	0.05267
3133.41863	0.05237
3132.13286	0.05203
3130.84709	0.05163
3129.56132	0.05119
3128.27556	0.05075
3126.98979	0.05041
3125.70402	0.05030
3124.41825	0.05046
3123.13248	0.05079
3121.84671	0.05107
3120.56094	0.05113
3119.27517	0.05103
3117.98940	0.05098
3116.70364	0.05115
3115.41787	0.05152
3114.13210	0.05188
3112.84633	0.05200
3111.56056	0.05185
3110.27479	0.05162
3108.98902	0.05152
3107.70325	0.05155
3106.41749	0.05141
3105.13172	0.05089
3103.84595	0.05015
3102.56018	0.04961
3101.27441	0.04952
3099.98864	0.04979
3098.70287	0.05010
3097.41710	0.05029
3096.13133	0.05033
3094.84557	0.05033
3093.55980	0.05042
3092.27403	0.05063
3090.98826	0.05083
3089.70249	0.05086
3088.41672	0.05062
3087.13095	0.05022
3085.84518	0.04984
3084.55942	0.04960
3083.27365	0.04951
3081.98788	0.04953
3080.70211	0.04958
3079.41634	0.04957
3078.13057	0.04948
3076.84480	0.04937
3075.55903	0.04929
3074.27326	0.04931
3072.98750	0.04943
3071.70173	0.04963
3070.41596	0.04978
3069.13019	0.04971
3067.84442	0.04942
3066.55865	0.04908
3065.27288	0.04890
3063.98711	0.04893
3062.70135	0.04910
3061.41558	0.04931
3060.12981	0.04954
3058.84404	0.04976
3057.55827	0.04992
3056.27250	0.04994
3054.98673	0.04987
3053.70096	0.04982
3052.41519	0.04985
3051.12943	0.04986
3049.84366	0.04968
3048.55789	0.04921
3047.27212	0.04862
3045.98635	0.04820
3044.70058	0.04819
3043.41481	0.04856
3042.12904	0.04906
3040.84328	0.04939
3039.55751	0.04938
3038.27174	0.04910
3036.98597	0.04871
3035.70020	0.04831
3034.41443	0.04786
3033.12866	0.04733
3031.84289	0.04680
3030.55712	0.04644
3029.27136	0.04627
3027.98559	0.04622
3026.69982	0.04616
3025.41405	0.04613
3024.12828	0.04625
3022.84251	0.04657
3021.55674	0.04697
3020.27097	0.04726
3018.98521	0.04731
3017.69944	0.04714
3016.41367	0.04686
3015.12790	0.04660
3013.84213	0.04639
3012.55636	0.04615
3011.27059	0.04581
3009.98482	0.04543
3008.69905	0.04518
3007.41329	0.04520
3006.12752	0.04542
3004.84175	0.04572
3003.55598	0.04598
3002.27021	0.04616
3000.98444	0.04623
2999.69867	0.04615
2998.41290	0.04596
2997.12714	0.04574
2995.84137	0.04557
2994.55560	0.04543
2993.26983	0.04529
2991.98406	0.04513
2990.69829	0.04498
2989.41252	0.04492
2988.12675	0.04498
2986.84098	0.04512
2985.55522	0.04530
2984.26945	0.04545
2982.98368	0.04557
2981.69791	0.04560
2980.41214	0.04551
2979.12637	0.04533
2977.84060	0.04520
2976.55483	0.04529
2975.26907	0.04557
2973.98330	0.04588
2972.69753	0.04603
2971.41176	0.04598
2970.12599	0.04578
2968.84022	0.04554
2967.55445	0.04544
2966.26868	0.04563
2964.98291	0.04608
2963.69715	0.04656
2962.41138	0.04683
2961.12561	0.04689
2959.83984	0.04691
2958.55407	0.04697
2957.26830	0.04706
2955.98253	0.04707
2954.69676	0.04690
2953.41100	0.04657
2952.12523	0.04624
2950.83946	0.04604
2949.55369	0.04600
2948.26792	0.04603
2946.98215	0.04600
2945.69638	0.04592
2944.41061	0.04583
2943.12484	0.04579
2941.83908	0.04577
2940.55331	0.04576
2939.26754	0.04586
2937.98177	0.04611
2936.69600	0.04640
2935.41023	0.04648
2934.12446	0.04624
2932.83869	0.04581
2931.55293	0.04545
2930.26716	0.04531
2928.98139	0.04533
2927.69562	0.04528
2926.40985	0.04503
2925.12408	0.04462
2923.83831	0.04419
2922.55254	0.04381
2921.26677	0.04353
2919.98101	0.04339
2918.69524	0.04345
2917.40947	0.04371
2916.12370	0.04403
2914.83793	0.04423
2913.55216	0.04423
2912.26639	0.04405
2910.98062	0.04378
2909.69486	0.04353
2908.40909	0.04338
2907.12332	0.04333
2905.83755	0.04332
2904.55178	0.04336
2903.26601	0.04356
2901.98024	0.04392
2900.69447	0.04419
2899.40870	0.04406
2898.12294	0.04352
2896.83717	0.04286
2895.55140	0.04245
2894.26563	0.04242
2892.97986	0.04260
2891.69409	0.04277
2890.40832	0.04277
2889.12255	0.04260
2887.83678	0.04241
2886.55102	0.04233
2885.26525	0.04235
2883.97948	0.04238
2882.69371	0.04236
2881.40794	0.04236
2880.12217	0.04244
2878.83640	0.04252
2877.55063	0.04248
2876.26487	0.04231
2874.97910	0.04216
2873.69333	0.04217
2872.40756	0.04235
2871.12179	0.04257
2869.83602	0.04271
2868.55025	0.04274
2867.26448	0.04266
2865.97871	0.04243
2864.69295	0.04208
2863.40718	0.04168
2862.12141	0.04137
2860.83564	0.04124
2859.54987	0.04121
2858.26410	0.04121
2856.97833	0.04114
2855.69256	0.04091
2854.40680	0.04056
2853.12103	0.04021
2851.83526	0.03998
2850.54949	0.03983
2849.26372	0.03967
2847.97795	0.03954
2846.69218	0.03951
2845.40641	0.03954
2844.12064	0.03950
2842.83488	0.03936
2841.54911	0.03926
2840.26334	0.03931
2838.97757	0.03946
2837.69180	0.03954
2836.40603	0.03938
2835.12026	0.03905
2833.83449	0.03880
2832.54873	0.03885
2831.26296	0.03915
2829.97719	0.03946
2828.69142	0.03955
2827.40565	0.03941
2826.11988	0.03920
2824.83411	0.03905
2823.54834	0.03898
2822.26257	0.03892
2820.97681	0.03881
2819.69104	0.03869
2818.40527	0.03862
2817.11950	0.03862
2815.83373	0.03864
2814.54796	0.03865
2813.26219	0.03863
2811.97642	0.03858
2810.69066	0.03845
2809.40489	0.03821
2808.11912	0.03786
2806.83335	0.03750
2805.54758	0.03726
2804.26181	0.03718
2802.97604	0.03724
2801.69027	0.03737
2800.40450	0.03753
2799.11874	0.03760
2797.83297	0.03748
2796.54720	0.03713
2795.26143	0.03673
2793.97566	0.03651
2792.68989	0.03654
2791.40412	0.03673
2790.11835	0.03691
2788.83259	0.03701
2787.54682	0.03702
2786.26105	0.03693
2784.97528	0.03678
2783.68951	0.03663
2782.40374	0.03653
2781.11797	0.03648
2779.83220	0.03643
2778.54643	0.03636
2777.26067	0.03627
2775.97490	0.03616
2774.68913	0.03607
2773.40336	0.03600
2772.11759	0.03596
2770.83182	0.03594
2769.54605	0.03594
2768.26028	0.03593
2766.97452	0.03586
2765.68875	0.03580
2764.40298	0.03580
2763.11721	0.03584
2761.83144	0.03584
2760.54567	0.03577
2759.25990	0.03573
2757.97413	0.03580
2756.68836	0.03589
2755.40260	0.03592
2754.11683	0.03590
2752.83106	0.03589
2751.54529	0.03587
2750.25952	0.03580
2748.97375	0.03574
2747.68798	0.03575
2746.40221	0.03581
2745.11645	0.03578
2743.83068	0.03558
2742.54491	0.03527
2741.25914	0.03503
2739.97337	0.03493
2738.68760	0.03487
2737.40183	0.03478
2736.11606	0.03472
2734.83029	0.03479
2733.54453	0.03492
2732.25876	0.03493
2730.97299	0.03473
2729.68722	0.03446
2728.40145	0.03431
2727.11568	0.03434
2725.82991	0.03444
2724.54414	0.03450
2723.25838	0.03441
2721.97261	0.03421
2720.68684	0.03401
2719.40107	0.03394
2718.11530	0.03402
2716.82953	0.03415
2715.54376	0.03423
2714.25799	0.03422
2712.97222	0.03418
2711.68646	0.03413
2710.40069	0.03404
2709.11492	0.03386
2707.82915	0.03360
2706.54338	0.03331
2705.25761	0.03314
2703.97184	0.03315
2702.68607	0.03331
2701.40031	0.03345
2700.11454	0.03344
2698.82877	0.03331
2697.54300	0.03321
2696.25723	0.03323
2694.97146	0.03335
2693.68569	0.03341
2692.39992	0.03334
2691.11415	0.03323
2689.82839	0.03318
2688.54262	0.03322
2687.25685	0.03328
2685.97108	0.03329
2684.68531	0.03327
2683.39954	0.03322
2682.11377	0.03313
2680.82800	0.03298
2679.54224	0.03278
2678.25647	0.03261
2676.97070	0.03256
2675.68493	0.03262
2674.39916	0.03269
2673.11339	0.03269
2671.82762	0.03262
2670.54185	0.03259
2669.25608	0.03267
2667.97032	0.03283
2666.68455	0.03299
2665.39878	0.03307
2664.11301	0.03306
2662.82724	0.03295
2661.54147	0.03279
2660.25570	0.03265
2658.96993	0.03257
2657.68417	0.03254
2656.39840	0.03249
2655.11263	0.03243
2653.82686	0.03236
2652.54109	0.03229
2651.25532	0.03218
2649.96955	0.03203
2648.68378	0.03188
2647.39801	0.03177
2646.11225	0.03164
2644.82648	0.03144
2643.54071	0.03124
2642.25494	0.03111
2640.96917	0.03107
2639.68340	0.03109
2638.39763	0.03110
2637.11186	0.03105
2635.82609	0.03089
2634.54033	0.03065
2633.25456	0.03047
2631.96879	0.03046
2630.68302	0.03050
2629.39725	0.03044
2628.11148	0.03024
2626.82571	0.02997
2625.53994	0.02971
2624.25418	0.02946
2622.96841	0.02926
2621.68264	0.02917
2620.39687	0.02923
2619.11110	0.02937
2617.82533	0.02953
2616.53956	0.02969
2615.25379	0.02984
2613.96802	0.02992
2612.68226	0.02987
2611.39649	0.02967
2610.11072	0.02939
2608.82495	0.02916
2607.53918	0.02903
2606.25341	0.02894
2604.96764	0.02877
2603.68187	0.02854
2602.39611	0.02840
2601.11034	0.02848
2599.82457	0.02870
2598.53880	0.02885
2597.25303	0.02880
2595.96726	0.02864
2594.68149	0.02850
2593.39572	0.02840
2592.10995	0.02824
2590.82419	0.02802
2589.53842	0.02785
2588.25265	0.02780
2586.96688	0.02777
2585.68111	0.02764
2584.39534	0.02752
2583.10957	0.02760
2581.82380	0.02789
2580.53804	0.02820
2579.25227	0.02834
2577.96650	0.02830
2576.68073	0.02810
2575.39496	0.02773
2574.10919	0.02724
2572.82342	0.02685
2571.53765	0.02672
2570.25188	0.02682
2568.96612	0.02700
2567.68035	0.02720
2566.39458	0.02737
2565.10881	0.02741
2563.82304	0.02724
2562.53727	0.02697
2561.25150	0.02686
2559.96573	0.02694
2558.67997	0.02699
2557.39420	0.02687
2556.10843	0.02670
2554.82266	0.02669
2553.53689	0.02680
2552.25112	0.02683
2550.96535	0.02670
2549.67958	0.02650
2548.39381	0.02642
2547.10805	0.02650
2545.82228	0.02671
2544.53651	0.02692
2543.25074	0.02705
2541.96497	0.02712
2540.67920	0.02711
2539.39343	0.02692
2538.10766	0.02651
2536.82190	0.02597
2535.53613	0.02548
2534.25036	0.02522
2532.96459	0.02525
2531.67882	0.02549
2530.39305	0.02575
2529.10728	0.02579
2527.82151	0.02557
2526.53574	0.02531
2525.24998	0.02525
2523.96421	0.02542
2522.67844	0.02561
2521.39267	0.02558
2520.10690	0.02536
2518.82113	0.02512
2517.53536	0.02501
2516.24959	0.02505
2514.96383	0.02516
2513.67806	0.02528
2512.39229	0.02534
2511.10652	0.02527
2509.82075	0.02511
2508.53498	0.02512
2507.24921	0.02555
2505.96344	0.02631
2504.67767	0.02694
2503.39191	0.02704
2502.10614	0.02664
2500.82037	0.02612
2499.53460	0.02574
2498.24883	0.02552
2496.96306	0.02532
2495.67729	0.02505
2494.39152	0.02477
2493.10576	0.02462
2491.81999	0.02472
2490.53422	0.02496
2489.24845	0.02505
2487.96268	0.02485
2486.67691	0.02449
2485.39114	0.02416
2484.10537	0.02392
2482.81960	0.02379
2481.53384	0.02392
2480.24807	0.02441
2478.96230	0.02507
2477.67653	0.02553
2476.39076	0.02557
2475.10499	0.02528
2473.81922	0.02498
2472.53345	0.02489
2471.24769	0.02501
2469.96192	0.02514
2468.67615	0.02517
2467.39038	0.02517
2466.10461	0.02529
2464.81884	0.02552
2463.53307	0.02564
2462.24730	0.02545
2460.96153	0.02506
2459.67577	0.02468
2458.39000	0.02442
2457.10423	0.02418
2455.81846	0.02385
2454.53269	0.02353
2453.24692	0.02341
2451.96115	0.02351
2450.67538	0.02367
2449.38962	0.02374
2448.10385	0.02374
2446.81808	0.02374
2445.53231	0.02377
2444.24654	0.02384
2442.96077	0.02394
2441.67500	0.02408
2440.38923	0.02420
2439.10346	0.02420
2437.81770	0.02405
2436.53193	0.02379
2435.24616	0.02355
2433.96039	0.02345
2432.67462	0.02359
2431.38885	0.02393
2430.10308	0.02419
2428.81731	0.02400
2427.53155	0.02336
2426.24578	0.02272
2424.96001	0.02250
2423.67424	0.02260
2422.38847	0.02266
2421.10270	0.02258
2419.81693	0.02259
2418.53116	0.02290
2417.24539	0.02332
2415.95963	0.02357
2414.67386	0.02362
2413.38809	0.02364
2412.10232	0.02370
2410.81655	0.02372
2409.53078	0.02357
2408.24501	0.02337
2406.95924	0.02332
2405.67347	0.02359
2404.38771	0.02410
2403.10194	0.02464
2401.81617	0.02494
2400.53040	0.02485
2399.24463	0.02444
2397.95886	0.02389
2396.67309	0.02339
2395.38732	0.02306
2394.10156	0.02294
2392.81579	0.02302
2391.53002	0.02324
2390.24425	0.02353
2388.95848	0.02384
2387.67271	0.02408
2386.38694	0.02421
2385.10117	0.02422
2383.81540	0.02418
2382.52964	0.02415
2381.24387	0.02412
2379.95810	0.02408
2378.67233	0.02397
2377.38656	0.02386
2376.10079	0.02384
2374.81502	0.02390
2373.52925	0.02385
2372.24349	0.02373
2370.95772	0.02364
2369.67195	0.02353
2368.38618	0.02339
2367.10041	0.02322
2365.81464	0.02306
2364.52887	0.02293
2363.24310	0.02289
2361.95733	0.02298
2360.67157	0.02318
2359.38580	0.02337
2358.10003	0.02344
2356.81426	0.02343
2355.52849	0.02352
2354.24272	0.02374
2352.95695	0.02391
2351.67118	0.02379
2350.38542	0.02359
2349.09965	0.02358
2347.81388	0.02369
2346.52811	0.02374
2345.24234	0.02373
2343.95657	0.02373
2342.67080	0.02387
2341.38503	0.02373
2340.09926	0.02342
2338.81350	0.02329
2337.52773	0.02335
2336.24196	0.02326
2334.95619	0.02319
2333.67042	0.02321
2332.38465	0.02332
2331.09888	0.02317
2329.81311	0.02335
2328.52735	0.02371
2327.24158	0.02397
2325.95581	0.02426
2324.67004	0.02443
2323.38427	0.02443
2322.09850	0.02400
2320.81273	0.02344
2319.52696	0.02303
2318.24119	0.02289
2316.95543	0.02293
2315.66966	0.02307
2314.38389	0.02324
2313.09812	0.02330
2311.81235	0.02326
2310.52658	0.02322
2309.24081	0.02320
2307.95504	0.02305
2306.66928	0.02271
2305.38351	0.02228
2304.09774	0.02199
2302.81197	0.02203
2301.52620	0.02236
2300.24043	0.02273
2298.95466	0.02287
2297.66889	0.02259
2296.38312	0.02198
2295.09736	0.02131
2293.81159	0.02082
2292.52582	0.02056
2291.24005	0.02051
2289.95428	0.02059
2288.66851	0.02072
2287.38274	0.02084
2286.09697	0.02099
2284.81121	0.02128
2283.52544	0.02163
2282.23967	0.02180
2280.95390	0.02156
2279.66813	0.02092
2278.38236	0.02011
2277.09659	0.01944
2275.81082	0.01912
2274.52505	0.01918
2273.23929	0.01938
2271.95352	0.01939
2270.66775	0.01904
2269.38198	0.01852
2268.09621	0.01806
2266.81044	0.01772
2265.52467	0.01743
2264.23890	0.01722
2262.95314	0.01728
2261.66737	0.01764
2260.38160	0.01811
2259.09583	0.01842
2257.81006	0.01847
2256.52429	0.01832
2255.23852	0.01805
2253.95275	0.01766
2252.66698	0.01730
2251.38122	0.01721
2250.09545	0.01749
2248.80968	0.01795
2247.52391	0.01825
2246.23814	0.01830
2244.95237	0.01837
2243.66660	0.01865
2242.38083	0.01897
2241.09507	0.01900
2239.80930	0.01858
2238.52353	0.01785
2237.23776	0.01711
2235.95199	0.01671
2234.66622	0.01675
2233.38045	0.01696
2232.09468	0.01683
2230.80891	0.01608
2229.52315	0.01489
2228.23738	0.01376
2226.95161	0.01321
2225.66584	0.01343
2224.38007	0.01425
2223.09430	0.01517
2221.80853	0.01568
2220.52276	0.01557
2219.23700	0.01498
2217.95123	0.01429
2216.66546	0.01393
2215.37969	0.01420
2214.09392	0.01505
2212.80815	0.01608
2211.52238	0.01678
2210.23661	0.01684
2208.95084	0.01637
2207.66508	0.01582
2206.37931	0.01565
2205.09354	0.01595
2203.80777	0.01640
2202.52200	0.01662
2201.23623	0.01656
2199.95046	0.01651
2198.66469	0.01657
2197.37893	0.01656
2196.09316	0.01632
2194.80739	0.01590
2193.52162	0.01539
2192.23585	0.01467
2190.95008	0.01362
2189.66431	0.01251
2188.37854	0.01181
2187.09277	0.01177
2185.80701	0.01223
2184.52124	0.01294
2183.23547	0.01367
2181.94970	0.01418
2180.66393	0.01409
2179.37816	0.01317
2178.09239	0.01176
2176.80662	0.01063
2175.52085	0.01025
2174.23509	0.01029
2172.94932	0.01007
2171.66355	0.00951
2170.37778	0.00918
2169.09201	0.00955
2167.80624	0.01040
2166.52047	0.01100
2165.23470	0.01072
2163.94894	0.00945
2162.66317	0.00759
2161.37740	0.00584
2160.09163	0.00470
2158.80586	0.00427
2157.52009	0.00437
2156.23432	0.00485
2154.94855	0.00560
2153.66278	0.00644
2152.37702	0.00719
2151.09125	0.00787
2149.80548	0.00876
2148.51971	0.01000
2147.23394	0.01128
2145.94817	0.01214
2144.66240	0.01243
2143.37663	0.01234
2142.09087	0.01196
2140.80510	0.01135
2139.51933	0.01083
2138.23356	0.01081
2136.94779	0.01126
2135.66202	0.01174
2134.37625	0.01188
2133.09048	0.01160
2131.80471	0.01110
2130.51895	0.01073
2129.23318	0.01096
2127.94741	0.01195
2126.66164	0.01329
2125.37587	0.01415
2124.09010	0.01412
2122.80433	0.01355
2121.51856	0.01306
2120.23280	0.01292
2118.94703	0.01292
2117.66126	0.01286
2116.37549	0.01283
2115.08972	0.01297
2113.80395	0.01322
2112.51818	0.01340
2111.23241	0.01349
2109.94664	0.01355
2108.66088	0.01363
2107.37511	0.01372
2106.08934	0.01378
2104.80357	0.01383
2103.51780	0.01385
2102.23203	0.01364
2100.94626	0.01304
2099.66049	0.01224
2098.37473	0.01144
2097.08896	0.01090
2095.80319	0.01060
2094.51742	0.01038
2093.23165	0.01019
2091.94588	0.01012
2090.66011	0.01026
2089.37434	0.01054
2088.08857	0.01082
2086.80281	0.01105
2085.51704	0.01137
2084.23127	0.01192
2082.94550	0.01260
2081.65973	0.01296
2080.37396	0.01269
2079.08819	0.01200
2077.80242	0.01140
2076.51666	0.01119
2075.23089	0.01120
2073.94512	0.01114
2072.65935	0.01098
2071.37358	0.01095
2070.08781	0.01120
2068.80204	0.01162
2067.51627	0.01193
2066.23050	0.01197
2064.94474	0.01178
2063.65897	0.01156
2062.37320	0.01148
2061.08743	0.01150
2059.80166	0.01137
2058.51589	0.01081
2057.23012	0.00980
2055.94435	0.00867
2054.65859	0.00792
2053.37282	0.00779
2052.08705	0.00818
2050.80128	0.00867
2049.51551	0.00889
2048.22974	0.00875
2046.94397	0.00839
2045.65820	0.00803
2044.37243	0.00782
2043.08667	0.00767
2041.80090	0.00738
2040.51513	0.00685
2039.22936	0.00624
2037.94359	0.00595
2036.65782	0.00620
2035.37205	0.00681
2034.08628	0.00728
2032.80052	0.00717
2031.51475	0.00645
2030.22898	0.00546
2028.94321	0.00465
2027.65744	0.00449
2026.37167	0.00517
2025.08590	0.00641
2023.80013	0.00749
2022.51436	0.00772
2021.22860	0.00697
2019.94283	0.00574
2018.65706	0.00471
2017.37129	0.00425
2016.08552	0.00434
2014.79975	0.00483
2013.51398	0.00554
2012.22821	0.00617
2010.94245	0.00639
2009.65668	0.00613
2008.37091	0.00571
2007.08514	0.00562
2005.79937	0.00606
2004.51360	0.00672
2003.22783	0.00713
2001.94206	0.00712
2000.65629	0.00695
1999.37053	0.00702
1998.08476	0.00747
1996.79899	0.00826
1995.51322	0.00921
1994.22745	0.01005
1992.94168	0.01035
1991.65591	0.00987
1990.37014	0.00890
1989.08438	0.00814
1987.79861	0.00815
1986.51284	0.00893
1985.22707	0.00996
1983.94130	0.01067
1982.65553	0.01089
1981.36976	0.01086
1980.08399	0.01082
1978.79822	0.01061
1977.51246	0.00987
1976.22669	0.00862
1974.94092	0.00754
1973.65515	0.00740
1972.36938	0.00823
1971.08361	0.00917
1969.79784	0.00943
1968.51207	0.00909
1967.22631	0.00897
1965.94054	0.00965
1964.65477	0.01085
1963.36900	0.01182
1962.08323	0.01201
1960.79746	0.01155
1959.51169	0.01105
1958.22592	0.01096
1956.94015	0.01105
1955.65439	0.01079
1954.36862	0.01000
1953.08285	0.00914
1951.79708	0.00875
1950.51131	0.00894
1949.22554	0.00947
1947.93977	0.01007
1946.65400	0.01060
1945.36823	0.01099
1944.08247	0.01124
1942.79670	0.01143
1941.51093	0.01152
1940.22516	0.01146
1938.93939	0.01129
1937.65362	0.01116
1936.36785	0.01121
1935.08208	0.01144
1933.79632	0.01175
1932.51055	0.01208
1931.22478	0.01241
1929.93901	0.01274
1928.65324	0.01303
1927.36747	0.01323
1926.08170	0.01326
1924.79593	0.01307
1923.51016	0.01261
1922.22440	0.01201
1920.93863	0.01151
1919.65286	0.01136
1918.36709	0.01161
1917.08132	0.01210
1915.79555	0.01262
1914.50978	0.01303
1913.22401	0.01318
1911.93825	0.01301
1910.65248	0.01268
1909.36671	0.01246
1908.08094	0.01246
1906.79517	0.01255
1905.50940	0.01256
1904.22363	0.01243
1902.93786	0.01224
1901.65209	0.01205
1900.36633	0.01194
1899.08056	0.01200
1897.79479	0.01219
1896.50902	0.01233
1895.22325	0.01226
1893.93748	0.01210
1892.65171	0.01209
1891.36594	0.01233
1890.08018	0.01268
1888.79441	0.01296
1887.50864	0.01312
1886.22287	0.01320
1884.93710	0.01318
1883.65133	0.01302
1882.36556	0.01272
1881.07979	0.01243
1879.79402	0.01233
1878.50826	0.01245
1877.22249	0.01269
1875.93672	0.01286
1874.65095	0.01281
1873.36518	0.01254
1872.07941	0.01224
1870.79364	0.01209
1869.50787	0.01214
1868.22211	0.01234
1866.93634	0.01261
1865.65057	0.01286
1864.36480	0.01302
1863.07903	0.01306
1861.79326	0.01304
1860.50749	0.01305
1859.22172	0.01312
1857.93595	0.01322
1856.65019	0.01328
1855.36442	0.01328
1854.07865	0.01326
1852.79288	0.01321
1851.50711	0.01308
1850.22134	0.01288
1848.93557	0.01271
1847.64980	0.01271
1846.36404	0.01289
1845.07827	0.01313
1843.79250	0.01328
1842.50673	0.01324
1841.22096	0.01304
1839.93519	0.01284
1838.64942	0.01280
1837.36365	0.01298
1836.07788	0.01325
1834.79212	0.01343
1833.50635	0.01345
1832.22058	0.01336
1830.93481	0.01329
1829.64904	0.01330
1828.36327	0.01330
1827.07750	0.01323
1825.79173	0.01309
1824.50597	0.01297
1823.22020	0.01291
1821.93443	0.01290
1820.64866	0.01289
1819.36289	0.01284
1818.07712	0.01279
1816.79135	0.01284
1815.50558	0.01301
1814.21981	0.01323
1812.93405	0.01336
1811.64828	0.01335
1810.36251	0.01327
1809.07674	0.01322
1807.79097	0.01324
1806.50520	0.01330
1805.21943	0.01334
1803.93366	0.01331
1802.64790	0.01320
1801.36213	0.01307
1800.07636	0.01301
1798.79059	0.01308
1797.50482	0.01325
1796.21905	0.01343
1794.93328	0.01351
1793.64751	0.01346
1792.36174	0.01333
1791.07598	0.01321
1789.79021	0.01316
1788.50444	0.01318
1787.21867	0.01320
1785.93290	0.01317
1784.64713	0.01308
1783.36136	0.01302
1782.07559	0.01307
1780.78983	0.01320
1779.50406	0.01334
1778.21829	0.01340
1776.93252	0.01334
1775.64675	0.01320
1774.36098	0.01306
1773.07521	0.01297
1771.78944	0.01298
1770.50367	0.01307
1769.21791	0.01323
1767.93214	0.01340
1766.64637	0.01356
1765.36060	0.01369
1764.07483	0.01374
1762.78906	0.01368
1761.50329	0.01351
1760.21752	0.01332
1758.93176	0.01318
1757.64599	0.01313
1756.36022	0.01320
1755.07445	0.01333
1753.78868	0.01347
1752.50291	0.01354
1751.21714	0.01350
1749.93137	0.01341
1748.64560	0.01334
1747.35984	0.01336
1746.07407	0.01342
1744.78830	0.01346
1743.50253	0.01343
1742.21676	0.01333
1740.93099	0.01321
1739.64522	0.01314
1738.35945	0.01316
1737.07369	0.01329
1735.78792	0.01346
1734.50215	0.01359
1733.21638	0.01364
1731.93061	0.01362
1730.64484	0.01358
1729.35907	0.01353
1728.07330	0.01350
1726.78753	0.01350
1725.50177	0.01356
1724.21600	0.01371
1722.93023	0.01392
1721.64446	0.01417
1720.35869	0.01441
1719.07292	0.01463
1717.78715	0.01484
1716.50138	0.01502
1715.21561	0.01519
1713.92985	0.01534
1712.64408	0.01549
1711.35831	0.01566
1710.07254	0.01588
1708.78677	0.01620
1707.50100	0.01660
1706.21523	0.01708
1704.92946	0.01760
1703.64370	0.01817
1702.35793	0.01877
1701.07216	0.01940
1699.78639	0.02007
1698.50062	0.02080
1697.21485	0.02160
1695.92908	0.02246
1694.64331	0.02331
1693.35754	0.02413
1692.07178	0.02494
1690.78601	0.02580
1689.50024	0.02671
1688.21447	0.02767
1686.92870	0.02863
1685.64293	0.02954
1684.35716	0.03034
1683.07139	0.03101
1681.78563	0.03161
1680.49986	0.03223
1679.21409	0.03298
1677.92832	0.03386
1676.64255	0.03480
1675.35678	0.03572
1674.07101	0.03655
1672.78524	0.03729
1671.49947	0.03797
1670.21371	0.03859
1668.92794	0.03918
1667.64217	0.03976
1666.35640	0.04040
1665.07063	0.04111
1663.78486	0.04187
1662.49909	0.04262
1661.21332	0.04332
1659.92756	0.04397
1658.64179	0.04458
1657.35602	0.04518
1656.07025	0.04575
1654.78448	0.04627
1653.49871	0.04669
1652.21294	0.04700
1650.92717	0.04724
1649.64140	0.04748
1648.35564	0.04770
1647.06987	0.04785
1645.78410	0.04789
1644.49833	0.04784
1643.21256	0.04778
1641.92679	0.04774
1640.64102	0.04769
1639.35525	0.04762
1638.06949	0.04751
1636.78372	0.04733
1635.49795	0.04707
1634.21218	0.04666
1632.92641	0.04611
1631.64064	0.04546
1630.35487	0.04474
1629.06910	0.04400
1627.78333	0.04328
1626.49757	0.04261
1625.21180	0.04195
1623.92603	0.04127
1622.64026	0.04056
1621.35449	0.03982
1620.06872	0.03910
1618.78295	0.03840
1617.49718	0.03764
1616.21142	0.03683
1614.92565	0.03602
1613.63988	0.03531
1612.35411	0.03475
1611.06834	0.03429
1609.78257	0.03386
1608.49680	0.03342
1607.21103	0.03298
1605.92526	0.03257
1604.63950	0.03219
1603.35373	0.03184
1602.06796	0.03152
1600.78219	0.03124
1599.49642	0.03103
1598.21065	0.03088
1596.92488	0.03080
1595.63911	0.03078
1594.35335	0.03082
1593.06758	0.03091
1591.78181	0.03103
1590.49604	0.03114
1589.21027	0.03121
1587.92450	0.03127
1586.63873	0.03137
1585.35296	0.03153
1584.06719	0.03176
1582.78143	0.03204
1581.49566	0.03238
1580.20989	0.03277
1578.92412	0.03324
1577.63835	0.03376
1576.35258	0.03430
1575.06681	0.03483
1573.78104	0.03534
1572.49528	0.03584
1571.20951	0.03633
1569.92374	0.03680
1568.63797	0.03724
1567.35220	0.03765
1566.06643	0.03803
1564.78066	0.03836
1563.49489	0.03864
1562.20912	0.03890
1560.92336	0.03919
1559.63759	0.03951
1558.35182	0.03984
1557.06605	0.04017
1555.78028	0.04052
1554.49451	0.04088
1553.20874	0.04122
1551.92297	0.04152
1550.63721	0.04177
1549.35144	0.04200
1548.06567	0.04223
1546.77990	0.04245
1545.49413	0.04265
1544.20836	0.04283
1542.92259	0.04296
1541.63682	0.04302
1540.35105	0.04297
1539.06529	0.04282
1537.77952	0.04261
1536.49375	0.04240
1535.20798	0.04222
1533.92221	0.04203
1532.63644	0.04181
1531.35067	0.04157
1530.06490	0.04133
1528.77914	0.04112
1527.49337	0.04094
1526.20760	0.04076
1524.92183	0.04058
1523.63606	0.04044
1522.35029	0.04034
1521.06452	0.04029
1519.77875	0.04025
1518.49298	0.04022
1517.20722	0.04020
1515.92145	0.04019
1514.63568	0.04019
1513.34991	0.04022
1512.06414	0.04033
1510.77837	0.04053
1509.49260	0.04079
1508.20683	0.04102
1506.92107	0.04115
1505.63530	0.04117
1504.34953	0.04112
1503.06376	0.04107
1501.77799	0.04107
1500.49222	0.04112
1499.20645	0.04121
1497.92068	0.04129
1496.63491	0.04130
1495.34915	0.04120
1494.06338	0.04106
1492.77761	0.04096
1491.49184	0.04098
1490.20607	0.04112
1488.92030	0.04135
1487.63453	0.04160
1486.34876	0.04188
1485.06299	0.04221
1483.77723	0.04263
1482.49146	0.04318
1481.20569	0.04383
1479.91992	0.04455
1478.63415	0.04534
1477.34838	0.04622
1476.06261	0.04719
1474.77684	0.04819
1473.49108	0.04917
1472.20531	0.05006
1470.91954	0.05086
1469.63377	0.05158
1468.34800	0.05227
1467.06223	0.05293
1465.77646	0.05359
1464.49069	0.05422
1463.20492	0.05485
1461.91916	0.05553
1460.63339	0.05635
1459.34762	0.05733
1458.06185	0.05841
1456.77608	0.05948
1455.49031	0.06042
1454.20454	0.06118
1452.91877	0.06174
1451.63301	0.06208
1450.34724	0.06220
1449.06147	0.06216
1447.77570	0.06201
1446.48993	0.06176
1445.20416	0.06138
1443.91839	0.06088
1442.63262	0.06028
1441.34685	0.05963
1440.06109	0.05900
1438.77532	0.05840
1437.48955	0.05783
1436.20378	0.05734
1434.91801	0.05694
1433.63224	0.05669
1432.34647	0.05659
1431.06070	0.05666
1429.77494	0.05688
1428.48917	0.05722
1427.20340	0.05771
1425.91763	0.05834
1424.63186	0.05911
1423.34609	0.06001
1422.06032	0.06098
1420.77455	0.06195
1419.48878	0.06284
1418.20302	0.06356
1416.91725	0.06408
1415.63148	0.06444
1414.34571	0.06471
1413.05994	0.06490
1411.77417	0.06497
1410.48840	0.06487
1409.20263	0.06456
1407.91687	0.06406
1406.63110	0.06339
1405.34533	0.06260
1404.05956	0.06170
1402.77379	0.06069
1401.48802	0.05955
1400.20225	0.05831
1398.91648	0.05700
1397.63071	0.05566
1396.34495	0.05429
1395.05918	0.05288
1393.77341	0.05144
1392.48764	0.05004
1391.20187	0.04872
1389.91610	0.04750
1388.63033	0.04636
1387.34456	0.04528
1386.05880	0.04419
1384.77303	0.04303
1383.48726	0.04183
1382.20149	0.04063
1380.91572	0.03948
1379.62995	0.03842
1378.34418	0.03744
1377.05841	0.03650
1375.77264	0.03556
1374.48688	0.03463
1373.20111	0.03370
1371.91534	0.03283
1370.62957	0.03201
1369.34380	0.03122
1368.05803	0.03044
1366.77226	0.02967
1365.48649	0.02896
1364.20073	0.02832
1362.91496	0.02773
1361.62919	0.02718
1360.34342	0.02667
1359.05765	0.02623
1357.77188	0.02589
1356.48611	0.02562
1355.20034	0.02537
1353.91457	0.02510
1352.62881	0.02481
1351.34304	0.02452
1350.05727	0.02425
1348.77150	0.02405
1347.48573	0.02389
1346.19996	0.02376
1344.91419	0.02364
1343.62842	0.02350
1342.34266	0.02334
1341.05689	0.02318
1339.77112	0.02306
1338.48535	0.02302
1337.19958	0.02305
1335.91381	0.02306
1334.62804	0.02298
1333.34227	0.02279
1332.05650	0.02256
1330.77074	0.02236
1329.48497	0.02219
1328.19920	0.02203
1326.91343	0.02185
1325.62766	0.02167
1324.34189	0.02153
1323.05612	0.02144
1321.77035	0.02136
1320.48459	0.02125
1319.19882	0.02107
1317.91305	0.02086
1316.62728	0.02067
1315.34151	0.02052
1314.05574	0.02039
1312.76997	0.02025
1311.48420	0.02010
1310.19843	0.01997
1308.91267	0.01985
1307.62690	0.01974
1306.34113	0.01962
1305.05536	0.01947
1303.76959	0.01932
1302.48382	0.01919
1301.19805	0.01906
1299.91228	0.01894
1298.62652	0.01882
1297.34075	0.01872
1296.05498	0.01866
1294.76921	0.01860
1293.48344	0.01853
1292.19767	0.01841
1290.91190	0.01828
1289.62613	0.01816
1288.34036	0.01813
1287.05460	0.01818
1285.76883	0.01827
1284.48306	0.01833
1283.19729	0.01831
1281.91152	0.01822
1280.62575	0.01810
1279.33998	0.01798
1278.05421	0.01789
1276.76845	0.01783
1275.48268	0.01778
1274.19691	0.01773
1272.91114	0.01768
1271.62537	0.01763
1270.33960	0.01758
1269.05383	0.01752
1267.76806	0.01748
1266.48229	0.01747
1265.19653	0.01750
1263.91076	0.01757
1262.62499	0.01765
1261.33922	0.01774
1260.05345	0.01779
1258.76768	0.01777
1257.48191	0.01770
1256.19614	0.01760
1254.91037	0.01754
1253.62461	0.01754
1252.33884	0.01757
1251.05307	0.01760
1249.76730	0.01759
1248.48153	0.01755
1247.19576	0.01749
1245.90999	0.01739
1244.62422	0.01728
1243.33846	0.01719
1242.05269	0.01716
1240.76692	0.01716
1239.48115	0.01716
1238.19538	0.01712
1236.90961	0.01705
1235.62384	0.01700
1234.33807	0.01695
1233.05230	0.01688
1231.76654	0.01677
1230.48077	0.01658
1229.19500	0.01633
1227.90923	0.01605
1226.62346	0.01578
1225.33769	0.01554
1224.05192	0.01534
1222.76615	0.01519
1221.48039	0.01508
1220.19462	0.01496
1218.90885	0.01482
1217.62308	0.01465
1216.33731	0.01448
1215.05154	0.01437
1213.76577	0.01433
1212.48000	0.01430
1211.19423	0.01424
1209.90847	0.01416
1208.62270	0.01410
1207.33693	0.01410
1206.05116	0.01412
1204.76539	0.01414
1203.47962	0.01411
1202.19385	0.01404
1200.90808	0.01397
1199.62232	0.01393
1198.33655	0.01393
1197.05078	0.01390
1195.76501	0.01381
1194.47924	0.01367
1193.19347	0.01352
1191.90770	0.01342
1190.62193	0.01335
1189.33616	0.01334
1188.05040	0.01335
1186.76463	0.01338
1185.47886	0.01341
1184.19309	0.01340
1182.90732	0.01333
1181.62155	0.01327
1180.33578	0.01325
1179.05001	0.01330
1177.76425	0.01338
1176.47848	0.01344
1175.19271	0.01350
1173.90694	0.01358
1172.62117	0.01370
1171.33540	0.01384
1170.04963	0.01397
1168.76386	0.01410
1167.47809	0.01429
1166.19233	0.01451
1164.90656	0.01470
1163.62079	0.01482
1162.33502	0.01490
1161.04925	0.01501
1159.76348	0.01518
1158.47771	0.01540
1157.19194	0.01568
1155.90618	0.01600
1154.62041	0.01634
1153.33464	0.01664
1152.04887	0.01688
1150.76310	0.01709
1149.47733	0.01735
1148.19156	0.01772
1146.90579	0.01821
1145.62002	0.01874
1144.33426	0.01928
1143.04849	0.01985
1141.76272	0.02048
1140.47695	0.02115
1139.19118	0.02184
1137.90541	0.02257
1136.61964	0.02336
1135.33387	0.02419
1134.04811	0.02508
1132.76234	0.02608
1131.47657	0.02724
1130.19080	0.02860
1128.90503	0.03010
1127.61926	0.03174
1126.33349	0.03352
1125.04772	0.03545
1123.76195	0.03755
1122.47619	0.03984
1121.19042	0.04232
1119.90465	0.04491
1118.61888	0.04756
1117.33311	0.05021
1116.04734	0.05289
1114.76157	0.05562
1113.47580	0.05843
1112.19004	0.06134
1110.90427	0.06431
1109.61850	0.06733
1108.33273	0.07033
1107.04696	0.07326
1105.76119	0.07610
1104.47542	0.07892
1103.18965	0.08175
1101.90388	0.08459
1100.61812	0.08740
1099.33235	0.09012
1098.04658	0.09274
1096.76081	0.09530
1095.47504	0.09783
1094.18927	0.10033
1092.90350	0.10270
1091.61773	0.10490
1090.33197	0.10690
1089.04620	0.10871
1087.76043	0.11036
1086.47466	0.11186
1085.18889	0.11324
1083.90312	0.11458
1082.61735	0.11594
1081.33158	0.11743
1080.04581	0.11914
1078.76005	0.12108
1077.47428	0.12326
1076.18851	0.12564
1074.90274	0.12821
1073.61697	0.13094
1072.33120	0.13381
1071.04543	0.13674
1069.75966	0.13969
1068.47390	0.14268
1067.18813	0.14578
1065.90236	0.14903
1064.61659	0.15237
1063.33082	0.15574
1062.04505	0.15912
1060.75928	0.16252
1059.47351	0.16590
1058.18774	0.16920
1056.90198	0.17239
1055.61621	0.17550
1054.33044	0.17861
1053.04467	0.18173
1051.75890	0.18482
1050.47313	0.18786
1049.18736	0.19088
1047.90159	0.19396
1046.61583	0.19709
1045.33006	0.20018
1044.04429	0.20317
1042.75852	0.20606
1041.47275	0.20888
1040.18698	0.21164
1038.90121	0.21434
1037.61544	0.21700
1036.32967	0.21971
1035.04391	0.22249
1033.75814	0.22530
1032.47237	0.22798
1031.18660	0.23044
1029.90083	0.23269
1028.61506	0.23477
1027.32929	0.23671
1026.04352	0.23850
1024.75775	0.24008
1023.47199	0.24139
1022.18622	0.24231
1020.90045	0.24278
1019.61468	0.24279
1018.32891	0.24238
1017.04314	0.24149
1015.75737	0.24008
1014.47160	0.23811
1013.18584	0.23569
1011.90007	0.23295
1010.61430	0.22995
1009.32853	0.22662
1008.04276	0.22288
1006.75699	0.21877
1005.47122	0.21441
1004.18545	0.20989
1002.89968	0.20521
1001.61392	0.20032
1000.32815	0.19526
999.04238	0.19014
997.75661	0.18500
996.47084	0.17980
995.18507	0.17453
993.89930	0.16916
992.61353	0.16376
991.32777	0.15841
990.04200	0.15321
988.75623	0.14821
987.47046	0.14337
986.18469	0.13856
984.89892	0.13373
983.61315	0.12892
982.32738	0.12428
981.04161	0.11991
979.75585	0.11586
978.47008	0.11210
977.18431	0.10855
975.89854	0.10515
974.61277	0.10188
973.32700	0.09888
972.04123	0.09632
970.75546	0.09435
969.46970	0.09298
968.18393	0.09223
966.89816	0.09211
965.61239	0.09259
964.32662	0.09351
963.04085	0.09459
961.75508	0.09551
960.46931	0.09598
959.18354	0.09577
957.89778	0.09483
956.61201	0.09328
955.32624	0.09140
954.04047	0.08941
952.75470	0.08737
951.46893	0.08526
950.18316	0.08305
948.89739	0.08083
947.61163	0.07868
946.32586	0.07665
945.04009	0.07467
943.75432	0.07272
942.46855	0.07082
941.18278	0.06899
939.89701	0.06722
938.61124	0.06548
937.32547	0.06383
936.03971	0.06228
934.75394	0.06086
933.46817	0.05955
932.18240	0.05832
930.89663	0.05714
929.61086	0.05600
928.32509	0.05492
927.03932	0.05393
925.75356	0.05302
924.46779	0.05218
923.18202	0.05140
921.89625	0.05068
920.61048	0.04997
919.32471	0.04922
918.03894	0.04842
916.75317	0.04761
915.46740	0.04682
914.18164	0.04607
912.89587	0.04539
911.61010	0.04484
910.32433	0.04445
909.03856	0.04411
907.75279	0.04371
906.46702	0.04322
905.18125	0.04274
903.89549	0.04239
902.60972	0.04219
901.32395	0.04205
900.03818	0.04185
898.75241	0.04151
897.46664	0.04107
896.18087	0.04062
894.89510	0.04024
893.60933	0.04000
892.32357	0.03987
891.03780	0.03978
889.75203	0.03963
888.46626	0.03948
887.18049	0.03948
885.89472	0.03986
884.60895	0.04084
883.32318	0.04252
882.03742	0.04467
880.75165	0.04677
879.46588	0.04831
878.18011	0.04918
876.89434	0.04970
875.60857	0.05029
874.32280	0.05106
873.03703	0.05172
871.75126	0.05188
870.46550	0.05136
869.17973	0.05026
867.89396	0.04888
866.60819	0.04739
865.32242	0.04587
864.03665	0.04432
862.75088	0.04285
861.46511	0.04160
860.17935	0.04061
858.89358	0.03983
857.60781	0.03913
856.32204	0.03845
855.03627	0.03778
853.75050	0.03713
852.46473	0.03653
851.17896	0.03604
849.89319	0.03568
848.60743	0.03541
847.32166	0.03518
846.03589	0.03495
844.75012	0.03467
843.46435	0.03431
842.17858	0.03387
840.89281	0.03344
839.60704	0.03311
838.32128	0.03287
837.03551	0.03266
835.74974	0.03244
834.46397	0.03221
833.17820	0.03200
831.89243	0.03180
830.60666	0.03162
829.32089	0.03144
828.03512	0.03126
826.74936	0.03106
825.46359	0.03087
824.17782	0.03071
822.89205	0.03062
821.60628	0.03055
820.32051	0.03042
819.03474	0.03021
817.74897	0.02996
816.46321	0.02973
815.17744	0.02955
813.89167	0.02942
812.60590	0.02936
811.32013	0.02937
810.03436	0.02942
808.74859	0.02944
807.46282	0.02938
806.17705	0.02925
804.89129	0.02911
803.60552	0.02899
802.31975	0.02889
801.03398	0.02878
799.74821	0.02865
798.46244	0.02851
797.17667	0.02842
795.89090	0.02842
794.60513	0.02853
793.31937	0.02865
792.03360	0.02874
790.74783	0.02875
789.46206	0.02872
788.17629	0.02866
786.89052	0.02859
785.60475	0.02850
784.31898	0.02836
783.03322	0.02817
781.74745	0.02797
780.46168	0.02782
779.17591	0.02777
777.89014	0.02780
776.60437	0.02787
775.31860	0.02793
774.03283	0.02793
772.74706	0.02786
771.46130	0.02775
770.17553	0.02763
768.88976	0.02756
767.60399	0.02756
766.31822	0.02761
765.03245	0.02765
763.74668	0.02763
762.46091	0.02759
761.17515	0.02758
759.88938	0.02763
758.60361	0.02768
757.31784	0.02772
756.03207	0.02768
754.74630	0.02755
753.46053	0.02737
752.17476	0.02726
750.88899	0.02731
749.60323	0.02747
748.31746	0.02760
747.03169	0.02761
745.74592	0.02746
744.46015	0.02719
743.17438	0.02686
741.88861	0.02657
740.60284	0.02643
739.31708	0.02645
738.03131	0.02655
736.74554	0.02661
735.45977	0.02658
734.17400	0.02652
732.88823	0.02651
731.60246	0.02655
730.31669	0.02658
729.03092	0.02659
727.74516	0.02663
726.45939	0.02678
725.17362	0.02701
723.88785	0.02720
722.60208	0.02730
721.31631	0.02728
720.03054	0.02721
718.74477	0.02717
717.45901	0.02721
716.17324	0.02728
714.88747	0.02733
713.60170	0.02730
712.31593	0.02724
711.03016	0.02719
709.74439	0.02718
708.45862	0.02720
707.17285	0.02721
705.88709	0.02721
704.60132	0.02723
703.31555	0.02726
702.02978	0.02731
700.74401	0.02733
699.45824	0.02730
698.17247	0.02723
696.88670	0.02713
695.60094	0.02705
694.31517	0.02704
693.02940	0.02708
691.74363	0.02714
690.45786	0.02714
689.17209	0.02705
687.88632	0.02693
686.60055	0.02688
685.31478	0.02693
684.02902	0.02705
682.74325	0.02716
681.45748	0.02721
680.17171	0.02718
678.88594	0.02709
677.60017	0.02698
676.31440	0.02692
675.02863	0.02696
673.74287	0.02709
672.45710	0.02727
671.17133	0.02746
669.88556	0.02766
668.59979	0.02782
667.31402	0.02792
666.02825	0.02794
664.74248	0.02789
663.45671	0.02782
662.17095	0.02776
660.88518	0.02776
659.59941	0.02780
658.31364	0.02789
657.02787	0.02799
655.74210	0.02807
654.45633	0.02814
653.17056	0.02821
651.88480	0.02834
650.59903	0.02856
649.31326	0.02882
648.02749	0.02910
646.74172	0.02938
645.45595	0.02968
644.17018	0.03007
642.88441	0.03056
641.59864	0.03114
640.31288	0.03173
639.02711	0.03228
637.74134	0.03275
636.45557	0.03317
635.16980	0.03357
633.88403	0.03394
632.59826	0.03429
631.31249	0.03464
630.02673	0.03505
628.74096	0.03543
627.45519	0.03544
626.16942	0.03525
624.88365	0.03482
623.59788	0.03443
622.31211	0.03481
621.02634	0.03634
619.74057	0.03857
618.45481	0.04078
617.16904	0.04286
615.88327	0.04538
614.59750	0.04900
613.31173	0.05381
612.02596	0.05931
610.74019	0.06483
609.45442	0.07003
608.16866	0.07498
606.88289	0.07994
605.59712	0.08502
604.31135	0.08989
603.02558	0.09381
601.73981	0.09606
600.45404	0.09633
599.16827	0.09476
597.88250	0.09176
596.59674	0.08795
595.31097	0.08401
594.02520	0.08050
592.73943	0.07773
591.45366	0.07574
590.16789	0.07445
588.88212	0.07374
587.59635	0.07353
586.31059	0.07383
585.02482	0.07465
583.73905	0.07603
582.45328	0.07802
581.16751	0.08059
579.88174	0.08365
578.59597	0.08702
577.31020	0.09056
576.02443	0.09417
574.73867	0.09778
573.45290	0.10133
572.16713	0.10478
570.88136	0.10817
569.59559	0.11161
568.30982	0.11521
567.02405	0.11897
565.73828	0.12271
564.45251	0.12607
563.16675	0.12857
561.88098	0.12977
560.59521	0.12947
559.30944	0.12766
558.02367	0.12446
556.73790	0.12003
555.45213	0.11460
554.16636	0.10862
552.88060	0.10268
551.59483	0.09717
550.30906	0.09215
549.02329	0.08747
547.73752	0.08301
546.45175	0.07884
545.16598	0.07513
543.88021	0.07194
542.59444	0.06918
541.30868	0.06672
540.02291	0.06446
538.73714	0.06236
537.45137	0.06039
536.16560	0.05854
534.87983	0.05683
533.59406	0.05528
532.30829	0.05388
531.02253	0.05258
529.73676	0.05127
528.45099	0.04990
527.16522	0.04850
525.87945	0.04713
524.59368	0.04585
523.30791	0.04469
522.02214	0.04363
520.73637	0.04266
519.45061	0.04179
518.16484	0.04101
516.87907	0.04026
515.59330	0.03945
514.30753	0.03853
513.02176	0.03753
511.73599	0.03659
510.45022	0.03582
509.16446	0.03522
507.87869	0.03470
506.59292	0.03416
505.30715	0.03353
504.02138	0.03284
502.73561	0.03217
501.44984	0.03164
500.16407	0.03126
498.87830	0.03093
497.59254	0.03052
496.30677	0.03005
495.02100	0.02962
493.73523	0.02932
492.44946	0.02916
491.16369	0.02910
489.87792	0.02906
488.59215	0.02892
487.30639	0.02862
486.02062	0.02820
484.73485	0.02779
483.44908	0.02755
482.16331	0.02753
480.87754	0.02768
479.59177	0.02790
478.30600	0.02811
477.02023	0.02823
475.73447	0.02829
474.44870	0.02834
473.16293	0.02844
471.87716	0.02855
470.59139	0.02862
469.30562	0.02857
468.01985	0.02838
466.73408	0.02809
465.44832	0.02774
464.16255	0.02737
462.87678	0.02696
461.59101	0.02652
460.30524	0.02609
459.01947	0.02570
457.73370	0.02538
456.44793	0.02506
455.16216	0.02468
453.87640	0.02426
452.59063	0.02388
451.30486	0.02359
450.01909	0.02335
448.73332	0.02311
447.44755	0.02287
446.16178	0.02264
444.87601	0.02242
443.59025	0.02223
442.30448	0.02206
441.01871	0.02191
439.73294	0.02175
438.44717	0.02158
437.16140	0.02142
435.87563	0.02127
434.58986	0.02113
433.30409	0.02098
432.01833	0.02084
430.73256	0.02074
429.44679	0.02066
428.16102	0.02059
426.87525	0.02050
425.58948	0.02035
424.30371	0.02013
423.01794	0.01988
421.73218	0.01961
420.44641	0.01939
419.16064	0.01921
417.87487	0.01910
416.58910	0.01901
415.30333	0.01894
414.01756	0.01889
412.73179	0.01887
411.44602	0.01886
410.16026	0.01884
408.87449	0.01880
407.58872	0.01876
406.30295	0.01871
405.01718	0.01865
403.73141	0.01857
402.44564	0.01853
401.15987	0.01858
399.87411	0.01872
