3997.45528	0.04002
3996.16951	0.04026
3994.88374	0.04007
3993.59798	0.03942
3992.31221	0.03854
3991.02644	0.03774
3989.74067	0.03729
3988.45490	0.03724
3987.16913	0.03740
3985.88336	0.03744
3984.59759	0.03714
3983.31183	0.03656
3982.02606	0.03591
3980.74029	0.03544
3979.45452	0.03528
3978.16875	0.03537
3976.88298	0.03550
3975.59721	0.03556
3974.31144	0.03566
3973.02567	0.03595
3971.73991	0.03633
3970.45414	0.03659
3969.16837	0.03662
3967.88260	0.03651
3966.59683	0.03638
3965.31106	0.03622
3964.02529	0.03595
3962.73952	0.03553
3961.45376	0.03517
3960.16799	0.03514
3958.88222	0.03554
3957.59645	0.03624
3956.31068	0.03697
3955.02491	0.03756
3953.73914	0.03796
3952.45337	0.03809
3951.16760	0.03784
3949.88184	0.03730
3948.59607	0.03691
3947.31030	0.03702
3946.02453	0.03751
3944.73876	0.03790
3943.45299	0.03799
3942.16722	0.03786
3940.88145	0.03759
3939.59569	0.03714
3938.30992	0.03668
3937.02415	0.03642
3935.73838	0.03635
3934.45261	0.03634
3933.16684	0.03645
3931.88107	0.03675
3930.59530	0.03693
3929.30953	0.03664
3928.02377	0.03594
3926.73800	0.03528
3925.45223	0.03499
3924.16646	0.03499
3922.88069	0.03495
3921.59492	0.03478
3920.30915	0.03479
3919.02338	0.03516
3917.73762	0.03562
3916.45185	0.03580
3915.16608	0.03550
3913.88031	0.03482
3912.59454	0.03417
3911.30877	0.03385
3910.02300	0.03383
3908.73723	0.03399
3907.45146	0.03419
3906.16570	0.03426
3904.87993	0.03412
3903.59416	0.03383
3902.30839	0.03342
3901.02262	0.03310
3899.73685	0.03325
3898.45108	0.03402
3897.16531	0.03485
3895.87955	0.03498
3894.59378	0.03424
3893.30801	0.03324
3892.02224	0.03295
3890.73647	0.03399
3889.45070	0.03563
3888.16493	0.03629
3886.87916	0.03560
3885.59339	0.03475
3884.30763	0.03448
3883.02186	0.03434
3881.73609	0.03407
3880.45032	0.03434
3879.16455	0.03538
3877.87878	0.03622
3876.59301	0.03597
3875.30724	0.03507
3874.02148	0.03444
3872.73571	0.03408
3871.44994	0.03353
3870.16417	0.03341
3868.87840	0.03446
3867.59263	0.03564
3866.30686	0.03557
3865.02109	0.03455
3863.73532	0.03365
3862.44956	0.03321
3861.16379	0.03315
3859.87802	0.03359
3858.59225	0.03453
3857.30648	0.03520
3856.02071	0.03469
3854.73494	0.03338
3853.44917	0.03299
3852.16341	0.03407
3850.87764	0.03532
3849.59187	0.03574
3848.30610	0.03554
3847.02033	0.03510
3845.73456	0.03449
3844.44879	0.03388
3843.16302	0.03372
3841.87725	0.03410
3840.59149	0.03433
3839.30572	0.03393
3838.01995	0.03344
3836.73418	0.03366
3835.44841	0.03427
3834.16264	0.03442
3832.87687	0.03390
3831.59110	0.03334
3830.30534	0.03325
3829.01957	0.03361
3827.73380	0.03410
3826.44803	0.03453
3825.16226	0.03457
3823.87649	0.03358
3822.59072	0.03181
3821.30495	0.03080
3820.01918	0.03140
3818.73342	0.03245
3817.44765	0.03276
3816.16188	0.03310
3814.87611	0.03431
3813.59034	0.03541
3812.30457	0.03527
3811.01880	0.03422
3809.73303	0.03288
3808.44726	0.03164
3807.16150	0.03146
3805.87573	0.03288
3804.58996	0.03454
3803.30419	0.03478
3802.01842	0.03399
3800.73265	0.03369
3799.44688	0.03377
3798.16111	0.03307
3796.87535	0.03180
3795.58958	0.03107
3794.30381	0.03107
3793.01804	0.03125
3791.73227	0.03134
3790.44650	0.03137
3789.16073	0.03130
3787.87496	0.03109
3786.58919	0.03089
3785.30343	0.03095
3784.01766	0.03123
3782.73189	0.03130
3781.44612	0.03078
3780.16035	0.02996
3778.87458	0.02957
3777.58881	0.02986
3776.30304	0.03044
3775.01728	0.03091
3773.73151	0.03119
3772.44574	0.03132
3771.15997	0.03159
3769.87420	0.03232
3768.58843	0.03317
3767.30266	0.03330
3766.01689	0.03263
3764.73112	0.03197
3763.44536	0.03183
3762.15959	0.03187
3760.87382	0.03182
3759.58805	0.03174
3758.30228	0.03163
3757.01651	0.03147
3755.73074	0.03120
3754.44497	0.03061
3753.15921	0.02984
3751.87344	0.02951
3750.58767	0.03016
3749.30190	0.03191
3748.01613	0.03388
3746.73036	0.03421
3745.44459	0.03281
3744.15882	0.03197
3742.87305	0.03277
3741.58729	0.03370
3740.30152	0.03374
3739.01575	0.03330
3737.72998	0.03288
3736.44421	0.03276
3735.15844	0.03308
3733.87267	0.03336
3732.58690	0.03357
3731.30114	0.03405
3730.01537	0.03450
3728.72960	0.03425
3727.44383	0.03339
3726.15806	0.03285
3724.87229	0.03289
3723.58652	0.03306
3722.30075	0.03333
3721.01498	0.03390
3719.72922	0.03453
3718.44345	0.03484
3717.15768	0.03474
3715.87191	0.03423
3714.58614	0.03318
3713.30037	0.03199
3712.01460	0.03158
3710.72883	0.03206
3709.44307	0.03256
3708.15730	0.03267
3706.87153	0.03244
3705.58576	0.03194
3704.29999	0.03120
3703.01422	0.03054
3701.72845	0.03057
3700.44268	0.03148
3699.15691	0.03268
3697.87115	0.03366
3696.58538	0.03450
3695.29961	0.03519
3694.01384	0.03530
3692.72807	0.03476
3691.44230	0.03362
3690.15653	0.03197
3688.87076	0.03048
3687.58500	0.02988
3686.29923	0.03002
3685.01346	0.03033
3683.72769	0.03078
3682.44192	0.03162
3681.15615	0.03265
3679.87038	0.03329
3678.58461	0.03281
3677.29884	0.03127
3676.01308	0.03016
3674.72731	0.03069
3673.44154	0.03165
3672.15577	0.03102
3670.87000	0.02921
3669.58423	0.02821
3668.29846	0.02849
3667.01269	0.02910
3665.72693	0.02948
3664.44116	0.02975
3663.15539	0.03000
3661.86962	0.03031
3660.58385	0.03069
3659.29808	0.03078
3658.01231	0.03023
3656.72654	0.02952
3655.44077	0.02958
3654.15501	0.03028
3652.86924	0.03054
3651.58347	0.02991
3650.29770	0.02919
3649.01193	0.02920
3647.72616	0.02992
3646.44039	0.03080
3645.15462	0.03150
3643.86886	0.03205
3642.58309	0.03247
3641.29732	0.03256
3640.01155	0.03212
3638.72578	0.03132
3637.44001	0.03070
3636.15424	0.03067
3634.86847	0.03137
3633.58270	0.03264
3632.29694	0.03363
3631.01117	0.03342
3629.72540	0.03251
3628.43963	0.03230
3627.15386	0.03297
3625.86809	0.03345
3624.58232	0.03331
3623.29655	0.03288
3622.01079	0.03240
3620.72502	0.03198
3619.43925	0.03214
3618.15348	0.03298
3616.86771	0.03384
3615.58194	0.03423
3614.29617	0.03433
3613.01040	0.03451
3611.72463	0.03452
3610.43887	0.03405
3609.15310	0.03326
3607.86733	0.03265
3606.58156	0.03224
3605.29579	0.03195
3604.01002	0.03195
3602.72425	0.03242
3601.43848	0.03341
3600.15272	0.03466
3598.86695	0.03564
3597.58118	0.03597
3596.29541	0.03575
3595.00964	0.03518
3593.72387	0.03463
3592.43810	0.03460
3591.15233	0.03490
3589.86656	0.03511
3588.58080	0.03529
3587.29503	0.03555
3586.00926	0.03581
3584.72349	0.03582
3583.43772	0.03542
3582.15195	0.03485
3580.86618	0.03449
3579.58041	0.03454
3578.29464	0.03497
3577.00888	0.03572
3575.72311	0.03674
3574.43734	0.03786
3573.15157	0.03872
3571.86580	0.03896
3570.58003	0.03846
3569.29426	0.03751
3568.00849	0.03669
3566.72273	0.03639
3565.43696	0.03642
3564.15119	0.03630
3562.86542	0.03596
3561.57965	0.03574
3560.29388	0.03587
3559.00811	0.03623
3557.72234	0.03656
3556.43657	0.03679
3555.15081	0.03702
3553.86504	0.03738
3552.57927	0.03784
3551.29350	0.03828
3550.00773	0.03853
3548.72196	0.03849
3547.43619	0.03836
3546.15042	0.03849
3544.86466	0.03901
3543.57889	0.03968
3542.29312	0.04008
3541.00735	0.03991
3539.72158	0.03927
3538.43581	0.03848
3537.15004	0.03786
3535.86427	0.03754
3534.57850	0.03746
3533.29274	0.03759
3532.00697	0.03795
3530.72120	0.03855
3529.43543	0.03930
3528.14966	0.04001
3526.86389	0.04052
3525.57812	0.04085
3524.29235	0.04111
3523.00659	0.04136
3521.72082	0.04143
3520.43505	0.04113
3519.14928	0.04055
3517.86351	0.04003
3516.57774	0.03982
3515.29197	0.03987
3514.00620	0.03999
3512.72043	0.04004
3511.43467	0.03993
3510.14890	0.03963
3508.86313	0.03917
3507.57736	0.03868
3506.29159	0.03835
3505.00582	0.03834
3503.72005	0.03873
3502.43428	0.03939
3501.14852	0.04012
3499.86275	0.04073
3498.57698	0.04113
3497.29121	0.04132
3496.00544	0.04142
3494.71967	0.04161
3493.43390	0.04203
3492.14813	0.04260
3490.86236	0.04305
3489.57660	0.04310
3488.29083	0.04275
3487.00506	0.04226
3485.71929	0.04186
3484.43352	0.04163
3483.14775	0.04158
3481.86198	0.04182
3480.57621	0.04235
3479.29045	0.04301
3478.00468	0.04351
3476.71891	0.04373
3475.43314	0.04366
3474.14737	0.04334
3472.86160	0.04283
3471.57583	0.04226
3470.29006	0.04184
3469.00429	0.04176
3467.71853	0.04199
3466.43276	0.04229
3465.14699	0.04242
3463.86122	0.04233
3462.57545	0.04221
3461.28968	0.04224
3460.00391	0.04246
3458.71814	0.04274
3457.43238	0.04297
3456.14661	0.04311
3454.86084	0.04315
3453.57507	0.04304
3452.28930	0.04275
3451.00353	0.04236
3449.71776	0.04207
3448.43199	0.04214
3447.14622	0.04258
3445.86046	0.04318
3444.57469	0.04361
3443.28892	0.04378
3442.00315	0.04381
3440.71738	0.04382
3439.43161	0.04377
3438.14584	0.04359
3436.86007	0.04332
3435.57431	0.04311
3434.28854	0.04305
3433.00277	0.04309
3431.71700	0.04317
3430.43123	0.04327
3429.14546	0.04341
3427.85969	0.04352
3426.57392	0.04361
3425.28815	0.04372
3424.00239	0.04389
3422.71662	0.04409
3421.43085	0.04434
3420.14508	0.04476
3418.85931	0.04534
3417.57354	0.04586
3416.28777	0.04604
3415.00200	0.04582
3413.71624	0.04539
3412.43047	0.04500
3411.14470	0.04472
3409.85893	0.04454
3408.57316	0.04446
3407.28739	0.04456
3406.00162	0.04500
3404.71585	0.04576
3403.43008	0.04667
3402.14432	0.04742
3400.85855	0.04776
3399.57278	0.04762
3398.28701	0.04714
3397.00124	0.04657
3395.71547	0.04603
3394.42970	0.04548
3393.14393	0.04492
3391.85817	0.04449
3390.57240	0.04443
3389.28663	0.04477
3388.00086	0.04528
3386.71509	0.04569
3385.42932	0.04598
3384.14355	0.04623
3382.85778	0.04643
3381.57201	0.04646
3380.28625	0.04629
3379.00048	0.04608
3377.71471	0.04592
3376.42894	0.04579
3375.14317	0.04567
3373.85740	0.04573
3372.57163	0.04616
3371.28586	0.04693
3370.00010	0.04768
3368.71433	0.04795
3367.42856	0.04758
3366.14279	0.04685
3364.85702	0.04617
3363.57125	0.04570
3362.28548	0.04536
3360.99971	0.04510
3359.71394	0.04499
3358.42818	0.04516
3357.14241	0.04556
3355.85664	0.04601
3354.57087	0.04630
3353.28510	0.04629
3351.99933	0.04609
3350.71356	0.04597
3349.42779	0.04623
3348.14202	0.04687
3346.85626	0.04753
3345.57049	0.04780
3344.28472	0.04760
3342.99895	0.04729
3341.71318	0.04726
3340.42741	0.04753
3339.14164	0.04777
3337.85587	0.04766
3336.57011	0.04725
3335.28434	0.04684
3333.99857	0.04669
3332.71280	0.04684
3331.42703	0.04707
3330.14126	0.04714
3328.85549	0.04694
3327.56972	0.04654
3326.28395	0.04618
3324.99819	0.04600
3323.71242	0.04599
3322.42665	0.04608
3321.14088	0.04629
3319.85511	0.04667
3318.56934	0.04714
3317.28357	0.04742
3315.99780	0.04738
3314.71204	0.04711
3313.42627	0.04688
3312.14050	0.04687
3310.85473	0.04705
3309.56896	0.04736
3308.28319	0.04773
3306.99742	0.04806
3305.71165	0.04822
3304.42588	0.04811
3303.14012	0.04788
3301.85435	0.04778
3300.56858	0.04794
3299.28281	0.04819
3297.99704	0.04820
3296.71127	0.04777
3295.42550	0.04705
3294.13973	0.04639
3292.85397	0.04605
3291.56820	0.04607
3290.28243	0.04636
3288.99666	0.04678
3287.71089	0.04709
3286.42512	0.04704
3285.13935	0.04653
3283.85358	0.04576
3282.56781	0.04516
3281.28205	0.04497
3279.99628	0.04514
3278.71051	0.04546
3277.42474	0.04572
3276.13897	0.04596
3274.85320	0.04630
3273.56743	0.04680
3272.28166	0.04727
3270.99590	0.04745
3269.71013	0.04721
3268.42436	0.04667
3267.13859	0.04609
3265.85282	0.04575
3264.56705	0.04580
3263.28128	0.04618
3261.99551	0.04664
3260.70974	0.04697
3259.42398	0.04710
3258.13821	0.04709
3256.85244	0.04704
3255.56667	0.04700
3254.28090	0.04700
3252.99513	0.04705
3251.70936	0.04718
3250.42359	0.04739
3249.13783	0.04765
3247.85206	0.04780
3246.56629	0.04770
3245.28052	0.04740
3243.99475	0.04709
3242.70898	0.04687
3241.42321	0.04665
3240.13744	0.04624
3238.85167	0.04560
3237.56591	0.04497
3236.28014	0.04464
3234.99437	0.04473
3233.70860	0.04513
3232.42283	0.04564
3231.13706	0.04600
3229.85129	0.04601
3228.56552	0.04567
3227.27976	0.04526
3225.99399	0.04516
3224.70822	0.04540
3223.42245	0.04567
3222.13668	0.04562
3220.85091	0.04523
3219.56514	0.04477
3218.27937	0.04437
3216.99360	0.04399
3215.70784	0.04357
3214.42207	0.04328
3213.13630	0.04330
3211.85053	0.04357
3210.56476	0.04375
3209.27899	0.04356
3207.99322	0.04306
3206.70745	0.04255
3205.42169	0.04227
3204.13592	0.04229
3202.85015	0.04253
3201.56438	0.04293
3200.27861	0.04340
3198.99284	0.04376
3197.70707	0.04382
3196.42130	0.04356
3195.13553	0.04324
3193.84977	0.04315
3192.56400	0.04339
3191.27823	0.04380
3189.99246	0.04407
3188.70669	0.04399
3187.42092	0.04360
3186.13515	0.04317
3184.84938	0.04295
3183.56362	0.04291
3182.27785	0.04285
3180.99208	0.04256
3179.70631	0.04206
3178.42054	0.04150
3177.13477	0.04110
3175.84900	0.04098
3174.56323	0.04111
3173.27746	0.04133
3171.99170	0.04146
3170.70593	0.04139
3169.42016	0.04113
3168.13439	0.04081
3166.84862	0.04059
3165.56285	0.04051
3164.27708	0.04045
3162.99131	0.04028
3161.70555	0.04006
3160.41978	0.03997
3159.13401	0.04015
3157.84824	0.04052
3156.56247	0.04088
3155.27670	0.04107
3153.99093	0.04106
3152.70516	0.04092
3151.41939	0.04079
3150.13363	0.04074
3148.84786	0.04078
3147.56209	0.04089
3146.27632	0.04099
3144.99055	0.04102
3143.70478	0.04095
3142.41901	0.04080
3141.13324	0.04061
3139.84748	0.04041
3138.56171	0.04016
3137.27594	0.03986
3135.99017	0.03959
3134.70440	0.03954
3133.41863	0.03978
3132.13286	0.04014
3130.84709	0.04028
3129.56132	0.04004
3128.27556	0.03961
3126.98979	0.03932
3125.70402	0.03931
3124.41825	0.03943
3123.13248	0.03950
3121.84671	0.03948
3120.56094	0.03947
3119.27517	0.03956
3117.98940	0.03974
3116.70364	0.03996
3115.41787	0.04014
3114.13210	0.04018
3112.84633	0.04010
3111.56056	0.03998
3110.27479	0.03986
3108.98902	0.03968
3107.70325	0.03940
3106.41749	0.03904
3105.13172	0.03873
3103.84595	0.03857
3102.56018	0.03858
3101.27441	0.03867
3099.98864	0.03874
3098.70287	0.03876
3097.41710	0.03873
3096.13133	0.03863
3094.84557	0.03840
3093.55980	0.03803
3092.27403	0.03766
3090.98826	0.03749
3089.70249	0.03766
3088.41672	0.03806
3087.13095	0.03846
3085.84518	0.03864
3084.55942	0.03859
3083.27365	0.03848
3081.98788	0.03851
3080.70211	0.03869
3079.41634	0.03883
3078.13057	0.03867
3076.84480	0.03816
3075.55903	0.03753
3074.27326	0.03712
3072.98750	0.03706
3071.70173	0.03723
3070.41596	0.03736
3069.13019	0.03731
3067.84442	0.03713
3066.55865	0.03696
3065.27288	0.03698
3063.98711	0.03719
3062.70135	0.03746
3061.41558	0.03762
3060.12981	0.03762
3058.84404	0.03753
3057.55827	0.03740
3056.27250	0.03716
3054.98673	0.03678
3053.70096	0.03636
3052.41519	0.03612
3051.12943	0.03610
3049.84366	0.03614
3048.55789	0.03597
3047.27212	0.03558
3045.98635	0.03516
3044.70058	0.03497
3043.41481	0.03504
3042.12904	0.03522
3040.84328	0.03529
3039.55751	0.03526
3038.27174	0.03521
3036.98597	0.03518
3035.70020	0.03517
3034.41443	0.03523
3033.12866	0.03553
3031.84289	0.03601
3030.55712	0.03637
3029.27136	0.03628
3027.98559	0.03582
3026.69982	0.03538
3025.41405	0.03523
3024.12828	0.03526
3022.84251	0.03523
3021.55674	0.03507
3020.27097	0.03489
3018.98521	0.03476
3017.69944	0.03467
3016.41367	0.03459
3015.12790	0.03452
3013.84213	0.03440
3012.55636	0.03421
3011.27059	0.03400
3009.98482	0.03383
3008.69905	0.03370
3007.41329	0.03359
3006.12752	0.03352
3004.84175	0.03352
3003.55598	0.03362
3002.27021	0.03382
3000.98444	0.03408
2999.69867	0.03428
2998.41290	0.03427
2997.12714	0.03397
2995.84137	0.03347
2994.55560	0.03302
2993.26983	0.03290
2991.98406	0.03322
2990.69829	0.03385
2989.41252	0.03447
2988.12675	0.03482
2986.84098	0.03473
2985.55522	0.03425
2984.26945	0.03360
2982.98368	0.03311
2981.69791	0.03300
2980.41214	0.03328
2979.12637	0.03378
2977.84060	0.03435
2976.55483	0.03486
2975.26907	0.03528
2973.98330	0.03564
2972.69753	0.03595
2971.41176	0.03618
2970.12599	0.03631
2968.84022	0.03643
2967.55445	0.03667
2966.26868	0.03700
2964.98291	0.03733
2963.69715	0.03765
2962.41138	0.03811
2961.12561	0.03873
2959.83984	0.03934
2958.55407	0.03977
2957.26830	0.04007
2955.98253	0.04043
2954.69676	0.04094
2953.41100	0.04152
2952.12523	0.04198
2950.83946	0.04216
2949.55369	0.04201
2948.26792	0.04163
2946.98215	0.04120
2945.69638	0.04082
2944.41061	0.04046
2943.12484	0.04014
2941.83908	0.03995
2940.55331	0.04000
2939.26754	0.04027
2937.98177	0.04067
2936.69600	0.04109
2935.41023	0.04153
2934.12446	0.04205
2932.83869	0.04266
2931.55293	0.04325
2930.26716	0.04363
2928.98139	0.04370
2927.69562	0.04356
2926.40985	0.04334
2925.12408	0.04321
2923.83831	0.04328
2922.55254	0.04353
2921.26677	0.04379
2919.98101	0.04380
2918.69524	0.04353
2917.40947	0.04317
2916.12370	0.04299
2914.83793	0.04296
2913.55216	0.04282
2912.26639	0.04241
2910.98062	0.04183
2909.69486	0.04130
2908.40909	0.04092
2907.12332	0.04065
2905.83755	0.04041
2904.55178	0.04024
2903.26601	0.04015
2901.98024	0.04006
2900.69447	0.03989
2899.40870	0.03963
2898.12294	0.03933
2896.83717	0.03905
2895.55140	0.03878
2894.26563	0.03853
2892.97986	0.03835
2891.69409	0.03829
2890.40832	0.03826
2889.12255	0.03809
2887.83678	0.03776
2886.55102	0.03741
2885.26525	0.03718
2883.97948	0.03711
2882.69371	0.03710
2881.40794	0.03704
2880.12217	0.03693
2878.83640	0.03688
2877.55063	0.03702
2876.26487	0.03737
2874.97910	0.03771
2873.69333	0.03777
2872.40756	0.03749
2871.12179	0.03710
2869.83602	0.03690
2868.55025	0.03702
2867.26448	0.03736
2865.97871	0.03777
2864.69295	0.03809
2863.40718	0.03820
2862.12141	0.03808
2860.83564	0.03784
2859.54987	0.03761
2858.26410	0.03742
2856.97833	0.03720
2855.69256	0.03692
2854.40680	0.03666
2853.12103	0.03658
2851.83526	0.03667
2850.54949	0.03673
2849.26372	0.03655
2847.97795	0.03607
2846.69218	0.03546
2845.40641	0.03492
2844.12064	0.03454
2842.83488	0.03425
2841.54911	0.03399
2840.26334	0.03372
2838.97757	0.03340
2837.69180	0.03303
2836.40603	0.03261
2835.12026	0.03222
2833.83449	0.03193
2832.54873	0.03172
2831.26296	0.03159
2829.97719	0.03153
2828.69142	0.03156
2827.40565	0.03161
2826.11988	0.03149
2824.83411	0.03112
2823.54834	0.03065
2822.26257	0.03033
2820.97681	0.03023
2819.69104	0.03021
2818.40527	0.03007
2817.11950	0.02979
2815.83373	0.02949
2814.54796	0.02931
2813.26219	0.02929
2811.97642	0.02941
2810.69066	0.02962
2809.40489	0.02981
2808.11912	0.02992
2806.83335	0.02995
2805.54758	0.02984
2804.26181	0.02960
2802.97604	0.02929
2801.69027	0.02907
2800.40450	0.02900
2799.11874	0.02899
2797.83297	0.02896
2796.54720	0.02891
2795.26143	0.02894
2793.97566	0.02905
2792.68989	0.02913
2791.40412	0.02898
2790.11835	0.02854
2788.83259	0.02796
2787.54682	0.02755
2786.26105	0.02749
2784.97528	0.02770
2783.68951	0.02790
2782.40374	0.02792
2781.11797	0.02786
2779.83220	0.02788
2778.54643	0.02809
2777.26067	0.02841
2775.97490	0.02865
2774.68913	0.02868
2773.40336	0.02851
2772.11759	0.02827
2770.83182	0.02808
2769.54605	0.02795
2768.26028	0.02786
2766.97452	0.02783
2765.68875	0.02786
2764.40298	0.02790
2763.11721	0.02791
2761.83144	0.02783
2760.54567	0.02764
2759.25990	0.02736
2757.97413	0.02712
2756.68836	0.02704
2755.40260	0.02710
2754.11683	0.02714
2752.83106	0.02707
2751.54529	0.02694
2750.25952	0.02686
2748.97375	0.02682
2747.68798	0.02676
2746.40221	0.02670
2745.11645	0.02669
2743.83068	0.02676
2742.54491	0.02692
2741.25914	0.02714
2739.97337	0.02738
2738.68760	0.02758
2737.40183	0.02767
2736.11606	0.02764
2734.83029	0.02750
2733.54453	0.02725
2732.25876	0.02690
2730.97299	0.02656
2729.68722	0.02640
2728.40145	0.02648
2727.11568	0.02670
2725.82991	0.02689
2724.54414	0.02693
2723.25838	0.02689
2721.97261	0.02687
2720.68684	0.02689
2719.40107	0.02692
2718.11530	0.02694
2716.82953	0.02693
2715.54376	0.02684
2714.25799	0.02667
2712.97222	0.02645
2711.68646	0.02631
2710.40069	0.02627
2709.11492	0.02629
2707.82915	0.02628
2706.54338	0.02620
2705.25761	0.02609
2703.97184	0.02598
2702.68607	0.02587
2701.40031	0.02580
2700.11454	0.02583
2698.82877	0.02600
2697.54300	0.02626
2696.25723	0.02646
2694.97146	0.02649
2693.68569	0.02631
2692.39992	0.02603
2691.11415	0.02578
2689.82839	0.02564
2688.54262	0.02558
2687.25685	0.02552
2685.97108	0.02539
2684.68531	0.02521
2683.39954	0.02506
2682.11377	0.02499
2680.82800	0.02501
2679.54224	0.02509
2678.25647	0.02518
2676.97070	0.02520
2675.68493	0.02511
2674.39916	0.02493
2673.11339	0.02472
2671.82762	0.02458
2670.54185	0.02456
2669.25608	0.02463
2667.97032	0.02469
2666.68455	0.02466
2665.39878	0.02458
2664.11301	0.02458
2662.82724	0.02476
2661.54147	0.02508
2660.25570	0.02538
2658.96993	0.02553
2657.68417	0.02547
2656.39840	0.02529
2655.11263	0.02512
2653.82686	0.02508
2652.54109	0.02521
2651.25532	0.02540
2649.96955	0.02549
2648.68378	0.02541
2647.39801	0.02516
2646.11225	0.02479
2644.82648	0.02440
2643.54071	0.02411
2642.25494	0.02399
2640.96917	0.02401
2639.68340	0.02408
2638.39763	0.02415
2637.11186	0.02414
2635.82609	0.02402
2634.54033	0.02383
2633.25456	0.02370
2631.96879	0.02367
2630.68302	0.02366
2629.39725	0.02358
2628.11148	0.02346
2626.82571	0.02337
2625.53994	0.02327
2624.25418	0.02298
2622.96841	0.02241
2621.68264	0.02176
2620.39687	0.02136
2619.11110	0.02131
2617.82533	0.02140
2616.53956	0.02146
2615.25379	0.02153
2613.96802	0.02170
2612.68226	0.02192
2611.39649	0.02206
2610.11072	0.02206
2608.82495	0.02204
2607.53918	0.02213
2606.25341	0.02232
2604.96764	0.02247
2603.68187	0.02244
2602.39611	0.02228
2601.11034	0.02210
2599.82457	0.02198
2598.53880	0.02193
2597.25303	0.02191
2595.96726	0.02194
2594.68149	0.02197
2593.39572	0.02195
2592.10995	0.02189
2590.82419	0.02185
2589.53842	0.02185
2588.25265	0.02181
2586.96688	0.02168
2585.68111	0.02152
2584.39534	0.02147
2583.10957	0.02166
2581.82380	0.02200
2580.53804	0.02218
2579.25227	0.02197
2577.96650	0.02139
2576.68073	0.02079
2575.39496	0.02055
2574.10919	0.02075
2572.82342	0.02113
2571.53765	0.02134
2570.25188	0.02133
2568.96612	0.02127
2567.68035	0.02131
2566.39458	0.02138
2565.10881	0.02136
2563.82304	0.02121
2562.53727	0.02094
2561.25150	0.02063
2559.96573	0.02039
2558.67997	0.02037
2557.39420	0.02056
2556.10843	0.02077
2554.82266	0.02084
2553.53689	0.02085
2552.25112	0.02093
2550.96535	0.02107
2549.67958	0.02112
2548.39381	0.02100
2547.10805	0.02074
2545.82228	0.02046
2544.53651	0.02030
2543.25074	0.02034
2541.96497	0.02052
2540.67920	0.02066
2539.39343	0.02064
2538.10766	0.02053
2536.82190	0.02039
2535.53613	0.02018
2534.25036	0.01980
2532.96459	0.01933
2531.67882	0.01894
2530.39305	0.01876
2529.10728	0.01882
2527.82151	0.01901
2526.53574	0.01922
2525.24998	0.01936
2523.96421	0.01942
2522.67844	0.01940
2521.39267	0.01933
2520.10690	0.01928
2518.82113	0.01935
2517.53536	0.01953
2516.24959	0.01975
2514.96383	0.01990
2513.67806	0.01990
2512.39229	0.01971
2511.10652	0.01945
2509.82075	0.01925
2508.53498	0.01915
2507.24921	0.01902
2505.96344	0.01879
2504.67767	0.01859
2503.39191	0.01868
2502.10614	0.01908
2500.82037	0.01962
2499.53460	0.02005
2498.24883	0.02030
2496.96306	0.02040
2495.67729	0.02036
2494.39152	0.02013
2493.10576	0.01974
2491.81999	0.01928
2490.53422	0.01883
2489.24845	0.01843
2487.96268	0.01819
2486.67691	0.01827
2485.39114	0.01867
2484.10537	0.01909
2482.81960	0.01922
2481.53384	0.01903
2480.24807	0.01872
2478.96230	0.01844
2477.67653	0.01822
2476.39076	0.01813
2475.10499	0.01826
2473.81922	0.01857
2472.53345	0.01888
2471.24769	0.01899
2469.96192	0.01884
2468.67615	0.01850
2467.39038	0.01815
2466.10461	0.01798
2464.81884	0.01809
2463.53307	0.01844
2462.24730	0.01888
2460.96153	0.01925
2459.67577	0.01944
2458.39000	0.01946
2457.10423	0.01938
2455.81846	0.01930
2454.53269	0.01928
2453.24692	0.01925
2451.96115	0.01914
2450.67538	0.01897
2449.38962	0.01882
2448.10385	0.01870
2446.81808	0.01850
2445.53231	0.01811
2444.24654	0.01760
2442.96077	0.01722
2441.67500	0.01717
2440.38923	0.01740
2439.10346	0.01761
2437.81770	0.01755
2436.53193	0.01723
2435.24616	0.01702
2433.96039	0.01724
2432.67462	0.01781
2431.38885	0.01841
2430.10308	0.01881
2428.81731	0.01902
2427.53155	0.01904
2426.24578	0.01881
2424.96001	0.01835
2423.67424	0.01787
2422.38847	0.01762
2421.10270	0.01765
2419.81693	0.01778
2418.53116	0.01783
2417.24539	0.01777
2415.95963	0.01769
2414.67386	0.01766
2413.38809	0.01765
2412.10232	0.01761
2410.81655	0.01757
2409.53078	0.01758
2408.24501	0.01766
2406.95924	0.01777
2405.67347	0.01789
2404.38771	0.01800
2403.10194	0.01801
2401.81617	0.01785
2400.53040	0.01748
2399.24463	0.01489
2397.95886	0.01331
2396.67309	0.01353
2395.38732	0.01468
2394.10156	0.01610
2392.81579	0.01747
2391.53002	0.01872
2390.24425	0.01986
2388.95848	0.02099
2387.67271	0.02219
2386.38694	0.02347
2385.10117	0.02461
2383.81540	0.02537
2382.52964	0.02559
2381.24387	0.02539
2379.95810	0.02497
2378.67233	0.02458
2377.38656	0.02437
2376.10079	0.02418
2374.81502	0.02414
2373.52925	0.02449
2372.24349	0.02505
2370.95772	0.02560
2369.67195	0.02578
2368.38618	0.02607
2367.10041	0.02732
2365.81464	0.02916
2364.52887	0.03037
2363.24310	0.03097
2361.95733	0.03180
2360.67157	0.03297
2359.38580	0.03374
2358.10003	0.03406
2356.81426	0.03432
2355.52849	0.03470
2354.24272	0.03523
2352.95695	0.03603
2351.67118	0.03765
2350.38542	0.03996
2349.09965	0.04105
2347.81388	0.03900
2346.52811	0.03524
2345.24234	0.03291
2343.95657	0.03281
2342.67080	0.03336
2341.38503	0.03373
2340.09926	0.03401
2338.81350	0.03405
2337.52773	0.03398
2336.24196	0.03390
2334.95619	0.03398
2333.67042	0.03408
2332.38465	0.03390
2331.09888	0.03387
2329.81311	0.03434
2328.52735	0.03483
2327.24158	0.03492
2325.95581	0.03401
2324.67004	0.03155
2323.38427	0.02814
2322.09850	0.02498
2320.81273	0.02301
2319.52696	0.02278
2318.24119	0.02382
2316.95543	0.02487
2315.66966	0.02509
2314.38389	0.02442
2313.09812	0.02343
2311.81235	0.02254
2310.52658	0.02201
2309.24081	0.02193
2307.95504	0.02216
2306.66928	0.02251
2305.38351	0.02294
2304.09774	0.02326
2302.81197	0.02332
2301.52620	0.02324
2300.24043	0.02323
2298.95466	0.02334
2297.66889	0.02346
2296.38312	0.02346
2295.09736	0.02326
2293.81159	0.02288
2292.52582	0.02238
2291.24005	0.02184
2289.95428	0.02128
2288.66851	0.02060
2287.38274	0.01968
2286.09697	0.01849
2284.81121	0.01720
2283.52544	0.01613
2282.23967	0.01554
2280.95390	0.01547
2279.66813	0.01569
2278.38236	0.01592
2277.09659	0.01597
2275.81082	0.01592
2274.52505	0.01585
2273.23929	0.01579
2271.95352	0.01572
2270.66775	0.01567
2269.38198	0.01570
2268.09621	0.01584
2266.81044	0.01608
2265.52467	0.01626
2264.23890	0.01626
2262.95314	0.01613
2261.66737	0.01607
2260.38160	0.01624
2259.09583	0.01653
2257.81006	0.01659
2256.52429	0.01628
2255.23852	0.01585
2253.95275	0.01572
2252.66698	0.01602
2251.38122	0.01630
2250.09545	0.01565
2248.80968	0.01378
2247.52391	0.01282
2246.23814	0.01245
2244.95237	0.01275
2243.66660	0.01336
2242.38083	0.01393
2241.09507	0.01432
2239.80930	0.01447
2238.52353	0.01421
2237.23776	0.01341
2235.95199	0.01236
2234.66622	0.01174
2233.38045	0.01197
2232.09468	0.01272
2230.80891	0.01321
2229.52315	0.01299
2228.23738	0.01242
2226.95161	0.01211
2225.66584	0.01232
2224.38007	0.01264
2223.09430	0.01245
2221.80853	0.01155
2220.52276	0.01047
2219.23700	0.01007
2217.95123	0.01069
2216.66546	0.01180
2215.37969	0.01260
2214.09392	0.01287
2212.80815	0.01300
2211.52238	0.01321
2210.23661	0.01319
2208.95084	0.01266
2207.66508	0.01198
2206.37931	0.01184
2205.09354	0.01228
2203.80777	0.01265
2202.52200	0.01249
2201.23623	0.01199
2199.95046	0.01148
2198.66469	0.01088
2197.37893	0.01001
2196.09316	0.00912
2194.80739	0.00872
2193.52162	0.00902
2192.23585	0.00970
2190.95008	0.01022
2189.66431	0.01029
2188.37854	0.01001
2187.09277	0.00965
2185.80701	0.00943
2184.52124	0.00949
2183.23547	0.00993
2181.94970	0.01068
2180.66393	0.01142
2179.37816	0.01177
2178.09239	0.01160
2176.80662	0.01101
2175.52085	0.01020
2174.23509	0.00935
2172.94932	0.00861
2171.66355	0.00808
2170.37778	0.00783
2169.09201	0.00789
2167.80624	0.00815
2166.52047	0.00846
2165.23470	0.00861
2163.94894	0.00839
2162.66317	0.00764
2161.37740	0.00644
2160.09163	0.00522
2158.80586	0.00456
2157.52009	0.00462
2156.23432	0.00490
2154.94855	0.00474
2153.66278	0.00403
2152.37702	0.00338
2151.09125	0.00348
2149.80548	0.00447
2148.51971	0.00596
2147.23394	0.00754
2145.94817	0.00892
2144.66240	0.00979
2143.37663	0.00987
2142.09087	0.00923
2140.80510	0.00841
2139.51933	0.00797
2138.23356	0.00795
2136.94779	0.00788
2135.66202	0.00739
2134.37625	0.00666
2133.09048	0.00617
2131.80471	0.00619
2130.51895	0.00668
2129.23318	0.00754
2127.94741	0.00866
2126.66164	0.00975
2125.37587	0.01036
2124.09010	0.01034
2122.80433	0.01004
2121.51856	0.01000
2120.23280	0.01038
2118.94703	0.01085
2117.66126	0.01102
2116.37549	0.01088
2115.08972	0.01074
2113.80395	0.01083
2112.51818	0.01104
2111.23241	0.01114
2109.94664	0.01096
2108.66088	0.01048
2107.37511	0.00985
2106.08934	0.00932
2104.80357	0.00908
2103.51780	0.00902
2102.23203	0.00896
2100.94626	0.00882
2099.66049	0.00859
2098.37473	0.00840
2097.08896	0.00812
2095.80319	0.00766
2094.51742	0.00736
2093.23165	0.00771
2091.94588	0.00876
2090.66011	0.00994
2089.37434	0.01049
2088.08857	0.01019
2086.80281	0.00952
2085.51704	0.00911
2084.23127	0.00910
2082.94550	0.00920
2081.65973	0.00911
2080.37396	0.00884
2079.08819	0.00854
2077.80242	0.00828
2076.51666	0.00806
2075.23089	0.00786
2073.94512	0.00767
2072.65935	0.00752
2071.37358	0.00742
2070.08781	0.00739
2068.80204	0.00727
2067.51627	0.00689
2066.23050	0.00629
2064.94474	0.00581
2063.65897	0.00576
2062.37320	0.00619
2061.08743	0.00692
2059.80166	0.00755
2058.51589	0.00769
2057.23012	0.00721
2055.94435	0.00639
2054.65859	0.00572
2053.37282	0.00548
2052.08705	0.00561
2050.80128	0.00580
2049.51551	0.00574
2048.22974	0.00532
2046.94397	0.00476
2045.65820	0.00432
2044.37243	0.00409
2043.08667	0.00402
2041.80090	0.00415
2040.51513	0.00458
2039.22936	0.00506
2037.94359	0.00503
2036.65782	0.00420
2035.37205	0.00287
2034.08628	0.00162
2032.80052	0.00075
2031.51475	0.00037
2030.22898	0.00060
2028.94321	0.00144
2027.65744	0.00253
2026.37167	0.00331
2025.08590	0.00363
2023.80013	0.00374
2022.51436	0.00392
2021.22860	0.00422
2019.94283	0.00454
2018.65706	0.00480
2017.37129	0.00494
2016.08552	0.00494
2014.79975	0.00477
2013.51398	0.00450
2012.22821	0.00423
2010.94245	0.00393
2009.65668	0.00365
2008.37091	0.00357
2007.08514	0.00387
2005.79937	0.00443
2004.51360	0.00492
2003.22783	0.00518
2001.94206	0.00545
2000.65629	0.00609
1999.37053	0.00711
1998.08476	0.00811
1996.79899	0.00859
1995.51322	0.00841
1994.22745	0.00781
1992.94168	0.00712
1991.65591	0.00657
1990.37014	0.00629
1989.08438	0.00631
1987.79861	0.00660
1986.51284	0.00695
1985.22707	0.00709
1983.94130	0.00692
1982.65553	0.00658
1981.36976	0.00626
1980.08399	0.00599
1978.79822	0.00569
1977.51246	0.00550
1976.22669	0.00577
1974.94092	0.00669
1973.65515	0.00790
1972.36938	0.00872
1971.08361	0.00879
1969.79784	0.00829
1968.51207	0.00771
1967.22631	0.00739
1965.94054	0.00740
1964.65477	0.00764
1963.36900	0.00792
1962.08323	0.00802
1960.79746	0.00783
1959.51169	0.00754
1958.22592	0.00758
1956.94015	0.00811
1955.65439	0.00881
1954.36862	0.00924
1953.08285	0.00926
1951.79708	0.00905
1950.51131	0.00886
1949.22554	0.00880
1947.93977	0.00896
1946.65400	0.00936
1945.36823	0.00981
1944.08247	0.01000
1942.79670	0.00979
1941.51093	0.00932
1940.22516	0.00884
1938.93939	0.00848
1937.65362	0.00820
1936.36785	0.00798
1935.08208	0.00793
1933.79632	0.00822
1932.51055	0.00882
1931.22478	0.00939
1929.93901	0.00964
1928.65324	0.00968
1927.36747	0.00977
1926.08170	0.00997
1924.79593	0.01003
1923.51016	0.00981
1922.22440	0.00941
1920.93863	0.00901
1919.65286	0.00871
1918.36709	0.00865
1917.08132	0.00887
1915.79555	0.00912
1914.50978	0.00920
1913.22401	0.00919
1911.93825	0.00923
1910.65248	0.00931
1909.36671	0.00940
1908.08094	0.00950
1906.79517	0.00956
1905.50940	0.00952
1904.22363	0.00936
1902.93786	0.00921
1901.65209	0.00923
1900.36633	0.00943
1899.08056	0.00974
1897.79479	0.01004
1896.50902	0.01024
1895.22325	0.01035
1893.93748	0.01036
1892.65171	0.01024
1891.36594	0.01001
1890.08018	0.00983
1888.79441	0.00982
1887.50864	0.00991
1886.22287	0.00993
1884.93710	0.00987
1883.65133	0.00978
1882.36556	0.00966
1881.07979	0.00947
1879.79402	0.00923
1878.50826	0.00903
1877.22249	0.00891
1875.93672	0.00890
1874.65095	0.00898
1873.36518	0.00911
1872.07941	0.00913
1870.79364	0.00899
1869.50787	0.00886
1868.22211	0.00904
1866.93634	0.00956
1865.65057	0.01020
1864.36480	0.01075
1863.07903	0.01105
1861.79326	0.01107
1860.50749	0.01092
1859.22172	0.01075
1857.93595	0.01070
1856.65019	0.01074
1855.36442	0.01078
1854.07865	0.01076
1852.79288	0.01064
1851.50711	0.01039
1850.22134	0.01007
1848.93557	0.00984
1847.64980	0.00975
1846.36404	0.00962
1845.07827	0.00943
1843.79250	0.00943
1842.50673	0.00972
1841.22096	0.01001
1839.93519	0.01006
1838.64942	0.01004
1837.36365	0.01015
1836.07788	0.01036
1834.79212	0.01055
1833.50635	0.01060
1832.22058	0.01050
1830.93481	0.01038
1829.64904	0.01046
1828.36327	0.01066
1827.07750	0.01066
1825.79173	0.01039
1824.50597	0.01017
1823.22020	0.01014
1821.93443	0.01018
1820.64866	0.01013
1819.36289	0.01005
1818.07712	0.01004
1816.79135	0.01017
1815.50558	0.01041
1814.21981	0.01062
1812.93405	0.01074
1811.64828	0.01080
1810.36251	0.01085
1809.07674	0.01085
1807.79097	0.01081
1806.50520	0.01078
1805.21943	0.01082
1803.93366	0.01090
1802.64790	0.01097
1801.36213	0.01103
1800.07636	0.01113
1798.79059	0.01119
1797.50482	0.01114
1796.21905	0.01100
1794.93328	0.01076
1793.64751	0.01050
1792.36174	0.01044
1791.07598	0.01068
1789.79021	0.01097
1788.50444	0.01102
1787.21867	0.01081
1785.93290	0.01052
1784.64713	0.01040
1783.36136	0.01047
1782.07559	0.01057
1780.78983	0.01062
1779.50406	0.01068
1778.21829	0.01078
1776.93252	0.01091
1775.64675	0.01095
1774.36098	0.01080
1773.07521	0.01062
1771.78944	0.01077
1770.50367	0.01113
1769.21791	0.01134
1767.93214	0.01145
1766.64637	0.01170
1765.36060	0.01198
1764.07483	0.01195
1762.78906	0.01169
1761.50329	0.01153
1760.21752	0.01155
1758.93176	0.01151
1757.64599	0.01135
1756.36022	0.01134
1755.07445	0.01149
1753.78868	0.01147
1752.50291	0.01117
1751.21714	0.01097
1749.93137	0.01116
1748.64560	0.01151
1747.35984	0.01170
1746.07407	0.01165
1744.78830	0.01146
1743.50253	0.01124
1742.21676	0.01100
1740.93099	0.01079
1739.64522	0.01085
1738.35945	0.01126
1737.07369	0.01150
1735.78792	0.01112
1734.50215	0.01062
1733.21638	0.01077
1731.93061	0.01140
1730.64484	0.01180
1729.35907	0.01183
1728.07330	0.01181
1726.78753	0.01189
1725.50177	0.01198
1724.21600	0.01208
1722.93023	0.01227
1721.64446	0.01248
1720.35869	0.01242
1719.07292	0.01207
1717.78715	0.01193
1716.50138	0.01235
1715.21561	0.01303
1713.92985	0.01354
1712.64408	0.01379
1711.35831	0.01393
1710.07254	0.01408
1708.78677	0.01422
1707.50100	0.01434
1706.21523	0.01460
1704.92946	0.01518
1703.64370	0.01578
1702.35793	0.01583
1701.07216	0.01561
1699.78639	0.01606
1698.50062	0.01700
1697.21485	0.01752
1695.92908	0.01768
1694.64331	0.01829
1693.35754	0.01915
1692.07178	0.01958
1690.78601	0.01969
1689.50024	0.02002
1688.21447	0.02054
1686.92870	0.02063
1685.64293	0.02026
1684.35716	0.02029
1683.07139	0.02122
1681.78563	0.02238
1680.49986	0.02312
1679.21409	0.02354
1677.92832	0.02381
1676.64255	0.02398
1675.35678	0.02432
1674.07101	0.02503
1672.78524	0.02575
1671.49947	0.02605
1670.21371	0.02610
1668.92794	0.02639
1667.64217	0.02705
1666.35640	0.02771
1665.07063	0.02808
1663.78486	0.02827
1662.49909	0.02863
1661.21332	0.02921
1659.92756	0.02982
1658.64179	0.03039
1657.35602	0.03088
1656.07025	0.03091
1654.78448	0.03021
1653.49871	0.02961
1652.21294	0.03020
1650.92717	0.03159
1649.64140	0.03235
1648.35564	0.03203
1647.06987	0.03149
1645.78410	0.03149
1644.49833	0.03194
1643.21256	0.03227
1641.92679	0.03229
1640.64102	0.03221
1639.35525	0.03213
1638.06949	0.03184
1636.78372	0.03133
1635.49795	0.03106
1634.21218	0.03130
1632.92641	0.03165
1631.64064	0.03160
1630.35487	0.03117
1629.06910	0.03066
1627.78333	0.03028
1626.49757	0.02995
1625.21180	0.02953
1623.92603	0.02909
1622.64026	0.02890
1621.35449	0.02896
1620.06872	0.02885
1618.78295	0.02823
1617.49718	0.02744
1616.21142	0.02718
1614.92565	0.02748
1613.63988	0.02775
1612.35411	0.02764
1611.06834	0.02735
1609.78257	0.02713
1608.49680	0.02703
1607.21103	0.02703
1605.92526	0.02706
1604.63950	0.02708
1603.35373	0.02704
1602.06796	0.02699
1600.78219	0.02694
1599.49642	0.02689
1598.21065	0.02686
1596.92488	0.02690
1595.63911	0.02701
1594.35335	0.02716
1593.06758	0.02730
1591.78181	0.02740
1590.49604	0.02749
1589.21027	0.02762
1587.92450	0.02781
1586.63873	0.02806
1585.35296	0.02832
1584.06719	0.02855
1582.78143	0.02877
1581.49566	0.02904
1580.20989	0.02937
1578.92412	0.02951
1577.63835	0.02934
1576.35258	0.02933
1575.06681	0.02996
1573.78104	0.03089
1572.49528	0.03137
1571.20951	0.03133
1569.92374	0.03129
1568.63797	0.03162
1567.35220	0.03210
1566.06643	0.03248
1564.78066	0.03287
1563.49489	0.03337
1562.20912	0.03359
1560.92336	0.03322
1559.63759	0.03279
1558.35182	0.03313
1557.06605	0.03400
1555.78028	0.03454
1554.49451	0.03460
1553.20874	0.03464
1551.92297	0.03479
1550.63721	0.03489
1549.35144	0.03497
1548.06567	0.03507
1546.77990	0.03510
1545.49413	0.03508
1544.20836	0.03510
1542.92259	0.03500
1541.63682	0.03459
1540.35105	0.03415
1539.06529	0.03426
1537.77952	0.03487
1536.49375	0.03524
1535.20798	0.03494
1533.92221	0.03443
1532.63644	0.03432
1531.35067	0.03458
1530.06490	0.03483
1528.77914	0.03491
1527.49337	0.03500
1526.20760	0.03526
1524.92183	0.03565
1523.63606	0.03589
1522.35029	0.03594
1521.06452	0.03622
1519.77875	0.03688
1518.49298	0.03750
1517.20722	0.03793
1515.92145	0.03842
1514.63568	0.03910
1513.34991	0.03982
1512.06414	0.04056
1510.77837	0.04131
1509.49260	0.04181
1508.20683	0.04191
1506.92107	0.04209
1505.63530	0.04293
1504.34953	0.04423
1503.06376	0.04526
1501.77799	0.04578
1500.49222	0.04607
1499.20645	0.04638
1497.92068	0.04668
1496.63491	0.04710
1495.34915	0.04775
1494.06338	0.04849
1492.77761	0.04895
1491.49184	0.04911
1490.20607	0.04930
1488.92030	0.04969
1487.63453	0.05022
1486.34876	0.05085
1485.06299	0.05152
1483.77723	0.05218
1482.49146	0.05279
1481.20569	0.05342
1479.91992	0.05412
1478.63415	0.05482
1477.34838	0.05549
1476.06261	0.05613
1474.77684	0.05663
1473.49108	0.05702
1472.20531	0.05753
1470.91954	0.05825
1469.63377	0.05898
1468.34800	0.05945
1467.06223	0.05965
1465.77646	0.05980
1464.49069	0.06015
1463.20492	0.06071
1461.91916	0.06130
1460.63339	0.06166
1459.34762	0.06167
1458.06185	0.06156
1456.77608	0.06190
1455.49031	0.06281
1454.20454	0.06368
1452.91877	0.06404
1451.63301	0.06410
1450.34724	0.06417
1449.06147	0.06427
1447.77570	0.06440
1446.48993	0.06455
1445.20416	0.06466
1443.91839	0.06469
1442.63262	0.06469
1441.34685	0.06475
1440.06109	0.06477
1438.77532	0.06459
1437.48955	0.06434
1436.20378	0.06445
1434.91801	0.06496
1433.63224	0.06548
1432.34647	0.06581
1431.06070	0.06618
1429.77494	0.06681
1428.48917	0.06767
1427.20340	0.06859
1425.91763	0.06944
1424.63186	0.07027
1423.34609	0.07114
1422.06032	0.07188
1420.77455	0.07236
1419.48878	0.07285
1418.20302	0.07361
1416.91725	0.07444
1415.63148	0.07500
1414.34571	0.07528
1413.05994	0.07544
1411.77417	0.07558
1410.48840	0.07566
1409.20263	0.07564
1407.91687	0.07544
1406.63110	0.07505
1405.34533	0.07452
1404.05956	0.07395
1402.77379	0.07331
1401.48802	0.07249
1400.20225	0.07148
1398.91648	0.07044
1397.63071	0.06941
1396.34495	0.06826
1395.05918	0.06702
1393.77341	0.06586
1392.48764	0.06480
1391.20187	0.06369
1389.91610	0.06241
1388.63033	0.06104
1387.34456	0.05981
1386.05880	0.05881
1384.77303	0.05785
1383.48726	0.05676
1382.20149	0.05554
1380.91572	0.05429
1379.62995	0.05310
1378.34418	0.05197
1377.05841	0.05084
1375.77264	0.04962
1374.48688	0.04832
1373.20111	0.04702
1371.91534	0.04574
1370.62957	0.04448
1369.34380	0.04328
1368.05803	0.04221
1366.77226	0.04123
1365.48649	0.04023
1364.20073	0.03917
1362.91496	0.03814
1361.62919	0.03722
1360.34342	0.03642
1359.05765	0.03564
1357.77188	0.03486
1356.48611	0.03411
1355.20034	0.03343
1353.91457	0.03283
1352.62881	0.03232
1351.34304	0.03188
1350.05727	0.03146
1348.77150	0.03105
1347.48573	0.03064
1346.19996	0.03022
1344.91419	0.02983
1343.62842	0.02949
1342.34266	0.02919
1341.05689	0.02892
1339.77112	0.02866
1338.48535	0.02841
1337.19958	0.02813
1335.91381	0.02780
1334.62804	0.02743
1333.34227	0.02707
1332.05650	0.02673
1330.77074	0.02644
1329.48497	0.02619
1328.19920	0.02596
1326.91343	0.02574
1325.62766	0.02556
1324.34189	0.02540
1323.05612	0.02522
1321.77035	0.02500
1320.48459	0.02474
1319.19882	0.02450
1317.91305	0.02427
1316.62728	0.02405
1315.34151	0.02379
1314.05574	0.02352
1312.76997	0.02326
1311.48420	0.02303
1310.19843	0.02285
1308.91267	0.02269
1307.62690	0.02256
1306.34113	0.02241
1305.05536	0.02223
1303.76959	0.02205
1302.48382	0.02191
1301.19805	0.02180
1299.91228	0.02168
1298.62652	0.02151
1297.34075	0.02131
1296.05498	0.02112
1294.76921	0.02096
1293.48344	0.02086
1292.19767	0.02078
1290.91190	0.02070
1289.62613	0.02062
1288.34036	0.02052
1287.05460	0.02044
1285.76883	0.02037
1284.48306	0.02031
1283.19729	0.02022
1281.91152	0.02009
1280.62575	0.01994
1279.33998	0.01980
1278.05421	0.01970
1276.76845	0.01961
1275.48268	0.01952
1274.19691	0.01940
1272.91114	0.01926
1271.62537	0.01911
1270.33960	0.01899
1269.05383	0.01889
1267.76806	0.01881
1266.48229	0.01874
1265.19653	0.01870
1263.91076	0.01866
1262.62499	0.01859
1261.33922	0.01849
1260.05345	0.01839
1258.76768	0.01830
1257.48191	0.01825
1256.19614	0.01822
1254.91037	0.01823
1253.62461	0.01826
1252.33884	0.01829
1251.05307	0.01829
1249.76730	0.01826
1248.48153	0.01821
1247.19576	0.01818
1245.90999	0.01813
1244.62422	0.01803
1243.33846	0.01789
1242.05269	0.01772
1240.76692	0.01758
1239.48115	0.01750
1238.19538	0.01747
1236.90961	0.01744
1235.62384	0.01738
1234.33807	0.01728
1233.05230	0.01715
1231.76654	0.01699
1230.48077	0.01683
1229.19500	0.01665
1227.90923	0.01650
1226.62346	0.01636
1225.33769	0.01625
1224.05192	0.01613
1222.76615	0.01599
1221.48039	0.01585
1220.19462	0.01570
1218.90885	0.01556
1217.62308	0.01543
1216.33731	0.01534
1215.05154	0.01526
1213.76577	0.01519
1212.48000	0.01513
1211.19423	0.01509
1209.90847	0.01506
1208.62270	0.01502
1207.33693	0.01495
1206.05116	0.01488
1204.76539	0.01483
1203.47962	0.01481
1202.19385	0.01481
1200.90808	0.01481
1199.62232	0.01480
1198.33655	0.01473
1197.05078	0.01460
1195.76501	0.01447
1194.47924	0.01436
1193.19347	0.01423
1191.90770	0.01406
1190.62193	0.01390
1189.33616	0.01379
1188.05040	0.01378
1186.76463	0.01381
1185.47886	0.01383
1184.19309	0.01379
1182.90732	0.01370
1181.62155	0.01359
1180.33578	0.01351
1179.05001	0.01348
1177.76425	0.01348
1176.47848	0.01350
1175.19271	0.01354
1173.90694	0.01358
1172.62117	0.01362
1171.33540	0.01365
1170.04963	0.01367
1168.76386	0.01366
1167.47809	0.01365
1166.19233	0.01363
1164.90656	0.01366
1163.62079	0.01372
1162.33502	0.01381
1161.04925	0.01387
1159.76348	0.01388
1158.47771	0.01385
1157.19194	0.01378
1155.90618	0.01368
1154.62041	0.01362
1153.33464	0.01366
1152.04887	0.01380
1150.76310	0.01396
1149.47733	0.01412
1148.19156	0.01428
1146.90579	0.01446
1145.62002	0.01468
1144.33426	0.01494
1143.04849	0.01527
1141.76272	0.01565
1140.47695	0.01607
1139.19118	0.01656
1137.90541	0.01715
1136.61964	0.01784
1135.33387	0.01857
1134.04811	0.01935
1132.76234	0.02024
1131.47657	0.02131
1130.19080	0.02258
1128.90503	0.02402
1127.61926	0.02563
1126.33349	0.02740
1125.04772	0.02930
1123.76195	0.03127
1122.47619	0.03325
1121.19042	0.03525
1119.90465	0.03725
1118.61888	0.03925
1117.33311	0.04125
1116.04734	0.04325
1114.76157	0.04527
1113.47580	0.04729
1112.19004	0.04926
1110.90427	0.05114
1109.61850	0.05292
1108.33273	0.05459
1107.04696	0.05621
1105.76119	0.05779
1104.47542	0.05933
1103.18965	0.06082
1101.90388	0.06226
1100.61812	0.06367
1099.33235	0.06508
1098.04658	0.06650
1096.76081	0.06785
1095.47504	0.06910
1094.18927	0.07021
1092.90350	0.07120
1091.61773	0.07213
1090.33197	0.07306
1089.04620	0.07399
1087.76043	0.07491
1086.47466	0.07582
1085.18889	0.07675
1083.90312	0.07772
1082.61735	0.07877
1081.33158	0.07987
1080.04581	0.08106
1078.76005	0.08237
1077.47428	0.08381
1076.18851	0.08537
1074.90274	0.08698
1073.61697	0.08858
1072.33120	0.09014
1071.04543	0.09168
1069.75966	0.09325
1068.47390	0.09493
1067.18813	0.09673
1065.90236	0.09862
1064.61659	0.10050
1063.33082	0.10236
1062.04505	0.10422
1060.75928	0.10611
1059.47351	0.10805
1058.18774	0.10998
1056.90198	0.11184
1055.61621	0.11359
1054.33044	0.11528
1053.04467	0.11696
1051.75890	0.11870
1050.47313	0.12051
1049.18736	0.12239
1047.90159	0.12430
1046.61583	0.12621
1045.33006	0.12811
1044.04429	0.13002
1042.75852	0.13199
1041.47275	0.13402
1040.18698	0.13605
1038.90121	0.13804
1037.61544	0.14001
1036.32967	0.14194
1035.04391	0.14380
1033.75814	0.14556
1032.47237	0.14722
1031.18660	0.14878
1029.90083	0.15020
1028.61506	0.15142
1027.32929	0.15237
1026.04352	0.15308
1024.75775	0.15360
1023.47199	0.15394
1022.18622	0.15405
1020.90045	0.15388
1019.61468	0.15342
1018.32891	0.15268
1017.04314	0.15168
1015.75737	0.15041
1014.47160	0.14887
1013.18584	0.14705
1011.90007	0.14501
1010.61430	0.14276
1009.32853	0.14031
1008.04276	0.13767
1006.75699	0.13487
1005.47122	0.13196
1004.18545	0.12890
1002.89968	0.12562
1001.61392	0.12211
1000.32815	0.11843
999.04238	0.11470
997.75661	0.11098
996.47084	0.10731
995.18507	0.10368
993.89930	0.10008
992.61353	0.09654
991.32777	0.09309
990.04200	0.08975
988.75623	0.08653
987.47046	0.08346
986.18469	0.08060
984.89892	0.07796
983.61315	0.07548
982.32738	0.07310
981.04161	0.07080
979.75585	0.06862
978.47008	0.06658
977.18431	0.06470
975.89854	0.06301
974.61277	0.06151
973.32700	0.06026
972.04123	0.05929
970.75546	0.05866
969.46970	0.05837
968.18393	0.05837
966.89816	0.05858
965.61239	0.05897
964.32662	0.05947
963.04085	0.05993
961.75508	0.06016
960.46931	0.06003
959.18354	0.05955
957.89778	0.05883
956.61201	0.05794
955.32624	0.05686
954.04047	0.05563
952.75470	0.05435
951.46893	0.05309
950.18316	0.05188
948.89739	0.05069
947.61163	0.04953
946.32586	0.04843
945.04009	0.04736
943.75432	0.04631
942.46855	0.04526
941.18278	0.04423
939.89701	0.04328
938.61124	0.04243
937.32547	0.04170
936.03971	0.04107
934.75394	0.04048
933.46817	0.03985
932.18240	0.03915
930.89663	0.03843
929.61086	0.03783
928.32509	0.03737
927.03932	0.03700
925.75356	0.03662
924.46779	0.03618
923.18202	0.03567
921.89625	0.03513
920.61048	0.03464
919.32471	0.03422
918.03894	0.03386
916.75317	0.03355
915.46740	0.03325
914.18164	0.03297
912.89587	0.03268
911.61010	0.03236
910.32433	0.03205
909.03856	0.03178
907.75279	0.03156
906.46702	0.03132
905.18125	0.03098
903.89549	0.03055
902.60972	0.03013
901.32395	0.02980
900.03818	0.02956
898.75241	0.02937
897.46664	0.02919
896.18087	0.02902
894.89510	0.02886
893.60933	0.02868
892.32357	0.02852
891.03780	0.02844
889.75203	0.02853
888.46626	0.02884
887.18049	0.02939
885.89472	0.03017
884.60895	0.03123
883.32318	0.03261
882.03742	0.03431
880.75165	0.03621
879.46588	0.03807
878.18011	0.03974
876.89434	0.04122
875.60857	0.04259
874.32280	0.04386
873.03703	0.04483
871.75126	0.04528
870.46550	0.04515
869.17973	0.04452
867.89396	0.04349
866.60819	0.04209
865.32242	0.04041
864.03665	0.03864
862.75088	0.03700
861.46511	0.03559
860.17935	0.03441
858.89358	0.03341
857.60781	0.03257
856.32204	0.03189
855.03627	0.03131
853.75050	0.03078
852.46473	0.03026
851.17896	0.02978
849.89319	0.02936
848.60743	0.02902
847.32166	0.02875
846.03589	0.02855
844.75012	0.02838
843.46435	0.02823
842.17858	0.02804
840.89281	0.02778
839.60704	0.02746
838.32128	0.02715
837.03551	0.02689
835.74974	0.02670
834.46397	0.02656
833.17820	0.02643
831.89243	0.02631
830.60666	0.02621
829.32089	0.02615
828.03512	0.02610
826.74936	0.02603
825.46359	0.02588
824.17782	0.02562
822.89205	0.02529
821.60628	0.02502
820.32051	0.02495
819.03474	0.02510
817.74897	0.02532
816.46321	0.02543
815.17744	0.02534
813.89167	0.02516
812.60590	0.02500
811.32013	0.02492
810.03436	0.02487
808.74859	0.02478
807.46282	0.02467
806.17705	0.02458
804.89129	0.02455
803.60552	0.02460
802.31975	0.02470
801.03398	0.02483
799.74821	0.02498
798.46244	0.02510
797.17667	0.02514
795.89090	0.02508
794.60513	0.02498
793.31937	0.02490
792.03360	0.02484
790.74783	0.02473
789.46206	0.02459
788.17629	0.02446
786.89052	0.02441
785.60475	0.02442
784.31898	0.02443
783.03322	0.02441
781.74745	0.02439
780.46168	0.02441
779.17591	0.02444
777.89014	0.02443
776.60437	0.02437
775.31860	0.02431
774.03283	0.02429
772.74706	0.02432
771.46130	0.02435
770.17553	0.02435
768.88976	0.02433
767.60399	0.02434
766.31822	0.02437
765.03245	0.02438
763.74668	0.02435
762.46091	0.02426
761.17515	0.02415
759.88938	0.02408
758.60361	0.02413
757.31784	0.02428
756.03207	0.02446
754.74630	0.02458
753.46053	0.02460
752.17476	0.02456
750.88899	0.02453
749.60323	0.02454
748.31746	0.02459
747.03169	0.02464
745.74592	0.02461
744.46015	0.02448
743.17438	0.02434
741.88861	0.02427
740.60284	0.02423
739.31708	0.02415
738.03131	0.02400
736.74554	0.02394
735.45977	0.02402
734.17400	0.02417
732.88823	0.02427
731.60246	0.02427
730.31669	0.02423
729.03092	0.02418
727.74516	0.02414
726.45939	0.02414
725.17362	0.02423
723.88785	0.02481
722.60208	0.02473
721.31631	0.02404
720.03054	0.02343
718.74477	0.02319
717.45901	0.02312
716.17324	0.02314
714.88747	0.02331
713.60170	0.02361
712.31593	0.02394
711.03016	0.02423
709.74439	0.02444
708.45862	0.02459
707.17285	0.02471
705.88709	0.02483
704.60132	0.02491
703.31555	0.02497
702.02978	0.02500
700.74401	0.02498
699.45824	0.02487
698.17247	0.02466
696.88670	0.02436
695.60094	0.02407
694.31517	0.02387
693.02940	0.02378
691.74363	0.02375
690.45786	0.02375
689.17209	0.02375
687.88632	0.02377
686.60055	0.02381
685.31478	0.02389
684.02902	0.02399
682.74325	0.02411
681.45748	0.02422
680.17171	0.02432
678.88594	0.02440
677.60017	0.02445
676.31440	0.02448
675.02863	0.02447
673.74287	0.02430
672.45710	0.02374
671.17133	0.02252
669.88556	0.02071
668.59979	0.01946
667.31402	0.02068
666.02825	0.02269
664.74248	0.02362
663.45671	0.02384
662.17095	0.02378
660.88518	0.02357
659.59941	0.02337
658.31364	0.02325
657.02787	0.02320
655.74210	0.02314
654.45633	0.02305
653.17056	0.02289
651.88480	0.02266
650.59903	0.02240
649.31326	0.02220
648.02749	0.02216
646.74172	0.02223
645.45595	0.02227
644.17018	0.02224
642.88441	0.02215
641.59864	0.02204
640.31288	0.02195
639.02711	0.02191
637.74134	0.02191
636.45557	0.02196
635.16980	0.02203
633.88403	0.02214
632.59826	0.02228
631.31249	0.02240
630.02673	0.02240
628.74096	0.02233
627.45519	0.02233
626.16942	0.02206
624.88365	0.02184
623.59788	0.02214
622.31211	0.02324
621.02634	0.02518
619.74057	0.02746
618.45481	0.02912
617.16904	0.02972
615.88327	0.03006
614.59750	0.03150
613.31173	0.03440
612.02596	0.03780
610.74019	0.04078
609.45442	0.04364
608.16866	0.04724
606.88289	0.05166
605.59712	0.05607
604.31135	0.05949
603.02558	0.06131
601.73981	0.06163
600.45404	0.06100
599.16827	0.05990
597.88250	0.05852
596.59674	0.05688
595.31097	0.05514
594.02520	0.05360
592.73943	0.05244
591.45366	0.05171
590.16789	0.05131
588.88212	0.05119
587.59635	0.05133
586.31059	0.05177
585.02482	0.05252
583.73905	0.05363
582.45328	0.05509
581.16751	0.05683
579.88174	0.05866
578.59597	0.06034
577.31020	0.06176
576.02443	0.06294
574.73867	0.06402
573.45290	0.06513
572.16713	0.06636
570.88136	0.06784
569.59559	0.06974
568.30982	0.07208
567.02405	0.07471
565.73828	0.07726
564.45251	0.07934
563.16675	0.08066
561.88098	0.08098
560.59521	0.08024
559.30944	0.07852
558.02367	0.07604
556.73790	0.07305
555.45213	0.06973
554.16636	0.06623
552.88060	0.06274
551.59483	0.05942
550.30906	0.05638
549.02329	0.05366
547.73752	0.05126
546.45175	0.04917
545.16598	0.04735
543.88021	0.04571
542.59444	0.04419
541.30868	0.04275
540.02291	0.04144
538.73714	0.04029
537.45137	0.03932
536.16560	0.03847
534.87983	0.03760
533.59406	0.03661
532.30829	0.03548
531.02253	0.03437
529.73676	0.03348
528.45099	0.03290
527.16522	0.03253
525.87945	0.03217
524.59368	0.03172
523.30791	0.03123
522.02214	0.03085
520.73637	0.03060
519.45061	0.03033
518.16484	0.02988
516.87907	0.02926
515.59330	0.02862
514.30753	0.02813
513.02176	0.02782
511.73599	0.02760
510.45022	0.02738
509.16446	0.02714
507.87869	0.02687
506.59292	0.02658
505.30715	0.02624
504.02138	0.02584
502.73561	0.02543
501.44984	0.02504
500.16407	0.02466
498.87830	0.02428
497.59254	0.02400
496.30677	0.02388
495.02100	0.02390
493.73523	0.02393
492.44946	0.02386
491.16369	0.02369
489.87792	0.02349
488.59215	0.02332
487.30639	0.02314
486.02062	0.02292
484.73485	0.02267
483.44908	0.02243
482.16331	0.02229
480.87754	0.02224
479.59177	0.02224
478.30600	0.02230
477.02023	0.02247
475.73447	0.02271
474.44870	0.02292
473.16293	0.02304
471.87716	0.02307
470.59139	0.02304
469.30562	0.02295
468.01985	0.02279
466.73408	0.02258
465.44832	0.02234
464.16255	0.02210
462.87678	0.02187
461.59101	0.02166
460.30524	0.02146
459.01947	0.02125
457.73370	0.02109
456.44793	0.02095
455.16216	0.02070
453.87640	0.02032
452.59063	0.01990
451.30486	0.01957
450.01909	0.01936
448.73332	0.01925
447.44755	0.01920
446.16178	0.01914
444.87601	0.01905
443.59025	0.01891
442.30448	0.01876
441.01871	0.01863
439.73294	0.01856
438.44717	0.01852
437.16140	0.01848
435.87563	0.01839
434.58986	0.01824
433.30409	0.01807
432.01833	0.01796
430.73256	0.01795
429.44679	0.01797
428.16102	0.01791
426.87525	0.01772
425.58948	0.01747
424.30371	0.01725
423.01794	0.01712
421.73218	0.01704
420.44641	0.01694
419.16064	0.01688
417.87487	0.01687
416.58910	0.01683
415.30333	0.01670
414.01756	0.01652
412.73179	0.01637
411.44602	0.01627
410.16026	0.01619
408.87449	0.01615
407.58872	0.01616
406.30295	0.01624
405.01718	0.01638
403.73141	0.01655
402.44564	0.01668
401.15987	0.01672
399.87411	0.01667
