3997.45528	0.01756
3996.16951	0.01699
3994.88374	0.01663
3993.59798	0.01666
3992.31221	0.01709
3991.02644	0.01773
3989.74067	0.01838
3988.45490	0.01909
3987.16913	0.01997
3985.88336	0.02084
3984.59759	0.02134
3983.31183	0.02134
3982.02606	0.02109
3980.74029	0.02095
3979.45452	0.02096
3978.16875	0.02094
3976.88298	0.02076
3975.59721	0.02044
3974.31144	0.02006
3973.02567	0.01963
3971.73991	0.01916
3970.45414	0.01881
3969.16837	0.01872
3967.88260	0.01889
3966.59683	0.01920
3965.31106	0.01954
3964.02529	0.01980
3962.73952	0.01981
3961.45376	0.01943
3960.16799	0.01873
3958.88222	0.01807
3957.59645	0.01770
3956.31068	0.01757
3955.02491	0.01744
3953.73914	0.01718
3952.45337	0.01697
3951.16760	0.01707
3949.88184	0.01755
3948.59607	0.01821
3947.31030	0.01881
3946.02453	0.01932
3944.73876	0.01988
3943.45299	0.02053
3942.16722	0.02109
3940.88145	0.02131
3939.59569	0.02106
3938.30992	0.02048
3937.02415	0.01986
3935.73838	0.01945
3934.45261	0.01932
3933.16684	0.01925
3931.88107	0.01901
3930.59530	0.01860
3929.30953	0.01830
3928.02377	0.01828
3926.73800	0.01831
3925.45223	0.01800
3924.16646	0.01729
3922.88069	0.01668
3921.59492	0.01673
3920.30915	0.01750
3919.02338	0.01847
3917.73762	0.01907
3916.45185	0.01906
3915.16608	0.01872
3913.88031	0.01842
3912.59454	0.01832
3911.30877	0.01838
3910.02300	0.01848
3908.73723	0.01854
3907.45146	0.01847
3906.16570	0.01819
3904.87993	0.01768
3903.59416	0.01715
3902.30839	0.01703
3901.02262	0.01759
3899.73685	0.01871
3898.45108	0.01985
3897.16531	0.02060
3895.87955	0.02097
3894.59378	0.02108
3893.30801	0.02079
3892.02224	0.01986
3890.73647	0.01853
3889.45070	0.01748
3888.16493	0.01717
3886.87916	0.01741
3885.59339	0.01765
3884.30763	0.01759
3883.02186	0.01732
3881.73609	0.01705
3880.45032	0.01691
3879.16455	0.01690
3877.87878	0.01699
3876.59301	0.01713
3875.30724	0.01726
3874.02148	0.01743
3872.73571	0.01768
3871.44994	0.01800
3870.16417	0.01835
3868.87840	0.01863
3867.59263	0.01874
3866.30686	0.01868
3865.02109	0.01860
3863.73532	0.01870
3862.44956	0.01895
3861.16379	0.01917
3859.87802	0.01925
3858.59225	0.01920
3857.30648	0.01909
3856.02071	0.01888
3854.73494	0.01852
3853.44917	0.01805
3852.16341	0.01761
3850.87764	0.01735
3849.59187	0.01731
3848.30610	0.01733
3847.02033	0.01728
3845.73456	0.01715
3844.44879	0.01712
3843.16302	0.01727
3841.87725	0.01751
3840.59149	0.01766
3839.30572	0.01760
3838.01995	0.01738
3836.73418	0.01718
3835.44841	0.01709
3834.16264	0.01715
3832.87687	0.01733
3831.59110	0.01768
3830.30534	0.01819
3829.01957	0.01876
3827.73380	0.01921
3826.44803	0.01942
3825.16226	0.01938
3823.87649	0.01915
3822.59072	0.01878
3821.30495	0.01841
3820.01918	0.01825
3818.73342	0.01838
3817.44765	0.01861
3816.16188	0.01856
3814.87611	0.01816
3813.59034	0.01769
3812.30457	0.01752
3811.01880	0.01771
3809.73303	0.01797
3808.44726	0.01806
3807.16150	0.01796
3805.87573	0.01782
3804.58996	0.01786
3803.30419	0.01820
3802.01842	0.01877
3800.73265	0.01929
3799.44688	0.01943
3798.16111	0.01913
3796.87535	0.01863
3795.58958	0.01828
3794.30381	0.01835
3793.01804	0.01880
3791.73227	0.01931
3790.44650	0.01937
3789.16073	0.01874
3787.87496	0.01770
3786.58919	0.01682
3785.30343	0.01646
3784.01766	0.01644
3782.73189	0.01641
3781.44612	0.01619
3780.16035	0.01581
3778.87458	0.01536
3777.58881	0.01498
3776.30304	0.01492
3775.01728	0.01535
3773.73151	0.01621
3772.44574	0.01711
3771.15997	0.01762
3769.87420	0.01759
3768.58843	0.01720
3767.30266	0.01678
3766.01689	0.01647
3764.73112	0.01623
3763.44536	0.01605
3762.15959	0.01611
3760.87382	0.01654
3759.58805	0.01719
3758.30228	0.01767
3757.01651	0.01774
3755.73074	0.01753
3754.44497	0.01742
3753.15921	0.01763
3751.87344	0.01800
3750.58767	0.01818
3749.30190	0.01798
3748.01613	0.01759
3746.73036	0.01730
3745.44459	0.01725
3744.15882	0.01733
3742.87305	0.01734
3741.58729	0.01715
3740.30152	0.01682
3739.01575	0.01659
3737.72998	0.01672
3736.44421	0.01731
3735.15844	0.01815
3733.87267	0.01883
3732.58690	0.01903
3731.30114	0.01876
3730.01537	0.01834
3728.72960	0.01800
3727.44383	0.01771
3726.15806	0.01733
3724.87229	0.01696
3723.58652	0.01675
3722.30075	0.01673
3721.01498	0.01681
3719.72922	0.01699
3718.44345	0.01736
3717.15768	0.01784
3715.87191	0.01819
3714.58614	0.01827
3713.30037	0.01826
3712.01460	0.01840
3710.72883	0.01867
3709.44307	0.01873
3708.15730	0.01836
3706.87153	0.01768
3705.58576	0.01710
3704.29999	0.01691
3703.01422	0.01707
3701.72845	0.01733
3700.44268	0.01740
3699.15691	0.01722
3697.87115	0.01722
3696.58538	0.01774
3695.29961	0.01836
3694.01384	0.01829
3692.72807	0.01742
3691.44230	0.01629
3690.15653	0.01555
3688.87076	0.01539
3687.58500	0.01549
3686.29923	0.01544
3685.01346	0.01533
3683.72769	0.01544
3682.44192	0.01580
3681.15615	0.01634
3679.87038	0.01693
3678.58461	0.01747
3677.29884	0.01791
3676.01308	0.01814
3674.72731	0.01814
3673.44154	0.01807
3672.15577	0.01811
3670.87000	0.01831
3669.58423	0.01853
3668.29846	0.01865
3667.01269	0.01872
3665.72693	0.01880
3664.44116	0.01896
3663.15539	0.01922
3661.86962	0.01955
3660.58385	0.01972
3659.29808	0.01945
3658.01231	0.01874
3656.72654	0.01797
3655.44077	0.01761
3654.15501	0.01786
3652.86924	0.01855
3651.58347	0.01934
3650.29770	0.01991
3649.01193	0.02017
3647.72616	0.02027
3646.44039	0.02042
3645.15462	0.02063
3643.86886	0.02081
3642.58309	0.02091
3641.29732	0.02109
3640.01155	0.02156
3638.72578	0.02230
3637.44001	0.02298
3636.15424	0.02322
3634.86847	0.02294
3633.58270	0.02238
3632.29694	0.02187
3631.01117	0.02163
3629.72540	0.02162
3628.43963	0.02164
3627.15386	0.02158
3625.86809	0.02147
3624.58232	0.02151
3623.29655	0.02171
3622.01079	0.02191
3620.72502	0.02193
3619.43925	0.02176
3618.15348	0.02156
3616.86771	0.02160
3615.58194	0.02206
3614.29617	0.02293
3613.01040	0.02390
3611.72463	0.02460
3610.43887	0.02483
3609.15310	0.02468
3607.86733	0.02439
3606.58156	0.02417
3605.29579	0.02403
3604.01002	0.02385
3602.72425	0.02355
3601.43848	0.02332
3600.15272	0.02352
3598.86695	0.02426
3597.58118	0.02524
3596.29541	0.02595
3595.00964	0.02601
3593.72387	0.02548
3592.43810	0.02495
3591.15233	0.02498
3589.86656	0.02555
3588.58080	0.02622
3587.29503	0.02661
3586.00926	0.02664
3584.72349	0.02650
3583.43772	0.02657
3582.15195	0.02707
3580.86618	0.02790
3579.58041	0.02875
3578.29464	0.02929
3577.00888	0.02940
3575.72311	0.02937
3574.43734	0.02959
3573.15157	0.03021
3571.86580	0.03102
3570.58003	0.03167
3569.29426	0.03200
3568.00849	0.03206
3566.72273	0.03196
3565.43696	0.03176
3564.15119	0.03145
3562.86542	0.03105
3561.57965	0.03061
3560.29388	0.03027
3559.00811	0.03006
3557.72234	0.02988
3556.43657	0.02973
3555.15081	0.02978
3553.86504	0.03020
3552.57927	0.03093
3551.29350	0.03168
3550.00773	0.03222
3548.72196	0.03254
3547.43619	0.03270
3546.15042	0.03266
3544.86466	0.03243
3543.57889	0.03224
3542.29312	0.03244
3541.00735	0.03310
3539.72158	0.03392
3538.43581	0.03448
3537.15004	0.03460
3535.86427	0.03453
3534.57850	0.03454
3533.29274	0.03461
3532.00697	0.03453
3530.72120	0.03433
3529.43543	0.03427
3528.14966	0.03454
3526.86389	0.03499
3525.57812	0.03537
3524.29235	0.03550
3523.00659	0.03538
3521.72082	0.03516
3520.43505	0.03510
3519.14928	0.03533
3517.86351	0.03572
3516.57774	0.03604
3515.29197	0.03624
3514.00620	0.03640
3512.72043	0.03655
3511.43467	0.03665
3510.14890	0.03665
3508.86313	0.03663
3507.57736	0.03659
3506.29159	0.03652
3505.00582	0.03647
3503.72005	0.03659
3502.43428	0.03690
3501.14852	0.03716
3499.86275	0.03714
3498.57698	0.03687
3497.29121	0.03656
3496.00544	0.03631
3494.71967	0.03604
3493.43390	0.03576
3492.14813	0.03570
3490.86236	0.03605
3489.57660	0.03667
3488.29083	0.03721
3487.00506	0.03743
3485.71929	0.03743
3484.43352	0.03754
3483.14775	0.03803
3481.86198	0.03881
3480.57621	0.03950
3479.29045	0.03970
3478.00468	0.03936
3476.71891	0.03883
3475.43314	0.03858
3474.14737	0.03879
3472.86160	0.03920
3471.57583	0.03940
3470.29006	0.03924
3469.00429	0.03891
3467.71853	0.03866
3466.43276	0.03862
3465.14699	0.03877
3463.86122	0.03902
3462.57545	0.03926
3461.28968	0.03943
3460.00391	0.03952
3458.71814	0.03954
3457.43238	0.03954
3456.14661	0.03961
3454.86084	0.03981
3453.57507	0.04007
3452.28930	0.04025
3451.00353	0.04028
3449.71776	0.04030
3448.43199	0.04048
3447.14622	0.04081
3445.86046	0.04104
3444.57469	0.04097
3443.28892	0.04061
3442.00315	0.04025
3440.71738	0.04020
3439.43161	0.04059
3438.14584	0.04131
3436.86007	0.04210
3435.57431	0.04268
3434.28854	0.04287
3433.00277	0.04273
3431.71700	0.04247
3430.43123	0.04232
3429.14546	0.04240
3427.85969	0.04255
3426.57392	0.04252
3425.28815	0.04219
3424.00239	0.04176
3422.71662	0.04156
3421.43085	0.04173
3420.14508	0.04212
3418.85931	0.04246
3417.57354	0.04257
3416.28777	0.04242
3415.00200	0.04205
3413.71624	0.04160
3412.43047	0.04133
3411.14470	0.04147
3409.85893	0.04201
3408.57316	0.04263
3407.28739	0.04302
3406.00162	0.04309
3404.71585	0.04302
3403.43008	0.04297
3402.14432	0.04297
3400.85855	0.04298
3399.57278	0.04297
3398.28701	0.04291
3397.00124	0.04281
3395.71547	0.04274
3394.42970	0.04276
3393.14393	0.04290
3391.85817	0.04317
3390.57240	0.04352
3389.28663	0.04388
3388.00086	0.04407
3386.71509	0.04390
3385.42932	0.04338
3384.14355	0.04281
3382.85778	0.04250
3381.57201	0.04256
3380.28625	0.04283
3379.00048	0.04304
3377.71471	0.04295
3376.42894	0.04255
3375.14317	0.04206
3373.85740	0.04181
3372.57163	0.04198
3371.28586	0.04244
3370.00010	0.04281
3368.71433	0.04287
3367.42856	0.04263
3366.14279	0.04237
3364.85702	0.04240
3363.57125	0.04284
3362.28548	0.04350
3360.99971	0.04400
3359.71394	0.04415
3358.42818	0.04407
3357.14241	0.04399
3355.85664	0.04392
3354.57087	0.04371
3353.28510	0.04330
3351.99933	0.04286
3350.71356	0.04255
3349.42779	0.04240
3348.14202	0.04232
3346.85626	0.04229
3345.57049	0.04235
3344.28472	0.04255
3342.99895	0.04287
3341.71318	0.04325
3340.42741	0.04353
3339.14164	0.04352
3337.85587	0.04318
3336.57011	0.04262
3335.28434	0.04211
3333.99857	0.04184
3332.71280	0.04187
3331.42703	0.04211
3330.14126	0.04240
3328.85549	0.04262
3327.56972	0.04267
3326.28395	0.04255
3324.99819	0.04234
3323.71242	0.04222
3322.42665	0.04230
3321.14088	0.04246
3319.85511	0.04244
3318.56934	0.04207
3317.28357	0.04149
3315.99780	0.04100
3314.71204	0.04081
3313.42627	0.04089
3312.14050	0.04112
3310.85473	0.04138
3309.56896	0.04164
3308.28319	0.04193
3306.99742	0.04231
3305.71165	0.04275
3304.42588	0.04308
3303.14012	0.04302
3301.85435	0.04256
3300.56858	0.04193
3299.28281	0.04146
3297.99704	0.04129
3296.71127	0.04131
3295.42550	0.04145
3294.13973	0.04167
3292.85397	0.04194
3291.56820	0.04208
3290.28243	0.04198
3288.99666	0.04169
3287.71089	0.04144
3286.42512	0.04143
3285.13935	0.04164
3283.85358	0.04189
3282.56781	0.04206
3281.28205	0.04216
3279.99628	0.04224
3278.71051	0.04237
3277.42474	0.04252
3276.13897	0.04265
3274.85320	0.04268
3273.56743	0.04256
3272.28166	0.04227
3270.99590	0.04193
3269.71013	0.04167
3268.42436	0.04152
3267.13859	0.04135
3265.85282	0.04104
3264.56705	0.04062
3263.28128	0.04019
3261.99551	0.03983
3260.70974	0.03956
3259.42398	0.03948
3258.13821	0.03961
3256.85244	0.03985
3255.56667	0.03999
3254.28090	0.03998
3252.99513	0.03991
3251.70936	0.03995
3250.42359	0.04008
3249.13783	0.04015
3247.85206	0.04001
3246.56629	0.03968
3245.28052	0.03930
3243.99475	0.03900
3242.70898	0.03890
3241.42321	0.03910
3240.13744	0.03954
3238.85167	0.04005
3237.56591	0.04038
3236.28014	0.04034
3234.99437	0.03986
3233.70860	0.03901
3232.42283	0.03801
3231.13706	0.03721
3229.85129	0.03686
3228.56552	0.03700
3227.27976	0.03741
3225.99399	0.03791
3224.70822	0.03840
3223.42245	0.03880
3222.13668	0.03905
3220.85091	0.03913
3219.56514	0.03912
3218.27937	0.03911
3216.99360	0.03912
3215.70784	0.03908
3214.42207	0.03895
3213.13630	0.03869
3211.85053	0.03831
3210.56476	0.03788
3209.27899	0.03756
3207.99322	0.03757
3206.70745	0.03794
3205.42169	0.03855
3204.13592	0.03910
3202.85015	0.03939
3201.56438	0.03937
3200.27861	0.03915
3198.99284	0.03896
3197.70707	0.03890
3196.42130	0.03883
3195.13553	0.03847
3193.84977	0.03773
3192.56400	0.03691
3191.27823	0.03641
3189.99246	0.03634
3188.70669	0.03650
3187.42092	0.03669
3186.13515	0.03684
3184.84938	0.03698
3183.56362	0.03708
3182.27785	0.03704
3180.99208	0.03681
3179.70631	0.03644
3178.42054	0.03611
3177.13477	0.03596
3175.84900	0.03606
3174.56323	0.03628
3173.27746	0.03639
3171.99170	0.03626
3170.70593	0.03601
3169.42016	0.03594
3168.13439	0.03624
3166.84862	0.03678
3165.56285	0.03718
3164.27708	0.03717
3162.99131	0.03679
3161.70555	0.03627
3160.41978	0.03582
3159.13401	0.03557
3157.84824	0.03548
3156.56247	0.03553
3155.27670	0.03567
3153.99093	0.03583
3152.70516	0.03587
3151.41939	0.03569
3150.13363	0.03539
3148.84786	0.03520
3147.56209	0.03528
3146.27632	0.03555
3144.99055	0.03579
3143.70478	0.03585
3142.41901	0.03577
3141.13324	0.03570
3139.84748	0.03576
3138.56171	0.03593
3137.27594	0.03612
3135.99017	0.03620
3134.70440	0.03610
3133.41863	0.03577
3132.13286	0.03526
3130.84709	0.03470
3129.56132	0.03421
3128.27556	0.03382
3126.98979	0.03351
3125.70402	0.03326
3124.41825	0.03310
3123.13248	0.03300
3121.84671	0.03290
3120.56094	0.03285
3119.27517	0.03295
3117.98940	0.03323
3116.70364	0.03355
3115.41787	0.03374
3114.13210	0.03366
3112.84633	0.03334
3111.56056	0.03287
3110.27479	0.03247
3108.98902	0.03227
3107.70325	0.03230
3106.41749	0.03241
3105.13172	0.03245
3103.84595	0.03240
3102.56018	0.03232
3101.27441	0.03226
3099.98864	0.03224
3098.70287	0.03220
3097.41710	0.03215
3096.13133	0.03215
3094.84557	0.03227
3093.55980	0.03248
3092.27403	0.03262
3090.98826	0.03253
3089.70249	0.03228
3088.41672	0.03207
3087.13095	0.03207
3085.84518	0.03229
3084.55942	0.03255
3083.27365	0.03264
3081.98788	0.03243
3080.70211	0.03199
3079.41634	0.03154
3078.13057	0.03125
3076.84480	0.03110
3075.55903	0.03096
3074.27326	0.03082
3072.98750	0.03076
3071.70173	0.03086
3070.41596	0.03113
3069.13019	0.03155
3067.84442	0.03201
3066.55865	0.03226
3065.27288	0.03210
3063.98711	0.03163
3062.70135	0.03110
3061.41558	0.03074
3060.12981	0.03056
3058.84404	0.03048
3057.55827	0.03047
3056.27250	0.03053
3054.98673	0.03064
3053.70096	0.03079
3052.41519	0.03096
3051.12943	0.03104
3049.84366	0.03092
3048.55789	0.03064
3047.27212	0.03037
3045.98635	0.03033
3044.70058	0.03048
3043.41481	0.03062
3042.12904	0.03054
3040.84328	0.03028
3039.55751	0.03002
3038.27174	0.02991
3036.98597	0.02988
3035.70020	0.02984
3034.41443	0.02975
3033.12866	0.02965
3031.84289	0.02955
3030.55712	0.02939
3029.27136	0.02913
3027.98559	0.02882
3026.69982	0.02859
3025.41405	0.02854
3024.12828	0.02864
3022.84251	0.02879
3021.55674	0.02889
3020.27097	0.02892
3018.98521	0.02896
3017.69944	0.02905
3016.41367	0.02913
3015.12790	0.02908
3013.84213	0.02879
3012.55636	0.02830
3011.27059	0.02785
3009.98482	0.02765
3008.69905	0.02774
3007.41329	0.02801
3006.12752	0.02828
3004.84175	0.02851
3003.55598	0.02868
3002.27021	0.02879
3000.98444	0.02879
2999.69867	0.02872
2998.41290	0.02865
2997.12714	0.02860
2995.84137	0.02848
2994.55560	0.02819
2993.26983	0.02776
2991.98406	0.02731
2990.69829	0.02696
2989.41252	0.02682
2988.12675	0.02692
2986.84098	0.02726
2985.55522	0.02771
2984.26945	0.02802
2982.98368	0.02805
2981.69791	0.02795
2980.41214	0.02803
2979.12637	0.02840
2977.84060	0.02882
2976.55483	0.02895
2975.26907	0.02875
2973.98330	0.02843
2972.69753	0.02827
2971.41176	0.02831
2970.12599	0.02838
2968.84022	0.02834
2967.55445	0.02825
2966.26868	0.02827
2964.98291	0.02841
2963.69715	0.02851
2962.41138	0.02847
2961.12561	0.02839
2959.83984	0.02840
2958.55407	0.02847
2957.26830	0.02855
2955.98253	0.02867
2954.69676	0.02888
2953.41100	0.02913
2952.12523	0.02930
2950.83946	0.02934
2949.55369	0.02928
2948.26792	0.02923
2946.98215	0.02928
2945.69638	0.02936
2944.41061	0.02931
2943.12484	0.02903
2941.83908	0.02863
2940.55331	0.02828
2939.26754	0.02808
2937.98177	0.02798
2936.69600	0.02797
2935.41023	0.02804
2934.12446	0.02811
2932.83869	0.02803
2931.55293	0.02778
2930.26716	0.02755
2928.98139	0.02748
2927.69562	0.02757
2926.40985	0.02769
2925.12408	0.02771
2923.83831	0.02763
2922.55254	0.02761
2921.26677	0.02776
2919.98101	0.02798
2918.69524	0.02803
2917.40947	0.02775
2916.12370	0.02725
2914.83793	0.02678
2913.55216	0.02654
2912.26639	0.02650
2910.98062	0.02653
2909.69486	0.02656
2908.40909	0.02656
2907.12332	0.02654
2905.83755	0.02646
2904.55178	0.02633
2903.26601	0.02620
2901.98024	0.02615
2900.69447	0.02620
2899.40870	0.02628
2898.12294	0.02631
2896.83717	0.02621
2895.55140	0.02599
2894.26563	0.02570
2892.97986	0.02543
2891.69409	0.02527
2890.40832	0.02522
2889.12255	0.02522
2887.83678	0.02515
2886.55102	0.02501
2885.26525	0.02487
2883.97948	0.02473
2882.69371	0.02450
2881.40794	0.02413
2880.12217	0.02375
2878.83640	0.02358
2877.55063	0.02367
2876.26487	0.02392
2874.97910	0.02419
2873.69333	0.02439
2872.40756	0.02451
2871.12179	0.02458
2869.83602	0.02462
2868.55025	0.02463
2867.26448	0.02461
2865.97871	0.02458
2864.69295	0.02451
2863.40718	0.02430
2862.12141	0.02386
2860.83564	0.02329
2859.54987	0.02279
2858.26410	0.02254
2856.97833	0.02255
2855.69256	0.02273
2854.40680	0.02300
2853.12103	0.02326
2851.83526	0.02346
2850.54949	0.02358
2849.26372	0.02363
2847.97795	0.02363
2846.69218	0.02356
2845.40641	0.02343
2844.12064	0.02326
2842.83488	0.02306
2841.54911	0.02277
2840.26334	0.02240
2838.97757	0.02202
2837.69180	0.02181
2836.40603	0.02188
2835.12026	0.02216
2833.83449	0.02243
2832.54873	0.02246
2831.26296	0.02225
2829.97719	0.02193
2828.69142	0.02168
2827.40565	0.02152
2826.11988	0.02142
2824.83411	0.02129
2823.54834	0.02111
2822.26257	0.02090
2820.97681	0.02071
2819.69104	0.02061
2818.40527	0.02059
2817.11950	0.02064
2815.83373	0.02071
2814.54796	0.02075
2813.26219	0.02071
2811.97642	0.02059
2810.69066	0.02039
2809.40489	0.02018
2808.11912	0.02005
2806.83335	0.02006
2805.54758	0.02017
2804.26181	0.02025
2802.97604	0.02027
2801.69027	0.02023
2800.40450	0.02017
2799.11874	0.02008
2797.83297	0.01993
2796.54720	0.01973
2795.26143	0.01954
2793.97566	0.01944
2792.68989	0.01946
2791.40412	0.01959
2790.11835	0.01975
2788.83259	0.01982
2787.54682	0.01977
2786.26105	0.01966
2784.97528	0.01957
2783.68951	0.01948
2782.40374	0.01932
2781.11797	0.01911
2779.83220	0.01894
2778.54643	0.01890
2777.26067	0.01893
2775.97490	0.01893
2774.68913	0.01889
2773.40336	0.01888
2772.11759	0.01898
2770.83182	0.01913
2769.54605	0.01921
2768.26028	0.01917
2766.97452	0.01908
2765.68875	0.01906
2764.40298	0.01916
2763.11721	0.01936
2761.83144	0.01955
2760.54567	0.01959
2759.25990	0.01940
2757.97413	0.01907
2756.68836	0.01877
2755.40260	0.01857
2754.11683	0.01847
2752.83106	0.01843
2751.54529	0.01840
2750.25952	0.01838
2748.97375	0.01836
2747.68798	0.01837
2746.40221	0.01840
2745.11645	0.01847
2743.83068	0.01859
2742.54491	0.01877
2741.25914	0.01896
2739.97337	0.01909
2738.68760	0.01911
2737.40183	0.01897
2736.11606	0.01870
2734.83029	0.01841
2733.54453	0.01821
2732.25876	0.01816
2730.97299	0.01824
2729.68722	0.01834
2728.40145	0.01835
2727.11568	0.01820
2725.82991	0.01794
2724.54414	0.01771
2723.25838	0.01759
2721.97261	0.01758
2720.68684	0.01762
2719.40107	0.01770
2718.11530	0.01786
2716.82953	0.01812
2715.54376	0.01839
2714.25799	0.01850
2712.97222	0.01837
2711.68646	0.01804
2710.40069	0.01764
2709.11492	0.01730
2707.82915	0.01706
2706.54338	0.01690
2705.25761	0.01680
2703.97184	0.01681
2702.68607	0.01698
2701.40031	0.01731
2700.11454	0.01769
2698.82877	0.01802
2697.54300	0.01820
2696.25723	0.01823
2694.97146	0.01816
2693.68569	0.01804
2692.39992	0.01791
2691.11415	0.01776
2689.82839	0.01761
2688.54262	0.01754
2687.25685	0.01756
2685.97108	0.01766
2684.68531	0.01774
2683.39954	0.01772
2682.11377	0.01757
2680.82800	0.01733
2679.54224	0.01715
2678.25647	0.01713
2676.97070	0.01727
2675.68493	0.01744
2674.39916	0.01747
2673.11339	0.01730
2671.82762	0.01700
2670.54185	0.01675
2669.25608	0.01670
2667.97032	0.01686
2666.68455	0.01711
2665.39878	0.01729
2664.11301	0.01727
2662.82724	0.01709
2661.54147	0.01689
2660.25570	0.01678
2658.96993	0.01678
2657.68417	0.01684
2656.39840	0.01694
2655.11263	0.01705
2653.82686	0.01712
2652.54109	0.01710
2651.25532	0.01703
2649.96955	0.01698
2648.68378	0.01696
2647.39801	0.01692
2646.11225	0.01682
2644.82648	0.01666
2643.54071	0.01650
2642.25494	0.01639
2640.96917	0.01637
2639.68340	0.01640
2638.39763	0.01637
2637.11186	0.01621
2635.82609	0.01603
2634.54033	0.01595
2633.25456	0.01603
2631.96879	0.01613
2630.68302	0.01606
2629.39725	0.01575
2628.11148	0.01536
2626.82571	0.01520
2625.53994	0.01538
2624.25418	0.01570
2622.96841	0.01591
2621.68264	0.01593
2620.39687	0.01584
2619.11110	0.01574
2617.82533	0.01561
2616.53956	0.01541
2615.25379	0.01516
2613.96802	0.01493
2612.68226	0.01470
2611.39649	0.01450
2610.11072	0.01440
2608.82495	0.01450
2607.53918	0.01476
2606.25341	0.01499
2604.96764	0.01503
2603.68187	0.01485
2602.39611	0.01457
2601.11034	0.01430
2599.82457	0.01412
2598.53880	0.01402
2597.25303	0.01399
2595.96726	0.01409
2594.68149	0.01440
2593.39572	0.01482
2592.10995	0.01505
2590.82419	0.01490
2589.53842	0.01448
2588.25265	0.01409
2586.96688	0.01396
2585.68111	0.01416
2584.39534	0.01463
2583.10957	0.01514
2581.82380	0.01535
2580.53804	0.01515
2579.25227	0.01482
2577.96650	0.01470
2576.68073	0.01480
2575.39496	0.01486
2574.10919	0.01464
2572.82342	0.01419
2571.53765	0.01369
2570.25188	0.01332
2568.96612	0.01323
2567.68035	0.01341
2566.39458	0.01367
2565.10881	0.01380
2563.82304	0.01380
2562.53727	0.01377
2561.25150	0.01379
2559.96573	0.01381
2558.67997	0.01378
2557.39420	0.01379
2556.10843	0.01391
2554.82266	0.01403
2553.53689	0.01402
2552.25112	0.01382
2550.96535	0.01355
2549.67958	0.01332
2548.39381	0.01321
2547.10805	0.01330
2545.82228	0.01361
2544.53651	0.01401
2543.25074	0.01422
2541.96497	0.01410
2540.67920	0.01369
2539.39343	0.01320
2538.10766	0.01285
2536.82190	0.01270
2535.53613	0.01271
2534.25036	0.01273
2532.96459	0.01271
2531.67882	0.01265
2530.39305	0.01260
2529.10728	0.01252
2527.82151	0.01237
2526.53574	0.01222
2525.24998	0.01223
2523.96421	0.01250
2522.67844	0.01288
2521.39267	0.01305
2520.10690	0.01277
2518.82113	0.01221
2517.53536	0.01177
2516.24959	0.01166
2514.96383	0.01175
2513.67806	0.01181
2512.39229	0.01179
2511.10652	0.01177
2509.82075	0.01178
2508.53498	0.01183
2507.24921	0.01197
2505.96344	0.01223
2504.67767	0.01256
2503.39191	0.01289
2502.10614	0.01320
2500.82037	0.01346
2499.53460	0.01357
2498.24883	0.01346
2496.96306	0.01322
2495.67729	0.01297
2494.39152	0.01273
2493.10576	0.01242
2491.81999	0.01194
2490.53422	0.01138
2489.24845	0.01094
2487.96268	0.01092
2486.67691	0.01143
2485.39114	0.01220
2484.10537	0.01281
2482.81960	0.01298
2481.53384	0.01277
2480.24807	0.01238
2478.96230	0.01193
2477.67653	0.01151
2476.39076	0.01125
2475.10499	0.01128
2473.81922	0.01147
2472.53345	0.01163
2471.24769	0.01168
2469.96192	0.01170
2468.67615	0.01175
2467.39038	0.01185
2466.10461	0.01206
2464.81884	0.01245
2463.53307	0.01293
2462.24730	0.01328
2460.96153	0.01341
2459.67577	0.01341
2458.39000	0.01332
2457.10423	0.01304
2455.81846	0.01258
2454.53269	0.01216
2453.24692	0.01201
2451.96115	0.01213
2450.67538	0.01232
2449.38962	0.01237
2448.10385	0.01224
2446.81808	0.01210
2445.53231	0.01216
2444.24654	0.01246
2442.96077	0.01280
2441.67500	0.01292
2440.38923	0.01272
2439.10346	0.01229
2437.81770	0.01182
2436.53193	0.01148
2435.24616	0.01136
2433.96039	0.01143
2432.67462	0.01153
2431.38885	0.01155
2430.10308	0.01151
2428.81731	0.01148
2427.53155	0.01149
2426.24578	0.01146
2424.96001	0.01136
2423.67424	0.01118
2422.38847	0.01100
2421.10270	0.01082
2419.81693	0.01067
2418.53116	0.01059
2417.24539	0.01059
2415.95963	0.01061
2414.67386	0.01057
2413.38809	0.01055
2412.10232	0.01068
2410.81655	0.01100
2409.53078	0.01133
2408.24501	0.01142
2406.95924	0.01122
2405.67347	0.01090
2404.38771	0.01068
2403.10194	0.01053
2401.81617	0.01031
2400.53040	0.01007
2399.24463	0.01014
2397.95886	0.01030
2396.67309	0.01044
2395.38732	0.01051
2394.10156	0.01052
2392.81579	0.01055
2391.53002	0.01062
2390.24425	0.01061
2388.95848	0.01047
2387.67271	0.01028
2386.38694	0.01022
2385.10117	0.01038
2383.81540	0.01073
2382.52964	0.01113
2381.24387	0.01142
2379.95810	0.01147
2378.67233	0.01129
2377.38656	0.01106
2376.10079	0.01098
2374.81502	0.01097
2373.52925	0.01097
2372.24349	0.01085
2370.95772	0.01065
2369.67195	0.01030
2368.38618	0.01006
2367.10041	0.01015
2365.81464	0.01059
2364.52887	0.01097
2363.24310	0.01120
2361.95733	0.01151
2360.67157	0.01212
2359.38580	0.01247
2358.10003	0.01226
2356.81426	0.01167
2355.52849	0.01104
2354.24272	0.01061
2352.95695	0.01051
2351.67118	0.01094
2350.38542	0.01147
2349.09965	0.01145
2347.81388	0.01099
2346.52811	0.01113
2345.24234	0.01166
2343.95657	0.01140
2342.67080	0.01044
2341.38503	0.01072
2340.09926	0.01223
2338.81350	0.01225
2337.52773	0.01072
2336.24196	0.01114
2334.95619	0.01306
2333.67042	0.01291
2332.38465	0.01160
2331.09888	0.01277
2329.81311	0.01404
2328.52735	0.01295
2327.24158	0.01339
2325.95581	0.01464
2324.67004	0.01359
2323.38427	0.01273
2322.09850	0.01281
2320.81273	0.01150
2319.52696	0.01101
2318.24119	0.01130
2316.95543	0.01068
2315.66966	0.01053
2314.38389	0.01066
2313.09812	0.01038
2311.81235	0.01068
2310.52658	0.01089
2309.24081	0.01096
2307.95504	0.01110
2306.66928	0.01082
2305.38351	0.01057
2304.09774	0.01037
2302.81197	0.01025
2301.52620	0.01045
2300.24043	0.01070
2298.95466	0.01102
2297.66889	0.01126
2296.38312	0.01133
2295.09736	0.01125
2293.81159	0.01100
2292.52582	0.01075
2291.24005	0.01061
2289.95428	0.01079
2288.66851	0.01127
2287.38274	0.01183
2286.09697	0.01208
2284.81121	0.01175
2283.52544	0.01093
2282.23967	0.01000
2280.95390	0.00933
2279.66813	0.00909
2278.38236	0.00926
2277.09659	0.00965
2275.81082	0.01003
2274.52505	0.01028
2273.23929	0.01037
2271.95352	0.01030
2270.66775	0.01009
2269.38198	0.00980
2268.09621	0.00964
2266.81044	0.00981
2265.52467	0.01023
2264.23890	0.01053
2262.95314	0.01038
2261.66737	0.00977
2260.38160	0.00896
2259.09583	0.00832
2257.81006	0.00818
2256.52429	0.00849
2255.23852	0.00892
2253.95275	0.00914
2252.66698	0.00909
2251.38122	0.00891
2250.09545	0.00857
2248.80968	0.00802
2247.52391	0.00807
2246.23814	0.00817
2244.95237	0.00823
2243.66660	0.00811
2242.38083	0.00766
2241.09507	0.00694
2239.80930	0.00631
2238.52353	0.00616
2237.23776	0.00656
2235.95199	0.00714
2234.66622	0.00761
2233.38045	0.00796
2232.09468	0.00825
2230.80891	0.00831
2229.52315	0.00794
2228.23738	0.00723
2226.95161	0.00649
2225.66584	0.00588
2224.38007	0.00548
2223.09430	0.00542
2221.80853	0.00580
2220.52276	0.00643
2219.23700	0.00691
2217.95123	0.00699
2216.66546	0.00678
2215.37969	0.00658
2214.09392	0.00653
2212.80815	0.00662
2211.52238	0.00675
2210.23661	0.00682
2208.95084	0.00675
2207.66508	0.00653
2206.37931	0.00629
2205.09354	0.00615
2203.80777	0.00597
2202.52200	0.00557
2201.23623	0.00502
2199.95046	0.00465
2198.66469	0.00463
2197.37893	0.00477
2196.09316	0.00496
2194.80739	0.00531
2193.52162	0.00586
2192.23585	0.00636
2190.95008	0.00647
2189.66431	0.00621
2188.37854	0.00594
2187.09277	0.00599
2185.80701	0.00631
2184.52124	0.00654
2183.23547	0.00634
2181.94970	0.00566
2180.66393	0.00487
2179.37816	0.00432
2178.09239	0.00396
2176.80662	0.00348
2175.52085	0.00279
2174.23509	0.00216
2172.94932	0.00164
2171.66355	0.00092
2170.37778	-0.00011
2169.09201	-0.00088
2167.80624	-0.00078
2166.52047	0.00009
2165.23470	0.00105
2163.94894	0.00163
2162.66317	0.00173
2161.37740	0.00136
2160.09163	0.00069
2158.80586	0.00030
2157.52009	0.00071
2156.23432	0.00175
2154.94855	0.00266
2153.66278	0.00280
2152.37702	0.00203
2151.09125	0.00070
2149.80548	-0.00048
2148.51971	-0.00085
2147.23394	-0.00035
2145.94817	0.00046
2144.66240	0.00101
2143.37663	0.00122
2142.09087	0.00130
2140.80510	0.00131
2139.51933	0.00121
2138.23356	0.00114
2136.94779	0.00135
2135.66202	0.00192
2134.37625	0.00260
2133.09048	0.00304
2131.80471	0.00306
2130.51895	0.00277
2129.23318	0.00247
2127.94741	0.00241
2126.66164	0.00273
2125.37587	0.00334
2124.09010	0.00403
2122.80433	0.00462
2121.51856	0.00501
2120.23280	0.00520
2118.94703	0.00518
2117.66126	0.00494
2116.37549	0.00462
2115.08972	0.00442
2113.80395	0.00444
2112.51818	0.00458
2111.23241	0.00454
2109.94664	0.00411
2108.66088	0.00329
2107.37511	0.00242
2106.08934	0.00202
2104.80357	0.00232
2103.51780	0.00305
2102.23203	0.00361
2100.94626	0.00367
2099.66049	0.00365
2098.37473	0.00334
2097.08896	0.00304
2095.80319	0.00287
2094.51742	0.00266
2093.23165	0.00222
2091.94588	0.00173
2090.66011	0.00158
2089.37434	0.00205
2088.08857	0.00297
2086.80281	0.00380
2085.51704	0.00405
2084.23127	0.00371
2082.94550	0.00317
2081.65973	0.00289
2080.37396	0.00303
2079.08819	0.00340
2077.80242	0.00365
2076.51666	0.00363
2075.23089	0.00347
2073.94512	0.00347
2072.65935	0.00378
2071.37358	0.00417
2070.08781	0.00414
2068.80204	0.00340
2067.51627	0.00214
2066.23050	0.00095
2064.94474	0.00034
2063.65897	0.00039
2062.37320	0.00075
2061.08743	0.00098
2059.80166	0.00082
2058.51589	0.00033
2057.23012	-0.00020
2055.94435	-0.00031
2054.65859	0.00023
2053.37282	0.00110
2052.08705	0.00158
2050.80128	0.00120
2049.51551	0.00017
2048.22974	-0.00089
2046.94397	-0.00159
2045.65820	-0.00198
2044.37243	-0.00217
2043.08667	-0.00216
2041.80090	-0.00204
2040.51513	-0.00206
2039.22936	-0.00222
2037.94359	-0.00221
2036.65782	-0.00176
2035.37205	-0.00105
2034.08628	-0.00059
2032.80052	-0.00067
2031.51475	-0.00115
2030.22898	-0.00161
2028.94321	-0.00167
2027.65744	-0.00125
2026.37167	-0.00068
2025.08590	-0.00036
2023.80013	-0.00026
2022.51436	-0.00005
2021.22860	0.00033
2019.94283	0.00057
2018.65706	0.00051
2017.37129	0.00049
2016.08552	0.00089
2014.79975	0.00161
2013.51398	0.00214
2012.22821	0.00204
2010.94245	0.00121
2009.65668	-0.00005
2008.37091	-0.00116
2007.08514	-0.00153
2005.79937	-0.00100
2004.51360	0.00015
2003.22783	0.00151
2001.94206	0.00280
2000.65629	0.00390
1999.37053	0.00483
1998.08476	0.00555
1996.79899	0.00587
1995.51322	0.00561
1994.22745	0.00488
1992.94168	0.00417
1991.65591	0.00397
1990.37014	0.00435
1989.08438	0.00478
1987.79861	0.00466
1986.51284	0.00388
1985.22707	0.00305
1983.94130	0.00294
1982.65553	0.00368
1981.36976	0.00470
1980.08399	0.00527
1978.79822	0.00515
1977.51246	0.00458
1976.22669	0.00390
1974.94092	0.00326
1973.65515	0.00269
1972.36938	0.00222
1971.08361	0.00193
1969.79784	0.00189
1968.51207	0.00209
1967.22631	0.00237
1965.94054	0.00250
1964.65477	0.00239
1963.36900	0.00222
1962.08323	0.00227
1960.79746	0.00268
1959.51169	0.00323
1958.22592	0.00359
1956.94015	0.00366
1955.65439	0.00356
1954.36862	0.00346
1953.08285	0.00340
1951.79708	0.00335
1950.51131	0.00335
1949.22554	0.00348
1947.93977	0.00377
1946.65400	0.00412
1945.36823	0.00442
1944.08247	0.00464
1942.79670	0.00493
1941.51093	0.00539
1940.22516	0.00592
1938.93939	0.00622
1937.65362	0.00613
1936.36785	0.00576
1935.08208	0.00532
1933.79632	0.00495
1932.51055	0.00467
1931.22478	0.00450
1929.93901	0.00443
1928.65324	0.00443
1927.36747	0.00446
1926.08170	0.00459
1924.79593	0.00490
1923.51016	0.00528
1922.22440	0.00550
1920.93863	0.00543
1919.65286	0.00522
1918.36709	0.00509
1917.08132	0.00516
1915.79555	0.00541
1914.50978	0.00572
1913.22401	0.00595
1911.93825	0.00606
1910.65248	0.00616
1909.36671	0.00633
1908.08094	0.00653
1906.79517	0.00660
1905.50940	0.00649
1904.22363	0.00636
1902.93786	0.00640
1901.65209	0.00661
1900.36633	0.00680
1899.08056	0.00682
1897.79479	0.00668
1896.50902	0.00648
1895.22325	0.00631
1893.93748	0.00620
1892.65171	0.00615
1891.36594	0.00616
1890.08018	0.00616
1888.79441	0.00609
1887.50864	0.00591
1886.22287	0.00565
1884.93710	0.00541
1883.65133	0.00529
1882.36556	0.00534
1881.07979	0.00557
1879.79402	0.00590
1878.50826	0.00619
1877.22249	0.00634
1875.93672	0.00633
1874.65095	0.00629
1873.36518	0.00630
1872.07941	0.00636
1870.79364	0.00640
1869.50787	0.00633
1868.22211	0.00618
1866.93634	0.00600
1865.65057	0.00582
1864.36480	0.00566
1863.07903	0.00556
1861.79326	0.00562
1860.50749	0.00587
1859.22172	0.00621
1857.93595	0.00653
1856.65019	0.00673
1855.36442	0.00677
1854.07865	0.00665
1852.79288	0.00639
1851.50711	0.00611
1850.22134	0.00595
1848.93557	0.00597
1847.64980	0.00612
1846.36404	0.00629
1845.07827	0.00639
1843.79250	0.00639
1842.50673	0.00638
1841.22096	0.00639
1839.93519	0.00642
1838.64942	0.00638
1837.36365	0.00631
1836.07788	0.00632
1834.79212	0.00647
1833.50635	0.00674
1832.22058	0.00700
1830.93481	0.00714
1829.64904	0.00715
1828.36327	0.00710
1827.07750	0.00710
1825.79173	0.00719
1824.50597	0.00730
1823.22020	0.00734
1821.93443	0.00728
1820.64866	0.00719
1819.36289	0.00713
1818.07712	0.00710
1816.79135	0.00708
1815.50558	0.00709
1814.21981	0.00712
1812.93405	0.00716
1811.64828	0.00716
1810.36251	0.00716
1809.07674	0.00722
1807.79097	0.00735
1806.50520	0.00749
1805.21943	0.00758
1803.93366	0.00756
1802.64790	0.00750
1801.36213	0.00749
1800.07636	0.00757
1798.79059	0.00770
1797.50482	0.00780
1796.21905	0.00786
1794.93328	0.00785
1793.64751	0.00779
1792.36174	0.00769
1791.07598	0.00759
1789.79021	0.00754
1788.50444	0.00752
1787.21867	0.00749
1785.93290	0.00747
1784.64713	0.00750
1783.36136	0.00761
1782.07559	0.00774
1780.78983	0.00786
1779.50406	0.00794
1778.21829	0.00804
1776.93252	0.00815
1775.64675	0.00823
1774.36098	0.00825
1773.07521	0.00819
1771.78944	0.00809
1770.50367	0.00801
1769.21791	0.00799
1767.93214	0.00802
1766.64637	0.00808
1765.36060	0.00817
1764.07483	0.00830
1762.78906	0.00848
1761.50329	0.00867
1760.21752	0.00881
1758.93176	0.00884
1757.64599	0.00879
1756.36022	0.00875
1755.07445	0.00876
1753.78868	0.00881
1752.50291	0.00885
1751.21714	0.00884
1749.93137	0.00877
1748.64560	0.00870
1747.35984	0.00869
1746.07407	0.00880
1744.78830	0.00898
1743.50253	0.00914
1742.21676	0.00922
1740.93099	0.00925
1739.64522	0.00931
1738.35945	0.00943
1737.07369	0.00957
1735.78792	0.00969
1734.50215	0.00981
1733.21638	0.00994
1731.93061	0.01009
1730.64484	0.01022
1729.35907	0.01033
1728.07330	0.01041
1726.78753	0.01048
1725.50177	0.01054
1724.21600	0.01065
1722.93023	0.01081
1721.64446	0.01100
1720.35869	0.01117
1719.07292	0.01129
1717.78715	0.01136
1716.50138	0.01145
1715.21561	0.01159
1713.92985	0.01178
1712.64408	0.01198
1711.35831	0.01216
1710.07254	0.01236
1708.78677	0.01260
1707.50100	0.01286
1706.21523	0.01309
1704.92946	0.01326
1703.64370	0.01339
1702.35793	0.01354
1701.07216	0.01377
1699.78639	0.01408
1698.50062	0.01440
1697.21485	0.01468
1695.92908	0.01489
1694.64331	0.01505
1693.35754	0.01520
1692.07178	0.01536
1690.78601	0.01553
1689.50024	0.01571
1688.21447	0.01591
1686.92870	0.01614
1685.64293	0.01642
1684.35716	0.01673
1683.07139	0.01704
1681.78563	0.01731
1680.49986	0.01752
1679.21409	0.01771
1677.92832	0.01795
1676.64255	0.01827
1675.35678	0.01863
1674.07101	0.01898
1672.78524	0.01929
1671.49947	0.01957
1670.21371	0.01985
1668.92794	0.02013
1667.64217	0.02040
1666.35640	0.02066
1665.07063	0.02094
1663.78486	0.02123
1662.49909	0.02154
1661.21332	0.02185
1659.92756	0.02216
1658.64179	0.02246
1657.35602	0.02276
1656.07025	0.02305
1654.78448	0.02333
1653.49871	0.02358
1652.21294	0.02380
1650.92717	0.02398
1649.64140	0.02418
1648.35564	0.02444
1647.06987	0.02475
1645.78410	0.02504
1644.49833	0.02525
1643.21256	0.02538
1641.92679	0.02550
1640.64102	0.02566
1639.35525	0.02591
1638.06949	0.02622
1636.78372	0.02651
1635.49795	0.02672
1634.21218	0.02687
1632.92641	0.02703
1631.64064	0.02725
1630.35487	0.02753
1629.06910	0.02779
1627.78333	0.02800
1626.49757	0.02820
1625.21180	0.02841
1623.92603	0.02863
1622.64026	0.02885
1621.35449	0.02904
1620.06872	0.02923
1618.78295	0.02943
1617.49718	0.02965
1616.21142	0.02985
1614.92565	0.03000
1613.63988	0.03015
1612.35411	0.03031
1611.06834	0.03051
1609.78257	0.03073
1608.49680	0.03094
1607.21103	0.03111
1605.92526	0.03125
1604.63950	0.03140
1603.35373	0.03156
1602.06796	0.03177
1600.78219	0.03200
1599.49642	0.03222
1598.21065	0.03241
1596.92488	0.03257
1595.63911	0.03272
1594.35335	0.03285
1593.06758	0.03297
1591.78181	0.03306
1590.49604	0.03314
1589.21027	0.03320
1587.92450	0.03327
1586.63873	0.03331
1585.35296	0.03332
1584.06719	0.03331
1582.78143	0.03332
1581.49566	0.03339
1580.20989	0.03354
1578.92412	0.03370
1577.63835	0.03381
1576.35258	0.03386
1575.06681	0.03389
1573.78104	0.03396
1572.49528	0.03407
1571.20951	0.03417
1569.92374	0.03424
1568.63797	0.03424
1567.35220	0.03421
1566.06643	0.03416
1564.78066	0.03410
1563.49489	0.03402
1562.20912	0.03396
1560.92336	0.03394
1559.63759	0.03398
1558.35182	0.03404
1557.06605	0.03407
1555.78028	0.03409
1554.49451	0.03413
1553.20874	0.03423
1551.92297	0.03440
1550.63721	0.03459
1549.35144	0.03475
1548.06567	0.03487
1546.77990	0.03497
1545.49413	0.03510
1544.20836	0.03529
1542.92259	0.03553
1541.63682	0.03577
1540.35105	0.03598
1539.06529	0.03617
1537.77952	0.03635
1536.49375	0.03657
1535.20798	0.03685
1533.92221	0.03718
1532.63644	0.03756
1531.35067	0.03797
1530.06490	0.03846
1528.77914	0.03904
1527.49337	0.03972
1526.20760	0.04048
1524.92183	0.04129
1523.63606	0.04215
1522.35029	0.04303
1521.06452	0.04390
1519.77875	0.04474
1518.49298	0.04559
1517.20722	0.04648
1515.92145	0.04743
1514.63568	0.04846
1513.34991	0.04958
1512.06414	0.05082
1510.77837	0.05217
1509.49260	0.05359
1508.20683	0.05500
1506.92107	0.05635
1505.63530	0.05758
1504.34953	0.05870
1503.06376	0.05973
1501.77799	0.06072
1500.49222	0.06167
1499.20645	0.06256
1497.92068	0.06341
1496.63491	0.06422
1495.34915	0.06499
1494.06338	0.06573
1492.77761	0.06645
1491.49184	0.06719
1490.20607	0.06799
1488.92030	0.06885
1487.63453	0.06977
1486.34876	0.07079
1485.06299	0.07189
1483.77723	0.07306
1482.49146	0.07424
1481.20569	0.07540
1479.91992	0.07654
1478.63415	0.07765
1477.34838	0.07874
1476.06261	0.07977
1474.77684	0.08071
1473.49108	0.08154
1472.20531	0.08224
1470.91954	0.08279
1469.63377	0.08316
1468.34800	0.08342
1467.06223	0.08363
1465.77646	0.08381
1464.49069	0.08393
1463.20492	0.08400
1461.91916	0.08410
1460.63339	0.08435
1459.34762	0.08480
1458.06185	0.08541
1456.77608	0.08608
1455.49031	0.08673
1454.20454	0.08732
1452.91877	0.08785
1451.63301	0.08829
1450.34724	0.08862
1449.06147	0.08886
1447.77570	0.08899
1446.48993	0.08901
1445.20416	0.08883
1443.91839	0.08842
1442.63262	0.08784
1441.34685	0.08718
1440.06109	0.08657
1438.77532	0.08610
1437.48955	0.08579
1436.20378	0.08565
1434.91801	0.08572
1433.63224	0.08605
1432.34647	0.08668
1431.06070	0.08759
1429.77494	0.08872
1428.48917	0.08998
1427.20340	0.09128
1425.91763	0.09262
1424.63186	0.09400
1423.34609	0.09539
1422.06032	0.09674
1420.77455	0.09798
1419.48878	0.09909
1418.20302	0.10004
1416.91725	0.10081
1415.63148	0.10131
1414.34571	0.10154
1413.05994	0.10153
1411.77417	0.10132
1410.48840	0.10090
1409.20263	0.10024
1407.91687	0.09931
1406.63110	0.09815
1405.34533	0.09683
1404.05956	0.09540
1402.77379	0.09388
1401.48802	0.09223
1400.20225	0.09041
1398.91648	0.08843
1397.63071	0.08635
1396.34495	0.08426
1395.05918	0.08224
1393.77341	0.08029
1392.48764	0.07835
1391.20187	0.07639
1389.91610	0.07442
1388.63033	0.07247
1387.34456	0.07055
1386.05880	0.06864
1384.77303	0.06670
1383.48726	0.06474
1382.20149	0.06277
1380.91572	0.06084
1379.62995	0.05893
1378.34418	0.05700
1377.05841	0.05506
1375.77264	0.05315
1374.48688	0.05131
1373.20111	0.04953
1371.91534	0.04777
1370.62957	0.04603
1369.34380	0.04436
1368.05803	0.04282
1366.77226	0.04144
1365.48649	0.04020
1364.20073	0.03904
1362.91496	0.03789
1361.62919	0.03671
1360.34342	0.03556
1359.05765	0.03450
1357.77188	0.03355
1356.48611	0.03271
1355.20034	0.03194
1353.91457	0.03118
1352.62881	0.03043
1351.34304	0.02967
1350.05727	0.02893
1348.77150	0.02823
1347.48573	0.02761
1346.19996	0.02703
1344.91419	0.02647
1343.62842	0.02593
1342.34266	0.02541
1341.05689	0.02495
1339.77112	0.02453
1338.48535	0.02413
1337.19958	0.02372
1335.91381	0.02326
1334.62804	0.02280
1333.34227	0.02236
1332.05650	0.02198
1330.77074	0.02166
1329.48497	0.02139
1328.19920	0.02114
1326.91343	0.02090
1325.62766	0.02067
1324.34189	0.02043
1323.05612	0.02017
1321.77035	0.01989
1320.48459	0.01962
1319.19882	0.01938
1317.91305	0.01920
1316.62728	0.01902
1315.34151	0.01882
1314.05574	0.01858
1312.76997	0.01835
1311.48420	0.01816
1310.19843	0.01800
1308.91267	0.01786
1307.62690	0.01773
1306.34113	0.01762
1305.05536	0.01752
1303.76959	0.01738
1302.48382	0.01721
1301.19805	0.01700
1299.91228	0.01681
1298.62652	0.01665
1297.34075	0.01654
1296.05498	0.01646
1294.76921	0.01640
1293.48344	0.01634
1292.19767	0.01629
1290.91190	0.01623
1289.62613	0.01614
1288.34036	0.01599
1287.05460	0.01578
1285.76883	0.01555
1284.48306	0.01537
1283.19729	0.01527
1281.91152	0.01524
1280.62575	0.01524
1279.33998	0.01524
1278.05421	0.01523
1276.76845	0.01521
1275.48268	0.01519
1274.19691	0.01512
1272.91114	0.01502
1271.62537	0.01490
1270.33960	0.01480
1269.05383	0.01473
1267.76806	0.01469
1266.48229	0.01467
1265.19653	0.01466
1263.91076	0.01463
1262.62499	0.01457
1261.33922	0.01449
1260.05345	0.01440
1258.76768	0.01431
1257.48191	0.01421
1256.19614	0.01412
1254.91037	0.01406
1253.62461	0.01405
1252.33884	0.01408
1251.05307	0.01409
1249.76730	0.01407
1248.48153	0.01402
1247.19576	0.01397
1245.90999	0.01394
1244.62422	0.01392
1243.33846	0.01389
1242.05269	0.01382
1240.76692	0.01372
1239.48115	0.01362
1238.19538	0.01355
1236.90961	0.01351
1235.62384	0.01350
1234.33807	0.01352
1233.05230	0.01354
1231.76654	0.01354
1230.48077	0.01352
1229.19500	0.01347
1227.90923	0.01339
1226.62346	0.01332
1225.33769	0.01328
1224.05192	0.01328
1222.76615	0.01334
1221.48039	0.01342
1220.19462	0.01350
1218.90885	0.01356
1217.62308	0.01361
1216.33731	0.01366
1215.05154	0.01368
1213.76577	0.01368
1212.48000	0.01367
1211.19423	0.01370
1209.90847	0.01376
1208.62270	0.01382
1207.33693	0.01385
1206.05116	0.01385
1204.76539	0.01385
1203.47962	0.01388
1202.19385	0.01392
1200.90808	0.01395
1199.62232	0.01397
1198.33655	0.01411
1197.05078	0.01431
1195.76501	0.01449
1194.47924	0.01459
1193.19347	0.01464
1191.90770	0.01466
1190.62193	0.01470
1189.33616	0.01473
1188.05040	0.01474
1186.76463	0.01475
1185.47886	0.01481
1184.19309	0.01491
1182.90732	0.01499
1181.62155	0.01499
1180.33578	0.01495
1179.05001	0.01493
1177.76425	0.01497
1176.47848	0.01507
1175.19271	0.01521
1173.90694	0.01538
1172.62117	0.01555
1171.33540	0.01569
1170.04963	0.01583
1168.76386	0.01596
1167.47809	0.01609
1166.19233	0.01620
1164.90656	0.01629
1163.62079	0.01639
1162.33502	0.01656
1161.04925	0.01682
1159.76348	0.01712
1158.47771	0.01743
1157.19194	0.01774
1155.90618	0.01806
1154.62041	0.01837
1153.33464	0.01862
1152.04887	0.01884
1150.76310	0.01908
1149.47733	0.01942
1148.19156	0.01984
1146.90579	0.02031
1145.62002	0.02085
1144.33426	0.02149
1143.04849	0.02220
1141.76272	0.02293
1140.47695	0.02370
1139.19118	0.02456
1137.90541	0.02556
1136.61964	0.02669
1135.33387	0.02792
1134.04811	0.02929
1132.76234	0.03085
1131.47657	0.03262
1130.19080	0.03456
1128.90503	0.03664
1127.61926	0.03888
1126.33349	0.04133
1125.04772	0.04403
1123.76195	0.04696
1122.47619	0.05006
1121.19042	0.05327
1119.90465	0.05655
1118.61888	0.05989
1117.33311	0.06331
1116.04734	0.06677
1114.76157	0.07023
1113.47580	0.07362
1112.19004	0.07694
1110.90427	0.08019
1109.61850	0.08339
1108.33273	0.08655
1107.04696	0.08962
1105.76119	0.09255
1104.47542	0.09532
1103.18965	0.09799
1101.90388	0.10063
1100.61812	0.10328
1099.33235	0.10596
1098.04658	0.10862
1096.76081	0.11122
1095.47504	0.11370
1094.18927	0.11601
1092.90350	0.11815
1091.61773	0.12015
1090.33197	0.12205
1089.04620	0.12387
1087.76043	0.12561
1086.47466	0.12730
1085.18889	0.12899
1083.90312	0.13073
1082.61735	0.13259
1081.33158	0.13459
1080.04581	0.13682
1078.76005	0.13931
1077.47428	0.14205
1076.18851	0.14498
1074.90274	0.14803
1073.61697	0.15120
1072.33120	0.15453
1071.04543	0.15802
1069.75966	0.16164
1068.47390	0.16533
1067.18813	0.16910
1065.90236	0.17292
1064.61659	0.17677
1063.33082	0.18062
1062.04505	0.18447
1060.75928	0.18832
1059.47351	0.19216
1058.18774	0.19595
1056.90198	0.19967
1055.61621	0.20333
1054.33044	0.20693
1053.04467	0.21047
1051.75890	0.21400
1050.47313	0.21760
1049.18736	0.22134
1047.90159	0.22521
1046.61583	0.22913
1045.33006	0.23303
1044.04429	0.23689
1042.75852	0.24070
1041.47275	0.24449
1040.18698	0.24826
1038.90121	0.25208
1037.61544	0.25598
1036.32967	0.25994
1035.04391	0.26387
1033.75814	0.26757
1032.47237	0.27085
1031.18660	0.27366
1029.90083	0.27607
1028.61506	0.27814
1027.32929	0.27984
1026.04352	0.28116
1024.75775	0.28213
1023.47199	0.28273
1022.18622	0.28282
1020.90045	0.28223
1019.61468	0.28085
1018.32891	0.27865
1017.04314	0.27567
1015.75737	0.27195
1014.47160	0.26754
1013.18584	0.26252
1011.90007	0.25687
1010.61430	0.25057
1009.32853	0.24356
1008.04276	0.23584
1006.75699	0.22749
1005.47122	0.21863
1004.18545	0.20943
1002.89968	0.20001
1001.61392	0.19047
1000.32815	0.18090
999.04238	0.17141
997.75661	0.16210
996.47084	0.15301
995.18507	0.14413
993.89930	0.13553
992.61353	0.12733
991.32777	0.11964
990.04200	0.11252
988.75623	0.10593
987.47046	0.09976
986.18469	0.09401
984.89892	0.08872
983.61315	0.08397
982.32738	0.07975
981.04161	0.07597
979.75585	0.07253
978.47008	0.06947
977.18431	0.06684
975.89854	0.06471
974.61277	0.06310
973.32700	0.06198
972.04123	0.06131
970.75546	0.06112
969.46970	0.06145
968.18393	0.06236
966.89816	0.06382
965.61239	0.06565
964.32662	0.06752
963.04085	0.06909
961.75508	0.07003
960.46931	0.07016
959.18354	0.06944
957.89778	0.06792
956.61201	0.06577
955.32624	0.06320
954.04047	0.06047
952.75470	0.05775
951.46893	0.05517
950.18316	0.05276
948.89739	0.05051
947.61163	0.04840
946.32586	0.04641
945.04009	0.04454
943.75432	0.04278
942.46855	0.04116
941.18278	0.03966
939.89701	0.03829
938.61124	0.03708
937.32547	0.03605
936.03971	0.03517
934.75394	0.03440
933.46817	0.03367
932.18240	0.03300
930.89663	0.03240
929.61086	0.03184
928.32509	0.03127
927.03932	0.03069
925.75356	0.03017
924.46779	0.02975
923.18202	0.02939
921.89625	0.02903
920.61048	0.02871
919.32471	0.02845
918.03894	0.02823
916.75317	0.02796
915.46740	0.02762
914.18164	0.02729
912.89587	0.02703
911.61010	0.02685
910.32433	0.02671
909.03856	0.02657
907.75279	0.02640
906.46702	0.02623
905.18125	0.02605
903.89549	0.02587
902.60972	0.02563
901.32395	0.02536
900.03818	0.02516
898.75241	0.02513
897.46664	0.02526
896.18087	0.02548
894.89510	0.02572
893.60933	0.02599
892.32357	0.02631
891.03780	0.02675
889.75203	0.02740
888.46626	0.02839
887.18049	0.02979
885.89472	0.03173
884.60895	0.03437
883.32318	0.03772
882.03742	0.04144
880.75165	0.04486
879.46588	0.04741
878.18011	0.04899
876.89434	0.05003
875.60857	0.05106
874.32280	0.05226
873.03703	0.05326
871.75126	0.05348
870.46550	0.05256
869.17973	0.05063
867.89396	0.04804
866.60819	0.04511
865.32242	0.04208
864.03665	0.03912
862.75088	0.03645
861.46511	0.03419
860.17935	0.03233
858.89358	0.03081
857.60781	0.02960
856.32204	0.02874
855.03627	0.02816
853.75050	0.02773
852.46473	0.02734
851.17896	0.02694
849.89319	0.02656
848.60743	0.02626
847.32166	0.02604
846.03589	0.02589
844.75012	0.02578
843.46435	0.02563
842.17858	0.02542
840.89281	0.02520
839.60704	0.02501
838.32128	0.02487
837.03551	0.02475
835.74974	0.02461
834.46397	0.02446
833.17820	0.02432
831.89243	0.02419
830.60666	0.02407
829.32089	0.02397
828.03512	0.02388
826.74936	0.02380
825.46359	0.02373
824.17782	0.02368
822.89205	0.02367
821.60628	0.02367
820.32051	0.02367
819.03474	0.02365
817.74897	0.02366
816.46321	0.02369
815.17744	0.02369
813.89167	0.02365
812.60590	0.02359
811.32013	0.02351
810.03436	0.02343
808.74859	0.02336
807.46282	0.02334
806.17705	0.02338
804.89129	0.02344
803.60552	0.02347
802.31975	0.02350
801.03398	0.02356
799.74821	0.02365
798.46244	0.02372
797.17667	0.02372
795.89090	0.02367
794.60513	0.02361
793.31937	0.02354
792.03360	0.02348
790.74783	0.02347
789.46206	0.02351
788.17629	0.02358
786.89052	0.02363
785.60475	0.02366
784.31898	0.02367
783.03322	0.02367
781.74745	0.02365
780.46168	0.02360
779.17591	0.02350
777.89014	0.02338
776.60437	0.02326
775.31860	0.02320
774.03283	0.02322
772.74706	0.02328
771.46130	0.02329
770.17553	0.02322
768.88976	0.02308
767.60399	0.02289
766.31822	0.02271
765.03245	0.02262
763.74668	0.02266
762.46091	0.02280
761.17515	0.02301
759.88938	0.02325
758.60361	0.02344
757.31784	0.02352
756.03207	0.02346
754.74630	0.02334
753.46053	0.02329
752.17476	0.02337
750.88899	0.02352
749.60323	0.02363
748.31746	0.02366
747.03169	0.02365
745.74592	0.02367
744.46015	0.02375
743.17438	0.02385
741.88861	0.02389
740.60284	0.02380
739.31708	0.02361
738.03131	0.02342
736.74554	0.02337
735.45977	0.02350
734.17400	0.02375
732.88823	0.02409
731.60246	0.02445
730.31669	0.02475
729.03092	0.02493
727.74516	0.02501
726.45939	0.02504
725.17362	0.02503
723.88785	0.02514
722.60208	0.02492
721.31631	0.02461
720.03054	0.02443
718.74477	0.02440
717.45901	0.02445
716.17324	0.02457
714.88747	0.02473
713.60170	0.02487
712.31593	0.02497
711.03016	0.02501
709.74439	0.02500
708.45862	0.02497
707.17285	0.02491
705.88709	0.02483
704.60132	0.02473
703.31555	0.02466
702.02978	0.02462
700.74401	0.02462
699.45824	0.02462
698.17247	0.02462
696.88670	0.02463
695.60094	0.02469
694.31517	0.02477
693.02940	0.02484
691.74363	0.02484
690.45786	0.02481
689.17209	0.02481
687.88632	0.02486
686.60055	0.02490
685.31478	0.02491
684.02902	0.02489
682.74325	0.02488
681.45748	0.02489
680.17171	0.02489
678.88594	0.02492
677.60017	0.02501
676.31440	0.02517
675.02863	0.02535
673.74287	0.02550
672.45710	0.02564
671.17133	0.02584
669.88556	0.02608
668.59979	0.02618
667.31402	0.02618
666.02825	0.02633
664.74248	0.02628
663.45671	0.02620
662.17095	0.02615
660.88518	0.02608
659.59941	0.02600
658.31364	0.02595
657.02787	0.02598
655.74210	0.02607
654.45633	0.02620
653.17056	0.02636
651.88480	0.02655
650.59903	0.02678
649.31326	0.02699
648.02749	0.02718
646.74172	0.02734
645.45595	0.02756
644.17018	0.02788
642.88441	0.02829
641.59864	0.02877
640.31288	0.02929
639.02711	0.02981
637.74134	0.03033
636.45557	0.03083
635.16980	0.03130
633.88403	0.03175
632.59826	0.03218
631.31249	0.03265
630.02673	0.03334
628.74096	0.03417
627.45519	0.03432
626.16942	0.03525
624.88365	0.03699
623.59788	0.03947
622.31211	0.04268
621.02634	0.04601
619.74057	0.04865
618.45481	0.05056
617.16904	0.05238
615.88327	0.05467
614.59750	0.05760
613.31173	0.06126
612.02596	0.06589
610.74019	0.07145
609.45442	0.07715
608.16866	0.08199
606.88289	0.08576
605.59712	0.08916
604.31135	0.09270
603.02558	0.09581
601.73981	0.09723
600.45404	0.09623
599.16827	0.09325
597.88250	0.08931
596.59674	0.08533
595.31097	0.08184
594.02520	0.07902
592.73943	0.07691
591.45366	0.07543
590.16789	0.07451
588.88212	0.07417
587.59635	0.07447
586.31059	0.07545
585.02482	0.07703
583.73905	0.07902
582.45328	0.08129
581.16751	0.08373
579.88174	0.08635
578.59597	0.08926
577.31020	0.09249
576.02443	0.09595
574.73867	0.09945
573.45290	0.10285
572.16713	0.10614
570.88136	0.10951
569.59559	0.11315
568.30982	0.11720
567.02405	0.12148
565.73828	0.12550
564.45251	0.12854
563.16675	0.13002
561.88098	0.12961
560.59521	0.12719
559.30944	0.12283
558.02367	0.11679
556.73790	0.10952
555.45213	0.10159
554.16636	0.09359
552.88060	0.08601
551.59483	0.07912
550.30906	0.07300
549.02329	0.06757
547.73752	0.06278
546.45175	0.05861
545.16598	0.05508
543.88021	0.05212
542.59444	0.04962
541.30868	0.04751
540.02291	0.04572
538.73714	0.04413
537.45137	0.04265
536.16560	0.04121
534.87983	0.03986
533.59406	0.03865
532.30829	0.03760
531.02253	0.03664
529.73676	0.03572
528.45099	0.03484
527.16522	0.03401
525.87945	0.03324
524.59368	0.03251
523.30791	0.03183
522.02214	0.03121
520.73637	0.03068
519.45061	0.03022
518.16484	0.02975
516.87907	0.02924
515.59330	0.02869
514.30753	0.02818
513.02176	0.02774
511.73599	0.02738
510.45022	0.02709
509.16446	0.02687
507.87869	0.02667
506.59292	0.02648
505.30715	0.02626
504.02138	0.02599
502.73561	0.02570
501.44984	0.02547
500.16407	0.02531
498.87830	0.02518
497.59254	0.02500
496.30677	0.02472
495.02100	0.02440
493.73523	0.02413
492.44946	0.02396
491.16369	0.02385
489.87792	0.02373
488.59215	0.02362
487.30639	0.02357
486.02062	0.02361
484.73485	0.02375
483.44908	0.02393
482.16331	0.02415
480.87754	0.02441
479.59177	0.02473
478.30600	0.02504
477.02023	0.02529
475.73447	0.02545
474.44870	0.02559
473.16293	0.02580
471.87716	0.02610
470.59139	0.02640
469.30562	0.02652
468.01985	0.02638
466.73408	0.02604
465.44832	0.02562
464.16255	0.02524
462.87678	0.02493
461.59101	0.02471
460.30524	0.02453
459.01947	0.02435
457.73370	0.02411
456.44793	0.02384
455.16216	0.02358
453.87640	0.02339
452.59063	0.02328
451.30486	0.02320
450.01909	0.02311
448.73332	0.02299
447.44755	0.02285
446.16178	0.02271
444.87601	0.02260
443.59025	0.02248
442.30448	0.02236
441.01871	0.02226
439.73294	0.02220
438.44717	0.02218
437.16140	0.02215
435.87563	0.02212
434.58986	0.02209
433.30409	0.02212
432.01833	0.02221
430.73256	0.02230
429.44679	0.02237
428.16102	0.02240
426.87525	0.02240
425.58948	0.02237
424.30371	0.02230
423.01794	0.02220
421.73218	0.02209
420.44641	0.02201
419.16064	0.02198
417.87487	0.02199
416.58910	0.02202
415.30333	0.02203
414.01756	0.02202
412.73179	0.02199
411.44602	0.02199
410.16026	0.02205
408.87449	0.02221
407.58872	0.02239
406.30295	0.02252
405.01718	0.02259
403.73141	0.02269
402.44564	0.02290
401.15987	0.02321
399.87411	0.02355
