3997.45528	0.05285
3996.16951	0.05263
3994.88374	0.05244
3993.59798	0.05214
3992.31221	0.05163
3991.02644	0.05110
3989.74067	0.05072
3988.45490	0.05050
3987.16913	0.05048
3985.88336	0.05091
3984.59759	0.05211
3983.31183	0.05389
3982.02606	0.05549
3980.74029	0.05618
3979.45452	0.05585
3978.16875	0.05490
3976.88298	0.05381
3975.59721	0.05282
3974.31144	0.05214
3973.02567	0.05187
3971.73991	0.05190
3970.45414	0.05193
3969.16837	0.05183
3967.88260	0.05187
3966.59683	0.05241
3965.31106	0.05348
3964.02529	0.05454
3962.73952	0.05493
3961.45376	0.05443
3960.16799	0.05341
3958.88222	0.05244
3957.59645	0.05181
3956.31068	0.05147
3955.02491	0.05124
3953.73914	0.05104
3952.45337	0.05087
3951.16760	0.05077
3949.88184	0.05072
3948.59607	0.05073
3947.31030	0.05075
3946.02453	0.05077
3944.73876	0.05067
3943.45299	0.05038
3942.16722	0.04989
3940.88145	0.04934
3939.59569	0.04895
3938.30992	0.04890
3937.02415	0.04920
3935.73838	0.04971
3934.45261	0.05017
3933.16684	0.05039
3931.88107	0.05034
3930.59530	0.05015
3929.30953	0.04998
3928.02377	0.04984
3926.73800	0.04962
3925.45223	0.04929
3924.16646	0.04892
3922.88069	0.04861
3921.59492	0.04830
3920.30915	0.04797
3919.02338	0.04768
3917.73762	0.04763
3916.45185	0.04788
3915.16608	0.04823
3913.88031	0.04837
3912.59454	0.04814
3911.30877	0.04778
3910.02300	0.04762
3908.73723	0.04786
3907.45146	0.04842
3906.16570	0.04912
3904.87993	0.04986
3903.59416	0.05053
3902.30839	0.05095
3901.02262	0.05092
3899.73685	0.05046
3898.45108	0.04975
3897.16531	0.04909
3895.87955	0.04874
3894.59378	0.04866
3893.30801	0.04856
3892.02224	0.04829
3890.73647	0.04803
3889.45070	0.04787
3888.16493	0.04766
3886.87916	0.04730
3885.59339	0.04700
3884.30763	0.04689
3883.02186	0.04681
3881.73609	0.04657
3880.45032	0.04630
3879.16455	0.04631
3877.87878	0.04664
3876.59301	0.04706
3875.30724	0.04729
3874.02148	0.04722
3872.73571	0.04699
3871.44994	0.04683
3870.16417	0.04700
3868.87840	0.04745
3867.59263	0.04776
3866.30686	0.04760
3865.02109	0.04717
3863.73532	0.04686
3862.44956	0.04676
3861.16379	0.04667
3859.87802	0.04637
3858.59225	0.04589
3857.30648	0.04550
3856.02071	0.04547
3854.73494	0.04603
3853.44917	0.04722
3852.16341	0.04863
3850.87764	0.04965
3849.59187	0.05008
3848.30610	0.05017
3847.02033	0.05016
3845.73456	0.04997
3844.44879	0.04948
3843.16302	0.04871
3841.87725	0.04781
3840.59149	0.04684
3839.30572	0.04589
3838.01995	0.04516
3836.73418	0.04482
3835.44841	0.04480
3834.16264	0.04503
3832.87687	0.04554
3831.59110	0.04624
3830.30534	0.04680
3829.01957	0.04698
3827.73380	0.04696
3826.44803	0.04716
3825.16226	0.04764
3823.87649	0.04792
3822.59072	0.04754
3821.30495	0.04664
3820.01918	0.04575
3818.73342	0.04526
3817.44765	0.04527
3816.16188	0.04572
3814.87611	0.04626
3813.59034	0.04639
3812.30457	0.04599
3811.01880	0.04538
3809.73303	0.04481
3808.44726	0.04436
3807.16150	0.04419
3805.87573	0.04448
3804.58996	0.04502
3803.30419	0.04537
3802.01842	0.04549
3800.73265	0.04566
3799.44688	0.04599
3798.16111	0.04625
3796.87535	0.04629
3795.58958	0.04612
3794.30381	0.04577
3793.01804	0.04533
3791.73227	0.04485
3790.44650	0.04430
3789.16073	0.04364
3787.87496	0.04298
3786.58919	0.04246
3785.30343	0.04215
3784.01766	0.04208
3782.73189	0.04220
3781.44612	0.04240
3780.16035	0.04252
3778.87458	0.04245
3777.58881	0.04214
3776.30304	0.04172
3775.01728	0.04149
3773.73151	0.04167
3772.44574	0.04213
3771.15997	0.04253
3769.87420	0.04276
3768.58843	0.04300
3767.30266	0.04342
3766.01689	0.04409
3764.73112	0.04496
3763.44536	0.04580
3762.15959	0.04623
3760.87382	0.04594
3759.58805	0.04493
3758.30228	0.04362
3757.01651	0.04273
3755.73074	0.04278
3754.44497	0.04359
3753.15921	0.04454
3751.87344	0.04511
3750.58767	0.04513
3749.30190	0.04484
3748.01613	0.04444
3746.73036	0.04383
3745.44459	0.04310
3744.15882	0.04280
3742.87305	0.04319
3741.58729	0.04382
3740.30152	0.04424
3739.01575	0.04444
3737.72998	0.04449
3736.44421	0.04442
3735.15844	0.04420
3733.87267	0.04377
3732.58690	0.04322
3731.30114	0.04276
3730.01537	0.04245
3728.72960	0.04224
3727.44383	0.04218
3726.15806	0.04240
3724.87229	0.04274
3723.58652	0.04287
3722.30075	0.04257
3721.01498	0.04199
3719.72922	0.04152
3718.44345	0.04158
3717.15768	0.04218
3715.87191	0.04287
3714.58614	0.04308
3713.30037	0.04271
3712.01460	0.04218
3710.72883	0.04193
3709.44307	0.04202
3708.15730	0.04226
3706.87153	0.04240
3705.58576	0.04233
3704.29999	0.04212
3703.01422	0.04187
3701.72845	0.04162
3700.44268	0.04142
3699.15691	0.04141
3697.87115	0.04163
3696.58538	0.04194
3695.29961	0.04209
3694.01384	0.04190
3692.72807	0.04150
3691.44230	0.04122
3690.15653	0.04130
3688.87076	0.04173
3687.58500	0.04213
3686.29923	0.04209
3685.01346	0.04155
3683.72769	0.04101
3682.44192	0.04096
3681.15615	0.04133
3679.87038	0.04175
3678.58461	0.04189
3677.29884	0.04178
3676.01308	0.04183
3674.72731	0.04240
3673.44154	0.04328
3672.15577	0.04389
3670.87000	0.04403
3669.58423	0.04377
3668.29846	0.04319
3667.01269	0.04244
3665.72693	0.04190
3664.44116	0.04184
3663.15539	0.04224
3661.86962	0.04283
3660.58385	0.04333
3659.29808	0.04354
3658.01231	0.04349
3656.72654	0.04347
3655.44077	0.04372
3654.15501	0.04403
3652.86924	0.04408
3651.58347	0.04392
3650.29770	0.04379
3649.01193	0.04369
3647.72616	0.04336
3646.44039	0.04263
3645.15462	0.04176
3643.86886	0.04113
3642.58309	0.04100
3641.29732	0.04124
3640.01155	0.04153
3638.72578	0.04166
3637.44001	0.04153
3636.15424	0.04120
3634.86847	0.04084
3633.58270	0.04073
3632.29694	0.04093
3631.01117	0.04126
3629.72540	0.04164
3628.43963	0.04224
3627.15386	0.04306
3625.86809	0.04380
3624.58232	0.04424
3623.29655	0.04436
3622.01079	0.04419
3620.72502	0.04377
3619.43925	0.04331
3618.15348	0.04306
3616.86771	0.04313
3615.58194	0.04329
3614.29617	0.04324
3613.01040	0.04287
3611.72463	0.04235
3610.43887	0.04203
3609.15310	0.04223
3607.86733	0.04294
3606.58156	0.04382
3605.29579	0.04440
3604.01002	0.04445
3602.72425	0.04418
3601.43848	0.04401
3600.15272	0.04414
3598.86695	0.04439
3597.58118	0.04442
3596.29541	0.04420
3595.00964	0.04390
3593.72387	0.04374
3592.43810	0.04376
3591.15233	0.04389
3589.86656	0.04400
3588.58080	0.04399
3587.29503	0.04385
3586.00926	0.04372
3584.72349	0.04376
3583.43772	0.04391
3582.15195	0.04398
3580.86618	0.04385
3579.58041	0.04361
3578.29464	0.04354
3577.00888	0.04379
3575.72311	0.04421
3574.43734	0.04442
3573.15157	0.04423
3571.86580	0.04387
3570.58003	0.04376
3569.29426	0.04421
3568.00849	0.04511
3566.72273	0.04614
3565.43696	0.04689
3564.15119	0.04714
3562.86542	0.04693
3561.57965	0.04655
3560.29388	0.04630
3559.00811	0.04636
3557.72234	0.04667
3556.43657	0.04710
3555.15081	0.04750
3553.86504	0.04768
3552.57927	0.04763
3551.29350	0.04746
3550.00773	0.04735
3548.72196	0.04730
3547.43619	0.04731
3546.15042	0.04742
3544.86466	0.04769
3543.57889	0.04812
3542.29312	0.04870
3541.00735	0.04945
3539.72158	0.05023
3538.43581	0.05074
3537.15004	0.05070
3535.86427	0.05013
3534.57850	0.04930
3533.29274	0.04857
3532.00697	0.04810
3530.72120	0.04785
3529.43543	0.04777
3528.14966	0.04790
3526.86389	0.04829
3525.57812	0.04887
3524.29235	0.04946
3523.00659	0.04992
3521.72082	0.05014
3520.43505	0.05009
3519.14928	0.04984
3517.86351	0.04960
3516.57774	0.04956
3515.29197	0.04979
3514.00620	0.05019
3512.72043	0.05058
3511.43467	0.05078
3510.14890	0.05070
3508.86313	0.05045
3507.57736	0.05025
3506.29159	0.05016
3505.00582	0.05008
3503.72005	0.04993
3502.43428	0.04980
3501.14852	0.04988
3499.86275	0.05028
3498.57698	0.05087
3497.29121	0.05135
3496.00544	0.05158
3494.71967	0.05172
3493.43390	0.05206
3492.14813	0.05260
3490.86236	0.05299
3489.57660	0.05291
3488.29083	0.05249
3487.00506	0.05218
3485.71929	0.05230
3484.43352	0.05276
3483.14775	0.05322
3481.86198	0.05336
3480.57621	0.05309
3479.29045	0.05259
3478.00468	0.05219
3476.71891	0.05213
3475.43314	0.05234
3474.14737	0.05262
3472.86160	0.05282
3471.57583	0.05297
3470.29006	0.05320
3469.00429	0.05362
3467.71853	0.05414
3466.43276	0.05452
3465.14699	0.05451
3463.86122	0.05412
3462.57545	0.05366
3461.28968	0.05348
3460.00391	0.05370
3458.71814	0.05408
3457.43238	0.05432
3456.14661	0.05430
3454.86084	0.05416
3453.57507	0.05422
3452.28930	0.05460
3451.00353	0.05514
3449.71776	0.05552
3448.43199	0.05556
3447.14622	0.05537
3445.86046	0.05514
3444.57469	0.05500
3443.28892	0.05496
3442.00315	0.05494
3440.71738	0.05483
3439.43161	0.05463
3438.14584	0.05455
3436.86007	0.05484
3435.57431	0.05546
3434.28854	0.05608
3433.00277	0.05635
3431.71700	0.05622
3430.43123	0.05592
3429.14546	0.05572
3427.85969	0.05570
3426.57392	0.05578
3425.28815	0.05587
3424.00239	0.05594
3422.71662	0.05595
3421.43085	0.05590
3420.14508	0.05589
3418.85931	0.05610
3417.57354	0.05656
3416.28777	0.05712
3415.00200	0.05759
3413.71624	0.05787
3412.43047	0.05800
3411.14470	0.05808
3409.85893	0.05821
3408.57316	0.05844
3407.28739	0.05872
3406.00162	0.05891
3404.71585	0.05881
3403.43008	0.05842
3402.14432	0.05793
3400.85855	0.05765
3399.57278	0.05770
3398.28701	0.05801
3397.00124	0.05833
3395.71547	0.05844
3394.42970	0.05824
3393.14393	0.05777
3391.85817	0.05719
3390.57240	0.05671
3389.28663	0.05649
3388.00086	0.05658
3386.71509	0.05696
3385.42932	0.05756
3384.14355	0.05829
3382.85778	0.05897
3381.57201	0.05937
3380.28625	0.05931
3379.00048	0.05881
3377.71471	0.05811
3376.42894	0.05760
3375.14317	0.05760
3373.85740	0.05813
3372.57163	0.05890
3371.28586	0.05955
3370.00010	0.05988
3368.71433	0.06000
3367.42856	0.06008
3366.14279	0.06020
3364.85702	0.06031
3363.57125	0.06034
3362.28548	0.06034
3360.99971	0.06034
3359.71394	0.06027
3358.42818	0.06000
3357.14241	0.05955
3355.85664	0.05916
3354.57087	0.05903
3353.28510	0.05914
3351.99933	0.05925
3350.71356	0.05923
3349.42779	0.05922
3348.14202	0.05942
3346.85626	0.05977
3345.57049	0.06005
3344.28472	0.06016
3342.99895	0.06027
3341.71318	0.06060
3340.42741	0.06110
3339.14164	0.06150
3337.85587	0.06157
3336.57011	0.06135
3335.28434	0.06095
3333.99857	0.06052
3332.71280	0.06018
3331.42703	0.06009
3330.14126	0.06023
3328.85549	0.06041
3327.56972	0.06042
3326.28395	0.06032
3324.99819	0.06030
3323.71242	0.06048
3322.42665	0.06076
3321.14088	0.06104
3319.85511	0.06129
3318.56934	0.06160
3317.28357	0.06196
3315.99780	0.06222
3314.71204	0.06217
3313.42627	0.06172
3312.14050	0.06107
3310.85473	0.06057
3309.56896	0.06045
3308.28319	0.06056
3306.99742	0.06059
3305.71165	0.06044
3304.42588	0.06032
3303.14012	0.06040
3301.85435	0.06060
3300.56858	0.06072
3299.28281	0.06070
3297.99704	0.06058
3296.71127	0.06038
3295.42550	0.06015
3294.13973	0.06002
3292.85397	0.06009
3291.56820	0.06030
3290.28243	0.06051
3288.99666	0.06070
3287.71089	0.06089
3286.42512	0.06103
3285.13935	0.06105
3283.85358	0.06095
3282.56781	0.06077
3281.28205	0.06061
3279.99628	0.06057
3278.71051	0.06070
3277.42474	0.06092
3276.13897	0.06108
3274.85320	0.06112
3273.56743	0.06107
3272.28166	0.06099
3270.99590	0.06080
3269.71013	0.06032
3268.42436	0.05962
3267.13859	0.05905
3265.85282	0.05898
3264.56705	0.05941
3263.28128	0.05998
3261.99551	0.06028
3260.70974	0.06024
3259.42398	0.06010
3258.13821	0.06015
3256.85244	0.06045
3255.56667	0.06085
3254.28090	0.06116
3252.99513	0.06124
3251.70936	0.06104
3250.42359	0.06054
3249.13783	0.05980
3247.85206	0.05906
3246.56629	0.05864
3245.28052	0.05868
3243.99475	0.05897
3242.70898	0.05912
3241.42321	0.05892
3240.13744	0.05843
3238.85167	0.05789
3237.56591	0.05745
3236.28014	0.05714
3234.99437	0.05693
3233.70860	0.05686
3232.42283	0.05698
3231.13706	0.05730
3229.85129	0.05782
3228.56552	0.05843
3227.27976	0.05885
3225.99399	0.05889
3224.70822	0.05860
3223.42245	0.05827
3222.13668	0.05812
3220.85091	0.05808
3219.56514	0.05792
3218.27937	0.05753
3216.99360	0.05711
3215.70784	0.05697
3214.42207	0.05720
3213.13630	0.05756
3211.85053	0.05773
3210.56476	0.05756
3209.27899	0.05719
3207.99322	0.05686
3206.70745	0.05671
3205.42169	0.05676
3204.13592	0.05686
3202.85015	0.05682
3201.56438	0.05659
3200.27861	0.05630
3198.99284	0.05617
3197.70707	0.05630
3196.42130	0.05658
3195.13553	0.05682
3193.84977	0.05684
3192.56400	0.05655
3191.27823	0.05598
3189.99246	0.05529
3188.70669	0.05469
3187.42092	0.05426
3186.13515	0.05400
3184.84938	0.05389
3183.56362	0.05399
3182.27785	0.05426
3180.99208	0.05453
3179.70631	0.05461
3178.42054	0.05441
3177.13477	0.05403
3175.84900	0.05362
3174.56323	0.05329
3173.27746	0.05310
3171.99170	0.05311
3170.70593	0.05332
3169.42016	0.05370
3168.13439	0.05411
3166.84862	0.05444
3165.56285	0.05456
3164.27708	0.05445
3162.99131	0.05413
3161.70555	0.05373
3160.41978	0.05343
3159.13401	0.05328
3157.84824	0.05318
3156.56247	0.05293
3155.27670	0.05244
3153.99093	0.05181
3152.70516	0.05139
3151.41939	0.05147
3150.13363	0.05205
3148.84786	0.05277
3147.56209	0.05320
3146.27632	0.05318
3144.99055	0.05283
3143.70478	0.05235
3142.41901	0.05188
3141.13324	0.05146
3139.84748	0.05106
3138.56171	0.05067
3137.27594	0.05036
3135.99017	0.05022
3134.70440	0.05025
3133.41863	0.05035
3132.13286	0.05046
3130.84709	0.05057
3129.56132	0.05070
3128.27556	0.05076
3126.98979	0.05064
3125.70402	0.05035
3124.41825	0.05007
3123.13248	0.04995
3121.84671	0.04993
3120.56094	0.04981
3119.27517	0.04953
3117.98940	0.04925
3116.70364	0.04915
3115.41787	0.04916
3114.13210	0.04908
3112.84633	0.04888
3111.56056	0.04873
3110.27479	0.04884
3108.98902	0.04916
3107.70325	0.04943
3106.41749	0.04943
3105.13172	0.04914
3103.84595	0.04873
3102.56018	0.04838
3101.27441	0.04825
3099.98864	0.04844
3098.70287	0.04885
3097.41710	0.04927
3096.13133	0.04948
3094.84557	0.04947
3093.55980	0.04935
3092.27403	0.04919
3090.98826	0.04900
3089.70249	0.04880
3088.41672	0.04865
3087.13095	0.04867
3085.84518	0.04885
3084.55942	0.04908
3083.27365	0.04921
3081.98788	0.04920
3080.70211	0.04914
3079.41634	0.04918
3078.13057	0.04932
3076.84480	0.04943
3075.55903	0.04937
3074.27326	0.04917
3072.98750	0.04895
3071.70173	0.04877
3070.41596	0.04866
3069.13019	0.04866
3067.84442	0.04870
3066.55865	0.04864
3065.27288	0.04838
3063.98711	0.04797
3062.70135	0.04764
3061.41558	0.04757
3060.12981	0.04770
3058.84404	0.04785
3057.55827	0.04786
3056.27250	0.04774
3054.98673	0.04767
3053.70096	0.04774
3052.41519	0.04788
3051.12943	0.04793
3049.84366	0.04792
3048.55789	0.04797
3047.27212	0.04811
3045.98635	0.04818
3044.70058	0.04802
3043.41481	0.04767
3042.12904	0.04729
3040.84328	0.04702
3039.55751	0.04691
3038.27174	0.04697
3036.98597	0.04708
3035.70020	0.04710
3034.41443	0.04694
3033.12866	0.04663
3031.84289	0.04625
3030.55712	0.04584
3029.27136	0.04549
3027.98559	0.04527
3026.69982	0.04522
3025.41405	0.04524
3024.12828	0.04522
3022.84251	0.04512
3021.55674	0.04494
3020.27097	0.04464
3018.98521	0.04423
3017.69944	0.04389
3016.41367	0.04380
3015.12790	0.04401
3013.84213	0.04440
3012.55636	0.04481
3011.27059	0.04508
3009.98482	0.04516
3008.69905	0.04508
3007.41329	0.04496
3006.12752	0.04491
3004.84175	0.04490
3003.55598	0.04487
3002.27021	0.04481
3000.98444	0.04479
2999.69867	0.04485
2998.41290	0.04498
2997.12714	0.04507
2995.84137	0.04508
2994.55560	0.04504
2993.26983	0.04504
2991.98406	0.04512
2990.69829	0.04523
2989.41252	0.04524
2988.12675	0.04510
2986.84098	0.04482
2985.55522	0.04454
2984.26945	0.04441
2982.98368	0.04453
2981.69791	0.04489
2980.41214	0.04538
2979.12637	0.04581
2977.84060	0.04610
2976.55483	0.04628
2975.26907	0.04645
2973.98330	0.04667
2972.69753	0.04683
2971.41176	0.04676
2970.12599	0.04646
2968.84022	0.04617
2967.55445	0.04617
2966.26868	0.04654
2964.98291	0.04711
2963.69715	0.04764
2962.41138	0.04801
2961.12561	0.04819
2959.83984	0.04817
2958.55407	0.04794
2957.26830	0.04757
2955.98253	0.04724
2954.69676	0.04715
2953.41100	0.04732
2952.12523	0.04758
2950.83946	0.04775
2949.55369	0.04778
2948.26792	0.04778
2946.98215	0.04786
2945.69638	0.04800
2944.41061	0.04808
2943.12484	0.04802
2941.83908	0.04792
2940.55331	0.04797
2939.26754	0.04818
2937.98177	0.04837
2936.69600	0.04840
2935.41023	0.04833
2934.12446	0.04833
2932.83869	0.04853
2931.55293	0.04887
2930.26716	0.04921
2928.98139	0.04943
2927.69562	0.04951
2926.40985	0.04952
2925.12408	0.04955
2923.83831	0.04960
2922.55254	0.04961
2921.26677	0.04949
2919.98101	0.04927
2918.69524	0.04900
2917.40947	0.04872
2916.12370	0.04838
2914.83793	0.04797
2913.55216	0.04754
2912.26639	0.04722
2910.98062	0.04703
2909.69486	0.04684
2908.40909	0.04656
2907.12332	0.04624
2905.83755	0.04595
2904.55178	0.04564
2903.26601	0.04526
2901.98024	0.04482
2900.69447	0.04448
2899.40870	0.04426
2898.12294	0.04408
2896.83717	0.04383
2895.55140	0.04358
2894.26563	0.04351
2892.97986	0.04372
2891.69409	0.04400
2890.40832	0.04404
2889.12255	0.04371
2887.83678	0.04324
2886.55102	0.04291
2885.26525	0.04279
2883.97948	0.04277
2882.69371	0.04279
2881.40794	0.04281
2880.12217	0.04280
2878.83640	0.04278
2877.55063	0.04283
2876.26487	0.04300
2874.97910	0.04329
2873.69333	0.04360
2872.40756	0.04384
2871.12179	0.04393
2869.83602	0.04381
2868.55025	0.04354
2867.26448	0.04323
2865.97871	0.04298
2864.69295	0.04282
2863.40718	0.04275
2862.12141	0.04277
2860.83564	0.04286
2859.54987	0.04292
2858.26410	0.04287
2856.97833	0.04263
2855.69256	0.04228
2854.40680	0.04194
2853.12103	0.04175
2851.83526	0.04169
2850.54949	0.04166
2849.26372	0.04157
2847.97795	0.04140
2846.69218	0.04116
2845.40641	0.04086
2844.12064	0.04055
2842.83488	0.04033
2841.54911	0.04028
2840.26334	0.04038
2838.97757	0.04045
2837.69180	0.04038
2836.40603	0.04014
2835.12026	0.03981
2833.83449	0.03949
2832.54873	0.03923
2831.26296	0.03906
2829.97719	0.03896
2828.69142	0.03886
2827.40565	0.03875
2826.11988	0.03867
2824.83411	0.03860
2823.54834	0.03847
2822.26257	0.03827
2820.97681	0.03808
2819.69104	0.03793
2818.40527	0.03777
2817.11950	0.03757
2815.83373	0.03738
2814.54796	0.03728
2813.26219	0.03729
2811.97642	0.03729
2810.69066	0.03716
2809.40489	0.03684
2808.11912	0.03646
2806.83335	0.03618
2805.54758	0.03604
2804.26181	0.03595
2802.97604	0.03577
2801.69027	0.03548
2800.40450	0.03520
2799.11874	0.03506
2797.83297	0.03516
2796.54720	0.03541
2795.26143	0.03567
2793.97566	0.03577
2792.68989	0.03570
2791.40412	0.03556
2790.11835	0.03548
2788.83259	0.03551
2787.54682	0.03560
2786.26105	0.03566
2784.97528	0.03568
2783.68951	0.03570
2782.40374	0.03570
2781.11797	0.03560
2779.83220	0.03537
2778.54643	0.03512
2777.26067	0.03504
2775.97490	0.03517
2774.68913	0.03535
2773.40336	0.03540
2772.11759	0.03524
2770.83182	0.03498
2769.54605	0.03477
2768.26028	0.03469
2766.97452	0.03472
2765.68875	0.03477
2764.40298	0.03472
2763.11721	0.03456
2761.83144	0.03438
2760.54567	0.03430
2759.25990	0.03437
2757.97413	0.03453
2756.68836	0.03469
2755.40260	0.03475
2754.11683	0.03466
2752.83106	0.03441
2751.54529	0.03409
2750.25952	0.03383
2748.97375	0.03369
2747.68798	0.03372
2746.40221	0.03388
2745.11645	0.03405
2743.83068	0.03406
2742.54491	0.03386
2741.25914	0.03354
2739.97337	0.03325
2738.68760	0.03309
2737.40183	0.03301
2736.11606	0.03298
2734.83029	0.03301
2733.54453	0.03308
2732.25876	0.03315
2730.97299	0.03316
2729.68722	0.03315
2728.40145	0.03319
2727.11568	0.03327
2725.82991	0.03329
2724.54414	0.03321
2723.25838	0.03303
2721.97261	0.03279
2720.68684	0.03260
2719.40107	0.03258
2718.11530	0.03279
2716.82953	0.03316
2715.54376	0.03348
2714.25799	0.03358
2712.97222	0.03341
2711.68646	0.03307
2710.40069	0.03271
2709.11492	0.03243
2707.82915	0.03219
2706.54338	0.03196
2705.25761	0.03172
2703.97184	0.03154
2702.68607	0.03153
2701.40031	0.03170
2700.11454	0.03194
2698.82877	0.03211
2697.54300	0.03212
2696.25723	0.03205
2694.97146	0.03200
2693.68569	0.03201
2692.39992	0.03206
2691.11415	0.03207
2689.82839	0.03199
2688.54262	0.03183
2687.25685	0.03169
2685.97108	0.03166
2684.68531	0.03173
2683.39954	0.03181
2682.11377	0.03184
2680.82800	0.03187
2679.54224	0.03197
2678.25647	0.03214
2676.97070	0.03221
2675.68493	0.03207
2674.39916	0.03174
2673.11339	0.03138
2671.82762	0.03107
2670.54185	0.03083
2669.25608	0.03064
2667.97032	0.03052
2666.68455	0.03049
2665.39878	0.03053
2664.11301	0.03062
2662.82724	0.03072
2661.54147	0.03084
2660.25570	0.03096
2658.96993	0.03101
2657.68417	0.03096
2656.39840	0.03089
2655.11263	0.03086
2653.82686	0.03088
2652.54109	0.03083
2651.25532	0.03069
2649.96955	0.03052
2648.68378	0.03043
2647.39801	0.03040
2646.11225	0.03033
2644.82648	0.03009
2643.54071	0.02969
2642.25494	0.02925
2640.96917	0.02897
2639.68340	0.02893
2638.39763	0.02906
2637.11186	0.02922
2635.82609	0.02933
2634.54033	0.02936
2633.25456	0.02926
2631.96879	0.02898
2630.68302	0.02863
2629.39725	0.02835
2628.11148	0.02821
2626.82571	0.02815
2625.53994	0.02815
2624.25418	0.02823
2622.96841	0.02838
2621.68264	0.02857
2620.39687	0.02871
2619.11110	0.02870
2617.82533	0.02850
2616.53956	0.02810
2615.25379	0.02764
2613.96802	0.02726
2612.68226	0.02704
2611.39649	0.02697
2610.11072	0.02698
2608.82495	0.02702
2607.53918	0.02706
2606.25341	0.02712
2604.96764	0.02716
2603.68187	0.02711
2602.39611	0.02696
2601.11034	0.02680
2599.82457	0.02675
2598.53880	0.02682
2597.25303	0.02692
2595.96726	0.02700
2594.68149	0.02703
2593.39572	0.02699
2592.10995	0.02684
2590.82419	0.02663
2589.53842	0.02653
2588.25265	0.02663
2586.96688	0.02689
2585.68111	0.02716
2584.39534	0.02733
2583.10957	0.02729
2581.82380	0.02701
2580.53804	0.02659
2579.25227	0.02626
2577.96650	0.02616
2576.68073	0.02621
2575.39496	0.02625
2574.10919	0.02618
2572.82342	0.02600
2571.53765	0.02575
2570.25188	0.02549
2568.96612	0.02527
2567.68035	0.02514
2566.39458	0.02512
2565.10881	0.02521
2563.82304	0.02530
2562.53727	0.02521
2561.25150	0.02492
2559.96573	0.02464
2558.67997	0.02461
2557.39420	0.02477
2556.10843	0.02487
2554.82266	0.02482
2553.53689	0.02484
2552.25112	0.02511
2550.96535	0.02553
2549.67958	0.02579
2548.39381	0.02571
2547.10805	0.02542
2545.82228	0.02514
2544.53651	0.02498
2543.25074	0.02488
2541.96497	0.02483
2540.67920	0.02486
2539.39343	0.02498
2538.10766	0.02503
2536.82190	0.02489
2535.53613	0.02462
2534.25036	0.02441
2532.96459	0.02439
2531.67882	0.02448
2530.39305	0.02449
2529.10728	0.02432
2527.82151	0.02404
2526.53574	0.02382
2525.24998	0.02378
2523.96421	0.02389
2522.67844	0.02401
2521.39267	0.02406
2520.10690	0.02402
2518.82113	0.02398
2517.53536	0.02399
2516.24959	0.02399
2514.96383	0.02388
2513.67806	0.02356
2512.39229	0.02306
2511.10652	0.02256
2509.82075	0.02224
2508.53498	0.02217
2507.24921	0.02230
2505.96344	0.02250
2504.67767	0.02269
2503.39191	0.02280
2502.10614	0.02274
2500.82037	0.02255
2499.53460	0.02243
2498.24883	0.02259
2496.96306	0.02301
2495.67729	0.02348
2494.39152	0.02374
2493.10576	0.02371
2491.81999	0.02349
2490.53422	0.02328
2489.24845	0.02317
2487.96268	0.02315
2486.67691	0.02317
2485.39114	0.02322
2484.10537	0.02326
2482.81960	0.02328
2481.53384	0.02330
2480.24807	0.02334
2478.96230	0.02337
2477.67653	0.02336
2476.39076	0.02333
2475.10499	0.02337
2473.81922	0.02352
2472.53345	0.02372
2471.24769	0.02382
2469.96192	0.02367
2468.67615	0.02328
2467.39038	0.02287
2466.10461	0.02264
2464.81884	0.02265
2463.53307	0.02287
2462.24730	0.02326
2460.96153	0.02370
2459.67577	0.02396
2458.39000	0.02386
2457.10423	0.02343
2455.81846	0.02286
2454.53269	0.02238
2453.24692	0.02215
2451.96115	0.02215
2450.67538	0.02221
2449.38962	0.02217
2448.10385	0.02205
2446.81808	0.02200
2445.53231	0.02215
2444.24654	0.02242
2442.96077	0.02264
2441.67500	0.02262
2440.38923	0.02229
2439.10346	0.02176
2437.81770	0.02133
2436.53193	0.02122
2435.24616	0.02143
2433.96039	0.02184
2432.67462	0.02226
2431.38885	0.02255
2430.10308	0.02257
2428.81731	0.02233
2427.53155	0.02210
2426.24578	0.02210
2424.96001	0.02231
2423.67424	0.02249
2422.38847	0.02254
2421.10270	0.02261
2419.81693	0.02278
2418.53116	0.02290
2417.24539	0.02280
2415.95963	0.02255
2414.67386	0.02237
2413.38809	0.02236
2412.10232	0.02239
2410.81655	0.02230
2409.53078	0.02200
2408.24501	0.02162
2406.95924	0.02137
2405.67347	0.02143
2404.38771	0.02176
2403.10194	0.02217
2401.81617	0.02253
2400.53040	0.02279
2399.24463	0.02288
2397.95886	0.02292
2396.67309	0.02287
2395.38732	0.02275
2394.10156	0.02261
2392.81579	0.02246
2391.53002	0.02229
2390.24425	0.02213
2388.95848	0.02200
2387.67271	0.02191
2386.38694	0.02185
2385.10117	0.02173
2383.81540	0.02151
2382.52964	0.02126
2381.24387	0.02107
2379.95810	0.02111
2378.67233	0.02125
2377.38656	0.02159
2376.10079	0.02218
2374.81502	0.02267
2373.52925	0.02237
2372.24349	0.02154
2370.95772	0.02102
2369.67195	0.02105
2368.38618	0.02137
2367.10041	0.02152
2365.81464	0.02157
2364.52887	0.02149
2363.24310	0.02133
2361.95733	0.02108
2360.67157	0.02068
2359.38580	0.02050
2358.10003	0.02068
2356.81426	0.02113
2355.52849	0.02172
2354.24272	0.02241
2352.95695	0.02290
2351.67118	0.02265
2350.38542	0.02221
2349.09965	0.02224
2347.81388	0.02236
2346.52811	0.02196
2345.24234	0.02166
2343.95657	0.02232
2342.67080	0.02377
2341.38503	0.02357
2340.09926	0.02204
2338.81350	0.02192
2337.52773	0.02304
2336.24196	0.02254
2334.95619	0.02136
2333.67042	0.02175
2332.38465	0.02305
2331.09888	0.02207
2329.81311	0.02164
2328.52735	0.02261
2327.24158	0.02255
2325.95581	0.02216
2324.67004	0.02248
2323.38427	0.02293
2322.09850	0.02249
2320.81273	0.02245
2319.52696	0.02234
2318.24119	0.02208
2316.95543	0.02197
2315.66966	0.02172
2314.38389	0.02160
2313.09812	0.02153
2311.81235	0.02112
2310.52658	0.02081
2309.24081	0.02070
2307.95504	0.02061
2306.66928	0.02070
2305.38351	0.02082
2304.09774	0.02097
2302.81197	0.02105
2301.52620	0.02100
2300.24043	0.02105
2298.95466	0.02129
2297.66889	0.02160
2296.38312	0.02174
2295.09736	0.02163
2293.81159	0.02135
2292.52582	0.02097
2291.24005	0.02058
2289.95428	0.02030
2288.66851	0.02024
2287.38274	0.02034
2286.09697	0.02042
2284.81121	0.02035
2283.52544	0.02013
2282.23967	0.01986
2280.95390	0.01959
2279.66813	0.01930
2278.38236	0.01892
2277.09659	0.01844
2275.81082	0.01796
2274.52505	0.01765
2273.23929	0.01755
2271.95352	0.01758
2270.66775	0.01760
2269.38198	0.01758
2268.09621	0.01764
2266.81044	0.01786
2265.52467	0.01825
2264.23890	0.01872
2262.95314	0.01902
2261.66737	0.01897
2260.38160	0.01864
2259.09583	0.01829
2257.81006	0.01806
2256.52429	0.01794
2255.23852	0.01790
2253.95275	0.01793
2252.66698	0.01793
2251.38122	0.01770
2250.09545	0.01724
2248.80968	0.01677
2247.52391	0.01628
2246.23814	0.01610
2244.95237	0.01608
2243.66660	0.01604
2242.38083	0.01597
2241.09507	0.01589
2239.80930	0.01586
2238.52353	0.01590
2237.23776	0.01607
2235.95199	0.01638
2234.66622	0.01680
2233.38045	0.01720
2232.09468	0.01741
2230.80891	0.01733
2229.52315	0.01704
2228.23738	0.01675
2226.95161	0.01658
2225.66584	0.01652
2224.38007	0.01648
2223.09430	0.01653
2221.80853	0.01679
2220.52276	0.01721
2219.23700	0.01752
2217.95123	0.01745
2216.66546	0.01705
2215.37969	0.01658
2214.09392	0.01618
2212.80815	0.01582
2211.52238	0.01547
2210.23661	0.01523
2208.95084	0.01527
2207.66508	0.01568
2206.37931	0.01619
2205.09354	0.01620
2203.80777	0.01523
2202.52200	0.01353
2201.23623	0.01201
2199.95046	0.01139
2198.66469	0.01163
2197.37893	0.01210
2196.09316	0.01230
2194.80739	0.01227
2193.52162	0.01239
2192.23585	0.01278
2190.95008	0.01313
2189.66431	0.01314
2188.37854	0.01299
2187.09277	0.01318
2185.80701	0.01373
2184.52124	0.01402
2183.23547	0.01341
2181.94970	0.01201
2180.66393	0.01068
2179.37816	0.01022
2178.09239	0.01068
2176.80662	0.01148
2175.52085	0.01198
2174.23509	0.01194
2172.94932	0.01149
2171.66355	0.01083
2170.37778	0.01022
2169.09201	0.00991
2167.80624	0.00998
2166.52047	0.01026
2165.23470	0.01053
2163.94894	0.01079
2162.66317	0.01116
2161.37740	0.01146
2160.09163	0.01128
2158.80586	0.01066
2157.52009	0.01033
2156.23432	0.01091
2154.94855	0.01204
2153.66278	0.01283
2152.37702	0.01283
2151.09125	0.01238
2149.80548	0.01214
2148.51971	0.01227
2147.23394	0.01235
2145.94817	0.01201
2144.66240	0.01133
2143.37663	0.01061
2142.09087	0.00997
2140.80510	0.00943
2139.51933	0.00921
2138.23356	0.00963
2136.94779	0.01061
2135.66202	0.01152
2134.37625	0.01176
2133.09048	0.01141
2131.80471	0.01113
2130.51895	0.01146
2129.23318	0.01230
2127.94741	0.01317
2126.66164	0.01371
2125.37587	0.01391
2124.09010	0.01386
2122.80433	0.01364
2121.51856	0.01340
2120.23280	0.01336
2118.94703	0.01355
2117.66126	0.01366
2116.37549	0.01334
2115.08972	0.01254
2113.80395	0.01173
2112.51818	0.01149
2111.23241	0.01197
2109.94664	0.01278
2108.66088	0.01331
2107.37511	0.01333
2106.08934	0.01308
2104.80357	0.01282
2103.51780	0.01259
2102.23203	0.01234
2100.94626	0.01213
2099.66049	0.01226
2098.37473	0.01258
2097.08896	0.01293
2095.80319	0.01313
2094.51742	0.01317
2093.23165	0.01314
2091.94588	0.01302
2090.66011	0.01270
2089.37434	0.01221
2088.08857	0.01187
2086.80281	0.01193
2085.51704	0.01226
2084.23127	0.01250
2082.94550	0.01241
2081.65973	0.01208
2080.37396	0.01180
2079.08819	0.01174
2077.80242	0.01196
2076.51666	0.01235
2075.23089	0.01274
2073.94512	0.01293
2072.65935	0.01280
2071.37358	0.01234
2070.08781	0.01163
2068.80204	0.01083
2067.51627	0.01014
2066.23050	0.00984
2064.94474	0.01013
2063.65897	0.01088
2062.37320	0.01163
2061.08743	0.01190
2059.80166	0.01162
2058.51589	0.01114
2057.23012	0.01090
2055.94435	0.01100
2054.65859	0.01115
2053.37282	0.01090
2052.08705	0.01000
2050.80128	0.00865
2049.51551	0.00723
2048.22974	0.00604
2046.94397	0.00526
2045.65820	0.00516
2044.37243	0.00598
2043.08667	0.00763
2041.80090	0.00950
2040.51513	0.01085
2039.22936	0.01130
2037.94359	0.01097
2036.65782	0.01022
2035.37205	0.00944
2034.08628	0.00891
2032.80052	0.00880
2031.51475	0.00912
2030.22898	0.00974
2028.94321	0.01034
2027.65744	0.01050
2026.37167	0.00984
2025.08590	0.00842
2023.80013	0.00678
2022.51436	0.00566
2021.22860	0.00541
2019.94283	0.00583
2018.65706	0.00641
2017.37129	0.00682
2016.08552	0.00701
2014.79975	0.00705
2013.51398	0.00691
2012.22821	0.00650
2010.94245	0.00578
2009.65668	0.00496
2008.37091	0.00442
2007.08514	0.00444
2005.79937	0.00487
2004.51360	0.00525
2003.22783	0.00533
2001.94206	0.00533
2000.65629	0.00563
1999.37053	0.00634
1998.08476	0.00725
1996.79899	0.00800
1995.51322	0.00828
1994.22745	0.00804
1992.94168	0.00758
1991.65591	0.00736
1990.37014	0.00768
1989.08438	0.00848
1987.79861	0.00938
1986.51284	0.00989
1985.22707	0.00973
1983.94130	0.00913
1982.65553	0.00873
1981.36976	0.00892
1980.08399	0.00953
1978.79822	0.01004
1977.51246	0.01022
1976.22669	0.01025
1974.94092	0.01040
1973.65515	0.01068
1972.36938	0.01088
1971.08361	0.01074
1969.79784	0.01018
1968.51207	0.00934
1967.22631	0.00842
1965.94054	0.00760
1964.65477	0.00700
1963.36900	0.00675
1962.08323	0.00704
1960.79746	0.00793
1959.51169	0.00932
1958.22592	0.01080
1956.94015	0.01185
1955.65439	0.01208
1954.36862	0.01157
1953.08285	0.01086
1951.79708	0.01057
1950.51131	0.01097
1949.22554	0.01173
1947.93977	0.01232
1946.65400	0.01245
1945.36823	0.01223
1944.08247	0.01185
1942.79670	0.01137
1941.51093	0.01080
1940.22516	0.01029
1938.93939	0.01013
1937.65362	0.01044
1936.36785	0.01103
1935.08208	0.01150
1933.79632	0.01160
1932.51055	0.01137
1931.22478	0.01105
1929.93901	0.01089
1928.65324	0.01095
1927.36747	0.01110
1926.08170	0.01123
1924.79593	0.01145
1923.51016	0.01194
1922.22440	0.01266
1920.93863	0.01329
1919.65286	0.01351
1918.36709	0.01330
1917.08132	0.01283
1915.79555	0.01222
1914.50978	0.01168
1913.22401	0.01141
1911.93825	0.01147
1910.65248	0.01168
1909.36671	0.01180
1908.08094	0.01178
1906.79517	0.01173
1905.50940	0.01173
1904.22363	0.01176
1902.93786	0.01176
1901.65209	0.01172
1900.36633	0.01167
1899.08056	0.01162
1897.79479	0.01156
1896.50902	0.01147
1895.22325	0.01137
1893.93748	0.01132
1892.65171	0.01135
1891.36594	0.01146
1890.08018	0.01154
1888.79441	0.01152
1887.50864	0.01140
1886.22287	0.01129
1884.93710	0.01135
1883.65133	0.01160
1882.36556	0.01191
1881.07979	0.01215
1879.79402	0.01232
1878.50826	0.01246
1877.22249	0.01258
1875.93672	0.01260
1874.65095	0.01258
1873.36518	0.01259
1872.07941	0.01257
1870.79364	0.01240
1869.50787	0.01204
1868.22211	0.01171
1866.93634	0.01167
1865.65057	0.01202
1864.36480	0.01254
1863.07903	0.01288
1861.79326	0.01284
1860.50749	0.01255
1859.22172	0.01239
1857.93595	0.01255
1856.65019	0.01289
1855.36442	0.01308
1854.07865	0.01299
1852.79288	0.01278
1851.50711	0.01265
1850.22134	0.01266
1848.93557	0.01274
1847.64980	0.01280
1846.36404	0.01279
1845.07827	0.01273
1843.79250	0.01266
1842.50673	0.01257
1841.22096	0.01244
1839.93519	0.01234
1838.64942	0.01233
1837.36365	0.01239
1836.07788	0.01239
1834.79212	0.01224
1833.50635	0.01206
1832.22058	0.01204
1830.93481	0.01226
1829.64904	0.01260
1828.36327	0.01286
1827.07750	0.01291
1825.79173	0.01284
1824.50597	0.01279
1823.22020	0.01282
1821.93443	0.01285
1820.64866	0.01279
1819.36289	0.01264
1818.07712	0.01250
1816.79135	0.01245
1815.50558	0.01251
1814.21981	0.01259
1812.93405	0.01255
1811.64828	0.01241
1810.36251	0.01229
1809.07674	0.01228
1807.79097	0.01239
1806.50520	0.01253
1805.21943	0.01266
1803.93366	0.01274
1802.64790	0.01277
1801.36213	0.01275
1800.07636	0.01271
1798.79059	0.01268
1797.50482	0.01270
1796.21905	0.01278
1794.93328	0.01290
1793.64751	0.01301
1792.36174	0.01312
1791.07598	0.01320
1789.79021	0.01321
1788.50444	0.01311
1787.21867	0.01297
1785.93290	0.01284
1784.64713	0.01276
1783.36136	0.01270
1782.07559	0.01263
1780.78983	0.01257
1779.50406	0.01254
1778.21829	0.01258
1776.93252	0.01265
1775.64675	0.01267
1774.36098	0.01260
1773.07521	0.01250
1771.78944	0.01248
1770.50367	0.01253
1769.21791	0.01251
1767.93214	0.01240
1766.64637	0.01227
1765.36060	0.01218
1764.07483	0.01211
1762.78906	0.01209
1761.50329	0.01217
1760.21752	0.01232
1758.93176	0.01248
1757.64599	0.01263
1756.36022	0.01278
1755.07445	0.01289
1753.78868	0.01285
1752.50291	0.01266
1751.21714	0.01243
1749.93137	0.01230
1748.64560	0.01231
1747.35984	0.01241
1746.07407	0.01256
1744.78830	0.01269
1743.50253	0.01275
1742.21676	0.01274
1740.93099	0.01270
1739.64522	0.01272
1738.35945	0.01281
1737.07369	0.01288
1735.78792	0.01282
1734.50215	0.01270
1733.21638	0.01265
1731.93061	0.01268
1730.64484	0.01270
1729.35907	0.01271
1728.07330	0.01275
1726.78753	0.01283
1725.50177	0.01290
1724.21600	0.01294
1722.93023	0.01299
1721.64446	0.01308
1720.35869	0.01319
1719.07292	0.01326
1717.78715	0.01333
1716.50138	0.01345
1715.21561	0.01361
1713.92985	0.01379
1712.64408	0.01401
1711.35831	0.01428
1710.07254	0.01459
1708.78677	0.01496
1707.50100	0.01538
1706.21523	0.01587
1704.92946	0.01647
1703.64370	0.01715
1702.35793	0.01781
1701.07216	0.01848
1699.78639	0.01930
1698.50062	0.02020
1697.21485	0.02100
1695.92908	0.02174
1694.64331	0.02259
1693.35754	0.02351
1692.07178	0.02439
1690.78601	0.02530
1689.50024	0.02632
1688.21447	0.02737
1686.92870	0.02825
1685.64293	0.02894
1684.35716	0.02967
1683.07139	0.03057
1681.78563	0.03155
1680.49986	0.03250
1679.21409	0.03342
1677.92832	0.03435
1676.64255	0.03527
1675.35678	0.03621
1674.07101	0.03718
1672.78524	0.03812
1671.49947	0.03900
1670.21371	0.03989
1668.92794	0.04083
1667.64217	0.04177
1666.35640	0.04264
1665.07063	0.04339
1663.78486	0.04411
1662.49909	0.04484
1661.21332	0.04559
1659.92756	0.04632
1658.64179	0.04703
1657.35602	0.04775
1656.07025	0.04843
1654.78448	0.04899
1653.49871	0.04952
1652.21294	0.05017
1650.92717	0.05087
1649.64140	0.05139
1648.35564	0.05170
1647.06987	0.05195
1645.78410	0.05222
1644.49833	0.05247
1643.21256	0.05264
1641.92679	0.05274
1640.64102	0.05279
1639.35525	0.05275
1638.06949	0.05256
1636.78372	0.05222
1635.49795	0.05186
1634.21218	0.05151
1632.92641	0.05108
1631.64064	0.05048
1630.35487	0.04978
1629.06910	0.04907
1627.78333	0.04838
1626.49757	0.04764
1625.21180	0.04677
1623.92603	0.04582
1622.64026	0.04490
1621.35449	0.04405
1620.06872	0.04317
1618.78295	0.04218
1617.49718	0.04117
1616.21142	0.04028
1614.92565	0.03952
1613.63988	0.03874
1612.35411	0.03788
1611.06834	0.03702
1609.78257	0.03624
1608.49680	0.03556
1607.21103	0.03495
1605.92526	0.03436
1604.63950	0.03381
1603.35373	0.03332
1602.06796	0.03290
1600.78219	0.03253
1599.49642	0.03217
1598.21065	0.03183
1596.92488	0.03157
1595.63911	0.03139
1594.35335	0.03130
1593.06758	0.03128
1591.78181	0.03131
1590.49604	0.03137
1589.21027	0.03145
1587.92450	0.03153
1586.63873	0.03161
1585.35296	0.03172
1584.06719	0.03189
1582.78143	0.03211
1581.49566	0.03240
1580.20989	0.03271
1578.92412	0.03300
1577.63835	0.03326
1576.35258	0.03361
1575.06681	0.03415
1573.78104	0.03477
1572.49528	0.03527
1571.20951	0.03561
1569.92374	0.03590
1568.63797	0.03621
1567.35220	0.03657
1566.06643	0.03696
1564.78066	0.03742
1563.49489	0.03796
1562.20912	0.03846
1560.92336	0.03883
1559.63759	0.03914
1558.35182	0.03953
1557.06605	0.03995
1555.78028	0.04029
1554.49451	0.04054
1553.20874	0.04082
1551.92297	0.04114
1550.63721	0.04142
1549.35144	0.04165
1548.06567	0.04183
1546.77990	0.04194
1545.49413	0.04202
1544.20836	0.04212
1542.92259	0.04222
1541.63682	0.04229
1540.35105	0.04235
1539.06529	0.04247
1537.77952	0.04264
1536.49375	0.04271
1535.20798	0.04263
1533.92221	0.04251
1532.63644	0.04249
1531.35067	0.04252
1530.06490	0.04254
1528.77914	0.04251
1527.49337	0.04247
1526.20760	0.04247
1524.92183	0.04253
1523.63606	0.04262
1522.35029	0.04271
1521.06452	0.04282
1519.77875	0.04293
1518.49298	0.04294
1517.20722	0.04288
1515.92145	0.04287
1514.63568	0.04295
1513.34991	0.04310
1512.06414	0.04330
1510.77837	0.04355
1509.49260	0.04376
1508.20683	0.04387
1506.92107	0.04394
1505.63530	0.04407
1504.34953	0.04427
1503.06376	0.04446
1501.77799	0.04460
1500.49222	0.04471
1499.20645	0.04476
1497.92068	0.04472
1496.63491	0.04462
1495.34915	0.04454
1494.06338	0.04447
1492.77761	0.04437
1491.49184	0.04428
1490.20607	0.04430
1488.92030	0.04445
1487.63453	0.04473
1486.34876	0.04507
1485.06299	0.04544
1483.77723	0.04585
1482.49146	0.04632
1481.20569	0.04685
1479.91992	0.04742
1478.63415	0.04796
1477.34838	0.04847
1476.06261	0.04899
1474.77684	0.04957
1473.49108	0.05023
1472.20531	0.05094
1470.91954	0.05160
1469.63377	0.05211
1468.34800	0.05244
1467.06223	0.05268
1465.77646	0.05292
1464.49069	0.05325
1463.20492	0.05368
1461.91916	0.05420
1460.63339	0.05475
1459.34762	0.05530
1458.06185	0.05590
1456.77608	0.05658
1455.49031	0.05731
1454.20454	0.05794
1452.91877	0.05839
1451.63301	0.05872
1450.34724	0.05898
1449.06147	0.05913
1447.77570	0.05916
1446.48993	0.05908
1445.20416	0.05892
1443.91839	0.05869
1442.63262	0.05840
1441.34685	0.05805
1440.06109	0.05765
1438.77532	0.05720
1437.48955	0.05677
1436.20378	0.05645
1434.91801	0.05627
1433.63224	0.05618
1432.34647	0.05612
1431.06070	0.05615
1429.77494	0.05633
1428.48917	0.05667
1427.20340	0.05713
1425.91763	0.05766
1424.63186	0.05827
1423.34609	0.05896
1422.06032	0.05970
1420.77455	0.06041
1419.48878	0.06107
1418.20302	0.06169
1416.91725	0.06227
1415.63148	0.06274
1414.34571	0.06312
1413.05994	0.06339
1411.77417	0.06358
1410.48840	0.06367
1409.20263	0.06366
1407.91687	0.06351
1406.63110	0.06320
1405.34533	0.06278
1404.05956	0.06230
1402.77379	0.06177
1401.48802	0.06114
1400.20225	0.06037
1398.91648	0.05949
1397.63071	0.05854
1396.34495	0.05755
1395.05918	0.05654
1393.77341	0.05558
1392.48764	0.05466
1391.20187	0.05376
1389.91610	0.05283
1388.63033	0.05186
1387.34456	0.05091
1386.05880	0.04997
1384.77303	0.04903
1383.48726	0.04806
1382.20149	0.04706
1380.91572	0.04605
1379.62995	0.04503
1378.34418	0.04400
1377.05841	0.04299
1375.77264	0.04201
1374.48688	0.04106
1373.20111	0.04013
1371.91534	0.03917
1370.62957	0.03818
1369.34380	0.03719
1368.05803	0.03626
1366.77226	0.03540
1365.48649	0.03459
1364.20073	0.03382
1362.91496	0.03311
1361.62919	0.03244
1360.34342	0.03182
1359.05765	0.03124
1357.77188	0.03071
1356.48611	0.03026
1355.20034	0.02990
1353.91457	0.02960
1352.62881	0.02934
1351.34304	0.02907
1350.05727	0.02877
1348.77150	0.02848
1347.48573	0.02822
1346.19996	0.02801
1344.91419	0.02785
1343.62842	0.02775
1342.34266	0.02768
1341.05689	0.02763
1339.77112	0.02756
1338.48535	0.02743
1337.19958	0.02722
1335.91381	0.02698
1334.62804	0.02676
1333.34227	0.02659
1332.05650	0.02647
1330.77074	0.02636
1329.48497	0.02623
1328.19920	0.02605
1326.91343	0.02583
1325.62766	0.02559
1324.34189	0.02538
1323.05612	0.02521
1321.77035	0.02506
1320.48459	0.02488
1319.19882	0.02467
1317.91305	0.02444
1316.62728	0.02424
1315.34151	0.02408
1314.05574	0.02394
1312.76997	0.02379
1311.48420	0.02361
1310.19843	0.02342
1308.91267	0.02322
1307.62690	0.02303
1306.34113	0.02284
1305.05536	0.02267
1303.76959	0.02251
1302.48382	0.02235
1301.19805	0.02217
1299.91228	0.02199
1298.62652	0.02183
1297.34075	0.02172
1296.05498	0.02164
1294.76921	0.02155
1293.48344	0.02145
1292.19767	0.02135
1290.91190	0.02128
1289.62613	0.02126
1288.34036	0.02127
1287.05460	0.02128
1285.76883	0.02125
1284.48306	0.02117
1283.19729	0.02109
1281.91152	0.02105
1280.62575	0.02105
1279.33998	0.02105
1278.05421	0.02101
1276.76845	0.02094
1275.48268	0.02085
1274.19691	0.02076
1272.91114	0.02067
1271.62537	0.02059
1270.33960	0.02054
1269.05383	0.02052
1267.76806	0.02053
1266.48229	0.02056
1265.19653	0.02061
1263.91076	0.02064
1262.62499	0.02066
1261.33922	0.02065
1260.05345	0.02064
1258.76768	0.02062
1257.48191	0.02061
1256.19614	0.02059
1254.91037	0.02058
1253.62461	0.02058
1252.33884	0.02058
1251.05307	0.02058
1249.76730	0.02060
1248.48153	0.02064
1247.19576	0.02068
1245.90999	0.02069
1244.62422	0.02068
1243.33846	0.02064
1242.05269	0.02061
1240.76692	0.02058
1239.48115	0.02055
1238.19538	0.02051
1236.90961	0.02044
1235.62384	0.02032
1234.33807	0.02016
1233.05230	0.01999
1231.76654	0.01983
1230.48077	0.01969
1229.19500	0.01955
1227.90923	0.01935
1226.62346	0.01906
1225.33769	0.01870
1224.05192	0.01834
1222.76615	0.01804
1221.48039	0.01780
1220.19462	0.01759
1218.90885	0.01739
1217.62308	0.01720
1216.33731	0.01705
1215.05154	0.01691
1213.76577	0.01677
1212.48000	0.01662
1211.19423	0.01649
1209.90847	0.01643
1208.62270	0.01642
1207.33693	0.01643
1206.05116	0.01644
1204.76539	0.01643
1203.47962	0.01641
1202.19385	0.01634
1200.90808	0.01623
1199.62232	0.01608
1198.33655	0.01593
1197.05078	0.01578
1195.76501	0.01562
1194.47924	0.01545
1193.19347	0.01526
1191.90770	0.01506
1190.62193	0.01486
1189.33616	0.01470
1188.05040	0.01458
1186.76463	0.01451
1185.47886	0.01451
1184.19309	0.01453
1182.90732	0.01454
1181.62155	0.01449
1180.33578	0.01439
1179.05001	0.01428
1177.76425	0.01418
1176.47848	0.01410
1175.19271	0.01404
1173.90694	0.01401
1172.62117	0.01402
1171.33540	0.01406
1170.04963	0.01412
1168.76386	0.01416
1167.47809	0.01416
1166.19233	0.01415
1164.90656	0.01416
1163.62079	0.01421
1162.33502	0.01431
1161.04925	0.01443
1159.76348	0.01453
1158.47771	0.01456
1157.19194	0.01450
1155.90618	0.01438
1154.62041	0.01428
1153.33464	0.01427
1152.04887	0.01434
1150.76310	0.01446
1149.47733	0.01463
1148.19156	0.01482
1146.90579	0.01502
1145.62002	0.01523
1144.33426	0.01545
1143.04849	0.01571
1141.76272	0.01606
1140.47695	0.01651
1139.19118	0.01701
1137.90541	0.01752
1136.61964	0.01805
1135.33387	0.01863
1134.04811	0.01935
1132.76234	0.02020
1131.47657	0.02118
1130.19080	0.02225
1128.90503	0.02342
1127.61926	0.02469
1126.33349	0.02607
1125.04772	0.02760
1123.76195	0.02930
1122.47619	0.03115
1121.19042	0.03313
1119.90465	0.03523
1118.61888	0.03740
1117.33311	0.03962
1116.04734	0.04183
1114.76157	0.04398
1113.47580	0.04604
1112.19004	0.04805
1110.90427	0.05004
1109.61850	0.05207
1108.33273	0.05410
1107.04696	0.05608
1105.76119	0.05795
1104.47542	0.05972
1103.18965	0.06142
1101.90388	0.06306
1100.61812	0.06463
1099.33235	0.06610
1098.04658	0.06752
1096.76081	0.06894
1095.47504	0.07037
1094.18927	0.07177
1092.90350	0.07312
1091.61773	0.07440
1090.33197	0.07559
1089.04620	0.07663
1087.76043	0.07752
1086.47466	0.07830
1085.18889	0.07905
1083.90312	0.07983
1082.61735	0.08071
1081.33158	0.08175
1080.04581	0.08296
1078.76005	0.08436
1077.47428	0.08590
1076.18851	0.08749
1074.90274	0.08911
1073.61697	0.09081
1072.33120	0.09261
1071.04543	0.09452
1069.75966	0.09646
1068.47390	0.09844
1067.18813	0.10053
1065.90236	0.10274
1064.61659	0.10501
1063.33082	0.10727
1062.04505	0.10948
1060.75928	0.11164
1059.47351	0.11377
1058.18774	0.11592
1056.90198	0.11811
1055.61621	0.12029
1054.33044	0.12240
1053.04467	0.12439
1051.75890	0.12629
1050.47313	0.12816
1049.18736	0.13006
1047.90159	0.13202
1046.61583	0.13406
1045.33006	0.13619
1044.04429	0.13834
1042.75852	0.14039
1041.47275	0.14231
1040.18698	0.14411
1038.90121	0.14590
1037.61544	0.14781
1036.32967	0.14989
1035.04391	0.15209
1033.75814	0.15419
1032.47237	0.15597
1031.18660	0.15739
1029.90083	0.15858
1028.61506	0.15968
1027.32929	0.16068
1026.04352	0.16154
1024.75775	0.16226
1023.47199	0.16288
1022.18622	0.16342
1020.90045	0.16377
1019.61468	0.16385
1018.32891	0.16354
1017.04314	0.16283
1015.75737	0.16176
1014.47160	0.16041
1013.18584	0.15887
1011.90007	0.15716
1010.61430	0.15528
1009.32853	0.15320
1008.04276	0.15094
1006.75699	0.14848
1005.47122	0.14580
1004.18545	0.14289
1002.89968	0.13978
1001.61392	0.13653
1000.32815	0.13324
999.04238	0.12994
997.75661	0.12663
996.47084	0.12329
995.18507	0.11991
993.89930	0.11647
992.61353	0.11300
991.32777	0.10958
990.04200	0.10627
988.75623	0.10310
987.47046	0.10006
986.18469	0.09712
984.89892	0.09427
983.61315	0.09151
982.32738	0.08888
981.04161	0.08634
979.75585	0.08388
978.47008	0.08147
977.18431	0.07915
975.89854	0.07697
974.61277	0.07499
973.32700	0.07324
972.04123	0.07174
970.75546	0.07052
969.46970	0.06962
968.18393	0.06905
966.89816	0.06885
965.61239	0.06903
964.32662	0.06953
963.04085	0.07024
961.75508	0.07087
960.46931	0.07113
959.18354	0.07084
957.89778	0.07005
956.61201	0.06892
955.32624	0.06764
954.04047	0.06632
952.75470	0.06495
951.46893	0.06353
950.18316	0.06207
948.89739	0.06066
947.61163	0.05932
946.32586	0.05806
945.04009	0.05683
943.75432	0.05564
942.46855	0.05446
941.18278	0.05330
939.89701	0.05216
938.61124	0.05106
937.32547	0.05004
936.03971	0.04911
934.75394	0.04827
933.46817	0.04750
932.18240	0.04681
930.89663	0.04615
929.61086	0.04543
928.32509	0.04466
927.03932	0.04390
925.75356	0.04323
924.46779	0.04268
923.18202	0.04220
921.89625	0.04171
920.61048	0.04118
919.32471	0.04063
918.03894	0.04008
916.75317	0.03958
915.46740	0.03914
914.18164	0.03877
912.89587	0.03844
911.61010	0.03806
910.32433	0.03759
909.03856	0.03710
907.75279	0.03668
906.46702	0.03633
905.18125	0.03598
903.89549	0.03564
902.60972	0.03535
901.32395	0.03510
900.03818	0.03482
898.75241	0.03445
897.46664	0.03407
896.18087	0.03378
894.89510	0.03355
893.60933	0.03337
892.32357	0.03319
891.03780	0.03301
889.75203	0.03285
888.46626	0.03278
887.18049	0.03293
885.89472	0.03345
884.60895	0.03441
883.32318	0.03574
882.03742	0.03724
880.75165	0.03863
879.46588	0.03971
878.18011	0.04046
876.89434	0.04104
875.60857	0.04169
874.32280	0.04250
873.03703	0.04331
871.75126	0.04385
870.46550	0.04394
869.17973	0.04354
867.89396	0.04275
866.60819	0.04166
865.32242	0.04040
864.03665	0.03909
862.75088	0.03785
861.46511	0.03675
860.17935	0.03585
858.89358	0.03514
857.60781	0.03450
856.32204	0.03388
855.03627	0.03327
853.75050	0.03275
852.46473	0.03233
851.17896	0.03202
849.89319	0.03180
848.60743	0.03162
847.32166	0.03142
846.03589	0.03117
844.75012	0.03087
843.46435	0.03057
842.17858	0.03026
840.89281	0.02994
839.60704	0.02966
838.32128	0.02949
837.03551	0.02941
835.74974	0.02936
834.46397	0.02928
833.17820	0.02918
831.89243	0.02905
830.60666	0.02890
829.32089	0.02871
828.03512	0.02850
826.74936	0.02826
825.46359	0.02805
824.17782	0.02791
822.89205	0.02790
821.60628	0.02796
820.32051	0.02797
819.03474	0.02788
817.74897	0.02772
816.46321	0.02756
815.17744	0.02746
813.89167	0.02743
812.60590	0.02746
811.32013	0.02754
810.03436	0.02764
808.74859	0.02772
807.46282	0.02769
806.17705	0.02753
804.89129	0.02731
803.60552	0.02712
802.31975	0.02704
801.03398	0.02705
799.74821	0.02709
798.46244	0.02711
797.17667	0.02713
795.89090	0.02716
794.60513	0.02716
793.31937	0.02708
792.03360	0.02694
790.74783	0.02682
789.46206	0.02680
788.17629	0.02687
786.89052	0.02697
785.60475	0.02698
784.31898	0.02688
783.03322	0.02669
781.74745	0.02649
780.46168	0.02635
779.17591	0.02636
777.89014	0.02655
776.60437	0.02678
775.31860	0.02687
774.03283	0.02675
772.74706	0.02655
771.46130	0.02641
770.17553	0.02638
768.88976	0.02642
767.60399	0.02644
766.31822	0.02648
765.03245	0.02659
763.74668	0.02674
762.46091	0.02687
761.17515	0.02689
759.88938	0.02684
758.60361	0.02680
757.31784	0.02683
756.03207	0.02687
754.74630	0.02691
753.46053	0.02699
752.17476	0.02714
750.88899	0.02727
749.60323	0.02722
748.31746	0.02701
747.03169	0.02678
745.74592	0.02672
744.46015	0.02682
743.17438	0.02697
741.88861	0.02704
740.60284	0.02699
739.31708	0.02690
738.03131	0.02686
736.74554	0.02687
735.45977	0.02690
734.17400	0.02693
732.88823	0.02696
731.60246	0.02699
730.31669	0.02706
729.03092	0.02716
727.74516	0.02725
726.45939	0.02727
725.17362	0.02721
723.88785	0.02709
722.60208	0.02714
721.31631	0.02732
720.03054	0.02751
718.74477	0.02766
717.45901	0.02774
716.17324	0.02775
714.88747	0.02770
713.60170	0.02761
712.31593	0.02751
711.03016	0.02743
709.74439	0.02743
708.45862	0.02748
707.17285	0.02756
705.88709	0.02761
704.60132	0.02760
703.31555	0.02755
702.02978	0.02749
700.74401	0.02744
699.45824	0.02741
698.17247	0.02739
696.88670	0.02742
695.60094	0.02750
694.31517	0.02761
693.02940	0.02770
691.74363	0.02773
690.45786	0.02771
689.17209	0.02765
687.88632	0.02759
686.60055	0.02754
685.31478	0.02748
684.02902	0.02736
682.74325	0.02718
681.45748	0.02703
680.17171	0.02698
678.88594	0.02701
677.60017	0.02707
676.31440	0.02711
675.02863	0.02713
673.74287	0.02715
672.45710	0.02718
671.17133	0.02723
669.88556	0.02732
668.59979	0.02743
667.31402	0.02758
666.02825	0.02762
664.74248	0.02758
663.45671	0.02747
662.17095	0.02732
660.88518	0.02717
659.59941	0.02705
658.31364	0.02693
657.02787	0.02683
655.74210	0.02674
654.45633	0.02668
653.17056	0.02665
651.88480	0.02668
650.59903	0.02677
649.31326	0.02688
648.02749	0.02703
646.74172	0.02719
645.45595	0.02736
644.17018	0.02755
642.88441	0.02774
641.59864	0.02788
640.31288	0.02793
639.02711	0.02793
637.74134	0.02796
636.45557	0.02809
635.16980	0.02829
633.88403	0.02848
632.59826	0.02859
631.31249	0.02864
630.02673	0.02871
628.74096	0.02879
627.45519	0.02865
626.16942	0.02865
624.88365	0.02879
623.59788	0.02914
622.31211	0.02988
621.02634	0.03107
619.74057	0.03271
618.45481	0.03485
617.16904	0.03727
615.88327	0.03917
614.59750	0.03960
613.31173	0.03851
612.02596	0.03736
610.74019	0.03833
609.45442	0.04245
608.16866	0.04876
606.88289	0.05541
605.59712	0.06099
604.31135	0.06491
603.02558	0.06719
601.73981	0.06816
600.45404	0.06811
599.16827	0.06727
597.88250	0.06590
596.59674	0.06425
595.31097	0.06250
594.02520	0.06071
592.73943	0.05899
591.45366	0.05752
590.16789	0.05650
588.88212	0.05600
587.59635	0.05604
586.31059	0.05660
585.02482	0.05759
583.73905	0.05891
582.45328	0.06039
581.16751	0.06193
579.88174	0.06351
578.59597	0.06520
577.31020	0.06703
576.02443	0.06899
574.73867	0.07101
573.45290	0.07299
572.16713	0.07490
570.88136	0.07682
569.59559	0.07887
568.30982	0.08113
567.02405	0.08360
565.73828	0.08617
564.45251	0.08858
563.16675	0.09047
561.88098	0.09143
560.59521	0.09126
559.30944	0.09000
558.02367	0.08785
556.73790	0.08506
555.45213	0.08188
554.16636	0.07852
552.88060	0.07514
551.59483	0.07183
550.30906	0.06864
549.02329	0.06569
547.73752	0.06307
546.45175	0.06079
545.16598	0.05880
543.88021	0.05703
542.59444	0.05538
541.30868	0.05379
540.02291	0.05223
538.73714	0.05077
537.45137	0.04951
536.16560	0.04848
534.87983	0.04758
533.59406	0.04665
532.30829	0.04562
531.02253	0.04450
529.73676	0.04340
528.45099	0.04239
527.16522	0.04149
525.87945	0.04073
524.59368	0.04009
523.30791	0.03948
522.02214	0.03885
520.73637	0.03820
519.45061	0.03754
518.16484	0.03685
516.87907	0.03614
515.59330	0.03548
514.30753	0.03494
513.02176	0.03450
511.73599	0.03411
510.45022	0.03374
509.16446	0.03338
507.87869	0.03302
506.59292	0.03259
505.30715	0.03208
504.02138	0.03153
502.73561	0.03104
501.44984	0.03066
500.16407	0.03036
498.87830	0.03015
497.59254	0.02998
496.30677	0.02979
495.02100	0.02948
493.73523	0.02901
492.44946	0.02846
491.16369	0.02795
489.87792	0.02758
488.59215	0.02739
487.30639	0.02739
486.02062	0.02745
484.73485	0.02747
483.44908	0.02740
482.16331	0.02726
480.87754	0.02712
479.59177	0.02703
478.30600	0.02704
477.02023	0.02714
475.73447	0.02731
474.44870	0.02749
473.16293	0.02764
471.87716	0.02773
470.59139	0.02774
469.30562	0.02765
468.01985	0.02743
466.73408	0.02711
465.44832	0.02678
464.16255	0.02652
462.87678	0.02636
461.59101	0.02624
460.30524	0.02607
459.01947	0.02583
457.73370	0.02553
456.44793	0.02518
455.16216	0.02481
453.87640	0.02445
452.59063	0.02412
451.30486	0.02385
450.01909	0.02361
448.73332	0.02338
447.44755	0.02315
446.16178	0.02291
444.87601	0.02266
443.59025	0.02240
442.30448	0.02219
441.01871	0.02206
439.73294	0.02200
438.44717	0.02196
437.16140	0.02188
435.87563	0.02175
434.58986	0.02157
433.30409	0.02140
432.01833	0.02127
430.73256	0.02121
429.44679	0.02117
428.16102	0.02110
426.87525	0.02097
425.58948	0.02080
424.30371	0.02062
423.01794	0.02045
421.73218	0.02024
420.44641	0.01998
419.16064	0.01969
417.87487	0.01946
416.58910	0.01929
415.30333	0.01915
414.01756	0.01900
412.73179	0.01886
411.44602	0.01874
410.16026	0.01865
408.87449	0.01857
407.58872	0.01851
406.30295	0.01849
405.01718	0.01851
403.73141	0.01856
402.44564	0.01859
401.15987	0.01856
399.87411	0.01849
