3997.45528	0.00502
3996.16951	0.00498
3994.88374	0.00476
3993.59798	0.00443
3992.31221	0.00419
3991.02644	0.00426
3989.74067	0.00463
3988.45490	0.00503
3987.16913	0.00520
3985.88336	0.00514
3984.59759	0.00521
3983.31183	0.00568
3982.02606	0.00644
3980.74029	0.00711
3979.45452	0.00746
3978.16875	0.00759
3976.88298	0.00762
3975.59721	0.00749
3974.31144	0.00712
3973.02567	0.00658
3971.73991	0.00612
3970.45414	0.00585
3969.16837	0.00568
3967.88260	0.00550
3966.59683	0.00532
3965.31106	0.00523
3964.02529	0.00527
3962.73952	0.00546
3961.45376	0.00590
3960.16799	0.00663
3958.88222	0.00744
3957.59645	0.00795
3956.31068	0.00795
3955.02491	0.00762
3953.73914	0.00736
3952.45337	0.00740
3951.16760	0.00763
3949.88184	0.00776
3948.59607	0.00774
3947.31030	0.00773
3946.02453	0.00777
3944.73876	0.00769
3943.45299	0.00742
3942.16722	0.00718
3940.88145	0.00727
3939.59569	0.00773
3938.30992	0.00834
3937.02415	0.00877
3935.73838	0.00879
3934.45261	0.00834
3933.16684	0.00755
3931.88107	0.00670
3930.59530	0.00608
3929.30953	0.00593
3928.02377	0.00624
3926.73800	0.00680
3925.45223	0.00740
3924.16646	0.00801
3922.88069	0.00857
3921.59492	0.00883
3920.30915	0.00860
3919.02338	0.00795
3917.73762	0.00727
3916.45185	0.00691
3915.16608	0.00697
3913.88031	0.00728
3912.59454	0.00769
3911.30877	0.00813
3910.02300	0.00849
3908.73723	0.00870
3907.45146	0.00876
3906.16570	0.00881
3904.87993	0.00897
3903.59416	0.00925
3902.30839	0.00951
3901.02262	0.00957
3899.73685	0.00936
3898.45108	0.00890
3897.16531	0.00833
3895.87955	0.00786
3894.59378	0.00764
3893.30801	0.00758
3892.02224	0.00762
3890.73647	0.00783
3889.45070	0.00817
3888.16493	0.00835
3886.87916	0.00825
3885.59339	0.00807
3884.30763	0.00800
3883.02186	0.00794
3881.73609	0.00783
3880.45032	0.00776
3879.16455	0.00777
3877.87878	0.00769
3876.59301	0.00750
3875.30724	0.00753
3874.02148	0.00817
3872.73571	0.00931
3871.44994	0.01044
3870.16417	0.01121
3868.87840	0.01159
3867.59263	0.01152
3866.30686	0.01101
3865.02109	0.01035
3863.73532	0.00985
3862.44956	0.00959
3861.16379	0.00953
3859.87802	0.00960
3858.59225	0.00966
3857.30648	0.00946
3856.02071	0.00898
3854.73494	0.00866
3853.44917	0.00907
3852.16341	0.01001
3850.87764	0.01064
3849.59187	0.01050
3848.30610	0.00997
3847.02033	0.00953
3845.73456	0.00922
3844.44879	0.00890
3843.16302	0.00863
3841.87725	0.00869
3840.59149	0.00897
3839.30572	0.00903
3838.01995	0.00863
3836.73418	0.00802
3835.44841	0.00764
3834.16264	0.00774
3832.87687	0.00831
3831.59110	0.00912
3830.30534	0.00982
3829.01957	0.01018
3827.73380	0.01022
3826.44803	0.01009
3825.16226	0.00982
3823.87649	0.00930
3822.59072	0.00868
3821.30495	0.00839
3820.01918	0.00858
3818.73342	0.00880
3817.44765	0.00868
3816.16188	0.00844
3814.87611	0.00846
3813.59034	0.00863
3812.30457	0.00877
3811.01880	0.00891
3809.73303	0.00908
3808.44726	0.00928
3807.16150	0.00961
3805.87573	0.01000
3804.58996	0.00994
3803.30419	0.00911
3802.01842	0.00813
3800.73265	0.00795
3799.44688	0.00866
3798.16111	0.00948
3796.87535	0.00985
3795.58958	0.00980
3794.30381	0.00958
3793.01804	0.00941
3791.73227	0.00945
3790.44650	0.00966
3789.16073	0.00991
3787.87496	0.01005
3786.58919	0.01006
3785.30343	0.00991
3784.01766	0.00957
3782.73189	0.00908
3781.44612	0.00860
3780.16035	0.00841
3778.87458	0.00868
3777.58881	0.00922
3776.30304	0.00961
3775.01728	0.00958
3773.73151	0.00916
3772.44574	0.00858
3771.15997	0.00811
3769.87420	0.00796
3768.58843	0.00804
3767.30266	0.00807
3766.01689	0.00791
3764.73112	0.00771
3763.44536	0.00777
3762.15959	0.00828
3760.87382	0.00924
3759.58805	0.01027
3758.30228	0.01069
3757.01651	0.01021
3755.73074	0.00913
3754.44497	0.00805
3753.15921	0.00739
3751.87344	0.00726
3750.58767	0.00753
3749.30190	0.00817
3748.01613	0.00898
3746.73036	0.00940
3745.44459	0.00925
3744.15882	0.00902
3742.87305	0.00902
3741.58729	0.00887
3740.30152	0.00817
3739.01575	0.00700
3737.72998	0.00579
3736.44421	0.00506
3735.15844	0.00504
3733.87267	0.00546
3732.58690	0.00600
3731.30114	0.00664
3730.01537	0.00736
3728.72960	0.00790
3727.44383	0.00822
3726.15806	0.00857
3724.87229	0.00897
3723.58652	0.00916
3722.30075	0.00895
3721.01498	0.00854
3719.72922	0.00834
3718.44345	0.00854
3717.15768	0.00901
3715.87191	0.00945
3714.58614	0.00965
3713.30037	0.00961
3712.01460	0.00934
3710.72883	0.00882
3709.44307	0.00803
3708.15730	0.00722
3706.87153	0.00677
3705.58576	0.00685
3704.29999	0.00733
3703.01422	0.00796
3701.72845	0.00856
3700.44268	0.00900
3699.15691	0.00916
3697.87115	0.00890
3696.58538	0.00824
3695.29961	0.00743
3694.01384	0.00683
3692.72807	0.00679
3691.44230	0.00730
3690.15653	0.00798
3688.87076	0.00846
3687.58500	0.00860
3686.29923	0.00835
3685.01346	0.00782
3683.72769	0.00728
3682.44192	0.00703
3681.15615	0.00723
3679.87038	0.00796
3678.58461	0.00903
3677.29884	0.01003
3676.01308	0.01065
3674.72731	0.01088
3673.44154	0.01064
3672.15577	0.01000
3670.87000	0.00943
3669.58423	0.00938
3668.29846	0.00966
3667.01269	0.00983
3665.72693	0.00977
3664.44116	0.00966
3663.15539	0.00963
3661.86962	0.00971
3660.58385	0.00995
3659.29808	0.01030
3658.01231	0.01059
3656.72654	0.01073
3655.44077	0.01076
3654.15501	0.01069
3652.86924	0.01053
3651.58347	0.01043
3650.29770	0.01058
3649.01193	0.01088
3647.72616	0.01111
3646.44039	0.01111
3645.15462	0.01094
3643.86886	0.01076
3642.58309	0.01070
3641.29732	0.01079
3640.01155	0.01091
3638.72578	0.01100
3637.44001	0.01111
3636.15424	0.01142
3634.86847	0.01200
3633.58270	0.01277
3632.29694	0.01340
3631.01117	0.01365
3629.72540	0.01365
3628.43963	0.01379
3627.15386	0.01417
3625.86809	0.01443
3624.58232	0.01430
3623.29655	0.01385
3622.01079	0.01337
3620.72502	0.01321
3619.43925	0.01353
3618.15348	0.01417
3616.86771	0.01472
3615.58194	0.01497
3614.29617	0.01502
3613.01040	0.01508
3611.72463	0.01516
3610.43887	0.01514
3609.15310	0.01499
3607.86733	0.01479
3606.58156	0.01454
3605.29579	0.01407
3604.01002	0.01322
3602.72425	0.01215
3601.43848	0.01138
3600.15272	0.01140
3598.86695	0.01215
3597.58118	0.01314
3596.29541	0.01400
3595.00964	0.01474
3593.72387	0.01551
3592.43810	0.01624
3591.15233	0.01670
3589.86656	0.01680
3588.58080	0.01667
3587.29503	0.01647
3586.00926	0.01622
3584.72349	0.01593
3583.43772	0.01565
3582.15195	0.01548
3580.86618	0.01543
3579.58041	0.01546
3578.29464	0.01547
3577.00888	0.01543
3575.72311	0.01537
3574.43734	0.01541
3573.15157	0.01565
3571.86580	0.01606
3570.58003	0.01653
3569.29426	0.01707
3568.00849	0.01779
3566.72273	0.01858
3565.43696	0.01919
3564.15119	0.01937
3562.86542	0.01915
3561.57965	0.01865
3560.29388	0.01798
3559.00811	0.01725
3557.72234	0.01656
3556.43657	0.01608
3555.15081	0.01601
3553.86504	0.01641
3552.57927	0.01706
3551.29350	0.01763
3550.00773	0.01792
3548.72196	0.01801
3547.43619	0.01812
3546.15042	0.01835
3544.86466	0.01866
3543.57889	0.01892
3542.29312	0.01904
3541.00735	0.01900
3539.72158	0.01892
3538.43581	0.01897
3537.15004	0.01923
3535.86427	0.01963
3534.57850	0.01995
3533.29274	0.02007
3532.00697	0.02006
3530.72120	0.02005
3529.43543	0.02015
3528.14966	0.02031
3526.86389	0.02043
3525.57812	0.02039
3524.29235	0.02021
3523.00659	0.02002
3521.72082	0.01994
3520.43505	0.01993
3519.14928	0.02001
3517.86351	0.02026
3516.57774	0.02074
3515.29197	0.02134
3514.00620	0.02184
3512.72043	0.02210
3511.43467	0.02207
3510.14890	0.02175
3508.86313	0.02124
3507.57736	0.02076
3506.29159	0.02052
3505.00582	0.02061
3503.72005	0.02095
3502.43428	0.02142
3501.14852	0.02196
3499.86275	0.02250
3498.57698	0.02284
3497.29121	0.02272
3496.00544	0.02214
3494.71967	0.02152
3493.43390	0.02138
3492.14813	0.02186
3490.86236	0.02262
3489.57660	0.02320
3488.29083	0.02342
3487.00506	0.02339
3485.71929	0.02321
3484.43352	0.02290
3483.14775	0.02258
3481.86198	0.02245
3480.57621	0.02258
3479.29045	0.02286
3478.00468	0.02309
3476.71891	0.02309
3475.43314	0.02274
3474.14737	0.02208
3472.86160	0.02138
3471.57583	0.02103
3470.29006	0.02125
3469.00429	0.02195
3467.71853	0.02281
3466.43276	0.02344
3465.14699	0.02359
3463.86122	0.02333
3462.57545	0.02307
3461.28968	0.02317
3460.00391	0.02371
3458.71814	0.02455
3457.43238	0.02543
3456.14661	0.02607
3454.86084	0.02619
3453.57507	0.02571
3452.28930	0.02490
3451.00353	0.02426
3449.71776	0.02414
3448.43199	0.02443
3447.14622	0.02474
3445.86046	0.02470
3444.57469	0.02434
3443.28892	0.02399
3442.00315	0.02395
3440.71738	0.02423
3439.43161	0.02465
3438.14584	0.02505
3436.86007	0.02537
3435.57431	0.02555
3434.28854	0.02556
3433.00277	0.02545
3431.71700	0.02543
3430.43123	0.02565
3429.14546	0.02607
3427.85969	0.02647
3426.57392	0.02666
3425.28815	0.02653
3424.00239	0.02612
3422.71662	0.02556
3421.43085	0.02511
3420.14508	0.02497
3418.85931	0.02516
3417.57354	0.02545
3416.28777	0.02558
3415.00200	0.02547
3413.71624	0.02527
3412.43047	0.02525
3411.14470	0.02566
3409.85893	0.02644
3408.57316	0.02721
3407.28739	0.02754
3406.00162	0.02722
3404.71585	0.02650
3403.43008	0.02587
3402.14432	0.02573
3400.85855	0.02613
3399.57278	0.02678
3398.28701	0.02727
3397.00124	0.02738
3395.71547	0.02720
3394.42970	0.02699
3393.14393	0.02689
3391.85817	0.02682
3390.57240	0.02668
3389.28663	0.02660
3388.00086	0.02678
3386.71509	0.02724
3385.42932	0.02779
3384.14355	0.02824
3382.85778	0.02848
3381.57201	0.02846
3380.28625	0.02821
3379.00048	0.02784
3377.71471	0.02760
3376.42894	0.02764
3375.14317	0.02791
3373.85740	0.02814
3372.57163	0.02814
3371.28586	0.02798
3370.00010	0.02796
3368.71433	0.02826
3367.42856	0.02875
3366.14279	0.02911
3364.85702	0.02914
3363.57125	0.02893
3362.28548	0.02869
3360.99971	0.02855
3359.71394	0.02848
3358.42818	0.02843
3357.14241	0.02839
3355.85664	0.02840
3354.57087	0.02850
3353.28510	0.02872
3351.99933	0.02908
3350.71356	0.02950
3349.42779	0.02970
3348.14202	0.02945
3346.85626	0.02872
3345.57049	0.02780
3344.28472	0.02708
3342.99895	0.02684
3341.71318	0.02710
3340.42741	0.02766
3339.14164	0.02820
3337.85587	0.02843
3336.57011	0.02828
3335.28434	0.02797
3333.99857	0.02780
3332.71280	0.02798
3331.42703	0.02852
3330.14126	0.02923
3328.85549	0.02983
3327.56972	0.03007
3326.28395	0.02996
3324.99819	0.02973
3323.71242	0.02957
3322.42665	0.02941
3321.14088	0.02915
3319.85511	0.02887
3318.56934	0.02877
3317.28357	0.02893
3315.99780	0.02928
3314.71204	0.02969
3313.42627	0.03013
3312.14050	0.03064
3310.85473	0.03116
3309.56896	0.03147
3308.28319	0.03136
3306.99742	0.03086
3305.71165	0.03020
3304.42588	0.02955
3303.14012	0.02900
3301.85435	0.02858
3300.56858	0.02839
3299.28281	0.02855
3297.99704	0.02901
3296.71127	0.02960
3295.42550	0.03006
3294.13973	0.03025
3292.85397	0.03014
3291.56820	0.02993
3290.28243	0.02990
3288.99666	0.03017
3287.71089	0.03055
3286.42512	0.03062
3285.13935	0.03026
3283.85358	0.02969
3282.56781	0.02929
3281.28205	0.02919
3279.99628	0.02922
3278.71051	0.02921
3277.42474	0.02908
3276.13897	0.02890
3274.85320	0.02873
3273.56743	0.02861
3272.28166	0.02856
3270.99590	0.02863
3269.71013	0.02880
3268.42436	0.02894
3267.13859	0.02893
3265.85282	0.02885
3264.56705	0.02889
3263.28128	0.02914
3261.99551	0.02950
3260.70974	0.02985
3259.42398	0.03017
3258.13821	0.03046
3256.85244	0.03068
3255.56667	0.03073
3254.28090	0.03058
3252.99513	0.03031
3251.70936	0.03008
3250.42359	0.03000
3249.13783	0.03009
3247.85206	0.03019
3246.56629	0.03013
3245.28052	0.02991
3243.99475	0.02960
3242.70898	0.02929
3241.42321	0.02903
3240.13744	0.02888
3238.85167	0.02886
3237.56591	0.02899
3236.28014	0.02916
3234.99437	0.02924
3233.70860	0.02915
3232.42283	0.02886
3231.13706	0.02846
3229.85129	0.02814
3228.56552	0.02808
3227.27976	0.02836
3225.99399	0.02878
3224.70822	0.02909
3223.42245	0.02916
3222.13668	0.02913
3220.85091	0.02918
3219.56514	0.02933
3218.27937	0.02941
3216.99360	0.02924
3215.70784	0.02881
3214.42207	0.02833
3213.13630	0.02809
3211.85053	0.02818
3210.56476	0.02843
3209.27899	0.02864
3207.99322	0.02873
3206.70745	0.02878
3205.42169	0.02879
3204.13592	0.02872
3202.85015	0.02860
3201.56438	0.02853
3200.27861	0.02851
3198.99284	0.02845
3197.70707	0.02825
3196.42130	0.02798
3195.13553	0.02779
3193.84977	0.02768
3192.56400	0.02748
3191.27823	0.02714
3189.99246	0.02685
3188.70669	0.02690
3187.42092	0.02730
3186.13515	0.02774
3184.84938	0.02791
3183.56362	0.02775
3182.27785	0.02745
3180.99208	0.02722
3179.70631	0.02712
3178.42054	0.02701
3177.13477	0.02675
3175.84900	0.02638
3174.56323	0.02609
3173.27746	0.02616
3171.99170	0.02660
3170.70593	0.02715
3169.42016	0.02750
3168.13439	0.02752
3166.84862	0.02731
3165.56285	0.02702
3164.27708	0.02670
3162.99131	0.02649
3161.70555	0.02659
3160.41978	0.02699
3159.13401	0.02742
3157.84824	0.02756
3156.56247	0.02744
3155.27670	0.02735
3153.99093	0.02745
3152.70516	0.02764
3151.41939	0.02767
3150.13363	0.02745
3148.84786	0.02700
3147.56209	0.02645
3146.27632	0.02598
3144.99055	0.02575
3143.70478	0.02575
3142.41901	0.02577
3141.13324	0.02562
3139.84748	0.02529
3138.56171	0.02502
3137.27594	0.02501
3135.99017	0.02526
3134.70440	0.02555
3133.41863	0.02567
3132.13286	0.02561
3130.84709	0.02549
3129.56132	0.02544
3128.27556	0.02544
3126.98979	0.02536
3125.70402	0.02518
3124.41825	0.02501
3123.13248	0.02501
3121.84671	0.02522
3120.56094	0.02550
3119.27517	0.02570
3117.98940	0.02578
3116.70364	0.02577
3115.41787	0.02573
3114.13210	0.02565
3112.84633	0.02557
3111.56056	0.02554
3110.27479	0.02558
3108.98902	0.02560
3107.70325	0.02554
3106.41749	0.02544
3105.13172	0.02537
3103.84595	0.02535
3102.56018	0.02537
3101.27441	0.02543
3099.98864	0.02556
3098.70287	0.02567
3097.41710	0.02565
3096.13133	0.02553
3094.84557	0.02541
3093.55980	0.02533
3092.27403	0.02525
3090.98826	0.02518
3089.70249	0.02523
3088.41672	0.02542
3087.13095	0.02562
3085.84518	0.02562
3084.55942	0.02536
3083.27365	0.02505
3081.98788	0.02492
3080.70211	0.02503
3079.41634	0.02524
3078.13057	0.02545
3076.84480	0.02564
3075.55903	0.02580
3074.27326	0.02587
3072.98750	0.02576
3071.70173	0.02546
3070.41596	0.02509
3069.13019	0.02484
3067.84442	0.02481
3066.55865	0.02499
3065.27288	0.02527
3063.98711	0.02556
3062.70135	0.02578
3061.41558	0.02587
3060.12981	0.02572
3058.84404	0.02535
3057.55827	0.02489
3056.27250	0.02457
3054.98673	0.02453
3053.70096	0.02474
3052.41519	0.02499
3051.12943	0.02509
3049.84366	0.02502
3048.55789	0.02493
3047.27212	0.02493
3045.98635	0.02502
3044.70058	0.02507
3043.41481	0.02499
3042.12904	0.02474
3040.84328	0.02445
3039.55751	0.02424
3038.27174	0.02418
3036.98597	0.02416
3035.70020	0.02408
3034.41443	0.02394
3033.12866	0.02377
3031.84289	0.02360
3030.55712	0.02347
3029.27136	0.02345
3027.98559	0.02362
3026.69982	0.02391
3025.41405	0.02414
3024.12828	0.02418
3022.84251	0.02408
3021.55674	0.02399
3020.27097	0.02405
3018.98521	0.02429
3017.69944	0.02460
3016.41367	0.02480
3015.12790	0.02483
3013.84213	0.02475
3012.55636	0.02465
3011.27059	0.02452
3009.98482	0.02424
3008.69905	0.02382
3007.41329	0.02344
3006.12752	0.02332
3004.84175	0.02347
3003.55598	0.02367
3002.27021	0.02368
3000.98444	0.02342
2999.69867	0.02303
2998.41290	0.02279
2997.12714	0.02282
2995.84137	0.02300
2994.55560	0.02313
2993.26983	0.02305
2991.98406	0.02288
2990.69829	0.02286
2989.41252	0.02308
2988.12675	0.02336
2986.84098	0.02348
2985.55522	0.02340
2984.26945	0.02326
2982.98368	0.02325
2981.69791	0.02350
2980.41214	0.02393
2979.12637	0.02432
2977.84060	0.02444
2976.55483	0.02425
2975.26907	0.02395
2973.98330	0.02378
2972.69753	0.02383
2971.41176	0.02397
2970.12599	0.02404
2968.84022	0.02397
2967.55445	0.02389
2966.26868	0.02392
2964.98291	0.02409
2963.69715	0.02435
2962.41138	0.02467
2961.12561	0.02498
2959.83984	0.02522
2958.55407	0.02534
2957.26830	0.02540
2955.98253	0.02546
2954.69676	0.02553
2953.41100	0.02570
2952.12523	0.02607
2950.83946	0.02657
2949.55369	0.02695
2948.26792	0.02699
2946.98215	0.02672
2945.69638	0.02636
2944.41061	0.02605
2943.12484	0.02577
2941.83908	0.02549
2940.55331	0.02532
2939.26754	0.02538
2937.98177	0.02570
2936.69600	0.02611
2935.41023	0.02647
2934.12446	0.02674
2932.83869	0.02691
2931.55293	0.02698
2930.26716	0.02699
2928.98139	0.02697
2927.69562	0.02692
2926.40985	0.02679
2925.12408	0.02655
2923.83831	0.02627
2922.55254	0.02602
2921.26677	0.02583
2919.98101	0.02571
2918.69524	0.02569
2917.40947	0.02581
2916.12370	0.02602
2914.83793	0.02617
2913.55216	0.02619
2912.26639	0.02607
2910.98062	0.02596
2909.69486	0.02596
2908.40909	0.02608
2907.12332	0.02619
2905.83755	0.02615
2904.55178	0.02594
2903.26601	0.02567
2901.98024	0.02550
2900.69447	0.02551
2899.40870	0.02567
2898.12294	0.02587
2896.83717	0.02600
2895.55140	0.02599
2894.26563	0.02583
2892.97986	0.02558
2891.69409	0.02532
2890.40832	0.02514
2889.12255	0.02504
2887.83678	0.02500
2886.55102	0.02501
2885.26525	0.02504
2883.97948	0.02504
2882.69371	0.02494
2881.40794	0.02475
2880.12217	0.02457
2878.83640	0.02451
2877.55063	0.02460
2876.26487	0.02474
2874.97910	0.02479
2873.69333	0.02474
2872.40756	0.02471
2871.12179	0.02482
2869.83602	0.02510
2868.55025	0.02542
2867.26448	0.02557
2865.97871	0.02547
2864.69295	0.02522
2863.40718	0.02503
2862.12141	0.02498
2860.83564	0.02500
2859.54987	0.02498
2858.26410	0.02488
2856.97833	0.02471
2855.69256	0.02448
2854.40680	0.02424
2853.12103	0.02402
2851.83526	0.02384
2850.54949	0.02370
2849.26372	0.02364
2847.97795	0.02374
2846.69218	0.02391
2845.40641	0.02400
2844.12064	0.02395
2842.83488	0.02391
2841.54911	0.02403
2840.26334	0.02429
2838.97757	0.02446
2837.69180	0.02435
2836.40603	0.02397
2835.12026	0.02348
2833.83449	0.02307
2832.54873	0.02284
2831.26296	0.02277
2829.97719	0.02275
2828.69142	0.02271
2827.40565	0.02263
2826.11988	0.02258
2824.83411	0.02254
2823.54834	0.02244
2822.26257	0.02223
2820.97681	0.02197
2819.69104	0.02174
2818.40527	0.02156
2817.11950	0.02138
2815.83373	0.02118
2814.54796	0.02101
2813.26219	0.02091
2811.97642	0.02091
2810.69066	0.02100
2809.40489	0.02113
2808.11912	0.02123
2806.83335	0.02123
2805.54758	0.02113
2804.26181	0.02102
2802.97604	0.02098
2801.69027	0.02102
2800.40450	0.02108
2799.11874	0.02109
2797.83297	0.02109
2796.54720	0.02110
2795.26143	0.02116
2793.97566	0.02122
2792.68989	0.02123
2791.40412	0.02117
2790.11835	0.02105
2788.83259	0.02090
2787.54682	0.02079
2786.26105	0.02076
2784.97528	0.02077
2783.68951	0.02075
2782.40374	0.02070
2781.11797	0.02067
2779.83220	0.02066
2778.54643	0.02065
2777.26067	0.02060
2775.97490	0.02051
2774.68913	0.02047
2773.40336	0.02059
2772.11759	0.02083
2770.83182	0.02103
2769.54605	0.02092
2768.26028	0.02045
2766.97452	0.01983
2765.68875	0.01944
2764.40298	0.01947
2763.11721	0.01980
2761.83144	0.02014
2760.54567	0.02029
2759.25990	0.02024
2757.97413	0.02012
2756.68836	0.02006
2755.40260	0.02005
2754.11683	0.01996
2752.83106	0.01976
2751.54529	0.01952
2750.25952	0.01940
2748.97375	0.01947
2747.68798	0.01969
2746.40221	0.01994
2745.11645	0.02015
2743.83068	0.02026
2742.54491	0.02023
2741.25914	0.02011
2739.97337	0.02003
2738.68760	0.02006
2737.40183	0.02016
2736.11606	0.02021
2734.83029	0.02015
2733.54453	0.02001
2732.25876	0.01982
2730.97299	0.01965
2729.68722	0.01953
2728.40145	0.01946
2727.11568	0.01939
2725.82991	0.01929
2724.54414	0.01919
2723.25838	0.01914
2721.97261	0.01910
2720.68684	0.01898
2719.40107	0.01881
2718.11530	0.01871
2716.82953	0.01878
2715.54376	0.01895
2714.25799	0.01906
2712.97222	0.01907
2711.68646	0.01909
2710.40069	0.01921
2709.11492	0.01938
2707.82915	0.01944
2706.54338	0.01935
2705.25761	0.01916
2703.97184	0.01898
2702.68607	0.01889
2701.40031	0.01892
2700.11454	0.01906
2698.82877	0.01918
2697.54300	0.01920
2696.25723	0.01914
2694.97146	0.01905
2693.68569	0.01895
2692.39992	0.01881
2691.11415	0.01869
2689.82839	0.01873
2688.54262	0.01898
2687.25685	0.01933
2685.97108	0.01959
2684.68531	0.01964
2683.39954	0.01953
2682.11377	0.01939
2680.82800	0.01931
2679.54224	0.01924
2678.25647	0.01905
2676.97070	0.01872
2675.68493	0.01836
2674.39916	0.01815
2673.11339	0.01819
2671.82762	0.01840
2670.54185	0.01864
2669.25608	0.01881
2667.97032	0.01887
2666.68455	0.01887
2665.39878	0.01884
2664.11301	0.01884
2662.82724	0.01884
2661.54147	0.01879
2660.25570	0.01866
2658.96993	0.01853
2657.68417	0.01854
2656.39840	0.01868
2655.11263	0.01881
2653.82686	0.01881
2652.54109	0.01870
2651.25532	0.01861
2649.96955	0.01861
2648.68378	0.01870
2647.39801	0.01875
2646.11225	0.01866
2644.82648	0.01841
2643.54071	0.01813
2642.25494	0.01795
2640.96917	0.01793
2639.68340	0.01804
2638.39763	0.01820
2637.11186	0.01833
2635.82609	0.01836
2634.54033	0.01825
2633.25456	0.01805
2631.96879	0.01790
2630.68302	0.01785
2629.39725	0.01780
2628.11148	0.01762
2626.82571	0.01733
2625.53994	0.01710
2624.25418	0.01701
2622.96841	0.01700
2621.68264	0.01702
2620.39687	0.01705
2619.11110	0.01706
2617.82533	0.01703
2616.53956	0.01691
2615.25379	0.01670
2613.96802	0.01644
2612.68226	0.01626
2611.39649	0.01627
2610.11072	0.01641
2608.82495	0.01645
2607.53918	0.01631
2606.25341	0.01617
2604.96764	0.01630
2603.68187	0.01665
2602.39611	0.01690
2601.11034	0.01684
2599.82457	0.01657
2598.53880	0.01629
2597.25303	0.01611
2595.96726	0.01606
2594.68149	0.01610
2593.39572	0.01609
2592.10995	0.01596
2590.82419	0.01579
2589.53842	0.01574
2588.25265	0.01581
2586.96688	0.01583
2585.68111	0.01568
2584.39534	0.01537
2583.10957	0.01500
2581.82380	0.01467
2580.53804	0.01450
2579.25227	0.01454
2577.96650	0.01473
2576.68073	0.01496
2575.39496	0.01519
2574.10919	0.01538
2572.82342	0.01545
2571.53765	0.01534
2570.25188	0.01505
2568.96612	0.01469
2567.68035	0.01435
2566.39458	0.01410
2565.10881	0.01394
2563.82304	0.01391
2562.53727	0.01406
2561.25150	0.01434
2559.96573	0.01462
2558.67997	0.01482
2557.39420	0.01499
2556.10843	0.01521
2554.82266	0.01545
2553.53689	0.01557
2552.25112	0.01547
2550.96535	0.01520
2549.67958	0.01497
2548.39381	0.01499
2547.10805	0.01529
2545.82228	0.01565
2544.53651	0.01578
2543.25074	0.01550
2541.96497	0.01487
2540.67920	0.01419
2539.39343	0.01381
2538.10766	0.01383
2536.82190	0.01408
2535.53613	0.01422
2534.25036	0.01412
2532.96459	0.01392
2531.67882	0.01390
2530.39305	0.01410
2529.10728	0.01418
2527.82151	0.01389
2526.53574	0.01342
2525.24998	0.01323
2523.96421	0.01352
2522.67844	0.01399
2521.39267	0.01414
2520.10690	0.01381
2518.82113	0.01327
2517.53536	0.01297
2516.24959	0.01312
2514.96383	0.01357
2513.67806	0.01403
2512.39229	0.01436
2511.10652	0.01451
2509.82075	0.01450
2508.53498	0.01440
2507.24921	0.01436
2505.96344	0.01445
2504.67767	0.01459
2503.39191	0.01472
2502.10614	0.01481
2500.82037	0.01474
2499.53460	0.01444
2498.24883	0.01391
2496.96306	0.01342
2495.67729	0.01320
2494.39152	0.01338
2493.10576	0.01382
2491.81999	0.01431
2490.53422	0.01463
2489.24845	0.01462
2487.96268	0.01428
2486.67691	0.01376
2485.39114	0.01334
2484.10537	0.01321
2482.81960	0.01332
2481.53384	0.01348
2480.24807	0.01349
2478.96230	0.01335
2477.67653	0.01322
2476.39076	0.01327
2475.10499	0.01345
2473.81922	0.01358
2472.53345	0.01357
2471.24769	0.01354
2469.96192	0.01354
2468.67615	0.01353
2467.39038	0.01347
2466.10461	0.01334
2464.81884	0.01312
2463.53307	0.01282
2462.24730	0.01257
2460.96153	0.01260
2459.67577	0.01298
2458.39000	0.01354
2457.10423	0.01394
2455.81846	0.01400
2454.53269	0.01385
2453.24692	0.01371
2451.96115	0.01366
2450.67538	0.01370
2449.38962	0.01388
2448.10385	0.01426
2446.81808	0.01465
2445.53231	0.01475
2444.24654	0.01441
2442.96077	0.01387
2441.67500	0.01341
2440.38923	0.01308
2439.10346	0.01276
2437.81770	0.01246
2436.53193	0.01244
2435.24616	0.01290
2433.96039	0.01362
2432.67462	0.01416
2431.38885	0.01416
2430.10308	0.01371
2428.81731	0.01315
2427.53155	0.01282
2426.24578	0.01287
2424.96001	0.01318
2423.67424	0.01349
2422.38847	0.01359
2421.10270	0.01348
2419.81693	0.01333
2418.53116	0.01328
2417.24539	0.01333
2415.95963	0.01337
2414.67386	0.01329
2413.38809	0.01309
2412.10232	0.01288
2410.81655	0.01281
2409.53078	0.01294
2408.24501	0.01321
2406.95924	0.01344
2405.67347	0.01355
2404.38771	0.01355
2403.10194	0.01346
2401.81617	0.01332
2400.53040	0.01318
2399.24463	0.01315
2397.95886	0.01316
2396.67309	0.01317
2395.38732	0.01312
2394.10156	0.01297
2392.81579	0.01279
2391.53002	0.01270
2390.24425	0.01276
2388.95848	0.01293
2387.67271	0.01308
2386.38694	0.01315
2385.10117	0.01311
2383.81540	0.01296
2382.52964	0.01279
2381.24387	0.01271
2379.95810	0.01276
2378.67233	0.01289
2377.38656	0.01298
2376.10079	0.01295
2374.81502	0.01283
2373.52925	0.01271
2372.24349	0.01270
2370.95772	0.01279
2369.67195	0.01285
2368.38618	0.01271
2367.10041	0.01232
2365.81464	0.01183
2364.52887	0.01143
2363.24310	0.01122
2361.95733	0.01119
2360.67157	0.01131
2359.38580	0.01154
2358.10003	0.01188
2356.81426	0.01228
2355.52849	0.01268
2354.24272	0.01299
2352.95695	0.01315
2351.67118	0.01319
2350.38542	0.01314
2349.09965	0.01297
2347.81388	0.01272
2346.52811	0.01253
2345.24234	0.01253
2343.95657	0.01269
2342.67080	0.01285
2341.38503	0.01287
2340.09926	0.01271
2338.81350	0.01244
2337.52773	0.01221
2336.24196	0.01220
2334.95619	0.01241
2333.67042	0.01268
2332.38465	0.01299
2331.09888	0.01335
2329.81311	0.01364
2328.52735	0.01383
2327.24158	0.01406
2325.95581	0.01427
2324.67004	0.01423
2323.38427	0.01393
2322.09850	0.01351
2320.81273	0.01314
2319.52696	0.01295
2318.24119	0.01286
2316.95543	0.01271
2315.66966	0.01257
2314.38389	0.01256
2313.09812	0.01277
2311.81235	0.01306
2310.52658	0.01311
2309.24081	0.01273
2307.95504	0.01210
2306.66928	0.01163
2305.38351	0.01158
2304.09774	0.01185
2302.81197	0.01218
2301.52620	0.01240
2300.24043	0.01248
2298.95466	0.01242
2297.66889	0.01222
2296.38312	0.01203
2295.09736	0.01211
2293.81159	0.01256
2292.52582	0.01321
2291.24005	0.01372
2289.95428	0.01384
2288.66851	0.01359
2287.38274	0.01317
2286.09697	0.01289
2284.81121	0.01285
2283.52544	0.01291
2282.23967	0.01278
2280.95390	0.01236
2279.66813	0.01187
2278.38236	0.01156
2277.09659	0.01147
2275.81082	0.01145
2274.52505	0.01138
2273.23929	0.01141
2271.95352	0.01168
2270.66775	0.01213
2269.38198	0.01244
2268.09621	0.01235
2266.81044	0.01179
2265.52467	0.01091
2264.23890	0.00993
2262.95314	0.00919
2261.66737	0.00908
2260.38160	0.00977
2259.09583	0.01093
2257.81006	0.01190
2256.52429	0.01224
2255.23852	0.01203
2253.95275	0.01175
2252.66698	0.01169
2251.38122	0.01171
2250.09545	0.01144
2248.80968	0.01080
2247.52391	0.01036
2246.23814	0.01027
2244.95237	0.01046
2243.66660	0.01063
2242.38083	0.01067
2241.09507	0.01057
2239.80930	0.01036
2238.52353	0.00998
2237.23776	0.00941
2235.95199	0.00875
2234.66622	0.00820
2233.38045	0.00805
2232.09468	0.00841
2230.80891	0.00909
2229.52315	0.00966
2228.23738	0.00983
2226.95161	0.00961
2225.66584	0.00922
2224.38007	0.00897
2223.09430	0.00900
2221.80853	0.00913
2220.52276	0.00908
2219.23700	0.00878
2217.95123	0.00846
2216.66546	0.00837
2215.37969	0.00861
2214.09392	0.00915
2212.80815	0.00984
2211.52238	0.01026
2210.23661	0.00997
2208.95084	0.00904
2207.66508	0.00804
2206.37931	0.00749
2205.09354	0.00737
2203.80777	0.00724
2202.52200	0.00672
2201.23623	0.00592
2199.95046	0.00537
2198.66469	0.00559
2197.37893	0.00651
2196.09316	0.00746
2194.80739	0.00781
2193.52162	0.00748
2192.23585	0.00686
2190.95008	0.00621
2189.66431	0.00564
2188.37854	0.00535
2187.09277	0.00561
2185.80701	0.00636
2184.52124	0.00719
2183.23547	0.00771
2181.94970	0.00782
2180.66393	0.00772
2179.37816	0.00765
2178.09239	0.00782
2176.80662	0.00820
2175.52085	0.00853
2174.23509	0.00846
2172.94932	0.00785
2171.66355	0.00695
2170.37778	0.00623
2169.09201	0.00595
2167.80624	0.00599
2166.52047	0.00614
2165.23470	0.00628
2163.94894	0.00621
2162.66317	0.00542
2161.37740	0.00361
2160.09163	0.00118
2158.80586	-0.00071
2157.52009	-0.00112
2156.23432	-0.00021
2154.94855	0.00098
2153.66278	0.00159
2152.37702	0.00173
2151.09125	0.00211
2149.80548	0.00298
2148.51971	0.00389
2147.23394	0.00432
2145.94817	0.00431
2144.66240	0.00432
2143.37663	0.00475
2142.09087	0.00558
2140.80510	0.00641
2139.51933	0.00684
2138.23356	0.00681
2136.94779	0.00652
2135.66202	0.00617
2134.37625	0.00587
2133.09048	0.00570
2131.80471	0.00569
2130.51895	0.00580
2129.23318	0.00600
2127.94741	0.00636
2126.66164	0.00692
2125.37587	0.00756
2124.09010	0.00807
2122.80433	0.00831
2121.51856	0.00825
2120.23280	0.00799
2118.94703	0.00776
2117.66126	0.00775
2116.37549	0.00796
2115.08972	0.00821
2113.80395	0.00835
2112.51818	0.00835
2111.23241	0.00844
2109.94664	0.00880
2108.66088	0.00937
2107.37511	0.00979
2106.08934	0.00969
2104.80357	0.00906
2103.51780	0.00823
2102.23203	0.00753
2100.94626	0.00720
2099.66049	0.00922
2098.37473	0.01013
2097.08896	0.00983
2095.80319	0.00913
2094.51742	0.00833
2093.23165	0.00764
2091.94588	0.00719
2090.66011	0.00704
2089.37434	0.00711
2088.08857	0.00729
2086.80281	0.00746
2085.51704	0.00759
2084.23127	0.00767
2082.94550	0.00774
2081.65973	0.00788
2080.37396	0.00813
2079.08819	0.00842
2077.80242	0.00862
2076.51666	0.00861
2075.23089	0.00844
2073.94512	0.00833
2072.65935	0.00852
2071.37358	0.00906
2070.08781	0.00968
2068.80204	0.00994
2067.51627	0.00955
2066.23050	0.00858
2064.94474	0.00745
2063.65897	0.00657
2062.37320	0.00615
2061.08743	0.00613
2059.80166	0.00625
2058.51589	0.00617
2057.23012	0.00569
2055.94435	0.00496
2054.65859	0.00449
2053.37282	0.00478
2052.08705	0.00584
2050.80128	0.00721
2049.51551	0.00833
2048.22974	0.00895
2046.94397	0.00909
2045.65820	0.00890
2044.37243	0.00843
2043.08667	0.00764
2041.80090	0.00654
2040.51513	0.00543
2039.22936	0.00481
2037.94359	0.00504
2036.65782	0.00597
2035.37205	0.00710
2034.08628	0.00798
2032.80052	0.00838
2031.51475	0.00821
2030.22898	0.00754
2028.94321	0.00671
2027.65744	0.00617
2026.37167	0.00611
2025.08590	0.00636
2023.80013	0.00664
2022.51436	0.00677
2021.22860	0.00673
2019.94283	0.00655
2018.65706	0.00639
2017.37129	0.00645
2016.08552	0.00675
2014.79975	0.00712
2013.51398	0.00742
2012.22821	0.00771
2010.94245	0.00815
2009.65668	0.00882
2008.37091	0.00954
2007.08514	0.00999
2005.79937	0.00998
2004.51360	0.00957
2003.22783	0.00903
2001.94206	0.00848
2000.65629	0.00786
1999.37053	0.00710
1998.08476	0.00635
1996.79899	0.00586
1995.51322	0.00571
1994.22745	0.00564
1992.94168	0.00534
1991.65591	0.00481
1990.37014	0.00450
1989.08438	0.00478
1987.79861	0.00549
1986.51284	0.00617
1985.22707	0.00660
1983.94130	0.00708
1982.65553	0.00814
1981.36976	0.00996
1980.08399	0.01213
1978.79822	0.01376
1977.51246	0.01398
1976.22669	0.01259
1974.94092	0.01035
1973.65515	0.00850
1972.36938	0.00785
1971.08361	0.00823
1969.79784	0.00872
1968.51207	0.00867
1967.22631	0.00826
1965.94054	0.00822
1964.65477	0.00889
1963.36900	0.00987
1962.08323	0.01048
1960.79746	0.01044
1959.51169	0.00987
1958.22592	0.00903
1956.94015	0.00814
1955.65439	0.00754
1954.36862	0.00754
1953.08285	0.00811
1951.79708	0.00879
1950.51131	0.00910
1949.22554	0.00894
1947.93977	0.00863
1946.65400	0.00851
1945.36823	0.00867
1944.08247	0.00899
1942.79670	0.00932
1941.51093	0.00957
1940.22516	0.00962
1938.93939	0.00935
1937.65362	0.00879
1936.36785	0.00824
1935.08208	0.00813
1933.79632	0.00857
1932.51055	0.00918
1931.22478	0.00946
1929.93901	0.00921
1928.65324	0.00869
1927.36747	0.00835
1926.08170	0.00841
1924.79593	0.00872
1923.51016	0.00897
1922.22440	0.00903
1920.93863	0.00898
1919.65286	0.00899
1918.36709	0.00917
1917.08132	0.00948
1915.79555	0.00976
1914.50978	0.00988
1913.22401	0.00992
1911.93825	0.00993
1910.65248	0.00993
1909.36671	0.00988
1908.08094	0.00980
1906.79517	0.00971
1905.50940	0.00959
1904.22363	0.00940
1902.93786	0.00918
1901.65209	0.00905
1900.36633	0.00904
1899.08056	0.00911
1897.79479	0.00922
1896.50902	0.00939
1895.22325	0.00965
1893.93748	0.00991
1892.65171	0.00999
1891.36594	0.00983
1890.08018	0.00950
1888.79441	0.00922
1887.50864	0.00912
1886.22287	0.00921
1884.93710	0.00937
1883.65133	0.00949
1882.36556	0.00952
1881.07979	0.00956
1879.79402	0.00973
1878.50826	0.00997
1877.22249	0.01006
1875.93672	0.00982
1874.65095	0.00929
1873.36518	0.00876
1872.07941	0.00854
1870.79364	0.00869
1869.50787	0.00902
1868.22211	0.00931
1866.93634	0.00945
1865.65057	0.00949
1864.36480	0.00956
1863.07903	0.00969
1861.79326	0.00980
1860.50749	0.00978
1859.22172	0.00969
1857.93595	0.00965
1856.65019	0.00971
1855.36442	0.00978
1854.07865	0.00976
1852.79288	0.00964
1851.50711	0.00946
1850.22134	0.00933
1848.93557	0.00927
1847.64980	0.00926
1846.36404	0.00921
1845.07827	0.00914
1843.79250	0.00916
1842.50673	0.00929
1841.22096	0.00943
1839.93519	0.00947
1838.64942	0.00942
1837.36365	0.00931
1836.07788	0.00917
1834.79212	0.00910
1833.50635	0.00916
1832.22058	0.00931
1830.93481	0.00945
1829.64904	0.00955
1828.36327	0.00964
1827.07750	0.00978
1825.79173	0.00997
1824.50597	0.01020
1823.22020	0.01040
1821.93443	0.01050
1820.64866	0.01047
1819.36289	0.01030
1818.07712	0.01002
1816.79135	0.00970
1815.50558	0.00943
1814.21981	0.00925
1812.93405	0.00909
1811.64828	0.00895
1810.36251	0.00884
1809.07674	0.00880
1807.79097	0.00881
1806.50520	0.00882
1805.21943	0.00881
1803.93366	0.00879
1802.64790	0.00879
1801.36213	0.00883
1800.07636	0.00895
1798.79059	0.00916
1797.50482	0.00940
1796.21905	0.00961
1794.93328	0.00969
1793.64751	0.00966
1792.36174	0.00964
1791.07598	0.00971
1789.79021	0.00980
1788.50444	0.00981
1787.21867	0.00974
1785.93290	0.00968
1784.64713	0.00971
1783.36136	0.00982
1782.07559	0.00992
1780.78983	0.00995
1779.50406	0.00993
1778.21829	0.00989
1776.93252	0.00983
1775.64675	0.00974
1774.36098	0.00960
1773.07521	0.00947
1771.78944	0.00939
1770.50367	0.00934
1769.21791	0.00922
1767.93214	0.00911
1766.64637	0.00913
1765.36060	0.00927
1764.07483	0.00941
1762.78906	0.00949
1761.50329	0.00956
1760.21752	0.00960
1758.93176	0.00955
1757.64599	0.00944
1756.36022	0.00935
1755.07445	0.00936
1753.78868	0.00939
1752.50291	0.00940
1751.21714	0.00940
1749.93137	0.00942
1748.64560	0.00944
1747.35984	0.00942
1746.07407	0.00941
1744.78830	0.00941
1743.50253	0.00944
1742.21676	0.00945
1740.93099	0.00945
1739.64522	0.00954
1738.35945	0.00979
1737.07369	0.01005
1735.78792	0.01016
1734.50215	0.01014
1733.21638	0.01015
1731.93061	0.01020
1730.64484	0.01020
1729.35907	0.01012
1728.07330	0.01004
1726.78753	0.01002
1725.50177	0.01005
1724.21600	0.01015
1722.93023	0.01033
1721.64446	0.01054
1720.35869	0.01071
1719.07292	0.01081
1717.78715	0.01092
1716.50138	0.01111
1715.21561	0.01132
1713.92985	0.01148
1712.64408	0.01160
1711.35831	0.01171
1710.07254	0.01182
1708.78677	0.01196
1707.50100	0.01214
1706.21523	0.01241
1704.92946	0.01285
1703.64370	0.01334
1702.35793	0.01371
1701.07216	0.01399
1699.78639	0.01436
1698.50062	0.01478
1697.21485	0.01504
1695.92908	0.01515
1694.64331	0.01532
1693.35754	0.01559
1692.07178	0.01584
1690.78601	0.01614
1689.50024	0.01662
1688.21447	0.01722
1686.92870	0.01772
1685.64293	0.01801
1684.35716	0.01823
1683.07139	0.01850
1681.78563	0.01878
1680.49986	0.01905
1679.21409	0.01939
1677.92832	0.01982
1676.64255	0.02026
1675.35678	0.02069
1674.07101	0.02116
1672.78524	0.02163
1671.49947	0.02199
1670.21371	0.02227
1668.92794	0.02253
1667.64217	0.02288
1666.35640	0.02330
1665.07063	0.02377
1663.78486	0.02421
1662.49909	0.02461
1661.21332	0.02492
1659.92756	0.02516
1658.64179	0.02544
1657.35602	0.02586
1656.07025	0.02635
1654.78448	0.02674
1653.49871	0.02705
1652.21294	0.02739
1650.92717	0.02768
1649.64140	0.02776
1648.35564	0.02766
1647.06987	0.02762
1645.78410	0.02772
1644.49833	0.02786
1643.21256	0.02792
1641.92679	0.02790
1640.64102	0.02789
1639.35525	0.02793
1638.06949	0.02793
1636.78372	0.02786
1635.49795	0.02781
1634.21218	0.02784
1632.92641	0.02788
1631.64064	0.02783
1630.35487	0.02770
1629.06910	0.02755
1627.78333	0.02740
1626.49757	0.02724
1625.21180	0.02701
1623.92603	0.02672
1622.64026	0.02641
1621.35449	0.02615
1620.06872	0.02588
1618.78295	0.02557
1617.49718	0.02525
1616.21142	0.02499
1614.92565	0.02474
1613.63988	0.02441
1612.35411	0.02401
1611.06834	0.02366
1609.78257	0.02342
1608.49680	0.02325
1607.21103	0.02309
1605.92526	0.02293
1604.63950	0.02279
1603.35373	0.02269
1602.06796	0.02263
1600.78219	0.02255
1599.49642	0.02245
1598.21065	0.02236
1596.92488	0.02230
1595.63911	0.02228
1594.35335	0.02228
1593.06758	0.02227
1591.78181	0.02225
1590.49604	0.02225
1589.21027	0.02228
1587.92450	0.02232
1586.63873	0.02237
1585.35296	0.02239
1584.06719	0.02237
1582.78143	0.02235
1581.49566	0.02240
1580.20989	0.02255
1578.92412	0.02273
1577.63835	0.02285
1576.35258	0.02295
1575.06681	0.02313
1573.78104	0.02333
1572.49528	0.02341
1571.20951	0.02338
1569.92374	0.02339
1568.63797	0.02352
1567.35220	0.02368
1566.06643	0.02381
1564.78066	0.02396
1563.49489	0.02424
1562.20912	0.02459
1560.92336	0.02486
1559.63759	0.02504
1558.35182	0.02520
1557.06605	0.02529
1555.78028	0.02520
1554.49451	0.02498
1553.20874	0.02478
1551.92297	0.02467
1550.63721	0.02464
1549.35144	0.02471
1548.06567	0.02485
1546.77990	0.02497
1545.49413	0.02502
1544.20836	0.02506
1542.92259	0.02509
1541.63682	0.02506
1540.35105	0.02494
1539.06529	0.02482
1537.77952	0.02475
1536.49375	0.02462
1535.20798	0.02439
1533.92221	0.02416
1532.63644	0.02404
1531.35067	0.02397
1530.06490	0.02387
1528.77914	0.02375
1527.49337	0.02369
1526.20760	0.02371
1524.92183	0.02379
1523.63606	0.02383
1522.35029	0.02380
1521.06452	0.02377
1519.77875	0.02378
1518.49298	0.02373
1517.20722	0.02361
1515.92145	0.02351
1514.63568	0.02346
1513.34991	0.02344
1512.06414	0.02347
1510.77837	0.02357
1509.49260	0.02369
1508.20683	0.02374
1506.92107	0.02373
1505.63530	0.02375
1504.34953	0.02377
1503.06376	0.02371
1501.77799	0.02359
1500.49222	0.02354
1499.20645	0.02356
1497.92068	0.02359
1496.63491	0.02360
1495.34915	0.02364
1494.06338	0.02372
1492.77761	0.02377
1491.49184	0.02377
1490.20607	0.02376
1488.92030	0.02373
1487.63453	0.02369
1486.34876	0.02366
1485.06299	0.02367
1483.77723	0.02375
1482.49146	0.02388
1481.20569	0.02407
1479.91992	0.02432
1478.63415	0.02461
1477.34838	0.02492
1476.06261	0.02523
1474.77684	0.02553
1473.49108	0.02580
1472.20531	0.02606
1470.91954	0.02633
1469.63377	0.02657
1468.34800	0.02675
1467.06223	0.02692
1465.77646	0.02712
1464.49069	0.02737
1463.20492	0.02770
1461.91916	0.02810
1460.63339	0.02853
1459.34762	0.02893
1458.06185	0.02925
1456.77608	0.02956
1455.49031	0.02987
1454.20454	0.03010
1452.91877	0.03022
1451.63301	0.03028
1450.34724	0.03034
1449.06147	0.03039
1447.77570	0.03043
1446.48993	0.03047
1445.20416	0.03047
1443.91839	0.03039
1442.63262	0.03026
1441.34685	0.03012
1440.06109	0.02999
1438.77532	0.02985
1437.48955	0.02972
1436.20378	0.02966
1434.91801	0.02967
1433.63224	0.02969
1432.34647	0.02969
1431.06070	0.02972
1429.77494	0.02980
1428.48917	0.02990
1427.20340	0.03000
1425.91763	0.03013
1424.63186	0.03034
1423.34609	0.03067
1422.06032	0.03105
1420.77455	0.03137
1419.48878	0.03158
1418.20302	0.03174
1416.91725	0.03186
1415.63148	0.03194
1414.34571	0.03199
1413.05994	0.03204
1411.77417	0.03207
1410.48840	0.03205
1409.20263	0.03198
1407.91687	0.03188
1406.63110	0.03178
1405.34533	0.03171
1404.05956	0.03164
1402.77379	0.03153
1401.48802	0.03132
1400.20225	0.03102
1398.91648	0.03069
1397.63071	0.03037
1396.34495	0.03004
1395.05918	0.02967
1393.77341	0.02928
1392.48764	0.02888
1391.20187	0.02848
1389.91610	0.02809
1388.63033	0.02775
1387.34456	0.02747
1386.05880	0.02723
1384.77303	0.02696
1383.48726	0.02665
1382.20149	0.02632
1380.91572	0.02599
1379.62995	0.02564
1378.34418	0.02528
1377.05841	0.02489
1375.77264	0.02451
1374.48688	0.02413
1373.20111	0.02379
1371.91534	0.02345
1370.62957	0.02307
1369.34380	0.02266
1368.05803	0.02226
1366.77226	0.02190
1365.48649	0.02159
1364.20073	0.02129
1362.91496	0.02098
1361.62919	0.02067
1360.34342	0.02035
1359.05765	0.02005
1357.77188	0.01978
1356.48611	0.01956
1355.20034	0.01937
1353.91457	0.01918
1352.62881	0.01896
1351.34304	0.01874
1350.05727	0.01855
1348.77150	0.01840
1347.48573	0.01826
1346.19996	0.01811
1344.91419	0.01798
1343.62842	0.01792
1342.34266	0.01790
1341.05689	0.01790
1339.77112	0.01788
1338.48535	0.01785
1337.19958	0.01780
1335.91381	0.01772
1334.62804	0.01761
1333.34227	0.01746
1332.05650	0.01733
1330.77074	0.01724
1329.48497	0.01718
1328.19920	0.01712
1326.91343	0.01703
1325.62766	0.01691
1324.34189	0.01679
1323.05612	0.01668
1321.77035	0.01659
1320.48459	0.01650
1319.19882	0.01640
1317.91305	0.01631
1316.62728	0.01623
1315.34151	0.01618
1314.05574	0.01612
1312.76997	0.01602
1311.48420	0.01589
1310.19843	0.01577
1308.91267	0.01568
1307.62690	0.01564
1306.34113	0.01564
1305.05536	0.01566
1303.76959	0.01567
1302.48382	0.01563
1301.19805	0.01553
1299.91228	0.01539
1298.62652	0.01524
1297.34075	0.01514
1296.05498	0.01508
1294.76921	0.01506
1293.48344	0.01506
1292.19767	0.01505
1290.91190	0.01504
1289.62613	0.01503
1288.34036	0.01500
1287.05460	0.01496
1285.76883	0.01494
1284.48306	0.01493
1283.19729	0.01494
1281.91152	0.01494
1280.62575	0.01492
1279.33998	0.01487
1278.05421	0.01483
1276.76845	0.01478
1275.48268	0.01472
1274.19691	0.01464
1272.91114	0.01457
1271.62537	0.01455
1270.33960	0.01460
1269.05383	0.01470
1267.76806	0.01478
1266.48229	0.01483
1265.19653	0.01484
1263.91076	0.01487
1262.62499	0.01493
1261.33922	0.01501
1260.05345	0.01508
1258.76768	0.01512
1257.48191	0.01514
1256.19614	0.01516
1254.91037	0.01522
1253.62461	0.01532
1252.33884	0.01546
1251.05307	0.01559
1249.76730	0.01571
1248.48153	0.01578
1247.19576	0.01585
1245.90999	0.01593
1244.62422	0.01602
1243.33846	0.01612
1242.05269	0.01619
1240.76692	0.01623
1239.48115	0.01627
1238.19538	0.01632
1236.90961	0.01637
1235.62384	0.01640
1234.33807	0.01643
1233.05230	0.01648
1231.76654	0.01654
1230.48077	0.01661
1229.19500	0.01667
1227.90923	0.01668
1226.62346	0.01665
1225.33769	0.01659
1224.05192	0.01653
1222.76615	0.01647
1221.48039	0.01644
1220.19462	0.01644
1218.90885	0.01645
1217.62308	0.01647
1216.33731	0.01651
1215.05154	0.01656
1213.76577	0.01664
1212.48000	0.01677
1211.19423	0.01695
1209.90847	0.01716
1208.62270	0.01734
1207.33693	0.01750
1206.05116	0.01764
1204.76539	0.01780
1203.47962	0.01803
1202.19385	0.01828
1200.90808	0.01837
1199.62232	0.01820
1198.33655	0.01825
1197.05078	0.01830
1195.76501	0.01838
1194.47924	0.01849
1193.19347	0.01860
1191.90770	0.01865
1190.62193	0.01868
1189.33616	0.01873
1188.05040	0.01885
1186.76463	0.01902
1185.47886	0.01921
1184.19309	0.01938
1182.90732	0.01954
1181.62155	0.01969
1180.33578	0.01984
1179.05001	0.01998
1177.76425	0.02011
1176.47848	0.02026
1175.19271	0.02044
1173.90694	0.02065
1172.62117	0.02087
1171.33540	0.02109
1170.04963	0.02130
1168.76386	0.02155
1167.47809	0.02183
1166.19233	0.02211
1164.90656	0.02232
1163.62079	0.02246
1162.33502	0.02256
1161.04925	0.02267
1159.76348	0.02281
1158.47771	0.02300
1157.19194	0.02324
1155.90618	0.02347
1154.62041	0.02365
1153.33464	0.02379
1152.04887	0.02395
1150.76310	0.02411
1149.47733	0.02426
1148.19156	0.02440
1146.90579	0.02459
1145.62002	0.02483
1144.33426	0.02511
1143.04849	0.02537
1141.76272	0.02564
1140.47695	0.02594
1139.19118	0.02627
1137.90541	0.02660
1136.61964	0.02692
1135.33387	0.02730
1134.04811	0.02777
1132.76234	0.02832
1131.47657	0.02892
1130.19080	0.02958
1128.90503	0.03030
1127.61926	0.03108
1126.33349	0.03188
1125.04772	0.03269
1123.76195	0.03349
1122.47619	0.03429
1121.19042	0.03509
1119.90465	0.03591
1118.61888	0.03677
1117.33311	0.03769
1116.04734	0.03863
1114.76157	0.03958
1113.47580	0.04049
1112.19004	0.04138
1110.90427	0.04224
1109.61850	0.04303
1108.33273	0.04378
1107.04696	0.04449
1105.76119	0.04521
1104.47542	0.04595
1103.18965	0.04669
1101.90388	0.04737
1100.61812	0.04793
1099.33235	0.04836
1098.04658	0.04874
1096.76081	0.04912
1095.47504	0.04954
1094.18927	0.04999
1092.90350	0.05042
1091.61773	0.05082
1090.33197	0.05117
1089.04620	0.05152
1087.76043	0.05186
1086.47466	0.05219
1085.18889	0.05255
1083.90312	0.05295
1082.61735	0.05343
1081.33158	0.05392
1080.04581	0.05439
1078.76005	0.05480
1077.47428	0.05522
1076.18851	0.05570
1074.90274	0.05628
1073.61697	0.05691
1072.33120	0.05754
1071.04543	0.05814
1069.75966	0.05874
1068.47390	0.05936
1067.18813	0.06007
1065.90236	0.06086
1064.61659	0.06170
1063.33082	0.06256
1062.04505	0.06342
1060.75928	0.06423
1059.47351	0.06498
1058.18774	0.06570
1056.90198	0.06644
1055.61621	0.06723
1054.33044	0.06806
1053.04467	0.06890
1051.75890	0.06975
1050.47313	0.07061
1049.18736	0.07149
1047.90159	0.07240
1046.61583	0.07331
1045.33006	0.07422
1044.04429	0.07509
1042.75852	0.07595
1041.47275	0.07681
1040.18698	0.07768
1038.90121	0.07859
1037.61544	0.07951
1036.32967	0.08043
1035.04391	0.08128
1033.75814	0.08203
1032.47237	0.08264
1031.18660	0.08312
1029.90083	0.08354
1028.61506	0.08394
1027.32929	0.08436
1026.04352	0.08475
1024.75775	0.08505
1023.47199	0.08518
1022.18622	0.08519
1020.90045	0.08513
1019.61468	0.08505
1018.32891	0.08493
1017.04314	0.08475
1015.75737	0.08447
1014.47160	0.08413
1013.18584	0.08376
1011.90007	0.08335
1010.61430	0.08285
1009.32853	0.08225
1008.04276	0.08157
1006.75699	0.08085
1005.47122	0.08007
1004.18545	0.07922
1002.89968	0.07826
1001.61392	0.07720
1000.32815	0.07606
999.04238	0.07487
997.75661	0.07366
996.47084	0.07244
995.18507	0.07125
993.89930	0.07011
992.61353	0.06903
991.32777	0.06799
990.04200	0.06699
988.75623	0.06600
987.47046	0.06496
986.18469	0.06382
984.89892	0.06257
983.61315	0.06130
982.32738	0.06010
981.04161	0.05899
979.75585	0.05795
978.47008	0.05693
977.18431	0.05596
975.89854	0.05502
974.61277	0.05414
973.32700	0.05335
972.04123	0.05271
970.75546	0.05214
969.46970	0.05155
968.18393	0.05093
966.89816	0.05033
965.61239	0.04982
964.32662	0.04943
963.04085	0.04916
961.75508	0.04899
960.46931	0.04884
959.18354	0.04858
957.89778	0.04812
956.61201	0.04747
955.32624	0.04674
954.04047	0.04599
952.75470	0.04523
951.46893	0.04448
950.18316	0.04378
948.89739	0.04313
947.61163	0.04250
946.32586	0.04186
945.04009	0.04125
943.75432	0.04073
942.46855	0.04028
941.18278	0.03985
939.89701	0.03938
938.61124	0.03887
937.32547	0.03837
936.03971	0.03788
934.75394	0.03743
933.46817	0.03700
932.18240	0.03661
930.89663	0.03623
929.61086	0.03584
928.32509	0.03547
927.03932	0.03514
925.75356	0.03484
924.46779	0.03455
923.18202	0.03426
921.89625	0.03400
920.61048	0.03375
919.32471	0.03350
918.03894	0.03323
916.75317	0.03294
915.46740	0.03266
914.18164	0.03242
912.89587	0.03223
911.61010	0.03204
910.32433	0.03174
909.03856	0.03129
907.75279	0.03076
906.46702	0.03027
905.18125	0.02992
903.89549	0.02972
902.60972	0.02960
901.32395	0.02945
900.03818	0.02923
898.75241	0.02893
897.46664	0.02856
896.18087	0.02815
894.89510	0.02777
893.60933	0.02748
892.32357	0.02727
891.03780	0.02707
889.75203	0.02684
888.46626	0.02658
887.18049	0.02633
885.89472	0.02615
884.60895	0.02619
883.32318	0.02653
882.03742	0.02716
880.75165	0.02790
879.46588	0.02852
878.18011	0.02891
876.89434	0.02911
875.60857	0.02922
874.32280	0.02931
873.03703	0.02936
871.75126	0.02931
870.46550	0.02909
869.17973	0.02872
867.89396	0.02829
866.60819	0.02788
865.32242	0.02749
864.03665	0.02708
862.75088	0.02663
861.46511	0.02617
860.17935	0.02576
858.89358	0.02542
857.60781	0.02510
856.32204	0.02475
855.03627	0.02437
853.75050	0.02394
852.46473	0.02350
851.17896	0.02309
849.89319	0.02277
848.60743	0.02256
847.32166	0.02242
846.03589	0.02230
844.75012	0.02220
843.46435	0.02216
842.17858	0.02215
840.89281	0.02211
839.60704	0.02199
838.32128	0.02180
837.03551	0.02159
835.74974	0.02140
834.46397	0.02126
833.17820	0.02117
831.89243	0.02113
830.60666	0.02110
829.32089	0.02105
828.03512	0.02099
826.74936	0.02095
825.46359	0.02091
824.17782	0.02088
822.89205	0.02086
821.60628	0.02086
820.32051	0.02086
819.03474	0.02083
817.74897	0.02077
816.46321	0.02076
815.17744	0.02083
813.89167	0.02102
812.60590	0.02125
811.32013	0.02143
810.03436	0.02149
808.74859	0.02145
807.46282	0.02143
806.17705	0.02153
804.89129	0.02176
803.60552	0.02210
802.31975	0.02248
801.03398	0.02285
799.74821	0.02317
798.46244	0.02338
797.17667	0.02348
795.89090	0.02352
794.60513	0.02351
793.31937	0.02349
792.03360	0.02349
790.74783	0.02357
789.46206	0.02372
788.17629	0.02386
786.89052	0.02388
785.60475	0.02376
784.31898	0.02359
783.03322	0.02348
781.74745	0.02344
780.46168	0.02347
779.17591	0.02354
777.89014	0.02359
776.60437	0.02358
775.31860	0.02352
774.03283	0.02344
772.74706	0.02334
771.46130	0.02317
770.17553	0.02296
768.88976	0.02277
767.60399	0.02267
766.31822	0.02267
765.03245	0.02271
763.74668	0.02275
762.46091	0.02273
761.17515	0.02268
759.88938	0.02265
758.60361	0.02264
757.31784	0.02264
756.03207	0.02259
754.74630	0.02253
753.46053	0.02250
752.17476	0.02254
750.88899	0.02264
749.60323	0.02270
748.31746	0.02268
747.03169	0.02258
745.74592	0.02242
744.46015	0.02222
743.17438	0.02201
741.88861	0.02181
740.60284	0.02166
739.31708	0.02154
738.03131	0.02149
736.74554	0.02155
735.45977	0.02167
734.17400	0.02173
732.88823	0.02160
731.60246	0.02131
730.31669	0.02102
729.03092	0.02089
727.74516	0.02092
726.45939	0.02104
725.17362	0.02115
723.88785	0.02127
722.60208	0.02128
721.31631	0.02121
720.03054	0.02110
718.74477	0.02098
717.45901	0.02091
716.17324	0.02092
714.88747	0.02101
713.60170	0.02114
712.31593	0.02126
711.03016	0.02134
709.74439	0.02136
708.45862	0.02133
707.17285	0.02126
705.88709	0.02121
704.60132	0.02118
703.31555	0.02118
702.02978	0.02120
700.74401	0.02123
699.45824	0.02126
698.17247	0.02130
696.88670	0.02135
695.60094	0.02137
694.31517	0.02136
693.02940	0.02131
691.74363	0.02125
690.45786	0.02122
689.17209	0.02120
687.88632	0.02117
686.60055	0.02111
685.31478	0.02106
684.02902	0.02100
682.74325	0.02095
681.45748	0.02088
680.17171	0.02078
678.88594	0.02065
677.60017	0.02053
676.31440	0.02041
675.02863	0.02034
673.74287	0.02030
672.45710	0.02029
671.17133	0.02029
669.88556	0.02030
668.59979	0.02031
667.31402	0.02032
666.02825	0.02031
664.74248	0.02026
663.45671	0.02018
662.17095	0.02013
660.88518	0.02012
659.59941	0.02016
658.31364	0.02022
657.02787	0.02029
655.74210	0.02035
654.45633	0.02040
653.17056	0.02045
651.88480	0.02049
650.59903	0.02053
649.31326	0.02058
648.02749	0.02063
646.74172	0.02069
645.45595	0.02072
644.17018	0.02068
642.88441	0.02060
641.59864	0.02053
640.31288	0.02051
639.02711	0.02052
637.74134	0.02054
636.45557	0.02056
635.16980	0.02058
633.88403	0.02057
632.59826	0.02045
631.31249	0.02051
630.02673	0.02208
628.74096	0.02466
627.45519	0.02336
626.16942	0.02669
624.88365	0.03303
623.59788	0.03874
622.31211	0.04240
621.02634	0.04369
619.74057	0.04287
618.45481	0.04058
617.16904	0.03763
615.88327	0.03491
614.59750	0.03322
613.31173	0.03307
612.02596	0.03437
610.74019	0.03641
609.45442	0.03839
608.16866	0.03999
606.88289	0.04130
605.59712	0.04238
604.31135	0.04310
603.02558	0.04326
601.73981	0.04268
600.45404	0.04142
599.16827	0.03979
597.88250	0.03818
596.59674	0.03682
595.31097	0.03580
594.02520	0.03519
592.73943	0.03498
591.45366	0.03500
590.16789	0.03503
588.88212	0.03493
587.59635	0.03478
586.31059	0.03473
585.02482	0.03486
583.73905	0.03519
582.45328	0.03567
581.16751	0.03623
579.88174	0.03681
578.59597	0.03737
577.31020	0.03789
576.02443	0.03840
574.73867	0.03895
573.45290	0.03962
572.16713	0.04044
570.88136	0.04137
569.59559	0.04233
568.30982	0.04324
567.02405	0.04405
565.73828	0.04472
564.45251	0.04525
563.16675	0.04561
561.88098	0.04576
560.59521	0.04563
559.30944	0.04519
558.02367	0.04450
556.73790	0.04370
555.45213	0.04292
554.16636	0.04220
552.88060	0.04152
551.59483	0.04082
550.30906	0.04010
549.02329	0.03943
547.73752	0.03891
546.45175	0.03859
545.16598	0.03843
543.88021	0.03831
542.59444	0.03809
541.30868	0.03773
540.02291	0.03728
538.73714	0.03684
537.45137	0.03650
536.16560	0.03626
534.87983	0.03610
533.59406	0.03594
532.30829	0.03577
531.02253	0.03560
529.73676	0.03545
528.45099	0.03533
527.16522	0.03520
525.87945	0.03510
524.59368	0.03510
523.30791	0.03515
522.02214	0.03514
520.73637	0.03499
519.45061	0.03475
518.16484	0.03449
516.87907	0.03426
515.59330	0.03401
514.30753	0.03369
513.02176	0.03330
511.73599	0.03290
510.45022	0.03263
509.16446	0.03253
507.87869	0.03256
506.59292	0.03258
505.30715	0.03246
504.02138	0.03221
502.73561	0.03190
501.44984	0.03163
500.16407	0.03143
498.87830	0.03134
497.59254	0.03135
496.30677	0.03141
495.02100	0.03148
493.73523	0.03159
492.44946	0.03176
491.16369	0.03199
489.87792	0.03222
488.59215	0.03242
487.30639	0.03259
486.02062	0.03277
484.73485	0.03296
483.44908	0.03318
482.16331	0.03347
480.87754	0.03386
479.59177	0.03435
478.30600	0.03489
477.02023	0.03543
475.73447	0.03595
474.44870	0.03646
473.16293	0.03694
471.87716	0.03736
470.59139	0.03770
469.30562	0.03798
468.01985	0.03820
466.73408	0.03836
465.44832	0.03840
464.16255	0.03829
462.87678	0.03800
461.59101	0.03761
460.30524	0.03720
459.01947	0.03684
457.73370	0.03655
456.44793	0.03629
455.16216	0.03596
453.87640	0.03554
452.59063	0.03509
451.30486	0.03466
450.01909	0.03428
448.73332	0.03398
447.44755	0.03376
446.16178	0.03361
444.87601	0.03346
443.59025	0.03329
442.30448	0.03310
441.01871	0.03291
439.73294	0.03271
438.44717	0.03254
437.16140	0.03242
435.87563	0.03234
434.58986	0.03230
433.30409	0.03226
432.01833	0.03223
430.73256	0.03225
429.44679	0.03229
428.16102	0.03231
426.87525	0.03227
425.58948	0.03216
424.30371	0.03198
423.01794	0.03175
421.73218	0.03146
420.44641	0.03110
419.16064	0.03072
417.87487	0.03034
416.58910	0.02995
415.30333	0.02952
414.01756	0.02904
412.73179	0.02853
411.44602	0.02802
410.16026	0.02756
408.87449	0.02716
407.58872	0.02682
406.30295	0.02652
405.01718	0.02627
403.73141	0.02610
402.44564	0.02606
401.15987	0.02616
399.87411	0.02634
