3997.45528	0.04534
3996.16951	0.04461
3994.88374	0.04403
3993.59798	0.04387
3992.31221	0.04408
3991.02644	0.04426
3989.74067	0.04415
3988.45490	0.04394
3987.16913	0.04412
3985.88336	0.04485
3984.59759	0.04581
3983.31183	0.04667
3982.02606	0.04728
3980.74029	0.04759
3979.45452	0.04738
3978.16875	0.04656
3976.88298	0.04538
3975.59721	0.04440
3974.31144	0.04402
3973.02567	0.04417
3971.73991	0.04443
3970.45414	0.04435
3969.16837	0.04383
3967.88260	0.04319
3966.59683	0.04291
3965.31106	0.04315
3964.02529	0.04364
3962.73952	0.04389
3961.45376	0.04370
3960.16799	0.04331
3958.88222	0.04313
3957.59645	0.04329
3956.31068	0.04364
3955.02491	0.04394
3953.73914	0.04410
3952.45337	0.04416
3951.16760	0.04422
3949.88184	0.04435
3948.59607	0.04459
3947.31030	0.04492
3946.02453	0.04527
3944.73876	0.04547
3943.45299	0.04533
3942.16722	0.04488
3940.88145	0.04435
3939.59569	0.04404
3938.30992	0.04406
3937.02415	0.04437
3935.73838	0.04483
3934.45261	0.04529
3933.16684	0.04552
3931.88107	0.04544
3930.59530	0.04516
3929.30953	0.04493
3928.02377	0.04484
3926.73800	0.04471
3925.45223	0.04431
3924.16646	0.04372
3922.88069	0.04341
3921.59492	0.04379
3920.30915	0.04476
3919.02338	0.04577
3917.73762	0.04624
3916.45185	0.04600
3915.16608	0.04529
3913.88031	0.04439
3912.59454	0.04346
3911.30877	0.04260
3910.02300	0.04200
3908.73723	0.04179
3907.45146	0.04186
3906.16570	0.04198
3904.87993	0.04200
3903.59416	0.04200
3902.30839	0.04220
3901.02262	0.04278
3899.73685	0.04361
3898.45108	0.04436
3897.16531	0.04480
3895.87955	0.04497
3894.59378	0.04497
3893.30801	0.04485
3892.02224	0.04452
3890.73647	0.04400
3889.45070	0.04345
3888.16493	0.04310
3886.87916	0.04298
3885.59339	0.04299
3884.30763	0.04313
3883.02186	0.04338
3881.73609	0.04361
3880.45032	0.04359
3879.16455	0.04335
3877.87878	0.04308
3876.59301	0.04290
3875.30724	0.04274
3874.02148	0.04249
3872.73571	0.04228
3871.44994	0.04229
3870.16417	0.04259
3868.87840	0.04310
3867.59263	0.04369
3866.30686	0.04416
3865.02109	0.04428
3863.73532	0.04413
3862.44956	0.04394
3861.16379	0.04378
3859.87802	0.04345
3858.59225	0.04271
3857.30648	0.04169
3856.02071	0.04079
3854.73494	0.04029
3853.44917	0.04007
3852.16341	0.03992
3850.87764	0.03987
3849.59187	0.04001
3848.30610	0.04026
3847.02033	0.04058
3845.73456	0.04102
3844.44879	0.04158
3843.16302	0.04198
3841.87725	0.04178
3840.59149	0.04095
3839.30572	0.03996
3838.01995	0.03944
3836.73418	0.03958
3835.44841	0.04015
3834.16264	0.04082
3832.87687	0.04147
3831.59110	0.04215
3830.30534	0.04287
3829.01957	0.04350
3827.73380	0.04399
3826.44803	0.04432
3825.16226	0.04444
3823.87649	0.04433
3822.59072	0.04402
3821.30495	0.04367
3820.01918	0.04346
3818.73342	0.04350
3817.44765	0.04363
3816.16188	0.04356
3814.87611	0.04312
3813.59034	0.04249
3812.30457	0.04182
3811.01880	0.04110
3809.73303	0.04047
3808.44726	0.04018
3807.16150	0.04032
3805.87573	0.04069
3804.58996	0.04119
3803.30419	0.04179
3802.01842	0.04226
3800.73265	0.04230
3799.44688	0.04200
3798.16111	0.04175
3796.87535	0.04176
3795.58958	0.04201
3794.30381	0.04248
3793.01804	0.04321
3791.73227	0.04401
3790.44650	0.04441
3789.16073	0.04406
3787.87496	0.04311
3786.58919	0.04212
3785.30343	0.04152
3784.01766	0.04130
3782.73189	0.04130
3781.44612	0.04139
3780.16035	0.04153
3778.87458	0.04157
3777.58881	0.04142
3776.30304	0.04112
3775.01728	0.04080
3773.73151	0.04053
3772.44574	0.04042
3771.15997	0.04055
3769.87420	0.04077
3768.58843	0.04078
3767.30266	0.04037
3766.01689	0.03962
3764.73112	0.03884
3763.44536	0.03836
3762.15959	0.03832
3760.87382	0.03870
3759.58805	0.03934
3758.30228	0.04002
3757.01651	0.04052
3755.73074	0.04068
3754.44497	0.04063
3753.15921	0.04051
3751.87344	0.04030
3750.58767	0.03989
3749.30190	0.03920
3748.01613	0.03848
3746.73036	0.03821
3745.44459	0.03857
3744.15882	0.03913
3742.87305	0.03950
3741.58729	0.03975
3740.30152	0.04007
3739.01575	0.04045
3737.72998	0.04079
3736.44421	0.04095
3735.15844	0.04085
3733.87267	0.04060
3732.58690	0.04039
3731.30114	0.04031
3730.01537	0.04036
3728.72960	0.04045
3727.44383	0.04045
3726.15806	0.04035
3724.87229	0.04028
3723.58652	0.04025
3722.30075	0.04014
3721.01498	0.03996
3719.72922	0.03993
3718.44345	0.04018
3717.15768	0.04053
3715.87191	0.04074
3714.58614	0.04074
3713.30037	0.04058
3712.01460	0.04028
3710.72883	0.03987
3709.44307	0.03944
3708.15730	0.03903
3706.87153	0.03867
3705.58576	0.03839
3704.29999	0.03821
3703.01422	0.03812
3701.72845	0.03801
3700.44268	0.03780
3699.15691	0.03753
3697.87115	0.03751
3696.58538	0.03789
3695.29961	0.03830
3694.01384	0.03832
3692.72807	0.03801
3691.44230	0.03770
3690.15653	0.03751
3688.87076	0.03735
3687.58500	0.03714
3686.29923	0.03702
3685.01346	0.03720
3683.72769	0.03747
3682.44192	0.03744
3681.15615	0.03719
3679.87038	0.03716
3678.58461	0.03766
3677.29884	0.03850
3676.01308	0.03904
3674.72731	0.03888
3673.44154	0.03840
3672.15577	0.03827
3670.87000	0.03866
3669.58423	0.03917
3668.29846	0.03954
3667.01269	0.03981
3665.72693	0.04004
3664.44116	0.04022
3663.15539	0.04037
3661.86962	0.04051
3660.58385	0.04055
3659.29808	0.04034
3658.01231	0.03986
3656.72654	0.03932
3655.44077	0.03903
3654.15501	0.03911
3652.86924	0.03952
3651.58347	0.04006
3650.29770	0.04056
3649.01193	0.04090
3647.72616	0.04110
3646.44039	0.04125
3645.15462	0.04143
3643.86886	0.04156
3642.58309	0.04152
3641.29732	0.04145
3640.01155	0.04159
3638.72578	0.04194
3637.44001	0.04216
3636.15424	0.04189
3634.86847	0.04120
3633.58270	0.04051
3632.29694	0.04042
3631.01117	0.04121
3629.72540	0.04253
3628.43963	0.04365
3627.15386	0.04411
3625.86809	0.04411
3624.58232	0.04405
3623.29655	0.04403
3622.01079	0.04390
3620.72502	0.04355
3619.43925	0.04303
3618.15348	0.04252
3616.86771	0.04218
3615.58194	0.04217
3614.29617	0.04263
3613.01040	0.04354
3611.72463	0.04466
3610.43887	0.04567
3609.15310	0.04637
3607.86733	0.04673
3606.58156	0.04683
3605.29579	0.04675
3604.01002	0.04651
3602.72425	0.04613
3601.43848	0.04577
3600.15272	0.04563
3598.86695	0.04586
3597.58118	0.04635
3596.29541	0.04686
3595.00964	0.04709
3593.72387	0.04694
3592.43810	0.04668
3591.15233	0.04668
3589.86656	0.04701
3588.58080	0.04740
3587.29503	0.04751
3586.00926	0.04720
3584.72349	0.04658
3583.43772	0.04606
3582.15195	0.04604
3580.86618	0.04667
3579.58041	0.04781
3578.29464	0.04912
3577.00888	0.05028
3575.72311	0.05119
3574.43734	0.05182
3573.15157	0.05215
3571.86580	0.05222
3570.58003	0.05214
3569.29426	0.05208
3568.00849	0.05215
3566.72273	0.05237
3565.43696	0.05273
3564.15119	0.05316
3562.86542	0.05348
3561.57965	0.05345
3560.29388	0.05293
3559.00811	0.05211
3557.72234	0.05140
3556.43657	0.05122
3555.15081	0.05160
3553.86504	0.05227
3552.57927	0.05291
3551.29350	0.05336
3550.00773	0.05362
3548.72196	0.05362
3547.43619	0.05327
3546.15042	0.05256
3544.86466	0.05177
3543.57889	0.05136
3542.29312	0.05177
3541.00735	0.05296
3539.72158	0.05436
3538.43581	0.05532
3537.15004	0.05564
3535.86427	0.05565
3534.57850	0.05569
3533.29274	0.05569
3532.00697	0.05538
3530.72120	0.05478
3529.43543	0.05430
3528.14966	0.05434
3526.86389	0.05489
3525.57812	0.05557
3524.29235	0.05604
3523.00659	0.05614
3521.72082	0.05597
3520.43505	0.05578
3519.14928	0.05581
3517.86351	0.05609
3516.57774	0.05644
3515.29197	0.05671
3514.00620	0.05692
3512.72043	0.05723
3511.43467	0.05764
3510.14890	0.05798
3508.86313	0.05807
3507.57736	0.05801
3506.29159	0.05808
3505.00582	0.05848
3503.72005	0.05902
3502.43428	0.05926
3501.14852	0.05892
3499.86275	0.05824
3498.57698	0.05777
3497.29121	0.05787
3496.00544	0.05836
3494.71967	0.05878
3493.43390	0.05889
3492.14813	0.05894
3490.86236	0.05922
3489.57660	0.05971
3488.29083	0.06002
3487.00506	0.05987
3485.71929	0.05943
3484.43352	0.05920
3483.14775	0.05946
3481.86198	0.06006
3480.57621	0.06061
3479.29045	0.06086
3478.00468	0.06086
3476.71891	0.06080
3475.43314	0.06080
3474.14737	0.06091
3472.86160	0.06106
3471.57583	0.06120
3470.29006	0.06131
3469.00429	0.06143
3467.71853	0.06148
3466.43276	0.06136
3465.14699	0.06116
3463.86122	0.06114
3462.57545	0.06139
3461.28968	0.06173
3460.00391	0.06192
3458.71814	0.06192
3457.43238	0.06191
3456.14661	0.06205
3454.86084	0.06226
3453.57507	0.06234
3452.28930	0.06218
3451.00353	0.06187
3449.71776	0.06160
3448.43199	0.06142
3447.14622	0.06129
3445.86046	0.06115
3444.57469	0.06103
3443.28892	0.06100
3442.00315	0.06113
3440.71738	0.06138
3439.43161	0.06165
3438.14584	0.06189
3436.86007	0.06212
3435.57431	0.06240
3434.28854	0.06275
3433.00277	0.06320
3431.71700	0.06372
3430.43123	0.06423
3429.14546	0.06468
3427.85969	0.06502
3426.57392	0.06509
3425.28815	0.06484
3424.00239	0.06444
3422.71662	0.06428
3421.43085	0.06455
3420.14508	0.06507
3418.85931	0.06548
3417.57354	0.06557
3416.28777	0.06538
3415.00200	0.06506
3413.71624	0.06478
3412.43047	0.06472
3411.14470	0.06500
3409.85893	0.06551
3408.57316	0.06595
3407.28739	0.06609
3406.00162	0.06599
3404.71585	0.06591
3403.43008	0.06598
3402.14432	0.06612
3400.85855	0.06616
3399.57278	0.06609
3398.28701	0.06606
3397.00124	0.06616
3395.71547	0.06632
3394.42970	0.06640
3393.14393	0.06635
3391.85817	0.06633
3390.57240	0.06650
3389.28663	0.06687
3388.00086	0.06726
3386.71509	0.06742
3385.42932	0.06729
3384.14355	0.06701
3382.85778	0.06677
3381.57201	0.06668
3380.28625	0.06677
3379.00048	0.06700
3377.71471	0.06726
3376.42894	0.06731
3375.14317	0.06707
3373.85740	0.06668
3372.57163	0.06640
3371.28586	0.06628
3370.00010	0.06618
3368.71433	0.06606
3367.42856	0.06600
3366.14279	0.06614
3364.85702	0.06644
3363.57125	0.06676
3362.28548	0.06692
3360.99971	0.06692
3359.71394	0.06694
3358.42818	0.06718
3357.14241	0.06758
3355.85664	0.06784
3354.57087	0.06771
3353.28510	0.06727
3351.99933	0.06689
3350.71356	0.06687
3349.42779	0.06721
3348.14202	0.06766
3346.85626	0.06796
3345.57049	0.06797
3344.28472	0.06772
3342.99895	0.06736
3341.71318	0.06715
3340.42741	0.06720
3339.14164	0.06737
3337.85587	0.06739
3336.57011	0.06720
3335.28434	0.06699
3333.99857	0.06697
3332.71280	0.06721
3331.42703	0.06764
3330.14126	0.06810
3328.85549	0.06836
3327.56972	0.06827
3326.28395	0.06787
3324.99819	0.06744
3323.71242	0.06722
3322.42665	0.06722
3321.14088	0.06724
3319.85511	0.06711
3318.56934	0.06684
3317.28357	0.06654
3315.99780	0.06634
3314.71204	0.06623
3313.42627	0.06614
3312.14050	0.06602
3310.85473	0.06596
3309.56896	0.06613
3308.28319	0.06654
3306.99742	0.06701
3305.71165	0.06737
3304.42588	0.06758
3303.14012	0.06766
3301.85435	0.06763
3300.56858	0.06749
3299.28281	0.06728
3297.99704	0.06705
3296.71127	0.06687
3295.42550	0.06680
3294.13973	0.06686
3292.85397	0.06693
3291.56820	0.06680
3290.28243	0.06641
3288.99666	0.06598
3287.71089	0.06579
3286.42512	0.06594
3285.13935	0.06620
3283.85358	0.06629
3282.56781	0.06614
3281.28205	0.06592
3279.99628	0.06589
3278.71051	0.06613
3277.42474	0.06647
3276.13897	0.06666
3274.85320	0.06661
3273.56743	0.06643
3272.28166	0.06619
3270.99590	0.06584
3269.71013	0.06531
3268.42436	0.06474
3267.13859	0.06428
3265.85282	0.06403
3264.56705	0.06400
3263.28128	0.06420
3261.99551	0.06458
3260.70974	0.06502
3259.42398	0.06535
3258.13821	0.06549
3256.85244	0.06545
3255.56667	0.06528
3254.28090	0.06505
3252.99513	0.06488
3251.70936	0.06480
3250.42359	0.06475
3249.13783	0.06456
3247.85206	0.06419
3246.56629	0.06377
3245.28052	0.06352
3243.99475	0.06355
3242.70898	0.06381
3241.42321	0.06415
3240.13744	0.06447
3238.85167	0.06475
3237.56591	0.06497
3236.28014	0.06505
3234.99437	0.06490
3233.70860	0.06452
3232.42283	0.06403
3231.13706	0.06359
3229.85129	0.06333
3228.56552	0.06329
3227.27976	0.06345
3225.99399	0.06373
3224.70822	0.06399
3223.42245	0.06410
3222.13668	0.06401
3220.85091	0.06379
3219.56514	0.06359
3218.27937	0.06344
3216.99360	0.06330
3215.70784	0.06316
3214.42207	0.06303
3213.13630	0.06288
3211.85053	0.06268
3210.56476	0.06247
3209.27899	0.06237
3207.99322	0.06248
3206.70745	0.06277
3205.42169	0.06310
3204.13592	0.06325
3202.85015	0.06311
3201.56438	0.06275
3200.27861	0.06241
3198.99284	0.06229
3197.70707	0.06245
3196.42130	0.06270
3195.13553	0.06277
3193.84977	0.06251
3192.56400	0.06202
3191.27823	0.06160
3189.99246	0.06151
3188.70669	0.06181
3187.42092	0.06227
3186.13515	0.06261
3184.84938	0.06259
3183.56362	0.06226
3182.27785	0.06181
3180.99208	0.06142
3179.70631	0.06114
3178.42054	0.06099
3177.13477	0.06107
3175.84900	0.06138
3174.56323	0.06173
3173.27746	0.06182
3171.99170	0.06154
3170.70593	0.06106
3169.42016	0.06067
3168.13439	0.06057
3166.84862	0.06075
3165.56285	0.06100
3164.27708	0.06103
3162.99131	0.06074
3161.70555	0.06028
3160.41978	0.05993
3159.13401	0.05989
3157.84824	0.06011
3156.56247	0.06040
3155.27670	0.06059
3153.99093	0.06071
3152.70516	0.06076
3151.41939	0.06068
3150.13363	0.06040
3148.84786	0.06005
3147.56209	0.05979
3146.27632	0.05966
3144.99055	0.05955
3143.70478	0.05946
3142.41901	0.05939
3141.13324	0.05932
3139.84748	0.05921
3138.56171	0.05916
3137.27594	0.05927
3135.99017	0.05948
3134.70440	0.05961
3133.41863	0.05949
3132.13286	0.05905
3130.84709	0.05840
3129.56132	0.05785
3128.27556	0.05764
3126.98979	0.05773
3125.70402	0.05790
3124.41825	0.05796
3123.13248	0.05794
3121.84671	0.05790
3120.56094	0.05786
3119.27517	0.05781
3117.98940	0.05773
3116.70364	0.05759
3115.41787	0.05732
3114.13210	0.05698
3112.84633	0.05672
3111.56056	0.05667
3110.27479	0.05679
3108.98902	0.05692
3107.70325	0.05690
3106.41749	0.05677
3105.13172	0.05667
3103.84595	0.05675
3102.56018	0.05702
3101.27441	0.05733
3099.98864	0.05738
3098.70287	0.05700
3097.41710	0.05630
3096.13133	0.05561
3094.84557	0.05521
3093.55980	0.05520
3092.27403	0.05543
3090.98826	0.05574
3089.70249	0.05601
3088.41672	0.05626
3087.13095	0.05661
3085.84518	0.05707
3084.55942	0.05749
3083.27365	0.05765
3081.98788	0.05746
3080.70211	0.05708
3079.41634	0.05672
3078.13057	0.05649
3076.84480	0.05633
3075.55903	0.05614
3074.27326	0.05588
3072.98750	0.05564
3071.70173	0.05554
3070.41596	0.05567
3069.13019	0.05598
3067.84442	0.05627
3066.55865	0.05633
3065.27288	0.05608
3063.98711	0.05563
3062.70135	0.05529
3061.41558	0.05521
3060.12981	0.05528
3058.84404	0.05527
3057.55827	0.05510
3056.27250	0.05485
3054.98673	0.05461
3053.70096	0.05445
3052.41519	0.05441
3051.12943	0.05450
3049.84366	0.05460
3048.55789	0.05456
3047.27212	0.05436
3045.98635	0.05414
3044.70058	0.05401
3043.41481	0.05393
3042.12904	0.05379
3040.84328	0.05354
3039.55751	0.05333
3038.27174	0.05331
3036.98597	0.05352
3035.70020	0.05378
3034.41443	0.05392
3033.12866	0.05391
3031.84289	0.05385
3030.55712	0.05380
3029.27136	0.05375
3027.98559	0.05364
3026.69982	0.05347
3025.41405	0.05333
3024.12828	0.05326
3022.84251	0.05326
3021.55674	0.05323
3020.27097	0.05308
3018.98521	0.05282
3017.69944	0.05255
3016.41367	0.05235
3015.12790	0.05215
3013.84213	0.05187
3012.55636	0.05151
3011.27059	0.05121
3009.98482	0.05116
3008.69905	0.05140
3007.41329	0.05175
3006.12752	0.05199
3004.84175	0.05206
3003.55598	0.05206
3002.27021	0.05209
3000.98444	0.05212
2999.69867	0.05207
2998.41290	0.05191
2997.12714	0.05172
2995.84137	0.05163
2994.55560	0.05169
2993.26983	0.05187
2991.98406	0.05203
2990.69829	0.05209
2989.41252	0.05206
2988.12675	0.05205
2986.84098	0.05222
2985.55522	0.05255
2984.26945	0.05289
2982.98368	0.05312
2981.69791	0.05331
2980.41214	0.05359
2979.12637	0.05398
2977.84060	0.05434
2976.55483	0.05458
2975.26907	0.05481
2973.98330	0.05519
2972.69753	0.05578
2971.41176	0.05652
2970.12599	0.05723
2968.84022	0.05777
2967.55445	0.05819
2966.26868	0.05868
2964.98291	0.05933
2963.69715	0.06005
2962.41138	0.06071
2961.12561	0.06133
2959.83984	0.06199
2958.55407	0.06267
2957.26830	0.06323
2955.98253	0.06360
2954.69676	0.06385
2953.41100	0.06412
2952.12523	0.06444
2950.83946	0.06466
2949.55369	0.06468
2948.26792	0.06447
2946.98215	0.06416
2945.69638	0.06382
2944.41061	0.06350
2943.12484	0.06322
2941.83908	0.06299
2940.55331	0.06287
2939.26754	0.06297
2937.98177	0.06340
2936.69600	0.06412
2935.41023	0.06497
2934.12446	0.06570
2932.83869	0.06618
2931.55293	0.06647
2930.26716	0.06672
2928.98139	0.06701
2927.69562	0.06732
2926.40985	0.06762
2925.12408	0.06786
2923.83831	0.06809
2922.55254	0.06830
2921.26677	0.06845
2919.98101	0.06839
2918.69524	0.06798
2917.40947	0.06727
2916.12370	0.06648
2914.83793	0.06579
2913.55216	0.06524
2912.26639	0.06476
2910.98062	0.06430
2909.69486	0.06383
2908.40909	0.06328
2907.12332	0.06265
2905.83755	0.06199
2904.55178	0.06141
2903.26601	0.06100
2901.98024	0.06076
2900.69447	0.06059
2899.40870	0.06044
2898.12294	0.06030
2896.83717	0.06013
2895.55140	0.05983
2894.26563	0.05934
2892.97986	0.05874
2891.69409	0.05813
2890.40832	0.05763
2889.12255	0.05728
2887.83678	0.05703
2886.55102	0.05677
2885.26525	0.05638
2883.97948	0.05584
2882.69371	0.05527
2881.40794	0.05486
2880.12217	0.05479
2878.83640	0.05513
2877.55063	0.05572
2876.26487	0.05636
2874.97910	0.05691
2873.69333	0.05734
2872.40756	0.05760
2871.12179	0.05765
2869.83602	0.05751
2868.55025	0.05729
2867.26448	0.05710
2865.97871	0.05706
2864.69295	0.05717
2863.40718	0.05730
2862.12141	0.05727
2860.83564	0.05705
2859.54987	0.05680
2858.26410	0.05665
2856.97833	0.05661
2855.69256	0.05655
2854.40680	0.05640
2853.12103	0.05614
2851.83526	0.05582
2850.54949	0.05551
2849.26372	0.05524
2847.97795	0.05501
2846.69218	0.05478
2845.40641	0.05451
2844.12064	0.05412
2842.83488	0.05354
2841.54911	0.05281
2840.26334	0.05200
2838.97757	0.05120
2837.69180	0.05054
2836.40603	0.05010
2835.12026	0.04981
2833.83449	0.04948
2832.54873	0.04898
2831.26296	0.04836
2829.97719	0.04779
2828.69142	0.04740
2827.40565	0.04719
2826.11988	0.04712
2824.83411	0.04704
2823.54834	0.04686
2822.26257	0.04655
2820.97681	0.04618
2819.69104	0.04585
2818.40527	0.04561
2817.11950	0.04550
2815.83373	0.04551
2814.54796	0.04557
2813.26219	0.04564
2811.97642	0.04569
2810.69066	0.04565
2809.40489	0.04549
2808.11912	0.04523
2806.83335	0.04500
2805.54758	0.04489
2804.26181	0.04483
2802.97604	0.04471
2801.69027	0.04447
2800.40450	0.04417
2799.11874	0.04392
2797.83297	0.04377
2796.54720	0.04372
2795.26143	0.04368
2793.97566	0.04358
2792.68989	0.04343
2791.40412	0.04332
2790.11835	0.04327
2788.83259	0.04318
2787.54682	0.04305
2786.26105	0.04299
2784.97528	0.04306
2783.68951	0.04315
2782.40374	0.04307
2781.11797	0.04281
2779.83220	0.04245
2778.54643	0.04216
2777.26067	0.04204
2775.97490	0.04211
2774.68913	0.04235
2773.40336	0.04265
2772.11759	0.04291
2770.83182	0.04301
2769.54605	0.04293
2768.26028	0.04274
2766.97452	0.04258
2765.68875	0.04253
2764.40298	0.04256
2763.11721	0.04255
2761.83144	0.04243
2760.54567	0.04220
2759.25990	0.04190
2757.97413	0.04159
2756.68836	0.04129
2755.40260	0.04104
2754.11683	0.04093
2752.83106	0.04102
2751.54529	0.04122
2750.25952	0.04140
2748.97375	0.04149
2747.68798	0.04148
2746.40221	0.04136
2745.11645	0.04118
2743.83068	0.04108
2742.54491	0.04117
2741.25914	0.04140
2739.97337	0.04161
2738.68760	0.04169
2737.40183	0.04162
2736.11606	0.04140
2734.83029	0.04110
2733.54453	0.04087
2732.25876	0.04085
2730.97299	0.04101
2729.68722	0.04116
2728.40145	0.04112
2727.11568	0.04087
2725.82991	0.04054
2724.54414	0.04030
2723.25838	0.04020
2721.97261	0.04014
2720.68684	0.04005
2719.40107	0.03998
2718.11530	0.04002
2716.82953	0.04020
2715.54376	0.04041
2714.25799	0.04048
2712.97222	0.04039
2711.68646	0.04022
2710.40069	0.04004
2709.11492	0.03987
2707.82915	0.03964
2706.54338	0.03937
2705.25761	0.03915
2703.97184	0.03907
2702.68607	0.03915
2701.40031	0.03929
2700.11454	0.03943
2698.82877	0.03955
2697.54300	0.03963
2696.25723	0.03965
2694.97146	0.03958
2693.68569	0.03942
2692.39992	0.03920
2691.11415	0.03894
2689.82839	0.03866
2688.54262	0.03841
2687.25685	0.03827
2685.97108	0.03828
2684.68531	0.03844
2683.39954	0.03864
2682.11377	0.03874
2680.82800	0.03871
2679.54224	0.03860
2678.25647	0.03850
2676.97070	0.03842
2675.68493	0.03829
2674.39916	0.03812
2673.11339	0.03794
2671.82762	0.03783
2670.54185	0.03778
2669.25608	0.03775
2667.97032	0.03779
2666.68455	0.03793
2665.39878	0.03812
2664.11301	0.03824
2662.82724	0.03825
2661.54147	0.03817
2660.25570	0.03803
2658.96993	0.03783
2657.68417	0.03761
2656.39840	0.03743
2655.11263	0.03729
2653.82686	0.03715
2652.54109	0.03702
2651.25532	0.03695
2649.96955	0.03696
2648.68378	0.03696
2647.39801	0.03690
2646.11225	0.03678
2644.82648	0.03667
2643.54071	0.03665
2642.25494	0.03671
2640.96917	0.03676
2639.68340	0.03661
2638.39763	0.03624
2637.11186	0.03582
2635.82609	0.03554
2634.54033	0.03542
2633.25456	0.03534
2631.96879	0.03526
2630.68302	0.03515
2629.39725	0.03505
2628.11148	0.03500
2626.82571	0.03512
2625.53994	0.03540
2624.25418	0.03560
2622.96841	0.03543
2621.68264	0.03493
2620.39687	0.03446
2619.11110	0.03432
2617.82533	0.03444
2616.53956	0.03448
2615.25379	0.03422
2613.96802	0.03381
2612.68226	0.03349
2611.39649	0.03335
2610.11072	0.03331
2608.82495	0.03333
2607.53918	0.03342
2606.25341	0.03350
2604.96764	0.03342
2603.68187	0.03318
2602.39611	0.03294
2601.11034	0.03277
2599.82457	0.03261
2598.53880	0.03238
2597.25303	0.03211
2595.96726	0.03196
2594.68149	0.03203
2593.39572	0.03222
2592.10995	0.03231
2590.82419	0.03215
2589.53842	0.03194
2588.25265	0.03196
2586.96688	0.03226
2585.68111	0.03265
2584.39534	0.03294
2583.10957	0.03311
2581.82380	0.03312
2580.53804	0.03296
2579.25227	0.03269
2577.96650	0.03243
2576.68073	0.03221
2575.39496	0.03190
2574.10919	0.03144
2572.82342	0.03089
2571.53765	0.03043
2570.25188	0.03019
2568.96612	0.03013
2567.68035	0.03014
2566.39458	0.03010
2565.10881	0.03005
2563.82304	0.03013
2562.53727	0.03041
2561.25150	0.03076
2559.96573	0.03094
2558.67997	0.03080
2557.39420	0.03049
2556.10843	0.03030
2554.82266	0.03037
2553.53689	0.03058
2552.25112	0.03072
2550.96535	0.03077
2549.67958	0.03086
2548.39381	0.03103
2547.10805	0.03121
2545.82228	0.03132
2544.53651	0.03134
2543.25074	0.03126
2541.96497	0.03111
2540.67920	0.03090
2539.39343	0.03059
2538.10766	0.03014
2536.82190	0.02964
2535.53613	0.02929
2534.25036	0.02917
2532.96459	0.02921
2531.67882	0.02921
2530.39305	0.02908
2529.10728	0.02898
2527.82151	0.02905
2526.53574	0.02925
2525.24998	0.02943
2523.96421	0.02953
2522.67844	0.02959
2521.39267	0.02956
2520.10690	0.02930
2518.82113	0.02887
2517.53536	0.02856
2516.24959	0.02852
2514.96383	0.02857
2513.67806	0.02853
2512.39229	0.02847
2511.10652	0.02860
2509.82075	0.02893
2508.53498	0.02925
2507.24921	0.02938
2505.96344	0.02932
2504.67767	0.02915
2503.39191	0.02899
2502.10614	0.02891
2500.82037	0.02900
2499.53460	0.02923
2498.24883	0.02947
2496.96306	0.02954
2495.67729	0.02937
2494.39152	0.02906
2493.10576	0.02865
2491.81999	0.02816
2490.53422	0.02762
2489.24845	0.02720
2487.96268	0.02715
2486.67691	0.02750
2485.39114	0.02802
2484.10537	0.02841
2482.81960	0.02859
2481.53384	0.02869
2480.24807	0.02874
2478.96230	0.02868
2477.67653	0.02847
2476.39076	0.02819
2475.10499	0.02800
2473.81922	0.02797
2472.53345	0.02808
2471.24769	0.02824
2469.96192	0.02835
2468.67615	0.02839
2467.39038	0.02840
2466.10461	0.02844
2464.81884	0.02853
2463.53307	0.02865
2462.24730	0.02875
2460.96153	0.02882
2459.67577	0.02891
2458.39000	0.02899
2457.10423	0.02893
2455.81846	0.02870
2454.53269	0.02840
2453.24692	0.02812
2451.96115	0.02782
2450.67538	0.02750
2449.38962	0.02722
2448.10385	0.02715
2446.81808	0.02736
2445.53231	0.02781
2444.24654	0.02827
2442.96077	0.02851
2441.67500	0.02847
2440.38923	0.02829
2439.10346	0.02801
2437.81770	0.02755
2436.53193	0.02694
2435.24616	0.02646
2433.96039	0.02635
2432.67462	0.02657
2431.38885	0.02684
2430.10308	0.02698
2428.81731	0.02701
2427.53155	0.02705
2426.24578	0.02713
2424.96001	0.02718
2423.67424	0.02708
2422.38847	0.02683
2421.10270	0.02652
2419.81693	0.02631
2418.53116	0.02632
2417.24539	0.02651
2415.95963	0.02665
2414.67386	0.02656
2413.38809	0.02633
2412.10232	0.02624
2410.81655	0.02643
2409.53078	0.02673
2408.24501	0.02678
2406.95924	0.02649
2405.67347	0.02606
2404.38771	0.02569
2403.10194	0.02546
2401.81617	0.02527
2400.53040	0.02513
2399.24463	0.02514
2397.95886	0.02511
2396.67309	0.02506
2395.38732	0.02513
2394.10156	0.02541
2392.81579	0.02584
2391.53002	0.02623
2390.24425	0.02638
2388.95848	0.02626
2387.67271	0.02601
2386.38694	0.02581
2385.10117	0.02574
2383.81540	0.02579
2382.52964	0.02592
2381.24387	0.02606
2379.95810	0.02615
2378.67233	0.02616
2377.38656	0.02616
2376.10079	0.02618
2374.81502	0.02614
2373.52925	0.02603
2372.24349	0.02586
2370.95772	0.02577
2369.67195	0.02564
2368.38618	0.02559
2367.10041	0.02570
2365.81464	0.02606
2364.52887	0.02626
2363.24310	0.02630
2361.95733	0.02637
2360.67157	0.02677
2359.38580	0.02704
2358.10003	0.02710
2356.81426	0.02700
2355.52849	0.02674
2354.24272	0.02637
2352.95695	0.02601
2351.67118	0.02606
2350.38542	0.02641
2349.09965	0.02649
2347.81388	0.02624
2346.52811	0.02653
2345.24234	0.02716
2343.95657	0.02710
2342.67080	0.02630
2341.38503	0.02641
2340.09926	0.02761
2338.81350	0.02764
2337.52773	0.02637
2336.24196	0.02658
2334.95619	0.02795
2333.67042	0.02773
2332.38465	0.02660
2331.09888	0.02772
2329.81311	0.02898
2328.52735	0.02808
2327.24158	0.02860
2325.95581	0.02983
2324.67004	0.02888
2323.38427	0.02804
2322.09850	0.02794
2320.81273	0.02645
2319.52696	0.02581
2318.24119	0.02600
2316.95543	0.02547
2315.66966	0.02555
2314.38389	0.02590
2313.09812	0.02575
2311.81235	0.02595
2310.52658	0.02586
2309.24081	0.02557
2307.95504	0.02535
2306.66928	0.02478
2305.38351	0.02438
2304.09774	0.02425
2302.81197	0.02437
2301.52620	0.02477
2300.24043	0.02504
2298.95466	0.02528
2297.66889	0.02547
2296.38312	0.02563
2295.09736	0.02563
2293.81159	0.02531
2292.52582	0.02485
2291.24005	0.02452
2289.95428	0.02455
2288.66851	0.02489
2287.38274	0.02530
2286.09697	0.02553
2284.81121	0.02543
2283.52544	0.02498
2282.23967	0.02432
2280.95390	0.02366
2279.66813	0.02314
2278.38236	0.02282
2277.09659	0.02262
2275.81082	0.02249
2274.52505	0.02241
2273.23929	0.02240
2271.95352	0.02245
2270.66775	0.02254
2269.38198	0.02263
2268.09621	0.02274
2266.81044	0.02292
2265.52467	0.02311
2264.23890	0.02306
2262.95314	0.02267
2261.66737	0.02203
2260.38160	0.02132
2259.09583	0.02069
2257.81006	0.02020
2256.52429	0.01989
2255.23852	0.01975
2253.95275	0.01977
2252.66698	0.01988
2251.38122	0.01999
2250.09545	0.01993
2248.80968	0.01967
2247.52391	0.01986
2246.23814	0.01999
2244.95237	0.01987
2243.66660	0.01936
2242.38083	0.01848
2241.09507	0.01759
2239.80930	0.01731
2238.52353	0.01797
2237.23776	0.01923
2235.95199	0.02034
2234.66622	0.02073
2233.38045	0.02034
2232.09468	0.01945
2230.80891	0.01846
2229.52315	0.01777
2228.23738	0.01752
2226.95161	0.01754
2225.66584	0.01755
2224.38007	0.01755
2223.09430	0.01766
2221.80853	0.01788
2220.52276	0.01805
2219.23700	0.01802
2217.95123	0.01775
2216.66546	0.01728
2215.37969	0.01675
2214.09392	0.01641
2212.80815	0.01634
2211.52238	0.01633
2210.23661	0.01614
2208.95084	0.01584
2207.66508	0.01568
2206.37931	0.01587
2205.09354	0.01623
2203.80777	0.01638
2202.52200	0.01607
2201.23623	0.01549
2199.95046	0.01514
2198.66469	0.01527
2197.37893	0.01563
2196.09316	0.01583
2194.80739	0.01581
2193.52162	0.01570
2192.23585	0.01544
2190.95008	0.01479
2189.66431	0.01378
2188.37854	0.01284
2187.09277	0.01241
2185.80701	0.01253
2184.52124	0.01276
2183.23547	0.01256
2181.94970	0.01183
2180.66393	0.01108
2179.37816	0.01099
2178.09239	0.01170
2176.80662	0.01249
2175.52085	0.01246
2174.23509	0.01147
2172.94932	0.01022
2171.66355	0.00946
2170.37778	0.00934
2169.09201	0.00966
2167.80624	0.01020
2166.52047	0.01088
2165.23470	0.01156
2163.94894	0.01195
2162.66317	0.01166
2161.37740	0.01046
2160.09163	0.00867
2158.80586	0.00715
2157.52009	0.00665
2156.23432	0.00713
2154.94855	0.00806
2153.66278	0.00895
2152.37702	0.00954
2151.09125	0.00968
2149.80548	0.00941
2148.51971	0.00892
2147.23394	0.00837
2145.94817	0.00786
2144.66240	0.00761
2143.37663	0.00789
2142.09087	0.00869
2140.80510	0.00968
2139.51933	0.01063
2138.23356	0.01163
2136.94779	0.01271
2135.66202	0.01354
2134.37625	0.01372
2133.09048	0.01318
2131.80471	0.01225
2130.51895	0.01134
2129.23318	0.01075
2127.94741	0.01069
2126.66164	0.01129
2125.37587	0.01238
2124.09010	0.01355
2122.80433	0.01443
2121.51856	0.01491
2120.23280	0.01506
2118.94703	0.01497
2117.66126	0.01478
2116.37549	0.01472
2115.08972	0.01484
2113.80395	0.01486
2112.51818	0.01450
2111.23241	0.01381
2109.94664	0.01313
2108.66088	0.01277
2107.37511	0.01286
2106.08934	0.01338
2104.80357	0.01411
2103.51780	0.01470
2102.23203	0.01495
2100.94626	0.01487
2099.66049	0.01379
2098.37473	0.01295
2097.08896	0.01255
2095.80319	0.01243
2094.51742	0.01249
2093.23165	0.01260
2091.94588	0.01275
2090.66011	0.01303
2089.37434	0.01340
2088.08857	0.01356
2086.80281	0.01320
2085.51704	0.01235
2084.23127	0.01137
2082.94550	0.01071
2081.65973	0.01049
2080.37396	0.01061
2079.08819	0.01096
2077.80242	0.01144
2076.51666	0.01182
2075.23089	0.01190
2073.94512	0.01176
2072.65935	0.01162
2071.37358	0.01141
2070.08781	0.01077
2068.80204	0.00961
2067.51627	0.00832
2066.23050	0.00741
2064.94474	0.00712
2063.65897	0.00740
2062.37320	0.00812
2061.08743	0.00918
2059.80166	0.01026
2058.51589	0.01087
2057.23012	0.01072
2055.94435	0.01015
2054.65859	0.00977
2053.37282	0.00976
2052.08705	0.00965
2050.80128	0.00887
2049.51551	0.00749
2048.22974	0.00602
2046.94397	0.00484
2045.65820	0.00390
2044.37243	0.00318
2043.08667	0.00285
2041.80090	0.00303
2040.51513	0.00355
2039.22936	0.00415
2037.94359	0.00467
2036.65782	0.00498
2035.37205	0.00484
2034.08628	0.00403
2032.80052	0.00273
2031.51475	0.00152
2030.22898	0.00106
2028.94321	0.00175
2027.65744	0.00338
2026.37167	0.00513
2025.08590	0.00613
2023.80013	0.00613
2022.51436	0.00559
2021.22860	0.00507
2019.94283	0.00472
2018.65706	0.00451
2017.37129	0.00452
2016.08552	0.00479
2014.79975	0.00511
2013.51398	0.00512
2012.22821	0.00461
2010.94245	0.00371
2009.65668	0.00281
2008.37091	0.00241
2007.08514	0.00283
2005.79937	0.00402
2004.51360	0.00563
2003.22783	0.00727
2001.94206	0.00865
2000.65629	0.00956
1999.37053	0.00994
1998.08476	0.01002
1996.79899	0.01010
1995.51322	0.01024
1994.22745	0.01017
1992.94168	0.00971
1991.65591	0.00910
1990.37014	0.00872
1989.08438	0.00871
1987.79861	0.00884
1986.51284	0.00888
1985.22707	0.00886
1983.94130	0.00888
1982.65553	0.00880
1981.36976	0.00825
1980.08399	0.00713
1978.79822	0.00584
1977.51246	0.00492
1976.22669	0.00465
1974.94092	0.00493
1973.65515	0.00541
1972.36938	0.00573
1971.08361	0.00575
1969.79784	0.00571
1968.51207	0.00601
1967.22631	0.00670
1965.94054	0.00746
1964.65477	0.00787
1963.36900	0.00779
1962.08323	0.00742
1960.79746	0.00719
1959.51169	0.00750
1958.22592	0.00850
1956.94015	0.00986
1955.65439	0.01097
1954.36862	0.01139
1953.08285	0.01110
1951.79708	0.01047
1950.51131	0.00993
1949.22554	0.00979
1947.93977	0.01010
1946.65400	0.01065
1945.36823	0.01114
1944.08247	0.01140
1942.79670	0.01153
1941.51093	0.01167
1940.22516	0.01179
1938.93939	0.01174
1937.65362	0.01152
1936.36785	0.01133
1935.08208	0.01134
1933.79632	0.01147
1932.51055	0.01154
1931.22478	0.01147
1929.93901	0.01139
1928.65324	0.01140
1927.36747	0.01153
1926.08170	0.01185
1924.79593	0.01242
1923.51016	0.01310
1922.22440	0.01359
1920.93863	0.01374
1919.65286	0.01366
1918.36709	0.01352
1917.08132	0.01341
1915.79555	0.01334
1914.50978	0.01335
1913.22401	0.01347
1911.93825	0.01363
1910.65248	0.01377
1909.36671	0.01378
1908.08094	0.01355
1906.79517	0.01312
1905.50940	0.01272
1904.22363	0.01262
1902.93786	0.01288
1901.65209	0.01329
1900.36633	0.01353
1899.08056	0.01350
1897.79479	0.01334
1896.50902	0.01321
1895.22325	0.01318
1893.93748	0.01318
1892.65171	0.01322
1891.36594	0.01337
1890.08018	0.01361
1888.79441	0.01384
1887.50864	0.01394
1886.22287	0.01392
1884.93710	0.01380
1883.65133	0.01356
1882.36556	0.01329
1881.07979	0.01315
1879.79402	0.01332
1878.50826	0.01374
1877.22249	0.01414
1875.93672	0.01420
1874.65095	0.01388
1873.36518	0.01345
1872.07941	0.01323
1870.79364	0.01336
1869.50787	0.01366
1868.22211	0.01388
1866.93634	0.01393
1865.65057	0.01391
1864.36480	0.01389
1863.07903	0.01393
1861.79326	0.01402
1860.50749	0.01415
1859.22172	0.01429
1857.93595	0.01443
1856.65019	0.01457
1855.36442	0.01474
1854.07865	0.01484
1852.79288	0.01476
1851.50711	0.01449
1850.22134	0.01420
1848.93557	0.01402
1847.64980	0.01398
1846.36404	0.01403
1845.07827	0.01412
1843.79250	0.01423
1842.50673	0.01434
1841.22096	0.01446
1839.93519	0.01456
1838.64942	0.01460
1837.36365	0.01456
1836.07788	0.01453
1834.79212	0.01458
1833.50635	0.01471
1832.22058	0.01485
1830.93481	0.01488
1829.64904	0.01482
1828.36327	0.01477
1827.07750	0.01484
1825.79173	0.01498
1824.50597	0.01503
1823.22020	0.01492
1821.93443	0.01467
1820.64866	0.01440
1819.36289	0.01420
1818.07712	0.01417
1816.79135	0.01435
1815.50558	0.01472
1814.21981	0.01516
1812.93405	0.01548
1811.64828	0.01560
1810.36251	0.01554
1809.07674	0.01544
1807.79097	0.01543
1806.50520	0.01551
1805.21943	0.01558
1803.93366	0.01555
1802.64790	0.01545
1801.36213	0.01540
1800.07636	0.01545
1798.79059	0.01557
1797.50482	0.01566
1796.21905	0.01564
1794.93328	0.01554
1793.64751	0.01545
1792.36174	0.01542
1791.07598	0.01549
1789.79021	0.01560
1788.50444	0.01569
1787.21867	0.01572
1785.93290	0.01571
1784.64713	0.01572
1783.36136	0.01579
1782.07559	0.01590
1780.78983	0.01600
1779.50406	0.01606
1778.21829	0.01611
1776.93252	0.01615
1775.64675	0.01616
1774.36098	0.01615
1773.07521	0.01614
1771.78944	0.01617
1770.50367	0.01626
1769.21791	0.01642
1767.93214	0.01660
1766.64637	0.01672
1765.36060	0.01679
1764.07483	0.01687
1762.78906	0.01694
1761.50329	0.01695
1760.21752	0.01689
1758.93176	0.01681
1757.64599	0.01675
1756.36022	0.01675
1755.07445	0.01680
1753.78868	0.01688
1752.50291	0.01695
1751.21714	0.01696
1749.93137	0.01692
1748.64560	0.01690
1747.35984	0.01696
1746.07407	0.01707
1744.78830	0.01719
1743.50253	0.01726
1742.21676	0.01729
1740.93099	0.01733
1739.64522	0.01740
1738.35945	0.01744
1737.07369	0.01746
1735.78792	0.01752
1734.50215	0.01762
1733.21638	0.01774
1731.93061	0.01788
1730.64484	0.01809
1729.35907	0.01836
1728.07330	0.01860
1726.78753	0.01877
1725.50177	0.01884
1724.21600	0.01884
1722.93023	0.01880
1721.64446	0.01878
1720.35869	0.01883
1719.07292	0.01899
1717.78715	0.01925
1716.50138	0.01963
1715.21561	0.02013
1713.92985	0.02072
1712.64408	0.02128
1711.35831	0.02174
1710.07254	0.02212
1708.78677	0.02245
1707.50100	0.02275
1706.21523	0.02298
1704.92946	0.02310
1703.64370	0.02319
1702.35793	0.02339
1701.07216	0.02374
1699.78639	0.02413
1698.50062	0.02451
1697.21485	0.02492
1695.92908	0.02537
1694.64331	0.02582
1693.35754	0.02627
1692.07178	0.02675
1690.78601	0.02716
1689.50024	0.02744
1688.21447	0.02763
1686.92870	0.02787
1685.64293	0.02824
1684.35716	0.02869
1683.07139	0.02913
1681.78563	0.02956
1680.49986	0.02998
1679.21409	0.03034
1677.92832	0.03068
1676.64255	0.03108
1675.35678	0.03151
1674.07101	0.03191
1672.78524	0.03228
1671.49947	0.03267
1670.21371	0.03311
1668.92794	0.03357
1667.64217	0.03402
1666.35640	0.03448
1665.07063	0.03496
1663.78486	0.03540
1662.49909	0.03576
1661.21332	0.03606
1659.92756	0.03634
1658.64179	0.03658
1657.35602	0.03668
1656.07025	0.03667
1654.78448	0.03667
1653.49871	0.03675
1652.21294	0.03685
1650.92717	0.03698
1649.64140	0.03716
1648.35564	0.03736
1647.06987	0.03751
1645.78410	0.03761
1644.49833	0.03771
1643.21256	0.03784
1641.92679	0.03794
1640.64102	0.03796
1639.35525	0.03788
1638.06949	0.03776
1636.78372	0.03763
1635.49795	0.03748
1634.21218	0.03730
1632.92641	0.03716
1631.64064	0.03712
1630.35487	0.03714
1629.06910	0.03715
1627.78333	0.03709
1626.49757	0.03697
1625.21180	0.03688
1623.92603	0.03686
1622.64026	0.03683
1621.35449	0.03673
1620.06872	0.03658
1618.78295	0.03646
1617.49718	0.03642
1616.21142	0.03643
1614.92565	0.03647
1613.63988	0.03655
1612.35411	0.03665
1611.06834	0.03674
1609.78257	0.03679
1608.49680	0.03686
1607.21103	0.03695
1605.92526	0.03708
1604.63950	0.03723
1603.35373	0.03739
1602.06796	0.03754
1600.78219	0.03768
1599.49642	0.03783
1598.21065	0.03801
1596.92488	0.03820
1595.63911	0.03842
1594.35335	0.03865
1593.06758	0.03889
1591.78181	0.03912
1590.49604	0.03935
1589.21027	0.03959
1587.92450	0.03985
1586.63873	0.04011
1585.35296	0.04035
1584.06719	0.04058
1582.78143	0.04080
1581.49566	0.04102
1580.20989	0.04124
1578.92412	0.04146
1577.63835	0.04175
1576.35258	0.04209
1575.06681	0.04246
1573.78104	0.04284
1572.49528	0.04325
1571.20951	0.04366
1569.92374	0.04404
1568.63797	0.04440
1567.35220	0.04479
1566.06643	0.04518
1564.78066	0.04546
1563.49489	0.04555
1562.20912	0.04555
1560.92336	0.04561
1559.63759	0.04580
1558.35182	0.04605
1557.06605	0.04632
1555.78028	0.04664
1554.49451	0.04700
1553.20874	0.04734
1551.92297	0.04764
1550.63721	0.04785
1549.35144	0.04791
1548.06567	0.04783
1546.77990	0.04767
1545.49413	0.04748
1544.20836	0.04726
1542.92259	0.04702
1541.63682	0.04679
1540.35105	0.04662
1539.06529	0.04647
1537.77952	0.04636
1536.49375	0.04633
1535.20798	0.04640
1533.92221	0.04651
1532.63644	0.04662
1531.35067	0.04677
1530.06490	0.04700
1528.77914	0.04734
1527.49337	0.04778
1526.20760	0.04830
1524.92183	0.04886
1523.63606	0.04946
1522.35029	0.05008
1521.06452	0.05072
1519.77875	0.05141
1518.49298	0.05223
1517.20722	0.05320
1515.92145	0.05424
1514.63568	0.05532
1513.34991	0.05645
1512.06414	0.05762
1510.77837	0.05882
1509.49260	0.06008
1508.20683	0.06142
1506.92107	0.06280
1505.63530	0.06416
1504.34953	0.06548
1503.06376	0.06677
1501.77799	0.06798
1500.49222	0.06900
1499.20645	0.06984
1497.92068	0.07058
1496.63491	0.07130
1495.34915	0.07205
1494.06338	0.07284
1492.77761	0.07370
1491.49184	0.07459
1490.20607	0.07548
1488.92030	0.07639
1487.63453	0.07736
1486.34876	0.07846
1485.06299	0.07970
1483.77723	0.08107
1482.49146	0.08252
1481.20569	0.08402
1479.91992	0.08552
1478.63415	0.08699
1477.34838	0.08839
1476.06261	0.08968
1474.77684	0.09083
1473.49108	0.09188
1472.20531	0.09283
1470.91954	0.09367
1469.63377	0.09439
1468.34800	0.09497
1467.06223	0.09542
1465.77646	0.09576
1464.49069	0.09605
1463.20492	0.09633
1461.91916	0.09662
1460.63339	0.09700
1459.34762	0.09751
1458.06185	0.09816
1456.77608	0.09889
1455.49031	0.09962
1454.20454	0.10036
1452.91877	0.10105
1451.63301	0.10162
1450.34724	0.10199
1449.06147	0.10219
1447.77570	0.10223
1446.48993	0.10211
1445.20416	0.10180
1443.91839	0.10127
1442.63262	0.10053
1441.34685	0.09964
1440.06109	0.09869
1438.77532	0.09779
1437.48955	0.09705
1436.20378	0.09652
1434.91801	0.09628
1433.63224	0.09637
1432.34647	0.09679
1431.06070	0.09750
1429.77494	0.09846
1428.48917	0.09965
1427.20340	0.10104
1425.91763	0.10256
1424.63186	0.10414
1423.34609	0.10575
1422.06032	0.10738
1420.77455	0.10901
1419.48878	0.11059
1418.20302	0.11201
1416.91725	0.11321
1415.63148	0.11413
1414.34571	0.11473
1413.05994	0.11502
1411.77417	0.11505
1410.48840	0.11485
1409.20263	0.11439
1407.91687	0.11363
1406.63110	0.11256
1405.34533	0.11121
1404.05956	0.10966
1402.77379	0.10797
1401.48802	0.10616
1400.20225	0.10420
1398.91648	0.10204
1397.63071	0.09974
1396.34495	0.09740
1395.05918	0.09511
1393.77341	0.09288
1392.48764	0.09069
1391.20187	0.08854
1389.91610	0.08643
1388.63033	0.08437
1387.34456	0.08235
1386.05880	0.08036
1384.77303	0.07842
1383.48726	0.07649
1382.20149	0.07454
1380.91572	0.07256
1379.62995	0.07056
1378.34418	0.06854
1377.05841	0.06650
1375.77264	0.06444
1374.48688	0.06235
1373.20111	0.06023
1371.91534	0.05811
1370.62957	0.05602
1369.34380	0.05406
1368.05803	0.05225
1366.77226	0.05061
1365.48649	0.04912
1364.20073	0.04777
1362.91496	0.04650
1361.62919	0.04526
1360.34342	0.04406
1359.05765	0.04293
1357.77188	0.04191
1356.48611	0.04101
1355.20034	0.04015
1353.91457	0.03931
1352.62881	0.03850
1351.34304	0.03773
1350.05727	0.03702
1348.77150	0.03636
1347.48573	0.03574
1346.19996	0.03516
1344.91419	0.03461
1343.62842	0.03408
1342.34266	0.03356
1341.05689	0.03308
1339.77112	0.03265
1338.48535	0.03227
1337.19958	0.03191
1335.91381	0.03154
1334.62804	0.03115
1333.34227	0.03078
1332.05650	0.03042
1330.77074	0.03009
1329.48497	0.02977
1328.19920	0.02948
1326.91343	0.02924
1325.62766	0.02905
1324.34189	0.02887
1323.05612	0.02867
1321.77035	0.02842
1320.48459	0.02816
1319.19882	0.02788
1317.91305	0.02760
1316.62728	0.02732
1315.34151	0.02704
1314.05574	0.02679
1312.76997	0.02657
1311.48420	0.02637
1310.19843	0.02616
1308.91267	0.02592
1307.62690	0.02568
1306.34113	0.02546
1305.05536	0.02527
1303.76959	0.02510
1302.48382	0.02495
1301.19805	0.02479
1299.91228	0.02460
1298.62652	0.02439
1297.34075	0.02418
1296.05498	0.02403
1294.76921	0.02394
1293.48344	0.02387
1292.19767	0.02381
1290.91190	0.02372
1289.62613	0.02362
1288.34036	0.02350
1287.05460	0.02334
1285.76883	0.02315
1284.48306	0.02294
1283.19729	0.02276
1281.91152	0.02263
1280.62575	0.02253
1279.33998	0.02245
1278.05421	0.02239
1276.76845	0.02234
1275.48268	0.02230
1274.19691	0.02222
1272.91114	0.02208
1271.62537	0.02189
1270.33960	0.02169
1269.05383	0.02154
1267.76806	0.02142
1266.48229	0.02132
1265.19653	0.02122
1263.91076	0.02109
1262.62499	0.02095
1261.33922	0.02083
1260.05345	0.02076
1258.76768	0.02072
1257.48191	0.02069
1256.19614	0.02065
1254.91037	0.02062
1253.62461	0.02061
1252.33884	0.02059
1251.05307	0.02054
1249.76730	0.02047
1248.48153	0.02039
1247.19576	0.02033
1245.90999	0.02028
1244.62422	0.02024
1243.33846	0.02018
1242.05269	0.02008
1240.76692	0.01997
1239.48115	0.01984
1238.19538	0.01971
1236.90961	0.01957
1235.62384	0.01944
1234.33807	0.01934
1233.05230	0.01927
1231.76654	0.01920
1230.48077	0.01910
1229.19500	0.01898
1227.90923	0.01884
1226.62346	0.01871
1225.33769	0.01859
1224.05192	0.01848
1222.76615	0.01839
1221.48039	0.01832
1220.19462	0.01827
1218.90885	0.01823
1217.62308	0.01820
1216.33731	0.01816
1215.05154	0.01814
1213.76577	0.01813
1212.48000	0.01810
1211.19423	0.01801
1209.90847	0.01788
1208.62270	0.01774
1207.33693	0.01761
1206.05116	0.01750
1204.76539	0.01741
1203.47962	0.01735
1202.19385	0.01735
1200.90808	0.01744
1199.62232	0.01762
1198.33655	0.01769
1197.05078	0.01771
1195.76501	0.01768
1194.47924	0.01761
1193.19347	0.01754
1191.90770	0.01750
1190.62193	0.01746
1189.33616	0.01735
1188.05040	0.01720
1186.76463	0.01708
1185.47886	0.01706
1184.19309	0.01714
1182.90732	0.01725
1181.62155	0.01728
1180.33578	0.01721
1179.05001	0.01710
1177.76425	0.01706
1176.47848	0.01710
1175.19271	0.01715
1173.90694	0.01719
1172.62117	0.01724
1171.33540	0.01732
1170.04963	0.01742
1168.76386	0.01751
1167.47809	0.01759
1166.19233	0.01767
1164.90656	0.01774
1163.62079	0.01784
1162.33502	0.01799
1161.04925	0.01821
1159.76348	0.01844
1158.47771	0.01869
1157.19194	0.01896
1155.90618	0.01926
1154.62041	0.01954
1153.33464	0.01977
1152.04887	0.01996
1150.76310	0.02019
1149.47733	0.02050
1148.19156	0.02089
1146.90579	0.02134
1145.62002	0.02190
1144.33426	0.02259
1143.04849	0.02338
1141.76272	0.02419
1140.47695	0.02504
1139.19118	0.02600
1137.90541	0.02714
1136.61964	0.02843
1135.33387	0.02982
1134.04811	0.03128
1132.76234	0.03289
1131.47657	0.03475
1130.19080	0.03690
1128.90503	0.03930
1127.61926	0.04189
1126.33349	0.04464
1125.04772	0.04759
1123.76195	0.05079
1122.47619	0.05423
1121.19042	0.05786
1119.90465	0.06160
1118.61888	0.06542
1117.33311	0.06934
1116.04734	0.07341
1114.76157	0.07761
1113.47580	0.08182
1112.19004	0.08595
1110.90427	0.08999
1109.61850	0.09398
1108.33273	0.09795
1107.04696	0.10188
1105.76119	0.10571
1104.47542	0.10945
1103.18965	0.11314
1101.90388	0.11683
1100.61812	0.12048
1099.33235	0.12407
1098.04658	0.12755
1096.76081	0.13090
1095.47504	0.13415
1094.18927	0.13728
1092.90350	0.14026
1091.61773	0.14300
1090.33197	0.14543
1089.04620	0.14756
1087.76043	0.14950
1086.47466	0.15134
1085.18889	0.15313
1083.90312	0.15496
1082.61735	0.15691
1081.33158	0.15905
1080.04581	0.16143
1078.76005	0.16408
1077.47428	0.16707
1076.18851	0.17043
1074.90274	0.17412
1073.61697	0.17807
1072.33120	0.18222
1071.04543	0.18648
1069.75966	0.19081
1068.47390	0.19520
1067.18813	0.19968
1065.90236	0.20429
1064.61659	0.20898
1063.33082	0.21373
1062.04505	0.21850
1060.75928	0.22329
1059.47351	0.22803
1058.18774	0.23270
1056.90198	0.23733
1055.61621	0.24198
1054.33044	0.24664
1053.04467	0.25128
1051.75890	0.25585
1050.47313	0.26041
1049.18736	0.26509
1047.90159	0.27001
1046.61583	0.27517
1045.33006	0.28050
1044.04429	0.28589
1042.75852	0.29131
1041.47275	0.29670
1040.18698	0.30203
1038.90121	0.30733
1037.61544	0.31269
1036.32967	0.31819
1035.04391	0.32381
1033.75814	0.32939
1032.47237	0.33473
1031.18660	0.33963
1029.90083	0.34401
1028.61506	0.34786
1027.32929	0.35123
1026.04352	0.35416
1024.75775	0.35665
1023.47199	0.35867
1022.18622	0.36017
1020.90045	0.36102
1019.61468	0.36108
1018.32891	0.36029
1017.04314	0.35871
1015.75737	0.35641
1014.47160	0.35334
1013.18584	0.34944
1011.90007	0.34468
1010.61430	0.33906
1009.32853	0.33259
1008.04276	0.32538
1006.75699	0.31752
1005.47122	0.30911
1004.18545	0.30011
1002.89968	0.29046
1001.61392	0.28024
1000.32815	0.26966
999.04238	0.25898
997.75661	0.24836
996.47084	0.23781
995.18507	0.22733
993.89930	0.21698
992.61353	0.20691
991.32777	0.19727
990.04200	0.18810
988.75623	0.17941
987.47046	0.17116
986.18469	0.16333
984.89892	0.15592
983.61315	0.14894
982.32738	0.14240
981.04161	0.13630
979.75585	0.13066
978.47008	0.12548
977.18431	0.12078
975.89854	0.11662
974.61277	0.11307
973.32700	0.11020
972.04123	0.10805
970.75546	0.10663
969.46970	0.10597
968.18393	0.10608
966.89816	0.10699
965.61239	0.10859
964.32662	0.11058
963.04085	0.11256
961.75508	0.11409
960.46931	0.11481
959.18354	0.11445
957.89778	0.11292
956.61201	0.11034
955.32624	0.10705
954.04047	0.10343
952.75470	0.09978
951.46893	0.09628
950.18316	0.09298
948.89739	0.08991
947.61163	0.08704
946.32586	0.08433
945.04009	0.08169
943.75432	0.07908
942.46855	0.07656
941.18278	0.07418
939.89701	0.07196
938.61124	0.06991
937.32547	0.06801
936.03971	0.06621
934.75394	0.06452
933.46817	0.06296
932.18240	0.06158
930.89663	0.06039
929.61086	0.05930
928.32509	0.05825
927.03932	0.05725
925.75356	0.05631
924.46779	0.05542
923.18202	0.05455
921.89625	0.05371
920.61048	0.05298
919.32471	0.05236
918.03894	0.05177
916.75317	0.05115
915.46740	0.05050
914.18164	0.04991
912.89587	0.04940
911.61010	0.04894
910.32433	0.04849
909.03856	0.04803
907.75279	0.04755
906.46702	0.04705
905.18125	0.04656
903.89549	0.04608
902.60972	0.04562
901.32395	0.04522
900.03818	0.04491
898.75241	0.04463
897.46664	0.04433
896.18087	0.04398
894.89510	0.04367
893.60933	0.04346
892.32357	0.04337
891.03780	0.04339
889.75203	0.04358
888.46626	0.04408
887.18049	0.04501
885.89472	0.04654
884.60895	0.04883
883.32318	0.05194
882.03742	0.05557
880.75165	0.05908
879.46588	0.06181
878.18011	0.06361
876.89434	0.06493
875.60857	0.06641
874.32280	0.06824
873.03703	0.06998
871.75126	0.07093
870.46550	0.07067
869.17973	0.06927
867.89396	0.06700
866.60819	0.06410
865.32242	0.06082
864.03665	0.05746
862.75088	0.05436
861.46511	0.05171
860.17935	0.04954
858.89358	0.04777
857.60781	0.04632
856.32204	0.04510
855.03627	0.04406
853.75050	0.04319
852.46473	0.04250
851.17896	0.04196
849.89319	0.04152
848.60743	0.04112
847.32166	0.04075
846.03589	0.04043
844.75012	0.04011
843.46435	0.03976
842.17858	0.03937
840.89281	0.03899
839.60704	0.03868
838.32128	0.03841
837.03551	0.03815
835.74974	0.03787
834.46397	0.03761
833.17820	0.03743
831.89243	0.03731
830.60666	0.03720
829.32089	0.03706
828.03512	0.03690
826.74936	0.03672
825.46359	0.03650
824.17782	0.03627
822.89205	0.03603
821.60628	0.03583
820.32051	0.03573
819.03474	0.03573
817.74897	0.03581
816.46321	0.03588
815.17744	0.03585
813.89167	0.03565
812.60590	0.03533
811.32013	0.03498
810.03436	0.03473
808.74859	0.03462
807.46282	0.03458
806.17705	0.03451
804.89129	0.03438
803.60552	0.03425
802.31975	0.03417
801.03398	0.03411
799.74821	0.03407
798.46244	0.03405
797.17667	0.03405
795.89090	0.03404
794.60513	0.03397
793.31937	0.03385
792.03360	0.03371
790.74783	0.03358
789.46206	0.03348
788.17629	0.03340
786.89052	0.03330
785.60475	0.03317
784.31898	0.03306
783.03322	0.03304
781.74745	0.03311
780.46168	0.03318
779.17591	0.03313
777.89014	0.03296
776.60437	0.03278
775.31860	0.03270
774.03283	0.03272
772.74706	0.03275
771.46130	0.03270
770.17553	0.03259
768.88976	0.03245
767.60399	0.03233
766.31822	0.03225
765.03245	0.03224
763.74668	0.03228
762.46091	0.03233
761.17515	0.03238
759.88938	0.03244
758.60361	0.03250
757.31784	0.03253
756.03207	0.03251
754.74630	0.03247
753.46053	0.03247
752.17476	0.03255
750.88899	0.03264
749.60323	0.03261
748.31746	0.03243
747.03169	0.03218
745.74592	0.03204
744.46015	0.03207
743.17438	0.03217
741.88861	0.03219
740.60284	0.03208
739.31708	0.03190
738.03131	0.03174
736.74554	0.03163
735.45977	0.03151
734.17400	0.03139
732.88823	0.03132
731.60246	0.03135
730.31669	0.03145
729.03092	0.03156
727.74516	0.03163
726.45939	0.03166
725.17362	0.03168
723.88785	0.03185
722.60208	0.03181
721.31631	0.03164
720.03054	0.03145
718.74477	0.03127
717.45901	0.03115
716.17324	0.03112
714.88747	0.03116
713.60170	0.03123
712.31593	0.03130
711.03016	0.03135
709.74439	0.03137
708.45862	0.03135
707.17285	0.03129
705.88709	0.03121
704.60132	0.03111
703.31555	0.03104
702.02978	0.03101
700.74401	0.03103
699.45824	0.03108
698.17247	0.03113
696.88670	0.03119
695.60094	0.03126
694.31517	0.03134
693.02940	0.03138
691.74363	0.03136
690.45786	0.03131
689.17209	0.03129
687.88632	0.03130
686.60055	0.03128
685.31478	0.03124
684.02902	0.03119
682.74325	0.03117
681.45748	0.03117
680.17171	0.03117
678.88594	0.03117
677.60017	0.03120
676.31440	0.03126
675.02863	0.03134
673.74287	0.03141
672.45710	0.03150
671.17133	0.03172
669.88556	0.03201
668.59979	0.03206
667.31402	0.03210
666.02825	0.03236
664.74248	0.03219
663.45671	0.03195
662.17095	0.03181
660.88518	0.03173
659.59941	0.03169
658.31364	0.03168
657.02787	0.03168
655.74210	0.03170
654.45633	0.03171
653.17056	0.03174
651.88480	0.03183
650.59903	0.03198
649.31326	0.03216
648.02749	0.03232
646.74172	0.03244
645.45595	0.03258
644.17018	0.03282
642.88441	0.03317
641.59864	0.03363
640.31288	0.03413
639.02711	0.03465
637.74134	0.03517
636.45557	0.03568
635.16980	0.03615
633.88403	0.03658
632.59826	0.03698
631.31249	0.03725
630.02673	0.03695
628.74096	0.03634
627.45519	0.03726
626.16942	0.03680
624.88365	0.03561
623.59788	0.03506
622.31211	0.03586
621.02634	0.03834
619.74057	0.04237
618.45481	0.04735
617.16904	0.05252
615.88327	0.05735
614.59750	0.06174
613.31173	0.06619
612.02596	0.07168
610.74019	0.07884
609.45442	0.08710
608.16866	0.09513
606.88289	0.10209
605.59712	0.10799
604.31135	0.11287
603.02558	0.11628
601.73981	0.11767
600.45404	0.11691
599.16827	0.11441
597.88250	0.11071
596.59674	0.10640
595.31097	0.10209
594.02520	0.09829
592.73943	0.09530
591.45366	0.09310
590.16789	0.09159
588.88212	0.09077
587.59635	0.09075
586.31059	0.09161
585.02482	0.09334
583.73905	0.09582
582.45328	0.09890
581.16751	0.10238
579.88174	0.10613
578.59597	0.11010
577.31020	0.11428
576.02443	0.11856
574.73867	0.12279
573.45290	0.12693
572.16713	0.13105
570.88136	0.13531
569.59559	0.13985
568.30982	0.14481
567.02405	0.15028
565.73828	0.15608
564.45251	0.16160
563.16675	0.16594
561.88098	0.16820
560.59521	0.16777
559.30944	0.16450
558.02367	0.15869
556.73790	0.15094
555.45213	0.14199
554.16636	0.13255
552.88060	0.12326
551.59483	0.11456
550.30906	0.10664
549.02329	0.09946
547.73752	0.09294
546.45175	0.08709
545.16598	0.08190
543.88021	0.07733
542.59444	0.07330
541.30868	0.06975
540.02291	0.06665
538.73714	0.06392
537.45137	0.06148
536.16560	0.05924
534.87983	0.05718
533.59406	0.05530
532.30829	0.05355
531.02253	0.05189
529.73676	0.05030
528.45099	0.04881
527.16522	0.04746
525.87945	0.04630
524.59368	0.04528
523.30791	0.04430
522.02214	0.04324
520.73637	0.04211
519.45061	0.04101
518.16484	0.04007
516.87907	0.03929
515.59330	0.03857
514.30753	0.03780
513.02176	0.03697
511.73599	0.03616
510.45022	0.03548
509.16446	0.03499
507.87869	0.03461
506.59292	0.03421
505.30715	0.03375
504.02138	0.03325
502.73561	0.03282
501.44984	0.03248
500.16407	0.03221
498.87830	0.03193
497.59254	0.03157
496.30677	0.03112
495.02100	0.03064
493.73523	0.03020
492.44946	0.02985
491.16369	0.02958
489.87792	0.02934
488.59215	0.02911
487.30639	0.02895
486.02062	0.02893
484.73485	0.02906
483.44908	0.02929
482.16331	0.02955
480.87754	0.02977
479.59177	0.02998
478.30600	0.03020
477.02023	0.03042
475.73447	0.03062
474.44870	0.03079
473.16293	0.03097
471.87716	0.03115
470.59139	0.03128
469.30562	0.03129
468.01985	0.03117
466.73408	0.03094
465.44832	0.03064
464.16255	0.03028
462.87678	0.02983
461.59101	0.02930
460.30524	0.02872
459.01947	0.02814
457.73370	0.02758
456.44793	0.02708
455.16216	0.02664
453.87640	0.02631
452.59063	0.02607
451.30486	0.02586
450.01909	0.02565
448.73332	0.02542
447.44755	0.02519
446.16178	0.02495
444.87601	0.02473
443.59025	0.02455
442.30448	0.02441
441.01871	0.02429
439.73294	0.02415
438.44717	0.02400
437.16140	0.02388
435.87563	0.02383
434.58986	0.02382
433.30409	0.02381
432.01833	0.02376
430.73256	0.02367
429.44679	0.02356
428.16102	0.02348
426.87525	0.02338
425.58948	0.02325
424.30371	0.02309
423.01794	0.02291
421.73218	0.02275
420.44641	0.02260
419.16064	0.02245
417.87487	0.02232
416.58910	0.02222
415.30333	0.02214
414.01756	0.02204
412.73179	0.02190
411.44602	0.02177
410.16026	0.02170
408.87449	0.02170
407.58872	0.02176
406.30295	0.02185
405.01718	0.02195
403.73141	0.02207
402.44564	0.02222
401.15987	0.02238
399.87411	0.02251
