3997.45528	0.04962
3996.16951	0.04943
3994.88374	0.04920
3993.59798	0.04906
3992.31221	0.04898
3991.02644	0.04859
3989.74067	0.04772
3988.45490	0.04690
3987.16913	0.04688
3985.88336	0.04780
3984.59759	0.04902
3983.31183	0.04984
3982.02606	0.05005
3980.74029	0.04981
3979.45452	0.04930
3978.16875	0.04858
3976.88298	0.04782
3975.59721	0.04733
3974.31144	0.04729
3973.02567	0.04767
3971.73991	0.04827
3970.45414	0.04886
3969.16837	0.04932
3967.88260	0.04963
3966.59683	0.04989
3965.31106	0.05018
3964.02529	0.05044
3962.73952	0.05056
3961.45376	0.05044
3960.16799	0.05003
3958.88222	0.04943
3957.59645	0.04880
3956.31068	0.04827
3955.02491	0.04785
3953.73914	0.04757
3952.45337	0.04749
3951.16760	0.04769
3949.88184	0.04804
3948.59607	0.04819
3947.31030	0.04797
3946.02453	0.04759
3944.73876	0.04747
3943.45299	0.04782
3942.16722	0.04852
3940.88145	0.04931
3939.59569	0.04997
3938.30992	0.05035
3937.02415	0.05030
3935.73838	0.04994
3934.45261	0.04954
3933.16684	0.04933
3931.88107	0.04925
3930.59530	0.04912
3929.30953	0.04883
3928.02377	0.04841
3926.73800	0.04797
3925.45223	0.04765
3924.16646	0.04751
3922.88069	0.04752
3921.59492	0.04753
3920.30915	0.04734
3919.02338	0.04692
3917.73762	0.04636
3916.45185	0.04583
3915.16608	0.04542
3913.88031	0.04525
3912.59454	0.04536
3911.30877	0.04575
3910.02300	0.04638
3908.73723	0.04708
3907.45146	0.04766
3906.16570	0.04796
3904.87993	0.04783
3903.59416	0.04730
3902.30839	0.04664
3901.02262	0.04620
3899.73685	0.04606
3898.45108	0.04613
3897.16531	0.04629
3895.87955	0.04648
3894.59378	0.04658
3893.30801	0.04647
3892.02224	0.04613
3890.73647	0.04573
3889.45070	0.04570
3888.16493	0.04631
3886.87916	0.04722
3885.59339	0.04773
3884.30763	0.04780
3883.02186	0.04792
3881.73609	0.04824
3880.45032	0.04836
3879.16455	0.04796
3877.87878	0.04723
3876.59301	0.04655
3875.30724	0.04615
3874.02148	0.04621
3872.73571	0.04674
3871.44994	0.04730
3870.16417	0.04717
3868.87840	0.04632
3867.59263	0.04568
3866.30686	0.04588
3865.02109	0.04657
3863.73532	0.04718
3862.44956	0.04758
3861.16379	0.04784
3859.87802	0.04795
3858.59225	0.04802
3857.30648	0.04834
3856.02071	0.04882
3854.73494	0.04871
3853.44917	0.04743
3852.16341	0.04566
3850.87764	0.04482
3849.59187	0.04540
3848.30610	0.04666
3847.02033	0.04771
3845.73456	0.04818
3844.44879	0.04815
3843.16302	0.04793
3841.87725	0.04787
3840.59149	0.04815
3839.30572	0.04845
3838.01995	0.04826
3836.73418	0.04758
3835.44841	0.04698
3834.16264	0.04680
3832.87687	0.04662
3831.59110	0.04591
3830.30534	0.04480
3829.01957	0.04389
3827.73380	0.04366
3826.44803	0.04408
3825.16226	0.04495
3823.87649	0.04600
3822.59072	0.04679
3821.30495	0.04690
3820.01918	0.04665
3818.73342	0.04672
3817.44765	0.04700
3816.16188	0.04650
3814.87611	0.04493
3813.59034	0.04351
3812.30457	0.04347
3811.01880	0.04473
3809.73303	0.04635
3808.44726	0.04743
3807.16150	0.04751
3805.87573	0.04705
3804.58996	0.04713
3803.30419	0.04808
3802.01842	0.04880
3800.73265	0.04809
3799.44688	0.04632
3798.16111	0.04476
3796.87535	0.04408
3795.58958	0.04406
3794.30381	0.04432
3793.01804	0.04458
3791.73227	0.04466
3790.44650	0.04462
3789.16073	0.04462
3787.87496	0.04472
3786.58919	0.04474
3785.30343	0.04450
3784.01766	0.04406
3782.73189	0.04373
3781.44612	0.04377
3780.16035	0.04407
3778.87458	0.04429
3777.58881	0.04422
3776.30304	0.04396
3775.01728	0.04374
3773.73151	0.04374
3772.44574	0.04401
3771.15997	0.04436
3769.87420	0.04444
3768.58843	0.04425
3767.30266	0.04408
3766.01689	0.04410
3764.73112	0.04428
3763.44536	0.04458
3762.15959	0.04489
3760.87382	0.04487
3759.58805	0.04422
3758.30228	0.04316
3757.01651	0.04231
3755.73074	0.04231
3754.44497	0.04340
3753.15921	0.04512
3751.87344	0.04650
3750.58767	0.04691
3749.30190	0.04652
3748.01613	0.04610
3746.73036	0.04627
3745.44459	0.04644
3744.15882	0.04538
3742.87305	0.04323
3741.58729	0.04174
3740.30152	0.04204
3739.01575	0.04378
3737.72998	0.04580
3736.44421	0.04699
3735.15844	0.04687
3733.87267	0.04588
3732.58690	0.04476
3731.30114	0.04390
3730.01537	0.04344
3728.72960	0.04349
3727.44383	0.04387
3726.15806	0.04426
3724.87229	0.04452
3723.58652	0.04468
3722.30075	0.04457
3721.01498	0.04392
3719.72922	0.04274
3718.44345	0.04151
3717.15768	0.04088
3715.87191	0.04112
3714.58614	0.04187
3713.30037	0.04242
3712.01460	0.04236
3710.72883	0.04200
3709.44307	0.04196
3708.15730	0.04249
3706.87153	0.04328
3705.58576	0.04391
3704.29999	0.04417
3703.01422	0.04396
3701.72845	0.04334
3700.44268	0.04258
3699.15691	0.04211
3697.87115	0.04223
3696.58538	0.04286
3695.29961	0.04359
3694.01384	0.04404
3692.72807	0.04408
3691.44230	0.04376
3690.15653	0.04319
3688.87076	0.04235
3687.58500	0.04141
3686.29923	0.04094
3685.01346	0.04142
3683.72769	0.04264
3682.44192	0.04395
3681.15615	0.04492
3679.87038	0.04539
3678.58461	0.04538
3677.29884	0.04488
3676.01308	0.04382
3674.72731	0.04245
3673.44154	0.04154
3672.15577	0.04162
3670.87000	0.04222
3669.58423	0.04265
3668.29846	0.04303
3667.01269	0.04377
3665.72693	0.04464
3664.44116	0.04504
3663.15539	0.04466
3661.86962	0.04376
3660.58385	0.04285
3659.29808	0.04243
3658.01231	0.04265
3656.72654	0.04325
3655.44077	0.04388
3654.15501	0.04446
3652.86924	0.04497
3651.58347	0.04507
3650.29770	0.04435
3649.01193	0.04295
3647.72616	0.04159
3646.44039	0.04095
3645.15462	0.04122
3643.86886	0.04212
3642.58309	0.04325
3641.29732	0.04438
3640.01155	0.04538
3638.72578	0.04616
3637.44001	0.04673
3636.15424	0.04720
3634.86847	0.04764
3633.58270	0.04810
3632.29694	0.04873
3631.01117	0.04958
3629.72540	0.05015
3628.43963	0.04985
3627.15386	0.04906
3625.86809	0.04881
3624.58232	0.04946
3623.29655	0.05041
3622.01079	0.05089
3620.72502	0.05061
3619.43925	0.04976
3618.15348	0.04883
3616.86771	0.04841
3615.58194	0.04876
3614.29617	0.04961
3613.01040	0.05038
3611.72463	0.05075
3610.43887	0.05072
3609.15310	0.05042
3607.86733	0.05010
3606.58156	0.05024
3605.29579	0.05120
3604.01002	0.05264
3602.72425	0.05376
3601.43848	0.05408
3600.15272	0.05389
3598.86695	0.05376
3597.58118	0.05395
3596.29541	0.05423
3595.00964	0.05434
3593.72387	0.05432
3592.43810	0.05444
3591.15233	0.05491
3589.86656	0.05564
3588.58080	0.05621
3587.29503	0.05617
3586.00926	0.05559
3584.72349	0.05501
3583.43772	0.05491
3582.15195	0.05535
3580.86618	0.05589
3579.58041	0.05608
3578.29464	0.05579
3577.00888	0.05541
3575.72311	0.05538
3574.43734	0.05584
3573.15157	0.05664
3571.86580	0.05754
3570.58003	0.05835
3569.29426	0.05885
3568.00849	0.05891
3566.72273	0.05875
3565.43696	0.05876
3564.15119	0.05909
3562.86542	0.05946
3561.57965	0.05954
3560.29388	0.05932
3559.00811	0.05916
3557.72234	0.05942
3556.43657	0.06012
3555.15081	0.06091
3553.86504	0.06139
3552.57927	0.06145
3551.29350	0.06137
3550.00773	0.06157
3548.72196	0.06226
3547.43619	0.06324
3546.15042	0.06413
3544.86466	0.06464
3543.57889	0.06481
3542.29312	0.06490
3541.00735	0.06509
3539.72158	0.06535
3538.43581	0.06548
3537.15004	0.06537
3535.86427	0.06507
3534.57850	0.06474
3533.29274	0.06466
3532.00697	0.06505
3530.72120	0.06589
3529.43543	0.06677
3528.14966	0.06726
3526.86389	0.06729
3525.57812	0.06723
3524.29235	0.06754
3523.00659	0.06829
3521.72082	0.06919
3520.43505	0.06989
3519.14928	0.07026
3517.86351	0.07035
3516.57774	0.07036
3515.29197	0.07045
3514.00620	0.07068
3512.72043	0.07106
3511.43467	0.07159
3510.14890	0.07219
3508.86313	0.07273
3507.57736	0.07303
3506.29159	0.07303
3505.00582	0.07281
3503.72005	0.07260
3502.43428	0.07255
3501.14852	0.07262
3499.86275	0.07264
3498.57698	0.07257
3497.29121	0.07250
3496.00544	0.07248
3494.71967	0.07246
3493.43390	0.07239
3492.14813	0.07239
3490.86236	0.07265
3489.57660	0.07329
3488.29083	0.07423
3487.00506	0.07525
3485.71929	0.07615
3484.43352	0.07685
3483.14775	0.07724
3481.86198	0.07714
3480.57621	0.07650
3479.29045	0.07570
3478.00468	0.07526
3476.71891	0.07531
3475.43314	0.07552
3474.14737	0.07560
3472.86160	0.07569
3471.57583	0.07611
3470.29006	0.07690
3469.00429	0.07772
3467.71853	0.07827
3466.43276	0.07847
3465.14699	0.07847
3463.86122	0.07845
3462.57545	0.07851
3461.28968	0.07862
3460.00391	0.07866
3458.71814	0.07853
3457.43238	0.07828
3456.14661	0.07798
3454.86084	0.07774
3453.57507	0.07768
3452.28930	0.07793
3451.00353	0.07846
3449.71776	0.07899
3448.43199	0.07928
3447.14622	0.07938
3445.86046	0.07961
3444.57469	0.08014
3443.28892	0.08073
3442.00315	0.08102
3440.71738	0.08097
3439.43161	0.08084
3438.14584	0.08077
3436.86007	0.08071
3435.57431	0.08059
3434.28854	0.08054
3433.00277	0.08075
3431.71700	0.08130
3430.43123	0.08207
3429.14546	0.08277
3427.85969	0.08312
3426.57392	0.08310
3425.28815	0.08300
3424.00239	0.08309
3422.71662	0.08335
3421.43085	0.08354
3420.14508	0.08353
3418.85931	0.08340
3417.57354	0.08330
3416.28777	0.08334
3415.00200	0.08354
3413.71624	0.08388
3412.43047	0.08425
3411.14470	0.08452
3409.85893	0.08459
3408.57316	0.08454
3407.28739	0.08453
3406.00162	0.08461
3404.71585	0.08475
3403.43008	0.08494
3402.14432	0.08517
3400.85855	0.08540
3399.57278	0.08566
3398.28701	0.08588
3397.00124	0.08598
3395.71547	0.08605
3394.42970	0.08619
3393.14393	0.08642
3391.85817	0.08665
3390.57240	0.08683
3389.28663	0.08696
3388.00086	0.08708
3386.71509	0.08715
3385.42932	0.08711
3384.14355	0.08692
3382.85778	0.08669
3381.57201	0.08658
3380.28625	0.08664
3379.00048	0.08677
3377.71471	0.08684
3376.42894	0.08683
3375.14317	0.08687
3373.85740	0.08700
3372.57163	0.08717
3371.28586	0.08740
3370.00010	0.08773
3368.71433	0.08809
3367.42856	0.08828
3366.14279	0.08822
3364.85702	0.08804
3363.57125	0.08794
3362.28548	0.08795
3360.99971	0.08794
3359.71394	0.08780
3358.42818	0.08756
3357.14241	0.08736
3355.85664	0.08735
3354.57087	0.08767
3353.28510	0.08823
3351.99933	0.08877
3350.71356	0.08901
3349.42779	0.08890
3348.14202	0.08862
3346.85626	0.08840
3345.57049	0.08836
3344.28472	0.08846
3342.99895	0.08863
3341.71318	0.08881
3340.42741	0.08891
3339.14164	0.08881
3337.85587	0.08847
3336.57011	0.08809
3335.28434	0.08797
3333.99857	0.08821
3332.71280	0.08857
3331.42703	0.08872
3330.14126	0.08862
3328.85549	0.08849
3327.56972	0.08845
3326.28395	0.08842
3324.99819	0.08826
3323.71242	0.08808
3322.42665	0.08811
3321.14088	0.08850
3319.85511	0.08917
3318.56934	0.08990
3317.28357	0.09050
3315.99780	0.09088
3314.71204	0.09099
3313.42627	0.09077
3312.14050	0.09030
3310.85473	0.08979
3309.56896	0.08952
3308.28319	0.08952
3306.99742	0.08957
3305.71165	0.08952
3304.42588	0.08944
3303.14012	0.08942
3301.85435	0.08941
3300.56858	0.08925
3299.28281	0.08896
3297.99704	0.08874
3296.71127	0.08881
3295.42550	0.08918
3294.13973	0.08974
3292.85397	0.09023
3291.56820	0.09035
3290.28243	0.08990
3288.99666	0.08896
3287.71089	0.08788
3286.42512	0.08704
3285.13935	0.08662
3283.85358	0.08664
3282.56781	0.08701
3281.28205	0.08756
3279.99628	0.08800
3278.71051	0.08807
3277.42474	0.08778
3276.13897	0.08736
3274.85320	0.08707
3273.56743	0.08696
3272.28166	0.08692
3270.99590	0.08695
3269.71013	0.08717
3268.42436	0.08756
3267.13859	0.08787
3265.85282	0.08782
3264.56705	0.08745
3263.28128	0.08701
3261.99551	0.08675
3260.70974	0.08671
3259.42398	0.08676
3258.13821	0.08671
3256.85244	0.08642
3255.56667	0.08595
3254.28090	0.08557
3252.99513	0.08557
3251.70936	0.08590
3250.42359	0.08621
3249.13783	0.08624
3247.85206	0.08607
3246.56629	0.08596
3245.28052	0.08606
3243.99475	0.08626
3242.70898	0.08644
3241.42321	0.08669
3240.13744	0.08716
3238.85167	0.08783
3237.56591	0.08842
3236.28014	0.08860
3234.99437	0.08819
3233.70860	0.08732
3232.42283	0.08634
3231.13706	0.08558
3229.85129	0.08515
3228.56552	0.08492
3227.27976	0.08475
3225.99399	0.08465
3224.70822	0.08470
3223.42245	0.08486
3222.13668	0.08501
3220.85091	0.08497
3219.56514	0.08469
3218.27937	0.08418
3216.99360	0.08357
3215.70784	0.08305
3214.42207	0.08276
3213.13630	0.08272
3211.85053	0.08280
3210.56476	0.08290
3209.27899	0.08300
3207.99322	0.08313
3206.70745	0.08336
3205.42169	0.08370
3204.13592	0.08406
3202.85015	0.08424
3201.56438	0.08407
3200.27861	0.08357
3198.99284	0.08289
3197.70707	0.08217
3196.42130	0.08155
3195.13553	0.08123
3193.84977	0.08137
3192.56400	0.08190
3191.27823	0.08250
3189.99246	0.08281
3188.70669	0.08276
3187.42092	0.08254
3186.13515	0.08234
3184.84938	0.08222
3183.56362	0.08202
3182.27785	0.08163
3180.99208	0.08100
3179.70631	0.08020
3178.42054	0.07944
3177.13477	0.07906
3175.84900	0.07922
3174.56323	0.07980
3173.27746	0.08037
3171.99170	0.08059
3170.70593	0.08045
3169.42016	0.08018
3168.13439	0.07997
3166.84862	0.07981
3165.56285	0.07966
3164.27708	0.07955
3162.99131	0.07957
3161.70555	0.07967
3160.41978	0.07963
3159.13401	0.07926
3157.84824	0.07852
3156.56247	0.07758
3155.27670	0.07675
3153.99093	0.07626
3152.70516	0.07614
3151.41939	0.07621
3150.13363	0.07633
3148.84786	0.07647
3147.56209	0.07665
3146.27632	0.07691
3144.99055	0.07723
3143.70478	0.07755
3142.41901	0.07776
3141.13324	0.07775
3139.84748	0.07749
3138.56171	0.07706
3137.27594	0.07667
3135.99017	0.07641
3134.70440	0.07629
3133.41863	0.07625
3132.13286	0.07625
3130.84709	0.07626
3129.56132	0.07621
3128.27556	0.07597
3126.98979	0.07554
3125.70402	0.07510
3124.41825	0.07483
3123.13248	0.07479
3121.84671	0.07489
3120.56094	0.07502
3119.27517	0.07510
3117.98940	0.07511
3116.70364	0.07506
3115.41787	0.07497
3114.13210	0.07490
3112.84633	0.07490
3111.56056	0.07492
3110.27479	0.07487
3108.98902	0.07472
3107.70325	0.07455
3106.41749	0.07441
3105.13172	0.07427
3103.84595	0.07402
3102.56018	0.07367
3101.27441	0.07332
3099.98864	0.07310
3098.70287	0.07301
3097.41710	0.07298
3096.13133	0.07295
3094.84557	0.07297
3093.55980	0.07306
3092.27403	0.07316
3090.98826	0.07322
3089.70249	0.07327
3088.41672	0.07332
3087.13095	0.07329
3085.84518	0.07299
3084.55942	0.07240
3083.27365	0.07174
3081.98788	0.07132
3080.70211	0.07125
3079.41634	0.07141
3078.13057	0.07151
3076.84480	0.07136
3075.55903	0.07101
3074.27326	0.07071
3072.98750	0.07069
3071.70173	0.07097
3070.41596	0.07134
3069.13019	0.07159
3067.84442	0.07169
3066.55865	0.07166
3065.27288	0.07152
3063.98711	0.07127
3062.70135	0.07099
3061.41558	0.07073
3060.12981	0.07045
3058.84404	0.07010
3057.55827	0.06975
3056.27250	0.06959
3054.98673	0.06967
3053.70096	0.06986
3052.41519	0.06994
3051.12943	0.06982
3049.84366	0.06958
3048.55789	0.06930
3047.27212	0.06906
3045.98635	0.06892
3044.70058	0.06892
3043.41481	0.06898
3042.12904	0.06890
3040.84328	0.06857
3039.55751	0.06814
3038.27174	0.06781
3036.98597	0.06765
3035.70020	0.06758
3034.41443	0.06750
3033.12866	0.06745
3031.84289	0.06741
3030.55712	0.06735
3029.27136	0.06726
3027.98559	0.06722
3026.69982	0.06727
3025.41405	0.06729
3024.12828	0.06715
3022.84251	0.06683
3021.55674	0.06643
3020.27097	0.06607
3018.98521	0.06582
3017.69944	0.06571
3016.41367	0.06570
3015.12790	0.06569
3013.84213	0.06567
3012.55636	0.06564
3011.27059	0.06559
3009.98482	0.06545
3008.69905	0.06524
3007.41329	0.06502
3006.12752	0.06489
3004.84175	0.06484
3003.55598	0.06486
3002.27021	0.06491
3000.98444	0.06491
2999.69867	0.06489
2998.41290	0.06470
2997.12714	0.06448
2995.84137	0.06428
2994.55560	0.06416
2993.26983	0.06414
2991.98406	0.06424
2990.69829	0.06434
2989.41252	0.06435
2988.12675	0.06425
2986.84098	0.06416
2985.55522	0.06423
2984.26945	0.06444
2982.98368	0.06467
2981.69791	0.06483
2980.41214	0.06504
2979.12637	0.06537
2977.84060	0.06578
2976.55483	0.06623
2975.26907	0.06675
2973.98330	0.06741
2972.69753	0.06816
2971.41176	0.06896
2970.12599	0.06984
2968.84022	0.07088
2967.55445	0.07207
2966.26868	0.07330
2964.98291	0.07436
2963.69715	0.07513
2962.41138	0.07559
2961.12561	0.07580
2959.83984	0.07583
2958.55407	0.07568
2957.26830	0.07540
2955.98253	0.07507
2954.69676	0.07472
2953.41100	0.07434
2952.12523	0.07387
2950.83946	0.07335
2949.55369	0.07290
2948.26792	0.07257
2946.98215	0.07232
2945.69638	0.07206
2944.41061	0.07183
2943.12484	0.07175
2941.83908	0.07183
2940.55331	0.07198
2939.26754	0.07205
2937.98177	0.07203
2936.69600	0.07208
2935.41023	0.07236
2934.12446	0.07285
2932.83869	0.07331
2931.55293	0.07352
2930.26716	0.07345
2928.98139	0.07330
2927.69562	0.07328
2926.40985	0.07340
2925.12408	0.07346
2923.83831	0.07331
2922.55254	0.07294
2921.26677	0.07251
2919.98101	0.07213
2918.69524	0.07179
2917.40947	0.07147
2916.12370	0.07120
2914.83793	0.07102
2913.55216	0.07094
2912.26639	0.07093
2910.98062	0.07089
2909.69486	0.07074
2908.40909	0.07044
2907.12332	0.07006
2905.83755	0.06971
2904.55178	0.06934
2903.26601	0.06882
2901.98024	0.06810
2900.69447	0.06735
2899.40870	0.06679
2898.12294	0.06650
2896.83717	0.06639
2895.55140	0.06632
2894.26563	0.06617
2892.97986	0.06586
2891.69409	0.06535
2890.40832	0.06470
2889.12255	0.06407
2887.83678	0.06367
2886.55102	0.06357
2885.26525	0.06354
2883.97948	0.06337
2882.69371	0.06306
2881.40794	0.06279
2880.12217	0.06270
2878.83640	0.06272
2877.55063	0.06280
2876.26487	0.06294
2874.97910	0.06309
2873.69333	0.06312
2872.40756	0.06298
2871.12179	0.06284
2869.83602	0.06286
2868.55025	0.06304
2867.26448	0.06324
2865.97871	0.06334
2864.69295	0.06330
2863.40718	0.06315
2862.12141	0.06297
2860.83564	0.06281
2859.54987	0.06275
2858.26410	0.06281
2856.97833	0.06293
2855.69256	0.06301
2854.40680	0.06297
2853.12103	0.06286
2851.83526	0.06275
2850.54949	0.06255
2849.26372	0.06214
2847.97795	0.06155
2846.69218	0.06097
2845.40641	0.06052
2844.12064	0.06015
2842.83488	0.05974
2841.54911	0.05928
2840.26334	0.05879
2838.97757	0.05830
2837.69180	0.05783
2836.40603	0.05742
2835.12026	0.05707
2833.83449	0.05674
2832.54873	0.05640
2831.26296	0.05609
2829.97719	0.05584
2828.69142	0.05556
2827.40565	0.05523
2826.11988	0.05488
2824.83411	0.05458
2823.54834	0.05434
2822.26257	0.05410
2820.97681	0.05384
2819.69104	0.05361
2818.40527	0.05348
2817.11950	0.05342
2815.83373	0.05338
2814.54796	0.05338
2813.26219	0.05346
2811.97642	0.05361
2810.69066	0.05373
2809.40489	0.05369
2808.11912	0.05347
2806.83335	0.05313
2805.54758	0.05280
2804.26181	0.05258
2802.97604	0.05244
2801.69027	0.05223
2800.40450	0.05189
2799.11874	0.05153
2797.83297	0.05133
2796.54720	0.05130
2795.26143	0.05133
2793.97566	0.05132
2792.68989	0.05131
2791.40412	0.05134
2790.11835	0.05138
2788.83259	0.05134
2787.54682	0.05118
2786.26105	0.05097
2784.97528	0.05080
2783.68951	0.05069
2782.40374	0.05056
2781.11797	0.05039
2779.83220	0.05026
2778.54643	0.05018
2777.26067	0.05003
2775.97490	0.04975
2774.68913	0.04942
2773.40336	0.04923
2772.11759	0.04923
2770.83182	0.04933
2769.54605	0.04944
2768.26028	0.04958
2766.97452	0.04971
2765.68875	0.04974
2764.40298	0.04960
2763.11721	0.04936
2761.83144	0.04913
2760.54567	0.04896
2759.25990	0.04885
2757.97413	0.04879
2756.68836	0.04882
2755.40260	0.04893
2754.11683	0.04905
2752.83106	0.04906
2751.54529	0.04885
2750.25952	0.04848
2748.97375	0.04812
2747.68798	0.04793
2746.40221	0.04794
2745.11645	0.04803
2743.83068	0.04805
2742.54491	0.04797
2741.25914	0.04784
2739.97337	0.04779
2738.68760	0.04788
2737.40183	0.04797
2736.11606	0.04790
2734.83029	0.04767
2733.54453	0.04744
2732.25876	0.04738
2730.97299	0.04746
2729.68722	0.04752
2728.40145	0.04747
2727.11568	0.04738
2725.82991	0.04730
2724.54414	0.04727
2723.25838	0.04729
2721.97261	0.04733
2720.68684	0.04731
2719.40107	0.04719
2718.11530	0.04703
2716.82953	0.04692
2715.54376	0.04684
2714.25799	0.04670
2712.97222	0.04651
2711.68646	0.04635
2710.40069	0.04628
2709.11492	0.04628
2707.82915	0.04630
2706.54338	0.04631
2705.25761	0.04627
2703.97184	0.04614
2702.68607	0.04593
2701.40031	0.04568
2700.11454	0.04546
2698.82877	0.04528
2697.54300	0.04514
2696.25723	0.04512
2694.97146	0.04525
2693.68569	0.04549
2692.39992	0.04567
2691.11415	0.04563
2689.82839	0.04543
2688.54262	0.04524
2687.25685	0.04521
2685.97108	0.04528
2684.68531	0.04528
2683.39954	0.04509
2682.11377	0.04481
2680.82800	0.04457
2679.54224	0.04445
2678.25647	0.04438
2676.97070	0.04428
2675.68493	0.04411
2674.39916	0.04397
2673.11339	0.04400
2671.82762	0.04427
2670.54185	0.04466
2669.25608	0.04493
2667.97032	0.04492
2666.68455	0.04465
2665.39878	0.04431
2664.11301	0.04411
2662.82724	0.04413
2661.54147	0.04430
2660.25570	0.04450
2658.96993	0.04462
2657.68417	0.04460
2656.39840	0.04446
2655.11263	0.04427
2653.82686	0.04411
2652.54109	0.04402
2651.25532	0.04392
2649.96955	0.04380
2648.68378	0.04369
2647.39801	0.04367
2646.11225	0.04366
2644.82648	0.04354
2643.54071	0.04327
2642.25494	0.04295
2640.96917	0.04266
2639.68340	0.04235
2638.39763	0.04198
2637.11186	0.04167
2635.82609	0.04156
2634.54033	0.04167
2633.25456	0.04180
2631.96879	0.04177
2630.68302	0.04160
2629.39725	0.04143
2628.11148	0.04131
2626.82571	0.04114
2625.53994	0.04082
2624.25418	0.04041
2622.96841	0.04009
2621.68264	0.03990
2620.39687	0.03973
2619.11110	0.03959
2617.82533	0.03961
2616.53956	0.03983
2615.25379	0.04001
2613.96802	0.03985
2612.68226	0.03940
2611.39649	0.03903
2610.11072	0.03898
2608.82495	0.03913
2607.53918	0.03917
2606.25341	0.03896
2604.96764	0.03868
2603.68187	0.03845
2602.39611	0.03825
2601.11034	0.03799
2599.82457	0.03771
2598.53880	0.03752
2597.25303	0.03744
2595.96726	0.03741
2594.68149	0.03737
2593.39572	0.03734
2592.10995	0.03727
2590.82419	0.03710
2589.53842	0.03684
2588.25265	0.03653
2586.96688	0.03627
2585.68111	0.03621
2584.39534	0.03643
2583.10957	0.03684
2581.82380	0.03720
2580.53804	0.03737
2579.25227	0.03737
2577.96650	0.03723
2576.68073	0.03694
2575.39496	0.03646
2574.10919	0.03595
2572.82342	0.03569
2571.53765	0.03578
2570.25188	0.03601
2568.96612	0.03609
2567.68035	0.03594
2566.39458	0.03561
2565.10881	0.03522
2563.82304	0.03497
2562.53727	0.03504
2561.25150	0.03541
2559.96573	0.03573
2558.67997	0.03570
2557.39420	0.03539
2556.10843	0.03509
2554.82266	0.03491
2553.53689	0.03476
2552.25112	0.03464
2550.96535	0.03471
2549.67958	0.03492
2548.39381	0.03502
2547.10805	0.03484
2545.82228	0.03453
2544.53651	0.03423
2543.25074	0.03393
2541.96497	0.03364
2540.67920	0.03350
2539.39343	0.03356
2538.10766	0.03363
2536.82190	0.03350
2535.53613	0.03323
2534.25036	0.03301
2532.96459	0.03297
2531.67882	0.03302
2530.39305	0.03301
2529.10728	0.03288
2527.82151	0.03268
2526.53574	0.03251
2525.24998	0.03247
2523.96421	0.03258
2522.67844	0.03282
2521.39267	0.03307
2520.10690	0.03321
2518.82113	0.03317
2517.53536	0.03298
2516.24959	0.03269
2514.96383	0.03247
2513.67806	0.03246
2512.39229	0.03264
2511.10652	0.03285
2509.82075	0.03301
2508.53498	0.03312
2507.24921	0.03316
2505.96344	0.03303
2504.67767	0.03278
2503.39191	0.03262
2502.10614	0.03270
2500.82037	0.03286
2499.53460	0.03287
2498.24883	0.03265
2496.96306	0.03225
2495.67729	0.03175
2494.39152	0.03127
2493.10576	0.03102
2491.81999	0.03112
2490.53422	0.03138
2489.24845	0.03149
2487.96268	0.03132
2486.67691	0.03109
2485.39114	0.03106
2484.10537	0.03124
2482.81960	0.03149
2481.53384	0.03174
2480.24807	0.03196
2478.96230	0.03214
2477.67653	0.03224
2476.39076	0.03230
2475.10499	0.03235
2473.81922	0.03231
2472.53345	0.03206
2471.24769	0.03168
2469.96192	0.03139
2468.67615	0.03135
2467.39038	0.03152
2466.10461	0.03173
2464.81884	0.03184
2463.53307	0.03182
2462.24730	0.03177
2460.96153	0.03179
2459.67577	0.03189
2458.39000	0.03194
2457.10423	0.03177
2455.81846	0.03140
2454.53269	0.03107
2453.24692	0.03105
2451.96115	0.03132
2450.67538	0.03161
2449.38962	0.03167
2448.10385	0.03153
2446.81808	0.03139
2445.53231	0.03141
2444.24654	0.03153
2442.96077	0.03165
2441.67500	0.03167
2440.38923	0.03158
2439.10346	0.03137
2437.81770	0.03106
2436.53193	0.03069
2435.24616	0.03038
2433.96039	0.03020
2432.67462	0.03013
2431.38885	0.03017
2430.10308	0.03028
2428.81731	0.03046
2427.53155	0.03062
2426.24578	0.03068
2424.96001	0.03063
2423.67424	0.03048
2422.38847	0.03029
2421.10270	0.03020
2419.81693	0.03030
2418.53116	0.03056
2417.24539	0.03078
2415.95963	0.03088
2414.67386	0.03093
2413.38809	0.03100
2412.10232	0.03097
2410.81655	0.03069
2409.53078	0.03014
2408.24501	0.02953
2406.95924	0.02905
2405.67347	0.02882
2404.38771	0.02885
2403.10194	0.02911
2401.81617	0.02956
2400.53040	0.03004
2399.24463	0.03017
2397.95886	0.03009
2396.67309	0.02984
2395.38732	0.02953
2394.10156	0.02925
2392.81579	0.02906
2391.53002	0.02901
2390.24425	0.02918
2388.95848	0.02959
2387.67271	0.03017
2386.38694	0.03085
2385.10117	0.03160
2383.81540	0.03245
2382.52964	0.03341
2381.24387	0.03445
2379.95810	0.03554
2378.67233	0.03661
2377.38656	0.03755
2376.10079	0.03822
2374.81502	0.03843
2373.52925	0.03804
2372.24349	0.03711
2370.95772	0.03581
2369.67195	0.03433
2368.38618	0.03280
2367.10041	0.03145
2365.81464	0.03059
2364.52887	0.03033
2363.24310	0.03025
2361.95733	0.02964
2360.67157	0.02817
2359.38580	0.02624
2358.10003	0.02454
2356.81426	0.02332
2355.52849	0.02240
2354.24272	0.02175
2352.95695	0.02189
2351.67118	0.02346
2350.38542	0.02659
2349.09965	0.03065
2347.81388	0.03449
2346.52811	0.03693
2345.24234	0.03726
2343.95657	0.03577
2342.67080	0.03355
2341.38503	0.03161
2340.09926	0.03029
2338.81350	0.02949
2337.52773	0.02899
2336.24196	0.02866
2334.95619	0.02846
2333.67042	0.02834
2332.38465	0.02822
2331.09888	0.02806
2329.81311	0.02800
2328.52735	0.02825
2327.24158	0.02890
2325.95581	0.02972
2324.67004	0.03030
2323.38427	0.03034
2322.09850	0.02985
2320.81273	0.02911
2319.52696	0.02848
2318.24119	0.02819
2316.95543	0.02827
2315.66966	0.02857
2314.38389	0.02887
2313.09812	0.02904
2311.81235	0.02913
2310.52658	0.02929
2309.24081	0.02954
2307.95504	0.02972
2306.66928	0.02969
2305.38351	0.02944
2304.09774	0.02912
2302.81197	0.02889
2301.52620	0.02879
2300.24043	0.02878
2298.95466	0.02882
2297.66889	0.02893
2296.38312	0.02914
2295.09736	0.02946
2293.81159	0.02980
2292.52582	0.02998
2291.24005	0.02986
2289.95428	0.02949
2288.66851	0.02912
2287.38274	0.02893
2286.09697	0.02893
2284.81121	0.02891
2283.52544	0.02864
2282.23967	0.02810
2280.95390	0.02749
2279.66813	0.02708
2278.38236	0.02697
2277.09659	0.02701
2275.81082	0.02693
2274.52505	0.02661
2273.23929	0.02618
2271.95352	0.02584
2270.66775	0.02558
2269.38198	0.02519
2268.09621	0.02457
2266.81044	0.02393
2265.52467	0.02363
2264.23890	0.02382
2262.95314	0.02434
2261.66737	0.02492
2260.38160	0.02550
2259.09583	0.02613
2257.81006	0.02677
2256.52429	0.02705
2255.23852	0.02660
2253.95275	0.02541
2252.66698	0.02401
2251.38122	0.02307
2250.09545	0.02280
2248.80968	0.02283
2247.52391	0.02311
2246.23814	0.02354
2244.95237	0.02402
2243.66660	0.02411
2242.38083	0.02350
2241.09507	0.02249
2239.80930	0.02175
2238.52353	0.02163
2237.23776	0.02191
2235.95199	0.02208
2234.66622	0.02184
2233.38045	0.02130
2232.09468	0.02074
2230.80891	0.02042
2229.52315	0.02046
2228.23738	0.02080
2226.95161	0.02131
2225.66584	0.02184
2224.38007	0.02237
2223.09430	0.02291
2221.80853	0.02339
2220.52276	0.02362
2219.23700	0.02342
2217.95123	0.02289
2216.66546	0.02234
2215.37969	0.02189
2214.09392	0.02140
2212.80815	0.02072
2211.52238	0.02000
2210.23661	0.01946
2208.95084	0.01913
2207.66508	0.01887
2206.37931	0.01873
2205.09354	0.01877
2203.80777	0.01881
2202.52200	0.01865
2201.23623	0.01842
2199.95046	0.01832
2198.66469	0.01812
2197.37893	0.01749
2196.09316	0.01665
2194.80739	0.01627
2193.52162	0.01651
2192.23585	0.01689
2190.95008	0.01710
2189.66431	0.01747
2188.37854	0.01824
2187.09277	0.01888
2185.80701	0.01866
2184.52124	0.01766
2183.23547	0.01669
2181.94970	0.01629
2180.66393	0.01621
2179.37816	0.01590
2178.09239	0.01531
2176.80662	0.01496
2175.52085	0.01551
2174.23509	0.01703
2172.94932	0.01869
2171.66355	0.01935
2170.37778	0.01858
2169.09201	0.01707
2167.80624	0.01577
2166.52047	0.01485
2165.23470	0.01377
2163.94894	0.01234
2162.66317	0.01091
2161.37740	0.00964
2160.09163	0.00824
2158.80586	0.00687
2157.52009	0.00636
2156.23432	0.00721
2154.94855	0.00887
2153.66278	0.01053
2152.37702	0.01176
2151.09125	0.01249
2149.80548	0.01268
2148.51971	0.01239
2147.23394	0.01190
2145.94817	0.01161
2144.66240	0.01175
2143.37663	0.01229
2142.09087	0.01294
2140.80510	0.01328
2139.51933	0.01318
2138.23356	0.01287
2136.94779	0.01272
2135.66202	0.01290
2134.37625	0.01349
2133.09048	0.01449
2131.80471	0.01567
2130.51895	0.01657
2129.23318	0.01690
2127.94741	0.01681
2126.66164	0.01659
2125.37587	0.01638
2124.09010	0.01614
2122.80433	0.01593
2121.51856	0.01590
2120.23280	0.01615
2118.94703	0.01664
2117.66126	0.01728
2116.37549	0.01788
2115.08972	0.01826
2113.80395	0.01840
2112.51818	0.01848
2111.23241	0.01861
2109.94664	0.01859
2108.66088	0.01816
2107.37511	0.01742
2106.08934	0.01678
2104.80357	0.01650
2103.51780	0.01662
2102.23203	0.01711
2100.94626	0.01800
2099.66049	0.01959
2098.37473	0.02041
2097.08896	0.02024
2095.80319	0.01937
2094.51742	0.01820
2093.23165	0.01721
2091.94588	0.01671
2090.66011	0.01673
2089.37434	0.01704
2088.08857	0.01726
2086.80281	0.01722
2085.51704	0.01703
2084.23127	0.01696
2082.94550	0.01720
2081.65973	0.01769
2080.37396	0.01811
2079.08819	0.01808
2077.80242	0.01752
2076.51666	0.01677
2075.23089	0.01630
2073.94512	0.01633
2072.65935	0.01664
2071.37358	0.01679
2070.08781	0.01656
2068.80204	0.01602
2067.51627	0.01547
2066.23050	0.01506
2064.94474	0.01464
2063.65897	0.01406
2062.37320	0.01346
2061.08743	0.01323
2059.80166	0.01353
2058.51589	0.01419
2057.23012	0.01486
2055.94435	0.01538
2054.65859	0.01577
2053.37282	0.01602
2052.08705	0.01590
2050.80128	0.01515
2049.51551	0.01382
2048.22974	0.01235
2046.94397	0.01118
2045.65820	0.01035
2044.37243	0.00965
2043.08667	0.00899
2041.80090	0.00847
2040.51513	0.00812
2039.22936	0.00802
2037.94359	0.00826
2036.65782	0.00884
2035.37205	0.00946
2034.08628	0.00978
2032.80052	0.00972
2031.51475	0.00939
2030.22898	0.00895
2028.94321	0.00853
2027.65744	0.00837
2026.37167	0.00855
2025.08590	0.00888
2023.80013	0.00904
2022.51436	0.00904
2021.22860	0.00931
2019.94283	0.01010
2018.65706	0.01107
2017.37129	0.01170
2016.08552	0.01187
2014.79975	0.01201
2013.51398	0.01237
2012.22821	0.01272
2010.94245	0.01257
2009.65668	0.01179
2008.37091	0.01070
2007.08514	0.00980
2005.79937	0.00936
2004.51360	0.00938
2003.22783	0.00962
2001.94206	0.00987
2000.65629	0.01001
1999.37053	0.01007
1998.08476	0.01021
1996.79899	0.01053
1995.51322	0.01098
1994.22745	0.01137
1992.94168	0.01176
1991.65591	0.01235
1990.37014	0.01309
1989.08438	0.01358
1987.79861	0.01350
1986.51284	0.01304
1985.22707	0.01271
1983.94130	0.01273
1982.65553	0.01293
1981.36976	0.01302
1980.08399	0.01284
1978.79822	0.01246
1977.51246	0.01200
1976.22669	0.01155
1974.94092	0.01121
1973.65515	0.01117
1972.36938	0.01155
1971.08361	0.01225
1969.79784	0.01297
1968.51207	0.01346
1967.22631	0.01372
1965.94054	0.01384
1964.65477	0.01387
1963.36900	0.01379
1962.08323	0.01357
1960.79746	0.01330
1959.51169	0.01316
1958.22592	0.01331
1956.94015	0.01374
1955.65439	0.01428
1954.36862	0.01470
1953.08285	0.01491
1951.79708	0.01497
1950.51131	0.01499
1949.22554	0.01511
1947.93977	0.01535
1946.65400	0.01553
1945.36823	0.01539
1944.08247	0.01484
1942.79670	0.01413
1941.51093	0.01369
1940.22516	0.01378
1938.93939	0.01435
1937.65362	0.01514
1936.36785	0.01594
1935.08208	0.01661
1933.79632	0.01710
1932.51055	0.01740
1931.22478	0.01754
1929.93901	0.01750
1928.65324	0.01719
1927.36747	0.01662
1926.08170	0.01607
1924.79593	0.01588
1923.51016	0.01622
1922.22440	0.01696
1920.93863	0.01781
1919.65286	0.01853
1918.36709	0.01895
1917.08132	0.01894
1915.79555	0.01852
1914.50978	0.01792
1913.22401	0.01739
1911.93825	0.01707
1910.65248	0.01688
1909.36671	0.01673
1908.08094	0.01668
1906.79517	0.01692
1905.50940	0.01745
1904.22363	0.01803
1902.93786	0.01833
1901.65209	0.01830
1900.36633	0.01812
1899.08056	0.01802
1897.79479	0.01805
1896.50902	0.01805
1895.22325	0.01787
1893.93748	0.01745
1892.65171	0.01697
1891.36594	0.01666
1890.08018	0.01659
1888.79441	0.01662
1887.50864	0.01664
1886.22287	0.01670
1884.93710	0.01689
1883.65133	0.01718
1882.36556	0.01742
1881.07979	0.01748
1879.79402	0.01741
1878.50826	0.01732
1877.22249	0.01727
1875.93672	0.01726
1874.65095	0.01730
1873.36518	0.01746
1872.07941	0.01778
1870.79364	0.01816
1869.50787	0.01838
1868.22211	0.01826
1866.93634	0.01786
1865.65057	0.01742
1864.36480	0.01714
1863.07903	0.01705
1861.79326	0.01712
1860.50749	0.01730
1859.22172	0.01756
1857.93595	0.01779
1856.65019	0.01791
1855.36442	0.01790
1854.07865	0.01783
1852.79288	0.01776
1851.50711	0.01772
1850.22134	0.01770
1848.93557	0.01768
1847.64980	0.01770
1846.36404	0.01779
1845.07827	0.01788
1843.79250	0.01782
1842.50673	0.01764
1841.22096	0.01753
1839.93519	0.01766
1838.64942	0.01791
1837.36365	0.01809
1836.07788	0.01811
1834.79212	0.01799
1833.50635	0.01783
1832.22058	0.01774
1830.93481	0.01778
1829.64904	0.01786
1828.36327	0.01788
1827.07750	0.01786
1825.79173	0.01782
1824.50597	0.01775
1823.22020	0.01769
1821.93443	0.01765
1820.64866	0.01762
1819.36289	0.01755
1818.07712	0.01745
1816.79135	0.01738
1815.50558	0.01740
1814.21981	0.01753
1812.93405	0.01769
1811.64828	0.01781
1810.36251	0.01781
1809.07674	0.01771
1807.79097	0.01759
1806.50520	0.01754
1805.21943	0.01766
1803.93366	0.01794
1802.64790	0.01825
1801.36213	0.01845
1800.07636	0.01850
1798.79059	0.01851
1797.50482	0.01860
1796.21905	0.01878
1794.93328	0.01900
1793.64751	0.01913
1792.36174	0.01903
1791.07598	0.01869
1789.79021	0.01835
1788.50444	0.01824
1787.21867	0.01842
1785.93290	0.01872
1784.64713	0.01897
1783.36136	0.01910
1782.07559	0.01914
1780.78983	0.01910
1779.50406	0.01901
1778.21829	0.01892
1776.93252	0.01893
1775.64675	0.01907
1774.36098	0.01931
1773.07521	0.01949
1771.78944	0.01952
1770.50367	0.01946
1769.21791	0.01943
1767.93214	0.01936
1766.64637	0.01917
1765.36060	0.01899
1764.07483	0.01899
1762.78906	0.01917
1761.50329	0.01933
1760.21752	0.01942
1758.93176	0.01951
1757.64599	0.01964
1756.36022	0.01973
1755.07445	0.01980
1753.78868	0.01994
1752.50291	0.02016
1751.21714	0.02032
1749.93137	0.02033
1748.64560	0.02029
1747.35984	0.02031
1746.07407	0.02039
1744.78830	0.02046
1743.50253	0.02047
1742.21676	0.02043
1740.93099	0.02040
1739.64522	0.02039
1738.35945	0.02044
1737.07369	0.02072
1735.78792	0.02121
1734.50215	0.02151
1733.21638	0.02130
1731.93061	0.02080
1730.64484	0.02051
1729.35907	0.02054
1728.07330	0.02071
1726.78753	0.02090
1725.50177	0.02109
1724.21600	0.02130
1722.93023	0.02151
1721.64446	0.02179
1720.35869	0.02225
1719.07292	0.02281
1717.78715	0.02320
1716.50138	0.02327
1715.21561	0.02319
1713.92985	0.02322
1712.64408	0.02341
1711.35831	0.02372
1710.07254	0.02409
1708.78677	0.02448
1707.50100	0.02491
1706.21523	0.02538
1704.92946	0.02591
1703.64370	0.02664
1702.35793	0.02763
1701.07216	0.02856
1699.78639	0.02907
1698.50062	0.02930
1697.21485	0.02967
1695.92908	0.03013
1694.64331	0.03037
1693.35754	0.03054
1692.07178	0.03102
1690.78601	0.03182
1689.50024	0.03272
1688.21447	0.03365
1686.92870	0.03471
1685.64293	0.03570
1684.35716	0.03623
1683.07139	0.03631
1681.78563	0.03643
1680.49986	0.03698
1679.21409	0.03783
1677.92832	0.03876
1676.64255	0.03960
1675.35678	0.04021
1674.07101	0.04064
1672.78524	0.04111
1671.49947	0.04179
1670.21371	0.04251
1668.92794	0.04306
1667.64217	0.04348
1666.35640	0.04401
1665.07063	0.04477
1663.78486	0.04560
1662.49909	0.04627
1661.21332	0.04675
1659.92756	0.04720
1658.64179	0.04776
1657.35602	0.04849
1656.07025	0.04942
1654.78448	0.05042
1653.49871	0.05098
1652.21294	0.05078
1650.92717	0.05024
1649.64140	0.05011
1648.35564	0.05050
1647.06987	0.05091
1645.78410	0.05095
1644.49833	0.05073
1643.21256	0.05059
1641.92679	0.05069
1640.64102	0.05092
1639.35525	0.05119
1638.06949	0.05145
1636.78372	0.05160
1635.49795	0.05142
1634.21218	0.05096
1632.92641	0.05052
1631.64064	0.05032
1630.35487	0.05027
1629.06910	0.05012
1627.78333	0.04985
1626.49757	0.04956
1625.21180	0.04936
1623.92603	0.04919
1622.64026	0.04892
1621.35449	0.04857
1620.06872	0.04836
1618.78295	0.04836
1617.49718	0.04836
1616.21142	0.04804
1614.92565	0.04747
1613.63988	0.04700
1612.35411	0.04682
1611.06834	0.04679
1609.78257	0.04677
1608.49680	0.04672
1607.21103	0.04666
1605.92526	0.04659
1604.63950	0.04651
1603.35373	0.04643
1602.06796	0.04634
1600.78219	0.04627
1599.49642	0.04621
1598.21065	0.04619
1596.92488	0.04623
1595.63911	0.04634
1594.35335	0.04648
1593.06758	0.04664
1591.78181	0.04679
1590.49604	0.04695
1589.21027	0.04712
1587.92450	0.04734
1586.63873	0.04760
1585.35296	0.04786
1584.06719	0.04811
1582.78143	0.04835
1581.49566	0.04862
1580.20989	0.04896
1578.92412	0.04942
1577.63835	0.04992
1576.35258	0.05020
1575.06681	0.05013
1573.78104	0.05000
1572.49528	0.05015
1571.20951	0.05057
1569.92374	0.05096
1568.63797	0.05116
1567.35220	0.05129
1566.06643	0.05152
1564.78066	0.05184
1563.49489	0.05225
1562.20912	0.05283
1560.92336	0.05355
1559.63759	0.05399
1558.35182	0.05384
1557.06605	0.05336
1555.78028	0.05307
1554.49451	0.05308
1553.20874	0.05319
1551.92297	0.05327
1550.63721	0.05338
1549.35144	0.05349
1548.06567	0.05360
1546.77990	0.05374
1545.49413	0.05391
1544.20836	0.05408
1542.92259	0.05420
1541.63682	0.05423
1540.35105	0.05402
1539.06529	0.05345
1537.77952	0.05276
1536.49375	0.05237
1535.20798	0.05238
1533.92221	0.05252
1532.63644	0.05251
1531.35067	0.05243
1530.06490	0.05250
1528.77914	0.05278
1527.49337	0.05314
1526.20760	0.05352
1524.92183	0.05396
1523.63606	0.05454
1522.35029	0.05517
1521.06452	0.05564
1519.77875	0.05595
1518.49298	0.05634
1517.20722	0.05695
1515.92145	0.05765
1514.63568	0.05836
1513.34991	0.05911
1512.06414	0.05994
1510.77837	0.06089
1509.49260	0.06203
1508.20683	0.06328
1506.92107	0.06429
1505.63530	0.06481
1504.34953	0.06507
1503.06376	0.06550
1501.77799	0.06629
1500.49222	0.06725
1499.20645	0.06819
1497.92068	0.06897
1496.63491	0.06949
1495.34915	0.06976
1494.06338	0.07000
1492.77761	0.07044
1491.49184	0.07106
1490.20607	0.07168
1488.92030	0.07219
1487.63453	0.07266
1486.34876	0.07317
1485.06299	0.07381
1483.77723	0.07457
1482.49146	0.07543
1481.20569	0.07635
1479.91992	0.07731
1478.63415	0.07830
1477.34838	0.07928
1476.06261	0.08019
1474.77684	0.08103
1473.49108	0.08175
1472.20531	0.08223
1470.91954	0.08251
1469.63377	0.08276
1468.34800	0.08311
1467.06223	0.08350
1465.77646	0.08377
1464.49069	0.08387
1463.20492	0.08394
1461.91916	0.08417
1460.63339	0.08469
1459.34762	0.08542
1458.06185	0.08611
1456.77608	0.08646
1455.49031	0.08647
1454.20454	0.08650
1452.91877	0.08681
1451.63301	0.08734
1450.34724	0.08790
1449.06147	0.08831
1447.77570	0.08853
1446.48993	0.08856
1445.20416	0.08851
1443.91839	0.08846
1442.63262	0.08840
1441.34685	0.08832
1440.06109	0.08829
1438.77532	0.08839
1437.48955	0.08852
1436.20378	0.08856
1434.91801	0.08857
1433.63224	0.08875
1432.34647	0.08919
1431.06070	0.08976
1429.77494	0.09038
1428.48917	0.09109
1427.20340	0.09199
1425.91763	0.09307
1424.63186	0.09424
1423.34609	0.09543
1422.06032	0.09665
1420.77455	0.09787
1419.48878	0.09893
1418.20302	0.09974
1416.91725	0.10043
1415.63148	0.10116
1414.34571	0.10185
1413.05994	0.10235
1411.77417	0.10255
1410.48840	0.10253
1409.20263	0.10237
1407.91687	0.10207
1406.63110	0.10157
1405.34533	0.10081
1404.05956	0.09982
1402.77379	0.09873
1401.48802	0.09765
1400.20225	0.09652
1398.91648	0.09522
1397.63071	0.09373
1396.34495	0.09214
1395.05918	0.09054
1393.77341	0.08890
1392.48764	0.08725
1391.20187	0.08564
1389.91610	0.08408
1388.63033	0.08251
1387.34456	0.08083
1386.05880	0.07909
1384.77303	0.07739
1383.48726	0.07581
1382.20149	0.07431
1380.91572	0.07279
1379.62995	0.07120
1378.34418	0.06954
1377.05841	0.06783
1375.77264	0.06611
1374.48688	0.06437
1373.20111	0.06262
1371.91534	0.06090
1370.62957	0.05926
1369.34380	0.05772
1368.05803	0.05625
1366.77226	0.05484
1365.48649	0.05350
1364.20073	0.05224
1362.91496	0.05102
1361.62919	0.04980
1360.34342	0.04860
1359.05765	0.04746
1357.77188	0.04642
1356.48611	0.04550
1355.20034	0.04467
1353.91457	0.04392
1352.62881	0.04322
1351.34304	0.04256
1350.05727	0.04192
1348.77150	0.04127
1347.48573	0.04062
1346.19996	0.03998
1344.91419	0.03939
1343.62842	0.03886
1342.34266	0.03839
1341.05689	0.03795
1339.77112	0.03751
1338.48535	0.03708
1337.19958	0.03665
1335.91381	0.03620
1334.62804	0.03572
1333.34227	0.03524
1332.05650	0.03479
1330.77074	0.03441
1329.48497	0.03410
1328.19920	0.03384
1326.91343	0.03359
1325.62766	0.03333
1324.34189	0.03305
1323.05612	0.03276
1321.77035	0.03246
1320.48459	0.03217
1319.19882	0.03190
1317.91305	0.03168
1316.62728	0.03148
1315.34151	0.03127
1314.05574	0.03100
1312.76997	0.03067
1311.48420	0.03033
1310.19843	0.03004
1308.91267	0.02983
1307.62690	0.02968
1306.34113	0.02953
1305.05536	0.02933
1303.76959	0.02906
1302.48382	0.02870
1301.19805	0.02834
1299.91228	0.02806
1298.62652	0.02787
1297.34075	0.02773
1296.05498	0.02760
1294.76921	0.02747
1293.48344	0.02733
1292.19767	0.02720
1290.91190	0.02707
1289.62613	0.02695
1288.34036	0.02684
1287.05460	0.02677
1285.76883	0.02673
1284.48306	0.02668
1283.19729	0.02664
1281.91152	0.02660
1280.62575	0.02657
1279.33998	0.02654
1278.05421	0.02649
1276.76845	0.02647
1275.48268	0.02654
1274.19691	0.02675
1272.91114	0.02717
1271.62537	0.02788
1270.33960	0.02902
1269.05383	0.03077
1267.76806	0.03323
1266.48229	0.03638
1265.19653	0.03991
1263.91076	0.04332
1262.62499	0.04602
1261.33922	0.04757
1260.05345	0.04775
1258.76768	0.04662
1257.48191	0.04445
1256.19614	0.04164
1254.91037	0.03866
1253.62461	0.03585
1252.33884	0.03343
1251.05307	0.03146
1249.76730	0.02993
1248.48153	0.02878
1247.19576	0.02792
1245.90999	0.02726
1244.62422	0.02674
1243.33846	0.02630
1242.05269	0.02591
1240.76692	0.02557
1239.48115	0.02526
1238.19538	0.02499
1236.90961	0.02474
1235.62384	0.02451
1234.33807	0.02428
1233.05230	0.02405
1231.76654	0.02383
1230.48077	0.02361
1229.19500	0.02341
1227.90923	0.02322
1226.62346	0.02303
1225.33769	0.02284
1224.05192	0.02266
1222.76615	0.02248
1221.48039	0.02229
1220.19462	0.02211
1218.90885	0.02195
1217.62308	0.02184
1216.33731	0.02179
1215.05154	0.02172
1213.76577	0.02162
1212.48000	0.02145
1211.19423	0.02128
1209.90847	0.02113
1208.62270	0.02104
1207.33693	0.02101
1206.05116	0.02102
1204.76539	0.02105
1203.47962	0.02109
1202.19385	0.02112
1200.90808	0.02110
1199.62232	0.02093
1198.33655	0.02085
1197.05078	0.02080
1195.76501	0.02080
1194.47924	0.02083
1193.19347	0.02084
1191.90770	0.02079
1190.62193	0.02068
1189.33616	0.02055
1188.05040	0.02044
1186.76463	0.02037
1185.47886	0.02037
1184.19309	0.02041
1182.90732	0.02047
1181.62155	0.02049
1180.33578	0.02049
1179.05001	0.02049
1177.76425	0.02054
1176.47848	0.02065
1175.19271	0.02079
1173.90694	0.02092
1172.62117	0.02103
1171.33540	0.02113
1170.04963	0.02124
1168.76386	0.02136
1167.47809	0.02152
1166.19233	0.02172
1164.90656	0.02196
1163.62079	0.02223
1162.33502	0.02252
1161.04925	0.02282
1159.76348	0.02310
1158.47771	0.02334
1157.19194	0.02354
1155.90618	0.02378
1154.62041	0.02409
1153.33464	0.02447
1152.04887	0.02484
1150.76310	0.02518
1149.47733	0.02554
1148.19156	0.02599
1146.90579	0.02656
1145.62002	0.02722
1144.33426	0.02793
1143.04849	0.02866
1141.76272	0.02939
1140.47695	0.03017
1139.19118	0.03103
1137.90541	0.03202
1136.61964	0.03313
1135.33387	0.03437
1134.04811	0.03576
1132.76234	0.03726
1131.47657	0.03883
1130.19080	0.04050
1128.90503	0.04235
1127.61926	0.04447
1126.33349	0.04686
1125.04772	0.04945
1123.76195	0.05216
1122.47619	0.05499
1121.19042	0.05798
1119.90465	0.06116
1118.61888	0.06447
1117.33311	0.06777
1116.04734	0.07095
1114.76157	0.07403
1113.47580	0.07713
1112.19004	0.08032
1110.90427	0.08362
1109.61850	0.08696
1108.33273	0.09029
1107.04696	0.09354
1105.76119	0.09669
1104.47542	0.09977
1103.18965	0.10285
1101.90388	0.10590
1100.61812	0.10885
1099.33235	0.11161
1098.04658	0.11424
1096.76081	0.11677
1095.47504	0.11918
1094.18927	0.12137
1092.90350	0.12331
1091.61773	0.12501
1090.33197	0.12651
1089.04620	0.12789
1087.76043	0.12922
1086.47466	0.13053
1085.18889	0.13185
1083.90312	0.13317
1082.61735	0.13457
1081.33158	0.13613
1080.04581	0.13791
1078.76005	0.13989
1077.47428	0.14206
1076.18851	0.14439
1074.90274	0.14684
1073.61697	0.14936
1072.33120	0.15190
1071.04543	0.15447
1069.75966	0.15713
1068.47390	0.15991
1067.18813	0.16282
1065.90236	0.16583
1064.61659	0.16890
1063.33082	0.17200
1062.04505	0.17510
1060.75928	0.17814
1059.47351	0.18113
1058.18774	0.18410
1056.90198	0.18710
1055.61621	0.19013
1054.33044	0.19315
1053.04467	0.19615
1051.75890	0.19919
1050.47313	0.20230
1049.18736	0.20550
1047.90159	0.20877
1046.61583	0.21214
1045.33006	0.21563
1044.04429	0.21927
1042.75852	0.22304
1041.47275	0.22689
1040.18698	0.23076
1038.90121	0.23463
1037.61544	0.23850
1036.32967	0.24239
1035.04391	0.24626
1033.75814	0.24999
1032.47237	0.25352
1031.18660	0.25685
1029.90083	0.25995
1028.61506	0.26278
1027.32929	0.26532
1026.04352	0.26756
1024.75775	0.26949
1023.47199	0.27107
1022.18622	0.27230
1020.90045	0.27323
1019.61468	0.27390
1018.32891	0.27426
1017.04314	0.27425
1015.75737	0.27383
1014.47160	0.27300
1013.18584	0.27170
1011.90007	0.26982
1010.61430	0.26731
1009.32853	0.26423
1008.04276	0.26068
1006.75699	0.25671
1005.47122	0.25229
1004.18545	0.24742
1002.89968	0.24212
1001.61392	0.23654
1000.32815	0.23077
999.04238	0.22483
997.75661	0.21867
996.47084	0.21230
995.18507	0.20578
993.89930	0.19919
992.61353	0.19263
991.32777	0.18611
990.04200	0.17967
988.75623	0.17332
987.47046	0.16716
986.18469	0.16125
984.89892	0.15563
983.61315	0.15028
982.32738	0.14516
981.04161	0.14021
979.75585	0.13547
978.47008	0.13101
977.18431	0.12688
975.89854	0.12308
974.61277	0.11958
973.32700	0.11640
972.04123	0.11366
970.75546	0.11154
969.46970	0.11013
968.18393	0.10935
966.89816	0.10908
965.61239	0.10920
964.32662	0.10959
963.04085	0.11005
961.75508	0.11028
960.46931	0.11005
959.18354	0.10924
957.89778	0.10786
956.61201	0.10597
955.32624	0.10371
954.04047	0.10124
952.75470	0.09873
951.46893	0.09626
950.18316	0.09387
948.89739	0.09155
947.61163	0.08927
946.32586	0.08698
945.04009	0.08464
943.75432	0.08234
942.46855	0.08020
941.18278	0.07833
939.89701	0.07669
938.61124	0.07516
937.32547	0.07363
936.03971	0.07210
934.75394	0.07062
933.46817	0.06925
932.18240	0.06804
930.89663	0.06699
929.61086	0.06612
928.32509	0.06535
927.03932	0.06462
925.75356	0.06383
924.46779	0.06297
923.18202	0.06209
921.89625	0.06130
920.61048	0.06066
919.32471	0.06017
918.03894	0.05973
916.75317	0.05924
915.46740	0.05871
914.18164	0.05818
912.89587	0.05766
911.61010	0.05712
910.32433	0.05651
909.03856	0.05583
907.75279	0.05513
906.46702	0.05450
905.18125	0.05395
903.89549	0.05346
902.60972	0.05297
901.32395	0.05249
900.03818	0.05207
898.75241	0.05173
897.46664	0.05144
896.18087	0.05114
894.89510	0.05082
893.60933	0.05052
892.32357	0.05027
891.03780	0.05012
889.75203	0.05017
888.46626	0.05053
887.18049	0.05123
885.89472	0.05231
884.60895	0.05382
883.32318	0.05580
882.03742	0.05816
880.75165	0.06058
879.46588	0.06268
878.18011	0.06428
876.89434	0.06555
875.60857	0.06684
874.32280	0.06830
873.03703	0.06970
871.75126	0.07070
870.46550	0.07101
869.17973	0.07063
867.89396	0.06964
866.60819	0.06816
865.32242	0.06630
864.03665	0.06424
862.75088	0.06215
861.46511	0.06021
860.17935	0.05848
858.89358	0.05698
857.60781	0.05564
856.32204	0.05440
855.03627	0.05324
853.75050	0.05221
852.46473	0.05135
851.17896	0.05071
849.89319	0.05025
848.60743	0.04988
847.32166	0.04950
846.03589	0.04912
844.75012	0.04881
843.46435	0.04856
842.17858	0.04832
840.89281	0.04803
839.60704	0.04774
838.32128	0.04755
837.03551	0.04748
835.74974	0.04750
834.46397	0.04758
833.17820	0.04776
831.89243	0.04808
830.60666	0.04852
829.32089	0.04911
828.03512	0.04989
826.74936	0.05097
825.46359	0.05236
824.17782	0.05397
822.89205	0.05561
821.60628	0.05713
820.32051	0.05851
819.03474	0.05976
817.74897	0.06091
816.46321	0.06199
815.17744	0.06300
813.89167	0.06396
812.60590	0.06495
811.32013	0.06607
810.03436	0.06740
808.74859	0.06890
807.46282	0.07049
806.17705	0.07206
804.89129	0.07356
803.60552	0.07488
802.31975	0.07593
801.03398	0.07665
799.74821	0.07706
798.46244	0.07715
797.17667	0.07692
795.89090	0.07631
794.60513	0.07528
793.31937	0.07385
792.03360	0.07211
790.74783	0.07020
789.46206	0.06821
788.17629	0.06619
786.89052	0.06417
785.60475	0.06214
784.31898	0.06021
783.03322	0.05847
781.74745	0.05697
780.46168	0.05564
779.17591	0.05444
777.89014	0.05337
776.60437	0.05247
775.31860	0.05173
774.03283	0.05107
772.74706	0.05042
771.46130	0.04981
770.17553	0.04932
768.88976	0.04897
767.60399	0.04872
766.31822	0.04850
765.03245	0.04828
763.74668	0.04804
762.46091	0.04781
761.17515	0.04764
759.88938	0.04758
758.60361	0.04760
757.31784	0.04761
756.03207	0.04754
754.74630	0.04742
753.46053	0.04730
752.17476	0.04715
750.88899	0.04694
749.60323	0.04664
748.31746	0.04632
747.03169	0.04608
745.74592	0.04597
744.46015	0.04592
743.17438	0.04579
741.88861	0.04548
740.60284	0.04506
739.31708	0.04472
738.03131	0.04455
736.74554	0.04449
735.45977	0.04445
734.17400	0.04446
732.88823	0.04460
731.60246	0.04483
730.31669	0.04501
729.03092	0.04502
727.74516	0.04491
726.45939	0.04475
725.17362	0.04463
723.88785	0.04454
722.60208	0.04450
721.31631	0.04444
720.03054	0.04436
718.74477	0.04431
717.45901	0.04435
716.17324	0.04445
714.88747	0.04456
713.60170	0.04464
712.31593	0.04470
711.03016	0.04477
709.74439	0.04489
708.45862	0.04503
707.17285	0.04518
705.88709	0.04529
704.60132	0.04536
703.31555	0.04539
702.02978	0.04540
700.74401	0.04540
699.45824	0.04539
698.17247	0.04539
696.88670	0.04540
695.60094	0.04539
694.31517	0.04536
693.02940	0.04529
691.74363	0.04518
690.45786	0.04506
689.17209	0.04494
687.88632	0.04481
686.60055	0.04468
685.31478	0.04455
684.02902	0.04440
682.74325	0.04421
681.45748	0.04400
680.17171	0.04380
678.88594	0.04364
677.60017	0.04354
676.31440	0.04349
675.02863	0.04351
673.74287	0.04361
672.45710	0.04372
671.17133	0.04374
669.88556	0.04353
668.59979	0.04311
667.31402	0.04273
666.02825	0.04259
664.74248	0.04262
663.45671	0.04266
662.17095	0.04260
660.88518	0.04246
659.59941	0.04224
658.31364	0.04197
657.02787	0.04167
655.74210	0.04136
654.45633	0.04106
653.17056	0.04077
651.88480	0.04051
650.59903	0.04028
649.31326	0.04010
648.02749	0.04001
646.74172	0.04000
645.45595	0.04006
644.17018	0.04017
642.88441	0.04029
641.59864	0.04039
640.31288	0.04043
639.02711	0.04041
637.74134	0.04036
636.45557	0.04036
635.16980	0.04047
633.88403	0.04074
632.59826	0.04129
631.31249	0.04231
630.02673	0.04382
628.74096	0.04493
627.45519	0.04468
626.16942	0.04578
624.88365	0.04764
623.59788	0.04938
622.31211	0.05094
621.02634	0.05241
619.74057	0.05392
618.45481	0.05579
617.16904	0.05824
615.88327	0.06120
614.59750	0.06453
613.31173	0.06837
612.02596	0.07295
610.74019	0.07821
609.45442	0.08363
608.16866	0.08868
606.88289	0.09336
605.59712	0.09783
604.31135	0.10176
603.02558	0.10444
601.73981	0.10538
600.45404	0.10465
599.16827	0.10271
597.88250	0.10015
596.59674	0.09749
595.31097	0.09499
594.02520	0.09272
592.73943	0.09071
591.45366	0.08900
590.16789	0.08769
588.88212	0.08687
587.59635	0.08662
586.31059	0.08697
585.02482	0.08789
583.73905	0.08928
582.45328	0.09102
581.16751	0.09309
579.88174	0.09549
578.59597	0.09817
577.31020	0.10095
576.02443	0.10362
574.73867	0.10604
573.45290	0.10825
572.16713	0.11042
570.88136	0.11275
569.59559	0.11547
568.30982	0.11878
567.02405	0.12273
565.73828	0.12707
564.45251	0.13120
563.16675	0.13444
561.88098	0.13631
560.59521	0.13656
559.30944	0.13511
558.02367	0.13205
556.73790	0.12769
555.45213	0.12256
554.16636	0.11717
552.88060	0.11190
551.59483	0.10692
550.30906	0.10227
549.02329	0.09799
547.73752	0.09408
546.45175	0.09051
545.16598	0.08720
543.88021	0.08411
542.59444	0.08131
541.30868	0.07883
540.02291	0.07662
538.73714	0.07454
537.45137	0.07245
536.16560	0.07037
534.87983	0.06845
533.59406	0.06681
532.30829	0.06543
531.02253	0.06419
529.73676	0.06297
528.45099	0.06173
527.16522	0.06044
525.87945	0.05916
524.59368	0.05798
523.30791	0.05693
522.02214	0.05601
520.73637	0.05517
519.45061	0.05438
518.16484	0.05361
516.87907	0.05285
515.59330	0.05210
514.30753	0.05136
513.02176	0.05066
511.73599	0.04994
510.45022	0.04919
509.16446	0.04843
507.87869	0.04772
506.59292	0.04714
505.30715	0.04670
504.02138	0.04634
502.73561	0.04600
501.44984	0.04559
500.16407	0.04511
498.87830	0.04461
497.59254	0.04412
496.30677	0.04361
495.02100	0.04310
493.73523	0.04267
492.44946	0.04240
491.16369	0.04229
489.87792	0.04224
488.59215	0.04209
487.30639	0.04177
486.02062	0.04132
484.73485	0.04087
483.44908	0.04057
482.16331	0.04051
480.87754	0.04067
479.59177	0.04097
478.30600	0.04130
477.02023	0.04159
475.73447	0.04183
474.44870	0.04204
473.16293	0.04227
471.87716	0.04250
470.59139	0.04266
469.30562	0.04268
468.01985	0.04255
466.73408	0.04229
465.44832	0.04191
464.16255	0.04143
462.87678	0.04086
461.59101	0.04033
460.30524	0.03991
459.01947	0.03955
457.73370	0.03913
456.44793	0.03860
455.16216	0.03807
453.87640	0.03763
452.59063	0.03729
451.30486	0.03697
450.01909	0.03662
448.73332	0.03629
447.44755	0.03604
446.16178	0.03588
444.87601	0.03578
443.59025	0.03566
442.30448	0.03549
441.01871	0.03526
439.73294	0.03500
438.44717	0.03478
437.16140	0.03461
435.87563	0.03445
434.58986	0.03429
433.30409	0.03412
432.01833	0.03399
430.73256	0.03392
429.44679	0.03387
428.16102	0.03379
426.87525	0.03365
425.58948	0.03346
424.30371	0.03325
423.01794	0.03308
421.73218	0.03296
420.44641	0.03288
419.16064	0.03275
417.87487	0.03256
416.58910	0.03237
415.30333	0.03230
414.01756	0.03238
412.73179	0.03257
411.44602	0.03280
410.16026	0.03299
408.87449	0.03311
407.58872	0.03320
406.30295	0.03329
405.01718	0.03341
403.73141	0.03358
402.44564	0.03378
401.15987	0.03399
399.87411	0.03419
