3997.45528	0.02277
3996.16951	0.02217
3994.88374	0.02193
3993.59798	0.02217
3992.31221	0.02275
3991.02644	0.02341
3989.74067	0.02393
3988.45490	0.02418
3987.16913	0.02432
3985.88336	0.02460
3984.59759	0.02505
3983.31183	0.02539
3982.02606	0.02537
3980.74029	0.02510
3979.45452	0.02488
3978.16875	0.02473
3976.88298	0.02446
3975.59721	0.02396
3974.31144	0.02341
3973.02567	0.02310
3971.73991	0.02316
3970.45414	0.02341
3969.16837	0.02353
3967.88260	0.02341
3966.59683	0.02331
3965.31106	0.02354
3964.02529	0.02403
3962.73952	0.02420
3961.45376	0.02363
3960.16799	0.02258
3958.88222	0.02180
3957.59645	0.02176
3956.31068	0.02224
3955.02491	0.02267
3953.73914	0.02281
3952.45337	0.02282
3951.16760	0.02288
3949.88184	0.02294
3948.59607	0.02299
3947.31030	0.02318
3946.02453	0.02354
3944.73876	0.02381
3943.45299	0.02381
3942.16722	0.02373
3940.88145	0.02394
3939.59569	0.02447
3938.30992	0.02500
3937.02415	0.02514
3935.73838	0.02469
3934.45261	0.02382
3933.16684	0.02303
3931.88107	0.02278
3930.59530	0.02303
3929.30953	0.02337
3928.02377	0.02352
3926.73800	0.02348
3925.45223	0.02337
3924.16646	0.02319
3922.88069	0.02280
3921.59492	0.02218
3920.30915	0.02154
3919.02338	0.02112
3917.73762	0.02100
3916.45185	0.02105
3915.16608	0.02110
3913.88031	0.02119
3912.59454	0.02154
3911.30877	0.02230
3910.02300	0.02329
3908.73723	0.02402
3907.45146	0.02398
3906.16570	0.02316
3904.87993	0.02218
3903.59416	0.02184
3902.30839	0.02242
3901.02262	0.02348
3899.73685	0.02445
3898.45108	0.02503
3897.16531	0.02519
3895.87955	0.02503
3894.59378	0.02467
3893.30801	0.02423
3892.02224	0.02390
3890.73647	0.02391
3889.45070	0.02407
3888.16493	0.02386
3886.87916	0.02319
3885.59339	0.02260
3884.30763	0.02245
3883.02186	0.02253
3881.73609	0.02266
3880.45032	0.02300
3879.16455	0.02360
3877.87878	0.02396
3876.59301	0.02359
3875.30724	0.02272
3874.02148	0.02197
3872.73571	0.02162
3871.44994	0.02155
3870.16417	0.02179
3868.87840	0.02230
3867.59263	0.02264
3866.30686	0.02246
3865.02109	0.02204
3863.73532	0.02179
3862.44956	0.02180
3861.16379	0.02203
3859.87802	0.02257
3858.59225	0.02331
3857.30648	0.02366
3856.02071	0.02308
3854.73494	0.02180
3853.44917	0.02077
3852.16341	0.02053
3850.87764	0.02077
3849.59187	0.02106
3848.30610	0.02125
3847.02033	0.02122
3845.73456	0.02096
3844.44879	0.02067
3843.16302	0.02061
3841.87725	0.02067
3840.59149	0.02050
3839.30572	0.02015
3838.01995	0.02021
3836.73418	0.02107
3835.44841	0.02227
3834.16264	0.02304
3832.87687	0.02313
3831.59110	0.02277
3830.30534	0.02214
3829.01957	0.02137
3827.73380	0.02077
3826.44803	0.02076
3825.16226	0.02123
3823.87649	0.02149
3822.59072	0.02125
3821.30495	0.02103
3820.01918	0.02130
3818.73342	0.02174
3817.44765	0.02192
3816.16188	0.02215
3814.87611	0.02274
3813.59034	0.02325
3812.30457	0.02312
3811.01880	0.02243
3809.73303	0.02146
3808.44726	0.02051
3807.16150	0.02011
3805.87573	0.02056
3804.58996	0.02136
3803.30419	0.02177
3802.01842	0.02181
3800.73265	0.02197
3799.44688	0.02230
3798.16111	0.02249
3796.87535	0.02264
3795.58958	0.02312
3794.30381	0.02378
3793.01804	0.02409
3791.73227	0.02377
3790.44650	0.02297
3789.16073	0.02205
3787.87496	0.02127
3786.58919	0.02067
3785.30343	0.02027
3784.01766	0.02017
3782.73189	0.02046
3781.44612	0.02103
3780.16035	0.02155
3778.87458	0.02174
3777.58881	0.02147
3776.30304	0.02096
3775.01728	0.02064
3773.73151	0.02074
3772.44574	0.02109
3771.15997	0.02131
3769.87420	0.02127
3768.58843	0.02106
3767.30266	0.02080
3766.01689	0.02071
3764.73112	0.02095
3763.44536	0.02130
3762.15959	0.02130
3760.87382	0.02078
3759.58805	0.02013
3758.30228	0.01979
3757.01651	0.01995
3755.73074	0.02034
3754.44497	0.02042
3753.15921	0.01995
3751.87344	0.01919
3750.58767	0.01872
3749.30190	0.01905
3748.01613	0.01999
3746.73036	0.02063
3745.44459	0.02063
3744.15882	0.02082
3742.87305	0.02181
3741.58729	0.02314
3740.30152	0.02413
3739.01575	0.02444
3737.72998	0.02397
3736.44421	0.02296
3735.15844	0.02180
3733.87267	0.02074
3732.58690	0.01997
3731.30114	0.01973
3730.01537	0.02000
3728.72960	0.02036
3727.44383	0.02057
3726.15806	0.02082
3724.87229	0.02128
3723.58652	0.02188
3722.30075	0.02243
3721.01498	0.02270
3719.72922	0.02256
3718.44345	0.02217
3717.15768	0.02198
3715.87191	0.02228
3714.58614	0.02284
3713.30037	0.02321
3712.01460	0.02313
3710.72883	0.02272
3709.44307	0.02218
3708.15730	0.02172
3706.87153	0.02144
3705.58576	0.02134
3704.29999	0.02132
3703.01422	0.02129
3701.72845	0.02113
3700.44268	0.02065
3699.15691	0.01975
3697.87115	0.01864
3696.58538	0.01787
3695.29961	0.01789
3694.01384	0.01859
3692.72807	0.01946
3691.44230	0.01987
3690.15653	0.01966
3688.87076	0.01933
3687.58500	0.01946
3686.29923	0.01998
3685.01346	0.02040
3683.72769	0.02044
3682.44192	0.02007
3681.15615	0.01941
3679.87038	0.01870
3678.58461	0.01819
3677.29884	0.01798
3676.01308	0.01819
3674.72731	0.01889
3673.44154	0.01972
3672.15577	0.02026
3670.87000	0.02066
3669.58423	0.02115
3668.29846	0.02151
3667.01269	0.02144
3665.72693	0.02116
3664.44116	0.02109
3663.15539	0.02129
3661.86962	0.02165
3660.58385	0.02205
3659.29808	0.02240
3658.01231	0.02261
3656.72654	0.02265
3655.44077	0.02256
3654.15501	0.02221
3652.86924	0.02151
3651.58347	0.02086
3650.29770	0.02089
3649.01193	0.02171
3647.72616	0.02275
3646.44039	0.02338
3645.15462	0.02348
3643.86886	0.02337
3642.58309	0.02333
3641.29732	0.02336
3640.01155	0.02331
3638.72578	0.02312
3637.44001	0.02286
3636.15424	0.02267
3634.86847	0.02261
3633.58270	0.02259
3632.29694	0.02232
3631.01117	0.02164
3629.72540	0.02096
3628.43963	0.02103
3627.15386	0.02196
3625.86809	0.02319
3624.58232	0.02425
3623.29655	0.02514
3622.01079	0.02591
3620.72502	0.02641
3619.43925	0.02656
3618.15348	0.02641
3616.86771	0.02615
3615.58194	0.02602
3614.29617	0.02602
3613.01040	0.02583
3611.72463	0.02508
3610.43887	0.02395
3609.15310	0.02322
3607.86733	0.02351
3606.58156	0.02461
3605.29579	0.02571
3604.01002	0.02632
3602.72425	0.02659
3601.43848	0.02691
3600.15272	0.02738
3598.86695	0.02769
3597.58118	0.02751
3596.29541	0.02695
3595.00964	0.02652
3593.72387	0.02659
3592.43810	0.02705
3591.15233	0.02742
3589.86656	0.02738
3588.58080	0.02706
3587.29503	0.02684
3586.00926	0.02695
3584.72349	0.02740
3583.43772	0.02814
3582.15195	0.02906
3580.86618	0.02988
3579.58041	0.03032
3578.29464	0.03032
3577.00888	0.03011
3575.72311	0.03000
3574.43734	0.03011
3573.15157	0.03047
3571.86580	0.03105
3570.58003	0.03177
3569.29426	0.03241
3568.00849	0.03271
3566.72273	0.03268
3565.43696	0.03255
3564.15119	0.03248
3562.86542	0.03244
3561.57965	0.03227
3560.29388	0.03192
3559.00811	0.03156
3557.72234	0.03138
3556.43657	0.03134
3555.15081	0.03125
3553.86504	0.03103
3552.57927	0.03089
3551.29350	0.03102
3550.00773	0.03139
3548.72196	0.03185
3547.43619	0.03235
3546.15042	0.03294
3544.86466	0.03354
3543.57889	0.03400
3542.29312	0.03417
3541.00735	0.03397
3539.72158	0.03349
3538.43581	0.03297
3537.15004	0.03268
3535.86427	0.03274
3534.57850	0.03304
3533.29274	0.03343
3532.00697	0.03385
3530.72120	0.03428
3529.43543	0.03466
3528.14966	0.03491
3526.86389	0.03492
3525.57812	0.03470
3524.29235	0.03447
3523.00659	0.03449
3521.72082	0.03480
3520.43505	0.03512
3519.14928	0.03521
3517.86351	0.03508
3516.57774	0.03497
3515.29197	0.03508
3514.00620	0.03543
3512.72043	0.03590
3511.43467	0.03630
3510.14890	0.03649
3508.86313	0.03652
3507.57736	0.03651
3506.29159	0.03650
3505.00582	0.03641
3503.72005	0.03618
3502.43428	0.03592
3501.14852	0.03577
3499.86275	0.03576
3498.57698	0.03584
3497.29121	0.03605
3496.00544	0.03655
3494.71967	0.03729
3493.43390	0.03796
3492.14813	0.03821
3490.86236	0.03795
3489.57660	0.03742
3488.29083	0.03695
3487.00506	0.03678
3485.71929	0.03698
3484.43352	0.03748
3483.14775	0.03813
3481.86198	0.03874
3480.57621	0.03914
3479.29045	0.03928
3478.00468	0.03927
3476.71891	0.03929
3475.43314	0.03951
3474.14737	0.03997
3472.86160	0.04056
3471.57583	0.04102
3470.29006	0.04114
3469.00429	0.04094
3467.71853	0.04058
3466.43276	0.04020
3465.14699	0.03983
3463.86122	0.03950
3462.57545	0.03926
3461.28968	0.03913
3460.00391	0.03926
3458.71814	0.03980
3457.43238	0.04066
3456.14661	0.04138
3454.86084	0.04156
3453.57507	0.04120
3452.28930	0.04062
3451.00353	0.04012
3449.71776	0.03980
3448.43199	0.03971
3447.14622	0.03995
3445.86046	0.04057
3444.57469	0.04140
3443.28892	0.04217
3442.00315	0.04264
3440.71738	0.04275
3439.43161	0.04261
3438.14584	0.04242
3436.86007	0.04228
3435.57431	0.04220
3434.28854	0.04211
3433.00277	0.04198
3431.71700	0.04176
3430.43123	0.04144
3429.14546	0.04111
3427.85969	0.04098
3426.57392	0.04122
3425.28815	0.04172
3424.00239	0.04221
3422.71662	0.04243
3421.43085	0.04236
3420.14508	0.04216
3418.85931	0.04203
3417.57354	0.04209
3416.28777	0.04233
3415.00200	0.04260
3413.71624	0.04279
3412.43047	0.04292
3411.14470	0.04315
3409.85893	0.04358
3408.57316	0.04404
3407.28739	0.04429
3406.00162	0.04425
3404.71585	0.04403
3403.43008	0.04382
3402.14432	0.04372
3400.85855	0.04375
3399.57278	0.04381
3398.28701	0.04376
3397.00124	0.04352
3395.71547	0.04329
3394.42970	0.04329
3393.14393	0.04345
3391.85817	0.04343
3390.57240	0.04305
3389.28663	0.04262
3388.00086	0.04256
3386.71509	0.04300
3385.42932	0.04362
3384.14355	0.04404
3382.85778	0.04410
3381.57201	0.04392
3380.28625	0.04373
3379.00048	0.04362
3377.71471	0.04363
3376.42894	0.04376
3375.14317	0.04398
3373.85740	0.04416
3372.57163	0.04415
3371.28586	0.04399
3370.00010	0.04390
3368.71433	0.04405
3367.42856	0.04443
3366.14279	0.04486
3364.85702	0.04520
3363.57125	0.04534
3362.28548	0.04529
3360.99971	0.04510
3359.71394	0.04482
3358.42818	0.04452
3357.14241	0.04429
3355.85664	0.04431
3354.57087	0.04462
3353.28510	0.04502
3351.99933	0.04525
3350.71356	0.04527
3349.42779	0.04524
3348.14202	0.04526
3346.85626	0.04528
3345.57049	0.04520
3344.28472	0.04502
3342.99895	0.04483
3341.71318	0.04469
3340.42741	0.04457
3339.14164	0.04438
3337.85587	0.04412
3336.57011	0.04397
3335.28434	0.04408
3333.99857	0.04442
3332.71280	0.04473
3331.42703	0.04480
3330.14126	0.04467
3328.85549	0.04454
3327.56972	0.04449
3326.28395	0.04448
3324.99819	0.04449
3323.71242	0.04461
3322.42665	0.04486
3321.14088	0.04504
3319.85511	0.04491
3318.56934	0.04446
3317.28357	0.04405
3315.99780	0.04404
3314.71204	0.04445
3313.42627	0.04490
3312.14050	0.04502
3310.85473	0.04485
3309.56896	0.04478
3308.28319	0.04504
3306.99742	0.04542
3305.71165	0.04552
3304.42588	0.04517
3303.14012	0.04462
3301.85435	0.04425
3300.56858	0.04426
3299.28281	0.04452
3297.99704	0.04478
3296.71127	0.04488
3295.42550	0.04482
3294.13973	0.04459
3292.85397	0.04424
3291.56820	0.04393
3290.28243	0.04383
3288.99666	0.04395
3287.71089	0.04404
3286.42512	0.04390
3285.13935	0.04362
3283.85358	0.04346
3282.56781	0.04358
3281.28205	0.04394
3279.99628	0.04431
3278.71051	0.04450
3277.42474	0.04449
3276.13897	0.04435
3274.85320	0.04422
3273.56743	0.04420
3272.28166	0.04426
3270.99590	0.04430
3269.71013	0.04421
3268.42436	0.04394
3267.13859	0.04349
3265.85282	0.04298
3264.56705	0.04257
3263.28128	0.04238
3261.99551	0.04241
3260.70974	0.04257
3259.42398	0.04277
3258.13821	0.04304
3256.85244	0.04337
3255.56667	0.04368
3254.28090	0.04380
3252.99513	0.04369
3251.70936	0.04344
3250.42359	0.04321
3249.13783	0.04307
3247.85206	0.04305
3246.56629	0.04310
3245.28052	0.04317
3243.99475	0.04314
3242.70898	0.04289
3241.42321	0.04248
3240.13744	0.04207
3238.85167	0.04178
3237.56591	0.04162
3236.28014	0.04155
3234.99437	0.04159
3233.70860	0.04174
3232.42283	0.04195
3231.13706	0.04212
3229.85129	0.04220
3228.56552	0.04226
3227.27976	0.04241
3225.99399	0.04267
3224.70822	0.04293
3223.42245	0.04300
3222.13668	0.04278
3220.85091	0.04232
3219.56514	0.04170
3218.27937	0.04109
3216.99360	0.04070
3215.70784	0.04070
3214.42207	0.04100
3213.13630	0.04124
3211.85053	0.04109
3210.56476	0.04056
3209.27899	0.04002
3207.99322	0.03970
3206.70745	0.03960
3205.42169	0.03957
3204.13592	0.03961
3202.85015	0.03979
3201.56438	0.04003
3200.27861	0.04019
3198.99284	0.04023
3197.70707	0.04025
3196.42130	0.04031
3195.13553	0.04033
3193.84977	0.04017
3192.56400	0.03982
3191.27823	0.03945
3189.99246	0.03923
3188.70669	0.03928
3187.42092	0.03958
3186.13515	0.03998
3184.84938	0.04030
3183.56362	0.04044
3182.27785	0.04051
3180.99208	0.04061
3179.70631	0.04070
3178.42054	0.04060
3177.13477	0.04020
3175.84900	0.03966
3174.56323	0.03919
3173.27746	0.03891
3171.99170	0.03875
3170.70593	0.03862
3169.42016	0.03847
3168.13439	0.03834
3166.84862	0.03828
3165.56285	0.03834
3164.27708	0.03851
3162.99131	0.03876
3161.70555	0.03898
3160.41978	0.03904
3159.13401	0.03887
3157.84824	0.03843
3156.56247	0.03781
3155.27670	0.03725
3153.99093	0.03703
3152.70516	0.03717
3151.41939	0.03743
3150.13363	0.03748
3148.84786	0.03723
3147.56209	0.03687
3146.27632	0.03672
3144.99055	0.03695
3143.70478	0.03748
3142.41901	0.03802
3141.13324	0.03830
3139.84748	0.03826
3138.56171	0.03806
3137.27594	0.03782
3135.99017	0.03758
3134.70440	0.03731
3133.41863	0.03705
3132.13286	0.03688
3130.84709	0.03693
3129.56132	0.03723
3128.27556	0.03763
3126.98979	0.03787
3125.70402	0.03781
3124.41825	0.03752
3123.13248	0.03717
3121.84671	0.03691
3120.56094	0.03676
3119.27517	0.03672
3117.98940	0.03673
3116.70364	0.03669
3115.41787	0.03655
3114.13210	0.03635
3112.84633	0.03620
3111.56056	0.03611
3110.27479	0.03600
3108.98902	0.03588
3107.70325	0.03583
3106.41749	0.03595
3105.13172	0.03623
3103.84595	0.03650
3102.56018	0.03659
3101.27441	0.03642
3099.98864	0.03602
3098.70287	0.03545
3097.41710	0.03487
3096.13133	0.03445
3094.84557	0.03433
3093.55980	0.03446
3092.27403	0.03460
3090.98826	0.03450
3089.70249	0.03419
3088.41672	0.03394
3087.13095	0.03399
3085.84518	0.03432
3084.55942	0.03470
3083.27365	0.03493
3081.98788	0.03502
3080.70211	0.03507
3079.41634	0.03510
3078.13057	0.03503
3076.84480	0.03482
3075.55903	0.03455
3074.27326	0.03431
3072.98750	0.03418
3071.70173	0.03417
3070.41596	0.03423
3069.13019	0.03429
3067.84442	0.03437
3066.55865	0.03448
3065.27288	0.03455
3063.98711	0.03438
3062.70135	0.03389
3061.41558	0.03329
3060.12981	0.03289
3058.84404	0.03284
3057.55827	0.03302
3056.27250	0.03323
3054.98673	0.03340
3053.70096	0.03360
3052.41519	0.03378
3051.12943	0.03379
3049.84366	0.03349
3048.55789	0.03298
3047.27212	0.03253
3045.98635	0.03234
3044.70058	0.03235
3043.41481	0.03239
3042.12904	0.03235
3040.84328	0.03223
3039.55751	0.03208
3038.27174	0.03195
3036.98597	0.03188
3035.70020	0.03187
3034.41443	0.03179
3033.12866	0.03153
3031.84289	0.03113
3030.55712	0.03082
3029.27136	0.03072
3027.98559	0.03078
3026.69982	0.03082
3025.41405	0.03074
3024.12828	0.03057
3022.84251	0.03046
3021.55674	0.03049
3020.27097	0.03065
3018.98521	0.03089
3017.69944	0.03115
3016.41367	0.03137
3015.12790	0.03152
3013.84213	0.03156
3012.55636	0.03144
3011.27059	0.03119
3009.98482	0.03091
3008.69905	0.03068
3007.41329	0.03054
3006.12752	0.03049
3004.84175	0.03051
3003.55598	0.03058
3002.27021	0.03067
3000.98444	0.03081
2999.69867	0.03103
2998.41290	0.03137
2997.12714	0.03165
2995.84137	0.03170
2994.55560	0.03154
2993.26983	0.03132
2991.98406	0.03115
2990.69829	0.03105
2989.41252	0.03107
2988.12675	0.03123
2986.84098	0.03147
2985.55522	0.03168
2984.26945	0.03172
2982.98368	0.03156
2981.69791	0.03131
2980.41214	0.03112
2979.12637	0.03110
2977.84060	0.03128
2976.55483	0.03161
2975.26907	0.03200
2973.98330	0.03232
2972.69753	0.03257
2971.41176	0.03288
2970.12599	0.03343
2968.84022	0.03424
2967.55445	0.03513
2966.26868	0.03594
2964.98291	0.03658
2963.69715	0.03700
2962.41138	0.03721
2961.12561	0.03726
2959.83984	0.03728
2958.55407	0.03740
2957.26830	0.03766
2955.98253	0.03805
2954.69676	0.03855
2953.41100	0.03906
2952.12523	0.03945
2950.83946	0.03959
2949.55369	0.03953
2948.26792	0.03943
2946.98215	0.03940
2945.69638	0.03941
2944.41061	0.03931
2943.12484	0.03902
2941.83908	0.03858
2940.55331	0.03817
2939.26754	0.03795
2937.98177	0.03804
2936.69600	0.03840
2935.41023	0.03893
2934.12446	0.03945
2932.83869	0.03979
2931.55293	0.03990
2930.26716	0.03992
2928.98139	0.03999
2927.69562	0.04018
2926.40985	0.04037
2925.12408	0.04041
2923.83831	0.04026
2922.55254	0.04003
2921.26677	0.03978
2919.98101	0.03943
2918.69524	0.03892
2917.40947	0.03835
2916.12370	0.03798
2914.83793	0.03790
2913.55216	0.03797
2912.26639	0.03800
2910.98062	0.03796
2909.69486	0.03786
2908.40909	0.03766
2907.12332	0.03728
2905.83755	0.03676
2904.55178	0.03627
2903.26601	0.03603
2901.98024	0.03602
2900.69447	0.03608
2899.40870	0.03600
2898.12294	0.03571
2896.83717	0.03524
2895.55140	0.03471
2894.26563	0.03423
2892.97986	0.03381
2891.69409	0.03344
2890.40832	0.03312
2889.12255	0.03293
2887.83678	0.03287
2886.55102	0.03289
2885.26525	0.03290
2883.97948	0.03287
2882.69371	0.03283
2881.40794	0.03279
2880.12217	0.03278
2878.83640	0.03278
2877.55063	0.03278
2876.26487	0.03281
2874.97910	0.03291
2873.69333	0.03312
2872.40756	0.03340
2871.12179	0.03367
2869.83602	0.03386
2868.55025	0.03400
2867.26448	0.03410
2865.97871	0.03414
2864.69295	0.03412
2863.40718	0.03406
2862.12141	0.03391
2860.83564	0.03357
2859.54987	0.03303
2858.26410	0.03248
2856.97833	0.03215
2855.69256	0.03209
2854.40680	0.03214
2853.12103	0.03202
2851.83526	0.03162
2850.54949	0.03106
2849.26372	0.03055
2847.97795	0.03020
2846.69218	0.02994
2845.40641	0.02970
2844.12064	0.02952
2842.83488	0.02944
2841.54911	0.02938
2840.26334	0.02919
2838.97757	0.02885
2837.69180	0.02848
2836.40603	0.02817
2835.12026	0.02787
2833.83449	0.02753
2832.54873	0.02716
2831.26296	0.02686
2829.97719	0.02663
2828.69142	0.02640
2827.40565	0.02613
2826.11988	0.02585
2824.83411	0.02560
2823.54834	0.02538
2822.26257	0.02522
2820.97681	0.02515
2819.69104	0.02522
2818.40527	0.02536
2817.11950	0.02549
2815.83373	0.02555
2814.54796	0.02555
2813.26219	0.02551
2811.97642	0.02543
2810.69066	0.02534
2809.40489	0.02530
2808.11912	0.02531
2806.83335	0.02527
2805.54758	0.02501
2804.26181	0.02451
2802.97604	0.02396
2801.69027	0.02360
2800.40450	0.02353
2799.11874	0.02365
2797.83297	0.02379
2796.54720	0.02388
2795.26143	0.02392
2793.97566	0.02387
2792.68989	0.02370
2791.40412	0.02343
2790.11835	0.02315
2788.83259	0.02296
2787.54682	0.02285
2786.26105	0.02284
2784.97528	0.02294
2783.68951	0.02314
2782.40374	0.02335
2781.11797	0.02344
2779.83220	0.02336
2778.54643	0.02320
2777.26067	0.02308
2775.97490	0.02307
2774.68913	0.02307
2773.40336	0.02298
2772.11759	0.02275
2770.83182	0.02252
2769.54605	0.02244
2768.26028	0.02256
2766.97452	0.02273
2765.68875	0.02285
2764.40298	0.02293
2763.11721	0.02296
2761.83144	0.02284
2760.54567	0.02251
2759.25990	0.02213
2757.97413	0.02194
2756.68836	0.02197
2755.40260	0.02207
2754.11683	0.02210
2752.83106	0.02207
2751.54529	0.02202
2750.25952	0.02199
2748.97375	0.02200
2747.68798	0.02206
2746.40221	0.02209
2745.11645	0.02196
2743.83068	0.02171
2742.54491	0.02150
2741.25914	0.02148
2739.97337	0.02162
2738.68760	0.02174
2737.40183	0.02172
2736.11606	0.02158
2734.83029	0.02149
2733.54453	0.02153
2732.25876	0.02165
2730.97299	0.02173
2729.68722	0.02168
2728.40145	0.02147
2727.11568	0.02114
2725.82991	0.02075
2724.54414	0.02047
2723.25838	0.02047
2721.97261	0.02079
2720.68684	0.02125
2719.40107	0.02159
2718.11530	0.02165
2716.82953	0.02149
2715.54376	0.02126
2714.25799	0.02108
2712.97222	0.02098
2711.68646	0.02094
2710.40069	0.02092
2709.11492	0.02085
2707.82915	0.02069
2706.54338	0.02049
2705.25761	0.02035
2703.97184	0.02033
2702.68607	0.02035
2701.40031	0.02033
2700.11454	0.02025
2698.82877	0.02014
2697.54300	0.02009
2696.25723	0.02015
2694.97146	0.02035
2693.68569	0.02064
2692.39992	0.02087
2691.11415	0.02089
2689.82839	0.02067
2688.54262	0.02035
2687.25685	0.02011
2685.97108	0.02005
2684.68531	0.02016
2683.39954	0.02031
2682.11377	0.02036
2680.82800	0.02024
2679.54224	0.01999
2678.25647	0.01970
2676.97070	0.01945
2675.68493	0.01927
2674.39916	0.01920
2673.11339	0.01922
2671.82762	0.01934
2670.54185	0.01952
2669.25608	0.01970
2667.97032	0.01984
2666.68455	0.01991
2665.39878	0.01991
2664.11301	0.01986
2662.82724	0.01982
2661.54147	0.01981
2660.25570	0.01982
2658.96993	0.01980
2657.68417	0.01975
2656.39840	0.01968
2655.11263	0.01958
2653.82686	0.01940
2652.54109	0.01922
2651.25532	0.01916
2649.96955	0.01924
2648.68378	0.01935
2647.39801	0.01935
2646.11225	0.01924
2644.82648	0.01913
2643.54071	0.01906
2642.25494	0.01901
2640.96917	0.01894
2639.68340	0.01881
2638.39763	0.01862
2637.11186	0.01844
2635.82609	0.01831
2634.54033	0.01822
2633.25456	0.01820
2631.96879	0.01830
2630.68302	0.01853
2629.39725	0.01876
2628.11148	0.01878
2626.82571	0.01848
2625.53994	0.01802
2624.25418	0.01769
2622.96841	0.01762
2621.68264	0.01771
2620.39687	0.01775
2619.11110	0.01770
2617.82533	0.01762
2616.53956	0.01756
2615.25379	0.01747
2613.96802	0.01728
2612.68226	0.01705
2611.39649	0.01695
2610.11072	0.01710
2608.82495	0.01743
2607.53918	0.01776
2606.25341	0.01796
2604.96764	0.01798
2603.68187	0.01793
2602.39611	0.01791
2601.11034	0.01795
2599.82457	0.01793
2598.53880	0.01773
2597.25303	0.01738
2595.96726	0.01703
2594.68149	0.01680
2593.39572	0.01668
2592.10995	0.01659
2590.82419	0.01656
2589.53842	0.01660
2588.25265	0.01673
2586.96688	0.01689
2585.68111	0.01696
2584.39534	0.01687
2583.10957	0.01658
2581.82380	0.01617
2580.53804	0.01582
2579.25227	0.01565
2577.96650	0.01565
2576.68073	0.01570
2575.39496	0.01572
2574.10919	0.01566
2572.82342	0.01555
2571.53765	0.01548
2570.25188	0.01553
2568.96612	0.01573
2567.68035	0.01595
2566.39458	0.01602
2565.10881	0.01588
2563.82304	0.01569
2562.53727	0.01567
2561.25150	0.01587
2559.96573	0.01611
2558.67997	0.01617
2557.39420	0.01598
2556.10843	0.01567
2554.82266	0.01541
2553.53689	0.01528
2552.25112	0.01532
2550.96535	0.01546
2549.67958	0.01561
2548.39381	0.01568
2547.10805	0.01571
2545.82228	0.01569
2544.53651	0.01563
2543.25074	0.01560
2541.96497	0.01568
2540.67920	0.01586
2539.39343	0.01590
2538.10766	0.01557
2536.82190	0.01495
2535.53613	0.01439
2534.25036	0.01414
2532.96459	0.01416
2531.67882	0.01423
2530.39305	0.01422
2529.10728	0.01416
2527.82151	0.01416
2526.53574	0.01422
2525.24998	0.01430
2523.96421	0.01434
2522.67844	0.01432
2521.39267	0.01429
2520.10690	0.01428
2518.82113	0.01428
2517.53536	0.01426
2516.24959	0.01424
2514.96383	0.01415
2513.67806	0.01400
2512.39229	0.01392
2511.10652	0.01412
2509.82075	0.01458
2508.53498	0.01504
2507.24921	0.01520
2505.96344	0.01506
2504.67767	0.01489
2503.39191	0.01486
2502.10614	0.01492
2500.82037	0.01486
2499.53460	0.01464
2498.24883	0.01437
2496.96306	0.01414
2495.67729	0.01395
2494.39152	0.01379
2493.10576	0.01367
2491.81999	0.01362
2490.53422	0.01360
2489.24845	0.01357
2487.96268	0.01353
2486.67691	0.01357
2485.39114	0.01375
2484.10537	0.01402
2482.81960	0.01422
2481.53384	0.01427
2480.24807	0.01429
2478.96230	0.01444
2477.67653	0.01472
2476.39076	0.01493
2475.10499	0.01489
2473.81922	0.01461
2472.53345	0.01423
2471.24769	0.01389
2469.96192	0.01367
2468.67615	0.01358
2467.39038	0.01358
2466.10461	0.01358
2464.81884	0.01352
2463.53307	0.01344
2462.24730	0.01341
2460.96153	0.01349
2459.67577	0.01363
2458.39000	0.01377
2457.10423	0.01391
2455.81846	0.01410
2454.53269	0.01433
2453.24692	0.01453
2451.96115	0.01465
2450.67538	0.01469
2449.38962	0.01466
2448.10385	0.01461
2446.81808	0.01458
2445.53231	0.01460
2444.24654	0.01451
2442.96077	0.01420
2441.67500	0.01373
2440.38923	0.01328
2439.10346	0.01299
2437.81770	0.01283
2436.53193	0.01277
2435.24616	0.01284
2433.96039	0.01304
2432.67462	0.01325
2431.38885	0.01334
2430.10308	0.01332
2428.81731	0.01330
2427.53155	0.01336
2426.24578	0.01349
2424.96001	0.01362
2423.67424	0.01370
2422.38847	0.01371
2421.10270	0.01370
2419.81693	0.01368
2418.53116	0.01365
2417.24539	0.01353
2415.95963	0.01334
2414.67386	0.01316
2413.38809	0.01307
2412.10232	0.01304
2410.81655	0.01308
2409.53078	0.01325
2408.24501	0.01348
2406.95924	0.01364
2405.67347	0.01358
2404.38771	0.01337
2403.10194	0.01317
2401.81617	0.01306
2400.53040	0.01304
2399.24463	0.01313
2397.95886	0.01326
2396.67309	0.01341
2395.38732	0.01349
2394.10156	0.01340
2392.81579	0.01316
2391.53002	0.01291
2390.24425	0.01275
2388.95848	0.01270
2387.67271	0.01266
2386.38694	0.01262
2385.10117	0.01268
2383.81540	0.01291
2382.52964	0.01324
2381.24387	0.01348
2379.95810	0.01344
2378.67233	0.01310
2377.38656	0.01263
2376.10079	0.01223
2374.81502	0.01202
2373.52925	0.01201
2372.24349	0.01213
2370.95772	0.01229
2369.67195	0.01240
2368.38618	0.01238
2367.10041	0.01218
2365.81464	0.01183
2364.52887	0.01139
2363.24310	0.01103
2361.95733	0.01088
2360.67157	0.01104
2359.38580	0.01146
2358.10003	0.01202
2356.81426	0.01260
2355.52849	0.01312
2354.24272	0.01353
2352.95695	0.01375
2351.67118	0.01369
2350.38542	0.01339
2349.09965	0.01303
2347.81388	0.01278
2346.52811	0.01272
2345.24234	0.01276
2343.95657	0.01283
2342.67080	0.01289
2341.38503	0.01296
2340.09926	0.01303
2338.81350	0.01304
2337.52773	0.01294
2336.24196	0.01272
2334.95619	0.01245
2333.67042	0.01220
2332.38465	0.01201
2331.09888	0.01190
2329.81311	0.01193
2328.52735	0.01217
2327.24158	0.01259
2325.95581	0.01307
2324.67004	0.01349
2323.38427	0.01379
2322.09850	0.01397
2320.81273	0.01407
2319.52696	0.01412
2318.24119	0.01409
2316.95543	0.01392
2315.66966	0.01362
2314.38389	0.01331
2313.09812	0.01320
2311.81235	0.01331
2310.52658	0.01350
2309.24081	0.01356
2307.95504	0.01339
2306.66928	0.01307
2305.38351	0.01275
2304.09774	0.01255
2302.81197	0.01249
2301.52620	0.01253
2300.24043	0.01264
2298.95466	0.01282
2297.66889	0.01304
2296.38312	0.01331
2295.09736	0.01361
2293.81159	0.01389
2292.52582	0.01407
2291.24005	0.01411
2289.95428	0.01410
2288.66851	0.01414
2287.38274	0.01422
2286.09697	0.01419
2284.81121	0.01393
2283.52544	0.01351
2282.23967	0.01307
2280.95390	0.01270
2279.66813	0.01229
2278.38236	0.01177
2277.09659	0.01122
2275.81082	0.01085
2274.52505	0.01078
2273.23929	0.01099
2271.95352	0.01138
2270.66775	0.01182
2269.38198	0.01223
2268.09621	0.01249
2266.81044	0.01245
2265.52467	0.01212
2264.23890	0.01168
2262.95314	0.01137
2261.66737	0.01119
2260.38160	0.01101
2259.09583	0.01082
2257.81006	0.01074
2256.52429	0.01086
2255.23852	0.01111
2253.95275	0.01140
2252.66698	0.01169
2251.38122	0.01192
2250.09545	0.01211
2248.80968	0.01227
2247.52391	0.01212
2246.23814	0.01192
2244.95237	0.01165
2243.66660	0.01119
2242.38083	0.01040
2241.09507	0.00944
2239.80930	0.00874
2238.52353	0.00856
2237.23776	0.00869
2235.95199	0.00867
2234.66622	0.00834
2233.38045	0.00792
2232.09468	0.00763
2230.80891	0.00744
2229.52315	0.00732
2228.23738	0.00745
2226.95161	0.00799
2225.66584	0.00879
2224.38007	0.00945
2223.09430	0.00975
2221.80853	0.00985
2220.52276	0.00996
2219.23700	0.01009
2217.95123	0.01016
2216.66546	0.01023
2215.37969	0.01031
2214.09392	0.01011
2212.80815	0.00938
2211.52238	0.00835
2210.23661	0.00759
2208.95084	0.00739
2207.66508	0.00757
2206.37931	0.00773
2205.09354	0.00760
2203.80777	0.00714
2202.52200	0.00665
2201.23623	0.00661
2199.95046	0.00728
2198.66469	0.00828
2197.37893	0.00884
2196.09316	0.00856
2194.80739	0.00780
2193.52162	0.00731
2192.23585	0.00754
2190.95008	0.00840
2189.66431	0.00940
2188.37854	0.01000
2187.09277	0.00990
2185.80701	0.00921
2184.52124	0.00840
2183.23547	0.00788
2181.94970	0.00765
2180.66393	0.00739
2179.37816	0.00695
2178.09239	0.00648
2176.80662	0.00617
2175.52085	0.00593
2174.23509	0.00567
2172.94932	0.00548
2171.66355	0.00537
2170.37778	0.00504
2169.09201	0.00437
2167.80624	0.00379
2166.52047	0.00389
2165.23470	0.00465
2163.94894	0.00551
2162.66317	0.00607
2161.37740	0.00628
2160.09163	0.00608
2158.80586	0.00528
2157.52009	0.00398
2156.23432	0.00273
2154.94855	0.00215
2153.66278	0.00257
2152.37702	0.00382
2151.09125	0.00526
2149.80548	0.00607
2148.51971	0.00600
2147.23394	0.00558
2145.94817	0.00561
2144.66240	0.00634
2143.37663	0.00717
2142.09087	0.00723
2140.80510	0.00628
2139.51933	0.00492
2138.23356	0.00401
2136.94779	0.00392
2135.66202	0.00445
2134.37625	0.00521
2133.09048	0.00586
2131.80471	0.00610
2130.51895	0.00578
2129.23318	0.00514
2127.94741	0.00474
2126.66164	0.00498
2125.37587	0.00571
2124.09010	0.00642
2122.80433	0.00676
2121.51856	0.00677
2120.23280	0.00674
2118.94703	0.00688
2117.66126	0.00724
2116.37549	0.00767
2115.08972	0.00792
2113.80395	0.00778
2112.51818	0.00734
2111.23241	0.00687
2109.94664	0.00656
2108.66088	0.00644
2107.37511	0.00647
2106.08934	0.00656
2104.80357	0.00660
2103.51780	0.00651
2102.23203	0.00637
2100.94626	0.00626
2099.66049	0.00612
2098.37473	0.00592
2097.08896	0.00570
2095.80319	0.00552
2094.51742	0.00541
2093.23165	0.00532
2091.94588	0.00521
2090.66011	0.00517
2089.37434	0.00519
2088.08857	0.00516
2086.80281	0.00500
2085.51704	0.00477
2084.23127	0.00471
2082.94550	0.00492
2081.65973	0.00531
2080.37396	0.00560
2079.08819	0.00557
2077.80242	0.00530
2076.51666	0.00515
2075.23089	0.00534
2073.94512	0.00567
2072.65935	0.00568
2071.37358	0.00519
2070.08781	0.00449
2068.80204	0.00396
2067.51627	0.00371
2066.23050	0.00367
2064.94474	0.00378
2063.65897	0.00395
2062.37320	0.00402
2061.08743	0.00384
2059.80166	0.00340
2058.51589	0.00283
2057.23012	0.00224
2055.94435	0.00179
2054.65859	0.00181
2053.37282	0.00246
2052.08705	0.00342
2050.80128	0.00405
2049.51551	0.00393
2048.22974	0.00325
2046.94397	0.00253
2045.65820	0.00213
2044.37243	0.00209
2043.08667	0.00220
2041.80090	0.00217
2040.51513	0.00173
2039.22936	0.00082
2037.94359	-0.00023
2036.65782	-0.00077
2035.37205	-0.00035
2034.08628	0.00079
2032.80052	0.00193
2031.51475	0.00263
2030.22898	0.00300
2028.94321	0.00328
2027.65744	0.00347
2026.37167	0.00349
2025.08590	0.00330
2023.80013	0.00287
2022.51436	0.00215
2021.22860	0.00130
2019.94283	0.00076
2018.65706	0.00085
2017.37129	0.00133
2016.08552	0.00168
2014.79975	0.00158
2013.51398	0.00114
2012.22821	0.00068
2010.94245	0.00030
2009.65668	-0.00003
2008.37091	-0.00022
2007.08514	-0.00002
2005.79937	0.00073
2004.51360	0.00192
2003.22783	0.00318
2001.94206	0.00406
2000.65629	0.00434
1999.37053	0.00429
1998.08476	0.00438
1996.79899	0.00482
1995.51322	0.00537
1994.22745	0.00576
1992.94168	0.00602
1991.65591	0.00630
1990.37014	0.00653
1989.08438	0.00652
1987.79861	0.00624
1986.51284	0.00583
1985.22707	0.00550
1983.94130	0.00538
1982.65553	0.00557
1981.36976	0.00600
1980.08399	0.00643
1978.79822	0.00656
1977.51246	0.00631
1976.22669	0.00575
1974.94092	0.00491
1973.65515	0.00386
1972.36938	0.00297
1971.08361	0.00271
1969.79784	0.00315
1968.51207	0.00379
1967.22631	0.00411
1965.94054	0.00392
1964.65477	0.00342
1963.36900	0.00291
1962.08323	0.00260
1960.79746	0.00256
1959.51169	0.00282
1958.22592	0.00334
1956.94015	0.00407
1955.65439	0.00483
1954.36862	0.00542
1953.08285	0.00577
1951.79708	0.00593
1950.51131	0.00590
1949.22554	0.00571
1947.93977	0.00550
1946.65400	0.00555
1945.36823	0.00599
1944.08247	0.00661
1942.79670	0.00710
1941.51093	0.00731
1940.22516	0.00724
1938.93939	0.00688
1937.65362	0.00620
1936.36785	0.00536
1935.08208	0.00463
1933.79632	0.00425
1932.51055	0.00431
1931.22478	0.00476
1929.93901	0.00549
1928.65324	0.00628
1927.36747	0.00681
1926.08170	0.00687
1924.79593	0.00659
1923.51016	0.00634
1922.22440	0.00639
1920.93863	0.00664
1919.65286	0.00679
1918.36709	0.00671
1917.08132	0.00654
1915.79555	0.00647
1914.50978	0.00655
1913.22401	0.00676
1911.93825	0.00702
1910.65248	0.00720
1909.36671	0.00718
1908.08094	0.00703
1906.79517	0.00699
1905.50940	0.00725
1904.22363	0.00772
1902.93786	0.00815
1901.65209	0.00842
1900.36633	0.00858
1899.08056	0.00872
1897.79479	0.00876
1896.50902	0.00850
1895.22325	0.00791
1893.93748	0.00725
1892.65171	0.00688
1891.36594	0.00697
1890.08018	0.00737
1888.79441	0.00776
1887.50864	0.00783
1886.22287	0.00755
1884.93710	0.00709
1883.65133	0.00674
1882.36556	0.00662
1881.07979	0.00670
1879.79402	0.00690
1878.50826	0.00714
1877.22249	0.00739
1875.93672	0.00761
1874.65095	0.00781
1873.36518	0.00803
1872.07941	0.00819
1870.79364	0.00817
1869.50787	0.00793
1868.22211	0.00763
1866.93634	0.00744
1865.65057	0.00743
1864.36480	0.00752
1863.07903	0.00758
1861.79326	0.00751
1860.50749	0.00737
1859.22172	0.00731
1857.93595	0.00741
1856.65019	0.00757
1855.36442	0.00764
1854.07865	0.00758
1852.79288	0.00746
1851.50711	0.00739
1850.22134	0.00739
1848.93557	0.00745
1847.64980	0.00745
1846.36404	0.00729
1845.07827	0.00705
1843.79250	0.00698
1842.50673	0.00716
1841.22096	0.00742
1839.93519	0.00757
1838.64942	0.00759
1837.36365	0.00760
1836.07788	0.00766
1834.79212	0.00779
1833.50635	0.00794
1832.22058	0.00804
1830.93481	0.00806
1829.64904	0.00810
1828.36327	0.00820
1827.07750	0.00828
1825.79173	0.00831
1824.50597	0.00833
1823.22020	0.00834
1821.93443	0.00827
1820.64866	0.00812
1819.36289	0.00793
1818.07712	0.00780
1816.79135	0.00778
1815.50558	0.00785
1814.21981	0.00792
1812.93405	0.00793
1811.64828	0.00788
1810.36251	0.00783
1809.07674	0.00784
1807.79097	0.00793
1806.50520	0.00804
1805.21943	0.00808
1803.93366	0.00801
1802.64790	0.00788
1801.36213	0.00779
1800.07636	0.00784
1798.79059	0.00799
1797.50482	0.00813
1796.21905	0.00819
1794.93328	0.00814
1793.64751	0.00803
1792.36174	0.00801
1791.07598	0.00816
1789.79021	0.00839
1788.50444	0.00859
1787.21867	0.00873
1785.93290	0.00880
1784.64713	0.00883
1783.36136	0.00878
1782.07559	0.00864
1780.78983	0.00849
1779.50406	0.00844
1778.21829	0.00851
1776.93252	0.00860
1775.64675	0.00857
1774.36098	0.00840
1773.07521	0.00828
1771.78944	0.00844
1770.50367	0.00881
1769.21791	0.00916
1767.93214	0.00936
1766.64637	0.00948
1765.36060	0.00948
1764.07483	0.00933
1762.78906	0.00913
1761.50329	0.00905
1760.21752	0.00910
1758.93176	0.00913
1757.64599	0.00911
1756.36022	0.00919
1755.07445	0.00937
1753.78868	0.00943
1752.50291	0.00927
1751.21714	0.00904
1749.93137	0.00895
1748.64560	0.00904
1747.35984	0.00922
1746.07407	0.00939
1744.78830	0.00952
1743.50253	0.00961
1742.21676	0.00965
1740.93099	0.00970
1739.64522	0.00983
1738.35945	0.01004
1737.07369	0.01007
1735.78792	0.00979
1734.50215	0.00948
1733.21638	0.00952
1731.93061	0.00988
1730.64484	0.01021
1729.35907	0.01038
1728.07330	0.01053
1726.78753	0.01072
1725.50177	0.01089
1724.21600	0.01101
1722.93023	0.01108
1721.64446	0.01113
1720.35869	0.01107
1719.07292	0.01096
1717.78715	0.01100
1716.50138	0.01131
1715.21561	0.01175
1713.92985	0.01212
1712.64408	0.01235
1711.35831	0.01252
1710.07254	0.01273
1708.78677	0.01298
1707.50100	0.01328
1706.21523	0.01363
1704.92946	0.01404
1703.64370	0.01437
1702.35793	0.01442
1701.07216	0.01440
1699.78639	0.01467
1698.50062	0.01512
1697.21485	0.01540
1695.92908	0.01557
1694.64331	0.01600
1693.35754	0.01662
1692.07178	0.01709
1690.78601	0.01734
1689.50024	0.01759
1688.21447	0.01784
1686.92870	0.01791
1685.64293	0.01783
1684.35716	0.01794
1683.07139	0.01845
1681.78563	0.01908
1680.49986	0.01958
1679.21409	0.01993
1677.92832	0.02022
1676.64255	0.02045
1675.35678	0.02074
1674.07101	0.02112
1672.78524	0.02142
1671.49947	0.02148
1670.21371	0.02143
1668.92794	0.02158
1667.64217	0.02199
1666.35640	0.02245
1665.07063	0.02277
1663.78486	0.02300
1662.49909	0.02331
1661.21332	0.02374
1659.92756	0.02414
1658.64179	0.02444
1657.35602	0.02459
1656.07025	0.02445
1654.78448	0.02402
1653.49871	0.02372
1652.21294	0.02401
1650.92717	0.02470
1649.64140	0.02516
1648.35564	0.02512
1647.06987	0.02492
1645.78410	0.02494
1644.49833	0.02517
1643.21256	0.02539
1641.92679	0.02551
1640.64102	0.02556
1639.35525	0.02555
1638.06949	0.02539
1636.78372	0.02514
1635.49795	0.02504
1634.21218	0.02522
1632.92641	0.02547
1631.64064	0.02554
1630.35487	0.02543
1629.06910	0.02530
1627.78333	0.02519
1626.49757	0.02505
1625.21180	0.02483
1623.92603	0.02461
1622.64026	0.02456
1621.35449	0.02465
1620.06872	0.02466
1618.78295	0.02443
1617.49718	0.02416
1616.21142	0.02413
1614.92565	0.02434
1613.63988	0.02450
1612.35411	0.02445
1611.06834	0.02433
1609.78257	0.02427
1608.49680	0.02432
1607.21103	0.02442
1605.92526	0.02453
1604.63950	0.02461
1603.35373	0.02469
1602.06796	0.02480
1600.78219	0.02492
1599.49642	0.02502
1598.21065	0.02507
1596.92488	0.02507
1595.63911	0.02509
1594.35335	0.02514
1593.06758	0.02525
1591.78181	0.02537
1590.49604	0.02547
1589.21027	0.02555
1587.92450	0.02564
1586.63873	0.02576
1585.35296	0.02589
1584.06719	0.02602
1582.78143	0.02615
1581.49566	0.02627
1580.20989	0.02637
1578.92412	0.02634
1577.63835	0.02619
1576.35258	0.02620
1575.06681	0.02657
1573.78104	0.02713
1572.49528	0.02749
1571.20951	0.02757
1569.92374	0.02762
1568.63797	0.02784
1567.35220	0.02817
1566.06643	0.02846
1564.78066	0.02872
1563.49489	0.02893
1562.20912	0.02892
1560.92336	0.02863
1559.63759	0.02837
1558.35182	0.02853
1557.06605	0.02904
1555.78028	0.02951
1554.49451	0.02979
1553.20874	0.03004
1551.92297	0.03027
1550.63721	0.03042
1549.35144	0.03048
1548.06567	0.03050
1546.77990	0.03044
1545.49413	0.03029
1544.20836	0.03006
1542.92259	0.02974
1541.63682	0.02939
1540.35105	0.02922
1539.06529	0.02946
1537.77952	0.03002
1536.49375	0.03046
1535.20798	0.03059
1533.92221	0.03064
1532.63644	0.03088
1531.35067	0.03129
1530.06490	0.03169
1528.77914	0.03199
1527.49337	0.03225
1526.20760	0.03254
1524.92183	0.03286
1523.63606	0.03312
1522.35029	0.03340
1521.06452	0.03393
1519.77875	0.03471
1518.49298	0.03551
1517.20722	0.03624
1515.92145	0.03700
1514.63568	0.03789
1513.34991	0.03882
1512.06414	0.03974
1510.77837	0.04059
1509.49260	0.04129
1508.20683	0.04184
1506.92107	0.04252
1505.63530	0.04360
1504.34953	0.04492
1503.06376	0.04606
1501.77799	0.04682
1500.49222	0.04735
1499.20645	0.04783
1497.92068	0.04833
1496.63491	0.04893
1495.34915	0.04964
1494.06338	0.05034
1492.77761	0.05085
1491.49184	0.05121
1490.20607	0.05163
1488.92030	0.05225
1487.63453	0.05303
1486.34876	0.05390
1485.06299	0.05478
1483.77723	0.05564
1482.49146	0.05648
1481.20569	0.05735
1479.91992	0.05826
1478.63415	0.05914
1477.34838	0.05993
1476.06261	0.06058
1474.77684	0.06104
1473.49108	0.06142
1472.20531	0.06187
1470.91954	0.06246
1469.63377	0.06303
1468.34800	0.06342
1467.06223	0.06360
1465.77646	0.06372
1464.49069	0.06392
1463.20492	0.06428
1461.91916	0.06471
1460.63339	0.06504
1459.34762	0.06514
1458.06185	0.06514
1456.77608	0.06534
1455.49031	0.06583
1454.20454	0.06638
1452.91877	0.06677
1451.63301	0.06702
1450.34724	0.06725
1449.06147	0.06744
1447.77570	0.06754
1446.48993	0.06750
1445.20416	0.06730
1443.91839	0.06698
1442.63262	0.06662
1441.34685	0.06630
1440.06109	0.06598
1438.77532	0.06560
1437.48955	0.06526
1436.20378	0.06517
1434.91801	0.06540
1433.63224	0.06577
1432.34647	0.06618
1431.06070	0.06664
1429.77494	0.06727
1428.48917	0.06809
1427.20340	0.06908
1425.91763	0.07013
1424.63186	0.07118
1423.34609	0.07215
1422.06032	0.07298
1420.77455	0.07367
1419.48878	0.07442
1418.20302	0.07531
1416.91725	0.07621
1415.63148	0.07688
1414.34571	0.07725
1413.05994	0.07738
1411.77417	0.07735
1410.48840	0.07718
1409.20263	0.07690
1407.91687	0.07648
1406.63110	0.07586
1405.34533	0.07507
1404.05956	0.07418
1402.77379	0.07320
1401.48802	0.07208
1400.20225	0.07081
1398.91648	0.06949
1397.63071	0.06817
1396.34495	0.06681
1395.05918	0.06541
1393.77341	0.06404
1392.48764	0.06270
1391.20187	0.06131
1389.91610	0.05982
1388.63033	0.05829
1387.34456	0.05683
1386.05880	0.05546
1384.77303	0.05412
1383.48726	0.05274
1382.20149	0.05133
1380.91572	0.04991
1379.62995	0.04849
1378.34418	0.04703
1377.05841	0.04552
1375.77264	0.04398
1374.48688	0.04247
1373.20111	0.04100
1371.91534	0.03959
1370.62957	0.03823
1369.34380	0.03693
1368.05803	0.03573
1366.77226	0.03462
1365.48649	0.03355
1364.20073	0.03249
1362.91496	0.03144
1361.62919	0.03043
1360.34342	0.02946
1359.05765	0.02854
1357.77188	0.02771
1356.48611	0.02700
1355.20034	0.02639
1353.91457	0.02582
1352.62881	0.02523
1351.34304	0.02464
1350.05727	0.02410
1348.77150	0.02365
1347.48573	0.02327
1346.19996	0.02290
1344.91419	0.02251
1343.62842	0.02210
1342.34266	0.02170
1341.05689	0.02132
1339.77112	0.02099
1338.48535	0.02068
1337.19958	0.02041
1335.91381	0.02017
1334.62804	0.01996
1333.34227	0.01974
1332.05650	0.01948
1330.77074	0.01917
1329.48497	0.01886
1328.19920	0.01858
1326.91343	0.01838
1325.62766	0.01826
1324.34189	0.01818
1323.05612	0.01810
1321.77035	0.01798
1320.48459	0.01779
1319.19882	0.01755
1317.91305	0.01730
1316.62728	0.01710
1315.34151	0.01696
1314.05574	0.01686
1312.76997	0.01677
1311.48420	0.01666
1310.19843	0.01652
1308.91267	0.01638
1307.62690	0.01623
1306.34113	0.01610
1305.05536	0.01600
1303.76959	0.01592
1302.48382	0.01582
1301.19805	0.01568
1299.91228	0.01553
1298.62652	0.01538
1297.34075	0.01527
1296.05498	0.01521
1294.76921	0.01515
1293.48344	0.01508
1292.19767	0.01500
1290.91190	0.01493
1289.62613	0.01489
1288.34036	0.01488
1287.05460	0.01484
1285.76883	0.01475
1284.48306	0.01461
1283.19729	0.01446
1281.91152	0.01433
1280.62575	0.01425
1279.33998	0.01421
1278.05421	0.01419
1276.76845	0.01416
1275.48268	0.01410
1274.19691	0.01403
1272.91114	0.01394
1271.62537	0.01385
1270.33960	0.01376
1269.05383	0.01369
1267.76806	0.01365
1266.48229	0.01365
1265.19653	0.01365
1263.91076	0.01364
1262.62499	0.01360
1261.33922	0.01353
1260.05345	0.01343
1258.76768	0.01334
1257.48191	0.01329
1256.19614	0.01327
1254.91037	0.01329
1253.62461	0.01330
1252.33884	0.01327
1251.05307	0.01320
1249.76730	0.01309
1248.48153	0.01298
1247.19576	0.01290
1245.90999	0.01286
1244.62422	0.01285
1243.33846	0.01287
1242.05269	0.01290
1240.76692	0.01291
1239.48115	0.01287
1238.19538	0.01276
1236.90961	0.01261
1235.62384	0.01249
1234.33807	0.01243
1233.05230	0.01241
1231.76654	0.01238
1230.48077	0.01230
1229.19500	0.01217
1227.90923	0.01204
1226.62346	0.01194
1225.33769	0.01186
1224.05192	0.01177
1222.76615	0.01167
1221.48039	0.01156
1220.19462	0.01149
1218.90885	0.01143
1217.62308	0.01139
1216.33731	0.01135
1215.05154	0.01133
1213.76577	0.01135
1212.48000	0.01140
1211.19423	0.01143
1209.90847	0.01142
1208.62270	0.01140
1207.33693	0.01139
1206.05116	0.01141
1204.76539	0.01143
1203.47962	0.01142
1202.19385	0.01139
1200.90808	0.01137
1199.62232	0.01137
1198.33655	0.01139
1197.05078	0.01141
1195.76501	0.01139
1194.47924	0.01134
1193.19347	0.01130
1191.90770	0.01131
1190.62193	0.01136
1189.33616	0.01141
1188.05040	0.01142
1186.76463	0.01144
1185.47886	0.01148
1184.19309	0.01155
1182.90732	0.01165
1181.62155	0.01176
1180.33578	0.01183
1179.05001	0.01185
1177.76425	0.01186
1176.47848	0.01186
1175.19271	0.01187
1173.90694	0.01193
1172.62117	0.01202
1171.33540	0.01213
1170.04963	0.01223
1168.76386	0.01234
1167.47809	0.01248
1166.19233	0.01267
1164.90656	0.01286
1163.62079	0.01301
1162.33502	0.01315
1161.04925	0.01331
1159.76348	0.01351
1158.47771	0.01375
1157.19194	0.01401
1155.90618	0.01430
1154.62041	0.01457
1153.33464	0.01478
1152.04887	0.01498
1150.76310	0.01523
1149.47733	0.01554
1148.19156	0.01588
1146.90579	0.01624
1145.62002	0.01665
1144.33426	0.01709
1143.04849	0.01753
1141.76272	0.01798
1140.47695	0.01850
1139.19118	0.01912
1137.90541	0.01988
1136.61964	0.02072
1135.33387	0.02163
1134.04811	0.02262
1132.76234	0.02374
1131.47657	0.02503
1130.19080	0.02651
1128.90503	0.02814
1127.61926	0.02989
1126.33349	0.03175
1125.04772	0.03373
1123.76195	0.03584
1122.47619	0.03804
1121.19042	0.04030
1119.90465	0.04260
1118.61888	0.04499
1117.33311	0.04747
1116.04734	0.04996
1114.76157	0.05235
1113.47580	0.05459
1112.19004	0.05676
1110.90427	0.05894
1109.61850	0.06117
1108.33273	0.06340
1107.04696	0.06559
1105.76119	0.06767
1104.47542	0.06962
1103.18965	0.07151
1101.90388	0.07341
1100.61812	0.07535
1099.33235	0.07725
1098.04658	0.07903
1096.76081	0.08068
1095.47504	0.08221
1094.18927	0.08365
1092.90350	0.08502
1091.61773	0.08632
1090.33197	0.08755
1089.04620	0.08876
1087.76043	0.08997
1086.47466	0.09118
1085.18889	0.09236
1083.90312	0.09349
1082.61735	0.09464
1081.33158	0.09586
1080.04581	0.09722
1078.76005	0.09870
1077.47428	0.10029
1076.18851	0.10198
1074.90274	0.10377
1073.61697	0.10563
1072.33120	0.10755
1071.04543	0.10952
1069.75966	0.11155
1068.47390	0.11364
1067.18813	0.11581
1065.90236	0.11810
1064.61659	0.12049
1063.33082	0.12294
1062.04505	0.12534
1060.75928	0.12762
1059.47351	0.12980
1058.18774	0.13191
1056.90198	0.13401
1055.61621	0.13612
1054.33044	0.13824
1053.04467	0.14038
1051.75890	0.14253
1050.47313	0.14469
1049.18736	0.14683
1047.90159	0.14895
1046.61583	0.15108
1045.33006	0.15328
1044.04429	0.15560
1042.75852	0.15803
1041.47275	0.16049
1040.18698	0.16290
1038.90121	0.16525
1037.61544	0.16756
1036.32967	0.16985
1035.04391	0.17204
1033.75814	0.17409
1032.47237	0.17600
1031.18660	0.17784
1029.90083	0.17959
1028.61506	0.18112
1027.32929	0.18228
1026.04352	0.18304
1024.75775	0.18351
1023.47199	0.18379
1022.18622	0.18389
1020.90045	0.18370
1019.61468	0.18316
1018.32891	0.18231
1017.04314	0.18119
1015.75737	0.17982
1014.47160	0.17817
1013.18584	0.17621
1011.90007	0.17394
1010.61430	0.17140
1009.32853	0.16857
1008.04276	0.16540
1006.75699	0.16186
1005.47122	0.15798
1004.18545	0.15383
1002.89968	0.14952
1001.61392	0.14510
1000.32815	0.14059
999.04238	0.13601
997.75661	0.13135
996.47084	0.12663
995.18507	0.12190
993.89930	0.11723
992.61353	0.11268
991.32777	0.10832
990.04200	0.10415
988.75623	0.10011
987.47046	0.09619
986.18469	0.09238
984.89892	0.08873
983.61315	0.08523
982.32738	0.08193
981.04161	0.07887
979.75585	0.07611
978.47008	0.07367
977.18431	0.07154
975.89854	0.06970
974.61277	0.06812
973.32700	0.06677
972.04123	0.06570
970.75546	0.06499
969.46970	0.06472
968.18393	0.06489
966.89816	0.06545
965.61239	0.06632
964.32662	0.06729
963.04085	0.06812
961.75508	0.06862
960.46931	0.06867
959.18354	0.06821
957.89778	0.06726
956.61201	0.06588
955.32624	0.06420
954.04047	0.06238
952.75470	0.06054
951.46893	0.05872
950.18316	0.05696
948.89739	0.05527
947.61163	0.05363
946.32586	0.05201
945.04009	0.05038
943.75432	0.04881
942.46855	0.04733
941.18278	0.04594
939.89701	0.04457
938.61124	0.04323
937.32547	0.04199
936.03971	0.04089
934.75394	0.03995
933.46817	0.03911
932.18240	0.03830
930.89663	0.03752
929.61086	0.03678
928.32509	0.03610
927.03932	0.03547
925.75356	0.03485
924.46779	0.03427
923.18202	0.03376
921.89625	0.03338
920.61048	0.03308
919.32471	0.03274
918.03894	0.03230
916.75317	0.03180
915.46740	0.03134
914.18164	0.03100
912.89587	0.03077
911.61010	0.03057
910.32433	0.03036
909.03856	0.03014
907.75279	0.02991
906.46702	0.02967
905.18125	0.02939
903.89549	0.02909
902.60972	0.02878
901.32395	0.02848
900.03818	0.02818
898.75241	0.02790
897.46664	0.02766
896.18087	0.02748
894.89510	0.02737
893.60933	0.02730
892.32357	0.02726
891.03780	0.02730
889.75203	0.02746
888.46626	0.02780
887.18049	0.02844
885.89472	0.02951
884.60895	0.03110
883.32318	0.03317
882.03742	0.03552
880.75165	0.03780
879.46588	0.03967
878.18011	0.04102
876.89434	0.04207
875.60857	0.04314
874.32280	0.04437
873.03703	0.04551
871.75126	0.04617
870.46550	0.04610
869.17973	0.04529
867.89396	0.04387
866.60819	0.04203
865.32242	0.03999
864.03665	0.03794
862.75088	0.03602
861.46511	0.03432
860.17935	0.03283
858.89358	0.03155
857.60781	0.03048
856.32204	0.02963
855.03627	0.02904
853.75050	0.02863
852.46473	0.02827
851.17896	0.02782
849.89319	0.02726
848.60743	0.02672
847.32166	0.02631
846.03589	0.02604
844.75012	0.02588
843.46435	0.02574
842.17858	0.02559
840.89281	0.02539
839.60704	0.02516
838.32128	0.02491
837.03551	0.02469
835.74974	0.02452
834.46397	0.02439
833.17820	0.02431
831.89243	0.02424
830.60666	0.02415
829.32089	0.02400
828.03512	0.02387
826.74936	0.02382
825.46359	0.02384
824.17782	0.02384
822.89205	0.02375
821.60628	0.02360
820.32051	0.02344
819.03474	0.02330
817.74897	0.02319
816.46321	0.02311
815.17744	0.02310
813.89167	0.02312
812.60590	0.02314
811.32013	0.02310
810.03436	0.02297
808.74859	0.02282
807.46282	0.02272
806.17705	0.02273
804.89129	0.02279
803.60552	0.02283
802.31975	0.02281
801.03398	0.02270
799.74821	0.02249
798.46244	0.02228
797.17667	0.02221
795.89090	0.02227
794.60513	0.02231
793.31937	0.02219
792.03360	0.02192
790.74783	0.02168
789.46206	0.02157
788.17629	0.02160
786.89052	0.02170
785.60475	0.02184
784.31898	0.02198
783.03322	0.02205
781.74745	0.02196
780.46168	0.02174
779.17591	0.02147
777.89014	0.02127
776.60437	0.02116
775.31860	0.02113
774.03283	0.02116
772.74706	0.02124
771.46130	0.02132
770.17553	0.02139
768.88976	0.02145
767.60399	0.02156
766.31822	0.02172
765.03245	0.02188
763.74668	0.02196
762.46091	0.02192
761.17515	0.02182
759.88938	0.02171
758.60361	0.02165
757.31784	0.02164
756.03207	0.02169
754.74630	0.02178
753.46053	0.02189
752.17476	0.02199
750.88899	0.02208
749.60323	0.02215
748.31746	0.02218
747.03169	0.02216
745.74592	0.02205
744.46015	0.02188
743.17438	0.02171
741.88861	0.02164
740.60284	0.02164
739.31708	0.02160
738.03131	0.02145
736.74554	0.02126
735.45977	0.02115
734.17400	0.02113
732.88823	0.02115
731.60246	0.02117
730.31669	0.02123
729.03092	0.02135
727.74516	0.02151
726.45939	0.02163
725.17362	0.02165
723.88785	0.02155
722.60208	0.02156
721.31631	0.02167
720.03054	0.02181
718.74477	0.02193
717.45901	0.02202
716.17324	0.02207
714.88747	0.02206
713.60170	0.02200
712.31593	0.02192
711.03016	0.02183
709.74439	0.02175
708.45862	0.02167
707.17285	0.02161
705.88709	0.02159
704.60132	0.02160
703.31555	0.02162
702.02978	0.02163
700.74401	0.02161
699.45824	0.02161
698.17247	0.02162
696.88670	0.02166
695.60094	0.02170
694.31517	0.02173
693.02940	0.02174
691.74363	0.02173
690.45786	0.02172
689.17209	0.02172
687.88632	0.02173
686.60055	0.02174
685.31478	0.02173
684.02902	0.02170
682.74325	0.02165
681.45748	0.02157
680.17171	0.02145
678.88594	0.02133
677.60017	0.02125
676.31440	0.02124
675.02863	0.02128
673.74287	0.02133
672.45710	0.02138
671.17133	0.02146
669.88556	0.02159
668.59979	0.02174
667.31402	0.02185
666.02825	0.02186
664.74248	0.02177
663.45671	0.02165
662.17095	0.02155
660.88518	0.02147
659.59941	0.02140
658.31364	0.02135
657.02787	0.02132
655.74210	0.02130
654.45633	0.02126
653.17056	0.02121
651.88480	0.02116
650.59903	0.02114
649.31326	0.02116
648.02749	0.02121
646.74172	0.02131
645.45595	0.02146
644.17018	0.02162
642.88441	0.02174
641.59864	0.02180
640.31288	0.02182
639.02711	0.02182
637.74134	0.02183
636.45557	0.02193
635.16980	0.02216
633.88403	0.02252
632.59826	0.02292
631.31249	0.02325
630.02673	0.02343
628.74096	0.02351
627.45519	0.02368
626.16942	0.02412
624.88365	0.02505
623.59788	0.02659
622.31211	0.02843
621.02634	0.02991
619.74057	0.03067
618.45481	0.03125
617.16904	0.03249
615.88327	0.03449
614.59750	0.03660
613.31173	0.03830
612.02596	0.04009
610.74019	0.04305
609.45442	0.04762
608.16866	0.05319
606.88289	0.05892
605.59712	0.06413
604.31135	0.06805
603.02558	0.06998
601.73981	0.06994
600.45404	0.06863
599.16827	0.06680
597.88250	0.06485
596.59674	0.06287
595.31097	0.06092
594.02520	0.05908
592.73943	0.05751
591.45366	0.05643
590.16789	0.05594
588.88212	0.05592
587.59635	0.05621
586.31059	0.05673
585.02482	0.05753
583.73905	0.05863
582.45328	0.05997
581.16751	0.06142
579.88174	0.06293
578.59597	0.06457
577.31020	0.06640
576.02443	0.06840
574.73867	0.07046
573.45290	0.07246
572.16713	0.07432
570.88136	0.07606
569.59559	0.07786
568.30982	0.07991
567.02405	0.08224
565.73828	0.08463
564.45251	0.08669
563.16675	0.08808
561.88098	0.08863
560.59521	0.08823
559.30944	0.08679
558.02367	0.08424
556.73790	0.08072
555.45213	0.07657
554.16636	0.07222
552.88060	0.06802
551.59483	0.06416
550.30906	0.06067
549.02329	0.05749
547.73752	0.05458
546.45175	0.05193
545.16598	0.04956
543.88021	0.04743
542.59444	0.04550
541.30868	0.04372
540.02291	0.04209
538.73714	0.04063
537.45137	0.03935
536.16560	0.03820
534.87983	0.03708
533.59406	0.03595
532.30829	0.03486
531.02253	0.03386
529.73676	0.03301
528.45099	0.03226
527.16522	0.03155
525.87945	0.03085
524.59368	0.03013
523.30791	0.02939
522.02214	0.02867
520.73637	0.02796
519.45061	0.02732
518.16484	0.02672
516.87907	0.02617
515.59330	0.02568
514.30753	0.02527
513.02176	0.02495
511.73599	0.02463
510.45022	0.02426
509.16446	0.02383
507.87869	0.02341
506.59292	0.02304
505.30715	0.02272
504.02138	0.02239
502.73561	0.02208
501.44984	0.02185
500.16407	0.02171
498.87830	0.02162
497.59254	0.02147
496.30677	0.02127
495.02100	0.02105
493.73523	0.02084
492.44946	0.02061
491.16369	0.02035
489.87792	0.02007
488.59215	0.01984
487.30639	0.01967
486.02062	0.01960
484.73485	0.01961
483.44908	0.01970
482.16331	0.01987
480.87754	0.02005
479.59177	0.02020
478.30600	0.02033
477.02023	0.02047
475.73447	0.02063
474.44870	0.02081
473.16293	0.02095
471.87716	0.02101
470.59139	0.02095
469.30562	0.02079
468.01985	0.02060
466.73408	0.02042
465.44832	0.02027
464.16255	0.02013
462.87678	0.01995
461.59101	0.01972
460.30524	0.01943
459.01947	0.01911
457.73370	0.01884
456.44793	0.01864
455.16216	0.01849
453.87640	0.01831
452.59063	0.01807
451.30486	0.01778
450.01909	0.01749
448.73332	0.01727
447.44755	0.01711
446.16178	0.01696
444.87601	0.01679
443.59025	0.01661
442.30448	0.01646
441.01871	0.01635
439.73294	0.01628
438.44717	0.01624
437.16140	0.01626
435.87563	0.01630
434.58986	0.01632
433.30409	0.01627
432.01833	0.01617
430.73256	0.01607
429.44679	0.01599
428.16102	0.01592
426.87525	0.01582
425.58948	0.01571
424.30371	0.01559
423.01794	0.01547
421.73218	0.01534
420.44641	0.01522
419.16064	0.01515
417.87487	0.01512
416.58910	0.01512
415.30333	0.01511
414.01756	0.01509
412.73179	0.01509
411.44602	0.01509
410.16026	0.01510
408.87449	0.01513
407.58872	0.01522
406.30295	0.01535
405.01718	0.01550
403.73141	0.01559
402.44564	0.01561
401.15987	0.01554
399.87411	0.01544
