3997.45528	0.06734
3996.16951	0.06741
3994.88374	0.06753
3993.59798	0.06767
3992.31221	0.06777
3991.02644	0.06779
3989.74067	0.06770
3988.45490	0.06765
3987.16913	0.06782
3985.88336	0.06821
3984.59759	0.06862
3983.31183	0.06891
3982.02606	0.06916
3980.74029	0.06944
3979.45452	0.06961
3978.16875	0.06951
3976.88298	0.06924
3975.59721	0.06906
3974.31144	0.06909
3973.02567	0.06910
3971.73991	0.06878
3970.45414	0.06806
3969.16837	0.06729
3967.88260	0.06701
3966.59683	0.06752
3965.31106	0.06848
3964.02529	0.06913
3962.73952	0.06894
3961.45376	0.06805
3960.16799	0.06709
3958.88222	0.06658
3957.59645	0.06662
3956.31068	0.06700
3955.02491	0.06738
3953.73914	0.06751
3952.45337	0.06726
3951.16760	0.06677
3949.88184	0.06634
3948.59607	0.06626
3947.31030	0.06655
3946.02453	0.06698
3944.73876	0.06734
3943.45299	0.06766
3942.16722	0.06802
3940.88145	0.06832
3939.59569	0.06826
3938.30992	0.06770
3937.02415	0.06687
3935.73838	0.06618
3934.45261	0.06588
3933.16684	0.06583
3931.88107	0.06578
3930.59530	0.06552
3929.30953	0.06511
3928.02377	0.06471
3926.73800	0.06445
3925.45223	0.06433
3924.16646	0.06437
3922.88069	0.06465
3921.59492	0.06518
3920.30915	0.06579
3919.02338	0.06618
3917.73762	0.06619
3916.45185	0.06589
3915.16608	0.06556
3913.88031	0.06544
3912.59454	0.06547
3911.30877	0.06539
3910.02300	0.06505
3908.73723	0.06469
3907.45146	0.06468
3906.16570	0.06502
3904.87993	0.06524
3903.59416	0.06495
3902.30839	0.06429
3901.02262	0.06374
3899.73685	0.06363
3898.45108	0.06390
3897.16531	0.06438
3895.87955	0.06505
3894.59378	0.06580
3893.30801	0.06628
3892.02224	0.06613
3890.73647	0.06545
3889.45070	0.06488
3888.16493	0.06489
3886.87916	0.06540
3885.59339	0.06593
3884.30763	0.06614
3883.02186	0.06609
3881.73609	0.06595
3880.45032	0.06576
3879.16455	0.06546
3877.87878	0.06511
3876.59301	0.06496
3875.30724	0.06520
3874.02148	0.06575
3872.73571	0.06627
3871.44994	0.06646
3870.16417	0.06626
3868.87840	0.06585
3867.59263	0.06541
3866.30686	0.06502
3865.02109	0.06478
3863.73532	0.06477
3862.44956	0.06499
3861.16379	0.06525
3859.87802	0.06530
3858.59225	0.06515
3857.30648	0.06505
3856.02071	0.06519
3854.73494	0.06540
3853.44917	0.06533
3852.16341	0.06486
3850.87764	0.06421
3849.59187	0.06360
3848.30610	0.06300
3847.02033	0.06229
3845.73456	0.06158
3844.44879	0.06116
3843.16302	0.06117
3841.87725	0.06144
3840.59149	0.06172
3839.30572	0.06186
3838.01995	0.06187
3836.73418	0.06181
3835.44841	0.06176
3834.16264	0.06180
3832.87687	0.06194
3831.59110	0.06217
3830.30534	0.06241
3829.01957	0.06258
3827.73380	0.06264
3826.44803	0.06263
3825.16226	0.06269
3823.87649	0.06283
3822.59072	0.06283
3821.30495	0.06252
3820.01918	0.06203
3818.73342	0.06167
3817.44765	0.06153
3816.16188	0.06144
3814.87611	0.06131
3813.59034	0.06129
3812.30457	0.06155
3811.01880	0.06203
3809.73303	0.06251
3808.44726	0.06273
3807.16150	0.06253
3805.87573	0.06191
3804.58996	0.06121
3803.30419	0.06087
3802.01842	0.06097
3800.73265	0.06111
3799.44688	0.06093
3798.16111	0.06055
3796.87535	0.06039
3795.58958	0.06057
3794.30381	0.06095
3793.01804	0.06130
3791.73227	0.06153
3790.44650	0.06150
3789.16073	0.06116
3787.87496	0.06072
3786.58919	0.06048
3785.30343	0.06050
3784.01766	0.06056
3782.73189	0.06048
3781.44612	0.06035
3780.16035	0.06028
3778.87458	0.06018
3777.58881	0.05998
3776.30304	0.05982
3775.01728	0.05994
3773.73151	0.06030
3772.44574	0.06059
3771.15997	0.06053
3769.87420	0.06016
3768.58843	0.05970
3767.30266	0.05932
3766.01689	0.05908
3764.73112	0.05909
3763.44536	0.05938
3762.15959	0.05990
3760.87382	0.06042
3759.58805	0.06067
3758.30228	0.06058
3757.01651	0.06030
3755.73074	0.06015
3754.44497	0.06037
3753.15921	0.06098
3751.87344	0.06171
3750.58767	0.06220
3749.30190	0.06220
3748.01613	0.06174
3746.73036	0.06102
3745.44459	0.06029
3744.15882	0.05970
3742.87305	0.05920
3741.58729	0.05866
3740.30152	0.05797
3739.01575	0.05727
3737.72998	0.05687
3736.44421	0.05696
3735.15844	0.05732
3733.87267	0.05750
3732.58690	0.05726
3731.30114	0.05684
3730.01537	0.05676
3728.72960	0.05730
3727.44383	0.05821
3726.15806	0.05896
3724.87229	0.05914
3723.58652	0.05881
3722.30075	0.05829
3721.01498	0.05792
3719.72922	0.05786
3718.44345	0.05805
3717.15768	0.05833
3715.87191	0.05843
3714.58614	0.05823
3713.30037	0.05787
3712.01460	0.05767
3710.72883	0.05787
3709.44307	0.05840
3708.15730	0.05890
3706.87153	0.05899
3705.58576	0.05859
3704.29999	0.05803
3703.01422	0.05776
3701.72845	0.05787
3700.44268	0.05807
3699.15691	0.05792
3697.87115	0.05732
3696.58538	0.05654
3695.29961	0.05592
3694.01384	0.05565
3692.72807	0.05573
3691.44230	0.05617
3690.15653	0.05678
3688.87076	0.05705
3687.58500	0.05665
3686.29923	0.05593
3685.01346	0.05556
3683.72769	0.05579
3682.44192	0.05624
3681.15615	0.05651
3679.87038	0.05664
3678.58461	0.05694
3677.29884	0.05746
3676.01308	0.05790
3674.72731	0.05803
3673.44154	0.05796
3672.15577	0.05805
3670.87000	0.05848
3669.58423	0.05911
3668.29846	0.05968
3667.01269	0.06004
3665.72693	0.06016
3664.44116	0.06016
3663.15539	0.06025
3661.86962	0.06053
3660.58385	0.06082
3659.29808	0.06086
3658.01231	0.06058
3656.72654	0.06017
3655.44077	0.05985
3654.15501	0.05978
3652.86924	0.06015
3651.58347	0.06100
3650.29770	0.06202
3649.01193	0.06265
3647.72616	0.06263
3646.44039	0.06228
3645.15462	0.06212
3643.86886	0.06243
3642.58309	0.06315
3641.29732	0.06409
3640.01155	0.06510
3638.72578	0.06593
3637.44001	0.06627
3636.15424	0.06601
3634.86847	0.06537
3633.58270	0.06488
3632.29694	0.06496
3631.01117	0.06559
3629.72540	0.06623
3628.43963	0.06625
3627.15386	0.06555
3625.86809	0.06472
3624.58232	0.06444
3623.29655	0.06481
3622.01079	0.06534
3620.72502	0.06560
3619.43925	0.06562
3618.15348	0.06563
3616.86771	0.06578
3615.58194	0.06613
3614.29617	0.06676
3613.01040	0.06770
3611.72463	0.06874
3610.43887	0.06958
3609.15310	0.07001
3607.86733	0.07002
3606.58156	0.06979
3605.29579	0.06951
3604.01002	0.06919
3602.72425	0.06883
3601.43848	0.06856
3600.15272	0.06876
3598.86695	0.06964
3597.58118	0.07103
3596.29541	0.07241
3595.00964	0.07334
3593.72387	0.07373
3592.43810	0.07381
3591.15233	0.07395
3589.86656	0.07437
3588.58080	0.07497
3587.29503	0.07537
3586.00926	0.07534
3584.72349	0.07501
3583.43772	0.07473
3582.15195	0.07482
3580.86618	0.07532
3579.58041	0.07601
3578.29464	0.07656
3577.00888	0.07692
3575.72311	0.07730
3574.43734	0.07797
3573.15157	0.07879
3571.86580	0.07935
3570.58003	0.07947
3569.29426	0.07943
3568.00849	0.07969
3566.72273	0.08038
3565.43696	0.08126
3564.15119	0.08193
3562.86542	0.08214
3561.57965	0.08196
3560.29388	0.08168
3559.00811	0.08161
3557.72234	0.08179
3556.43657	0.08197
3555.15081	0.08191
3553.86504	0.08167
3552.57927	0.08156
3551.29350	0.08187
3550.00773	0.08258
3548.72196	0.08338
3547.43619	0.08392
3546.15042	0.08409
3544.86466	0.08411
3543.57889	0.08435
3542.29312	0.08504
3541.00735	0.08605
3539.72158	0.08695
3538.43581	0.08732
3537.15004	0.08712
3535.86427	0.08669
3534.57850	0.08639
3533.29274	0.08631
3532.00697	0.08637
3530.72120	0.08655
3529.43543	0.08690
3528.14966	0.08736
3526.86389	0.08774
3525.57812	0.08790
3524.29235	0.08779
3523.00659	0.08755
3521.72082	0.08744
3520.43505	0.08779
3519.14928	0.08869
3517.86351	0.08979
3516.57774	0.09060
3515.29197	0.09094
3514.00620	0.09103
3512.72043	0.09117
3511.43467	0.09146
3510.14890	0.09183
3508.86313	0.09225
3507.57736	0.09282
3506.29159	0.09352
3505.00582	0.09415
3503.72005	0.09445
3502.43428	0.09431
3501.14852	0.09383
3499.86275	0.09333
3498.57698	0.09309
3497.29121	0.09319
3496.00544	0.09350
3494.71967	0.09384
3493.43390	0.09414
3492.14813	0.09437
3490.86236	0.09448
3489.57660	0.09441
3488.29083	0.09424
3487.00506	0.09415
3485.71929	0.09433
3484.43352	0.09479
3483.14775	0.09544
3481.86198	0.09609
3480.57621	0.09652
3479.29045	0.09662
3478.00468	0.09645
3476.71891	0.09626
3475.43314	0.09632
3474.14737	0.09669
3472.86160	0.09720
3471.57583	0.09760
3470.29006	0.09783
3469.00429	0.09799
3467.71853	0.09816
3466.43276	0.09830
3465.14699	0.09834
3463.86122	0.09836
3462.57545	0.09847
3461.28968	0.09871
3460.00391	0.09899
3458.71814	0.09923
3457.43238	0.09942
3456.14661	0.09965
3454.86084	0.10000
3453.57507	0.10043
3452.28930	0.10078
3451.00353	0.10101
3449.71776	0.10125
3448.43199	0.10157
3447.14622	0.10183
3445.86046	0.10176
3444.57469	0.10124
3443.28892	0.10053
3442.00315	0.10009
3440.71738	0.10023
3439.43161	0.10092
3438.14584	0.10186
3436.86007	0.10274
3435.57431	0.10335
3434.28854	0.10369
3433.00277	0.10386
3431.71700	0.10408
3430.43123	0.10450
3429.14546	0.10513
3427.85969	0.10575
3426.57392	0.10603
3425.28815	0.10582
3424.00239	0.10528
3422.71662	0.10478
3421.43085	0.10460
3420.14508	0.10475
3418.85931	0.10507
3417.57354	0.10537
3416.28777	0.10556
3415.00200	0.10559
3413.71624	0.10547
3412.43047	0.10527
3411.14470	0.10507
3409.85893	0.10494
3408.57316	0.10493
3407.28739	0.10506
3406.00162	0.10531
3404.71585	0.10561
3403.43008	0.10588
3402.14432	0.10614
3400.85855	0.10641
3399.57278	0.10666
3398.28701	0.10680
3397.00124	0.10682
3395.71547	0.10676
3394.42970	0.10667
3393.14393	0.10664
3391.85817	0.10675
3390.57240	0.10705
3389.28663	0.10751
3388.00086	0.10795
3386.71509	0.10822
3385.42932	0.10825
3384.14355	0.10817
3382.85778	0.10812
3381.57201	0.10815
3380.28625	0.10816
3379.00048	0.10807
3377.71471	0.10786
3376.42894	0.10761
3375.14317	0.10747
3373.85740	0.10765
3372.57163	0.10812
3371.28586	0.10860
3370.00010	0.10878
3368.71433	0.10861
3367.42856	0.10829
3366.14279	0.10808
3364.85702	0.10805
3363.57125	0.10811
3362.28548	0.10811
3360.99971	0.10808
3359.71394	0.10818
3358.42818	0.10851
3357.14241	0.10899
3355.85664	0.10940
3354.57087	0.10957
3353.28510	0.10945
3351.99933	0.10909
3350.71356	0.10861
3349.42779	0.10817
3348.14202	0.10790
3346.85626	0.10781
3345.57049	0.10781
3344.28472	0.10781
3342.99895	0.10780
3341.71318	0.10784
3340.42741	0.10798
3339.14164	0.10817
3337.85587	0.10835
3336.57011	0.10852
3335.28434	0.10872
3333.99857	0.10900
3332.71280	0.10936
3331.42703	0.10974
3330.14126	0.11003
3328.85549	0.11002
3327.56972	0.10961
3326.28395	0.10895
3324.99819	0.10837
3323.71242	0.10815
3322.42665	0.10828
3321.14088	0.10853
3319.85511	0.10860
3318.56934	0.10836
3317.28357	0.10790
3315.99780	0.10747
3314.71204	0.10727
3313.42627	0.10736
3312.14050	0.10765
3310.85473	0.10808
3309.56896	0.10859
3308.28319	0.10915
3306.99742	0.10964
3305.71165	0.10988
3304.42588	0.10978
3303.14012	0.10935
3301.85435	0.10879
3300.56858	0.10828
3299.28281	0.10786
3297.99704	0.10746
3296.71127	0.10711
3295.42550	0.10695
3294.13973	0.10719
3292.85397	0.10775
3291.56820	0.10827
3290.28243	0.10836
3288.99666	0.10798
3287.71089	0.10740
3286.42512	0.10699
3285.13935	0.10692
3283.85358	0.10709
3282.56781	0.10723
3281.28205	0.10714
3279.99628	0.10689
3278.71051	0.10669
3277.42474	0.10674
3276.13897	0.10701
3274.85320	0.10730
3273.56743	0.10740
3272.28166	0.10722
3270.99590	0.10688
3269.71013	0.10656
3268.42436	0.10624
3267.13859	0.10580
3265.85282	0.10526
3264.56705	0.10482
3263.28128	0.10474
3261.99551	0.10502
3260.70974	0.10552
3259.42398	0.10604
3258.13821	0.10646
3256.85244	0.10671
3255.56667	0.10676
3254.28090	0.10661
3252.99513	0.10629
3251.70936	0.10584
3250.42359	0.10535
3249.13783	0.10491
3247.85206	0.10461
3246.56629	0.10449
3245.28052	0.10451
3243.99475	0.10455
3242.70898	0.10452
3241.42321	0.10440
3240.13744	0.10425
3238.85167	0.10414
3237.56591	0.10400
3236.28014	0.10374
3234.99437	0.10340
3233.70860	0.10311
3232.42283	0.10289
3231.13706	0.10272
3229.85129	0.10262
3228.56552	0.10264
3227.27976	0.10276
3225.99399	0.10286
3224.70822	0.10284
3223.42245	0.10275
3222.13668	0.10270
3220.85091	0.10284
3219.56514	0.10316
3218.27937	0.10354
3216.99360	0.10373
3215.70784	0.10357
3214.42207	0.10312
3213.13630	0.10259
3211.85053	0.10218
3210.56476	0.10199
3209.27899	0.10202
3207.99322	0.10221
3206.70745	0.10242
3205.42169	0.10249
3204.13592	0.10235
3202.85015	0.10198
3201.56438	0.10147
3200.27861	0.10095
3198.99284	0.10067
3197.70707	0.10077
3196.42130	0.10116
3195.13553	0.10151
3193.84977	0.10162
3192.56400	0.10157
3191.27823	0.10158
3189.99246	0.10168
3188.70669	0.10167
3187.42092	0.10138
3186.13515	0.10089
3184.84938	0.10036
3183.56362	0.09998
3182.27785	0.09981
3180.99208	0.09979
3179.70631	0.09976
3178.42054	0.09957
3177.13477	0.09932
3175.84900	0.09925
3174.56323	0.09947
3173.27746	0.09980
3171.99170	0.09997
3170.70593	0.09985
3169.42016	0.09959
3168.13439	0.09936
3166.84862	0.09923
3165.56285	0.09911
3164.27708	0.09885
3162.99131	0.09846
3161.70555	0.09813
3160.41978	0.09803
3159.13401	0.09815
3157.84824	0.09829
3156.56247	0.09828
3155.27670	0.09817
3153.99093	0.09814
3152.70516	0.09827
3151.41939	0.09845
3150.13363	0.09847
3148.84786	0.09832
3147.56209	0.09809
3146.27632	0.09781
3144.99055	0.09739
3143.70478	0.09680
3142.41901	0.09617
3141.13324	0.09573
3139.84748	0.09562
3138.56171	0.09579
3137.27594	0.09617
3135.99017	0.09662
3134.70440	0.09694
3133.41863	0.09693
3132.13286	0.09657
3130.84709	0.09603
3129.56132	0.09546
3128.27556	0.09492
3126.98979	0.09440
3125.70402	0.09399
3124.41825	0.09379
3123.13248	0.09386
3121.84671	0.09403
3120.56094	0.09411
3119.27517	0.09399
3117.98940	0.09377
3116.70364	0.09355
3115.41787	0.09334
3114.13210	0.09305
3112.84633	0.09257
3111.56056	0.09198
3110.27479	0.09149
3108.98902	0.09130
3107.70325	0.09146
3106.41749	0.09181
3105.13172	0.09211
3103.84595	0.09218
3102.56018	0.09200
3101.27441	0.09166
3099.98864	0.09132
3098.70287	0.09115
3097.41710	0.09119
3096.13133	0.09139
3094.84557	0.09163
3093.55980	0.09184
3092.27403	0.09200
3090.98826	0.09203
3089.70249	0.09185
3088.41672	0.09151
3087.13095	0.09122
3085.84518	0.09110
3084.55942	0.09107
3083.27365	0.09093
3081.98788	0.09057
3080.70211	0.09011
3079.41634	0.08980
3078.13057	0.08975
3076.84480	0.08980
3075.55903	0.08969
3074.27326	0.08930
3072.98750	0.08878
3071.70173	0.08844
3070.41596	0.08842
3069.13019	0.08870
3067.84442	0.08905
3066.55865	0.08924
3065.27288	0.08909
3063.98711	0.08866
3062.70135	0.08820
3061.41558	0.08790
3060.12981	0.08774
3058.84404	0.08761
3057.55827	0.08746
3056.27250	0.08733
3054.98673	0.08724
3053.70096	0.08717
3052.41519	0.08714
3051.12943	0.08712
3049.84366	0.08707
3048.55789	0.08693
3047.27212	0.08670
3045.98635	0.08647
3044.70058	0.08629
3043.41481	0.08614
3042.12904	0.08594
3040.84328	0.08565
3039.55751	0.08533
3038.27174	0.08510
3036.98597	0.08505
3035.70020	0.08516
3034.41443	0.08528
3033.12866	0.08525
3031.84289	0.08501
3030.55712	0.08465
3029.27136	0.08435
3027.98559	0.08421
3026.69982	0.08419
3025.41405	0.08413
3024.12828	0.08392
3022.84251	0.08363
3021.55674	0.08337
3020.27097	0.08327
3018.98521	0.08333
3017.69944	0.08345
3016.41367	0.08349
3015.12790	0.08328
3013.84213	0.08280
3012.55636	0.08216
3011.27059	0.08163
3009.98482	0.08140
3008.69905	0.08145
3007.41329	0.08165
3006.12752	0.08184
3004.84175	0.08198
3003.55598	0.08207
3002.27021	0.08206
3000.98444	0.08196
2999.69867	0.08180
2998.41290	0.08164
2997.12714	0.08152
2995.84137	0.08142
2994.55560	0.08140
2993.26983	0.08150
2991.98406	0.08172
2990.69829	0.08197
2989.41252	0.08219
2988.12675	0.08239
2986.84098	0.08269
2985.55522	0.08312
2984.26945	0.08358
2982.98368	0.08399
2981.69791	0.08446
2980.41214	0.08523
2979.12637	0.08638
2977.84060	0.08774
2976.55483	0.08905
2975.26907	0.09030
2973.98330	0.09169
2972.69753	0.09333
2971.41176	0.09521
2970.12599	0.09725
2968.84022	0.09938
2967.55445	0.10155
2966.26868	0.10368
2964.98291	0.10582
2963.69715	0.10803
2962.41138	0.11028
2961.12561	0.11252
2959.83984	0.11470
2958.55407	0.11675
2957.26830	0.11856
2955.98253	0.12008
2954.69676	0.12135
2953.41100	0.12245
2952.12523	0.12331
2950.83946	0.12377
2949.55369	0.12375
2948.26792	0.12333
2946.98215	0.12276
2945.69638	0.12225
2944.41061	0.12188
2943.12484	0.12166
2941.83908	0.12161
2940.55331	0.12185
2939.26754	0.12248
2937.98177	0.12357
2936.69600	0.12509
2935.41023	0.12692
2934.12446	0.12886
2932.83869	0.13070
2931.55293	0.13241
2930.26716	0.13404
2928.98139	0.13565
2927.69562	0.13724
2926.40985	0.13876
2925.12408	0.14006
2923.83831	0.14101
2922.55254	0.14155
2921.26677	0.14164
2919.98101	0.14116
2918.69524	0.14004
2917.40947	0.13836
2916.12370	0.13638
2914.83793	0.13440
2913.55216	0.13261
2912.26639	0.13103
2910.98062	0.12953
2909.69486	0.12793
2908.40909	0.12618
2907.12332	0.12435
2905.83755	0.12265
2904.55178	0.12126
2903.26601	0.12026
2901.98024	0.11951
2900.69447	0.11878
2899.40870	0.11789
2898.12294	0.11681
2896.83717	0.11552
2895.55140	0.11408
2894.26563	0.11264
2892.97986	0.11137
2891.69409	0.11027
2890.40832	0.10920
2889.12255	0.10805
2887.83678	0.10686
2886.55102	0.10569
2885.26525	0.10459
2883.97948	0.10353
2882.69371	0.10254
2881.40794	0.10180
2880.12217	0.10156
2878.83640	0.10195
2877.55063	0.10281
2876.26487	0.10383
2874.97910	0.10486
2873.69333	0.10598
2872.40756	0.10723
2871.12179	0.10845
2869.83602	0.10933
2868.55025	0.10976
2867.26448	0.10983
2865.97871	0.10974
2864.69295	0.10962
2863.40718	0.10947
2862.12141	0.10926
2860.83564	0.10906
2859.54987	0.10898
2858.26410	0.10905
2856.97833	0.10918
2855.69256	0.10923
2854.40680	0.10908
2853.12103	0.10874
2851.83526	0.10822
2850.54949	0.10756
2849.26372	0.10671
2847.97795	0.10559
2846.69218	0.10414
2845.40641	0.10240
2844.12064	0.10051
2842.83488	0.09856
2841.54911	0.09654
2840.26334	0.09442
2838.97757	0.09228
2837.69180	0.09029
2836.40603	0.08858
2835.12026	0.08711
2833.83449	0.08572
2832.54873	0.08427
2831.26296	0.08279
2829.97719	0.08143
2828.69142	0.08032
2827.40565	0.07953
2826.11988	0.07901
2824.83411	0.07859
2823.54834	0.07803
2822.26257	0.07730
2820.97681	0.07658
2819.69104	0.07609
2818.40527	0.07587
2817.11950	0.07572
2815.83373	0.07547
2814.54796	0.07506
2813.26219	0.07456
2811.97642	0.07406
2810.69066	0.07363
2809.40489	0.07324
2808.11912	0.07287
2806.83335	0.07251
2805.54758	0.07218
2804.26181	0.07184
2802.97604	0.07151
2801.69027	0.07124
2800.40450	0.07103
2799.11874	0.07079
2797.83297	0.07043
2796.54720	0.06999
2795.26143	0.06958
2793.97566	0.06931
2792.68989	0.06919
2791.40412	0.06918
2790.11835	0.06912
2788.83259	0.06890
2787.54682	0.06852
2786.26105	0.06813
2784.97528	0.06783
2783.68951	0.06762
2782.40374	0.06744
2781.11797	0.06727
2779.83220	0.06709
2778.54643	0.06690
2777.26067	0.06669
2775.97490	0.06651
2774.68913	0.06637
2773.40336	0.06627
2772.11759	0.06619
2770.83182	0.06614
2769.54605	0.06613
2768.26028	0.06613
2766.97452	0.06609
2765.68875	0.06597
2764.40298	0.06577
2763.11721	0.06558
2761.83144	0.06545
2760.54567	0.06536
2759.25990	0.06523
2757.97413	0.06502
2756.68836	0.06474
2755.40260	0.06443
2754.11683	0.06414
2752.83106	0.06395
2751.54529	0.06388
2750.25952	0.06388
2748.97375	0.06385
2747.68798	0.06373
2746.40221	0.06358
2745.11645	0.06350
2743.83068	0.06357
2742.54491	0.06378
2741.25914	0.06403
2739.97337	0.06418
2738.68760	0.06412
2737.40183	0.06386
2736.11606	0.06349
2734.83029	0.06316
2733.54453	0.06296
2732.25876	0.06283
2730.97299	0.06266
2729.68722	0.06240
2728.40145	0.06206
2727.11568	0.06171
2725.82991	0.06146
2724.54414	0.06139
2723.25838	0.06147
2721.97261	0.06160
2720.68684	0.06166
2719.40107	0.06161
2718.11530	0.06149
2716.82953	0.06137
2715.54376	0.06130
2714.25799	0.06129
2712.97222	0.06129
2711.68646	0.06123
2710.40069	0.06108
2709.11492	0.06086
2707.82915	0.06063
2706.54338	0.06038
2705.25761	0.06013
2703.97184	0.05990
2702.68607	0.05975
2701.40031	0.05970
2700.11454	0.05977
2698.82877	0.05992
2697.54300	0.06004
2696.25723	0.06000
2694.97146	0.05978
2693.68569	0.05951
2692.39992	0.05933
2691.11415	0.05929
2689.82839	0.05931
2688.54262	0.05932
2687.25685	0.05925
2685.97108	0.05909
2684.68531	0.05887
2683.39954	0.05864
2682.11377	0.05843
2680.82800	0.05830
2679.54224	0.05829
2678.25647	0.05841
2676.97070	0.05851
2675.68493	0.05844
2674.39916	0.05817
2673.11339	0.05782
2671.82762	0.05755
2670.54185	0.05744
2669.25608	0.05744
2667.97032	0.05746
2666.68455	0.05741
2665.39878	0.05729
2664.11301	0.05713
2662.82724	0.05700
2661.54147	0.05694
2660.25570	0.05691
2658.96993	0.05685
2657.68417	0.05674
2656.39840	0.05664
2655.11263	0.05658
2653.82686	0.05650
2652.54109	0.05637
2651.25532	0.05622
2649.96955	0.05606
2648.68378	0.05585
2647.39801	0.05553
2646.11225	0.05516
2644.82648	0.05488
2643.54071	0.05475
2642.25494	0.05466
2640.96917	0.05446
2639.68340	0.05407
2638.39763	0.05359
2637.11186	0.05318
2635.82609	0.05296
2634.54033	0.05285
2633.25456	0.05265
2631.96879	0.05222
2630.68302	0.05164
2629.39725	0.05117
2628.11148	0.05098
2626.82571	0.05112
2625.53994	0.05149
2624.25418	0.05190
2622.96841	0.05205
2621.68264	0.05182
2620.39687	0.05131
2619.11110	0.05079
2617.82533	0.05043
2616.53956	0.05014
2615.25379	0.04980
2613.96802	0.04940
2612.68226	0.04914
2611.39649	0.04917
2610.11072	0.04945
2608.82495	0.04979
2607.53918	0.04991
2606.25341	0.04963
2604.96764	0.04893
2603.68187	0.04809
2602.39611	0.04750
2601.11034	0.04730
2599.82457	0.04738
2598.53880	0.04747
2597.25303	0.04749
2595.96726	0.04757
2594.68149	0.04785
2593.39572	0.04822
2592.10995	0.04837
2590.82419	0.04808
2589.53842	0.04751
2588.25265	0.04707
2586.96688	0.04700
2585.68111	0.04722
2584.39534	0.04743
2583.10957	0.04745
2581.82380	0.04730
2580.53804	0.04711
2579.25227	0.04698
2577.96650	0.04695
2576.68073	0.04696
2575.39496	0.04691
2574.10919	0.04677
2572.82342	0.04649
2571.53765	0.04605
2570.25188	0.04554
2568.96612	0.04516
2567.68035	0.04505
2566.39458	0.04510
2565.10881	0.04510
2563.82304	0.04496
2562.53727	0.04478
2561.25150	0.04473
2559.96573	0.04484
2558.67997	0.04499
2557.39420	0.04504
2556.10843	0.04494
2554.82266	0.04473
2553.53689	0.04452
2552.25112	0.04440
2550.96535	0.04436
2549.67958	0.04430
2548.39381	0.04417
2547.10805	0.04410
2545.82228	0.04424
2544.53651	0.04456
2543.25074	0.04482
2541.96497	0.04485
2540.67920	0.04473
2539.39343	0.04462
2538.10766	0.04453
2536.82190	0.04430
2535.53613	0.04384
2534.25036	0.04326
2532.96459	0.04276
2531.67882	0.04246
2530.39305	0.04231
2529.10728	0.04221
2527.82151	0.04212
2526.53574	0.04213
2525.24998	0.04234
2523.96421	0.04278
2522.67844	0.04328
2521.39267	0.04352
2520.10690	0.04331
2518.82113	0.04285
2517.53536	0.04251
2516.24959	0.04246
2514.96383	0.04251
2513.67806	0.04243
2512.39229	0.04214
2511.10652	0.04175
2509.82075	0.04138
2508.53498	0.04115
2507.24921	0.04111
2505.96344	0.04131
2504.67767	0.04175
2503.39191	0.04234
2502.10614	0.04288
2500.82037	0.04310
2499.53460	0.04291
2498.24883	0.04248
2496.96306	0.04215
2495.67729	0.04210
2494.39152	0.04214
2493.10576	0.04195
2491.81999	0.04144
2490.53422	0.04079
2489.24845	0.04032
2487.96268	0.04025
2486.67691	0.04057
2485.39114	0.04105
2484.10537	0.04140
2482.81960	0.04153
2481.53384	0.04147
2480.24807	0.04130
2478.96230	0.04096
2477.67653	0.04047
2476.39076	0.04000
2475.10499	0.03975
2473.81922	0.03983
2472.53345	0.04010
2471.24769	0.04030
2469.96192	0.04033
2468.67615	0.04033
2467.39038	0.04044
2466.10461	0.04071
2464.81884	0.04101
2463.53307	0.04118
2462.24730	0.04114
2460.96153	0.04095
2459.67577	0.04075
2458.39000	0.04065
2457.10423	0.04059
2455.81846	0.04047
2454.53269	0.04028
2453.24692	0.04002
2451.96115	0.03977
2450.67538	0.03964
2449.38962	0.03969
2448.10385	0.03981
2446.81808	0.03982
2445.53231	0.03974
2444.24654	0.03965
2442.96077	0.03958
2441.67500	0.03950
2440.38923	0.03936
2439.10346	0.03918
2437.81770	0.03905
2436.53193	0.03901
2435.24616	0.03911
2433.96039	0.03931
2432.67462	0.03955
2431.38885	0.03969
2430.10308	0.03967
2428.81731	0.03947
2427.53155	0.03913
2426.24578	0.03867
2424.96001	0.03809
2423.67424	0.03744
2422.38847	0.03683
2421.10270	0.03643
2419.81693	0.03643
2418.53116	0.03687
2417.24539	0.03753
2415.95963	0.03805
2414.67386	0.03826
2413.38809	0.03828
2412.10232	0.03836
2410.81655	0.03858
2409.53078	0.03877
2408.24501	0.03880
2406.95924	0.03865
2405.67347	0.03845
2404.38771	0.03828
2403.10194	0.03812
2401.81617	0.03789
2400.53040	0.03767
2399.24463	0.03760
2397.95886	0.03765
2396.67309	0.03768
2395.38732	0.03766
2394.10156	0.03769
2392.81579	0.03785
2391.53002	0.03809
2390.24425	0.03823
2388.95848	0.03820
2387.67271	0.03806
2386.38694	0.03795
2385.10117	0.03796
2383.81540	0.03813
2382.52964	0.03837
2381.24387	0.03859
2379.95810	0.03870
2378.67233	0.03873
2377.38656	0.03875
2376.10079	0.03881
2374.81502	0.03889
2373.52925	0.03893
2372.24349	0.03885
2370.95772	0.03861
2369.67195	0.03829
2368.38618	0.03801
2367.10041	0.03788
2365.81464	0.03789
2364.52887	0.03803
2363.24310	0.03825
2361.95733	0.03846
2360.67157	0.03861
2359.38580	0.03877
2358.10003	0.03894
2356.81426	0.03909
2355.52849	0.03919
2354.24272	0.03923
2352.95695	0.03919
2351.67118	0.03902
2350.38542	0.03885
2349.09965	0.03882
2347.81388	0.03893
2346.52811	0.03896
2345.24234	0.03893
2343.95657	0.03901
2342.67080	0.03916
2341.38503	0.03902
2340.09926	0.03867
2338.81350	0.03872
2337.52773	0.03918
2336.24196	0.03929
2334.95619	0.03907
2333.67042	0.03917
2332.38465	0.03939
2331.09888	0.03894
2329.81311	0.03843
2328.52735	0.03856
2327.24158	0.03867
2325.95581	0.03886
2324.67004	0.03947
2323.38427	0.03960
2322.09850	0.03906
2320.81273	0.03865
2319.52696	0.03820
2318.24119	0.03788
2316.95543	0.03792
2315.66966	0.03787
2314.38389	0.03774
2313.09812	0.03773
2311.81235	0.03762
2310.52658	0.03747
2309.24081	0.03720
2307.95504	0.03680
2306.66928	0.03645
2305.38351	0.03611
2304.09774	0.03586
2302.81197	0.03577
2301.52620	0.03582
2300.24043	0.03595
2298.95466	0.03607
2297.66889	0.03609
2296.38312	0.03595
2295.09736	0.03555
2293.81159	0.03494
2292.52582	0.03431
2291.24005	0.03396
2289.95428	0.03403
2288.66851	0.03451
2287.38274	0.03516
2286.09697	0.03568
2284.81121	0.03579
2283.52544	0.03538
2282.23967	0.03461
2280.95390	0.03380
2279.66813	0.03323
2278.38236	0.03291
2277.09659	0.03273
2275.81082	0.03256
2274.52505	0.03233
2273.23929	0.03208
2271.95352	0.03179
2270.66775	0.03146
2269.38198	0.03111
2268.09621	0.03087
2266.81044	0.03087
2265.52467	0.03109
2264.23890	0.03132
2262.95314	0.03126
2261.66737	0.03084
2260.38160	0.03019
2259.09583	0.02956
2257.81006	0.02908
2256.52429	0.02879
2255.23852	0.02864
2253.95275	0.02851
2252.66698	0.02830
2251.38122	0.02797
2250.09545	0.02767
2248.80968	0.02758
2247.52391	0.02779
2246.23814	0.02814
2244.95237	0.02826
2243.66660	0.02788
2242.38083	0.02712
2241.09507	0.02631
2239.80930	0.02581
2238.52353	0.02580
2237.23776	0.02616
2235.95199	0.02652
2234.66622	0.02659
2233.38045	0.02639
2232.09468	0.02621
2230.80891	0.02610
2229.52315	0.02592
2228.23738	0.02551
2226.95161	0.02496
2225.66584	0.02456
2224.38007	0.02449
2223.09430	0.02469
2221.80853	0.02491
2220.52276	0.02491
2219.23700	0.02468
2217.95123	0.02453
2216.66546	0.02481
2215.37969	0.02551
2214.09392	0.02616
2212.80815	0.02623
2211.52238	0.02556
2210.23661	0.02452
2208.95084	0.02356
2207.66508	0.02296
2206.37931	0.02275
2205.09354	0.02267
2203.80777	0.02237
2202.52200	0.02162
2201.23623	0.02073
2199.95046	0.02025
2198.66469	0.02039
2197.37893	0.02069
2196.09316	0.02060
2194.80739	0.02013
2193.52162	0.01984
2192.23585	0.02010
2190.95008	0.02066
2189.66431	0.02095
2188.37854	0.02073
2187.09277	0.02032
2185.80701	0.02018
2184.52124	0.02033
2183.23547	0.02036
2181.94970	0.01982
2180.66393	0.01880
2179.37816	0.01790
2178.09239	0.01753
2176.80662	0.01747
2175.52085	0.01724
2174.23509	0.01681
2172.94932	0.01649
2171.66355	0.01633
2170.37778	0.01600
2169.09201	0.01549
2167.80624	0.01523
2166.52047	0.01549
2165.23470	0.01590
2163.94894	0.01581
2162.66317	0.01492
2161.37740	0.01327
2160.09163	0.01116
2158.80586	0.00917
2157.52009	0.00817
2156.23432	0.00870
2154.94855	0.01051
2153.66278	0.01267
2152.37702	0.01415
2151.09125	0.01458
2149.80548	0.01439
2148.51971	0.01424
2147.23394	0.01430
2145.94817	0.01423
2144.66240	0.01394
2143.37663	0.01385
2142.09087	0.01441
2140.80510	0.01546
2139.51933	0.01646
2138.23356	0.01707
2136.94779	0.01746
2135.66202	0.01786
2134.37625	0.01817
2133.09048	0.01817
2131.80471	0.01791
2130.51895	0.01774
2129.23318	0.01798
2127.94741	0.01868
2126.66164	0.01964
2125.37587	0.02057
2124.09010	0.02122
2122.80433	0.02162
2121.51856	0.02198
2120.23280	0.02244
2118.94703	0.02287
2117.66126	0.02305
2116.37549	0.02291
2115.08972	0.02261
2113.80395	0.02229
2112.51818	0.02196
2111.23241	0.02160
2109.94664	0.02114
2108.66088	0.02054
2107.37511	0.01997
2106.08934	0.01972
2104.80357	0.02000
2103.51780	0.02070
2102.23203	0.02135
2100.94626	0.02153
2099.66049	0.02227
2098.37473	0.02212
2097.08896	0.02153
2095.80319	0.02113
2094.51742	0.02095
2093.23165	0.02083
2091.94588	0.02073
2090.66011	0.02069
2089.37434	0.02078
2088.08857	0.02103
2086.80281	0.02133
2085.51704	0.02147
2084.23127	0.02137
2082.94550	0.02110
2081.65973	0.02075
2080.37396	0.02038
2079.08819	0.02013
2077.80242	0.02010
2076.51666	0.02018
2075.23089	0.02011
2073.94512	0.01982
2072.65935	0.01960
2071.37358	0.01966
2070.08781	0.01974
2068.80204	0.01935
2067.51627	0.01836
2066.23050	0.01715
2064.94474	0.01621
2063.65897	0.01575
2062.37320	0.01568
2061.08743	0.01581
2059.80166	0.01597
2058.51589	0.01603
2057.23012	0.01589
2055.94435	0.01566
2054.65859	0.01552
2053.37282	0.01554
2052.08705	0.01562
2050.80128	0.01566
2049.51551	0.01554
2048.22974	0.01505
2046.94397	0.01395
2045.65820	0.01237
2044.37243	0.01090
2043.08667	0.01022
2041.80090	0.01041
2040.51513	0.01095
2039.22936	0.01134
2037.94359	0.01163
2036.65782	0.01209
2035.37205	0.01269
2034.08628	0.01300
2032.80052	0.01271
2031.51475	0.01198
2030.22898	0.01135
2028.94321	0.01133
2027.65744	0.01192
2026.37167	0.01255
2025.08590	0.01260
2023.80013	0.01212
2022.51436	0.01174
2021.22860	0.01184
2019.94283	0.01211
2018.65706	0.01210
2017.37129	0.01203
2016.08552	0.01247
2014.79975	0.01346
2013.51398	0.01429
2012.22821	0.01428
2010.94245	0.01350
2009.65668	0.01262
2008.37091	0.01234
2007.08514	0.01288
2005.79937	0.01395
2004.51360	0.01497
2003.22783	0.01550
2001.94206	0.01548
2000.65629	0.01525
1999.37053	0.01528
1998.08476	0.01579
1996.79899	0.01659
1995.51322	0.01722
1994.22745	0.01732
1992.94168	0.01690
1991.65591	0.01639
1990.37014	0.01622
1989.08438	0.01642
1987.79861	0.01662
1986.51284	0.01645
1985.22707	0.01604
1983.94130	0.01590
1982.65553	0.01624
1981.36976	0.01675
1980.08399	0.01699
1978.79822	0.01693
1977.51246	0.01684
1976.22669	0.01677
1974.94092	0.01643
1973.65515	0.01562
1972.36938	0.01458
1971.08361	0.01392
1969.79784	0.01407
1968.51207	0.01492
1967.22631	0.01595
1965.94054	0.01666
1964.65477	0.01685
1963.36900	0.01668
1962.08323	0.01643
1960.79746	0.01634
1959.51169	0.01653
1958.22592	0.01689
1956.94015	0.01719
1955.65439	0.01719
1954.36862	0.01691
1953.08285	0.01659
1951.79708	0.01649
1950.51131	0.01665
1949.22554	0.01696
1947.93977	0.01738
1946.65400	0.01788
1945.36823	0.01836
1944.08247	0.01866
1942.79670	0.01879
1941.51093	0.01897
1940.22516	0.01934
1938.93939	0.01981
1937.65362	0.02019
1936.36785	0.02041
1935.08208	0.02053
1933.79632	0.02055
1932.51055	0.02045
1931.22478	0.02027
1929.93901	0.02008
1928.65324	0.01987
1927.36747	0.01965
1926.08170	0.01953
1924.79593	0.01968
1923.51016	0.02007
1922.22440	0.02054
1920.93863	0.02094
1919.65286	0.02124
1918.36709	0.02140
1917.08132	0.02144
1915.79555	0.02142
1914.50978	0.02143
1913.22401	0.02151
1911.93825	0.02163
1910.65248	0.02171
1909.36671	0.02166
1908.08094	0.02150
1906.79517	0.02136
1905.50940	0.02148
1904.22363	0.02194
1902.93786	0.02254
1901.65209	0.02295
1900.36633	0.02293
1899.08056	0.02260
1897.79479	0.02222
1896.50902	0.02204
1895.22325	0.02206
1893.93748	0.02219
1892.65171	0.02232
1891.36594	0.02239
1890.08018	0.02230
1888.79441	0.02202
1887.50864	0.02169
1886.22287	0.02148
1884.93710	0.02143
1883.65133	0.02141
1882.36556	0.02136
1881.07979	0.02139
1879.79402	0.02157
1878.50826	0.02183
1877.22249	0.02200
1875.93672	0.02202
1874.65095	0.02201
1873.36518	0.02208
1872.07941	0.02220
1870.79364	0.02221
1869.50787	0.02208
1868.22211	0.02192
1866.93634	0.02186
1865.65057	0.02190
1864.36480	0.02190
1863.07903	0.02182
1861.79326	0.02170
1860.50749	0.02162
1859.22172	0.02156
1857.93595	0.02149
1856.65019	0.02141
1855.36442	0.02142
1854.07865	0.02157
1852.79288	0.02178
1851.50711	0.02192
1850.22134	0.02193
1848.93557	0.02189
1847.64980	0.02190
1846.36404	0.02201
1845.07827	0.02215
1843.79250	0.02223
1842.50673	0.02221
1841.22096	0.02209
1839.93519	0.02188
1838.64942	0.02162
1837.36365	0.02143
1836.07788	0.02141
1834.79212	0.02161
1833.50635	0.02191
1832.22058	0.02213
1830.93481	0.02220
1829.64904	0.02222
1828.36327	0.02233
1827.07750	0.02256
1825.79173	0.02284
1824.50597	0.02307
1823.22020	0.02323
1821.93443	0.02335
1820.64866	0.02343
1819.36289	0.02340
1818.07712	0.02322
1816.79135	0.02295
1815.50558	0.02272
1814.21981	0.02259
1812.93405	0.02250
1811.64828	0.02238
1810.36251	0.02222
1809.07674	0.02214
1807.79097	0.02223
1806.50520	0.02246
1805.21943	0.02273
1803.93366	0.02289
1802.64790	0.02293
1801.36213	0.02290
1800.07636	0.02286
1798.79059	0.02283
1797.50482	0.02278
1796.21905	0.02275
1794.93328	0.02278
1793.64751	0.02289
1792.36174	0.02304
1791.07598	0.02323
1789.79021	0.02342
1788.50444	0.02356
1787.21867	0.02360
1785.93290	0.02354
1784.64713	0.02345
1783.36136	0.02339
1782.07559	0.02339
1780.78983	0.02345
1779.50406	0.02354
1778.21829	0.02369
1776.93252	0.02388
1775.64675	0.02408
1774.36098	0.02424
1773.07521	0.02434
1771.78944	0.02437
1770.50367	0.02437
1769.21791	0.02437
1767.93214	0.02434
1766.64637	0.02428
1765.36060	0.02423
1764.07483	0.02424
1762.78906	0.02437
1761.50329	0.02457
1760.21752	0.02475
1758.93176	0.02485
1757.64599	0.02488
1756.36022	0.02491
1755.07445	0.02497
1753.78868	0.02506
1752.50291	0.02516
1751.21714	0.02523
1749.93137	0.02528
1748.64560	0.02531
1747.35984	0.02535
1746.07407	0.02544
1744.78830	0.02558
1743.50253	0.02573
1742.21676	0.02585
1740.93099	0.02598
1739.64522	0.02613
1738.35945	0.02636
1737.07369	0.02663
1735.78792	0.02689
1734.50215	0.02707
1733.21638	0.02714
1731.93061	0.02713
1730.64484	0.02713
1729.35907	0.02721
1728.07330	0.02740
1726.78753	0.02761
1725.50177	0.02780
1724.21600	0.02796
1722.93023	0.02818
1721.64446	0.02853
1720.35869	0.02902
1719.07292	0.02956
1717.78715	0.03006
1716.50138	0.03046
1715.21561	0.03079
1713.92985	0.03112
1712.64408	0.03147
1711.35831	0.03187
1710.07254	0.03231
1708.78677	0.03284
1707.50100	0.03342
1706.21523	0.03398
1704.92946	0.03447
1703.64370	0.03492
1702.35793	0.03539
1701.07216	0.03590
1699.78639	0.03635
1698.50062	0.03671
1697.21485	0.03701
1695.92908	0.03730
1694.64331	0.03756
1693.35754	0.03779
1692.07178	0.03796
1690.78601	0.03811
1689.50024	0.03831
1688.21447	0.03859
1686.92870	0.03894
1685.64293	0.03930
1684.35716	0.03960
1683.07139	0.03979
1681.78563	0.03993
1680.49986	0.04011
1679.21409	0.04040
1677.92832	0.04080
1676.64255	0.04122
1675.35678	0.04160
1674.07101	0.04192
1672.78524	0.04219
1671.49947	0.04248
1670.21371	0.04278
1668.92794	0.04306
1667.64217	0.04329
1666.35640	0.04352
1665.07063	0.04381
1663.78486	0.04415
1662.49909	0.04451
1661.21332	0.04482
1659.92756	0.04510
1658.64179	0.04536
1657.35602	0.04569
1656.07025	0.04609
1654.78448	0.04653
1653.49871	0.04685
1652.21294	0.04696
1650.92717	0.04692
1649.64140	0.04691
1648.35564	0.04704
1647.06987	0.04729
1645.78410	0.04753
1644.49833	0.04766
1643.21256	0.04770
1641.92679	0.04772
1640.64102	0.04779
1639.35525	0.04795
1638.06949	0.04817
1636.78372	0.04836
1635.49795	0.04845
1634.21218	0.04842
1632.92641	0.04836
1631.64064	0.04840
1630.35487	0.04858
1629.06910	0.04886
1627.78333	0.04917
1626.49757	0.04948
1625.21180	0.04975
1623.92603	0.04996
1622.64026	0.05009
1621.35449	0.05020
1620.06872	0.05039
1618.78295	0.05071
1617.49718	0.05107
1616.21142	0.05137
1614.92565	0.05157
1613.63988	0.05172
1612.35411	0.05191
1611.06834	0.05215
1609.78257	0.05240
1608.49680	0.05263
1607.21103	0.05286
1605.92526	0.05312
1604.63950	0.05340
1603.35373	0.05367
1602.06796	0.05391
1600.78219	0.05411
1599.49642	0.05429
1598.21065	0.05447
1596.92488	0.05464
1595.63911	0.05483
1594.35335	0.05505
1593.06758	0.05531
1591.78181	0.05556
1590.49604	0.05576
1589.21027	0.05590
1587.92450	0.05601
1586.63873	0.05613
1585.35296	0.05625
1584.06719	0.05638
1582.78143	0.05653
1581.49566	0.05674
1580.20989	0.05705
1578.92412	0.05742
1577.63835	0.05780
1576.35258	0.05809
1575.06681	0.05826
1573.78104	0.05834
1572.49528	0.05843
1571.20951	0.05860
1569.92374	0.05882
1568.63797	0.05902
1567.35220	0.05919
1566.06643	0.05933
1564.78066	0.05950
1563.49489	0.05974
1562.20912	0.06009
1560.92336	0.06053
1559.63759	0.06096
1558.35182	0.06124
1557.06605	0.06136
1555.78028	0.06140
1554.49451	0.06148
1553.20874	0.06166
1551.92297	0.06190
1550.63721	0.06214
1549.35144	0.06234
1548.06567	0.06249
1546.77990	0.06261
1545.49413	0.06275
1544.20836	0.06290
1542.92259	0.06308
1541.63682	0.06325
1540.35105	0.06338
1539.06529	0.06344
1537.77952	0.06345
1536.49375	0.06353
1535.20798	0.06376
1533.92221	0.06413
1532.63644	0.06456
1531.35067	0.06501
1530.06490	0.06550
1528.77914	0.06609
1527.49337	0.06679
1526.20760	0.06761
1524.92183	0.06856
1523.63606	0.06965
1522.35029	0.07083
1521.06452	0.07206
1519.77875	0.07328
1518.49298	0.07453
1517.20722	0.07587
1515.92145	0.07733
1514.63568	0.07892
1513.34991	0.08061
1512.06414	0.08241
1510.77837	0.08430
1509.49260	0.08628
1508.20683	0.08828
1506.92107	0.09016
1505.63530	0.09181
1504.34953	0.09322
1503.06376	0.09449
1501.77799	0.09573
1500.49222	0.09698
1499.20645	0.09819
1497.92068	0.09934
1496.63491	0.10040
1495.34915	0.10140
1494.06338	0.10236
1492.77761	0.10334
1491.49184	0.10439
1490.20607	0.10552
1488.92030	0.10671
1487.63453	0.10796
1486.34876	0.10929
1485.06299	0.11071
1483.77723	0.11222
1482.49146	0.11379
1481.20569	0.11538
1479.91992	0.11700
1478.63415	0.11865
1477.34838	0.12028
1476.06261	0.12185
1474.77684	0.12332
1473.49108	0.12470
1472.20531	0.12598
1470.91954	0.12717
1469.63377	0.12828
1468.34800	0.12935
1467.06223	0.13037
1465.77646	0.13130
1464.49069	0.13208
1463.20492	0.13272
1461.91916	0.13334
1460.63339	0.13409
1459.34762	0.13504
1458.06185	0.13609
1456.77608	0.13702
1455.49031	0.13771
1454.20454	0.13817
1452.91877	0.13851
1451.63301	0.13878
1450.34724	0.13899
1449.06147	0.13910
1447.77570	0.13912
1446.48993	0.13903
1445.20416	0.13881
1443.91839	0.13843
1442.63262	0.13794
1441.34685	0.13745
1440.06109	0.13703
1438.77532	0.13677
1437.48955	0.13669
1436.20378	0.13682
1434.91801	0.13719
1433.63224	0.13787
1432.34647	0.13889
1431.06070	0.14021
1429.77494	0.14179
1428.48917	0.14355
1427.20340	0.14545
1425.91763	0.14743
1424.63186	0.14945
1423.34609	0.15148
1422.06032	0.15352
1420.77455	0.15551
1419.48878	0.15732
1418.20302	0.15885
1416.91725	0.16002
1415.63148	0.16086
1414.34571	0.16139
1413.05994	0.16165
1411.77417	0.16163
1410.48840	0.16136
1409.20263	0.16082
1407.91687	0.15998
1406.63110	0.15877
1405.34533	0.15720
1404.05956	0.15532
1402.77379	0.15326
1401.48802	0.15106
1400.20225	0.14871
1398.91648	0.14618
1397.63071	0.14349
1396.34495	0.14066
1395.05918	0.13776
1393.77341	0.13478
1392.48764	0.13178
1391.20187	0.12880
1389.91610	0.12592
1388.63033	0.12320
1387.34456	0.12064
1386.05880	0.11820
1384.77303	0.11581
1383.48726	0.11347
1382.20149	0.11118
1380.91572	0.10893
1379.62995	0.10666
1378.34418	0.10427
1377.05841	0.10168
1375.77264	0.09886
1374.48688	0.09581
1373.20111	0.09259
1371.91534	0.08929
1370.62957	0.08601
1369.34380	0.08289
1368.05803	0.08002
1366.77226	0.07744
1365.48649	0.07509
1364.20073	0.07286
1362.91496	0.07064
1361.62919	0.06840
1360.34342	0.06623
1359.05765	0.06425
1357.77188	0.06252
1356.48611	0.06100
1355.20034	0.05959
1353.91457	0.05825
1352.62881	0.05694
1351.34304	0.05564
1350.05727	0.05437
1348.77150	0.05317
1347.48573	0.05204
1346.19996	0.05101
1344.91419	0.05009
1343.62842	0.04926
1342.34266	0.04850
1341.05689	0.04778
1339.77112	0.04706
1338.48535	0.04638
1337.19958	0.04575
1335.91381	0.04516
1334.62804	0.04462
1333.34227	0.04411
1332.05650	0.04362
1330.77074	0.04312
1329.48497	0.04263
1328.19920	0.04217
1326.91343	0.04179
1325.62766	0.04149
1324.34189	0.04125
1323.05612	0.04102
1321.77035	0.04076
1320.48459	0.04044
1319.19882	0.04008
1317.91305	0.03971
1316.62728	0.03936
1315.34151	0.03901
1314.05574	0.03866
1312.76997	0.03831
1311.48420	0.03799
1310.19843	0.03774
1308.91267	0.03753
1307.62690	0.03734
1306.34113	0.03715
1305.05536	0.03696
1303.76959	0.03675
1302.48382	0.03649
1301.19805	0.03619
1299.91228	0.03586
1298.62652	0.03556
1297.34075	0.03533
1296.05498	0.03515
1294.76921	0.03499
1293.48344	0.03481
1292.19767	0.03457
1290.91190	0.03429
1289.62613	0.03401
1288.34036	0.03378
1287.05460	0.03359
1285.76883	0.03342
1284.48306	0.03323
1283.19729	0.03301
1281.91152	0.03278
1280.62575	0.03256
1279.33998	0.03237
1278.05421	0.03222
1276.76845	0.03210
1275.48268	0.03202
1274.19691	0.03192
1272.91114	0.03176
1271.62537	0.03154
1270.33960	0.03129
1269.05383	0.03105
1267.76806	0.03085
1266.48229	0.03070
1265.19653	0.03058
1263.91076	0.03049
1262.62499	0.03039
1261.33922	0.03028
1260.05345	0.03013
1258.76768	0.02995
1257.48191	0.02975
1256.19614	0.02954
1254.91037	0.02936
1253.62461	0.02922
1252.33884	0.02912
1251.05307	0.02903
1249.76730	0.02892
1248.48153	0.02880
1247.19576	0.02868
1245.90999	0.02857
1244.62422	0.02847
1243.33846	0.02836
1242.05269	0.02825
1240.76692	0.02816
1239.48115	0.02806
1238.19538	0.02793
1236.90961	0.02776
1235.62384	0.02757
1234.33807	0.02742
1233.05230	0.02732
1231.76654	0.02725
1230.48077	0.02719
1229.19500	0.02711
1227.90923	0.02698
1226.62346	0.02684
1225.33769	0.02670
1224.05192	0.02659
1222.76615	0.02652
1221.48039	0.02648
1220.19462	0.02644
1218.90885	0.02638
1217.62308	0.02630
1216.33731	0.02624
1215.05154	0.02620
1213.76577	0.02618
1212.48000	0.02616
1211.19423	0.02612
1209.90847	0.02608
1208.62270	0.02604
1207.33693	0.02602
1206.05116	0.02601
1204.76539	0.02601
1203.47962	0.02606
1202.19385	0.02614
1200.90808	0.02615
1199.62232	0.02602
1198.33655	0.02604
1197.05078	0.02604
1195.76501	0.02602
1194.47924	0.02599
1193.19347	0.02598
1191.90770	0.02602
1190.62193	0.02607
1189.33616	0.02609
1188.05040	0.02606
1186.76463	0.02601
1185.47886	0.02599
1184.19309	0.02605
1182.90732	0.02613
1181.62155	0.02617
1180.33578	0.02614
1179.05001	0.02609
1177.76425	0.02612
1176.47848	0.02627
1175.19271	0.02651
1173.90694	0.02674
1172.62117	0.02692
1171.33540	0.02707
1170.04963	0.02721
1168.76386	0.02740
1167.47809	0.02760
1166.19233	0.02779
1164.90656	0.02795
1163.62079	0.02812
1162.33502	0.02837
1161.04925	0.02873
1159.76348	0.02917
1158.47771	0.02964
1157.19194	0.03011
1155.90618	0.03054
1154.62041	0.03092
1153.33464	0.03131
1152.04887	0.03175
1150.76310	0.03229
1149.47733	0.03290
1148.19156	0.03356
1146.90579	0.03430
1145.62002	0.03518
1144.33426	0.03622
1143.04849	0.03737
1141.76272	0.03858
1140.47695	0.03986
1139.19118	0.04125
1137.90541	0.04276
1136.61964	0.04437
1135.33387	0.04610
1134.04811	0.04803
1132.76234	0.05025
1131.47657	0.05282
1130.19080	0.05578
1128.90503	0.05909
1127.61926	0.06264
1126.33349	0.06636
1125.04772	0.07027
1123.76195	0.07444
1122.47619	0.07887
1121.19042	0.08349
1119.90465	0.08815
1118.61888	0.09275
1117.33311	0.09725
1116.04734	0.10165
1114.76157	0.10598
1113.47580	0.11026
1112.19004	0.11449
1110.90427	0.11863
1109.61850	0.12269
1108.33273	0.12666
1107.04696	0.13052
1105.76119	0.13425
1104.47542	0.13782
1103.18965	0.14125
1101.90388	0.14456
1100.61812	0.14779
1099.33235	0.15092
1098.04658	0.15389
1096.76081	0.15669
1095.47504	0.15932
1094.18927	0.16183
1092.90350	0.16425
1091.61773	0.16663
1090.33197	0.16895
1089.04620	0.17119
1087.76043	0.17335
1086.47466	0.17546
1085.18889	0.17760
1083.90312	0.17985
1082.61735	0.18228
1081.33158	0.18489
1080.04581	0.18766
1078.76005	0.19057
1077.47428	0.19365
1076.18851	0.19691
1074.90274	0.20032
1073.61697	0.20383
1072.33120	0.20745
1071.04543	0.21116
1069.75966	0.21490
1068.47390	0.21862
1067.18813	0.22233
1065.90236	0.22612
1064.61659	0.23009
1063.33082	0.23425
1062.04505	0.23852
1060.75928	0.24278
1059.47351	0.24696
1058.18774	0.25098
1056.90198	0.25485
1055.61621	0.25864
1054.33044	0.26246
1053.04467	0.26641
1051.75890	0.27051
1050.47313	0.27470
1049.18736	0.27896
1047.90159	0.28332
1046.61583	0.28786
1045.33006	0.29259
1044.04429	0.29749
1042.75852	0.30253
1041.47275	0.30768
1040.18698	0.31289
1038.90121	0.31814
1037.61544	0.32340
1036.32967	0.32871
1035.04391	0.33403
1033.75814	0.33924
1032.47237	0.34417
1031.18660	0.34873
1029.90083	0.35292
1028.61506	0.35678
1027.32929	0.36032
1026.04352	0.36346
1024.75775	0.36615
1023.47199	0.36839
1022.18622	0.37018
1020.90045	0.37147
1019.61468	0.37222
1018.32891	0.37238
1017.04314	0.37186
1015.75737	0.37060
1014.47160	0.36866
1013.18584	0.36612
1011.90007	0.36296
1010.61430	0.35913
1009.32853	0.35458
1008.04276	0.34933
1006.75699	0.34344
1005.47122	0.33694
1004.18545	0.32987
1002.89968	0.32230
1001.61392	0.31432
1000.32815	0.30602
999.04238	0.29747
997.75661	0.28869
996.47084	0.27967
995.18507	0.27044
993.89930	0.26114
992.61353	0.25192
991.32777	0.24286
990.04200	0.23403
988.75623	0.22546
987.47046	0.21720
986.18469	0.20923
984.89892	0.20160
983.61315	0.19438
982.32738	0.18761
981.04161	0.18125
979.75585	0.17525
978.47008	0.16960
977.18431	0.16438
975.89854	0.15971
974.61277	0.15570
973.32700	0.15239
972.04123	0.14974
970.75546	0.14772
969.46970	0.14638
968.18393	0.14577
966.89816	0.14585
965.61239	0.14649
964.32662	0.14739
963.04085	0.14825
961.75508	0.14876
960.46931	0.14867
959.18354	0.14781
957.89778	0.14611
956.61201	0.14364
955.32624	0.14059
954.04047	0.13724
952.75470	0.13377
951.46893	0.13027
950.18316	0.12676
948.89739	0.12332
947.61163	0.12001
946.32586	0.11686
945.04009	0.11380
943.75432	0.11079
942.46855	0.10783
941.18278	0.10495
939.89701	0.10219
938.61124	0.09960
937.32547	0.09726
936.03971	0.09516
934.75394	0.09324
933.46817	0.09141
932.18240	0.08965
930.89663	0.08794
929.61086	0.08630
928.32509	0.08473
927.03932	0.08323
925.75356	0.08185
924.46779	0.08060
923.18202	0.07946
921.89625	0.07840
920.61048	0.07740
919.32471	0.07644
918.03894	0.07548
916.75317	0.07452
915.46740	0.07359
914.18164	0.07272
912.89587	0.07189
911.61010	0.07109
910.32433	0.07039
909.03856	0.06981
907.75279	0.06931
906.46702	0.06881
905.18125	0.06824
903.89549	0.06759
902.60972	0.06691
901.32395	0.06623
900.03818	0.06559
898.75241	0.06503
897.46664	0.06457
896.18087	0.06422
894.89510	0.06402
893.60933	0.06393
892.32357	0.06391
891.03780	0.06392
889.75203	0.06404
888.46626	0.06443
887.18049	0.06533
885.89472	0.06701
884.60895	0.06976
883.32318	0.07363
882.03742	0.07826
880.75165	0.08288
879.46588	0.08677
878.18011	0.08964
876.89434	0.09182
875.60857	0.09388
874.32280	0.09601
873.03703	0.09786
871.75126	0.09882
870.46550	0.09850
869.17973	0.09690
867.89396	0.09434
866.60819	0.09114
865.32242	0.08758
864.03665	0.08392
862.75088	0.08038
861.46511	0.07716
860.17935	0.07434
858.89358	0.07191
857.60781	0.06984
856.32204	0.06809
855.03627	0.06662
853.75050	0.06537
852.46473	0.06428
851.17896	0.06332
849.89319	0.06247
848.60743	0.06169
847.32166	0.06099
846.03589	0.06043
844.75012	0.05994
843.46435	0.05945
842.17858	0.05890
840.89281	0.05833
839.60704	0.05780
838.32128	0.05733
837.03551	0.05693
835.74974	0.05657
834.46397	0.05626
833.17820	0.05600
831.89243	0.05574
830.60666	0.05548
829.32089	0.05520
828.03512	0.05493
826.74936	0.05470
825.46359	0.05451
824.17782	0.05434
822.89205	0.05417
821.60628	0.05400
820.32051	0.05388
819.03474	0.05384
817.74897	0.05388
816.46321	0.05397
815.17744	0.05404
813.89167	0.05404
812.60590	0.05399
811.32013	0.05389
810.03436	0.05373
808.74859	0.05350
807.46282	0.05323
806.17705	0.05299
804.89129	0.05281
803.60552	0.05266
802.31975	0.05249
801.03398	0.05230
799.74821	0.05213
798.46244	0.05202
797.17667	0.05198
795.89090	0.05197
794.60513	0.05198
793.31937	0.05198
792.03360	0.05196
790.74783	0.05188
789.46206	0.05172
788.17629	0.05148
786.89052	0.05118
785.60475	0.05090
784.31898	0.05068
783.03322	0.05054
781.74745	0.05050
780.46168	0.05052
779.17591	0.05053
777.89014	0.05050
776.60437	0.05042
775.31860	0.05031
774.03283	0.05021
772.74706	0.05008
771.46130	0.04994
770.17553	0.04983
768.88976	0.04980
767.60399	0.04982
766.31822	0.04984
765.03245	0.04986
763.74668	0.04992
762.46091	0.05006
761.17515	0.05022
759.88938	0.05034
758.60361	0.05035
757.31784	0.05026
756.03207	0.05011
754.74630	0.05000
753.46053	0.04998
752.17476	0.05000
750.88899	0.04996
749.60323	0.04985
748.31746	0.04975
747.03169	0.04975
745.74592	0.04988
744.46015	0.05002
743.17438	0.05003
741.88861	0.04981
740.60284	0.04942
739.31708	0.04901
738.03131	0.04870
736.74554	0.04850
735.45977	0.04838
734.17400	0.04832
732.88823	0.04828
731.60246	0.04825
730.31669	0.04819
729.03092	0.04819
727.74516	0.04827
726.45939	0.04843
725.17362	0.04855
723.88785	0.04854
722.60208	0.04847
721.31631	0.04839
720.03054	0.04830
718.74477	0.04818
717.45901	0.04802
716.17324	0.04783
714.88747	0.04766
713.60170	0.04754
712.31593	0.04744
711.03016	0.04733
709.74439	0.04720
708.45862	0.04703
707.17285	0.04684
705.88709	0.04660
704.60132	0.04636
703.31555	0.04616
702.02978	0.04605
700.74401	0.04604
699.45824	0.04610
698.17247	0.04618
696.88670	0.04621
695.60094	0.04618
694.31517	0.04611
693.02940	0.04600
691.74363	0.04586
690.45786	0.04570
689.17209	0.04555
687.88632	0.04540
686.60055	0.04525
685.31478	0.04508
684.02902	0.04487
682.74325	0.04466
681.45748	0.04448
680.17171	0.04435
678.88594	0.04428
677.60017	0.04423
676.31440	0.04417
675.02863	0.04409
673.74287	0.04402
672.45710	0.04401
671.17133	0.04408
669.88556	0.04421
668.59979	0.04437
667.31402	0.04442
666.02825	0.04425
664.74248	0.04398
663.45671	0.04363
662.17095	0.04328
660.88518	0.04299
659.59941	0.04277
658.31364	0.04260
657.02787	0.04245
655.74210	0.04230
654.45633	0.04216
653.17056	0.04203
651.88480	0.04196
650.59903	0.04196
649.31326	0.04198
648.02749	0.04197
646.74172	0.04189
645.45595	0.04180
644.17018	0.04175
642.88441	0.04177
641.59864	0.04186
640.31288	0.04200
639.02711	0.04222
637.74134	0.04251
636.45557	0.04289
635.16980	0.04340
633.88403	0.04403
632.59826	0.04472
631.31249	0.04554
630.02673	0.04711
628.74096	0.04914
627.45519	0.04899
626.16942	0.05150
624.88365	0.05621
623.59788	0.06170
622.31211	0.06750
621.02634	0.07291
619.74057	0.07698
618.45481	0.07936
617.16904	0.08051
615.88327	0.08129
614.59750	0.08256
613.31173	0.08515
612.02596	0.08981
610.74019	0.09669
609.45442	0.10483
608.16866	0.11273
606.88289	0.11964
605.59712	0.12571
604.31135	0.13083
603.02558	0.13412
601.73981	0.13479
600.45404	0.13310
599.16827	0.13014
597.88250	0.12686
596.59674	0.12364
595.31097	0.12047
594.02520	0.11735
592.73943	0.11448
591.45366	0.11211
590.16789	0.11047
588.88212	0.10970
587.59635	0.10991
586.31059	0.11105
585.02482	0.11292
583.73905	0.11530
582.45328	0.11799
581.16751	0.12089
579.88174	0.12390
578.59597	0.12696
577.31020	0.13002
576.02443	0.13304
574.73867	0.13600
573.45290	0.13893
572.16713	0.14195
570.88136	0.14524
569.59559	0.14904
568.30982	0.15350
567.02405	0.15862
565.73828	0.16409
564.45251	0.16932
563.16675	0.17345
561.88098	0.17566
560.59521	0.17543
559.30944	0.17273
558.02367	0.16793
556.73790	0.16157
555.45213	0.15426
554.16636	0.14657
552.88060	0.13894
551.59483	0.13163
550.30906	0.12474
549.02329	0.11830
547.73752	0.11239
546.45175	0.10708
545.16598	0.10234
543.88021	0.09806
542.59444	0.09416
541.30868	0.09064
540.02291	0.08754
538.73714	0.08485
537.45137	0.08246
536.16560	0.08023
534.87983	0.07806
533.59406	0.07593
532.30829	0.07386
531.02253	0.07187
529.73676	0.06998
528.45099	0.06822
527.16522	0.06662
525.87945	0.06515
524.59368	0.06369
523.30791	0.06219
522.02214	0.06065
520.73637	0.05920
519.45061	0.05791
518.16484	0.05681
516.87907	0.05583
515.59330	0.05489
514.30753	0.05398
513.02176	0.05311
511.73599	0.05231
510.45022	0.05158
509.16446	0.05092
507.87869	0.05027
506.59292	0.04962
505.30715	0.04894
504.02138	0.04822
502.73561	0.04748
501.44984	0.04680
500.16407	0.04622
498.87830	0.04573
497.59254	0.04530
496.30677	0.04488
495.02100	0.04446
493.73523	0.04405
492.44946	0.04370
491.16369	0.04340
489.87792	0.04313
488.59215	0.04285
487.30639	0.04257
486.02062	0.04236
484.73485	0.04230
483.44908	0.04243
482.16331	0.04268
480.87754	0.04298
479.59177	0.04325
478.30600	0.04354
477.02023	0.04388
475.73447	0.04429
474.44870	0.04468
473.16293	0.04501
471.87716	0.04526
470.59139	0.04542
469.30562	0.04547
468.01985	0.04536
466.73408	0.04510
465.44832	0.04474
464.16255	0.04436
462.87678	0.04398
461.59101	0.04361
460.30524	0.04322
459.01947	0.04279
457.73370	0.04230
456.44793	0.04178
455.16216	0.04128
453.87640	0.04086
452.59063	0.04051
451.30486	0.04021
450.01909	0.03990
448.73332	0.03958
447.44755	0.03929
446.16178	0.03908
444.87601	0.03895
443.59025	0.03885
442.30448	0.03872
441.01871	0.03854
439.73294	0.03835
438.44717	0.03818
437.16140	0.03804
435.87563	0.03792
434.58986	0.03784
433.30409	0.03778
432.01833	0.03773
430.73256	0.03766
429.44679	0.03751
428.16102	0.03731
426.87525	0.03712
425.58948	0.03700
424.30371	0.03690
423.01794	0.03678
421.73218	0.03657
420.44641	0.03629
419.16064	0.03600
417.87487	0.03575
416.58910	0.03558
415.30333	0.03546
414.01756	0.03534
412.73179	0.03521
411.44602	0.03509
410.16026	0.03500
408.87449	0.03496
407.58872	0.03494
406.30295	0.03492
405.01718	0.03492
403.73141	0.03496
402.44564	0.03507
401.15987	0.03524
399.87411	0.03544
