3997.45528	0.01656
3996.16951	0.01709
3994.88374	0.01781
3993.59798	0.01836
3992.31221	0.01834
3991.02644	0.01780
3989.74067	0.01716
3988.45490	0.01676
3987.16913	0.01668
3985.88336	0.01688
3984.59759	0.01734
3983.31183	0.01797
3982.02606	0.01852
3980.74029	0.01878
3979.45452	0.01877
3978.16875	0.01864
3976.88298	0.01847
3975.59721	0.01826
3974.31144	0.01803
3973.02567	0.01783
3971.73991	0.01761
3970.45414	0.01733
3969.16837	0.01716
3967.88260	0.01732
3966.59683	0.01789
3965.31106	0.01866
3964.02529	0.01929
3962.73952	0.01958
3961.45376	0.01950
3960.16799	0.01920
3958.88222	0.01883
3957.59645	0.01854
3956.31068	0.01838
3955.02491	0.01826
3953.73914	0.01803
3952.45337	0.01766
3951.16760	0.01735
3949.88184	0.01730
3948.59607	0.01745
3947.31030	0.01749
3946.02453	0.01726
3944.73876	0.01687
3943.45299	0.01653
3942.16722	0.01625
3940.88145	0.01586
3939.59569	0.01533
3938.30992	0.01489
3937.02415	0.01482
3935.73838	0.01520
3934.45261	0.01582
3933.16684	0.01639
3931.88107	0.01679
3930.59530	0.01708
3929.30953	0.01739
3928.02377	0.01766
3926.73800	0.01764
3925.45223	0.01722
3924.16646	0.01666
3922.88069	0.01647
3921.59492	0.01689
3920.30915	0.01768
3919.02338	0.01825
3917.73762	0.01823
3916.45185	0.01770
3915.16608	0.01706
3913.88031	0.01653
3912.59454	0.01608
3911.30877	0.01568
3910.02300	0.01542
3908.73723	0.01547
3907.45146	0.01593
3906.16570	0.01669
3904.87993	0.01755
3903.59416	0.01823
3902.30839	0.01854
3901.02262	0.01846
3899.73685	0.01809
3898.45108	0.01758
3897.16531	0.01709
3895.87955	0.01669
3894.59378	0.01636
3893.30801	0.01597
3892.02224	0.01559
3890.73647	0.01542
3889.45070	0.01554
3888.16493	0.01568
3886.87916	0.01570
3885.59339	0.01573
3884.30763	0.01581
3883.02186	0.01574
3881.73609	0.01541
3880.45032	0.01510
3879.16455	0.01513
3877.87878	0.01554
3876.59301	0.01617
3875.30724	0.01679
3874.02148	0.01722
3872.73571	0.01736
3871.44994	0.01736
3870.16417	0.01759
3868.87840	0.01809
3867.59263	0.01832
3866.30686	0.01778
3865.02109	0.01677
3863.73532	0.01602
3862.44956	0.01588
3861.16379	0.01605
3859.87802	0.01609
3858.59225	0.01581
3857.30648	0.01541
3856.02071	0.01518
3854.73494	0.01537
3853.44917	0.01608
3852.16341	0.01702
3850.87764	0.01763
3849.59187	0.01765
3848.30610	0.01725
3847.02033	0.01673
3845.73456	0.01633
3844.44879	0.01613
3843.16302	0.01619
3841.87725	0.01636
3840.59149	0.01638
3839.30572	0.01613
3838.01995	0.01580
3836.73418	0.01564
3835.44841	0.01557
3834.16264	0.01549
3832.87687	0.01554
3831.59110	0.01588
3830.30534	0.01640
3829.01957	0.01686
3827.73380	0.01721
3826.44803	0.01763
3825.16226	0.01806
3823.87649	0.01802
3822.59072	0.01711
3821.30495	0.01558
3820.01918	0.01420
3818.73342	0.01361
3817.44765	0.01391
3816.16188	0.01477
3814.87611	0.01562
3813.59034	0.01602
3812.30457	0.01602
3811.01880	0.01600
3809.73303	0.01599
3808.44726	0.01577
3807.16150	0.01534
3805.87573	0.01498
3804.58996	0.01482
3803.30419	0.01483
3802.01842	0.01510
3800.73265	0.01564
3799.44688	0.01610
3798.16111	0.01610
3796.87535	0.01582
3795.58958	0.01577
3794.30381	0.01618
3793.01804	0.01682
3791.73227	0.01724
3790.44650	0.01709
3789.16073	0.01642
3787.87496	0.01565
3786.58919	0.01528
3785.30343	0.01542
3784.01766	0.01577
3782.73189	0.01587
3781.44612	0.01548
3780.16035	0.01477
3778.87458	0.01406
3777.58881	0.01358
3776.30304	0.01336
3775.01728	0.01342
3773.73151	0.01376
3772.44574	0.01427
3771.15997	0.01479
3769.87420	0.01524
3768.58843	0.01563
3767.30266	0.01603
3766.01689	0.01651
3764.73112	0.01719
3763.44536	0.01802
3762.15959	0.01873
3760.87382	0.01898
3759.58805	0.01856
3758.30228	0.01757
3757.01651	0.01648
3755.73074	0.01573
3754.44497	0.01536
3753.15921	0.01514
3751.87344	0.01493
3750.58767	0.01481
3749.30190	0.01503
3748.01613	0.01554
3746.73036	0.01586
3745.44459	0.01570
3744.15882	0.01548
3742.87305	0.01567
3741.58729	0.01616
3740.30152	0.01667
3739.01575	0.01697
3737.72998	0.01691
3736.44421	0.01648
3735.15844	0.01587
3733.87267	0.01527
3732.58690	0.01489
3731.30114	0.01483
3730.01537	0.01497
3728.72960	0.01502
3727.44383	0.01498
3726.15806	0.01507
3724.87229	0.01537
3723.58652	0.01565
3722.30075	0.01565
3721.01498	0.01528
3719.72922	0.01468
3718.44345	0.01413
3717.15768	0.01382
3715.87191	0.01373
3714.58614	0.01372
3713.30037	0.01375
3712.01460	0.01389
3710.72883	0.01418
3709.44307	0.01459
3708.15730	0.01507
3706.87153	0.01554
3705.58576	0.01586
3704.29999	0.01592
3703.01422	0.01581
3701.72845	0.01568
3700.44268	0.01565
3699.15691	0.01566
3697.87115	0.01556
3696.58538	0.01524
3695.29961	0.01473
3694.01384	0.01423
3692.72807	0.01399
3691.44230	0.01405
3690.15653	0.01427
3688.87076	0.01448
3687.58500	0.01461
3686.29923	0.01459
3685.01346	0.01445
3683.72769	0.01442
3682.44192	0.01472
3681.15615	0.01531
3679.87038	0.01591
3678.58461	0.01616
3677.29884	0.01601
3676.01308	0.01586
3674.72731	0.01610
3673.44154	0.01651
3672.15577	0.01665
3670.87000	0.01660
3669.58423	0.01667
3668.29846	0.01679
3667.01269	0.01664
3665.72693	0.01633
3664.44116	0.01626
3663.15539	0.01666
3661.86962	0.01731
3660.58385	0.01775
3659.29808	0.01769
3658.01231	0.01726
3656.72654	0.01689
3655.44077	0.01689
3654.15501	0.01710
3652.86924	0.01724
3651.58347	0.01728
3650.29770	0.01724
3649.01193	0.01703
3647.72616	0.01652
3646.44039	0.01579
3645.15462	0.01505
3643.86886	0.01448
3642.58309	0.01426
3641.29732	0.01451
3640.01155	0.01513
3638.72578	0.01580
3637.44001	0.01624
3636.15424	0.01629
3634.86847	0.01604
3633.58270	0.01566
3632.29694	0.01539
3631.01117	0.01542
3629.72540	0.01584
3628.43963	0.01656
3627.15386	0.01721
3625.86809	0.01749
3624.58232	0.01751
3623.29655	0.01748
3622.01079	0.01729
3620.72502	0.01670
3619.43925	0.01578
3618.15348	0.01493
3616.86771	0.01445
3615.58194	0.01432
3614.29617	0.01440
3613.01040	0.01459
3611.72463	0.01471
3610.43887	0.01465
3609.15310	0.01457
3607.86733	0.01486
3606.58156	0.01566
3605.29579	0.01656
3604.01002	0.01707
3602.72425	0.01713
3601.43848	0.01707
3600.15272	0.01708
3598.86695	0.01693
3597.58118	0.01644
3596.29541	0.01579
3595.00964	0.01533
3593.72387	0.01513
3592.43810	0.01502
3591.15233	0.01493
3589.86656	0.01491
3588.58080	0.01495
3587.29503	0.01498
3586.00926	0.01505
3584.72349	0.01528
3583.43772	0.01562
3582.15195	0.01585
3580.86618	0.01586
3579.58041	0.01581
3578.29464	0.01594
3577.00888	0.01637
3575.72311	0.01694
3574.43734	0.01736
3573.15157	0.01744
3571.86580	0.01725
3570.58003	0.01704
3569.29426	0.01711
3568.00849	0.01758
3566.72273	0.01829
3565.43696	0.01886
3564.15119	0.01895
3562.86542	0.01860
3561.57965	0.01810
3560.29388	0.01772
3559.00811	0.01753
3557.72234	0.01754
3556.43657	0.01781
3555.15081	0.01833
3553.86504	0.01887
3552.57927	0.01911
3551.29350	0.01896
3550.00773	0.01857
3548.72196	0.01810
3547.43619	0.01759
3546.15042	0.01708
3544.86466	0.01664
3543.57889	0.01633
3542.29312	0.01620
3541.00735	0.01632
3539.72158	0.01673
3538.43581	0.01729
3537.15004	0.01774
3535.86427	0.01795
3534.57850	0.01797
3533.29274	0.01795
3532.00697	0.01790
3530.72120	0.01772
3529.43543	0.01737
3528.14966	0.01700
3526.86389	0.01684
3525.57812	0.01705
3524.29235	0.01763
3523.00659	0.01833
3521.72082	0.01875
3520.43505	0.01847
3519.14928	0.01756
3517.86351	0.01661
3516.57774	0.01631
3515.29197	0.01687
3514.00620	0.01783
3512.72043	0.01857
3511.43467	0.01882
3510.14890	0.01874
3508.86313	0.01857
3507.57736	0.01837
3506.29159	0.01809
3505.00582	0.01769
3503.72005	0.01719
3502.43428	0.01661
3501.14852	0.01604
3499.86275	0.01578
3498.57698	0.01606
3497.29121	0.01676
3496.00544	0.01752
3494.71967	0.01809
3493.43390	0.01852
3492.14813	0.01895
3490.86236	0.01935
3489.57660	0.01959
3488.29083	0.01960
3487.00506	0.01953
3485.71929	0.01953
3484.43352	0.01966
3483.14775	0.01981
3481.86198	0.01983
3480.57621	0.01965
3479.29045	0.01938
3478.00468	0.01919
3476.71891	0.01917
3475.43314	0.01918
3474.14737	0.01910
3472.86160	0.01901
3471.57583	0.01908
3470.29006	0.01934
3469.00429	0.01951
3467.71853	0.01933
3466.43276	0.01886
3465.14699	0.01836
3463.86122	0.01809
3462.57545	0.01812
3461.28968	0.01838
3460.00391	0.01879
3458.71814	0.01933
3457.43238	0.01992
3456.14661	0.02034
3454.86084	0.02043
3453.57507	0.02026
3452.28930	0.02007
3451.00353	0.02001
3449.71776	0.02001
3448.43199	0.01998
3447.14622	0.01984
3445.86046	0.01964
3444.57469	0.01946
3443.28892	0.01938
3442.00315	0.01942
3440.71738	0.01942
3439.43161	0.01932
3438.14584	0.01922
3436.86007	0.01928
3435.57431	0.01951
3434.28854	0.01972
3433.00277	0.01971
3431.71700	0.01954
3430.43123	0.01937
3429.14546	0.01933
3427.85969	0.01934
3426.57392	0.01929
3425.28815	0.01921
3424.00239	0.01915
3422.71662	0.01915
3421.43085	0.01919
3420.14508	0.01929
3418.85931	0.01943
3417.57354	0.01953
3416.28777	0.01952
3415.00200	0.01943
3413.71624	0.01938
3412.43047	0.01941
3411.14470	0.01942
3409.85893	0.01942
3408.57316	0.01952
3407.28739	0.01982
3406.00162	0.02026
3404.71585	0.02066
3403.43008	0.02081
3402.14432	0.02069
3400.85855	0.02050
3399.57278	0.02044
3398.28701	0.02062
3397.00124	0.02087
3395.71547	0.02097
3394.42970	0.02070
3393.14393	0.02005
3391.85817	0.01916
3390.57240	0.01834
3389.28663	0.01788
3388.00086	0.01791
3386.71509	0.01831
3385.42932	0.01884
3384.14355	0.01926
3382.85778	0.01943
3381.57201	0.01933
3380.28625	0.01907
3379.00048	0.01878
3377.71471	0.01860
3376.42894	0.01868
3375.14317	0.01914
3373.85740	0.01986
3372.57163	0.02051
3371.28586	0.02077
3370.00010	0.02058
3368.71433	0.02015
3367.42856	0.01974
3366.14279	0.01956
3364.85702	0.01971
3363.57125	0.02018
3362.28548	0.02082
3360.99971	0.02131
3359.71394	0.02136
3358.42818	0.02094
3357.14241	0.02028
3355.85664	0.01970
3354.57087	0.01936
3353.28510	0.01925
3351.99933	0.01925
3350.71356	0.01922
3349.42779	0.01910
3348.14202	0.01891
3346.85626	0.01877
3345.57049	0.01878
3344.28472	0.01903
3342.99895	0.01950
3341.71318	0.02012
3340.42741	0.02066
3339.14164	0.02095
3337.85587	0.02092
3336.57011	0.02065
3335.28434	0.02023
3333.99857	0.01978
3332.71280	0.01942
3331.42703	0.01922
3330.14126	0.01913
3328.85549	0.01901
3327.56972	0.01880
3326.28395	0.01858
3324.99819	0.01849
3323.71242	0.01860
3322.42665	0.01885
3321.14088	0.01906
3319.85511	0.01914
3318.56934	0.01911
3317.28357	0.01908
3315.99780	0.01910
3314.71204	0.01911
3313.42627	0.01904
3312.14050	0.01892
3310.85473	0.01886
3309.56896	0.01893
3308.28319	0.01912
3306.99742	0.01925
3305.71165	0.01921
3304.42588	0.01903
3303.14012	0.01881
3301.85435	0.01859
3300.56858	0.01835
3299.28281	0.01814
3297.99704	0.01812
3296.71127	0.01831
3295.42550	0.01858
3294.13973	0.01875
3292.85397	0.01875
3291.56820	0.01861
3290.28243	0.01846
3288.99666	0.01844
3287.71089	0.01862
3286.42512	0.01894
3285.13935	0.01921
3283.85358	0.01924
3282.56781	0.01898
3281.28205	0.01855
3279.99628	0.01822
3278.71051	0.01814
3277.42474	0.01830
3276.13897	0.01856
3274.85320	0.01881
3273.56743	0.01900
3272.28166	0.01909
3270.99590	0.01906
3269.71013	0.01891
3268.42436	0.01874
3267.13859	0.01868
3265.85282	0.01882
3264.56705	0.01908
3263.28128	0.01929
3261.99551	0.01934
3260.70974	0.01928
3259.42398	0.01923
3258.13821	0.01924
3256.85244	0.01926
3255.56667	0.01921
3254.28090	0.01908
3252.99513	0.01890
3251.70936	0.01868
3250.42359	0.01838
3249.13783	0.01801
3247.85206	0.01767
3246.56629	0.01757
3245.28052	0.01783
3243.99475	0.01830
3242.70898	0.01867
3241.42321	0.01869
3240.13744	0.01837
3238.85167	0.01794
3237.56591	0.01759
3236.28014	0.01738
3234.99437	0.01731
3233.70860	0.01733
3232.42283	0.01739
3231.13706	0.01744
3229.85129	0.01753
3228.56552	0.01770
3227.27976	0.01785
3225.99399	0.01784
3224.70822	0.01765
3223.42245	0.01749
3222.13668	0.01759
3220.85091	0.01792
3219.56514	0.01819
3218.27937	0.01818
3216.99360	0.01795
3215.70784	0.01777
3214.42207	0.01785
3213.13630	0.01811
3211.85053	0.01823
3210.56476	0.01804
3209.27899	0.01770
3207.99322	0.01745
3206.70745	0.01736
3205.42169	0.01736
3204.13592	0.01738
3202.85015	0.01743
3201.56438	0.01752
3200.27861	0.01762
3198.99284	0.01773
3197.70707	0.01785
3196.42130	0.01798
3195.13553	0.01804
3193.84977	0.01797
3192.56400	0.01781
3191.27823	0.01761
3189.99246	0.01745
3188.70669	0.01738
3187.42092	0.01734
3186.13515	0.01727
3184.84938	0.01719
3183.56362	0.01720
3182.27785	0.01738
3180.99208	0.01760
3179.70631	0.01766
3178.42054	0.01743
3177.13477	0.01699
3175.84900	0.01650
3174.56323	0.01613
3173.27746	0.01596
3171.99170	0.01597
3170.70593	0.01615
3169.42016	0.01653
3168.13439	0.01709
3166.84862	0.01765
3165.56285	0.01802
3164.27708	0.01809
3162.99131	0.01793
3161.70555	0.01769
3160.41978	0.01741
3159.13401	0.01710
3157.84824	0.01676
3156.56247	0.01643
3155.27670	0.01610
3153.99093	0.01573
3152.70516	0.01538
3151.41939	0.01526
3150.13363	0.01556
3148.84786	0.01613
3147.56209	0.01663
3146.27632	0.01688
3144.99055	0.01695
3143.70478	0.01700
3142.41901	0.01703
3141.13324	0.01698
3139.84748	0.01686
3138.56171	0.01678
3137.27594	0.01677
3135.99017	0.01672
3134.70440	0.01654
3133.41863	0.01624
3132.13286	0.01601
3130.84709	0.01597
3129.56132	0.01614
3128.27556	0.01643
3126.98979	0.01675
3125.70402	0.01696
3124.41825	0.01696
3123.13248	0.01671
3121.84671	0.01627
3120.56094	0.01576
3119.27517	0.01531
3117.98940	0.01504
3116.70364	0.01496
3115.41787	0.01503
3114.13210	0.01519
3112.84633	0.01542
3111.56056	0.01577
3110.27479	0.01615
3108.98902	0.01643
3107.70325	0.01652
3106.41749	0.01643
3105.13172	0.01620
3103.84595	0.01586
3102.56018	0.01550
3101.27441	0.01524
3099.98864	0.01516
3098.70287	0.01524
3097.41710	0.01533
3096.13133	0.01536
3094.84557	0.01538
3093.55980	0.01546
3092.27403	0.01554
3090.98826	0.01545
3089.70249	0.01509
3088.41672	0.01465
3087.13095	0.01445
3085.84518	0.01465
3084.55942	0.01510
3083.27365	0.01545
3081.98788	0.01554
3080.70211	0.01548
3079.41634	0.01550
3078.13057	0.01564
3076.84480	0.01575
3075.55903	0.01568
3074.27326	0.01545
3072.98750	0.01524
3071.70173	0.01520
3070.41596	0.01535
3069.13019	0.01557
3067.84442	0.01572
3066.55865	0.01569
3065.27288	0.01546
3063.98711	0.01510
3062.70135	0.01473
3061.41558	0.01439
3060.12981	0.01414
3058.84404	0.01401
3057.55827	0.01410
3056.27250	0.01438
3054.98673	0.01471
3053.70096	0.01488
3052.41519	0.01482
3051.12943	0.01471
3049.84366	0.01475
3048.55789	0.01495
3047.27212	0.01514
3045.98635	0.01511
3044.70058	0.01481
3043.41481	0.01436
3042.12904	0.01399
3040.84328	0.01392
3039.55751	0.01419
3038.27174	0.01464
3036.98597	0.01503
3035.70020	0.01521
3034.41443	0.01516
3033.12866	0.01489
3031.84289	0.01447
3030.55712	0.01397
3029.27136	0.01355
3027.98559	0.01336
3026.69982	0.01344
3025.41405	0.01369
3024.12828	0.01399
3022.84251	0.01424
3021.55674	0.01438
3020.27097	0.01429
3018.98521	0.01397
3017.69944	0.01359
3016.41367	0.01339
3015.12790	0.01343
3013.84213	0.01357
3012.55636	0.01367
3011.27059	0.01368
3009.98482	0.01373
3008.69905	0.01386
3007.41329	0.01405
3006.12752	0.01419
3004.84175	0.01428
3003.55598	0.01433
3002.27021	0.01438
3000.98444	0.01442
2999.69867	0.01446
2998.41290	0.01451
2997.12714	0.01462
2995.84137	0.01472
2994.55560	0.01471
2993.26983	0.01453
2991.98406	0.01433
2990.69829	0.01426
2989.41252	0.01437
2988.12675	0.01451
2986.84098	0.01446
2985.55522	0.01418
2984.26945	0.01379
2982.98368	0.01355
2981.69791	0.01359
2980.41214	0.01391
2979.12637	0.01438
2977.84060	0.01482
2976.55483	0.01510
2975.26907	0.01522
2973.98330	0.01528
2972.69753	0.01535
2971.41176	0.01538
2970.12599	0.01528
2968.84022	0.01509
2967.55445	0.01496
2966.26868	0.01501
2964.98291	0.01526
2963.69715	0.01566
2962.41138	0.01608
2961.12561	0.01643
2959.83984	0.01659
2958.55407	0.01652
2957.26830	0.01624
2955.98253	0.01590
2954.69676	0.01567
2953.41100	0.01558
2952.12523	0.01550
2950.83946	0.01529
2949.55369	0.01503
2948.26792	0.01496
2946.98215	0.01521
2945.69638	0.01561
2944.41061	0.01584
2943.12484	0.01578
2941.83908	0.01557
2940.55331	0.01542
2939.26754	0.01534
2937.98177	0.01520
2936.69600	0.01498
2935.41023	0.01481
2934.12446	0.01486
2932.83869	0.01521
2931.55293	0.01575
2930.26716	0.01622
2928.98139	0.01645
2927.69562	0.01642
2926.40985	0.01628
2925.12408	0.01614
2923.83831	0.01601
2922.55254	0.01584
2921.26677	0.01560
2919.98101	0.01531
2918.69524	0.01503
2917.40947	0.01481
2916.12370	0.01470
2914.83793	0.01471
2913.55216	0.01478
2912.26639	0.01485
2910.98062	0.01486
2909.69486	0.01487
2908.40909	0.01492
2907.12332	0.01497
2905.83755	0.01490
2904.55178	0.01465
2903.26601	0.01431
2901.98024	0.01406
2900.69447	0.01397
2899.40870	0.01395
2898.12294	0.01386
2896.83717	0.01367
2895.55140	0.01346
2894.26563	0.01329
2892.97986	0.01323
2891.69409	0.01322
2890.40832	0.01315
2889.12255	0.01303
2887.83678	0.01297
2886.55102	0.01307
2885.26525	0.01322
2883.97948	0.01324
2882.69371	0.01307
2881.40794	0.01280
2880.12217	0.01256
2878.83640	0.01249
2877.55063	0.01267
2876.26487	0.01305
2874.97910	0.01347
2873.69333	0.01377
2872.40756	0.01390
2871.12179	0.01384
2869.83602	0.01364
2868.55025	0.01337
2867.26448	0.01315
2865.97871	0.01305
2864.69295	0.01305
2863.40718	0.01311
2862.12141	0.01321
2860.83564	0.01331
2859.54987	0.01333
2858.26410	0.01317
2856.97833	0.01287
2855.69256	0.01264
2854.40680	0.01264
2853.12103	0.01280
2851.83526	0.01293
2850.54949	0.01297
2849.26372	0.01299
2847.97795	0.01299
2846.69218	0.01287
2845.40641	0.01255
2844.12064	0.01215
2842.83488	0.01188
2841.54911	0.01190
2840.26334	0.01215
2838.97757	0.01244
2837.69180	0.01266
2836.40603	0.01274
2835.12026	0.01262
2833.83449	0.01228
2832.54873	0.01187
2831.26296	0.01161
2829.97719	0.01162
2828.69142	0.01179
2827.40565	0.01196
2826.11988	0.01207
2824.83411	0.01212
2823.54834	0.01212
2822.26257	0.01211
2820.97681	0.01214
2819.69104	0.01219
2818.40527	0.01215
2817.11950	0.01189
2815.83373	0.01149
2814.54796	0.01109
2813.26219	0.01083
2811.97642	0.01074
2810.69066	0.01073
2809.40489	0.01067
2808.11912	0.01051
2806.83335	0.01033
2805.54758	0.01025
2804.26181	0.01028
2802.97604	0.01036
2801.69027	0.01042
2800.40450	0.01043
2799.11874	0.01043
2797.83297	0.01043
2796.54720	0.01042
2795.26143	0.01042
2793.97566	0.01043
2792.68989	0.01043
2791.40412	0.01038
2790.11835	0.01035
2788.83259	0.01041
2787.54682	0.01055
2786.26105	0.01069
2784.97528	0.01073
2783.68951	0.01069
2782.40374	0.01063
2781.11797	0.01057
2779.83220	0.01053
2778.54643	0.01053
2777.26067	0.01055
2775.97490	0.01054
2774.68913	0.01049
2773.40336	0.01044
2772.11759	0.01045
2770.83182	0.01053
2769.54605	0.01066
2768.26028	0.01081
2766.97452	0.01091
2765.68875	0.01092
2764.40298	0.01085
2763.11721	0.01075
2761.83144	0.01068
2760.54567	0.01068
2759.25990	0.01077
2757.97413	0.01093
2756.68836	0.01108
2755.40260	0.01108
2754.11683	0.01083
2752.83106	0.01044
2751.54529	0.01010
2750.25952	0.00995
2748.97375	0.00997
2747.68798	0.01006
2746.40221	0.01019
2745.11645	0.01034
2743.83068	0.01046
2742.54491	0.01046
2741.25914	0.01032
2739.97337	0.01013
2738.68760	0.01002
2737.40183	0.00996
2736.11606	0.00986
2734.83029	0.00972
2733.54453	0.00962
2732.25876	0.00965
2730.97299	0.00980
2729.68722	0.01004
2728.40145	0.01027
2727.11568	0.01036
2725.82991	0.01027
2724.54414	0.01007
2723.25838	0.00990
2721.97261	0.00981
2720.68684	0.00983
2719.40107	0.00994
2718.11530	0.01011
2716.82953	0.01024
2715.54376	0.01024
2714.25799	0.01017
2712.97222	0.01006
2711.68646	0.00994
2710.40069	0.00975
2709.11492	0.00955
2707.82915	0.00943
2706.54338	0.00944
2705.25761	0.00956
2703.97184	0.00974
2702.68607	0.00993
2701.40031	0.01006
2700.11454	0.01007
2698.82877	0.00997
2697.54300	0.00986
2696.25723	0.00989
2694.97146	0.01006
2693.68569	0.01025
2692.39992	0.01031
2691.11415	0.01021
2689.82839	0.01000
2688.54262	0.00983
2687.25685	0.00973
2685.97108	0.00967
2684.68531	0.00959
2683.39954	0.00949
2682.11377	0.00945
2680.82800	0.00952
2679.54224	0.00968
2678.25647	0.00982
2676.97070	0.00988
2675.68493	0.00988
2674.39916	0.00987
2673.11339	0.00988
2671.82762	0.00984
2670.54185	0.00972
2669.25608	0.00955
2667.97032	0.00945
2666.68455	0.00949
2665.39878	0.00962
2664.11301	0.00971
2662.82724	0.00968
2661.54147	0.00954
2660.25570	0.00937
2658.96993	0.00922
2657.68417	0.00915
2656.39840	0.00922
2655.11263	0.00943
2653.82686	0.00962
2652.54109	0.00964
2651.25532	0.00952
2649.96955	0.00942
2648.68378	0.00949
2647.39801	0.00971
2646.11225	0.00991
2644.82648	0.00990
2643.54071	0.00965
2642.25494	0.00933
2640.96917	0.00910
2639.68340	0.00897
2638.39763	0.00889
2637.11186	0.00884
2635.82609	0.00891
2634.54033	0.00913
2633.25456	0.00937
2631.96879	0.00946
2630.68302	0.00935
2629.39725	0.00916
2628.11148	0.00900
2626.82571	0.00887
2625.53994	0.00867
2624.25418	0.00841
2622.96841	0.00824
2621.68264	0.00831
2620.39687	0.00857
2619.11110	0.00882
2617.82533	0.00886
2616.53956	0.00866
2615.25379	0.00831
2613.96802	0.00801
2612.68226	0.00792
2611.39649	0.00808
2610.11072	0.00836
2608.82495	0.00860
2607.53918	0.00871
2606.25341	0.00872
2604.96764	0.00864
2603.68187	0.00851
2602.39611	0.00841
2601.11034	0.00842
2599.82457	0.00856
2598.53880	0.00870
2597.25303	0.00878
2595.96726	0.00884
2594.68149	0.00898
2593.39572	0.00922
2592.10995	0.00940
2590.82419	0.00936
2589.53842	0.00906
2588.25265	0.00863
2586.96688	0.00825
2585.68111	0.00804
2584.39534	0.00801
2583.10957	0.00810
2581.82380	0.00827
2580.53804	0.00849
2579.25227	0.00878
2577.96650	0.00900
2576.68073	0.00897
2575.39496	0.00863
2574.10919	0.00815
2572.82342	0.00776
2571.53765	0.00756
2570.25188	0.00749
2568.96612	0.00748
2567.68035	0.00748
2566.39458	0.00751
2565.10881	0.00752
2563.82304	0.00747
2562.53727	0.00737
2561.25150	0.00731
2559.96573	0.00733
2558.67997	0.00739
2557.39420	0.00737
2556.10843	0.00728
2554.82266	0.00718
2553.53689	0.00721
2552.25112	0.00743
2550.96535	0.00776
2549.67958	0.00801
2548.39381	0.00810
2547.10805	0.00805
2545.82228	0.00793
2544.53651	0.00768
2543.25074	0.00727
2541.96497	0.00678
2540.67920	0.00639
2539.39343	0.00622
2538.10766	0.00624
2536.82190	0.00638
2535.53613	0.00667
2534.25036	0.00717
2532.96459	0.00781
2531.67882	0.00829
2530.39305	0.00835
2529.10728	0.00809
2527.82151	0.00786
2526.53574	0.00790
2525.24998	0.00817
2523.96421	0.00848
2522.67844	0.00868
2521.39267	0.00871
2520.10690	0.00853
2518.82113	0.00818
2517.53536	0.00778
2516.24959	0.00742
2514.96383	0.00711
2513.67806	0.00682
2512.39229	0.00663
2511.10652	0.00666
2509.82075	0.00685
2508.53498	0.00701
2507.24921	0.00704
2505.96344	0.00699
2504.67767	0.00700
2503.39191	0.00707
2502.10614	0.00716
2500.82037	0.00724
2499.53460	0.00736
2498.24883	0.00752
2496.96306	0.00761
2495.67729	0.00751
2494.39152	0.00718
2493.10576	0.00676
2491.81999	0.00644
2490.53422	0.00637
2489.24845	0.00658
2487.96268	0.00695
2486.67691	0.00728
2485.39114	0.00737
2484.10537	0.00715
2482.81960	0.00680
2481.53384	0.00657
2480.24807	0.00662
2478.96230	0.00688
2477.67653	0.00721
2476.39076	0.00750
2475.10499	0.00769
2473.81922	0.00784
2472.53345	0.00805
2471.24769	0.00833
2469.96192	0.00855
2468.67615	0.00854
2467.39038	0.00833
2466.10461	0.00815
2464.81884	0.00815
2463.53307	0.00821
2462.24730	0.00812
2460.96153	0.00782
2459.67577	0.00743
2458.39000	0.00708
2457.10423	0.00682
2455.81846	0.00659
2454.53269	0.00640
2453.24692	0.00636
2451.96115	0.00652
2450.67538	0.00684
2449.38962	0.00712
2448.10385	0.00717
2446.81808	0.00701
2445.53231	0.00678
2444.24654	0.00660
2442.96077	0.00648
2441.67500	0.00639
2440.38923	0.00631
2439.10346	0.00627
2437.81770	0.00635
2436.53193	0.00653
2435.24616	0.00673
2433.96039	0.00688
2432.67462	0.00699
2431.38885	0.00709
2430.10308	0.00723
2428.81731	0.00741
2427.53155	0.00763
2426.24578	0.00782
2424.96001	0.00784
2423.67424	0.00767
2422.38847	0.00749
2421.10270	0.00752
2419.81693	0.00773
2418.53116	0.00789
2417.24539	0.00787
2415.95963	0.00772
2414.67386	0.00756
2413.38809	0.00737
2412.10232	0.00706
2410.81655	0.00669
2409.53078	0.00641
2408.24501	0.00635
2406.95924	0.00650
2405.67347	0.00676
2404.38771	0.00703
2403.10194	0.00722
2401.81617	0.00732
2400.53040	0.00738
2399.24463	0.00739
2397.95886	0.00737
2396.67309	0.00733
2395.38732	0.00730
2394.10156	0.00731
2392.81579	0.00735
2391.53002	0.00738
2390.24425	0.00737
2388.95848	0.00728
2387.67271	0.00709
2386.38694	0.00680
2385.10117	0.00650
2383.81540	0.00629
2382.52964	0.00623
2381.24387	0.00630
2379.95810	0.00643
2378.67233	0.00662
2377.38656	0.00685
2376.10079	0.00703
2374.81502	0.00708
2373.52925	0.00696
2372.24349	0.00675
2370.95772	0.00656
2369.67195	0.00645
2368.38618	0.00640
2367.10041	0.00640
2365.81464	0.00639
2364.52887	0.00636
2363.24310	0.00630
2361.95733	0.00629
2360.67157	0.00636
2359.38580	0.00651
2358.10003	0.00666
2356.81426	0.00670
2355.52849	0.00657
2354.24272	0.00633
2352.95695	0.00614
2351.67118	0.00615
2350.38542	0.00636
2349.09965	0.00664
2347.81388	0.00687
2346.52811	0.00700
2345.24234	0.00705
2343.95657	0.00703
2342.67080	0.00690
2341.38503	0.00667
2340.09926	0.00643
2338.81350	0.00635
2337.52773	0.00650
2336.24196	0.00676
2334.95619	0.00696
2333.67042	0.00698
2332.38465	0.00686
2331.09888	0.00673
2329.81311	0.00669
2328.52735	0.00680
2327.24158	0.00698
2325.95581	0.00715
2324.67004	0.00723
2323.38427	0.00719
2322.09850	0.00709
2320.81273	0.00701
2319.52696	0.00694
2318.24119	0.00686
2316.95543	0.00677
2315.66966	0.00674
2314.38389	0.00683
2313.09812	0.00697
2311.81235	0.00696
2310.52658	0.00672
2309.24081	0.00637
2307.95504	0.00614
2306.66928	0.00610
2305.38351	0.00618
2304.09774	0.00627
2302.81197	0.00627
2301.52620	0.00624
2300.24043	0.00627
2298.95466	0.00640
2297.66889	0.00654
2296.38312	0.00653
2295.09736	0.00638
2293.81159	0.00624
2292.52582	0.00625
2291.24005	0.00641
2289.95428	0.00657
2288.66851	0.00657
2287.38274	0.00630
2286.09697	0.00589
2284.81121	0.00567
2283.52544	0.00592
2282.23967	0.00658
2280.95390	0.00723
2279.66813	0.00740
2278.38236	0.00689
2277.09659	0.00593
2275.81082	0.00501
2274.52505	0.00454
2273.23929	0.00464
2271.95352	0.00505
2270.66775	0.00540
2269.38198	0.00544
2268.09621	0.00523
2266.81044	0.00505
2265.52467	0.00511
2264.23890	0.00535
2262.95314	0.00556
2261.66737	0.00554
2260.38160	0.00525
2259.09583	0.00476
2257.81006	0.00421
2256.52429	0.00383
2255.23852	0.00381
2253.95275	0.00408
2252.66698	0.00423
2251.38122	0.00390
2250.09545	0.00316
2248.80968	0.00253
2247.52391	0.00252
2246.23814	0.00311
2244.95237	0.00371
2243.66660	0.00381
2242.38083	0.00346
2241.09507	0.00306
2239.80930	0.00293
2238.52353	0.00307
2237.23776	0.00342
2235.95199	0.00405
2234.66622	0.00490
2233.38045	0.00570
2232.09468	0.00613
2230.80891	0.00612
2229.52315	0.00591
2228.23738	0.00566
2226.95161	0.00538
2225.66584	0.00510
2224.38007	0.00492
2223.09430	0.00483
2221.80853	0.00471
2220.52276	0.00454
2219.23700	0.00442
2217.95123	0.00443
2216.66546	0.00451
2215.37969	0.00461
2214.09392	0.00466
2212.80815	0.00458
2211.52238	0.00434
2210.23661	0.00410
2208.95084	0.00419
2207.66508	0.00470
2206.37931	0.00529
2205.09354	0.00528
2203.80777	0.00430
2202.52200	0.00265
2201.23623	0.00119
2199.95046	0.00047
2198.66469	0.00037
2197.37893	0.00036
2196.09316	0.00019
2194.80739	0.00012
2193.52162	0.00056
2192.23585	0.00146
2190.95008	0.00223
2189.66431	0.00229
2188.37854	0.00173
2187.09277	0.00117
2185.80701	0.00107
2184.52124	0.00119
2183.23547	0.00093
2181.94970	0.00019
2180.66393	-0.00043
2179.37816	-0.00025
2178.09239	0.00062
2176.80662	0.00140
2175.52085	0.00164
2174.23509	0.00168
2172.94932	0.00199
2171.66355	0.00238
2170.37778	0.00224
2169.09201	0.00148
2167.80624	0.00068
2166.52047	0.00056
2165.23470	0.00115
2163.94894	0.00184
2162.66317	0.00190
2161.37740	0.00118
2160.09163	0.00022
2158.80586	-0.00029
2157.52009	-0.00020
2156.23432	0.00020
2154.94855	0.00064
2153.66278	0.00096
2152.37702	0.00091
2151.09125	0.00043
2149.80548	-0.00008
2148.51971	-0.00007
2147.23394	0.00053
2145.94817	0.00135
2144.66240	0.00205
2143.37663	0.00253
2142.09087	0.00264
2140.80510	0.00226
2139.51933	0.00165
2138.23356	0.00138
2136.94779	0.00173
2135.66202	0.00226
2134.37625	0.00238
2133.09048	0.00205
2131.80471	0.00172
2130.51895	0.00175
2129.23318	0.00207
2127.94741	0.00253
2126.66164	0.00314
2125.37587	0.00389
2124.09010	0.00451
2122.80433	0.00461
2121.51856	0.00416
2120.23280	0.00356
2118.94703	0.00319
2117.66126	0.00306
2116.37549	0.00287
2115.08972	0.00242
2113.80395	0.00190
2112.51818	0.00168
2111.23241	0.00185
2109.94664	0.00215
2108.66088	0.00233
2107.37511	0.00235
2106.08934	0.00237
2104.80357	0.00246
2103.51780	0.00265
2102.23203	0.00288
2100.94626	0.00303
2099.66049	0.00272
2098.37473	0.00230
2097.08896	0.00188
2095.80319	0.00156
2094.51742	0.00151
2093.23165	0.00176
2091.94588	0.00211
2090.66011	0.00221
2089.37434	0.00197
2088.08857	0.00173
2086.80281	0.00193
2085.51704	0.00262
2084.23127	0.00329
2082.94550	0.00337
2081.65973	0.00280
2080.37396	0.00211
2079.08819	0.00179
2077.80242	0.00188
2076.51666	0.00209
2075.23089	0.00224
2073.94512	0.00230
2072.65935	0.00219
2071.37358	0.00170
2070.08781	0.00087
2068.80204	0.00004
2067.51627	-0.00038
2066.23050	-0.00021
2064.94474	0.00043
2063.65897	0.00124
2062.37320	0.00180
2061.08743	0.00180
2059.80166	0.00128
2058.51589	0.00069
2057.23012	0.00042
2055.94435	0.00041
2054.65859	0.00024
2053.37282	-0.00041
2052.08705	-0.00142
2050.80128	-0.00236
2049.51551	-0.00288
2048.22974	-0.00302
2046.94397	-0.00302
2045.65820	-0.00294
2044.37243	-0.00252
2043.08667	-0.00169
2041.80090	-0.00074
2040.51513	-0.00006
2039.22936	0.00022
2037.94359	0.00015
2036.65782	-0.00025
2035.37205	-0.00084
2034.08628	-0.00125
2032.80052	-0.00109
2031.51475	-0.00035
2030.22898	0.00064
2028.94321	0.00148
2027.65744	0.00188
2026.37167	0.00156
2025.08590	0.00043
2023.80013	-0.00109
2022.51436	-0.00215
2021.22860	-0.00222
2019.94283	-0.00158
2018.65706	-0.00094
2017.37129	-0.00067
2016.08552	-0.00057
2014.79975	-0.00040
2013.51398	-0.00024
2012.22821	-0.00032
2010.94245	-0.00062
2009.65668	-0.00088
2008.37091	-0.00092
2007.08514	-0.00077
2005.79937	-0.00058
2004.51360	-0.00034
2003.22783	0.00014
2001.94206	0.00090
2000.65629	0.00172
1999.37053	0.00234
1998.08476	0.00283
1996.79899	0.00344
1995.51322	0.00415
1994.22745	0.00452
1992.94168	0.00422
1991.65591	0.00345
1990.37014	0.00271
1989.08438	0.00242
1987.79861	0.00260
1986.51284	0.00291
1985.22707	0.00282
1983.94130	0.00210
1982.65553	0.00116
1981.36976	0.00071
1980.08399	0.00107
1978.79822	0.00192
1977.51246	0.00276
1976.22669	0.00331
1974.94092	0.00356
1973.65515	0.00358
1972.36938	0.00356
1971.08361	0.00371
1969.79784	0.00396
1968.51207	0.00393
1967.22631	0.00334
1965.94054	0.00232
1964.65477	0.00130
1963.36900	0.00063
1962.08323	0.00043
1960.79746	0.00076
1959.51169	0.00155
1958.22592	0.00262
1956.94015	0.00359
1955.65439	0.00417
1954.36862	0.00427
1953.08285	0.00410
1951.79708	0.00387
1950.51131	0.00368
1949.22554	0.00348
1947.93977	0.00334
1946.65400	0.00342
1945.36823	0.00375
1944.08247	0.00406
1942.79670	0.00392
1941.51093	0.00328
1940.22516	0.00251
1938.93939	0.00213
1937.65362	0.00225
1936.36785	0.00252
1935.08208	0.00262
1933.79632	0.00258
1932.51055	0.00258
1931.22478	0.00271
1929.93901	0.00290
1928.65324	0.00308
1927.36747	0.00323
1926.08170	0.00334
1924.79593	0.00341
1923.51016	0.00353
1922.22440	0.00376
1920.93863	0.00398
1919.65286	0.00404
1918.36709	0.00394
1917.08132	0.00380
1915.79555	0.00372
1914.50978	0.00373
1913.22401	0.00385
1911.93825	0.00398
1910.65248	0.00390
1909.36671	0.00355
1908.08094	0.00315
1906.79517	0.00295
1905.50940	0.00295
1904.22363	0.00297
1902.93786	0.00290
1901.65209	0.00283
1900.36633	0.00287
1899.08056	0.00306
1897.79479	0.00329
1896.50902	0.00341
1895.22325	0.00337
1893.93748	0.00320
1892.65171	0.00302
1891.36594	0.00296
1890.08018	0.00303
1888.79441	0.00321
1887.50864	0.00339
1886.22287	0.00354
1884.93710	0.00372
1883.65133	0.00397
1882.36556	0.00421
1881.07979	0.00432
1879.79402	0.00426
1878.50826	0.00413
1877.22249	0.00404
1875.93672	0.00398
1874.65095	0.00391
1873.36518	0.00382
1872.07941	0.00372
1870.79364	0.00358
1869.50787	0.00341
1868.22211	0.00333
1866.93634	0.00348
1865.65057	0.00388
1864.36480	0.00435
1863.07903	0.00466
1861.79326	0.00465
1860.50749	0.00441
1859.22172	0.00419
1857.93595	0.00415
1856.65019	0.00421
1855.36442	0.00417
1854.07865	0.00405
1852.79288	0.00404
1851.50711	0.00427
1850.22134	0.00461
1848.93557	0.00477
1847.64980	0.00460
1846.36404	0.00423
1845.07827	0.00393
1843.79250	0.00386
1842.50673	0.00396
1841.22096	0.00404
1839.93519	0.00404
1838.64942	0.00405
1837.36365	0.00414
1836.07788	0.00429
1834.79212	0.00441
1833.50635	0.00444
1832.22058	0.00440
1830.93481	0.00438
1829.64904	0.00442
1828.36327	0.00445
1827.07750	0.00437
1825.79173	0.00419
1824.50597	0.00398
1823.22020	0.00380
1821.93443	0.00368
1820.64866	0.00362
1819.36289	0.00361
1818.07712	0.00363
1816.79135	0.00369
1815.50558	0.00383
1814.21981	0.00403
1812.93405	0.00424
1811.64828	0.00438
1810.36251	0.00441
1809.07674	0.00438
1807.79097	0.00438
1806.50520	0.00446
1805.21943	0.00462
1803.93366	0.00475
1802.64790	0.00479
1801.36213	0.00473
1800.07636	0.00462
1798.79059	0.00456
1797.50482	0.00459
1796.21905	0.00472
1794.93328	0.00484
1793.64751	0.00489
1792.36174	0.00487
1791.07598	0.00482
1789.79021	0.00477
1788.50444	0.00473
1787.21867	0.00469
1785.93290	0.00462
1784.64713	0.00451
1783.36136	0.00444
1782.07559	0.00448
1780.78983	0.00461
1779.50406	0.00474
1778.21829	0.00479
1776.93252	0.00477
1775.64675	0.00474
1774.36098	0.00472
1773.07521	0.00474
1771.78944	0.00481
1770.50367	0.00488
1769.21791	0.00489
1767.93214	0.00488
1766.64637	0.00494
1765.36060	0.00501
1764.07483	0.00499
1762.78906	0.00488
1761.50329	0.00478
1760.21752	0.00474
1758.93176	0.00474
1757.64599	0.00477
1756.36022	0.00486
1755.07445	0.00500
1753.78868	0.00507
1752.50291	0.00500
1751.21714	0.00483
1749.93137	0.00468
1748.64560	0.00462
1747.35984	0.00466
1746.07407	0.00475
1744.78830	0.00485
1743.50253	0.00491
1742.21676	0.00491
1740.93099	0.00490
1739.64522	0.00494
1738.35945	0.00506
1737.07369	0.00512
1735.78792	0.00504
1734.50215	0.00491
1733.21638	0.00492
1731.93061	0.00505
1730.64484	0.00516
1729.35907	0.00520
1728.07330	0.00524
1726.78753	0.00529
1725.50177	0.00531
1724.21600	0.00529
1722.93023	0.00529
1721.64446	0.00534
1720.35869	0.00541
1719.07292	0.00545
1717.78715	0.00548
1716.50138	0.00551
1715.21561	0.00555
1713.92985	0.00560
1712.64408	0.00570
1711.35831	0.00587
1710.07254	0.00605
1708.78677	0.00617
1707.50100	0.00622
1706.21523	0.00627
1704.92946	0.00638
1703.64370	0.00648
1702.35793	0.00646
1701.07216	0.00640
1699.78639	0.00648
1698.50062	0.00669
1697.21485	0.00683
1695.92908	0.00689
1694.64331	0.00702
1693.35754	0.00719
1692.07178	0.00726
1690.78601	0.00730
1689.50024	0.00742
1688.21447	0.00759
1686.92870	0.00766
1685.64293	0.00762
1684.35716	0.00766
1683.07139	0.00789
1681.78563	0.00817
1680.49986	0.00836
1679.21409	0.00846
1677.92832	0.00852
1676.64255	0.00854
1675.35678	0.00858
1674.07101	0.00866
1672.78524	0.00875
1671.49947	0.00882
1670.21371	0.00894
1668.92794	0.00916
1667.64217	0.00940
1666.35640	0.00953
1665.07063	0.00951
1663.78486	0.00940
1662.49909	0.00936
1661.21332	0.00945
1659.92756	0.00961
1658.64179	0.00980
1657.35602	0.00995
1656.07025	0.00997
1654.78448	0.00983
1653.49871	0.00973
1652.21294	0.00988
1650.92717	0.01019
1649.64140	0.01036
1648.35564	0.01028
1647.06987	0.01013
1645.78410	0.01007
1644.49833	0.01012
1643.21256	0.01022
1641.92679	0.01031
1640.64102	0.01036
1639.35525	0.01034
1638.06949	0.01020
1636.78372	0.01001
1635.49795	0.00990
1634.21218	0.00993
1632.92641	0.01000
1631.64064	0.01001
1630.35487	0.00997
1629.06910	0.00994
1627.78333	0.00994
1626.49757	0.00991
1625.21180	0.00981
1623.92603	0.00972
1622.64026	0.00973
1621.35449	0.00984
1620.06872	0.00990
1618.78295	0.00979
1617.49718	0.00963
1616.21142	0.00958
1614.92565	0.00968
1613.63988	0.00976
1612.35411	0.00971
1611.06834	0.00961
1609.78257	0.00954
1608.49680	0.00956
1607.21103	0.00961
1605.92526	0.00966
1604.63950	0.00968
1603.35373	0.00970
1602.06796	0.00975
1600.78219	0.00983
1599.49642	0.00991
1598.21065	0.00998
1596.92488	0.01004
1595.63911	0.01009
1594.35335	0.01012
1593.06758	0.01014
1591.78181	0.01018
1590.49604	0.01025
1589.21027	0.01035
1587.92450	0.01045
1586.63873	0.01055
1585.35296	0.01067
1584.06719	0.01081
1582.78143	0.01099
1581.49566	0.01118
1580.20989	0.01138
1578.92412	0.01151
1577.63835	0.01156
1576.35258	0.01168
1575.06681	0.01196
1573.78104	0.01232
1572.49528	0.01257
1571.20951	0.01265
1569.92374	0.01265
1568.63797	0.01269
1567.35220	0.01277
1566.06643	0.01285
1564.78066	0.01295
1563.49489	0.01308
1562.20912	0.01313
1560.92336	0.01306
1559.63759	0.01298
1558.35182	0.01306
1557.06605	0.01324
1555.78028	0.01335
1554.49451	0.01337
1553.20874	0.01339
1551.92297	0.01342
1550.63721	0.01342
1549.35144	0.01338
1548.06567	0.01329
1546.77990	0.01316
1545.49413	0.01302
1544.20836	0.01294
1542.92259	0.01291
1541.63682	0.01286
1540.35105	0.01281
1539.06529	0.01284
1537.77952	0.01290
1536.49375	0.01285
1535.20798	0.01264
1533.92221	0.01240
1532.63644	0.01225
1531.35067	0.01218
1530.06490	0.01214
1528.77914	0.01210
1527.49337	0.01208
1526.20760	0.01210
1524.92183	0.01216
1523.63606	0.01224
1522.35029	0.01231
1521.06452	0.01244
1519.77875	0.01263
1518.49298	0.01277
1517.20722	0.01286
1515.92145	0.01300
1514.63568	0.01322
1513.34991	0.01352
1512.06414	0.01386
1510.77837	0.01421
1509.49260	0.01449
1508.20683	0.01465
1506.92107	0.01481
1505.63530	0.01510
1504.34953	0.01550
1503.06376	0.01588
1501.77799	0.01616
1500.49222	0.01635
1499.20645	0.01647
1497.92068	0.01652
1496.63491	0.01653
1495.34915	0.01659
1494.06338	0.01669
1492.77761	0.01676
1491.49184	0.01682
1490.20607	0.01694
1488.92030	0.01717
1487.63453	0.01750
1486.34876	0.01787
1485.06299	0.01825
1483.77723	0.01863
1482.49146	0.01905
1481.20569	0.01953
1479.91992	0.02007
1478.63415	0.02063
1477.34838	0.02119
1476.06261	0.02175
1474.77684	0.02231
1473.49108	0.02288
1472.20531	0.02346
1470.91954	0.02401
1469.63377	0.02449
1468.34800	0.02488
1467.06223	0.02519
1465.77646	0.02545
1464.49069	0.02569
1463.20492	0.02597
1461.91916	0.02630
1460.63339	0.02669
1459.34762	0.02715
1458.06185	0.02769
1456.77608	0.02835
1455.49031	0.02901
1454.20454	0.02949
1452.91877	0.02968
1451.63301	0.02965
1450.34724	0.02949
1449.06147	0.02921
1447.77570	0.02882
1446.48993	0.02835
1445.20416	0.02782
1443.91839	0.02725
1442.63262	0.02665
1441.34685	0.02602
1440.06109	0.02538
1438.77532	0.02473
1437.48955	0.02417
1436.20378	0.02383
1434.91801	0.02373
1433.63224	0.02374
1432.34647	0.02379
1431.06070	0.02392
1429.77494	0.02418
1428.48917	0.02459
1427.20340	0.02511
1425.91763	0.02568
1424.63186	0.02626
1423.34609	0.02687
1422.06032	0.02745
1420.77455	0.02791
1419.48878	0.02825
1418.20302	0.02851
1416.91725	0.02873
1415.63148	0.02889
1414.34571	0.02897
1413.05994	0.02896
1411.77417	0.02882
1410.48840	0.02855
1409.20263	0.02815
1407.91687	0.02761
1406.63110	0.02697
1405.34533	0.02626
1404.05956	0.02552
1402.77379	0.02477
1401.48802	0.02395
1400.20225	0.02308
1398.91648	0.02219
1397.63071	0.02132
1396.34495	0.02047
1395.05918	0.01965
1393.77341	0.01893
1392.48764	0.01833
1391.20187	0.01780
1389.91610	0.01728
1388.63033	0.01674
1387.34456	0.01620
1386.05880	0.01569
1384.77303	0.01519
1383.48726	0.01473
1382.20149	0.01430
1380.91572	0.01390
1379.62995	0.01350
1378.34418	0.01307
1377.05841	0.01265
1375.77264	0.01226
1374.48688	0.01193
1373.20111	0.01163
1371.91534	0.01131
1370.62957	0.01096
1369.34380	0.01058
1368.05803	0.01021
1366.77226	0.00987
1365.48649	0.00955
1364.20073	0.00926
1362.91496	0.00900
1361.62919	0.00880
1360.34342	0.00864
1359.05765	0.00851
1357.77188	0.00841
1356.48611	0.00831
1355.20034	0.00821
1353.91457	0.00811
1352.62881	0.00801
1351.34304	0.00788
1350.05727	0.00772
1348.77150	0.00756
1347.48573	0.00743
1346.19996	0.00735
1344.91419	0.00730
1343.62842	0.00726
1342.34266	0.00724
1341.05689	0.00722
1339.77112	0.00717
1338.48535	0.00711
1337.19958	0.00707
1335.91381	0.00706
1334.62804	0.00707
1333.34227	0.00706
1332.05650	0.00701
1330.77074	0.00695
1329.48497	0.00690
1328.19920	0.00686
1326.91343	0.00682
1325.62766	0.00677
1324.34189	0.00672
1323.05612	0.00668
1321.77035	0.00667
1320.48459	0.00665
1319.19882	0.00659
1317.91305	0.00651
1316.62728	0.00643
1315.34151	0.00637
1314.05574	0.00634
1312.76997	0.00630
1311.48420	0.00625
1310.19843	0.00620
1308.91267	0.00614
1307.62690	0.00610
1306.34113	0.00608
1305.05536	0.00610
1303.76959	0.00613
1302.48382	0.00613
1301.19805	0.00611
1299.91228	0.00609
1298.62652	0.00611
1297.34075	0.00616
1296.05498	0.00618
1294.76921	0.00614
1293.48344	0.00606
1292.19767	0.00599
1290.91190	0.00592
1289.62613	0.00586
1288.34036	0.00581
1287.05460	0.00576
1285.76883	0.00569
1284.48306	0.00562
1283.19729	0.00556
1281.91152	0.00553
1280.62575	0.00554
1279.33998	0.00559
1278.05421	0.00566
1276.76845	0.00570
1275.48268	0.00572
1274.19691	0.00570
1272.91114	0.00568
1271.62537	0.00567
1270.33960	0.00567
1269.05383	0.00569
1267.76806	0.00570
1266.48229	0.00571
1265.19653	0.00572
1263.91076	0.00573
1262.62499	0.00571
1261.33922	0.00567
1260.05345	0.00562
1258.76768	0.00557
1257.48191	0.00553
1256.19614	0.00552
1254.91037	0.00553
1253.62461	0.00555
1252.33884	0.00555
1251.05307	0.00554
1249.76730	0.00551
1248.48153	0.00548
1247.19576	0.00547
1245.90999	0.00545
1244.62422	0.00544
1243.33846	0.00545
1242.05269	0.00547
1240.76692	0.00552
1239.48115	0.00557
1238.19538	0.00560
1236.90961	0.00561
1235.62384	0.00559
1234.33807	0.00558
1233.05230	0.00559
1231.76654	0.00563
1230.48077	0.00568
1229.19500	0.00571
1227.90923	0.00568
1226.62346	0.00557
1225.33769	0.00538
1224.05192	0.00520
1222.76615	0.00510
1221.48039	0.00511
1220.19462	0.00517
1218.90885	0.00525
1217.62308	0.00530
1216.33731	0.00534
1215.05154	0.00537
1213.76577	0.00538
1212.48000	0.00534
1211.19423	0.00528
1209.90847	0.00525
1208.62270	0.00526
1207.33693	0.00532
1206.05116	0.00538
1204.76539	0.00543
1203.47962	0.00544
1202.19385	0.00541
1200.90808	0.00539
1199.62232	0.00539
1198.33655	0.00537
1197.05078	0.00534
1195.76501	0.00530
1194.47924	0.00528
1193.19347	0.00527
1191.90770	0.00529
1190.62193	0.00534
1189.33616	0.00543
1188.05040	0.00553
1186.76463	0.00559
1185.47886	0.00561
1184.19309	0.00562
1182.90732	0.00567
1181.62155	0.00573
1180.33578	0.00579
1179.05001	0.00583
1177.76425	0.00587
1176.47848	0.00592
1175.19271	0.00598
1173.90694	0.00607
1172.62117	0.00619
1171.33540	0.00632
1170.04963	0.00644
1168.76386	0.00654
1167.47809	0.00663
1166.19233	0.00672
1164.90656	0.00682
1163.62079	0.00693
1162.33502	0.00708
1161.04925	0.00728
1159.76348	0.00752
1158.47771	0.00772
1157.19194	0.00782
1155.90618	0.00786
1154.62041	0.00794
1153.33464	0.00816
1152.04887	0.00853
1150.76310	0.00893
1149.47733	0.00930
1148.19156	0.00964
1146.90579	0.00998
1145.62002	0.01037
1144.33426	0.01079
1143.04849	0.01120
1141.76272	0.01158
1140.47695	0.01196
1139.19118	0.01240
1137.90541	0.01296
1136.61964	0.01365
1135.33387	0.01442
1134.04811	0.01524
1132.76234	0.01615
1131.47657	0.01719
1130.19080	0.01840
1128.90503	0.01978
1127.61926	0.02131
1126.33349	0.02299
1125.04772	0.02487
1123.76195	0.02698
1122.47619	0.02932
1121.19042	0.03180
1119.90465	0.03437
1118.61888	0.03698
1117.33311	0.03959
1116.04734	0.04210
1114.76157	0.04444
1113.47580	0.04661
1112.19004	0.04872
1110.90427	0.05085
1109.61850	0.05295
1108.33273	0.05497
1107.04696	0.05689
1105.76119	0.05874
1104.47542	0.06052
1103.18965	0.06221
1101.90388	0.06379
1100.61812	0.06531
1099.33235	0.06679
1098.04658	0.06821
1096.76081	0.06957
1095.47504	0.07087
1094.18927	0.07214
1092.90350	0.07335
1091.61773	0.07447
1090.33197	0.07548
1089.04620	0.07630
1087.76043	0.07695
1086.47466	0.07745
1085.18889	0.07790
1083.90312	0.07840
1082.61735	0.07907
1081.33158	0.08003
1080.04581	0.08133
1078.76005	0.08292
1077.47428	0.08476
1076.18851	0.08679
1074.90274	0.08896
1073.61697	0.09123
1072.33120	0.09357
1071.04543	0.09596
1069.75966	0.09841
1068.47390	0.10095
1067.18813	0.10360
1065.90236	0.10633
1064.61659	0.10909
1063.33082	0.11184
1062.04505	0.11459
1060.75928	0.11734
1059.47351	0.12009
1058.18774	0.12280
1056.90198	0.12545
1055.61621	0.12807
1054.33044	0.13072
1053.04467	0.13340
1051.75890	0.13608
1050.47313	0.13878
1049.18736	0.14153
1047.90159	0.14438
1046.61583	0.14730
1045.33006	0.15022
1044.04429	0.15304
1042.75852	0.15570
1041.47275	0.15816
1040.18698	0.16043
1038.90121	0.16249
1037.61544	0.16440
1036.32967	0.16626
1035.04391	0.16816
1033.75814	0.17007
1032.47237	0.17187
1031.18660	0.17341
1029.90083	0.17460
1028.61506	0.17545
1027.32929	0.17595
1026.04352	0.17605
1024.75775	0.17560
1023.47199	0.17441
1022.18622	0.17234
1020.90045	0.16938
1019.61468	0.16560
1018.32891	0.16113
1017.04314	0.15608
1015.75737	0.15060
1014.47160	0.14483
1013.18584	0.13888
1011.90007	0.13285
1010.61430	0.12681
1009.32853	0.12084
1008.04276	0.11500
1006.75699	0.10927
1005.47122	0.10360
1004.18545	0.09798
1002.89968	0.09249
1001.61392	0.08725
1000.32815	0.08230
999.04238	0.07759
997.75661	0.07305
996.47084	0.06868
995.18507	0.06457
993.89930	0.06081
992.61353	0.05742
991.32777	0.05429
990.04200	0.05133
988.75623	0.04854
987.47046	0.04597
986.18469	0.04372
984.89892	0.04176
983.61315	0.04000
982.32738	0.03833
981.04161	0.03671
979.75585	0.03518
978.47008	0.03379
977.18431	0.03258
975.89854	0.03157
974.61277	0.03077
973.32700	0.03020
972.04123	0.02985
970.75546	0.02975
969.46970	0.02996
968.18393	0.03054
966.89816	0.03150
965.61239	0.03276
964.32662	0.03416
963.04085	0.03541
961.75508	0.03616
960.46931	0.03620
959.18354	0.03551
957.89778	0.03425
956.61201	0.03274
955.32624	0.03120
954.04047	0.02977
952.75470	0.02845
951.46893	0.02723
950.18316	0.02611
948.89739	0.02514
947.61163	0.02431
946.32586	0.02358
945.04009	0.02291
943.75432	0.02225
942.46855	0.02157
941.18278	0.02085
939.89701	0.02010
938.61124	0.01939
937.32547	0.01877
936.03971	0.01831
934.75394	0.01801
933.46817	0.01781
932.18240	0.01762
930.89663	0.01737
929.61086	0.01705
928.32509	0.01670
927.03932	0.01636
925.75356	0.01606
924.46779	0.01581
923.18202	0.01561
921.89625	0.01544
920.61048	0.01528
919.32471	0.01514
918.03894	0.01508
916.75317	0.01508
915.46740	0.01509
914.18164	0.01500
912.89587	0.01478
911.61010	0.01449
910.32433	0.01424
909.03856	0.01412
907.75279	0.01418
906.46702	0.01434
905.18125	0.01446
903.89549	0.01441
902.60972	0.01421
901.32395	0.01395
900.03818	0.01373
898.75241	0.01358
897.46664	0.01351
896.18087	0.01350
894.89510	0.01353
893.60933	0.01355
892.32357	0.01355
891.03780	0.01350
889.75203	0.01339
888.46626	0.01329
887.18049	0.01334
885.89472	0.01372
884.60895	0.01453
883.32318	0.01570
882.03742	0.01696
880.75165	0.01797
879.46588	0.01851
878.18011	0.01863
876.89434	0.01866
875.60857	0.01888
874.32280	0.01932
873.03703	0.01973
871.75126	0.01978
870.46550	0.01938
869.17973	0.01864
867.89396	0.01773
866.60819	0.01676
865.32242	0.01581
864.03665	0.01499
862.75088	0.01438
861.46511	0.01396
860.17935	0.01366
858.89358	0.01338
857.60781	0.01305
856.32204	0.01265
855.03627	0.01228
853.75050	0.01201
852.46473	0.01187
851.17896	0.01182
849.89319	0.01180
848.60743	0.01178
847.32166	0.01173
846.03589	0.01164
844.75012	0.01149
843.46435	0.01132
842.17858	0.01116
840.89281	0.01104
839.60704	0.01100
838.32128	0.01099
837.03551	0.01099
835.74974	0.01095
834.46397	0.01088
833.17820	0.01083
831.89243	0.01086
830.60666	0.01095
829.32089	0.01101
828.03512	0.01098
826.74936	0.01085
825.46359	0.01070
824.17782	0.01062
822.89205	0.01061
821.60628	0.01059
820.32051	0.01049
819.03474	0.01037
817.74897	0.01027
816.46321	0.01023
815.17744	0.01021
813.89167	0.01020
812.60590	0.01023
811.32013	0.01032
810.03436	0.01041
808.74859	0.01044
807.46282	0.01034
806.17705	0.01017
804.89129	0.01005
803.60552	0.01003
802.31975	0.01007
801.03398	0.01007
799.74821	0.00999
798.46244	0.00987
797.17667	0.00981
795.89090	0.00985
794.60513	0.00993
793.31937	0.00998
792.03360	0.00996
790.74783	0.00991
789.46206	0.00990
788.17629	0.00993
786.89052	0.00995
785.60475	0.00992
784.31898	0.00982
783.03322	0.00968
781.74745	0.00952
780.46168	0.00938
779.17591	0.00930
777.89014	0.00933
776.60437	0.00944
775.31860	0.00953
774.03283	0.00954
772.74706	0.00949
771.46130	0.00945
770.17553	0.00945
768.88976	0.00950
767.60399	0.00958
766.31822	0.00973
765.03245	0.00994
763.74668	0.01012
762.46091	0.01014
761.17515	0.00997
759.88938	0.00976
758.60361	0.00963
757.31784	0.00959
756.03207	0.00956
754.74630	0.00949
753.46053	0.00944
752.17476	0.00952
750.88899	0.00969
749.60323	0.00981
748.31746	0.00977
747.03169	0.00964
745.74592	0.00955
744.46015	0.00956
743.17438	0.00959
741.88861	0.00953
740.60284	0.00939
739.31708	0.00925
738.03131	0.00918
736.74554	0.00919
735.45977	0.00923
734.17400	0.00932
732.88823	0.00948
731.60246	0.00968
730.31669	0.00983
729.03092	0.00987
727.74516	0.00981
726.45939	0.00973
725.17362	0.00973
723.88785	0.00981
722.60208	0.00994
721.31631	0.01004
720.03054	0.01007
718.74477	0.01005
717.45901	0.01000
716.17324	0.00995
714.88747	0.00990
713.60170	0.00986
712.31593	0.00982
711.03016	0.00981
709.74439	0.00983
708.45862	0.00989
707.17285	0.00995
705.88709	0.00997
704.60132	0.00996
703.31555	0.00993
702.02978	0.00991
700.74401	0.00990
699.45824	0.00991
698.17247	0.00992
696.88670	0.00995
695.60094	0.00997
694.31517	0.00995
693.02940	0.00992
691.74363	0.00992
690.45786	0.00998
689.17209	0.01012
687.88632	0.01027
686.60055	0.01036
685.31478	0.01037
684.02902	0.01034
682.74325	0.01032
681.45748	0.01034
680.17171	0.01041
678.88594	0.01052
677.60017	0.01065
676.31440	0.01079
675.02863	0.01090
673.74287	0.01096
672.45710	0.01101
671.17133	0.01110
669.88556	0.01123
668.59979	0.01140
667.31402	0.01156
666.02825	0.01169
664.74248	0.01181
663.45671	0.01190
662.17095	0.01194
660.88518	0.01198
659.59941	0.01201
658.31364	0.01207
657.02787	0.01214
655.74210	0.01223
654.45633	0.01237
653.17056	0.01257
651.88480	0.01284
650.59903	0.01317
649.31326	0.01357
648.02749	0.01398
646.74172	0.01440
645.45595	0.01480
644.17018	0.01523
642.88441	0.01571
641.59864	0.01622
640.31288	0.01673
639.02711	0.01723
637.74134	0.01774
636.45557	0.01828
635.16980	0.01880
633.88403	0.01927
632.59826	0.01965
631.31249	0.01992
630.02673	0.01996
628.74096	0.01979
627.45519	0.01991
626.16942	0.01933
624.88365	0.01833
623.59788	0.01763
622.31211	0.01764
621.02634	0.01824
619.74057	0.01915
618.45481	0.02050
617.16904	0.02253
615.88327	0.02474
614.59750	0.02602
613.31173	0.02590
612.02596	0.02549
610.74019	0.02684
609.45442	0.03091
608.16866	0.03659
606.88289	0.04202
605.59712	0.04633
604.31135	0.04955
603.02558	0.05169
601.73981	0.05250
600.45404	0.05187
599.16827	0.05004
597.88250	0.04747
596.59674	0.04458
595.31097	0.04172
594.02520	0.03922
592.73943	0.03738
591.45366	0.03633
590.16789	0.03592
588.88212	0.03594
587.59635	0.03625
586.31059	0.03694
585.02482	0.03813
583.73905	0.03984
582.45328	0.04194
581.16751	0.04425
579.88174	0.04671
578.59597	0.04934
577.31020	0.05219
576.02443	0.05524
574.73867	0.05832
573.45290	0.06125
572.16713	0.06397
570.88136	0.06658
569.59559	0.06931
568.30982	0.07226
567.02405	0.07533
565.73828	0.07818
564.45251	0.08038
563.16675	0.08146
561.88098	0.08100
560.59521	0.07876
559.30944	0.07476
558.02367	0.06931
556.73790	0.06303
555.45213	0.05659
554.16636	0.05056
552.88060	0.04526
551.59483	0.04081
550.30906	0.03721
549.02329	0.03438
547.73752	0.03213
546.45175	0.03022
545.16598	0.02850
543.88021	0.02692
542.59444	0.02545
541.30868	0.02410
540.02291	0.02292
538.73714	0.02191
537.45137	0.02106
536.16560	0.02035
534.87983	0.01974
533.59406	0.01916
532.30829	0.01856
531.02253	0.01792
529.73676	0.01728
528.45099	0.01672
527.16522	0.01626
525.87945	0.01590
524.59368	0.01558
523.30791	0.01524
522.02214	0.01486
520.73637	0.01443
519.45061	0.01398
518.16484	0.01352
516.87907	0.01310
515.59330	0.01274
514.30753	0.01249
513.02176	0.01234
511.73599	0.01225
510.45022	0.01216
509.16446	0.01202
507.87869	0.01181
506.59292	0.01155
505.30715	0.01130
504.02138	0.01110
502.73561	0.01094
501.44984	0.01076
500.16407	0.01054
498.87830	0.01031
497.59254	0.01014
496.30677	0.01004
495.02100	0.00994
493.73523	0.00982
492.44946	0.00972
491.16369	0.00970
489.87792	0.00979
488.59215	0.00996
487.30639	0.01015
486.02062	0.01027
484.73485	0.01028
483.44908	0.01022
482.16331	0.01015
480.87754	0.01014
479.59177	0.01022
478.30600	0.01042
477.02023	0.01074
475.73447	0.01115
474.44870	0.01154
473.16293	0.01185
471.87716	0.01203
470.59139	0.01207
469.30562	0.01197
468.01985	0.01175
466.73408	0.01149
465.44832	0.01129
464.16255	0.01117
462.87678	0.01107
461.59101	0.01094
460.30524	0.01074
459.01947	0.01051
457.73370	0.01029
456.44793	0.01008
455.16216	0.00987
453.87640	0.00966
452.59063	0.00947
451.30486	0.00933
450.01909	0.00924
448.73332	0.00919
447.44755	0.00915
446.16178	0.00912
444.87601	0.00907
443.59025	0.00898
442.30448	0.00889
441.01871	0.00883
439.73294	0.00884
438.44717	0.00887
437.16140	0.00888
435.87563	0.00886
434.58986	0.00884
433.30409	0.00885
432.01833	0.00890
430.73256	0.00895
429.44679	0.00896
428.16102	0.00893
426.87525	0.00889
425.58948	0.00882
424.30371	0.00874
423.01794	0.00866
421.73218	0.00859
420.44641	0.00854
419.16064	0.00851
417.87487	0.00847
416.58910	0.00841
415.30333	0.00832
414.01756	0.00827
412.73179	0.00828
411.44602	0.00833
410.16026	0.00838
408.87449	0.00841
407.58872	0.00844
406.30295	0.00852
405.01718	0.00866
403.73141	0.00881
402.44564	0.00892
401.15987	0.00898
399.87411	0.00902
