3997.45528	0.03864
3996.16951	0.03855
3994.88374	0.03832
3993.59798	0.03802
3992.31221	0.03790
3991.02644	0.03806
3989.74067	0.03831
3988.45490	0.03845
3987.16913	0.03840
3985.88336	0.03809
3984.59759	0.03746
3983.31183	0.03671
3982.02606	0.03631
3980.74029	0.03663
3979.45452	0.03752
3978.16875	0.03841
3976.88298	0.03885
3975.59721	0.03882
3974.31144	0.03856
3973.02567	0.03835
3971.73991	0.03833
3970.45414	0.03844
3969.16837	0.03852
3967.88260	0.03847
3966.59683	0.03837
3965.31106	0.03824
3964.02529	0.03804
3962.73952	0.03775
3961.45376	0.03749
3960.16799	0.03740
3958.88222	0.03733
3957.59645	0.03692
3956.31068	0.03609
3955.02491	0.03518
3953.73914	0.03476
3952.45337	0.03505
3951.16760	0.03582
3949.88184	0.03655
3948.59607	0.03685
3947.31030	0.03666
3946.02453	0.03620
3944.73876	0.03580
3943.45299	0.03574
3942.16722	0.03607
3940.88145	0.03642
3939.59569	0.03632
3938.30992	0.03569
3937.02415	0.03496
3935.73838	0.03460
3934.45261	0.03466
3933.16684	0.03485
3931.88107	0.03495
3930.59530	0.03498
3929.30953	0.03516
3928.02377	0.03557
3926.73800	0.03601
3925.45223	0.03619
3924.16646	0.03608
3922.88069	0.03584
3921.59492	0.03561
3920.30915	0.03540
3919.02338	0.03517
3917.73762	0.03504
3916.45185	0.03513
3915.16608	0.03536
3913.88031	0.03548
3912.59454	0.03533
3911.30877	0.03507
3910.02300	0.03497
3908.73723	0.03517
3907.45146	0.03560
3906.16570	0.03603
3904.87993	0.03627
3903.59416	0.03629
3902.30839	0.03617
3901.02262	0.03603
3899.73685	0.03599
3898.45108	0.03602
3897.16531	0.03595
3895.87955	0.03578
3894.59378	0.03567
3893.30801	0.03575
3892.02224	0.03596
3890.73647	0.03621
3889.45070	0.03632
3888.16493	0.03604
3886.87916	0.03546
3885.59339	0.03517
3884.30763	0.03558
3883.02186	0.03635
3881.73609	0.03679
3880.45032	0.03668
3879.16455	0.03623
3877.87878	0.03561
3876.59301	0.03483
3875.30724	0.03408
3874.02148	0.03368
3872.73571	0.03361
3871.44994	0.03358
3870.16417	0.03366
3868.87840	0.03404
3867.59263	0.03442
3866.30686	0.03441
3865.02109	0.03410
3863.73532	0.03372
3862.44956	0.03331
3861.16379	0.03290
3859.87802	0.03279
3858.59225	0.03316
3857.30648	0.03371
3856.02071	0.03389
3854.73494	0.03365
3853.44917	0.03364
3852.16341	0.03427
3850.87764	0.03522
3849.59187	0.03596
3848.30610	0.03629
3847.02033	0.03615
3845.73456	0.03559
3844.44879	0.03488
3843.16302	0.03432
3841.87725	0.03396
3840.59149	0.03350
3839.30572	0.03283
3838.01995	0.03239
3836.73418	0.03262
3835.44841	0.03335
3834.16264	0.03406
3832.87687	0.03452
3831.59110	0.03482
3830.30534	0.03508
3829.01957	0.03523
3827.73380	0.03524
3826.44803	0.03530
3825.16226	0.03552
3823.87649	0.03568
3822.59072	0.03560
3821.30495	0.03557
3820.01918	0.03583
3818.73342	0.03601
3817.44765	0.03575
3816.16188	0.03537
3814.87611	0.03536
3813.59034	0.03554
3812.30457	0.03548
3811.01880	0.03503
3809.73303	0.03420
3808.44726	0.03312
3807.16150	0.03245
3805.87573	0.03287
3804.58996	0.03412
3803.30419	0.03525
3802.01842	0.03575
3800.73265	0.03578
3799.44688	0.03554
3798.16111	0.03509
3796.87535	0.03484
3795.58958	0.03516
3794.30381	0.03591
3793.01804	0.03648
3791.73227	0.03644
3790.44650	0.03580
3789.16073	0.03491
3787.87496	0.03418
3786.58919	0.03375
3785.30343	0.03360
3784.01766	0.03372
3782.73189	0.03406
3781.44612	0.03451
3780.16035	0.03498
3778.87458	0.03548
3777.58881	0.03601
3776.30304	0.03642
3775.01728	0.03648
3773.73151	0.03594
3772.44574	0.03481
3771.15997	0.03354
3769.87420	0.03280
3768.58843	0.03278
3767.30266	0.03306
3766.01689	0.03321
3764.73112	0.03319
3763.44536	0.03319
3762.15959	0.03330
3760.87382	0.03353
3759.58805	0.03375
3758.30228	0.03385
3757.01651	0.03395
3755.73074	0.03421
3754.44497	0.03443
3753.15921	0.03434
3751.87344	0.03393
3750.58767	0.03351
3749.30190	0.03348
3748.01613	0.03370
3746.73036	0.03344
3745.44459	0.03255
3744.15882	0.03199
3742.87305	0.03245
3741.58729	0.03339
3740.30152	0.03403
3739.01575	0.03406
3737.72998	0.03359
3736.44421	0.03306
3735.15844	0.03292
3733.87267	0.03311
3732.58690	0.03333
3731.30114	0.03348
3730.01537	0.03342
3728.72960	0.03306
3727.44383	0.03250
3726.15806	0.03204
3724.87229	0.03175
3723.58652	0.03150
3722.30075	0.03134
3721.01498	0.03140
3719.72922	0.03170
3718.44345	0.03217
3717.15768	0.03276
3715.87191	0.03327
3714.58614	0.03335
3713.30037	0.03285
3712.01460	0.03216
3710.72883	0.03181
3709.44307	0.03191
3708.15730	0.03221
3706.87153	0.03239
3705.58576	0.03222
3704.29999	0.03168
3703.01422	0.03121
3701.72845	0.03129
3700.44268	0.03172
3699.15691	0.03169
3697.87115	0.03090
3696.58538	0.03011
3695.29961	0.03011
3694.01384	0.03096
3692.72807	0.03218
3691.44230	0.03296
3690.15653	0.03270
3688.87076	0.03177
3687.58500	0.03106
3686.29923	0.03088
3685.01346	0.03109
3683.72769	0.03151
3682.44192	0.03211
3681.15615	0.03288
3679.87038	0.03350
3678.58461	0.03347
3677.29884	0.03272
3676.01308	0.03203
3674.72731	0.03223
3673.44154	0.03313
3672.15577	0.03388
3670.87000	0.03426
3669.58423	0.03457
3668.29846	0.03461
3667.01269	0.03395
3665.72693	0.03277
3664.44116	0.03174
3663.15539	0.03143
3661.86962	0.03198
3660.58385	0.03312
3659.29808	0.03428
3658.01231	0.03488
3656.72654	0.03491
3655.44077	0.03497
3654.15501	0.03551
3652.86924	0.03621
3651.58347	0.03640
3650.29770	0.03580
3649.01193	0.03481
3647.72616	0.03406
3646.44039	0.03384
3645.15462	0.03399
3643.86886	0.03420
3642.58309	0.03439
3641.29732	0.03463
3640.01155	0.03504
3638.72578	0.03560
3637.44001	0.03621
3636.15424	0.03667
3634.86847	0.03695
3633.58270	0.03714
3632.29694	0.03719
3631.01117	0.03685
3629.72540	0.03626
3628.43963	0.03592
3627.15386	0.03604
3625.86809	0.03631
3624.58232	0.03661
3623.29655	0.03706
3622.01079	0.03768
3620.72502	0.03836
3619.43925	0.03907
3618.15348	0.03975
3616.86771	0.04010
3615.58194	0.03992
3614.29617	0.03942
3613.01040	0.03912
3611.72463	0.03930
3610.43887	0.03987
3609.15310	0.04060
3607.86733	0.04130
3606.58156	0.04176
3605.29579	0.04182
3604.01002	0.04154
3602.72425	0.04116
3601.43848	0.04098
3600.15272	0.04114
3598.86695	0.04142
3597.58118	0.04153
3596.29541	0.04145
3595.00964	0.04142
3593.72387	0.04170
3592.43810	0.04234
3591.15233	0.04305
3589.86656	0.04338
3588.58080	0.04313
3587.29503	0.04259
3586.00926	0.04212
3584.72349	0.04182
3583.43772	0.04170
3582.15195	0.04167
3580.86618	0.04176
3579.58041	0.04216
3578.29464	0.04294
3577.00888	0.04379
3575.72311	0.04432
3574.43734	0.04447
3573.15157	0.04462
3571.86580	0.04523
3570.58003	0.04628
3569.29426	0.04738
3568.00849	0.04813
3566.72273	0.04829
3565.43696	0.04779
3564.15119	0.04678
3562.86542	0.04569
3561.57965	0.04503
3560.29388	0.04497
3559.00811	0.04532
3557.72234	0.04582
3556.43657	0.04630
3555.15081	0.04665
3553.86504	0.04679
3552.57927	0.04677
3551.29350	0.04668
3550.00773	0.04653
3548.72196	0.04635
3547.43619	0.04633
3546.15042	0.04673
3544.86466	0.04756
3543.57889	0.04853
3542.29312	0.04943
3541.00735	0.05029
3539.72158	0.05108
3538.43581	0.05156
3537.15004	0.05149
3535.86427	0.05103
3534.57850	0.05061
3533.29274	0.05059
3532.00697	0.05091
3530.72120	0.05129
3529.43543	0.05157
3528.14966	0.05175
3526.86389	0.05188
3525.57812	0.05191
3524.29235	0.05179
3523.00659	0.05160
3521.72082	0.05151
3520.43505	0.05160
3519.14928	0.05177
3517.86351	0.05181
3516.57774	0.05159
3515.29197	0.05128
3514.00620	0.05116
3512.72043	0.05140
3511.43467	0.05188
3510.14890	0.05240
3508.86313	0.05280
3507.57736	0.05312
3506.29159	0.05345
3505.00582	0.05385
3503.72005	0.05423
3502.43428	0.05439
3501.14852	0.05423
3499.86275	0.05395
3498.57698	0.05385
3497.29121	0.05407
3496.00544	0.05453
3494.71967	0.05503
3493.43390	0.05532
3492.14813	0.05516
3490.86236	0.05459
3489.57660	0.05398
3488.29083	0.05378
3487.00506	0.05412
3485.71929	0.05476
3484.43352	0.05544
3483.14775	0.05610
3481.86198	0.05674
3480.57621	0.05731
3479.29045	0.05775
3478.00468	0.05805
3476.71891	0.05823
3475.43314	0.05824
3474.14737	0.05801
3472.86160	0.05762
3471.57583	0.05720
3470.29006	0.05693
3469.00429	0.05695
3467.71853	0.05738
3466.43276	0.05810
3465.14699	0.05876
3463.86122	0.05897
3462.57545	0.05877
3461.28968	0.05851
3460.00391	0.05851
3458.71814	0.05876
3457.43238	0.05903
3456.14661	0.05912
3454.86084	0.05903
3453.57507	0.05893
3452.28930	0.05900
3451.00353	0.05928
3449.71776	0.05961
3448.43199	0.05979
3447.14622	0.05976
3445.86046	0.05965
3444.57469	0.05967
3443.28892	0.05995
3442.00315	0.06048
3440.71738	0.06108
3439.43161	0.06154
3438.14584	0.06173
3436.86007	0.06161
3435.57431	0.06128
3434.28854	0.06088
3433.00277	0.06056
3431.71700	0.06036
3430.43123	0.06023
3429.14546	0.06021
3427.85969	0.06040
3426.57392	0.06088
3425.28815	0.06149
3424.00239	0.06189
3422.71662	0.06188
3421.43085	0.06153
3420.14508	0.06109
3418.85931	0.06083
3417.57354	0.06091
3416.28777	0.06133
3415.00200	0.06196
3413.71624	0.06260
3412.43047	0.06314
3411.14470	0.06344
3409.85893	0.06341
3408.57316	0.06310
3407.28739	0.06277
3406.00162	0.06270
3404.71585	0.06292
3403.43008	0.06325
3402.14432	0.06360
3400.85855	0.06395
3399.57278	0.06422
3398.28701	0.06431
3397.00124	0.06417
3395.71547	0.06391
3394.42970	0.06379
3393.14393	0.06399
3391.85817	0.06439
3390.57240	0.06465
3389.28663	0.06446
3388.00086	0.06383
3386.71509	0.06314
3385.42932	0.06283
3384.14355	0.06308
3382.85778	0.06376
3381.57201	0.06458
3380.28625	0.06528
3379.00048	0.06571
3377.71471	0.06583
3376.42894	0.06570
3375.14317	0.06540
3373.85740	0.06509
3372.57163	0.06492
3371.28586	0.06504
3370.00010	0.06545
3368.71433	0.06601
3367.42856	0.06648
3366.14279	0.06667
3364.85702	0.06651
3363.57125	0.06608
3362.28548	0.06559
3360.99971	0.06516
3359.71394	0.06481
3358.42818	0.06458
3357.14241	0.06462
3355.85664	0.06509
3354.57087	0.06587
3353.28510	0.06660
3351.99933	0.06696
3350.71356	0.06689
3349.42779	0.06656
3348.14202	0.06616
3346.85626	0.06587
3345.57049	0.06578
3344.28472	0.06591
3342.99895	0.06611
3341.71318	0.06615
3340.42741	0.06598
3339.14164	0.06574
3337.85587	0.06562
3336.57011	0.06565
3335.28434	0.06561
3333.99857	0.06530
3332.71280	0.06486
3331.42703	0.06465
3330.14126	0.06488
3328.85549	0.06533
3327.56972	0.06555
3326.28395	0.06533
3324.99819	0.06487
3323.71242	0.06451
3322.42665	0.06442
3321.14088	0.06452
3319.85511	0.06462
3318.56934	0.06468
3317.28357	0.06475
3315.99780	0.06482
3314.71204	0.06479
3313.42627	0.06458
3312.14050	0.06435
3310.85473	0.06436
3309.56896	0.06460
3308.28319	0.06480
3306.99742	0.06471
3305.71165	0.06431
3304.42588	0.06384
3303.14012	0.06357
3301.85435	0.06371
3300.56858	0.06427
3299.28281	0.06496
3297.99704	0.06537
3296.71127	0.06529
3295.42550	0.06487
3294.13973	0.06440
3292.85397	0.06403
3291.56820	0.06369
3290.28243	0.06330
3288.99666	0.06296
3287.71089	0.06291
3286.42512	0.06316
3285.13935	0.06348
3283.85358	0.06364
3282.56781	0.06366
3281.28205	0.06373
3279.99628	0.06398
3278.71051	0.06434
3277.42474	0.06465
3276.13897	0.06480
3274.85320	0.06471
3273.56743	0.06442
3272.28166	0.06409
3270.99590	0.06391
3269.71013	0.06394
3268.42436	0.06411
3267.13859	0.06423
3265.85282	0.06422
3264.56705	0.06408
3263.28128	0.06381
3261.99551	0.06345
3260.70974	0.06311
3259.42398	0.06300
3258.13821	0.06322
3256.85244	0.06362
3255.56667	0.06391
3254.28090	0.06395
3252.99513	0.06378
3251.70936	0.06353
3250.42359	0.06329
3249.13783	0.06304
3247.85206	0.06276
3246.56629	0.06249
3245.28052	0.06237
3243.99475	0.06243
3242.70898	0.06255
3241.42321	0.06259
3240.13744	0.06249
3238.85167	0.06230
3237.56591	0.06215
3236.28014	0.06212
3234.99437	0.06215
3233.70860	0.06211
3232.42283	0.06192
3231.13706	0.06166
3229.85129	0.06148
3228.56552	0.06136
3227.27976	0.06120
3225.99399	0.06091
3224.70822	0.06056
3223.42245	0.06033
3222.13668	0.06032
3220.85091	0.06050
3219.56514	0.06062
3218.27937	0.06049
3216.99360	0.06018
3215.70784	0.06003
3214.42207	0.06027
3213.13630	0.06074
3211.85053	0.06113
3210.56476	0.06125
3209.27899	0.06115
3207.99322	0.06101
3206.70745	0.06104
3205.42169	0.06129
3204.13592	0.06161
3202.85015	0.06177
3201.56438	0.06178
3200.27861	0.06177
3198.99284	0.06177
3197.70707	0.06165
3196.42130	0.06135
3195.13553	0.06097
3193.84977	0.06067
3192.56400	0.06046
3191.27823	0.06026
3189.99246	0.06008
3188.70669	0.06001
3187.42092	0.06008
3186.13515	0.06017
3184.84938	0.06003
3183.56362	0.05958
3182.27785	0.05906
3180.99208	0.05880
3179.70631	0.05891
3178.42054	0.05912
3177.13477	0.05904
3175.84900	0.05853
3174.56323	0.05791
3173.27746	0.05776
3171.99170	0.05829
3170.70593	0.05909
3169.42016	0.05955
3168.13439	0.05940
3166.84862	0.05893
3165.56285	0.05859
3164.27708	0.05858
3162.99131	0.05881
3161.70555	0.05909
3160.41978	0.05925
3159.13401	0.05923
3157.84824	0.05902
3156.56247	0.05868
3155.27670	0.05828
3153.99093	0.05794
3152.70516	0.05772
3151.41939	0.05756
3150.13363	0.05738
3148.84786	0.05719
3147.56209	0.05705
3146.27632	0.05701
3144.99055	0.05704
3143.70478	0.05708
3142.41901	0.05708
3141.13324	0.05700
3139.84748	0.05684
3138.56171	0.05660
3137.27594	0.05629
3135.99017	0.05595
3134.70440	0.05563
3133.41863	0.05541
3132.13286	0.05536
3130.84709	0.05542
3129.56132	0.05550
3128.27556	0.05555
3126.98979	0.05553
3125.70402	0.05538
3124.41825	0.05504
3123.13248	0.05462
3121.84671	0.05438
3120.56094	0.05447
3119.27517	0.05477
3117.98940	0.05502
3116.70364	0.05504
3115.41787	0.05480
3114.13210	0.05443
3112.84633	0.05414
3111.56056	0.05407
3110.27479	0.05415
3108.98902	0.05420
3107.70325	0.05414
3106.41749	0.05406
3105.13172	0.05416
3103.84595	0.05445
3102.56018	0.05472
3101.27441	0.05477
3099.98864	0.05459
3098.70287	0.05441
3097.41710	0.05437
3096.13133	0.05443
3094.84557	0.05444
3093.55980	0.05427
3092.27403	0.05400
3090.98826	0.05378
3089.70249	0.05368
3088.41672	0.05363
3087.13095	0.05347
3085.84518	0.05317
3084.55942	0.05290
3083.27365	0.05284
3081.98788	0.05300
3080.70211	0.05316
3079.41634	0.05313
3078.13057	0.05291
3076.84480	0.05262
3075.55903	0.05239
3074.27326	0.05228
3072.98750	0.05227
3071.70173	0.05232
3070.41596	0.05244
3069.13019	0.05258
3067.84442	0.05265
3066.55865	0.05258
3065.27288	0.05235
3063.98711	0.05207
3062.70135	0.05188
3061.41558	0.05188
3060.12981	0.05204
3058.84404	0.05214
3057.55827	0.05199
3056.27250	0.05160
3054.98673	0.05117
3053.70096	0.05093
3052.41519	0.05095
3051.12943	0.05113
3049.84366	0.05122
3048.55789	0.05108
3047.27212	0.05081
3045.98635	0.05066
3044.70058	0.05074
3043.41481	0.05087
3042.12904	0.05078
3040.84328	0.05043
3039.55751	0.05000
3038.27174	0.04968
3036.98597	0.04950
3035.70020	0.04933
3034.41443	0.04914
3033.12866	0.04906
3031.84289	0.04925
3030.55712	0.04966
3029.27136	0.05004
3027.98559	0.05013
3026.69982	0.04992
3025.41405	0.04959
3024.12828	0.04931
3022.84251	0.04910
3021.55674	0.04896
3020.27097	0.04891
3018.98521	0.04898
3017.69944	0.04906
3016.41367	0.04899
3015.12790	0.04874
3013.84213	0.04844
3012.55636	0.04826
3011.27059	0.04826
3009.98482	0.04835
3008.69905	0.04837
3007.41329	0.04829
3006.12752	0.04821
3004.84175	0.04821
3003.55598	0.04826
3002.27021	0.04826
3000.98444	0.04814
2999.69867	0.04792
2998.41290	0.04777
2997.12714	0.04773
2995.84137	0.04783
2994.55560	0.04807
2993.26983	0.04840
2991.98406	0.04871
2990.69829	0.04891
2989.41252	0.04896
2988.12675	0.04886
2986.84098	0.04868
2985.55522	0.04855
2984.26945	0.04861
2982.98368	0.04889
2981.69791	0.04925
2980.41214	0.04952
2979.12637	0.04960
2977.84060	0.04954
2976.55483	0.04946
2975.26907	0.04956
2973.98330	0.04996
2972.69753	0.05066
2971.41176	0.05155
2970.12599	0.05247
2968.84022	0.05330
2967.55445	0.05401
2966.26868	0.05465
2964.98291	0.05530
2963.69715	0.05602
2962.41138	0.05680
2961.12561	0.05761
2959.83984	0.05842
2958.55407	0.05924
2957.26830	0.06009
2955.98253	0.06086
2954.69676	0.06129
2953.41100	0.06128
2952.12523	0.06105
2950.83946	0.06093
2949.55369	0.06097
2948.26792	0.06097
2946.98215	0.06084
2945.69638	0.06071
2944.41061	0.06069
2943.12484	0.06076
2941.83908	0.06082
2940.55331	0.06084
2939.26754	0.06085
2937.98177	0.06089
2936.69600	0.06106
2935.41023	0.06146
2934.12446	0.06211
2932.83869	0.06295
2931.55293	0.06381
2930.26716	0.06453
2928.98139	0.06499
2927.69562	0.06518
2926.40985	0.06517
2925.12408	0.06509
2923.83831	0.06503
2922.55254	0.06495
2921.26677	0.06480
2919.98101	0.06454
2918.69524	0.06418
2917.40947	0.06375
2916.12370	0.06328
2914.83793	0.06273
2913.55216	0.06206
2912.26639	0.06133
2910.98062	0.06070
2909.69486	0.06032
2908.40909	0.06007
2907.12332	0.05969
2905.83755	0.05904
2904.55178	0.05824
2903.26601	0.05743
2901.98024	0.05670
2900.69447	0.05608
2899.40870	0.05564
2898.12294	0.05534
2896.83717	0.05504
2895.55140	0.05464
2894.26563	0.05418
2892.97986	0.05381
2891.69409	0.05359
2890.40832	0.05350
2889.12255	0.05343
2887.83678	0.05329
2886.55102	0.05303
2885.26525	0.05276
2883.97948	0.05262
2882.69371	0.05266
2881.40794	0.05276
2880.12217	0.05277
2878.83640	0.05266
2877.55063	0.05251
2876.26487	0.05244
2874.97910	0.05255
2873.69333	0.05287
2872.40756	0.05324
2871.12179	0.05349
2869.83602	0.05351
2868.55025	0.05334
2867.26448	0.05311
2865.97871	0.05294
2864.69295	0.05282
2863.40718	0.05271
2862.12141	0.05256
2860.83564	0.05236
2859.54987	0.05210
2858.26410	0.05178
2856.97833	0.05148
2855.69256	0.05136
2854.40680	0.05139
2853.12103	0.05140
2851.83526	0.05117
2850.54949	0.05066
2849.26372	0.05005
2847.97795	0.04949
2846.69218	0.04898
2845.40641	0.04846
2844.12064	0.04792
2842.83488	0.04737
2841.54911	0.04683
2840.26334	0.04628
2838.97757	0.04571
2837.69180	0.04513
2836.40603	0.04454
2835.12026	0.04400
2833.83449	0.04360
2832.54873	0.04332
2831.26296	0.04305
2829.97719	0.04265
2828.69142	0.04214
2827.40565	0.04160
2826.11988	0.04112
2824.83411	0.04076
2823.54834	0.04056
2822.26257	0.04046
2820.97681	0.04036
2819.69104	0.04021
2818.40527	0.04002
2817.11950	0.03981
2815.83373	0.03956
2814.54796	0.03924
2813.26219	0.03890
2811.97642	0.03860
2810.69066	0.03843
2809.40489	0.03840
2808.11912	0.03848
2806.83335	0.03858
2805.54758	0.03859
2804.26181	0.03842
2802.97604	0.03807
2801.69027	0.03765
2800.40450	0.03726
2799.11874	0.03697
2797.83297	0.03685
2796.54720	0.03686
2795.26143	0.03691
2793.97566	0.03687
2792.68989	0.03670
2791.40412	0.03645
2790.11835	0.03624
2788.83259	0.03614
2787.54682	0.03615
2786.26105	0.03618
2784.97528	0.03621
2783.68951	0.03624
2782.40374	0.03628
2781.11797	0.03626
2779.83220	0.03615
2778.54643	0.03602
2777.26067	0.03597
2775.97490	0.03602
2774.68913	0.03608
2773.40336	0.03606
2772.11759	0.03589
2770.83182	0.03559
2769.54605	0.03522
2768.26028	0.03493
2766.97452	0.03481
2765.68875	0.03483
2764.40298	0.03490
2763.11721	0.03496
2761.83144	0.03499
2760.54567	0.03501
2759.25990	0.03506
2757.97413	0.03514
2756.68836	0.03520
2755.40260	0.03520
2754.11683	0.03509
2752.83106	0.03490
2751.54529	0.03470
2750.25952	0.03453
2748.97375	0.03441
2747.68798	0.03432
2746.40221	0.03426
2745.11645	0.03420
2743.83068	0.03415
2742.54491	0.03412
2741.25914	0.03417
2739.97337	0.03431
2738.68760	0.03444
2737.40183	0.03447
2736.11606	0.03437
2734.83029	0.03426
2733.54453	0.03422
2732.25876	0.03423
2730.97299	0.03424
2729.68722	0.03425
2728.40145	0.03427
2727.11568	0.03420
2725.82991	0.03398
2724.54414	0.03369
2723.25838	0.03349
2721.97261	0.03342
2720.68684	0.03338
2719.40107	0.03321
2718.11530	0.03292
2716.82953	0.03264
2715.54376	0.03251
2714.25799	0.03260
2712.97222	0.03286
2711.68646	0.03311
2710.40069	0.03318
2709.11492	0.03297
2707.82915	0.03263
2706.54338	0.03237
2705.25761	0.03229
2703.97184	0.03235
2702.68607	0.03241
2701.40031	0.03240
2700.11454	0.03235
2698.82877	0.03225
2697.54300	0.03216
2696.25723	0.03209
2694.97146	0.03203
2693.68569	0.03197
2692.39992	0.03186
2691.11415	0.03170
2689.82839	0.03158
2688.54262	0.03151
2687.25685	0.03149
2685.97108	0.03151
2684.68531	0.03158
2683.39954	0.03168
2682.11377	0.03174
2680.82800	0.03170
2679.54224	0.03157
2678.25647	0.03143
2676.97070	0.03132
2675.68493	0.03128
2674.39916	0.03135
2673.11339	0.03148
2671.82762	0.03158
2670.54185	0.03154
2669.25608	0.03138
2667.97032	0.03115
2666.68455	0.03097
2665.39878	0.03092
2664.11301	0.03106
2662.82724	0.03132
2661.54147	0.03159
2660.25570	0.03173
2658.96993	0.03164
2657.68417	0.03136
2656.39840	0.03107
2655.11263	0.03092
2653.82686	0.03098
2652.54109	0.03113
2651.25532	0.03124
2649.96955	0.03128
2648.68378	0.03126
2647.39801	0.03114
2646.11225	0.03094
2644.82648	0.03078
2643.54071	0.03075
2642.25494	0.03080
2640.96917	0.03072
2639.68340	0.03043
2638.39763	0.03004
2637.11186	0.02974
2635.82609	0.02964
2634.54033	0.02966
2633.25456	0.02964
2631.96879	0.02955
2630.68302	0.02941
2629.39725	0.02930
2628.11148	0.02919
2626.82571	0.02905
2625.53994	0.02888
2624.25418	0.02870
2622.96841	0.02851
2621.68264	0.02826
2620.39687	0.02797
2619.11110	0.02773
2617.82533	0.02766
2616.53956	0.02784
2615.25379	0.02821
2613.96802	0.02850
2612.68226	0.02840
2611.39649	0.02787
2610.11072	0.02719
2608.82495	0.02677
2607.53918	0.02676
2606.25341	0.02700
2604.96764	0.02720
2603.68187	0.02723
2602.39611	0.02714
2601.11034	0.02703
2599.82457	0.02690
2598.53880	0.02667
2597.25303	0.02640
2595.96726	0.02625
2594.68149	0.02628
2593.39572	0.02637
2592.10995	0.02639
2590.82419	0.02636
2589.53842	0.02631
2588.25265	0.02618
2586.96688	0.02594
2585.68111	0.02572
2584.39534	0.02569
2583.10957	0.02587
2581.82380	0.02610
2580.53804	0.02620
2579.25227	0.02616
2577.96650	0.02614
2576.68073	0.02628
2575.39496	0.02654
2574.10919	0.02663
2572.82342	0.02630
2571.53765	0.02557
2570.25188	0.02482
2568.96612	0.02441
2567.68035	0.02439
2566.39458	0.02454
2565.10881	0.02460
2563.82304	0.02454
2562.53727	0.02443
2561.25150	0.02431
2559.96573	0.02417
2558.67997	0.02404
2557.39420	0.02395
2556.10843	0.02385
2554.82266	0.02373
2553.53689	0.02366
2552.25112	0.02375
2550.96535	0.02399
2549.67958	0.02425
2548.39381	0.02442
2547.10805	0.02448
2545.82228	0.02450
2544.53651	0.02450
2543.25074	0.02442
2541.96497	0.02420
2540.67920	0.02386
2539.39343	0.02359
2538.10766	0.02352
2536.82190	0.02354
2535.53613	0.02349
2534.25036	0.02339
2532.96459	0.02335
2531.67882	0.02340
2530.39305	0.02348
2529.10728	0.02348
2527.82151	0.02343
2526.53574	0.02341
2525.24998	0.02347
2523.96421	0.02358
2522.67844	0.02365
2521.39267	0.02352
2520.10690	0.02310
2518.82113	0.02254
2517.53536	0.02210
2516.24959	0.02195
2514.96383	0.02196
2513.67806	0.02195
2512.39229	0.02196
2511.10652	0.02218
2509.82075	0.02263
2508.53498	0.02298
2507.24921	0.02297
2505.96344	0.02265
2504.67767	0.02235
2503.39191	0.02231
2502.10614	0.02243
2500.82037	0.02250
2499.53460	0.02248
2498.24883	0.02251
2496.96306	0.02264
2495.67729	0.02275
2494.39152	0.02272
2493.10576	0.02260
2491.81999	0.02251
2490.53422	0.02248
2489.24845	0.02236
2487.96268	0.02205
2486.67691	0.02165
2485.39114	0.02147
2484.10537	0.02166
2482.81960	0.02206
2481.53384	0.02232
2480.24807	0.02230
2478.96230	0.02213
2477.67653	0.02200
2476.39076	0.02194
2475.10499	0.02182
2473.81922	0.02158
2472.53345	0.02130
2471.24769	0.02118
2469.96192	0.02132
2468.67615	0.02164
2467.39038	0.02197
2466.10461	0.02216
2464.81884	0.02223
2463.53307	0.02229
2462.24730	0.02241
2460.96153	0.02254
2459.67577	0.02251
2458.39000	0.02221
2457.10423	0.02168
2455.81846	0.02118
2454.53269	0.02096
2453.24692	0.02106
2451.96115	0.02130
2450.67538	0.02153
2449.38962	0.02172
2448.10385	0.02183
2446.81808	0.02177
2445.53231	0.02153
2444.24654	0.02128
2442.96077	0.02118
2441.67500	0.02125
2440.38923	0.02141
2439.10346	0.02149
2437.81770	0.02142
2436.53193	0.02122
2435.24616	0.02103
2433.96039	0.02097
2432.67462	0.02101
2431.38885	0.02104
2430.10308	0.02094
2428.81731	0.02074
2427.53155	0.02058
2426.24578	0.02059
2424.96001	0.02077
2423.67424	0.02096
2422.38847	0.02099
2421.10270	0.02075
2419.81693	0.02028
2418.53116	0.01971
2417.24539	0.01930
2415.95963	0.01926
2414.67386	0.01957
2413.38809	0.02001
2412.10232	0.02034
2410.81655	0.02043
2409.53078	0.02033
2408.24501	0.02016
2406.95924	0.02010
2405.67347	0.02022
2404.38771	0.02052
2403.10194	0.02089
2401.81617	0.02115
2400.53040	0.02114
2399.24463	0.02075
2397.95886	0.02008
2396.67309	0.01945
2395.38732	0.01903
2394.10156	0.01888
2392.81579	0.01900
2391.53002	0.01926
2390.24425	0.01953
2388.95848	0.01973
2387.67271	0.01991
2386.38694	0.02010
2385.10117	0.02025
2383.81540	0.02031
2382.52964	0.02031
2381.24387	0.02038
2379.95810	0.02057
2378.67233	0.02079
2377.38656	0.02090
2376.10079	0.02087
2374.81502	0.02065
2373.52925	0.02045
2372.24349	0.02035
2370.95772	0.02038
2369.67195	0.02021
2368.38618	0.01993
2367.10041	0.01978
2365.81464	0.01993
2364.52887	0.02006
2363.24310	0.02018
2361.95733	0.02050
2360.67157	0.02130
2359.38580	0.02189
2358.10003	0.02201
2356.81426	0.02180
2355.52849	0.02151
2354.24272	0.02129
2352.95695	0.02121
2351.67118	0.02155
2350.38542	0.02195
2349.09965	0.02175
2347.81388	0.02115
2346.52811	0.02137
2345.24234	0.02208
2343.95657	0.02181
2342.67080	0.02066
2341.38503	0.02085
2340.09926	0.02242
2338.81350	0.02225
2337.52773	0.02038
2336.24196	0.02072
2334.95619	0.02260
2333.67042	0.02190
2332.38465	0.01961
2331.09888	0.02015
2329.81311	0.02108
2328.52735	0.01973
2327.24158	0.02069
2325.95581	0.02304
2324.67004	0.02297
2323.38427	0.02307
2322.09850	0.02399
2320.81273	0.02296
2319.52696	0.02261
2318.24119	0.02303
2316.95543	0.02243
2315.66966	0.02247
2314.38389	0.02285
2313.09812	0.02263
2311.81235	0.02284
2310.52658	0.02265
2309.24081	0.02213
2307.95504	0.02178
2306.66928	0.02122
2305.38351	0.02104
2304.09774	0.02102
2302.81197	0.02085
2301.52620	0.02062
2300.24043	0.02012
2298.95466	0.01964
2297.66889	0.01923
2296.38312	0.01893
2295.09736	0.01888
2293.81159	0.01909
2292.52582	0.01964
2291.24005	0.02036
2289.95428	0.02098
2288.66851	0.02121
2287.38274	0.02096
2286.09697	0.02040
2284.81121	0.01990
2283.52544	0.01969
2282.23967	0.01977
2280.95390	0.01997
2279.66813	0.02010
2278.38236	0.02011
2277.09659	0.01998
2275.81082	0.01976
2274.52505	0.01950
2273.23929	0.01929
2271.95352	0.01917
2270.66775	0.01902
2269.38198	0.01864
2268.09621	0.01800
2266.81044	0.01739
2265.52467	0.01703
2264.23890	0.01680
2262.95314	0.01652
2261.66737	0.01620
2260.38160	0.01594
2259.09583	0.01580
2257.81006	0.01573
2256.52429	0.01560
2255.23852	0.01537
2253.95275	0.01510
2252.66698	0.01481
2251.38122	0.01443
2250.09545	0.01413
2248.80968	0.01419
2247.52391	0.01399
2246.23814	0.01416
2244.95237	0.01485
2243.66660	0.01583
2242.38083	0.01655
2241.09507	0.01653
2239.80930	0.01576
2238.52353	0.01482
2237.23776	0.01432
2235.95199	0.01434
2234.66622	0.01450
2233.38045	0.01445
2232.09468	0.01415
2230.80891	0.01376
2229.52315	0.01333
2228.23738	0.01287
2226.95161	0.01262
2225.66584	0.01291
2224.38007	0.01370
2223.09430	0.01448
2221.80853	0.01472
2220.52276	0.01445
2219.23700	0.01410
2217.95123	0.01392
2216.66546	0.01374
2215.37969	0.01312
2214.09392	0.01186
2212.80815	0.01033
2211.52238	0.00938
2210.23661	0.00959
2208.95084	0.01065
2207.66508	0.01149
2206.37931	0.01142
2205.09354	0.01069
2203.80777	0.01010
2202.52200	0.01007
2201.23623	0.01040
2199.95046	0.01069
2198.66469	0.01080
2197.37893	0.01081
2196.09316	0.01066
2194.80739	0.01008
2193.52162	0.00896
2192.23585	0.00774
2190.95008	0.00714
2189.66431	0.00747
2188.37854	0.00835
2187.09277	0.00906
2185.80701	0.00917
2184.52124	0.00872
2183.23547	0.00799
2181.94970	0.00726
2180.66393	0.00675
2179.37816	0.00653
2178.09239	0.00648
2176.80662	0.00643
2175.52085	0.00640
2174.23509	0.00666
2172.94932	0.00739
2171.66355	0.00838
2170.37778	0.00918
2169.09201	0.00948
2167.80624	0.00927
2166.52047	0.00866
2165.23470	0.00782
2163.94894	0.00691
2162.66317	0.00596
2161.37740	0.00483
2160.09163	0.00349
2158.80586	0.00219
2157.52009	0.00127
2156.23432	0.00085
2154.94855	0.00091
2153.66278	0.00142
2152.37702	0.00222
2151.09125	0.00298
2149.80548	0.00345
2148.51971	0.00370
2147.23394	0.00402
2145.94817	0.00457
2144.66240	0.00523
2143.37663	0.00569
2142.09087	0.00564
2140.80510	0.00505
2139.51933	0.00440
2138.23356	0.00437
2136.94779	0.00515
2135.66202	0.00616
2134.37625	0.00670
2133.09048	0.00664
2131.80471	0.00642
2130.51895	0.00637
2129.23318	0.00648
2127.94741	0.00666
2126.66164	0.00699
2125.37587	0.00759
2124.09010	0.00839
2122.80433	0.00914
2121.51856	0.00970
2120.23280	0.01013
2118.94703	0.01054
2117.66126	0.01092
2116.37549	0.01110
2115.08972	0.01091
2113.80395	0.01051
2112.51818	0.01035
2111.23241	0.01070
2109.94664	0.01129
2108.66088	0.01147
2107.37511	0.01095
2106.08934	0.01013
2104.80357	0.00964
2103.51780	0.00962
2102.23203	0.00975
2100.94626	0.00965
2099.66049	0.00850
2098.37473	0.00779
2097.08896	0.00761
2095.80319	0.00777
2094.51742	0.00826
2093.23165	0.00894
2091.94588	0.00952
2090.66011	0.00966
2089.37434	0.00930
2088.08857	0.00864
2086.80281	0.00801
2085.51704	0.00771
2084.23127	0.00793
2082.94550	0.00864
2081.65973	0.00953
2080.37396	0.01011
2079.08819	0.01006
2077.80242	0.00957
2076.51666	0.00904
2075.23089	0.00871
2073.94512	0.00852
2072.65935	0.00836
2071.37358	0.00822
2070.08781	0.00805
2068.80204	0.00774
2067.51627	0.00724
2066.23050	0.00668
2064.94474	0.00633
2063.65897	0.00629
2062.37320	0.00639
2061.08743	0.00634
2059.80166	0.00599
2058.51589	0.00547
2057.23012	0.00500
2055.94435	0.00482
2054.65859	0.00513
2053.37282	0.00584
2052.08705	0.00646
2050.80128	0.00643
2049.51551	0.00577
2048.22974	0.00514
2046.94397	0.00513
2045.65820	0.00560
2044.37243	0.00588
2043.08667	0.00544
2041.80090	0.00434
2040.51513	0.00295
2039.22936	0.00155
2037.94359	0.00004
2036.65782	-0.00169
2035.37205	-0.00339
2034.08628	-0.00450
2032.80052	-0.00459
2031.51475	-0.00362
2030.22898	-0.00175
2028.94321	0.00066
2027.65744	0.00305
2026.37167	0.00473
2025.08590	0.00522
2023.80013	0.00449
2022.51436	0.00294
2021.22860	0.00127
2019.94283	-0.00000
2018.65706	-0.00077
2017.37129	-0.00122
2016.08552	-0.00152
2014.79975	-0.00162
2013.51398	-0.00140
2012.22821	-0.00093
2010.94245	-0.00061
2009.65668	-0.00097
2008.37091	-0.00208
2007.08514	-0.00320
2005.79937	-0.00327
2004.51360	-0.00191
2003.22783	0.00037
2001.94206	0.00277
2000.65629	0.00472
1999.37053	0.00583
1998.08476	0.00589
1996.79899	0.00517
1995.51322	0.00440
1994.22745	0.00426
1992.94168	0.00487
1991.65591	0.00588
1990.37014	0.00684
1989.08438	0.00735
1987.79861	0.00716
1986.51284	0.00627
1985.22707	0.00511
1983.94130	0.00433
1982.65553	0.00427
1981.36976	0.00468
1980.08399	0.00490
1978.79822	0.00447
1977.51246	0.00355
1976.22669	0.00271
1974.94092	0.00236
1973.65515	0.00252
1972.36938	0.00297
1971.08361	0.00344
1969.79784	0.00362
1968.51207	0.00330
1967.22631	0.00271
1965.94054	0.00255
1964.65477	0.00332
1963.36900	0.00473
1962.08323	0.00598
1960.79746	0.00655
1959.51169	0.00665
1958.22592	0.00667
1956.94015	0.00666
1955.65439	0.00649
1954.36862	0.00632
1953.08285	0.00655
1951.79708	0.00737
1950.51131	0.00844
1949.22554	0.00918
1947.93977	0.00929
1946.65400	0.00888
1945.36823	0.00834
1944.08247	0.00796
1942.79670	0.00776
1941.51093	0.00759
1940.22516	0.00741
1938.93939	0.00736
1937.65362	0.00762
1936.36785	0.00809
1935.08208	0.00853
1933.79632	0.00878
1932.51055	0.00885
1931.22478	0.00879
1929.93901	0.00862
1928.65324	0.00837
1927.36747	0.00819
1926.08170	0.00821
1924.79593	0.00842
1923.51016	0.00871
1922.22440	0.00904
1920.93863	0.00930
1919.65286	0.00935
1918.36709	0.00920
1917.08132	0.00903
1915.79555	0.00902
1914.50978	0.00915
1913.22401	0.00928
1911.93825	0.00930
1910.65248	0.00917
1909.36671	0.00891
1908.08094	0.00864
1906.79517	0.00854
1905.50940	0.00867
1904.22363	0.00895
1902.93786	0.00919
1901.65209	0.00929
1900.36633	0.00931
1899.08056	0.00936
1897.79479	0.00951
1896.50902	0.00972
1895.22325	0.00992
1893.93748	0.01004
1892.65171	0.01011
1891.36594	0.01014
1890.08018	0.01008
1888.79441	0.00990
1887.50864	0.00966
1886.22287	0.00952
1884.93710	0.00959
1883.65133	0.00982
1882.36556	0.01000
1881.07979	0.01000
1879.79402	0.00987
1878.50826	0.00970
1877.22249	0.00952
1875.93672	0.00933
1874.65095	0.00920
1873.36518	0.00917
1872.07941	0.00925
1870.79364	0.00942
1869.50787	0.00966
1868.22211	0.00994
1866.93634	0.01020
1865.65057	0.01036
1864.36480	0.01037
1863.07903	0.01020
1861.79326	0.00994
1860.50749	0.00971
1859.22172	0.00960
1857.93595	0.00963
1856.65019	0.00976
1855.36442	0.00995
1854.07865	0.01012
1852.79288	0.01017
1851.50711	0.01008
1850.22134	0.00999
1848.93557	0.01001
1847.64980	0.01016
1846.36404	0.01033
1845.07827	0.01051
1843.79250	0.01075
1842.50673	0.01097
1841.22096	0.01097
1839.93519	0.01070
1838.64942	0.01040
1837.36365	0.01031
1836.07788	0.01044
1834.79212	0.01067
1833.50635	0.01083
1832.22058	0.01084
1830.93481	0.01076
1829.64904	0.01072
1828.36327	0.01075
1827.07750	0.01074
1825.79173	0.01061
1824.50597	0.01040
1823.22020	0.01020
1821.93443	0.01003
1820.64866	0.00990
1819.36289	0.00985
1818.07712	0.00991
1816.79135	0.01009
1815.50558	0.01036
1814.21981	0.01065
1812.93405	0.01091
1811.64828	0.01115
1810.36251	0.01141
1809.07674	0.01170
1807.79097	0.01195
1806.50520	0.01210
1805.21943	0.01212
1803.93366	0.01203
1802.64790	0.01188
1801.36213	0.01174
1800.07636	0.01167
1798.79059	0.01169
1797.50482	0.01179
1796.21905	0.01193
1794.93328	0.01198
1793.64751	0.01191
1792.36174	0.01182
1791.07598	0.01185
1789.79021	0.01202
1788.50444	0.01220
1787.21867	0.01231
1785.93290	0.01233
1784.64713	0.01232
1783.36136	0.01232
1782.07559	0.01230
1780.78983	0.01225
1779.50406	0.01218
1778.21829	0.01212
1776.93252	0.01209
1775.64675	0.01210
1774.36098	0.01212
1773.07521	0.01221
1771.78944	0.01249
1770.50367	0.01285
1769.21791	0.01309
1767.93214	0.01317
1766.64637	0.01323
1765.36060	0.01332
1764.07483	0.01336
1762.78906	0.01337
1761.50329	0.01343
1760.21752	0.01352
1758.93176	0.01356
1757.64599	0.01355
1756.36022	0.01364
1755.07445	0.01382
1753.78868	0.01387
1752.50291	0.01370
1751.21714	0.01345
1749.93137	0.01340
1748.64560	0.01358
1747.35984	0.01388
1746.07407	0.01412
1744.78830	0.01420
1743.50253	0.01408
1742.21676	0.01387
1740.93099	0.01370
1739.64522	0.01377
1738.35945	0.01407
1737.07369	0.01431
1735.78792	0.01425
1734.50215	0.01410
1733.21638	0.01422
1731.93061	0.01463
1730.64484	0.01501
1729.35907	0.01524
1728.07330	0.01540
1726.78753	0.01555
1725.50177	0.01567
1724.21600	0.01577
1722.93023	0.01594
1721.64446	0.01615
1720.35869	0.01626
1719.07292	0.01620
1717.78715	0.01618
1716.50138	0.01640
1715.21561	0.01685
1713.92985	0.01733
1712.64408	0.01773
1711.35831	0.01806
1710.07254	0.01837
1708.78677	0.01864
1707.50100	0.01881
1706.21523	0.01895
1704.92946	0.01917
1703.64370	0.01941
1702.35793	0.01947
1701.07216	0.01948
1699.78639	0.01980
1698.50062	0.02031
1697.21485	0.02060
1695.92908	0.02069
1694.64331	0.02095
1693.35754	0.02141
1692.07178	0.02183
1690.78601	0.02216
1689.50024	0.02251
1688.21447	0.02282
1686.92870	0.02286
1685.64293	0.02268
1684.35716	0.02270
1683.07139	0.02315
1681.78563	0.02377
1680.49986	0.02422
1679.21409	0.02447
1677.92832	0.02455
1676.64255	0.02451
1675.35678	0.02454
1674.07101	0.02480
1672.78524	0.02517
1671.49947	0.02545
1670.21371	0.02563
1668.92794	0.02589
1667.64217	0.02629
1666.35640	0.02673
1665.07063	0.02704
1663.78486	0.02721
1662.49909	0.02737
1661.21332	0.02758
1659.92756	0.02786
1658.64179	0.02823
1657.35602	0.02863
1656.07025	0.02879
1654.78448	0.02849
1653.49871	0.02810
1652.21294	0.02822
1650.92717	0.02886
1649.64140	0.02944
1648.35564	0.02960
1647.06987	0.02952
1645.78410	0.02953
1644.49833	0.02968
1643.21256	0.02985
1641.92679	0.02995
1640.64102	0.03002
1639.35525	0.03005
1638.06949	0.02994
1636.78372	0.02970
1635.49795	0.02958
1634.21218	0.02974
1632.92641	0.03006
1631.64064	0.03031
1630.35487	0.03044
1629.06910	0.03055
1627.78333	0.03067
1626.49757	0.03077
1625.21180	0.03076
1623.92603	0.03069
1622.64026	0.03071
1621.35449	0.03086
1620.06872	0.03097
1618.78295	0.03086
1617.49718	0.03066
1616.21142	0.03067
1614.92565	0.03100
1613.63988	0.03141
1612.35411	0.03171
1611.06834	0.03189
1609.78257	0.03203
1608.49680	0.03217
1607.21103	0.03234
1605.92526	0.03256
1604.63950	0.03279
1603.35373	0.03302
1602.06796	0.03323
1600.78219	0.03341
1599.49642	0.03360
1598.21065	0.03379
1596.92488	0.03399
1595.63911	0.03420
1594.35335	0.03440
1593.06758	0.03459
1591.78181	0.03478
1590.49604	0.03501
1589.21027	0.03532
1587.92450	0.03569
1586.63873	0.03606
1585.35296	0.03640
1584.06719	0.03669
1582.78143	0.03699
1581.49566	0.03735
1580.20989	0.03773
1578.92412	0.03801
1577.63835	0.03810
1576.35258	0.03824
1575.06681	0.03868
1573.78104	0.03929
1572.49528	0.03978
1571.20951	0.04010
1569.92374	0.04042
1568.63797	0.04089
1567.35220	0.04142
1566.06643	0.04192
1564.78066	0.04242
1563.49489	0.04291
1562.20912	0.04321
1560.92336	0.04319
1559.63759	0.04311
1558.35182	0.04337
1557.06605	0.04394
1555.78028	0.04447
1554.49451	0.04485
1553.20874	0.04518
1551.92297	0.04551
1550.63721	0.04578
1549.35144	0.04598
1548.06567	0.04611
1546.77990	0.04616
1545.49413	0.04615
1544.20836	0.04611
1542.92259	0.04595
1541.63682	0.04562
1540.35105	0.04528
1539.06529	0.04523
1537.77952	0.04549
1536.49375	0.04576
1535.20798	0.04580
1533.92221	0.04575
1532.63644	0.04585
1531.35067	0.04610
1530.06490	0.04637
1528.77914	0.04660
1527.49337	0.04685
1526.20760	0.04719
1524.92183	0.04759
1523.63606	0.04797
1522.35029	0.04835
1521.06452	0.04898
1519.77875	0.04990
1518.49298	0.05090
1517.20722	0.05184
1515.92145	0.05280
1514.63568	0.05387
1513.34991	0.05505
1512.06414	0.05633
1510.77837	0.05763
1509.49260	0.05877
1508.20683	0.05964
1506.92107	0.06048
1505.63530	0.06159
1504.34953	0.06295
1503.06376	0.06423
1501.77799	0.06523
1500.49222	0.06599
1499.20645	0.06662
1497.92068	0.06718
1496.63491	0.06779
1495.34915	0.06853
1494.06338	0.06938
1492.77761	0.07018
1491.49184	0.07090
1490.20607	0.07167
1488.92030	0.07254
1487.63453	0.07350
1486.34876	0.07451
1485.06299	0.07557
1483.77723	0.07665
1482.49146	0.07775
1481.20569	0.07885
1479.91992	0.07991
1478.63415	0.08090
1477.34838	0.08182
1476.06261	0.08269
1474.77684	0.08346
1473.49108	0.08417
1472.20531	0.08489
1470.91954	0.08569
1469.63377	0.08647
1468.34800	0.08709
1467.06223	0.08748
1465.77646	0.08774
1464.49069	0.08800
1463.20492	0.08835
1461.91916	0.08873
1460.63339	0.08906
1459.34762	0.08927
1458.06185	0.08946
1456.77608	0.08985
1455.49031	0.09049
1454.20454	0.09112
1452.91877	0.09152
1451.63301	0.09174
1450.34724	0.09194
1449.06147	0.09215
1447.77570	0.09233
1446.48993	0.09244
1445.20416	0.09243
1443.91839	0.09231
1442.63262	0.09209
1441.34685	0.09182
1440.06109	0.09147
1438.77532	0.09103
1437.48955	0.09064
1436.20378	0.09056
1434.91801	0.09087
1433.63224	0.09143
1432.34647	0.09211
1431.06070	0.09292
1429.77494	0.09392
1428.48917	0.09512
1427.20340	0.09645
1425.91763	0.09787
1424.63186	0.09937
1423.34609	0.10090
1422.06032	0.10230
1420.77455	0.10342
1419.48878	0.10437
1418.20302	0.10531
1416.91725	0.10622
1415.63148	0.10694
1414.34571	0.10736
1413.05994	0.10745
1411.77417	0.10726
1410.48840	0.10685
1409.20263	0.10632
1407.91687	0.10564
1406.63110	0.10472
1405.34533	0.10353
1404.05956	0.10210
1402.77379	0.10047
1401.48802	0.09865
1400.20225	0.09664
1398.91648	0.09451
1397.63071	0.09233
1396.34495	0.09009
1395.05918	0.08780
1393.77341	0.08552
1392.48764	0.08328
1391.20187	0.08108
1389.91610	0.07889
1388.63033	0.07676
1387.34456	0.07472
1386.05880	0.07281
1384.77303	0.07096
1383.48726	0.06909
1382.20149	0.06720
1380.91572	0.06528
1379.62995	0.06334
1378.34418	0.06136
1377.05841	0.05930
1375.77264	0.05718
1374.48688	0.05506
1373.20111	0.05300
1371.91534	0.05101
1370.62957	0.04909
1369.34380	0.04723
1368.05803	0.04550
1366.77226	0.04389
1365.48649	0.04236
1364.20073	0.04092
1362.91496	0.03957
1361.62919	0.03834
1360.34342	0.03722
1359.05765	0.03617
1357.77188	0.03515
1356.48611	0.03421
1355.20034	0.03336
1353.91457	0.03258
1352.62881	0.03186
1351.34304	0.03116
1350.05727	0.03050
1348.77150	0.02989
1347.48573	0.02935
1346.19996	0.02885
1344.91419	0.02838
1343.62842	0.02792
1342.34266	0.02747
1341.05689	0.02704
1339.77112	0.02664
1338.48535	0.02630
1337.19958	0.02601
1335.91381	0.02573
1334.62804	0.02544
1333.34227	0.02511
1332.05650	0.02479
1330.77074	0.02451
1329.48497	0.02430
1328.19920	0.02410
1326.91343	0.02388
1325.62766	0.02365
1324.34189	0.02344
1323.05612	0.02330
1321.77035	0.02322
1320.48459	0.02313
1319.19882	0.02298
1317.91305	0.02278
1316.62728	0.02259
1315.34151	0.02247
1314.05574	0.02238
1312.76997	0.02228
1311.48420	0.02210
1310.19843	0.02187
1308.91267	0.02163
1307.62690	0.02145
1306.34113	0.02135
1305.05536	0.02129
1303.76959	0.02122
1302.48382	0.02108
1301.19805	0.02090
1299.91228	0.02072
1298.62652	0.02056
1297.34075	0.02041
1296.05498	0.02028
1294.76921	0.02017
1293.48344	0.02007
1292.19767	0.01996
1290.91190	0.01982
1289.62613	0.01964
1288.34036	0.01946
1287.05460	0.01932
1285.76883	0.01927
1284.48306	0.01928
1283.19729	0.01927
1281.91152	0.01918
1280.62575	0.01898
1279.33998	0.01875
1278.05421	0.01856
1276.76845	0.01845
1275.48268	0.01839
1274.19691	0.01837
1272.91114	0.01835
1271.62537	0.01833
1270.33960	0.01831
1269.05383	0.01829
1267.76806	0.01827
1266.48229	0.01822
1265.19653	0.01816
1263.91076	0.01810
1262.62499	0.01801
1261.33922	0.01789
1260.05345	0.01776
1258.76768	0.01763
1257.48191	0.01755
1256.19614	0.01751
1254.91037	0.01748
1253.62461	0.01740
1252.33884	0.01729
1251.05307	0.01719
1249.76730	0.01715
1248.48153	0.01717
1247.19576	0.01721
1245.90999	0.01721
1244.62422	0.01713
1243.33846	0.01699
1242.05269	0.01682
1240.76692	0.01667
1239.48115	0.01657
1238.19538	0.01652
1236.90961	0.01651
1235.62384	0.01653
1234.33807	0.01653
1233.05230	0.01651
1231.76654	0.01644
1230.48077	0.01635
1229.19500	0.01626
1227.90923	0.01620
1226.62346	0.01618
1225.33769	0.01619
1224.05192	0.01620
1222.76615	0.01623
1221.48039	0.01629
1220.19462	0.01638
1218.90885	0.01645
1217.62308	0.01643
1216.33731	0.01633
1215.05154	0.01621
1213.76577	0.01613
1212.48000	0.01612
1211.19423	0.01616
1209.90847	0.01620
1208.62270	0.01622
1207.33693	0.01618
1206.05116	0.01609
1204.76539	0.01598
1203.47962	0.01591
1202.19385	0.01589
1200.90808	0.01598
1199.62232	0.01619
1198.33655	0.01623
1197.05078	0.01622
1195.76501	0.01618
1194.47924	0.01615
1193.19347	0.01615
1191.90770	0.01617
1190.62193	0.01622
1189.33616	0.01628
1188.05040	0.01636
1186.76463	0.01645
1185.47886	0.01655
1184.19309	0.01667
1182.90732	0.01677
1181.62155	0.01683
1180.33578	0.01683
1179.05001	0.01682
1177.76425	0.01684
1176.47848	0.01691
1175.19271	0.01704
1173.90694	0.01724
1172.62117	0.01749
1171.33540	0.01776
1170.04963	0.01801
1168.76386	0.01824
1167.47809	0.01847
1166.19233	0.01871
1164.90656	0.01893
1163.62079	0.01912
1162.33502	0.01929
1161.04925	0.01946
1159.76348	0.01968
1158.47771	0.01998
1157.19194	0.02035
1155.90618	0.02079
1154.62041	0.02130
1153.33464	0.02185
1152.04887	0.02238
1150.76310	0.02288
1149.47733	0.02337
1148.19156	0.02393
1146.90579	0.02459
1145.62002	0.02534
1144.33426	0.02614
1143.04849	0.02700
1141.76272	0.02795
1140.47695	0.02901
1139.19118	0.03018
1137.90541	0.03148
1136.61964	0.03290
1135.33387	0.03436
1134.04811	0.03585
1132.76234	0.03739
1131.47657	0.03908
1130.19080	0.04103
1128.90503	0.04329
1127.61926	0.04586
1126.33349	0.04867
1125.04772	0.05162
1123.76195	0.05465
1122.47619	0.05771
1121.19042	0.06083
1119.90465	0.06402
1118.61888	0.06729
1117.33311	0.07062
1116.04734	0.07400
1114.76157	0.07743
1113.47580	0.08086
1112.19004	0.08425
1110.90427	0.08754
1109.61850	0.09071
1108.33273	0.09375
1107.04696	0.09671
1105.76119	0.09962
1104.47542	0.10252
1103.18965	0.10538
1101.90388	0.10820
1100.61812	0.11094
1099.33235	0.11361
1098.04658	0.11618
1096.76081	0.11861
1095.47504	0.12091
1094.18927	0.12313
1092.90350	0.12532
1091.61773	0.12746
1090.33197	0.12952
1089.04620	0.13148
1087.76043	0.13337
1086.47466	0.13524
1085.18889	0.13711
1083.90312	0.13901
1082.61735	0.14095
1081.33158	0.14298
1080.04581	0.14512
1078.76005	0.14739
1077.47428	0.14981
1076.18851	0.15237
1074.90274	0.15508
1073.61697	0.15789
1072.33120	0.16075
1071.04543	0.16363
1069.75966	0.16653
1068.47390	0.16947
1067.18813	0.17250
1065.90236	0.17570
1064.61659	0.17904
1063.33082	0.18242
1062.04505	0.18575
1060.75928	0.18899
1059.47351	0.19215
1058.18774	0.19525
1056.90198	0.19826
1055.61621	0.20119
1054.33044	0.20409
1053.04467	0.20704
1051.75890	0.21010
1050.47313	0.21323
1049.18736	0.21644
1047.90159	0.21971
1046.61583	0.22307
1045.33006	0.22648
1044.04429	0.22992
1042.75852	0.23339
1041.47275	0.23692
1040.18698	0.24051
1038.90121	0.24413
1037.61544	0.24773
1036.32967	0.25127
1035.04391	0.25472
1033.75814	0.25803
1032.47237	0.26112
1031.18660	0.26391
1029.90083	0.26639
1028.61506	0.26854
1027.32929	0.27033
1026.04352	0.27178
1024.75775	0.27290
1023.47199	0.27370
1022.18622	0.27413
1020.90045	0.27418
1019.61468	0.27381
1018.32891	0.27298
1017.04314	0.27161
1015.75737	0.26972
1014.47160	0.26740
1013.18584	0.26469
1011.90007	0.26158
1010.61430	0.25798
1009.32853	0.25387
1008.04276	0.24928
1006.75699	0.24421
1005.47122	0.23867
1004.18545	0.23271
1002.89968	0.22638
1001.61392	0.21976
1000.32815	0.21287
999.04238	0.20570
997.75661	0.19827
996.47084	0.19067
995.18507	0.18305
993.89930	0.17551
992.61353	0.16812
991.32777	0.16090
990.04200	0.15390
988.75623	0.14717
987.47046	0.14080
986.18469	0.13480
984.89892	0.12914
983.61315	0.12375
982.32738	0.11865
981.04161	0.11392
979.75585	0.10962
978.47008	0.10576
977.18431	0.10228
975.89854	0.09918
974.61277	0.09646
973.32700	0.09419
972.04123	0.09244
970.75546	0.09132
969.46970	0.09084
968.18393	0.09094
966.89816	0.09151
965.61239	0.09242
964.32662	0.09351
963.04085	0.09454
961.75508	0.09520
960.46931	0.09530
959.18354	0.09471
957.89778	0.09346
956.61201	0.09160
955.32624	0.08928
954.04047	0.08667
952.75470	0.08393
951.46893	0.08119
950.18316	0.07857
948.89739	0.07610
947.61163	0.07375
946.32586	0.07144
945.04009	0.06914
943.75432	0.06689
942.46855	0.06477
941.18278	0.06285
939.89701	0.06115
938.61124	0.05959
937.32547	0.05807
936.03971	0.05659
934.75394	0.05519
933.46817	0.05394
932.18240	0.05281
930.89663	0.05180
929.61086	0.05087
928.32509	0.05001
927.03932	0.04921
925.75356	0.04847
924.46779	0.04780
923.18202	0.04721
921.89625	0.04665
920.61048	0.04608
919.32471	0.04549
918.03894	0.04494
916.75317	0.04446
915.46740	0.04403
914.18164	0.04363
912.89587	0.04326
911.61010	0.04295
910.32433	0.04269
909.03856	0.04242
907.75279	0.04206
906.46702	0.04162
905.18125	0.04119
903.89549	0.04085
902.60972	0.04055
901.32395	0.04019
900.03818	0.03973
898.75241	0.03926
897.46664	0.03889
896.18087	0.03868
894.89510	0.03863
893.60933	0.03875
892.32357	0.03906
891.03780	0.03951
889.75203	0.04006
888.46626	0.04076
887.18049	0.04173
885.89472	0.04318
884.60895	0.04533
883.32318	0.04817
882.03742	0.05142
880.75165	0.05451
879.46588	0.05689
878.18011	0.05842
876.89434	0.05950
875.60857	0.06069
874.32280	0.06215
873.03703	0.06348
871.75126	0.06405
870.46550	0.06352
869.17973	0.06202
867.89396	0.05987
866.60819	0.05738
865.32242	0.05475
864.03665	0.05214
862.75088	0.04970
861.46511	0.04754
860.17935	0.04571
858.89358	0.04417
857.60781	0.04287
856.32204	0.04174
855.03627	0.04076
853.75050	0.03994
852.46473	0.03923
851.17896	0.03861
849.89319	0.03804
848.60743	0.03753
847.32166	0.03708
846.03589	0.03672
844.75012	0.03644
843.46435	0.03624
842.17858	0.03610
840.89281	0.03598
839.60704	0.03586
838.32128	0.03574
837.03551	0.03559
835.74974	0.03538
834.46397	0.03512
833.17820	0.03485
831.89243	0.03465
830.60666	0.03449
829.32089	0.03433
828.03512	0.03417
826.74936	0.03406
825.46359	0.03404
824.17782	0.03406
822.89205	0.03400
821.60628	0.03383
820.32051	0.03356
819.03474	0.03329
817.74897	0.03307
816.46321	0.03292
815.17744	0.03284
813.89167	0.03283
812.60590	0.03290
811.32013	0.03304
810.03436	0.03318
808.74859	0.03328
807.46282	0.03330
806.17705	0.03327
804.89129	0.03325
803.60552	0.03327
802.31975	0.03332
801.03398	0.03336
799.74821	0.03333
798.46244	0.03325
797.17667	0.03319
795.89090	0.03318
794.60513	0.03318
793.31937	0.03312
792.03360	0.03301
790.74783	0.03291
789.46206	0.03283
788.17629	0.03280
786.89052	0.03281
785.60475	0.03284
784.31898	0.03285
783.03322	0.03281
781.74745	0.03274
780.46168	0.03265
779.17591	0.03255
777.89014	0.03247
776.60437	0.03247
775.31860	0.03254
774.03283	0.03263
772.74706	0.03266
771.46130	0.03263
770.17553	0.03260
768.88976	0.03261
767.60399	0.03266
766.31822	0.03274
765.03245	0.03285
763.74668	0.03295
762.46091	0.03301
761.17515	0.03299
759.88938	0.03293
758.60361	0.03287
757.31784	0.03286
756.03207	0.03289
754.74630	0.03291
753.46053	0.03294
752.17476	0.03299
750.88899	0.03302
749.60323	0.03301
748.31746	0.03294
747.03169	0.03285
745.74592	0.03282
744.46015	0.03286
743.17438	0.03290
741.88861	0.03286
740.60284	0.03276
739.31708	0.03266
738.03131	0.03261
736.74554	0.03256
735.45977	0.03247
734.17400	0.03235
732.88823	0.03228
731.60246	0.03227
730.31669	0.03224
729.03092	0.03213
727.74516	0.03192
726.45939	0.03171
725.17362	0.03163
723.88785	0.03173
722.60208	0.03214
721.31631	0.03265
720.03054	0.03303
718.74477	0.03317
717.45901	0.03308
716.17324	0.03283
714.88747	0.03253
713.60170	0.03226
712.31593	0.03211
711.03016	0.03210
709.74439	0.03219
708.45862	0.03229
707.17285	0.03232
705.88709	0.03225
704.60132	0.03214
703.31555	0.03204
702.02978	0.03200
700.74401	0.03201
699.45824	0.03208
698.17247	0.03219
696.88670	0.03231
695.60094	0.03239
694.31517	0.03240
693.02940	0.03237
691.74363	0.03234
690.45786	0.03237
689.17209	0.03241
687.88632	0.03238
686.60055	0.03224
685.31478	0.03202
684.02902	0.03182
682.74325	0.03170
681.45748	0.03163
680.17171	0.03156
678.88594	0.03147
677.60017	0.03140
676.31440	0.03140
675.02863	0.03142
673.74287	0.03146
672.45710	0.03153
671.17133	0.03172
669.88556	0.03200
668.59979	0.03204
667.31402	0.03202
666.02825	0.03220
664.74248	0.03197
663.45671	0.03164
662.17095	0.03139
660.88518	0.03118
659.59941	0.03102
658.31364	0.03092
657.02787	0.03087
655.74210	0.03087
654.45633	0.03090
653.17056	0.03096
651.88480	0.03107
650.59903	0.03123
649.31326	0.03142
648.02749	0.03161
646.74172	0.03174
645.45595	0.03179
644.17018	0.03182
642.88441	0.03188
641.59864	0.03204
640.31288	0.03228
639.02711	0.03252
637.74134	0.03277
636.45557	0.03309
635.16980	0.03355
633.88403	0.03416
632.59826	0.03487
631.31249	0.03545
630.02673	0.03535
628.74096	0.03519
627.45519	0.03710
626.16942	0.03761
624.88365	0.03732
623.59788	0.03740
622.31211	0.03812
621.02634	0.03966
619.74057	0.04216
618.45481	0.04544
617.16904	0.04904
615.88327	0.05259
614.59750	0.05595
613.31173	0.05933
612.02596	0.06317
610.74019	0.06795
609.45442	0.07355
608.16866	0.07916
606.88289	0.08384
605.59712	0.08719
604.31135	0.08936
603.02558	0.09057
601.73981	0.09090
600.45404	0.09041
599.16827	0.08930
597.88250	0.08784
596.59674	0.08621
595.31097	0.08451
594.02520	0.08278
592.73943	0.08118
591.45366	0.07991
590.16789	0.07919
588.88212	0.07913
587.59635	0.07972
586.31059	0.08083
585.02482	0.08228
583.73905	0.08390
582.45328	0.08565
581.16751	0.08762
579.88174	0.08988
578.59597	0.09239
577.31020	0.09498
576.02443	0.09746
574.73867	0.09977
573.45290	0.10194
572.16713	0.10408
570.88136	0.10636
569.59559	0.10896
568.30982	0.11203
567.02405	0.11551
565.73828	0.11903
564.45251	0.12212
563.16675	0.12437
561.88098	0.12547
560.59521	0.12517
559.30944	0.12325
558.02367	0.11971
556.73790	0.11485
555.45213	0.10913
554.16636	0.10298
552.88060	0.09678
551.59483	0.09086
550.30906	0.08542
549.02329	0.08053
547.73752	0.07617
546.45175	0.07229
545.16598	0.06890
543.88021	0.06598
542.59444	0.06346
541.30868	0.06118
540.02291	0.05907
538.73714	0.05710
537.45137	0.05529
536.16560	0.05366
534.87983	0.05217
533.59406	0.05074
532.30829	0.04931
531.02253	0.04792
529.73676	0.04663
528.45099	0.04548
527.16522	0.04443
525.87945	0.04343
524.59368	0.04251
523.30791	0.04167
522.02214	0.04089
520.73637	0.04013
519.45061	0.03937
518.16484	0.03865
516.87907	0.03801
515.59330	0.03744
514.30753	0.03693
513.02176	0.03644
511.73599	0.03600
510.45022	0.03559
509.16446	0.03514
507.87869	0.03459
506.59292	0.03394
505.30715	0.03335
504.02138	0.03294
502.73561	0.03271
501.44984	0.03258
500.16407	0.03242
498.87830	0.03217
497.59254	0.03186
496.30677	0.03155
495.02100	0.03128
493.73523	0.03103
492.44946	0.03082
491.16369	0.03066
489.87792	0.03057
488.59215	0.03047
487.30639	0.03033
486.02062	0.03020
484.73485	0.03020
483.44908	0.03035
482.16331	0.03059
480.87754	0.03083
479.59177	0.03107
478.30600	0.03139
477.02023	0.03183
475.73447	0.03234
474.44870	0.03284
473.16293	0.03323
471.87716	0.03345
470.59139	0.03346
469.30562	0.03331
468.01985	0.03310
466.73408	0.03290
465.44832	0.03269
464.16255	0.03241
462.87678	0.03202
461.59101	0.03159
460.30524	0.03118
459.01947	0.03085
457.73370	0.03066
456.44793	0.03061
455.16216	0.03060
453.87640	0.03053
452.59063	0.03033
451.30486	0.02999
450.01909	0.02962
448.73332	0.02932
447.44755	0.02916
446.16178	0.02911
444.87601	0.02913
443.59025	0.02917
442.30448	0.02918
441.01871	0.02915
439.73294	0.02908
438.44717	0.02900
437.16140	0.02896
435.87563	0.02893
434.58986	0.02887
433.30409	0.02877
432.01833	0.02867
430.73256	0.02863
429.44679	0.02867
428.16102	0.02875
426.87525	0.02881
425.58948	0.02881
424.30371	0.02876
423.01794	0.02867
421.73218	0.02854
420.44641	0.02840
419.16064	0.02826
417.87487	0.02816
416.58910	0.02809
415.30333	0.02805
414.01756	0.02807
412.73179	0.02814
411.44602	0.02822
410.16026	0.02829
408.87449	0.02832
407.58872	0.02834
406.30295	0.02833
405.01718	0.02829
403.73141	0.02823
402.44564	0.02820
401.15987	0.02823
399.87411	0.02831
