3997.45528	0.02594
3996.16951	0.02598
3994.88374	0.02598
3993.59798	0.02597
3992.31221	0.02604
3991.02644	0.02635
3989.74067	0.02699
3988.45490	0.02785
3987.16913	0.02860
3985.88336	0.02889
3984.59759	0.02865
3983.31183	0.02818
3982.02606	0.02791
3980.74029	0.02803
3979.45452	0.02851
3978.16875	0.02925
3976.88298	0.03012
3975.59721	0.03093
3974.31144	0.03147
3973.02567	0.03167
3971.73991	0.03159
3970.45414	0.03127
3969.16837	0.03068
3967.88260	0.02990
3966.59683	0.02905
3965.31106	0.02823
3964.02529	0.02754
3962.73952	0.02715
3961.45376	0.02720
3960.16799	0.02753
3958.88222	0.02780
3957.59645	0.02784
3956.31068	0.02779
3955.02491	0.02789
3953.73914	0.02823
3952.45337	0.02878
3951.16760	0.02933
3949.88184	0.02963
3948.59607	0.02955
3947.31030	0.02918
3946.02453	0.02867
3944.73876	0.02816
3943.45299	0.02788
3942.16722	0.02800
3940.88145	0.02838
3939.59569	0.02866
3938.30992	0.02876
3937.02415	0.02882
3935.73838	0.02884
3934.45261	0.02852
3933.16684	0.02775
3931.88107	0.02693
3930.59530	0.02657
3929.30953	0.02682
3928.02377	0.02736
3926.73800	0.02783
3925.45223	0.02831
3924.16646	0.02907
3922.88069	0.02996
3921.59492	0.03035
3920.30915	0.02985
3919.02338	0.02865
3917.73762	0.02739
3916.45185	0.02659
3915.16608	0.02634
3913.88031	0.02639
3912.59454	0.02658
3911.30877	0.02689
3910.02300	0.02718
3908.73723	0.02721
3907.45146	0.02682
3906.16570	0.02610
3904.87993	0.02548
3903.59416	0.02542
3902.30839	0.02582
3901.02262	0.02625
3899.73685	0.02651
3898.45108	0.02680
3897.16531	0.02711
3895.87955	0.02715
3894.59378	0.02669
3893.30801	0.02593
3892.02224	0.02553
3890.73647	0.02612
3889.45070	0.02726
3888.16493	0.02771
3886.87916	0.02732
3885.59339	0.02734
3884.30763	0.02842
3883.02186	0.02965
3881.73609	0.02991
3880.45032	0.02929
3879.16455	0.02839
3877.87878	0.02737
3876.59301	0.02633
3875.30724	0.02579
3874.02148	0.02597
3872.73571	0.02612
3871.44994	0.02563
3870.16417	0.02530
3868.87840	0.02614
3867.59263	0.02751
3866.30686	0.02821
3865.02109	0.02804
3863.73532	0.02739
3862.44956	0.02644
3861.16379	0.02565
3859.87802	0.02576
3858.59225	0.02680
3857.30648	0.02755
3856.02071	0.02688
3854.73494	0.02545
3853.44917	0.02526
3852.16341	0.02683
3850.87764	0.02843
3849.59187	0.02871
3848.30610	0.02810
3847.02033	0.02755
3845.73456	0.02743
3844.44879	0.02763
3843.16302	0.02790
3841.87725	0.02783
3840.59149	0.02690
3839.30572	0.02536
3838.01995	0.02435
3836.73418	0.02468
3835.44841	0.02585
3834.16264	0.02687
3832.87687	0.02748
3831.59110	0.02797
3830.30534	0.02826
3829.01957	0.02806
3827.73380	0.02753
3826.44803	0.02728
3825.16226	0.02743
3823.87649	0.02726
3822.59072	0.02667
3821.30495	0.02665
3820.01918	0.02756
3818.73342	0.02808
3817.44765	0.02734
3816.16188	0.02653
3814.87611	0.02680
3813.59034	0.02728
3812.30457	0.02679
3811.01880	0.02557
3809.73303	0.02428
3808.44726	0.02331
3807.16150	0.02329
3805.87573	0.02452
3804.58996	0.02583
3803.30419	0.02599
3802.01842	0.02563
3800.73265	0.02627
3799.44688	0.02768
3798.16111	0.02849
3796.87535	0.02849
3795.58958	0.02844
3794.30381	0.02851
3793.01804	0.02833
3791.73227	0.02794
3790.44650	0.02773
3789.16073	0.02782
3787.87496	0.02794
3786.58919	0.02773
3785.30343	0.02716
3784.01766	0.02659
3782.73189	0.02626
3781.44612	0.02612
3780.16035	0.02610
3778.87458	0.02622
3777.58881	0.02638
3776.30304	0.02643
3775.01728	0.02647
3773.73151	0.02654
3772.44574	0.02637
3771.15997	0.02586
3769.87420	0.02543
3768.58843	0.02541
3767.30266	0.02557
3766.01689	0.02572
3764.73112	0.02598
3763.44536	0.02628
3762.15959	0.02638
3760.87382	0.02636
3759.58805	0.02651
3758.30228	0.02683
3757.01651	0.02714
3755.73074	0.02724
3754.44497	0.02688
3753.15921	0.02627
3751.87344	0.02602
3750.58767	0.02661
3749.30190	0.02788
3748.01613	0.02884
3746.73036	0.02810
3745.44459	0.02621
3744.15882	0.02560
3742.87305	0.02705
3741.58729	0.02862
3740.30152	0.02889
3739.01575	0.02824
3737.72998	0.02747
3736.44421	0.02712
3735.15844	0.02733
3733.87267	0.02771
3732.58690	0.02800
3731.30114	0.02824
3730.01537	0.02819
3728.72960	0.02739
3727.44383	0.02617
3726.15806	0.02545
3724.87229	0.02547
3723.58652	0.02557
3722.30075	0.02513
3721.01498	0.02414
3719.72922	0.02315
3718.44345	0.02295
3717.15768	0.02384
3715.87191	0.02515
3714.58614	0.02580
3713.30037	0.02557
3712.01460	0.02512
3710.72883	0.02503
3709.44307	0.02515
3708.15730	0.02516
3706.87153	0.02506
3705.58576	0.02484
3704.29999	0.02452
3703.01422	0.02433
3701.72845	0.02456
3700.44268	0.02511
3699.15691	0.02549
3697.87115	0.02545
3696.58538	0.02521
3695.29961	0.02497
3694.01384	0.02473
3692.72807	0.02461
3691.44230	0.02466
3690.15653	0.02472
3688.87076	0.02491
3687.58500	0.02555
3686.29923	0.02631
3685.01346	0.02652
3683.72769	0.02620
3682.44192	0.02596
3681.15615	0.02615
3679.87038	0.02646
3678.58461	0.02606
3677.29884	0.02464
3676.01308	0.02349
3674.72731	0.02396
3673.44154	0.02515
3672.15577	0.02517
3670.87000	0.02418
3669.58423	0.02392
3668.29846	0.02475
3667.01269	0.02561
3665.72693	0.02595
3664.44116	0.02612
3663.15539	0.02641
3661.86962	0.02674
3660.58385	0.02693
3659.29808	0.02686
3658.01231	0.02667
3656.72654	0.02691
3655.44077	0.02800
3654.15501	0.02935
3652.86924	0.02987
3651.58347	0.02934
3650.29770	0.02861
3649.01193	0.02837
3647.72616	0.02848
3646.44039	0.02840
3645.15462	0.02783
3643.86886	0.02699
3642.58309	0.02639
3641.29732	0.02640
3640.01155	0.02702
3638.72578	0.02797
3637.44001	0.02885
3636.15424	0.02932
3634.86847	0.02942
3633.58270	0.02944
3632.29694	0.02925
3631.01117	0.02849
3629.72540	0.02773
3628.43963	0.02817
3627.15386	0.02984
3625.86809	0.03141
3624.58232	0.03211
3623.29655	0.03210
3622.01079	0.03159
3620.72502	0.03075
3619.43925	0.03008
3618.15348	0.02995
3616.86771	0.03007
3615.58194	0.03005
3614.29617	0.03021
3613.01040	0.03106
3611.72463	0.03230
3610.43887	0.03302
3609.15310	0.03290
3607.86733	0.03261
3606.58156	0.03287
3605.29579	0.03365
3604.01002	0.03445
3602.72425	0.03489
3601.43848	0.03510
3600.15272	0.03538
3598.86695	0.03565
3597.58118	0.03551
3596.29541	0.03489
3595.00964	0.03420
3593.72387	0.03387
3592.43810	0.03390
3591.15233	0.03385
3589.86656	0.03363
3588.58080	0.03378
3587.29503	0.03474
3586.00926	0.03600
3584.72349	0.03659
3583.43772	0.03627
3582.15195	0.03572
3580.86618	0.03574
3579.58041	0.03639
3578.29464	0.03715
3577.00888	0.03755
3575.72311	0.03748
3574.43734	0.03721
3573.15157	0.03714
3571.86580	0.03742
3570.58003	0.03783
3569.29426	0.03800
3568.00849	0.03788
3566.72273	0.03779
3565.43696	0.03799
3564.15119	0.03854
3562.86542	0.03930
3561.57965	0.04007
3560.29388	0.04062
3559.00811	0.04088
3557.72234	0.04098
3556.43657	0.04113
3555.15081	0.04139
3553.86504	0.04163
3552.57927	0.04172
3551.29350	0.04165
3550.00773	0.04154
3548.72196	0.04151
3547.43619	0.04165
3546.15042	0.04195
3544.86466	0.04216
3543.57889	0.04207
3542.29312	0.04178
3541.00735	0.04158
3539.72158	0.04164
3538.43581	0.04193
3537.15004	0.04240
3535.86427	0.04306
3534.57850	0.04382
3533.29274	0.04441
3532.00697	0.04466
3530.72120	0.04466
3529.43543	0.04466
3528.14966	0.04478
3526.86389	0.04496
3525.57812	0.04502
3524.29235	0.04492
3523.00659	0.04481
3521.72082	0.04475
3520.43505	0.04460
3519.14928	0.04425
3517.86351	0.04398
3516.57774	0.04426
3515.29197	0.04527
3514.00620	0.04662
3512.72043	0.04772
3511.43467	0.04820
3510.14890	0.04822
3508.86313	0.04813
3507.57736	0.04818
3506.29159	0.04839
3505.00582	0.04872
3503.72005	0.04914
3502.43428	0.04954
3501.14852	0.04985
3499.86275	0.05010
3498.57698	0.05037
3497.29121	0.05061
3496.00544	0.05076
3494.71967	0.05083
3493.43390	0.05093
3492.14813	0.05100
3490.86236	0.05090
3489.57660	0.05061
3488.29083	0.05031
3487.00506	0.05025
3485.71929	0.05051
3484.43352	0.05096
3483.14775	0.05146
3481.86198	0.05185
3480.57621	0.05201
3479.29045	0.05193
3478.00468	0.05176
3476.71891	0.05173
3475.43314	0.05191
3474.14737	0.05221
3472.86160	0.05256
3471.57583	0.05294
3470.29006	0.05337
3469.00429	0.05375
3467.71853	0.05395
3466.43276	0.05385
3465.14699	0.05347
3463.86122	0.05299
3462.57545	0.05277
3461.28968	0.05297
3460.00391	0.05346
3458.71814	0.05392
3457.43238	0.05418
3456.14661	0.05427
3454.86084	0.05426
3453.57507	0.05419
3452.28930	0.05411
3451.00353	0.05414
3449.71776	0.05430
3448.43199	0.05448
3447.14622	0.05455
3445.86046	0.05453
3444.57469	0.05465
3443.28892	0.05513
3442.00315	0.05592
3440.71738	0.05666
3439.43161	0.05694
3438.14584	0.05669
3436.86007	0.05621
3435.57431	0.05587
3434.28854	0.05581
3433.00277	0.05594
3431.71700	0.05608
3430.43123	0.05621
3429.14546	0.05646
3427.85969	0.05690
3426.57392	0.05747
3425.28815	0.05801
3424.00239	0.05839
3422.71662	0.05859
3421.43085	0.05867
3420.14508	0.05880
3418.85931	0.05904
3417.57354	0.05930
3416.28777	0.05934
3415.00200	0.05911
3413.71624	0.05885
3412.43047	0.05891
3411.14470	0.05938
3409.85893	0.06000
3408.57316	0.06051
3407.28739	0.06088
3406.00162	0.06125
3404.71585	0.06168
3403.43008	0.06199
3402.14432	0.06199
3400.85855	0.06162
3399.57278	0.06100
3398.28701	0.06027
3397.00124	0.05959
3395.71547	0.05916
3394.42970	0.05918
3393.14393	0.05968
3391.85817	0.06046
3390.57240	0.06117
3389.28663	0.06158
3388.00086	0.06171
3386.71509	0.06174
3385.42932	0.06177
3384.14355	0.06180
3382.85778	0.06183
3381.57201	0.06186
3380.28625	0.06191
3379.00048	0.06192
3377.71471	0.06180
3376.42894	0.06153
3375.14317	0.06123
3373.85740	0.06115
3372.57163	0.06150
3371.28586	0.06221
3370.00010	0.06299
3368.71433	0.06352
3367.42856	0.06366
3366.14279	0.06350
3364.85702	0.06321
3363.57125	0.06300
3362.28548	0.06304
3360.99971	0.06340
3359.71394	0.06389
3358.42818	0.06414
3357.14241	0.06399
3355.85664	0.06368
3354.57087	0.06365
3353.28510	0.06399
3351.99933	0.06443
3350.71356	0.06457
3349.42779	0.06435
3348.14202	0.06397
3346.85626	0.06370
3345.57049	0.06362
3344.28472	0.06370
3342.99895	0.06390
3341.71318	0.06419
3340.42741	0.06446
3339.14164	0.06453
3337.85587	0.06437
3336.57011	0.06417
3335.28434	0.06421
3333.99857	0.06454
3332.71280	0.06493
3331.42703	0.06509
3330.14126	0.06491
3328.85549	0.06458
3327.56972	0.06440
3326.28395	0.06457
3324.99819	0.06508
3323.71242	0.06568
3322.42665	0.06611
3321.14088	0.06626
3319.85511	0.06622
3318.56934	0.06614
3317.28357	0.06610
3315.99780	0.06610
3314.71204	0.06612
3313.42627	0.06619
3312.14050	0.06633
3310.85473	0.06653
3309.56896	0.06669
3308.28319	0.06665
3306.99742	0.06636
3305.71165	0.06593
3304.42588	0.06561
3303.14012	0.06552
3301.85435	0.06558
3300.56858	0.06567
3299.28281	0.06577
3297.99704	0.06591
3296.71127	0.06605
3295.42550	0.06616
3294.13973	0.06628
3292.85397	0.06641
3291.56820	0.06652
3290.28243	0.06656
3288.99666	0.06647
3287.71089	0.06626
3286.42512	0.06601
3285.13935	0.06584
3283.85358	0.06585
3282.56781	0.06601
3281.28205	0.06619
3279.99628	0.06631
3278.71051	0.06632
3277.42474	0.06618
3276.13897	0.06590
3274.85320	0.06558
3273.56743	0.06536
3272.28166	0.06533
3270.99590	0.06547
3269.71013	0.06563
3268.42436	0.06570
3267.13859	0.06561
3265.85282	0.06546
3264.56705	0.06543
3263.28128	0.06560
3261.99551	0.06588
3260.70974	0.06608
3259.42398	0.06613
3258.13821	0.06613
3256.85244	0.06616
3255.56667	0.06608
3254.28090	0.06565
3252.99513	0.06491
3251.70936	0.06424
3250.42359	0.06399
3249.13783	0.06414
3247.85206	0.06436
3246.56629	0.06438
3245.28052	0.06421
3243.99475	0.06401
3242.70898	0.06401
3241.42321	0.06424
3240.13744	0.06449
3238.85167	0.06441
3237.56591	0.06389
3236.28014	0.06324
3234.99437	0.06292
3233.70860	0.06308
3232.42283	0.06348
3231.13706	0.06378
3229.85129	0.06381
3228.56552	0.06367
3227.27976	0.06350
3225.99399	0.06336
3224.70822	0.06319
3223.42245	0.06295
3222.13668	0.06262
3220.85091	0.06221
3219.56514	0.06183
3218.27937	0.06159
3216.99360	0.06151
3215.70784	0.06153
3214.42207	0.06161
3213.13630	0.06174
3211.85053	0.06188
3210.56476	0.06196
3209.27899	0.06191
3207.99322	0.06172
3206.70745	0.06145
3205.42169	0.06125
3204.13592	0.06120
3202.85015	0.06128
3201.56438	0.06139
3200.27861	0.06153
3198.99284	0.06173
3197.70707	0.06195
3196.42130	0.06207
3195.13553	0.06194
3193.84977	0.06160
3192.56400	0.06127
3191.27823	0.06110
3189.99246	0.06105
3188.70669	0.06096
3187.42092	0.06076
3186.13515	0.06048
3184.84938	0.06015
3183.56362	0.05984
3182.27785	0.05968
3180.99208	0.05970
3179.70631	0.05979
3178.42054	0.05973
3177.13477	0.05946
3175.84900	0.05908
3174.56323	0.05881
3173.27746	0.05882
3171.99170	0.05908
3170.70593	0.05930
3169.42016	0.05913
3168.13439	0.05853
3166.84862	0.05782
3165.56285	0.05736
3164.27708	0.05718
3162.99131	0.05707
3161.70555	0.05688
3160.41978	0.05666
3159.13401	0.05659
3157.84824	0.05672
3156.56247	0.05690
3155.27670	0.05696
3153.99093	0.05685
3152.70516	0.05660
3151.41939	0.05625
3150.13363	0.05576
3148.84786	0.05526
3147.56209	0.05497
3146.27632	0.05507
3144.99055	0.05551
3143.70478	0.05607
3142.41901	0.05647
3141.13324	0.05649
3139.84748	0.05607
3138.56171	0.05535
3137.27594	0.05458
3135.99017	0.05394
3134.70440	0.05355
3133.41863	0.05342
3132.13286	0.05349
3130.84709	0.05362
3129.56132	0.05370
3128.27556	0.05373
3126.98979	0.05378
3125.70402	0.05389
3124.41825	0.05404
3123.13248	0.05417
3121.84671	0.05421
3120.56094	0.05411
3119.27517	0.05388
3117.98940	0.05367
3116.70364	0.05368
3115.41787	0.05392
3114.13210	0.05412
3112.84633	0.05401
3111.56056	0.05356
3110.27479	0.05306
3108.98902	0.05277
3107.70325	0.05276
3106.41749	0.05294
3105.13172	0.05314
3103.84595	0.05323
3102.56018	0.05316
3101.27441	0.05300
3099.98864	0.05294
3098.70287	0.05306
3097.41710	0.05323
3096.13133	0.05324
3094.84557	0.05313
3093.55980	0.05305
3092.27403	0.05313
3090.98826	0.05332
3089.70249	0.05349
3088.41672	0.05362
3087.13095	0.05374
3085.84518	0.05389
3084.55942	0.05405
3083.27365	0.05415
3081.98788	0.05405
3080.70211	0.05368
3079.41634	0.05315
3078.13057	0.05272
3076.84480	0.05254
3075.55903	0.05252
3074.27326	0.05249
3072.98750	0.05242
3071.70173	0.05241
3070.41596	0.05247
3069.13019	0.05251
3067.84442	0.05248
3066.55865	0.05237
3065.27288	0.05221
3063.98711	0.05200
3062.70135	0.05172
3061.41558	0.05140
3060.12981	0.05108
3058.84404	0.05086
3057.55827	0.05074
3056.27250	0.05070
3054.98673	0.05067
3053.70096	0.05063
3052.41519	0.05062
3051.12943	0.05066
3049.84366	0.05064
3048.55789	0.05045
3047.27212	0.05013
3045.98635	0.04982
3044.70058	0.04961
3043.41481	0.04944
3042.12904	0.04921
3040.84328	0.04897
3039.55751	0.04886
3038.27174	0.04894
3036.98597	0.04904
3035.70020	0.04902
3034.41443	0.04889
3033.12866	0.04885
3031.84289	0.04909
3030.55712	0.04955
3029.27136	0.04993
3027.98559	0.04996
3026.69982	0.04956
3025.41405	0.04889
3024.12828	0.04816
3022.84251	0.04764
3021.55674	0.04760
3020.27097	0.04809
3018.98521	0.04881
3017.69944	0.04928
3016.41367	0.04922
3015.12790	0.04870
3013.84213	0.04805
3012.55636	0.04753
3011.27059	0.04726
3009.98482	0.04724
3008.69905	0.04744
3007.41329	0.04775
3006.12752	0.04802
3004.84175	0.04809
3003.55598	0.04794
3002.27021	0.04766
3000.98444	0.04742
2999.69867	0.04732
2998.41290	0.04735
2997.12714	0.04736
2995.84137	0.04718
2994.55560	0.04679
2993.26983	0.04638
2991.98406	0.04622
2990.69829	0.04642
2989.41252	0.04683
2988.12675	0.04718
2986.84098	0.04735
2985.55522	0.04742
2984.26945	0.04750
2982.98368	0.04756
2981.69791	0.04757
2980.41214	0.04758
2979.12637	0.04768
2977.84060	0.04795
2976.55483	0.04840
2975.26907	0.04898
2973.98330	0.04947
2972.69753	0.04961
2971.41176	0.04941
2970.12599	0.04921
2968.84022	0.04935
2967.55445	0.04987
2966.26868	0.05052
2964.98291	0.05100
2963.69715	0.05121
2962.41138	0.05124
2961.12561	0.05127
2959.83984	0.05143
2958.55407	0.05172
2957.26830	0.05207
2955.98253	0.05234
2954.69676	0.05243
2953.41100	0.05244
2952.12523	0.05251
2950.83946	0.05269
2949.55369	0.05289
2948.26792	0.05304
2946.98215	0.05312
2945.69638	0.05304
2944.41061	0.05275
2943.12484	0.05235
2941.83908	0.05206
2940.55331	0.05206
2939.26754	0.05232
2937.98177	0.05267
2936.69600	0.05297
2935.41023	0.05314
2934.12446	0.05321
2932.83869	0.05332
2931.55293	0.05357
2930.26716	0.05388
2928.98139	0.05404
2927.69562	0.05405
2926.40985	0.05409
2925.12408	0.05424
2923.83831	0.05436
2922.55254	0.05435
2921.26677	0.05429
2919.98101	0.05429
2918.69524	0.05425
2917.40947	0.05398
2916.12370	0.05347
2914.83793	0.05286
2913.55216	0.05228
2912.26639	0.05176
2910.98062	0.05135
2909.69486	0.05116
2908.40909	0.05120
2907.12332	0.05134
2905.83755	0.05135
2904.55178	0.05112
2903.26601	0.05072
2901.98024	0.05031
2900.69447	0.04998
2899.40870	0.04968
2898.12294	0.04934
2896.83717	0.04901
2895.55140	0.04878
2894.26563	0.04856
2892.97986	0.04819
2891.69409	0.04768
2890.40832	0.04725
2889.12255	0.04710
2887.83678	0.04722
2886.55102	0.04743
2885.26525	0.04756
2883.97948	0.04752
2882.69371	0.04733
2881.40794	0.04713
2880.12217	0.04713
2878.83640	0.04746
2877.55063	0.04798
2876.26487	0.04838
2874.97910	0.04846
2873.69333	0.04825
2872.40756	0.04790
2871.12179	0.04756
2869.83602	0.04732
2868.55025	0.04720
2867.26448	0.04713
2865.97871	0.04704
2864.69295	0.04695
2863.40718	0.04692
2862.12141	0.04696
2860.83564	0.04700
2859.54987	0.04705
2858.26410	0.04717
2856.97833	0.04735
2855.69256	0.04744
2854.40680	0.04734
2853.12103	0.04709
2851.83526	0.04683
2850.54949	0.04665
2849.26372	0.04652
2847.97795	0.04633
2846.69218	0.04602
2845.40641	0.04555
2844.12064	0.04496
2842.83488	0.04434
2841.54911	0.04387
2840.26334	0.04360
2838.97757	0.04345
2837.69180	0.04325
2836.40603	0.04294
2835.12026	0.04258
2833.83449	0.04225
2832.54873	0.04192
2831.26296	0.04158
2829.97719	0.04127
2828.69142	0.04101
2827.40565	0.04078
2826.11988	0.04060
2824.83411	0.04050
2823.54834	0.04052
2822.26257	0.04060
2820.97681	0.04061
2819.69104	0.04041
2818.40527	0.04002
2817.11950	0.03959
2815.83373	0.03934
2814.54796	0.03932
2813.26219	0.03943
2811.97642	0.03946
2810.69066	0.03936
2809.40489	0.03921
2808.11912	0.03910
2806.83335	0.03904
2805.54758	0.03897
2804.26181	0.03886
2802.97604	0.03870
2801.69027	0.03852
2800.40450	0.03838
2799.11874	0.03830
2797.83297	0.03827
2796.54720	0.03822
2795.26143	0.03813
2793.97566	0.03800
2792.68989	0.03788
2791.40412	0.03779
2790.11835	0.03781
2788.83259	0.03794
2787.54682	0.03807
2786.26105	0.03808
2784.97528	0.03800
2783.68951	0.03794
2782.40374	0.03793
2781.11797	0.03787
2779.83220	0.03773
2778.54643	0.03754
2777.26067	0.03733
2775.97490	0.03712
2774.68913	0.03700
2773.40336	0.03705
2772.11759	0.03716
2770.83182	0.03714
2769.54605	0.03688
2768.26028	0.03650
2766.97452	0.03622
2765.68875	0.03620
2764.40298	0.03636
2763.11721	0.03650
2761.83144	0.03644
2760.54567	0.03618
2759.25990	0.03591
2757.97413	0.03582
2756.68836	0.03593
2755.40260	0.03607
2754.11683	0.03607
2752.83106	0.03592
2751.54529	0.03573
2750.25952	0.03567
2748.97375	0.03582
2747.68798	0.03606
2746.40221	0.03614
2745.11645	0.03596
2743.83068	0.03566
2742.54491	0.03546
2741.25914	0.03540
2739.97337	0.03541
2738.68760	0.03545
2737.40183	0.03550
2736.11606	0.03549
2734.83029	0.03541
2733.54453	0.03531
2732.25876	0.03524
2730.97299	0.03517
2729.68722	0.03503
2728.40145	0.03488
2727.11568	0.03482
2725.82991	0.03483
2724.54414	0.03477
2723.25838	0.03456
2721.97261	0.03427
2720.68684	0.03409
2719.40107	0.03413
2718.11530	0.03433
2716.82953	0.03456
2715.54376	0.03467
2714.25799	0.03463
2712.97222	0.03447
2711.68646	0.03426
2710.40069	0.03403
2709.11492	0.03377
2707.82915	0.03350
2706.54338	0.03330
2705.25761	0.03325
2703.97184	0.03333
2702.68607	0.03340
2701.40031	0.03336
2700.11454	0.03324
2698.82877	0.03311
2697.54300	0.03301
2696.25723	0.03294
2694.97146	0.03286
2693.68569	0.03278
2692.39992	0.03274
2691.11415	0.03271
2689.82839	0.03265
2688.54262	0.03253
2687.25685	0.03239
2685.97108	0.03230
2684.68531	0.03226
2683.39954	0.03227
2682.11377	0.03233
2680.82800	0.03245
2679.54224	0.03259
2678.25647	0.03264
2676.97070	0.03254
2675.68493	0.03236
2674.39916	0.03225
2673.11339	0.03228
2671.82762	0.03240
2670.54185	0.03247
2669.25608	0.03248
2667.97032	0.03246
2666.68455	0.03247
2665.39878	0.03251
2664.11301	0.03258
2662.82724	0.03265
2661.54147	0.03271
2660.25570	0.03275
2658.96993	0.03274
2657.68417	0.03268
2656.39840	0.03252
2655.11263	0.03226
2653.82686	0.03199
2652.54109	0.03183
2651.25532	0.03185
2649.96955	0.03197
2648.68378	0.03204
2647.39801	0.03195
2646.11225	0.03172
2644.82648	0.03142
2643.54071	0.03110
2642.25494	0.03080
2640.96917	0.03060
2639.68340	0.03058
2638.39763	0.03072
2637.11186	0.03086
2635.82609	0.03082
2634.54033	0.03058
2633.25456	0.03026
2631.96879	0.03004
2630.68302	0.02996
2629.39725	0.02993
2628.11148	0.02987
2626.82571	0.02975
2625.53994	0.02960
2624.25418	0.02943
2622.96841	0.02926
2621.68264	0.02916
2620.39687	0.02918
2619.11110	0.02930
2617.82533	0.02941
2616.53956	0.02941
2615.25379	0.02934
2613.96802	0.02925
2612.68226	0.02907
2611.39649	0.02873
2610.11072	0.02832
2608.82495	0.02801
2607.53918	0.02787
2606.25341	0.02780
2604.96764	0.02770
2603.68187	0.02761
2602.39611	0.02754
2601.11034	0.02741
2599.82457	0.02713
2598.53880	0.02677
2597.25303	0.02654
2595.96726	0.02663
2594.68149	0.02696
2593.39572	0.02731
2592.10995	0.02748
2590.82419	0.02746
2589.53842	0.02736
2588.25265	0.02726
2586.96688	0.02718
2585.68111	0.02714
2584.39534	0.02721
2583.10957	0.02731
2581.82380	0.02726
2580.53804	0.02693
2579.25227	0.02638
2577.96650	0.02583
2576.68073	0.02545
2575.39496	0.02533
2574.10919	0.02539
2572.82342	0.02549
2571.53765	0.02550
2570.25188	0.02534
2568.96612	0.02514
2567.68035	0.02506
2566.39458	0.02517
2565.10881	0.02536
2563.82304	0.02554
2562.53727	0.02571
2561.25150	0.02592
2559.96573	0.02606
2558.67997	0.02599
2557.39420	0.02571
2556.10843	0.02542
2554.82266	0.02532
2553.53689	0.02547
2552.25112	0.02584
2550.96535	0.02618
2549.67958	0.02623
2548.39381	0.02590
2547.10805	0.02541
2545.82228	0.02498
2544.53651	0.02475
2543.25074	0.02468
2541.96497	0.02470
2540.67920	0.02468
2539.39343	0.02453
2538.10766	0.02428
2536.82190	0.02399
2535.53613	0.02372
2534.25036	0.02351
2532.96459	0.02341
2531.67882	0.02347
2530.39305	0.02369
2529.10728	0.02401
2527.82151	0.02432
2526.53574	0.02452
2525.24998	0.02456
2523.96421	0.02445
2522.67844	0.02427
2521.39267	0.02403
2520.10690	0.02375
2518.82113	0.02344
2517.53536	0.02319
2516.24959	0.02310
2514.96383	0.02315
2513.67806	0.02318
2512.39229	0.02310
2511.10652	0.02300
2509.82075	0.02300
2508.53498	0.02307
2507.24921	0.02311
2505.96344	0.02312
2504.67767	0.02320
2503.39191	0.02336
2502.10614	0.02345
2500.82037	0.02331
2499.53460	0.02304
2498.24883	0.02288
2496.96306	0.02296
2495.67729	0.02318
2494.39152	0.02337
2493.10576	0.02347
2491.81999	0.02347
2490.53422	0.02341
2489.24845	0.02339
2487.96268	0.02358
2486.67691	0.02395
2485.39114	0.02425
2484.10537	0.02423
2482.81960	0.02388
2481.53384	0.02338
2480.24807	0.02300
2478.96230	0.02291
2477.67653	0.02305
2476.39076	0.02323
2475.10499	0.02327
2473.81922	0.02318
2472.53345	0.02315
2471.24769	0.02329
2469.96192	0.02355
2468.67615	0.02380
2467.39038	0.02397
2466.10461	0.02405
2464.81884	0.02403
2463.53307	0.02391
2462.24730	0.02368
2460.96153	0.02344
2459.67577	0.02329
2458.39000	0.02336
2457.10423	0.02363
2455.81846	0.02394
2454.53269	0.02401
2453.24692	0.02373
2451.96115	0.02331
2450.67538	0.02297
2449.38962	0.02277
2448.10385	0.02261
2446.81808	0.02250
2445.53231	0.02251
2444.24654	0.02261
2442.96077	0.02266
2441.67500	0.02259
2440.38923	0.02250
2439.10346	0.02247
2437.81770	0.02244
2436.53193	0.02231
2435.24616	0.02214
2433.96039	0.02209
2432.67462	0.02217
2431.38885	0.02220
2430.10308	0.02201
2428.81731	0.02168
2427.53155	0.02143
2426.24578	0.02142
2424.96001	0.02165
2423.67424	0.02193
2422.38847	0.02210
2421.10270	0.02214
2419.81693	0.02211
2418.53116	0.02207
2417.24539	0.02202
2415.95963	0.02195
2414.67386	0.02185
2413.38809	0.02175
2412.10232	0.02170
2410.81655	0.02174
2409.53078	0.02186
2408.24501	0.02197
2406.95924	0.02197
2405.67347	0.02181
2404.38771	0.02159
2403.10194	0.02150
2401.81617	0.02164
2400.53040	0.02195
2399.24463	0.02204
2397.95886	0.02201
2396.67309	0.02188
2395.38732	0.02166
2394.10156	0.02147
2392.81579	0.02139
2391.53002	0.02144
2390.24425	0.02156
2388.95848	0.02174
2387.67271	0.02201
2386.38694	0.02236
2385.10117	0.02266
2383.81540	0.02275
2382.52964	0.02262
2381.24387	0.02243
2379.95810	0.02238
2378.67233	0.02261
2377.38656	0.02308
2376.10079	0.02366
2374.81502	0.02419
2373.52925	0.02449
2372.24349	0.02451
2370.95772	0.02444
2369.67195	0.02458
2368.38618	0.02513
2367.10041	0.02600
2365.81464	0.02691
2364.52887	0.02763
2363.24310	0.02797
2361.95733	0.02781
2360.67157	0.02714
2359.38580	0.02617
2358.10003	0.02520
2356.81426	0.02435
2355.52849	0.02366
2354.24272	0.02329
2352.95695	0.02342
2351.67118	0.02405
2350.38542	0.02483
2349.09965	0.02540
2347.81388	0.02561
2346.52811	0.02556
2345.24234	0.02547
2343.95657	0.02556
2342.67080	0.02591
2341.38503	0.02651
2340.09926	0.02715
2338.81350	0.02757
2337.52773	0.02764
2336.24196	0.02754
2334.95619	0.02747
2333.67042	0.02749
2332.38465	0.02752
2331.09888	0.02750
2329.81311	0.02746
2328.52735	0.02739
2327.24158	0.02720
2325.95581	0.02678
2324.67004	0.02616
2323.38427	0.02550
2322.09850	0.02494
2320.81273	0.02451
2319.52696	0.02420
2318.24119	0.02397
2316.95543	0.02379
2315.66966	0.02359
2314.38389	0.02331
2313.09812	0.02292
2311.81235	0.02251
2310.52658	0.02219
2309.24081	0.02207
2307.95504	0.02212
2306.66928	0.02224
2305.38351	0.02235
2304.09774	0.02242
2302.81197	0.02246
2301.52620	0.02245
2300.24043	0.02238
2298.95466	0.02226
2297.66889	0.02208
2296.38312	0.02184
2295.09736	0.02160
2293.81159	0.02144
2292.52582	0.02147
2291.24005	0.02166
2289.95428	0.02186
2288.66851	0.02188
2287.38274	0.02165
2286.09697	0.02124
2284.81121	0.02077
2283.52544	0.02033
2282.23967	0.01991
2280.95390	0.01946
2279.66813	0.01904
2278.38236	0.01881
2277.09659	0.01890
2275.81082	0.01919
2274.52505	0.01941
2273.23929	0.01934
2271.95352	0.01907
2270.66775	0.01883
2269.38198	0.01877
2268.09621	0.01874
2266.81044	0.01851
2265.52467	0.01809
2264.23890	0.01774
2262.95314	0.01776
2261.66737	0.01820
2260.38160	0.01883
2259.09583	0.01930
2257.81006	0.01937
2256.52429	0.01903
2255.23852	0.01848
2253.95275	0.01800
2252.66698	0.01780
2251.38122	0.01785
2250.09545	0.01786
2248.80968	0.01748
2247.52391	0.01674
2246.23814	0.01601
2244.95237	0.01590
2243.66660	0.01660
2242.38083	0.01761
2241.09507	0.01824
2239.80930	0.01814
2238.52353	0.01745
2237.23776	0.01657
2235.95199	0.01580
2234.66622	0.01526
2233.38045	0.01490
2232.09468	0.01478
2230.80891	0.01507
2229.52315	0.01580
2228.23738	0.01661
2226.95161	0.01698
2225.66584	0.01658
2224.38007	0.01549
2223.09430	0.01404
2221.80853	0.01268
2220.52276	0.01187
2219.23700	0.01195
2217.95123	0.01277
2216.66546	0.01386
2215.37969	0.01461
2214.09392	0.01467
2212.80815	0.01408
2211.52238	0.01332
2210.23661	0.01292
2208.95084	0.01300
2207.66508	0.01331
2206.37931	0.01360
2205.09354	0.01384
2203.80777	0.01394
2202.52200	0.01369
2201.23623	0.01306
2199.95046	0.01230
2198.66469	0.01175
2197.37893	0.01165
2196.09316	0.01205
2194.80739	0.01278
2193.52162	0.01345
2192.23585	0.01367
2190.95008	0.01312
2189.66431	0.01176
2188.37854	0.01000
2187.09277	0.00859
2185.80701	0.00813
2184.52124	0.00855
2183.23547	0.00933
2181.94970	0.01003
2180.66393	0.01056
2179.37816	0.01097
2178.09239	0.01118
2176.80662	0.01104
2175.52085	0.01042
2174.23509	0.00947
2172.94932	0.00862
2171.66355	0.00838
2170.37778	0.00894
2169.09201	0.00985
2167.80624	0.01036
2166.52047	0.01008
2165.23470	0.00934
2163.94894	0.00882
2162.66317	0.00877
2161.37740	0.00890
2160.09163	0.00881
2158.80586	0.00830
2157.52009	0.00736
2156.23432	0.00616
2154.94855	0.00504
2153.66278	0.00448
2152.37702	0.00488
2151.09125	0.00627
2149.80548	0.00823
2148.51971	0.01004
2147.23394	0.01121
2145.94817	0.01161
2144.66240	0.01134
2143.37663	0.01059
2142.09087	0.00989
2140.80510	0.00992
2139.51933	0.01084
2138.23356	0.01197
2136.94779	0.01245
2135.66202	0.01213
2134.37625	0.01156
2133.09048	0.01131
2131.80471	0.01144
2130.51895	0.01172
2129.23318	0.01193
2127.94741	0.01197
2126.66164	0.01179
2125.37587	0.01147
2124.09010	0.01117
2122.80433	0.01109
2121.51856	0.01137
2120.23280	0.01202
2118.94703	0.01277
2117.66126	0.01318
2116.37549	0.01304
2115.08972	0.01268
2113.80395	0.01256
2112.51818	0.01276
2111.23241	0.01292
2109.94664	0.01282
2108.66088	0.01267
2107.37511	0.01282
2106.08934	0.01328
2104.80357	0.01373
2103.51780	0.01387
2102.23203	0.01361
2100.94626	0.01301
2099.66049	0.01203
2098.37473	0.01100
2097.08896	0.01021
2095.80319	0.00996
2094.51742	0.01040
2093.23165	0.01134
2091.94588	0.01226
2090.66011	0.01265
2089.37434	0.01241
2088.08857	0.01191
2086.80281	0.01164
2085.51704	0.01167
2084.23127	0.01174
2082.94550	0.01172
2081.65973	0.01172
2080.37396	0.01188
2079.08819	0.01202
2077.80242	0.01186
2076.51666	0.01140
2075.23089	0.01087
2073.94512	0.01050
2072.65935	0.01030
2071.37358	0.01020
2070.08781	0.01023
2068.80204	0.01049
2067.51627	0.01097
2066.23050	0.01149
2064.94474	0.01174
2063.65897	0.01154
2062.37320	0.01098
2061.08743	0.01033
2059.80166	0.00982
2058.51589	0.00953
2057.23012	0.00935
2055.94435	0.00916
2054.65859	0.00898
2053.37282	0.00895
2052.08705	0.00907
2050.80128	0.00912
2049.51551	0.00884
2048.22974	0.00825
2046.94397	0.00757
2045.65820	0.00701
2044.37243	0.00669
2043.08667	0.00665
2041.80090	0.00684
2040.51513	0.00709
2039.22936	0.00717
2037.94359	0.00699
2036.65782	0.00678
2035.37205	0.00689
2034.08628	0.00741
2032.80052	0.00789
2031.51475	0.00772
2030.22898	0.00676
2028.94321	0.00552
2027.65744	0.00472
2026.37167	0.00478
2025.08590	0.00561
2023.80013	0.00681
2022.51436	0.00784
2021.22860	0.00824
2019.94283	0.00794
2018.65706	0.00741
2017.37129	0.00733
2016.08552	0.00781
2014.79975	0.00828
2013.51398	0.00809
2012.22821	0.00734
2010.94245	0.00661
2009.65668	0.00625
2008.37091	0.00623
2007.08514	0.00641
2005.79937	0.00676
2004.51360	0.00713
2003.22783	0.00726
2001.94206	0.00703
2000.65629	0.00662
1999.37053	0.00641
1998.08476	0.00672
1996.79899	0.00751
1995.51322	0.00843
1994.22745	0.00912
1992.94168	0.00944
1991.65591	0.00957
1990.37014	0.00975
1989.08438	0.01014
1987.79861	0.01070
1986.51284	0.01120
1985.22707	0.01134
1983.94130	0.01105
1982.65553	0.01045
1981.36976	0.00963
1980.08399	0.00862
1978.79822	0.00759
1977.51246	0.00679
1976.22669	0.00629
1974.94092	0.00597
1973.65515	0.00591
1972.36938	0.00645
1971.08361	0.00771
1969.79784	0.00926
1968.51207	0.01052
1967.22631	0.01116
1965.94054	0.01124
1964.65477	0.01085
1963.36900	0.01007
1962.08323	0.00921
1960.79746	0.00869
1959.51169	0.00867
1958.22592	0.00887
1956.94015	0.00895
1955.65439	0.00892
1954.36862	0.00910
1953.08285	0.00963
1951.79708	0.01030
1950.51131	0.01080
1949.22554	0.01101
1947.93977	0.01104
1946.65400	0.01102
1945.36823	0.01100
1944.08247	0.01102
1942.79670	0.01120
1941.51093	0.01163
1940.22516	0.01215
1938.93939	0.01245
1937.65362	0.01236
1936.36785	0.01198
1935.08208	0.01158
1933.79632	0.01134
1932.51055	0.01128
1931.22478	0.01130
1929.93901	0.01137
1928.65324	0.01142
1927.36747	0.01138
1926.08170	0.01114
1924.79593	0.01075
1923.51016	0.01042
1922.22440	0.01038
1920.93863	0.01061
1919.65286	0.01084
1918.36709	0.01091
1917.08132	0.01086
1915.79555	0.01080
1914.50978	0.01084
1913.22401	0.01104
1911.93825	0.01131
1910.65248	0.01145
1909.36671	0.01137
1908.08094	0.01114
1906.79517	0.01099
1905.50940	0.01105
1904.22363	0.01131
1902.93786	0.01165
1901.65209	0.01202
1900.36633	0.01241
1899.08056	0.01280
1897.79479	0.01304
1896.50902	0.01297
1895.22325	0.01260
1893.93748	0.01214
1892.65171	0.01181
1891.36594	0.01171
1890.08018	0.01186
1888.79441	0.01216
1887.50864	0.01245
1886.22287	0.01260
1884.93710	0.01261
1883.65133	0.01257
1882.36556	0.01251
1881.07979	0.01242
1879.79402	0.01228
1878.50826	0.01212
1877.22249	0.01198
1875.93672	0.01197
1874.65095	0.01215
1873.36518	0.01252
1872.07941	0.01289
1870.79364	0.01301
1869.50787	0.01281
1868.22211	0.01246
1866.93634	0.01216
1865.65057	0.01201
1864.36480	0.01203
1863.07903	0.01212
1861.79326	0.01222
1860.50749	0.01228
1859.22172	0.01240
1857.93595	0.01262
1856.65019	0.01284
1855.36442	0.01293
1854.07865	0.01282
1852.79288	0.01259
1851.50711	0.01238
1850.22134	0.01228
1848.93557	0.01237
1847.64980	0.01253
1846.36404	0.01255
1845.07827	0.01244
1843.79250	0.01250
1842.50673	0.01282
1841.22096	0.01308
1839.93519	0.01303
1838.64942	0.01278
1837.36365	0.01255
1836.07788	0.01240
1834.79212	0.01234
1833.50635	0.01233
1832.22058	0.01230
1830.93481	0.01225
1829.64904	0.01233
1828.36327	0.01250
1827.07750	0.01252
1825.79173	0.01234
1824.50597	0.01220
1823.22020	0.01223
1821.93443	0.01230
1820.64866	0.01229
1819.36289	0.01219
1818.07712	0.01211
1816.79135	0.01213
1815.50558	0.01228
1814.21981	0.01245
1812.93405	0.01255
1811.64828	0.01254
1810.36251	0.01252
1809.07674	0.01250
1807.79097	0.01250
1806.50520	0.01253
1805.21943	0.01260
1803.93366	0.01265
1802.64790	0.01266
1801.36213	0.01266
1800.07636	0.01271
1798.79059	0.01277
1797.50482	0.01285
1796.21905	0.01293
1794.93328	0.01295
1793.64751	0.01287
1792.36174	0.01285
1791.07598	0.01303
1789.79021	0.01325
1788.50444	0.01328
1787.21867	0.01310
1785.93290	0.01288
1784.64713	0.01276
1783.36136	0.01273
1782.07559	0.01268
1780.78983	0.01258
1779.50406	0.01256
1778.21829	0.01266
1776.93252	0.01283
1775.64675	0.01289
1774.36098	0.01268
1773.07521	0.01240
1771.78944	0.01241
1770.50367	0.01271
1769.21791	0.01295
1767.93214	0.01310
1766.64637	0.01334
1765.36060	0.01354
1764.07483	0.01347
1762.78906	0.01325
1761.50329	0.01320
1760.21752	0.01335
1758.93176	0.01343
1757.64599	0.01334
1756.36022	0.01332
1755.07445	0.01344
1753.78868	0.01338
1752.50291	0.01301
1751.21714	0.01266
1749.93137	0.01262
1748.64560	0.01279
1747.35984	0.01295
1746.07407	0.01304
1744.78830	0.01308
1743.50253	0.01308
1742.21676	0.01299
1740.93099	0.01287
1739.64522	0.01297
1738.35945	0.01333
1737.07369	0.01348
1735.78792	0.01305
1734.50215	0.01257
1733.21638	0.01276
1731.93061	0.01345
1730.64484	0.01393
1729.35907	0.01399
1728.07330	0.01393
1726.78753	0.01391
1725.50177	0.01388
1724.21600	0.01388
1722.93023	0.01401
1721.64446	0.01422
1720.35869	0.01418
1719.07292	0.01384
1717.78715	0.01365
1716.50138	0.01399
1715.21561	0.01464
1713.92985	0.01519
1712.64408	0.01550
1711.35831	0.01572
1710.07254	0.01600
1708.78677	0.01634
1707.50100	0.01673
1706.21523	0.01726
1704.92946	0.01808
1703.64370	0.01894
1702.35793	0.01934
1701.07216	0.01961
1699.78639	0.02049
1698.50062	0.02174
1697.21485	0.02253
1695.92908	0.02299
1694.64331	0.02392
1693.35754	0.02522
1692.07178	0.02624
1690.78601	0.02697
1689.50024	0.02790
1688.21447	0.02900
1686.92870	0.02973
1685.64293	0.03004
1684.35716	0.03063
1683.07139	0.03189
1681.78563	0.03327
1680.49986	0.03430
1679.21409	0.03512
1677.92832	0.03587
1676.64255	0.03654
1675.35678	0.03738
1674.07101	0.03856
1672.78524	0.03980
1671.49947	0.04073
1670.21371	0.04147
1668.92794	0.04242
1667.64217	0.04365
1666.35640	0.04476
1665.07063	0.04546
1663.78486	0.04593
1662.49909	0.04656
1661.21332	0.04747
1659.92756	0.04854
1658.64179	0.04965
1657.35602	0.05070
1656.07025	0.05122
1654.78448	0.05097
1653.49871	0.05080
1652.21294	0.05171
1650.92717	0.05336
1649.64140	0.05441
1648.35564	0.05439
1647.06987	0.05406
1645.78410	0.05414
1644.49833	0.05457
1643.21256	0.05489
1641.92679	0.05496
1640.64102	0.05498
1639.35525	0.05498
1638.06949	0.05470
1636.78372	0.05411
1635.49795	0.05367
1634.21218	0.05367
1632.92641	0.05380
1631.64064	0.05355
1630.35487	0.05289
1629.06910	0.05210
1627.78333	0.05139
1626.49757	0.05070
1625.21180	0.04987
1623.92603	0.04892
1622.64026	0.04809
1621.35449	0.04744
1620.06872	0.04661
1618.78295	0.04530
1617.49718	0.04384
1616.21142	0.04281
1614.92565	0.04228
1613.63988	0.04176
1612.35411	0.04097
1611.06834	0.04010
1609.78257	0.03938
1608.49680	0.03879
1607.21103	0.03825
1605.92526	0.03771
1604.63950	0.03717
1603.35373	0.03665
1602.06796	0.03620
1600.78219	0.03580
1599.49642	0.03543
1598.21065	0.03508
1596.92488	0.03477
1595.63911	0.03453
1594.35335	0.03439
1593.06758	0.03435
1591.78181	0.03436
1590.49604	0.03440
1589.21027	0.03447
1587.92450	0.03456
1586.63873	0.03468
1585.35296	0.03484
1584.06719	0.03506
1582.78143	0.03539
1581.49566	0.03588
1580.20989	0.03642
1578.92412	0.03670
1577.63835	0.03660
1576.35258	0.03664
1575.06681	0.03732
1573.78104	0.03834
1572.49528	0.03899
1571.20951	0.03920
1569.92374	0.03942
1568.63797	0.04000
1567.35220	0.04071
1566.06643	0.04132
1564.78066	0.04192
1563.49489	0.04259
1562.20912	0.04297
1560.92336	0.04280
1559.63759	0.04266
1558.35182	0.04328
1557.06605	0.04439
1555.78028	0.04513
1554.49451	0.04535
1553.20874	0.04550
1551.92297	0.04579
1550.63721	0.04608
1549.35144	0.04633
1548.06567	0.04660
1546.77990	0.04681
1545.49413	0.04699
1544.20836	0.04719
1542.92259	0.04725
1541.63682	0.04698
1540.35105	0.04666
1539.06529	0.04680
1537.77952	0.04738
1536.49375	0.04772
1535.20798	0.04743
1533.92221	0.04692
1532.63644	0.04673
1531.35067	0.04686
1530.06490	0.04698
1528.77914	0.04695
1527.49337	0.04692
1526.20760	0.04704
1524.92183	0.04721
1523.63606	0.04715
1522.35029	0.04689
1521.06452	0.04685
1519.77875	0.04718
1518.49298	0.04750
1517.20722	0.04762
1515.92145	0.04773
1514.63568	0.04797
1513.34991	0.04823
1512.06414	0.04854
1510.77837	0.04891
1509.49260	0.04903
1508.20683	0.04878
1506.92107	0.04859
1505.63530	0.04903
1504.34953	0.04995
1503.06376	0.05065
1501.77799	0.05087
1500.49222	0.05084
1499.20645	0.05080
1497.92068	0.05078
1496.63491	0.05090
1495.34915	0.05127
1494.06338	0.05173
1492.77761	0.05191
1491.49184	0.05179
1490.20607	0.05171
1488.92030	0.05184
1487.63453	0.05216
1486.34876	0.05258
1485.06299	0.05306
1483.77723	0.05355
1482.49146	0.05408
1481.20569	0.05470
1479.91992	0.05541
1478.63415	0.05612
1477.34838	0.05679
1476.06261	0.05742
1474.77684	0.05797
1473.49108	0.05849
1472.20531	0.05916
1470.91954	0.06005
1469.63377	0.06090
1468.34800	0.06142
1467.06223	0.06160
1465.77646	0.06171
1464.49069	0.06205
1463.20492	0.06268
1461.91916	0.06344
1460.63339	0.06401
1459.34762	0.06424
1458.06185	0.06430
1456.77608	0.06473
1455.49031	0.06571
1454.20454	0.06670
1452.91877	0.06724
1451.63301	0.06740
1450.34724	0.06740
1449.06147	0.06733
1447.77570	0.06721
1446.48993	0.06708
1445.20416	0.06691
1443.91839	0.06668
1442.63262	0.06647
1441.34685	0.06636
1440.06109	0.06621
1438.77532	0.06583
1437.48955	0.06536
1436.20378	0.06519
1434.91801	0.06541
1433.63224	0.06569
1432.34647	0.06580
1431.06070	0.06590
1429.77494	0.06621
1428.48917	0.06675
1427.20340	0.06741
1425.91763	0.06808
1424.63186	0.06885
1423.34609	0.06976
1422.06032	0.07061
1420.77455	0.07123
1419.48878	0.07183
1418.20302	0.07263
1416.91725	0.07350
1415.63148	0.07413
1414.34571	0.07447
1413.05994	0.07469
1411.77417	0.07490
1410.48840	0.07508
1409.20263	0.07518
1407.91687	0.07510
1406.63110	0.07478
1405.34533	0.07434
1404.05956	0.07388
1402.77379	0.07340
1401.48802	0.07275
1400.20225	0.07191
1398.91648	0.07104
1397.63071	0.07017
1396.34495	0.06921
1395.05918	0.06813
1393.77341	0.06705
1392.48764	0.06600
1391.20187	0.06483
1389.91610	0.06348
1388.63033	0.06208
1387.34456	0.06079
1386.05880	0.05967
1384.77303	0.05857
1383.48726	0.05741
1382.20149	0.05622
1380.91572	0.05505
1379.62995	0.05389
1378.34418	0.05270
1377.05841	0.05146
1375.77264	0.05016
1374.48688	0.04887
1373.20111	0.04765
1371.91534	0.04644
1370.62957	0.04520
1369.34380	0.04398
1368.05803	0.04288
1366.77226	0.04192
1365.48649	0.04098
1364.20073	0.03999
1362.91496	0.03901
1361.62919	0.03816
1360.34342	0.03744
1359.05765	0.03675
1357.77188	0.03604
1356.48611	0.03532
1355.20034	0.03465
1353.91457	0.03407
1352.62881	0.03360
1351.34304	0.03322
1350.05727	0.03291
1348.77150	0.03263
1347.48573	0.03237
1346.19996	0.03211
1344.91419	0.03187
1343.62842	0.03163
1342.34266	0.03138
1341.05689	0.03111
1339.77112	0.03089
1338.48535	0.03074
1337.19958	0.03065
1335.91381	0.03055
1334.62804	0.03039
1333.34227	0.03017
1332.05650	0.02989
1330.77074	0.02958
1329.48497	0.02925
1328.19920	0.02893
1326.91343	0.02861
1325.62766	0.02829
1324.34189	0.02798
1323.05612	0.02770
1321.77035	0.02745
1320.48459	0.02722
1319.19882	0.02701
1317.91305	0.02678
1316.62728	0.02652
1315.34151	0.02626
1314.05574	0.02602
1312.76997	0.02586
1311.48420	0.02573
1310.19843	0.02560
1308.91267	0.02542
1307.62690	0.02520
1306.34113	0.02497
1305.05536	0.02476
1303.76959	0.02457
1302.48382	0.02435
1301.19805	0.02410
1299.91228	0.02385
1298.62652	0.02364
1297.34075	0.02352
1296.05498	0.02345
1294.76921	0.02337
1293.48344	0.02325
1292.19767	0.02311
1290.91190	0.02299
1289.62613	0.02294
1288.34036	0.02294
1287.05460	0.02298
1285.76883	0.02303
1284.48306	0.02306
1283.19729	0.02306
1281.91152	0.02303
1280.62575	0.02297
1279.33998	0.02289
1278.05421	0.02278
1276.76845	0.02264
1275.48268	0.02248
1274.19691	0.02231
1272.91114	0.02218
1271.62537	0.02210
1270.33960	0.02208
1269.05383	0.02206
1267.76806	0.02204
1266.48229	0.02201
1265.19653	0.02199
1263.91076	0.02197
1262.62499	0.02195
1261.33922	0.02193
1260.05345	0.02188
1258.76768	0.02183
1257.48191	0.02177
1256.19614	0.02176
1254.91037	0.02181
1253.62461	0.02192
1252.33884	0.02203
1251.05307	0.02209
1249.76730	0.02207
1248.48153	0.02201
1247.19576	0.02193
1245.90999	0.02185
1244.62422	0.02177
1243.33846	0.02171
1242.05269	0.02168
1240.76692	0.02164
1239.48115	0.02157
1238.19538	0.02146
1236.90961	0.02133
1235.62384	0.02122
1234.33807	0.02110
1233.05230	0.02094
1231.76654	0.02073
1230.48077	0.02048
1229.19500	0.02023
1227.90923	0.02000
1226.62346	0.01978
1225.33769	0.01954
1224.05192	0.01929
1222.76615	0.01902
1221.48039	0.01873
1220.19462	0.01843
1218.90885	0.01813
1217.62308	0.01787
1216.33731	0.01766
1215.05154	0.01751
1213.76577	0.01741
1212.48000	0.01733
1211.19423	0.01727
1209.90847	0.01723
1208.62270	0.01721
1207.33693	0.01719
1206.05116	0.01716
1204.76539	0.01711
1203.47962	0.01702
1202.19385	0.01691
1200.90808	0.01682
1199.62232	0.01672
1198.33655	0.01660
1197.05078	0.01645
1195.76501	0.01630
1194.47924	0.01616
1193.19347	0.01603
1191.90770	0.01588
1190.62193	0.01572
1189.33616	0.01555
1188.05040	0.01541
1186.76463	0.01529
1185.47886	0.01516
1184.19309	0.01503
1182.90732	0.01493
1181.62155	0.01487
1180.33578	0.01484
1179.05001	0.01478
1177.76425	0.01469
1176.47848	0.01462
1175.19271	0.01461
1173.90694	0.01467
1172.62117	0.01476
1171.33540	0.01485
1170.04963	0.01493
1168.76386	0.01500
1167.47809	0.01510
1166.19233	0.01522
1164.90656	0.01532
1163.62079	0.01540
1162.33502	0.01544
1161.04925	0.01546
1159.76348	0.01552
1158.47771	0.01563
1157.19194	0.01577
1155.90618	0.01587
1154.62041	0.01594
1153.33464	0.01600
1152.04887	0.01613
1150.76310	0.01634
1149.47733	0.01659
1148.19156	0.01685
1146.90579	0.01711
1145.62002	0.01739
1144.33426	0.01774
1143.04849	0.01815
1141.76272	0.01861
1140.47695	0.01910
1139.19118	0.01963
1137.90541	0.02022
1136.61964	0.02092
1135.33387	0.02170
1134.04811	0.02255
1132.76234	0.02346
1131.47657	0.02448
1130.19080	0.02566
1128.90503	0.02702
1127.61926	0.02849
1126.33349	0.03007
1125.04772	0.03176
1123.76195	0.03358
1122.47619	0.03550
1121.19042	0.03749
1119.90465	0.03949
1118.61888	0.04150
1117.33311	0.04352
1116.04734	0.04561
1114.76157	0.04783
1113.47580	0.05013
1112.19004	0.05241
1110.90427	0.05456
1109.61850	0.05655
1108.33273	0.05843
1107.04696	0.06026
1105.76119	0.06204
1104.47542	0.06375
1103.18965	0.06539
1101.90388	0.06698
1100.61812	0.06855
1099.33235	0.07013
1098.04658	0.07168
1096.76081	0.07316
1095.47504	0.07454
1094.18927	0.07582
1092.90350	0.07700
1091.61773	0.07811
1090.33197	0.07916
1089.04620	0.08017
1087.76043	0.08118
1086.47466	0.08225
1085.18889	0.08340
1083.90312	0.08459
1082.61735	0.08575
1081.33158	0.08693
1080.04581	0.08818
1078.76005	0.08953
1077.47428	0.09093
1076.18851	0.09239
1074.90274	0.09392
1073.61697	0.09555
1072.33120	0.09727
1071.04543	0.09905
1069.75966	0.10084
1068.47390	0.10263
1067.18813	0.10443
1065.90236	0.10630
1064.61659	0.10828
1063.33082	0.11032
1062.04505	0.11235
1060.75928	0.11435
1059.47351	0.11633
1058.18774	0.11831
1056.90198	0.12026
1055.61621	0.12217
1054.33044	0.12406
1053.04467	0.12599
1051.75890	0.12792
1050.47313	0.12985
1049.18736	0.13176
1047.90159	0.13372
1046.61583	0.13577
1045.33006	0.13786
1044.04429	0.13988
1042.75852	0.14180
1041.47275	0.14367
1040.18698	0.14559
1038.90121	0.14764
1037.61544	0.14980
1036.32967	0.15200
1035.04391	0.15412
1033.75814	0.15608
1032.47237	0.15786
1031.18660	0.15949
1029.90083	0.16098
1028.61506	0.16236
1027.32929	0.16359
1026.04352	0.16468
1024.75775	0.16561
1023.47199	0.16636
1022.18622	0.16691
1020.90045	0.16727
1019.61468	0.16743
1018.32891	0.16740
1017.04314	0.16712
1015.75737	0.16658
1014.47160	0.16582
1013.18584	0.16488
1011.90007	0.16374
1010.61430	0.16236
1009.32853	0.16071
1008.04276	0.15879
1006.75699	0.15664
1005.47122	0.15431
1004.18545	0.15186
1002.89968	0.14930
1001.61392	0.14661
1000.32815	0.14380
999.04238	0.14086
997.75661	0.13774
996.47084	0.13443
995.18507	0.13092
993.89930	0.12732
992.61353	0.12378
991.32777	0.12040
990.04200	0.11716
988.75623	0.11397
987.47046	0.11078
986.18469	0.10759
984.89892	0.10447
983.61315	0.10148
982.32738	0.09862
981.04161	0.09588
979.75585	0.09329
978.47008	0.09086
977.18431	0.08859
975.89854	0.08647
974.61277	0.08452
973.32700	0.08276
972.04123	0.08121
970.75546	0.07986
969.46970	0.07880
968.18393	0.07812
966.89816	0.07791
965.61239	0.07811
964.32662	0.07856
963.04085	0.07904
961.75508	0.07936
960.46931	0.07940
959.18354	0.07912
957.89778	0.07846
956.61201	0.07743
955.32624	0.07615
954.04047	0.07476
952.75470	0.07338
951.46893	0.07199
950.18316	0.07059
948.89739	0.06918
947.61163	0.06777
946.32586	0.06635
945.04009	0.06489
943.75432	0.06342
942.46855	0.06200
941.18278	0.06071
939.89701	0.05959
938.61124	0.05860
937.32547	0.05768
936.03971	0.05676
934.75394	0.05584
933.46817	0.05494
932.18240	0.05407
930.89663	0.05320
929.61086	0.05233
928.32509	0.05151
927.03932	0.05079
925.75356	0.05014
924.46779	0.04950
923.18202	0.04885
921.89625	0.04820
920.61048	0.04758
919.32471	0.04702
918.03894	0.04652
916.75317	0.04607
915.46740	0.04563
914.18164	0.04521
912.89587	0.04479
911.61010	0.04434
910.32433	0.04383
909.03856	0.04326
907.75279	0.04272
906.46702	0.04228
905.18125	0.04198
903.89549	0.04175
902.60972	0.04149
901.32395	0.04113
900.03818	0.04068
898.75241	0.04024
897.46664	0.03989
896.18087	0.03962
894.89510	0.03937
893.60933	0.03910
892.32357	0.03886
891.03780	0.03869
889.75203	0.03864
888.46626	0.03872
887.18049	0.03894
885.89472	0.03935
884.60895	0.04004
883.32318	0.04110
882.03742	0.04251
880.75165	0.04407
879.46588	0.04551
878.18011	0.04668
876.89434	0.04768
875.60857	0.04869
874.32280	0.04975
873.03703	0.05063
871.75126	0.05107
870.46550	0.05098
869.17973	0.05046
867.89396	0.04964
866.60819	0.04858
865.32242	0.04735
864.03665	0.04605
862.75088	0.04483
861.46511	0.04373
860.17935	0.04275
858.89358	0.04189
857.60781	0.04118
856.32204	0.04061
855.03627	0.04011
853.75050	0.03963
852.46473	0.03916
851.17896	0.03870
849.89319	0.03826
848.60743	0.03783
847.32166	0.03743
846.03589	0.03708
844.75012	0.03676
843.46435	0.03646
842.17858	0.03618
840.89281	0.03593
839.60704	0.03571
838.32128	0.03553
837.03551	0.03535
835.74974	0.03510
834.46397	0.03476
833.17820	0.03438
831.89243	0.03406
830.60666	0.03389
829.32089	0.03380
828.03512	0.03373
826.74936	0.03361
825.46359	0.03345
824.17782	0.03327
822.89205	0.03306
821.60628	0.03286
820.32051	0.03272
819.03474	0.03265
817.74897	0.03261
816.46321	0.03253
815.17744	0.03241
813.89167	0.03229
812.60590	0.03220
811.32013	0.03214
810.03436	0.03208
808.74859	0.03199
807.46282	0.03190
806.17705	0.03187
804.89129	0.03191
803.60552	0.03202
802.31975	0.03215
801.03398	0.03229
799.74821	0.03241
798.46244	0.03246
797.17667	0.03242
795.89090	0.03230
794.60513	0.03216
793.31937	0.03204
792.03360	0.03192
790.74783	0.03178
789.46206	0.03165
788.17629	0.03159
786.89052	0.03163
785.60475	0.03171
784.31898	0.03176
783.03322	0.03172
781.74745	0.03158
780.46168	0.03139
779.17591	0.03120
777.89014	0.03105
776.60437	0.03100
775.31860	0.03108
774.03283	0.03124
772.74706	0.03140
771.46130	0.03149
770.17553	0.03150
768.88976	0.03147
767.60399	0.03141
766.31822	0.03132
765.03245	0.03126
763.74668	0.03131
762.46091	0.03146
761.17515	0.03162
759.88938	0.03171
758.60361	0.03176
757.31784	0.03179
756.03207	0.03184
754.74630	0.03186
753.46053	0.03183
752.17476	0.03176
750.88899	0.03170
749.60323	0.03170
748.31746	0.03178
747.03169	0.03188
745.74592	0.03202
744.46015	0.03216
743.17438	0.03227
741.88861	0.03229
740.60284	0.03222
739.31708	0.03207
738.03131	0.03190
736.74554	0.03174
735.45977	0.03161
734.17400	0.03155
732.88823	0.03156
731.60246	0.03166
730.31669	0.03183
729.03092	0.03202
727.74516	0.03219
726.45939	0.03227
725.17362	0.03225
723.88785	0.03219
722.60208	0.03210
721.31631	0.03209
720.03054	0.03217
718.74477	0.03227
717.45901	0.03230
716.17324	0.03224
714.88747	0.03217
713.60170	0.03211
712.31593	0.03207
711.03016	0.03205
709.74439	0.03203
708.45862	0.03202
707.17285	0.03206
705.88709	0.03214
704.60132	0.03222
703.31555	0.03230
702.02978	0.03234
700.74401	0.03234
699.45824	0.03230
698.17247	0.03224
696.88670	0.03218
695.60094	0.03214
694.31517	0.03214
693.02940	0.03214
691.74363	0.03215
690.45786	0.03214
689.17209	0.03211
687.88632	0.03204
686.60055	0.03193
685.31478	0.03180
684.02902	0.03167
682.74325	0.03159
681.45748	0.03155
680.17171	0.03154
678.88594	0.03152
677.60017	0.03151
676.31440	0.03149
675.02863	0.03148
673.74287	0.03145
672.45710	0.03137
671.17133	0.03123
669.88556	0.03108
668.59979	0.03099
667.31402	0.03100
666.02825	0.03103
664.74248	0.03106
663.45671	0.03105
662.17095	0.03098
660.88518	0.03086
659.59941	0.03072
658.31364	0.03058
657.02787	0.03048
655.74210	0.03040
654.45633	0.03032
653.17056	0.03022
651.88480	0.03009
650.59903	0.02994
649.31326	0.02981
648.02749	0.02973
646.74172	0.02968
645.45595	0.02964
644.17018	0.02961
642.88441	0.02959
641.59864	0.02960
640.31288	0.02961
639.02711	0.02963
637.74134	0.02965
636.45557	0.02966
635.16980	0.02969
633.88403	0.02975
632.59826	0.02987
631.31249	0.03001
630.02673	0.03016
628.74096	0.03040
627.45519	0.03082
626.16942	0.03088
624.88365	0.03054
623.59788	0.03018
622.31211	0.03062
621.02634	0.03235
619.74057	0.03480
618.45481	0.03718
617.16904	0.03958
615.88327	0.04243
614.59750	0.04542
613.31173	0.04780
612.02596	0.04939
610.74019	0.05103
609.45442	0.05359
608.16866	0.05690
606.88289	0.06008
605.59712	0.06267
604.31135	0.06496
603.02558	0.06730
601.73981	0.06947
600.45404	0.07083
599.16827	0.07096
597.88250	0.06990
596.59674	0.06807
595.31097	0.06600
594.02520	0.06407
592.73943	0.06248
591.45366	0.06133
590.16789	0.06064
588.88212	0.06040
587.59635	0.06054
586.31059	0.06093
585.02482	0.06151
583.73905	0.06239
582.45328	0.06364
581.16751	0.06523
579.88174	0.06698
578.59597	0.06870
577.31020	0.07032
576.02443	0.07187
574.73867	0.07341
573.45290	0.07492
572.16713	0.07643
570.88136	0.07805
569.59559	0.07992
568.30982	0.08212
567.02405	0.08460
565.73828	0.08717
564.45251	0.08958
563.16675	0.09158
561.88098	0.09291
560.59521	0.09330
559.30944	0.09259
558.02367	0.09093
556.73790	0.08867
555.45213	0.08611
554.16636	0.08336
552.88060	0.08043
551.59483	0.07743
550.30906	0.07452
549.02329	0.07181
547.73752	0.06935
546.45175	0.06709
545.16598	0.06498
543.88021	0.06299
542.59444	0.06113
541.30868	0.05939
540.02291	0.05781
538.73714	0.05638
537.45137	0.05508
536.16560	0.05386
534.87983	0.05273
533.59406	0.05169
532.30829	0.05073
531.02253	0.04982
529.73676	0.04894
528.45099	0.04811
527.16522	0.04732
525.87945	0.04655
524.59368	0.04577
523.30791	0.04495
522.02214	0.04408
520.73637	0.04322
519.45061	0.04246
518.16484	0.04183
516.87907	0.04126
515.59330	0.04065
514.30753	0.04002
513.02176	0.03943
511.73599	0.03895
510.45022	0.03852
509.16446	0.03803
507.87869	0.03749
506.59292	0.03698
505.30715	0.03655
504.02138	0.03614
502.73561	0.03570
501.44984	0.03521
500.16407	0.03472
498.87830	0.03427
497.59254	0.03385
496.30677	0.03343
495.02100	0.03304
493.73523	0.03270
492.44946	0.03245
491.16369	0.03221
489.87792	0.03190
488.59215	0.03151
487.30639	0.03115
486.02062	0.03089
484.73485	0.03073
483.44908	0.03065
482.16331	0.03062
480.87754	0.03067
479.59177	0.03080
478.30600	0.03096
477.02023	0.03111
475.73447	0.03120
474.44870	0.03122
473.16293	0.03120
471.87716	0.03120
470.59139	0.03124
469.30562	0.03127
468.01985	0.03124
466.73408	0.03111
465.44832	0.03088
464.16255	0.03056
462.87678	0.03022
461.59101	0.02988
460.30524	0.02959
459.01947	0.02934
457.73370	0.02914
456.44793	0.02897
455.16216	0.02875
453.87640	0.02846
452.59063	0.02809
451.30486	0.02773
450.01909	0.02742
448.73332	0.02718
447.44755	0.02697
446.16178	0.02673
444.87601	0.02646
443.59025	0.02619
442.30448	0.02596
441.01871	0.02575
439.73294	0.02553
438.44717	0.02531
437.16140	0.02511
435.87563	0.02496
434.58986	0.02490
433.30409	0.02488
432.01833	0.02489
430.73256	0.02491
429.44679	0.02489
428.16102	0.02480
426.87525	0.02464
425.58948	0.02446
424.30371	0.02431
423.01794	0.02420
421.73218	0.02402
420.44641	0.02374
419.16064	0.02348
417.87487	0.02339
416.58910	0.02339
415.30333	0.02334
414.01756	0.02318
412.73179	0.02298
411.44602	0.02281
410.16026	0.02268
408.87449	0.02261
407.58872	0.02261
406.30295	0.02266
405.01718	0.02272
403.73141	0.02276
402.44564	0.02272
401.15987	0.02260
399.87411	0.02242
