3997.45528	0.06119
3996.16951	0.06053
3994.88374	0.06001
3993.59798	0.05963
3992.31221	0.05936
3991.02644	0.05929
3989.74067	0.05948
3988.45490	0.05977
3987.16913	0.05982
3985.88336	0.05948
3984.59759	0.05894
3983.31183	0.05851
3982.02606	0.05837
3980.74029	0.05852
3979.45452	0.05881
3978.16875	0.05904
3976.88298	0.05910
3975.59721	0.05905
3974.31144	0.05908
3973.02567	0.05924
3971.73991	0.05937
3970.45414	0.05934
3969.16837	0.05922
3967.88260	0.05926
3966.59683	0.05959
3965.31106	0.06011
3964.02529	0.06062
3962.73952	0.06083
3961.45376	0.06055
3960.16799	0.05979
3958.88222	0.05887
3957.59645	0.05816
3956.31068	0.05785
3955.02491	0.05795
3953.73914	0.05833
3952.45337	0.05874
3951.16760	0.05892
3949.88184	0.05883
3948.59607	0.05879
3947.31030	0.05913
3946.02453	0.05971
3944.73876	0.06002
3943.45299	0.05979
3942.16722	0.05939
3940.88145	0.05933
3939.59569	0.05959
3938.30992	0.05971
3937.02415	0.05940
3935.73838	0.05892
3934.45261	0.05880
3933.16684	0.05924
3931.88107	0.05988
3930.59530	0.06017
3929.30953	0.05987
3928.02377	0.05922
3926.73800	0.05866
3925.45223	0.05838
3924.16646	0.05826
3922.88069	0.05809
3921.59492	0.05780
3920.30915	0.05751
3919.02338	0.05742
3917.73762	0.05760
3916.45185	0.05782
3915.16608	0.05779
3913.88031	0.05745
3912.59454	0.05712
3911.30877	0.05717
3910.02300	0.05762
3908.73723	0.05803
3907.45146	0.05786
3906.16570	0.05711
3904.87993	0.05646
3903.59416	0.05661
3902.30839	0.05751
3901.02262	0.05843
3899.73685	0.05874
3898.45108	0.05842
3897.16531	0.05792
3895.87955	0.05762
3894.59378	0.05766
3893.30801	0.05786
3892.02224	0.05803
3890.73647	0.05803
3889.45070	0.05779
3888.16493	0.05726
3886.87916	0.05656
3885.59339	0.05593
3884.30763	0.05561
3883.02186	0.05569
3881.73609	0.05603
3880.45032	0.05640
3879.16455	0.05653
3877.87878	0.05631
3876.59301	0.05596
3875.30724	0.05582
3874.02148	0.05599
3872.73571	0.05627
3871.44994	0.05637
3870.16417	0.05624
3868.87840	0.05601
3867.59263	0.05577
3866.30686	0.05560
3865.02109	0.05559
3863.73532	0.05580
3862.44956	0.05616
3861.16379	0.05656
3859.87802	0.05693
3858.59225	0.05711
3857.30648	0.05686
3856.02071	0.05611
3854.73494	0.05516
3853.44917	0.05448
3852.16341	0.05428
3850.87764	0.05439
3849.59187	0.05452
3848.30610	0.05448
3847.02033	0.05422
3845.73456	0.05392
3844.44879	0.05381
3843.16302	0.05397
3841.87725	0.05426
3840.59149	0.05446
3839.30572	0.05455
3838.01995	0.05465
3836.73418	0.05482
3835.44841	0.05488
3834.16264	0.05462
3832.87687	0.05405
3831.59110	0.05341
3830.30534	0.05298
3829.01957	0.05289
3827.73380	0.05312
3826.44803	0.05355
3825.16226	0.05394
3823.87649	0.05412
3822.59072	0.05411
3821.30495	0.05404
3820.01918	0.05399
3818.73342	0.05399
3817.44765	0.05411
3816.16188	0.05439
3814.87611	0.05472
3813.59034	0.05491
3812.30457	0.05490
3811.01880	0.05469
3809.73303	0.05429
3808.44726	0.05374
3807.16150	0.05320
3805.87573	0.05289
3804.58996	0.05288
3803.30419	0.05300
3802.01842	0.05303
3800.73265	0.05291
3799.44688	0.05275
3798.16111	0.05271
3796.87535	0.05288
3795.58958	0.05323
3794.30381	0.05359
3793.01804	0.05374
3791.73227	0.05359
3790.44650	0.05330
3789.16073	0.05305
3787.87496	0.05295
3786.58919	0.05301
3785.30343	0.05321
3784.01766	0.05348
3782.73189	0.05373
3781.44612	0.05382
3780.16035	0.05359
3778.87458	0.05298
3777.58881	0.05215
3776.30304	0.05155
3775.01728	0.05156
3773.73151	0.05227
3772.44574	0.05339
3771.15997	0.05445
3769.87420	0.05496
3768.58843	0.05465
3767.30266	0.05370
3766.01689	0.05272
3764.73112	0.05227
3763.44536	0.05236
3762.15959	0.05241
3760.87382	0.05195
3759.58805	0.05116
3758.30228	0.05071
3757.01651	0.05096
3755.73074	0.05159
3754.44497	0.05201
3753.15921	0.05188
3751.87344	0.05128
3750.58767	0.05048
3749.30190	0.04977
3748.01613	0.04938
3746.73036	0.04947
3745.44459	0.05006
3744.15882	0.05099
3742.87305	0.05190
3741.58729	0.05247
3740.30152	0.05261
3739.01575	0.05240
3737.72998	0.05187
3736.44421	0.05104
3735.15844	0.05003
3733.87267	0.04912
3732.58690	0.04858
3731.30114	0.04842
3730.01537	0.04836
3728.72960	0.04818
3727.44383	0.04802
3726.15806	0.04825
3724.87229	0.04897
3723.58652	0.04974
3722.30075	0.05004
3721.01498	0.04986
3719.72922	0.04968
3718.44345	0.04986
3717.15768	0.05030
3715.87191	0.05065
3714.58614	0.05069
3713.30037	0.05047
3712.01460	0.05017
3710.72883	0.04996
3709.44307	0.04994
3708.15730	0.05015
3706.87153	0.05047
3705.58576	0.05074
3704.29999	0.05085
3703.01422	0.05073
3701.72845	0.05035
3700.44268	0.04980
3699.15691	0.04921
3697.87115	0.04880
3696.58538	0.04867
3695.29961	0.04878
3694.01384	0.04887
3692.72807	0.04855
3691.44230	0.04773
3690.15653	0.04682
3688.87076	0.04637
3687.58500	0.04654
3686.29923	0.04696
3685.01346	0.04730
3683.72769	0.04757
3682.44192	0.04792
3681.15615	0.04836
3679.87038	0.04869
3678.58461	0.04872
3677.29884	0.04850
3676.01308	0.04831
3674.72731	0.04840
3673.44154	0.04877
3672.15577	0.04921
3670.87000	0.04953
3669.58423	0.04960
3668.29846	0.04942
3667.01269	0.04914
3665.72693	0.04909
3664.44116	0.04952
3663.15539	0.05039
3661.86962	0.05136
3660.58385	0.05213
3659.29808	0.05261
3658.01231	0.05279
3656.72654	0.05257
3655.44077	0.05184
3654.15501	0.05077
3652.86924	0.04983
3651.58347	0.04950
3650.29770	0.04987
3649.01193	0.05058
3647.72616	0.05120
3646.44039	0.05157
3645.15462	0.05191
3643.86886	0.05244
3642.58309	0.05303
3641.29732	0.05336
3640.01155	0.05333
3638.72578	0.05322
3637.44001	0.05335
3636.15424	0.05376
3634.86847	0.05416
3633.58270	0.05427
3632.29694	0.05399
3631.01117	0.05350
3629.72540	0.05321
3628.43963	0.05341
3627.15386	0.05401
3625.86809	0.05467
3624.58232	0.05527
3623.29655	0.05590
3622.01079	0.05659
3620.72502	0.05706
3619.43925	0.05709
3618.15348	0.05678
3616.86771	0.05656
3615.58194	0.05675
3614.29617	0.05725
3613.01040	0.05761
3611.72463	0.05747
3610.43887	0.05703
3609.15310	0.05694
3607.86733	0.05768
3606.58156	0.05893
3605.29579	0.05981
3604.01002	0.05976
3602.72425	0.05914
3601.43848	0.05878
3600.15272	0.05908
3598.86695	0.05974
3597.58118	0.06025
3596.29541	0.06048
3595.00964	0.06060
3593.72387	0.06071
3592.43810	0.06073
3591.15233	0.06059
3589.86656	0.06043
3588.58080	0.06045
3587.29503	0.06083
3586.00926	0.06162
3584.72349	0.06275
3583.43772	0.06404
3582.15195	0.06519
3580.86618	0.06593
3579.58041	0.06609
3578.29464	0.06578
3577.00888	0.06531
3575.72311	0.06497
3574.43734	0.06489
3573.15157	0.06502
3571.86580	0.06539
3570.58003	0.06612
3569.29426	0.06723
3568.00849	0.06846
3566.72273	0.06937
3565.43696	0.06973
3564.15119	0.06961
3562.86542	0.06920
3561.57965	0.06866
3560.29388	0.06813
3559.00811	0.06778
3557.72234	0.06771
3556.43657	0.06779
3555.15081	0.06778
3553.86504	0.06761
3552.57927	0.06746
3551.29350	0.06760
3550.00773	0.06818
3548.72196	0.06908
3547.43619	0.07000
3546.15042	0.07068
3544.86466	0.07103
3543.57889	0.07115
3542.29312	0.07120
3541.00735	0.07125
3539.72158	0.07127
3538.43581	0.07119
3537.15004	0.07103
3535.86427	0.07090
3534.57850	0.07091
3533.29274	0.07115
3532.00697	0.07169
3530.72120	0.07259
3529.43543	0.07384
3528.14966	0.07516
3526.86389	0.07614
3525.57812	0.07658
3524.29235	0.07666
3523.00659	0.07682
3521.72082	0.07722
3520.43505	0.07764
3519.14928	0.07776
3517.86351	0.07750
3516.57774	0.07709
3515.29197	0.07686
3514.00620	0.07697
3512.72043	0.07734
3511.43467	0.07772
3510.14890	0.07794
3508.86313	0.07807
3507.57736	0.07825
3506.29159	0.07849
3505.00582	0.07859
3503.72005	0.07844
3502.43428	0.07813
3501.14852	0.07800
3499.86275	0.07826
3498.57698	0.07886
3497.29121	0.07955
3496.00544	0.08012
3494.71967	0.08053
3493.43390	0.08076
3492.14813	0.08064
3490.86236	0.08003
3489.57660	0.07915
3488.29083	0.07858
3487.00506	0.07873
3485.71929	0.07950
3484.43352	0.08043
3483.14775	0.08120
3481.86198	0.08181
3480.57621	0.08231
3479.29045	0.08267
3478.00468	0.08280
3476.71891	0.08275
3475.43314	0.08270
3474.14737	0.08284
3472.86160	0.08321
3471.57583	0.08372
3470.29006	0.08416
3469.00429	0.08442
3467.71853	0.08446
3466.43276	0.08434
3465.14699	0.08415
3463.86122	0.08398
3462.57545	0.08384
3461.28968	0.08369
3460.00391	0.08366
3458.71814	0.08400
3457.43238	0.08486
3456.14661	0.08594
3454.86084	0.08672
3453.57507	0.08693
3452.28930	0.08668
3451.00353	0.08626
3449.71776	0.08583
3448.43199	0.08552
3447.14622	0.08551
3445.86046	0.08585
3444.57469	0.08639
3443.28892	0.08684
3442.00315	0.08703
3440.71738	0.08698
3439.43161	0.08688
3438.14584	0.08699
3436.86007	0.08741
3435.57431	0.08801
3434.28854	0.08854
3433.00277	0.08886
3431.71700	0.08901
3430.43123	0.08906
3429.14546	0.08906
3427.85969	0.08908
3426.57392	0.08918
3425.28815	0.08937
3424.00239	0.08963
3422.71662	0.08998
3421.43085	0.09048
3420.14508	0.09103
3418.85931	0.09140
3417.57354	0.09143
3416.28777	0.09119
3415.00200	0.09084
3413.71624	0.09054
3412.43047	0.09047
3411.14470	0.09076
3409.85893	0.09132
3408.57316	0.09183
3407.28739	0.09196
3406.00162	0.09174
3404.71585	0.09151
3403.43008	0.09153
3402.14432	0.09180
3400.85855	0.09217
3399.57278	0.09250
3398.28701	0.09270
3397.00124	0.09273
3395.71547	0.09266
3394.42970	0.09258
3393.14393	0.09247
3391.85817	0.09226
3390.57240	0.09196
3389.28663	0.09179
3388.00086	0.09201
3386.71509	0.09265
3385.42932	0.09345
3384.14355	0.09407
3382.85778	0.09435
3381.57201	0.09433
3380.28625	0.09414
3379.00048	0.09383
3377.71471	0.09346
3376.42894	0.09311
3375.14317	0.09280
3373.85740	0.09249
3372.57163	0.09222
3371.28586	0.09210
3370.00010	0.09227
3368.71433	0.09276
3367.42856	0.09347
3366.14279	0.09421
3364.85702	0.09479
3363.57125	0.09511
3362.28548	0.09516
3360.99971	0.09506
3359.71394	0.09496
3358.42818	0.09500
3357.14241	0.09523
3355.85664	0.09556
3354.57087	0.09584
3353.28510	0.09590
3351.99933	0.09573
3350.71356	0.09541
3349.42779	0.09510
3348.14202	0.09486
3346.85626	0.09470
3345.57049	0.09460
3344.28472	0.09457
3342.99895	0.09465
3341.71318	0.09484
3340.42741	0.09502
3339.14164	0.09500
3337.85587	0.09475
3336.57011	0.09450
3335.28434	0.09454
3333.99857	0.09489
3332.71280	0.09529
3331.42703	0.09549
3330.14126	0.09548
3328.85549	0.09546
3327.56972	0.09557
3326.28395	0.09570
3324.99819	0.09567
3323.71242	0.09543
3322.42665	0.09511
3321.14088	0.09491
3319.85511	0.09486
3318.56934	0.09495
3317.28357	0.09522
3315.99780	0.09575
3314.71204	0.09641
3313.42627	0.09687
3312.14050	0.09686
3310.85473	0.09647
3309.56896	0.09600
3308.28319	0.09568
3306.99742	0.09551
3305.71165	0.09546
3304.42588	0.09553
3303.14012	0.09572
3301.85435	0.09594
3300.56858	0.09617
3299.28281	0.09635
3297.99704	0.09639
3296.71127	0.09617
3295.42550	0.09576
3294.13973	0.09543
3292.85397	0.09532
3291.56820	0.09538
3290.28243	0.09551
3288.99666	0.09562
3287.71089	0.09565
3286.42512	0.09555
3285.13935	0.09529
3283.85358	0.09500
3282.56781	0.09487
3281.28205	0.09500
3279.99628	0.09530
3278.71051	0.09554
3277.42474	0.09548
3276.13897	0.09515
3274.85320	0.09483
3273.56743	0.09483
3272.28166	0.09515
3270.99590	0.09546
3269.71013	0.09540
3268.42436	0.09491
3267.13859	0.09424
3265.85282	0.09374
3264.56705	0.09359
3263.28128	0.09373
3261.99551	0.09398
3260.70974	0.09420
3259.42398	0.09438
3258.13821	0.09462
3256.85244	0.09497
3255.56667	0.09529
3254.28090	0.09537
3252.99513	0.09509
3251.70936	0.09451
3250.42359	0.09384
3249.13783	0.09330
3247.85206	0.09302
3246.56629	0.09298
3245.28052	0.09302
3243.99475	0.09301
3242.70898	0.09290
3241.42321	0.09271
3240.13744	0.09245
3238.85167	0.09205
3237.56591	0.09152
3236.28014	0.09105
3234.99437	0.09089
3233.70860	0.09116
3232.42283	0.09167
3231.13706	0.09209
3229.85129	0.09217
3228.56552	0.09193
3227.27976	0.09155
3225.99399	0.09120
3224.70822	0.09093
3223.42245	0.09067
3222.13668	0.09034
3220.85091	0.08997
3219.56514	0.08971
3218.27937	0.08966
3216.99360	0.08972
3215.70784	0.08967
3214.42207	0.08942
3213.13630	0.08905
3211.85053	0.08876
3210.56476	0.08868
3209.27899	0.08879
3207.99322	0.08894
3206.70745	0.08888
3205.42169	0.08853
3204.13592	0.08804
3202.85015	0.08768
3201.56438	0.08765
3200.27861	0.08793
3198.99284	0.08832
3197.70707	0.08861
3196.42130	0.08867
3195.13553	0.08849
3193.84977	0.08815
3192.56400	0.08767
3191.27823	0.08708
3189.99246	0.08649
3188.70669	0.08615
3187.42092	0.08620
3186.13515	0.08652
3184.84938	0.08680
3183.56362	0.08686
3182.27785	0.08678
3180.99208	0.08675
3179.70631	0.08682
3178.42054	0.08693
3177.13477	0.08695
3175.84900	0.08682
3174.56323	0.08650
3173.27746	0.08600
3171.99170	0.08544
3170.70593	0.08494
3169.42016	0.08454
3168.13439	0.08416
3166.84862	0.08380
3165.56285	0.08352
3164.27708	0.08335
3162.99131	0.08312
3161.70555	0.08272
3160.41978	0.08231
3159.13401	0.08214
3157.84824	0.08228
3156.56247	0.08253
3155.27670	0.08273
3153.99093	0.08285
3152.70516	0.08288
3151.41939	0.08275
3150.13363	0.08239
3148.84786	0.08190
3147.56209	0.08150
3146.27632	0.08137
3144.99055	0.08154
3143.70478	0.08189
3142.41901	0.08217
3141.13324	0.08216
3139.84748	0.08180
3138.56171	0.08121
3137.27594	0.08057
3135.99017	0.08002
3134.70440	0.07963
3133.41863	0.07948
3132.13286	0.07960
3130.84709	0.07988
3129.56132	0.08009
3128.27556	0.08006
3126.98979	0.07981
3125.70402	0.07955
3124.41825	0.07947
3123.13248	0.07959
3121.84671	0.07980
3120.56094	0.07990
3119.27517	0.07976
3117.98940	0.07937
3116.70364	0.07882
3115.41787	0.07832
3114.13210	0.07801
3112.84633	0.07795
3111.56056	0.07804
3110.27479	0.07815
3108.98902	0.07820
3107.70325	0.07820
3106.41749	0.07814
3105.13172	0.07801
3103.84595	0.07784
3102.56018	0.07767
3101.27441	0.07758
3099.98864	0.07752
3098.70287	0.07740
3097.41710	0.07719
3096.13133	0.07702
3094.84557	0.07708
3093.55980	0.07734
3092.27403	0.07752
3090.98826	0.07731
3089.70249	0.07672
3088.41672	0.07614
3087.13095	0.07600
3085.84518	0.07639
3084.55942	0.07699
3083.27365	0.07733
3081.98788	0.07721
3080.70211	0.07675
3079.41634	0.07626
3078.13057	0.07587
3076.84480	0.07557
3075.55903	0.07535
3074.27326	0.07529
3072.98750	0.07543
3071.70173	0.07573
3070.41596	0.07605
3069.13019	0.07626
3067.84442	0.07630
3066.55865	0.07617
3065.27288	0.07589
3063.98711	0.07552
3062.70135	0.07509
3061.41558	0.07467
3060.12981	0.07438
3058.84404	0.07430
3057.55827	0.07440
3056.27250	0.07451
3054.98673	0.07449
3053.70096	0.07436
3052.41519	0.07419
3051.12943	0.07399
3049.84366	0.07370
3048.55789	0.07336
3047.27212	0.07309
3045.98635	0.07297
3044.70058	0.07295
3043.41481	0.07292
3042.12904	0.07281
3040.84328	0.07265
3039.55751	0.07238
3038.27174	0.07201
3036.98597	0.07164
3035.70020	0.07138
3034.41443	0.07119
3033.12866	0.07083
3031.84289	0.07024
3030.55712	0.06960
3029.27136	0.06919
3027.98559	0.06911
3026.69982	0.06922
3025.41405	0.06934
3024.12828	0.06937
3022.84251	0.06930
3021.55674	0.06922
3020.27097	0.06920
3018.98521	0.06926
3017.69944	0.06932
3016.41367	0.06935
3015.12790	0.06931
3013.84213	0.06926
3012.55636	0.06921
3011.27059	0.06912
3009.98482	0.06891
3008.69905	0.06859
3007.41329	0.06825
3006.12752	0.06804
3004.84175	0.06801
3003.55598	0.06810
3002.27021	0.06821
3000.98444	0.06824
2999.69867	0.06823
2998.41290	0.06824
2997.12714	0.06834
2995.84137	0.06853
2994.55560	0.06873
2993.26983	0.06881
2991.98406	0.06866
2990.69829	0.06836
2989.41252	0.06811
2988.12675	0.06805
2986.84098	0.06813
2985.55522	0.06825
2984.26945	0.06837
2982.98368	0.06852
2981.69791	0.06868
2980.41214	0.06882
2979.12637	0.06894
2977.84060	0.06909
2976.55483	0.06933
2975.26907	0.06965
2973.98330	0.06995
2972.69753	0.07020
2971.41176	0.07052
2970.12599	0.07102
2968.84022	0.07167
2967.55445	0.07237
2966.26868	0.07306
2964.98291	0.07374
2963.69715	0.07434
2962.41138	0.07472
2961.12561	0.07486
2959.83984	0.07495
2958.55407	0.07519
2957.26830	0.07567
2955.98253	0.07625
2954.69676	0.07671
2953.41100	0.07695
2952.12523	0.07700
2950.83946	0.07697
2949.55369	0.07694
2948.26792	0.07687
2946.98215	0.07666
2945.69638	0.07627
2944.41061	0.07586
2943.12484	0.07558
2941.83908	0.07550
2940.55331	0.07557
2939.26754	0.07576
2937.98177	0.07611
2936.69600	0.07660
2935.41023	0.07716
2934.12446	0.07768
2932.83869	0.07801
2931.55293	0.07803
2930.26716	0.07781
2928.98139	0.07761
2927.69562	0.07764
2926.40985	0.07791
2925.12408	0.07821
2923.83831	0.07831
2922.55254	0.07813
2921.26677	0.07768
2919.98101	0.07709
2918.69524	0.07649
2917.40947	0.07600
2916.12370	0.07569
2914.83793	0.07555
2913.55216	0.07549
2912.26639	0.07539
2910.98062	0.07521
2909.69486	0.07503
2908.40909	0.07488
2907.12332	0.07466
2905.83755	0.07426
2904.55178	0.07372
2903.26601	0.07316
2901.98024	0.07264
2900.69447	0.07215
2899.40870	0.07172
2898.12294	0.07145
2896.83717	0.07132
2895.55140	0.07119
2894.26563	0.07097
2892.97986	0.07059
2891.69409	0.07010
2890.40832	0.06957
2889.12255	0.06909
2887.83678	0.06876
2886.55102	0.06862
2885.26525	0.06865
2883.97948	0.06874
2882.69371	0.06882
2881.40794	0.06887
2880.12217	0.06893
2878.83640	0.06905
2877.55063	0.06921
2876.26487	0.06937
2874.97910	0.06948
2873.69333	0.06957
2872.40756	0.06969
2871.12179	0.06982
2869.83602	0.06982
2868.55025	0.06964
2867.26448	0.06931
2865.97871	0.06895
2864.69295	0.06864
2863.40718	0.06842
2862.12141	0.06823
2860.83564	0.06800
2859.54987	0.06770
2858.26410	0.06735
2856.97833	0.06702
2855.69256	0.06676
2854.40680	0.06653
2853.12103	0.06628
2851.83526	0.06597
2850.54949	0.06562
2849.26372	0.06526
2847.97795	0.06488
2846.69218	0.06450
2845.40641	0.06416
2844.12064	0.06394
2842.83488	0.06384
2841.54911	0.06375
2840.26334	0.06357
2838.97757	0.06324
2837.69180	0.06282
2836.40603	0.06239
2835.12026	0.06196
2833.83449	0.06153
2832.54873	0.06108
2831.26296	0.06058
2829.97719	0.06005
2828.69142	0.05952
2827.40565	0.05912
2826.11988	0.05888
2824.83411	0.05871
2823.54834	0.05851
2822.26257	0.05823
2820.97681	0.05797
2819.69104	0.05778
2818.40527	0.05771
2817.11950	0.05775
2815.83373	0.05784
2814.54796	0.05783
2813.26219	0.05760
2811.97642	0.05718
2810.69066	0.05678
2809.40489	0.05659
2808.11912	0.05661
2806.83335	0.05667
2805.54758	0.05656
2804.26181	0.05629
2802.97604	0.05601
2801.69027	0.05579
2800.40450	0.05567
2799.11874	0.05561
2797.83297	0.05564
2796.54720	0.05573
2795.26143	0.05577
2793.97566	0.05566
2792.68989	0.05541
2791.40412	0.05514
2790.11835	0.05493
2788.83259	0.05478
2787.54682	0.05465
2786.26105	0.05454
2784.97528	0.05443
2783.68951	0.05432
2782.40374	0.05419
2781.11797	0.05407
2779.83220	0.05398
2778.54643	0.05389
2777.26067	0.05380
2775.97490	0.05369
2774.68913	0.05353
2773.40336	0.05327
2772.11759	0.05296
2770.83182	0.05277
2769.54605	0.05287
2768.26028	0.05321
2766.97452	0.05355
2765.68875	0.05365
2764.40298	0.05351
2763.11721	0.05328
2761.83144	0.05308
2760.54567	0.05289
2759.25990	0.05270
2757.97413	0.05256
2756.68836	0.05251
2755.40260	0.05249
2754.11683	0.05242
2752.83106	0.05228
2751.54529	0.05213
2750.25952	0.05205
2748.97375	0.05203
2747.68798	0.05200
2746.40221	0.05186
2745.11645	0.05165
2743.83068	0.05144
2742.54491	0.05131
2741.25914	0.05127
2739.97337	0.05130
2738.68760	0.05137
2737.40183	0.05144
2736.11606	0.05144
2734.83029	0.05135
2733.54453	0.05125
2732.25876	0.05122
2730.97299	0.05125
2729.68722	0.05124
2728.40145	0.05107
2727.11568	0.05069
2725.82991	0.05019
2724.54414	0.04980
2723.25838	0.04969
2721.97261	0.04988
2720.68684	0.05024
2719.40107	0.05054
2718.11530	0.05061
2716.82953	0.05045
2715.54376	0.05016
2714.25799	0.04987
2712.97222	0.04962
2711.68646	0.04946
2710.40069	0.04942
2709.11492	0.04950
2707.82915	0.04959
2706.54338	0.04955
2705.25761	0.04933
2703.97184	0.04902
2702.68607	0.04876
2701.40031	0.04861
2700.11454	0.04858
2698.82877	0.04861
2697.54300	0.04867
2696.25723	0.04879
2694.97146	0.04899
2693.68569	0.04916
2692.39992	0.04920
2691.11415	0.04910
2689.82839	0.04892
2688.54262	0.04875
2687.25685	0.04855
2685.97108	0.04835
2684.68531	0.04819
2683.39954	0.04816
2682.11377	0.04825
2680.82800	0.04838
2679.54224	0.04847
2678.25647	0.04843
2676.97070	0.04827
2675.68493	0.04806
2674.39916	0.04790
2673.11339	0.04781
2671.82762	0.04771
2670.54185	0.04752
2669.25608	0.04731
2667.97032	0.04722
2666.68455	0.04731
2665.39878	0.04749
2664.11301	0.04761
2662.82724	0.04758
2661.54147	0.04737
2660.25570	0.04705
2658.96993	0.04672
2657.68417	0.04645
2656.39840	0.04630
2655.11263	0.04623
2653.82686	0.04616
2652.54109	0.04606
2651.25532	0.04599
2649.96955	0.04605
2648.68378	0.04622
2647.39801	0.04635
2646.11225	0.04632
2644.82648	0.04613
2643.54071	0.04584
2642.25494	0.04558
2640.96917	0.04537
2639.68340	0.04522
2638.39763	0.04509
2637.11186	0.04499
2635.82609	0.04488
2634.54033	0.04469
2633.25456	0.04441
2631.96879	0.04417
2630.68302	0.04413
2629.39725	0.04424
2628.11148	0.04424
2626.82571	0.04399
2625.53994	0.04362
2624.25418	0.04339
2622.96841	0.04345
2621.68264	0.04364
2620.39687	0.04370
2619.11110	0.04352
2617.82533	0.04316
2616.53956	0.04278
2615.25379	0.04244
2613.96802	0.04205
2612.68226	0.04159
2611.39649	0.04121
2610.11072	0.04112
2608.82495	0.04135
2607.53918	0.04167
2606.25341	0.04180
2604.96764	0.04161
2603.68187	0.04120
2602.39611	0.04076
2601.11034	0.04050
2599.82457	0.04048
2598.53880	0.04061
2597.25303	0.04066
2595.96726	0.04047
2594.68149	0.04011
2593.39572	0.03982
2592.10995	0.03975
2590.82419	0.03984
2589.53842	0.03991
2588.25265	0.03991
2586.96688	0.03994
2585.68111	0.04010
2584.39534	0.04030
2583.10957	0.04035
2581.82380	0.04011
2580.53804	0.03962
2579.25227	0.03910
2577.96650	0.03874
2576.68073	0.03851
2575.39496	0.03828
2574.10919	0.03803
2572.82342	0.03787
2571.53765	0.03794
2570.25188	0.03826
2568.96612	0.03867
2567.68035	0.03902
2566.39458	0.03921
2565.10881	0.03924
2563.82304	0.03915
2562.53727	0.03894
2561.25150	0.03858
2559.96573	0.03809
2558.67997	0.03755
2557.39420	0.03717
2556.10843	0.03704
2554.82266	0.03708
2553.53689	0.03717
2552.25112	0.03727
2550.96535	0.03743
2549.67958	0.03755
2548.39381	0.03744
2547.10805	0.03711
2545.82228	0.03680
2544.53651	0.03666
2543.25074	0.03671
2541.96497	0.03689
2540.67920	0.03716
2539.39343	0.03739
2538.10766	0.03739
2536.82190	0.03708
2535.53613	0.03657
2534.25036	0.03611
2532.96459	0.03587
2531.67882	0.03581
2530.39305	0.03577
2529.10728	0.03565
2527.82151	0.03554
2526.53574	0.03554
2525.24998	0.03566
2523.96421	0.03583
2522.67844	0.03600
2521.39267	0.03611
2520.10690	0.03614
2518.82113	0.03607
2517.53536	0.03593
2516.24959	0.03567
2514.96383	0.03517
2513.67806	0.03443
2512.39229	0.03376
2511.10652	0.03354
2509.82075	0.03390
2508.53498	0.03456
2507.24921	0.03511
2505.96344	0.03543
2504.67767	0.03561
2503.39191	0.03575
2502.10614	0.03583
2500.82037	0.03581
2499.53460	0.03573
2498.24883	0.03559
2496.96306	0.03538
2495.67729	0.03507
2494.39152	0.03476
2493.10576	0.03461
2491.81999	0.03463
2490.53422	0.03469
2489.24845	0.03467
2487.96268	0.03463
2486.67691	0.03473
2485.39114	0.03498
2484.10537	0.03521
2482.81960	0.03518
2481.53384	0.03490
2480.24807	0.03466
2478.96230	0.03477
2477.67653	0.03522
2476.39076	0.03565
2475.10499	0.03569
2473.81922	0.03531
2472.53345	0.03479
2471.24769	0.03438
2469.96192	0.03415
2468.67615	0.03402
2467.39038	0.03394
2466.10461	0.03394
2464.81884	0.03408
2463.53307	0.03430
2462.24730	0.03454
2460.96153	0.03464
2459.67577	0.03454
2458.39000	0.03431
2457.10423	0.03420
2455.81846	0.03434
2454.53269	0.03456
2453.24692	0.03465
2451.96115	0.03458
2450.67538	0.03448
2449.38962	0.03441
2448.10385	0.03433
2446.81808	0.03426
2445.53231	0.03421
2444.24654	0.03410
2442.96077	0.03377
2441.67500	0.03323
2440.38923	0.03269
2439.10346	0.03238
2437.81770	0.03236
2436.53193	0.03249
2435.24616	0.03256
2433.96039	0.03249
2432.67462	0.03234
2431.38885	0.03224
2430.10308	0.03224
2428.81731	0.03230
2427.53155	0.03232
2426.24578	0.03225
2424.96001	0.03220
2423.67424	0.03228
2422.38847	0.03251
2421.10270	0.03277
2419.81693	0.03295
2418.53116	0.03299
2417.24539	0.03291
2415.95963	0.03280
2414.67386	0.03278
2413.38809	0.03288
2412.10232	0.03297
2410.81655	0.03288
2409.53078	0.03268
2408.24501	0.03256
2406.95924	0.03266
2405.67347	0.03292
2404.38771	0.03316
2403.10194	0.03323
2401.81617	0.03310
2400.53040	0.03281
2399.24463	0.03254
2397.95886	0.03233
2396.67309	0.03223
2395.38732	0.03221
2394.10156	0.03224
2392.81579	0.03228
2391.53002	0.03236
2390.24425	0.03243
2388.95848	0.03245
2387.67271	0.03240
2386.38694	0.03233
2385.10117	0.03232
2383.81540	0.03243
2382.52964	0.03258
2381.24387	0.03260
2379.95810	0.03234
2378.67233	0.03175
2377.38656	0.03097
2376.10079	0.03022
2374.81502	0.02964
2373.52925	0.02927
2372.24349	0.02905
2370.95772	0.02887
2369.67195	0.02857
2368.38618	0.02800
2367.10041	0.02722
2365.81464	0.02646
2364.52887	0.02598
2363.24310	0.02591
2361.95733	0.02620
2360.67157	0.02670
2359.38580	0.02721
2358.10003	0.02769
2356.81426	0.02817
2355.52849	0.02874
2354.24272	0.02941
2352.95695	0.03007
2351.67118	0.03055
2350.38542	0.03076
2349.09965	0.03067
2347.81388	0.03041
2346.52811	0.03012
2345.24234	0.02988
2343.95657	0.02966
2342.67080	0.02937
2341.38503	0.02905
2340.09926	0.02884
2338.81350	0.02881
2337.52773	0.02885
2336.24196	0.02877
2334.95619	0.02846
2333.67042	0.02801
2332.38465	0.02759
2331.09888	0.02735
2329.81311	0.02737
2328.52735	0.02770
2327.24158	0.02835
2325.95581	0.02922
2324.67004	0.03004
2323.38427	0.03057
2322.09850	0.03075
2320.81273	0.03073
2319.52696	0.03070
2318.24119	0.03074
2316.95543	0.03084
2315.66966	0.03097
2314.38389	0.03111
2313.09812	0.03122
2311.81235	0.03118
2310.52658	0.03100
2309.24081	0.03076
2307.95504	0.03061
2306.66928	0.03056
2305.38351	0.03050
2304.09774	0.03037
2302.81197	0.03027
2301.52620	0.03034
2300.24043	0.03054
2298.95466	0.03071
2297.66889	0.03069
2296.38312	0.03047
2295.09736	0.03025
2293.81159	0.03017
2292.52582	0.03023
2291.24005	0.03025
2289.95428	0.03008
2288.66851	0.02973
2287.38274	0.02937
2286.09697	0.02912
2284.81121	0.02905
2283.52544	0.02913
2282.23967	0.02927
2280.95390	0.02927
2279.66813	0.02895
2278.38236	0.02839
2277.09659	0.02790
2275.81082	0.02771
2274.52505	0.02776
2273.23929	0.02783
2271.95352	0.02785
2270.66775	0.02786
2269.38198	0.02787
2268.09621	0.02774
2266.81044	0.02738
2265.52467	0.02690
2264.23890	0.02656
2262.95314	0.02652
2261.66737	0.02671
2260.38160	0.02691
2259.09583	0.02693
2257.81006	0.02668
2256.52429	0.02619
2255.23852	0.02564
2253.95275	0.02537
2252.66698	0.02563
2251.38122	0.02629
2250.09545	0.02700
2248.80968	0.02739
2247.52391	0.02688
2246.23814	0.02616
2244.95237	0.02552
2243.66660	0.02496
2242.38083	0.02429
2241.09507	0.02343
2239.80930	0.02266
2238.52353	0.02241
2237.23776	0.02276
2235.95199	0.02320
2234.66622	0.02314
2233.38045	0.02248
2232.09468	0.02165
2230.80891	0.02107
2229.52315	0.02088
2228.23738	0.02101
2226.95161	0.02132
2225.66584	0.02170
2224.38007	0.02203
2223.09430	0.02229
2221.80853	0.02248
2220.52276	0.02253
2219.23700	0.02239
2217.95123	0.02216
2216.66546	0.02195
2215.37969	0.02165
2214.09392	0.02097
2212.80815	0.01985
2211.52238	0.01868
2210.23661	0.01806
2208.95084	0.01837
2207.66508	0.01947
2206.37931	0.02064
2205.09354	0.02108
2203.80777	0.02052
2202.52200	0.01956
2201.23623	0.01912
2199.95046	0.01953
2198.66469	0.02020
2197.37893	0.02032
2196.09316	0.01979
2194.80739	0.01927
2193.52162	0.01927
2192.23585	0.01963
2190.95008	0.01986
2189.66431	0.01985
2188.37854	0.01974
2187.09277	0.01957
2185.80701	0.01939
2184.52124	0.01935
2183.23547	0.01947
2181.94970	0.01933
2180.66393	0.01847
2179.37816	0.01704
2178.09239	0.01573
2176.80662	0.01515
2175.52085	0.01536
2174.23509	0.01598
2172.94932	0.01662
2171.66355	0.01697
2170.37778	0.01677
2169.09201	0.01594
2167.80624	0.01499
2166.52047	0.01476
2165.23470	0.01550
2163.94894	0.01619
2162.66317	0.01539
2161.37740	0.01280
2160.09163	0.00975
2158.80586	0.00811
2157.52009	0.00861
2156.23432	0.01031
2154.94855	0.01177
2153.66278	0.01227
2152.37702	0.01200
2151.09125	0.01151
2149.80548	0.01134
2148.51971	0.01187
2147.23394	0.01313
2145.94817	0.01469
2144.66240	0.01591
2143.37663	0.01643
2142.09087	0.01631
2140.80510	0.01582
2139.51933	0.01526
2138.23356	0.01486
2136.94779	0.01472
2135.66202	0.01491
2134.37625	0.01547
2133.09048	0.01638
2131.80471	0.01735
2130.51895	0.01800
2129.23318	0.01812
2127.94741	0.01785
2126.66164	0.01757
2125.37587	0.01759
2124.09010	0.01795
2122.80433	0.01846
2121.51856	0.01890
2120.23280	0.01930
2118.94703	0.01982
2117.66126	0.02047
2116.37549	0.02099
2115.08972	0.02105
2113.80395	0.02060
2112.51818	0.02001
2111.23241	0.01957
2109.94664	0.01926
2108.66088	0.01896
2107.37511	0.01876
2106.08934	0.01881
2104.80357	0.01896
2103.51780	0.01893
2102.23203	0.01860
2100.94626	0.01818
2099.66049	0.01802
2098.37473	0.01779
2097.08896	0.01750
2095.80319	0.01732
2094.51742	0.01739
2093.23165	0.01767
2091.94588	0.01790
2090.66011	0.01777
2089.37434	0.01720
2088.08857	0.01643
2086.80281	0.01582
2085.51704	0.01558
2084.23127	0.01565
2082.94550	0.01585
2081.65973	0.01611
2080.37396	0.01640
2079.08819	0.01657
2077.80242	0.01645
2076.51666	0.01622
2075.23089	0.01632
2073.94512	0.01693
2072.65935	0.01767
2071.37358	0.01795
2070.08781	0.01749
2068.80204	0.01647
2067.51627	0.01526
2066.23050	0.01418
2064.94474	0.01344
2063.65897	0.01304
2062.37320	0.01289
2061.08743	0.01290
2059.80166	0.01299
2058.51589	0.01292
2057.23012	0.01254
2055.94435	0.01212
2054.65859	0.01211
2053.37282	0.01263
2052.08705	0.01319
2050.80128	0.01323
2049.51551	0.01276
2048.22974	0.01226
2046.94397	0.01209
2045.65820	0.01208
2044.37243	0.01186
2043.08667	0.01137
2041.80090	0.01084
2040.51513	0.01042
2039.22936	0.00987
2037.94359	0.00888
2036.65782	0.00759
2035.37205	0.00666
2034.08628	0.00665
2032.80052	0.00747
2031.51475	0.00847
2030.22898	0.00914
2028.94321	0.00944
2027.65744	0.00962
2026.37167	0.00983
2025.08590	0.00998
2023.80013	0.00989
2022.51436	0.00955
2021.22860	0.00913
2019.94283	0.00891
2018.65706	0.00892
2017.37129	0.00893
2016.08552	0.00872
2014.79975	0.00837
2013.51398	0.00822
2012.22821	0.00845
2010.94245	0.00886
2009.65668	0.00920
2008.37091	0.00954
2007.08514	0.01009
2005.79937	0.01092
2004.51360	0.01181
2003.22783	0.01250
2001.94206	0.01297
2000.65629	0.01338
1999.37053	0.01383
1998.08476	0.01425
1996.79899	0.01448
1995.51322	0.01436
1994.22745	0.01391
1992.94168	0.01336
1991.65591	0.01303
1990.37014	0.01297
1989.08438	0.01299
1987.79861	0.01292
1986.51284	0.01288
1985.22707	0.01309
1983.94130	0.01368
1982.65553	0.01457
1981.36976	0.01537
1980.08399	0.01560
1978.79822	0.01501
1977.51246	0.01385
1976.22669	0.01258
1974.94092	0.01144
1973.65515	0.01059
1972.36938	0.01035
1971.08361	0.01089
1969.79784	0.01187
1968.51207	0.01256
1967.22631	0.01253
1965.94054	0.01190
1964.65477	0.01108
1963.36900	0.01041
1962.08323	0.01005
1960.79746	0.01012
1959.51169	0.01069
1958.22592	0.01167
1956.94015	0.01284
1955.65439	0.01394
1954.36862	0.01480
1953.08285	0.01533
1951.79708	0.01551
1950.51131	0.01545
1949.22554	0.01542
1947.93977	0.01561
1946.65400	0.01604
1945.36823	0.01652
1944.08247	0.01679
1942.79670	0.01672
1941.51093	0.01639
1940.22516	0.01598
1938.93939	0.01559
1937.65362	0.01520
1936.36785	0.01486
1935.08208	0.01478
1933.79632	0.01514
1932.51055	0.01582
1931.22478	0.01655
1929.93901	0.01709
1928.65324	0.01736
1927.36747	0.01742
1926.08170	0.01734
1924.79593	0.01722
1923.51016	0.01711
1922.22440	0.01705
1920.93863	0.01704
1919.65286	0.01710
1918.36709	0.01720
1917.08132	0.01724
1915.79555	0.01716
1914.50978	0.01706
1913.22401	0.01710
1911.93825	0.01737
1910.65248	0.01770
1909.36671	0.01792
1908.08094	0.01798
1906.79517	0.01808
1905.50940	0.01832
1904.22363	0.01864
1902.93786	0.01890
1901.65209	0.01903
1900.36633	0.01908
1899.08056	0.01912
1897.79479	0.01908
1896.50902	0.01885
1895.22325	0.01844
1893.93748	0.01801
1892.65171	0.01780
1891.36594	0.01789
1890.08018	0.01815
1888.79441	0.01836
1887.50864	0.01840
1886.22287	0.01830
1884.93710	0.01816
1883.65133	0.01802
1882.36556	0.01790
1881.07979	0.01781
1879.79402	0.01781
1878.50826	0.01794
1877.22249	0.01814
1875.93672	0.01835
1874.65095	0.01852
1873.36518	0.01862
1872.07941	0.01864
1870.79364	0.01853
1869.50787	0.01828
1868.22211	0.01798
1866.93634	0.01777
1865.65057	0.01772
1864.36480	0.01781
1863.07903	0.01790
1861.79326	0.01794
1860.50749	0.01793
1859.22172	0.01794
1857.93595	0.01799
1856.65019	0.01806
1855.36442	0.01810
1854.07865	0.01809
1852.79288	0.01802
1851.50711	0.01792
1850.22134	0.01782
1848.93557	0.01776
1847.64980	0.01772
1846.36404	0.01766
1845.07827	0.01764
1843.79250	0.01774
1842.50673	0.01796
1841.22096	0.01816
1839.93519	0.01824
1838.64942	0.01821
1837.36365	0.01817
1836.07788	0.01819
1834.79212	0.01825
1833.50635	0.01829
1832.22058	0.01827
1830.93481	0.01822
1829.64904	0.01818
1828.36327	0.01819
1827.07750	0.01824
1825.79173	0.01833
1824.50597	0.01847
1823.22020	0.01866
1821.93443	0.01880
1820.64866	0.01881
1819.36289	0.01866
1818.07712	0.01850
1816.79135	0.01844
1815.50558	0.01850
1814.21981	0.01859
1812.93405	0.01861
1811.64828	0.01855
1810.36251	0.01849
1809.07674	0.01847
1807.79097	0.01848
1806.50520	0.01850
1805.21943	0.01845
1803.93366	0.01835
1802.64790	0.01823
1801.36213	0.01820
1800.07636	0.01831
1798.79059	0.01848
1797.50482	0.01861
1796.21905	0.01860
1794.93328	0.01851
1793.64751	0.01847
1792.36174	0.01854
1791.07598	0.01871
1789.79021	0.01892
1788.50444	0.01911
1787.21867	0.01927
1785.93290	0.01935
1784.64713	0.01931
1783.36136	0.01916
1782.07559	0.01896
1780.78983	0.01884
1779.50406	0.01886
1778.21829	0.01896
1776.93252	0.01903
1775.64675	0.01901
1774.36098	0.01893
1773.07521	0.01891
1771.78944	0.01903
1770.50367	0.01926
1769.21791	0.01951
1767.93214	0.01968
1766.64637	0.01972
1765.36060	0.01967
1764.07483	0.01960
1762.78906	0.01961
1761.50329	0.01969
1760.21752	0.01977
1758.93176	0.01979
1757.64599	0.01978
1756.36022	0.01981
1755.07445	0.01990
1753.78868	0.01997
1752.50291	0.01991
1751.21714	0.01974
1749.93137	0.01958
1748.64560	0.01956
1747.35984	0.01969
1746.07407	0.01989
1744.78830	0.02003
1743.50253	0.02008
1742.21676	0.02010
1740.93099	0.02015
1739.64522	0.02027
1738.35945	0.02036
1737.07369	0.02034
1735.78792	0.02023
1734.50215	0.02014
1733.21638	0.02020
1731.93061	0.02040
1730.64484	0.02066
1729.35907	0.02091
1728.07330	0.02114
1726.78753	0.02134
1725.50177	0.02151
1724.21600	0.02165
1722.93023	0.02175
1721.64446	0.02182
1720.35869	0.02188
1719.07292	0.02198
1717.78715	0.02221
1716.50138	0.02262
1715.21561	0.02316
1713.92985	0.02373
1712.64408	0.02426
1711.35831	0.02474
1710.07254	0.02519
1708.78677	0.02565
1707.50100	0.02615
1706.21523	0.02670
1704.92946	0.02729
1703.64370	0.02787
1702.35793	0.02849
1701.07216	0.02920
1699.78639	0.03003
1698.50062	0.03093
1697.21485	0.03186
1695.92908	0.03285
1694.64331	0.03396
1693.35754	0.03513
1692.07178	0.03622
1690.78601	0.03720
1689.50024	0.03809
1688.21447	0.03890
1686.92870	0.03963
1685.64293	0.04033
1684.35716	0.04115
1683.07139	0.04216
1681.78563	0.04333
1680.49986	0.04454
1679.21409	0.04569
1677.92832	0.04675
1676.64255	0.04776
1675.35678	0.04872
1674.07101	0.04963
1672.78524	0.05047
1671.49947	0.05124
1670.21371	0.05205
1668.92794	0.05296
1667.64217	0.05396
1666.35640	0.05492
1665.07063	0.05576
1663.78486	0.05653
1662.49909	0.05735
1661.21332	0.05822
1659.92756	0.05907
1658.64179	0.05979
1657.35602	0.06028
1656.07025	0.06054
1654.78448	0.06068
1653.49871	0.06092
1652.21294	0.06142
1650.92717	0.06208
1649.64140	0.06270
1648.35564	0.06314
1647.06987	0.06343
1645.78410	0.06366
1644.49833	0.06385
1643.21256	0.06399
1641.92679	0.06407
1640.64102	0.06403
1639.35525	0.06381
1638.06949	0.06340
1636.78372	0.06293
1635.49795	0.06255
1634.21218	0.06230
1632.92641	0.06208
1631.64064	0.06176
1630.35487	0.06131
1629.06910	0.06076
1627.78333	0.06015
1626.49757	0.05948
1625.21180	0.05878
1623.92603	0.05812
1622.64026	0.05755
1621.35449	0.05699
1620.06872	0.05638
1618.78295	0.05571
1617.49718	0.05508
1616.21142	0.05459
1614.92565	0.05425
1613.63988	0.05396
1612.35411	0.05364
1611.06834	0.05325
1609.78257	0.05288
1608.49680	0.05258
1607.21103	0.05238
1605.92526	0.05223
1604.63950	0.05210
1603.35373	0.05200
1602.06796	0.05194
1600.78219	0.05193
1599.49642	0.05192
1598.21065	0.05192
1596.92488	0.05192
1595.63911	0.05195
1594.35335	0.05204
1593.06758	0.05218
1591.78181	0.05233
1590.49604	0.05248
1589.21027	0.05263
1587.92450	0.05278
1586.63873	0.05294
1585.35296	0.05310
1584.06719	0.05327
1582.78143	0.05347
1581.49566	0.05368
1580.20989	0.05386
1578.92412	0.05399
1577.63835	0.05414
1576.35258	0.05443
1575.06681	0.05491
1573.78104	0.05550
1572.49528	0.05606
1571.20951	0.05656
1569.92374	0.05704
1568.63797	0.05753
1567.35220	0.05802
1566.06643	0.05843
1564.78066	0.05872
1563.49489	0.05885
1562.20912	0.05881
1560.92336	0.05871
1559.63759	0.05871
1558.35182	0.05898
1557.06605	0.05949
1555.78028	0.06011
1554.49451	0.06069
1553.20874	0.06116
1551.92297	0.06150
1550.63721	0.06173
1549.35144	0.06186
1548.06567	0.06190
1546.77990	0.06182
1545.49413	0.06160
1544.20836	0.06123
1542.92259	0.06076
1541.63682	0.06035
1540.35105	0.06017
1539.06529	0.06029
1537.77952	0.06059
1536.49375	0.06089
1535.20798	0.06110
1533.92221	0.06130
1532.63644	0.06156
1531.35067	0.06187
1530.06490	0.06219
1528.77914	0.06248
1527.49337	0.06278
1526.20760	0.06309
1524.92183	0.06342
1523.63606	0.06379
1522.35029	0.06426
1521.06452	0.06488
1519.77875	0.06563
1518.49298	0.06647
1517.20722	0.06739
1515.92145	0.06838
1514.63568	0.06943
1513.34991	0.07048
1512.06414	0.07148
1510.77837	0.07237
1509.49260	0.07318
1508.20683	0.07403
1506.92107	0.07507
1505.63530	0.07637
1504.34953	0.07779
1503.06376	0.07907
1501.77799	0.08007
1500.49222	0.08082
1499.20645	0.08148
1497.92068	0.08220
1496.63491	0.08300
1495.34915	0.08383
1494.06338	0.08457
1492.77761	0.08520
1491.49184	0.08577
1490.20607	0.08640
1488.92030	0.08721
1487.63453	0.08823
1486.34876	0.08941
1485.06299	0.09066
1483.77723	0.09195
1482.49146	0.09325
1481.20569	0.09458
1479.91992	0.09587
1478.63415	0.09707
1477.34838	0.09813
1476.06261	0.09908
1474.77684	0.09998
1473.49108	0.10089
1472.20531	0.10181
1470.91954	0.10267
1469.63377	0.10337
1468.34800	0.10387
1467.06223	0.10421
1465.77646	0.10451
1464.49069	0.10485
1463.20492	0.10524
1461.91916	0.10563
1460.63339	0.10598
1459.34762	0.10630
1458.06185	0.10668
1456.77608	0.10724
1455.49031	0.10799
1454.20454	0.10881
1452.91877	0.10953
1451.63301	0.11010
1450.34724	0.11055
1449.06147	0.11091
1447.77570	0.11115
1446.48993	0.11122
1445.20416	0.11112
1443.91839	0.11090
1442.63262	0.11062
1441.34685	0.11030
1440.06109	0.10994
1438.77532	0.10957
1437.48955	0.10930
1436.20378	0.10927
1434.91801	0.10952
1433.63224	0.10999
1432.34647	0.11062
1431.06070	0.11143
1429.77494	0.11243
1428.48917	0.11366
1427.20340	0.11506
1425.91763	0.11658
1424.63186	0.11814
1423.34609	0.11964
1422.06032	0.12104
1420.77455	0.12238
1419.48878	0.12370
1418.20302	0.12503
1416.91725	0.12628
1415.63148	0.12735
1414.34571	0.12820
1413.05994	0.12886
1411.77417	0.12936
1410.48840	0.12966
1409.20263	0.12969
1407.91687	0.12939
1406.63110	0.12876
1405.34533	0.12786
1404.05956	0.12679
1402.77379	0.12553
1401.48802	0.12407
1400.20225	0.12243
1398.91648	0.12067
1397.63071	0.11884
1396.34495	0.11696
1395.05918	0.11501
1393.77341	0.11298
1392.48764	0.11089
1391.20187	0.10876
1389.91610	0.10660
1388.63033	0.10445
1387.34456	0.10232
1386.05880	0.10020
1384.77303	0.09808
1383.48726	0.09594
1382.20149	0.09379
1380.91572	0.09160
1379.62995	0.08934
1378.34418	0.08699
1377.05841	0.08457
1375.77264	0.08215
1374.48688	0.07975
1373.20111	0.07740
1371.91534	0.07509
1370.62957	0.07285
1369.34380	0.07070
1368.05803	0.06867
1366.77226	0.06674
1365.48649	0.06489
1364.20073	0.06308
1362.91496	0.06134
1361.62919	0.05969
1360.34342	0.05817
1359.05765	0.05677
1357.77188	0.05550
1356.48611	0.05436
1355.20034	0.05333
1353.91457	0.05233
1352.62881	0.05134
1351.34304	0.05038
1350.05727	0.04953
1348.77150	0.04880
1347.48573	0.04815
1346.19996	0.04749
1344.91419	0.04681
1343.62842	0.04612
1342.34266	0.04546
1341.05689	0.04486
1339.77112	0.04432
1338.48535	0.04384
1337.19958	0.04339
1335.91381	0.04293
1334.62804	0.04246
1333.34227	0.04197
1332.05650	0.04148
1330.77074	0.04098
1329.48497	0.04049
1328.19920	0.04004
1326.91343	0.03965
1325.62766	0.03931
1324.34189	0.03902
1323.05612	0.03875
1321.77035	0.03847
1320.48459	0.03816
1319.19882	0.03780
1317.91305	0.03741
1316.62728	0.03701
1315.34151	0.03662
1314.05574	0.03625
1312.76997	0.03590
1311.48420	0.03556
1310.19843	0.03521
1308.91267	0.03486
1307.62690	0.03452
1306.34113	0.03421
1305.05536	0.03391
1303.76959	0.03360
1302.48382	0.03330
1301.19805	0.03305
1299.91228	0.03284
1298.62652	0.03264
1297.34075	0.03244
1296.05498	0.03224
1294.76921	0.03206
1293.48344	0.03191
1292.19767	0.03179
1290.91190	0.03168
1289.62613	0.03158
1288.34036	0.03145
1287.05460	0.03131
1285.76883	0.03113
1284.48306	0.03094
1283.19729	0.03074
1281.91152	0.03059
1280.62575	0.03049
1279.33998	0.03041
1278.05421	0.03031
1276.76845	0.03018
1275.48268	0.03004
1274.19691	0.02991
1272.91114	0.02977
1271.62537	0.02961
1270.33960	0.02945
1269.05383	0.02932
1267.76806	0.02925
1266.48229	0.02921
1265.19653	0.02917
1263.91076	0.02909
1262.62499	0.02899
1261.33922	0.02888
1260.05345	0.02876
1258.76768	0.02865
1257.48191	0.02857
1256.19614	0.02853
1254.91037	0.02853
1253.62461	0.02857
1252.33884	0.02858
1251.05307	0.02853
1249.76730	0.02841
1248.48153	0.02826
1247.19576	0.02813
1245.90999	0.02805
1244.62422	0.02802
1243.33846	0.02802
1242.05269	0.02800
1240.76692	0.02792
1239.48115	0.02776
1238.19538	0.02754
1236.90961	0.02732
1235.62384	0.02717
1234.33807	0.02706
1233.05230	0.02695
1231.76654	0.02677
1230.48077	0.02651
1229.19500	0.02622
1227.90923	0.02595
1226.62346	0.02573
1225.33769	0.02552
1224.05192	0.02529
1222.76615	0.02500
1221.48039	0.02467
1220.19462	0.02434
1218.90885	0.02404
1217.62308	0.02379
1216.33731	0.02358
1215.05154	0.02343
1213.76577	0.02332
1212.48000	0.02323
1211.19423	0.02314
1209.90847	0.02306
1208.62270	0.02303
1207.33693	0.02305
1206.05116	0.02309
1204.76539	0.02313
1203.47962	0.02313
1202.19385	0.02312
1200.90808	0.02307
1199.62232	0.02296
1198.33655	0.02283
1197.05078	0.02266
1195.76501	0.02247
1194.47924	0.02229
1193.19347	0.02212
1191.90770	0.02199
1190.62193	0.02186
1189.33616	0.02174
1188.05040	0.02164
1186.76463	0.02159
1185.47886	0.02158
1184.19309	0.02157
1182.90732	0.02155
1181.62155	0.02154
1180.33578	0.02152
1179.05001	0.02149
1177.76425	0.02145
1176.47848	0.02144
1175.19271	0.02148
1173.90694	0.02159
1172.62117	0.02173
1171.33540	0.02184
1170.04963	0.02192
1168.76386	0.02197
1167.47809	0.02206
1166.19233	0.02219
1164.90656	0.02237
1163.62079	0.02257
1162.33502	0.02280
1161.04925	0.02305
1159.76348	0.02331
1158.47771	0.02354
1157.19194	0.02374
1155.90618	0.02390
1154.62041	0.02405
1153.33464	0.02425
1152.04887	0.02455
1150.76310	0.02494
1149.47733	0.02534
1148.19156	0.02568
1146.90579	0.02602
1145.62002	0.02648
1144.33426	0.02711
1143.04849	0.02787
1141.76272	0.02867
1140.47695	0.02954
1139.19118	0.03049
1137.90541	0.03157
1136.61964	0.03278
1135.33387	0.03408
1134.04811	0.03548
1132.76234	0.03698
1131.47657	0.03865
1130.19080	0.04053
1128.90503	0.04265
1127.61926	0.04501
1126.33349	0.04759
1125.04772	0.05036
1123.76195	0.05327
1122.47619	0.05627
1121.19042	0.05932
1119.90465	0.06242
1118.61888	0.06560
1117.33311	0.06893
1116.04734	0.07239
1114.76157	0.07593
1113.47580	0.07951
1112.19004	0.08313
1110.90427	0.08680
1109.61850	0.09043
1108.33273	0.09395
1107.04696	0.09732
1105.76119	0.10061
1104.47542	0.10383
1103.18965	0.10701
1101.90388	0.11012
1100.61812	0.11318
1099.33235	0.11616
1098.04658	0.11903
1096.76081	0.12176
1095.47504	0.12434
1094.18927	0.12679
1092.90350	0.12917
1091.61773	0.13150
1090.33197	0.13381
1089.04620	0.13610
1087.76043	0.13836
1086.47466	0.14058
1085.18889	0.14273
1083.90312	0.14478
1082.61735	0.14678
1081.33158	0.14884
1080.04581	0.15106
1078.76005	0.15353
1077.47428	0.15622
1076.18851	0.15907
1074.90274	0.16202
1073.61697	0.16507
1072.33120	0.16822
1071.04543	0.17149
1069.75966	0.17487
1068.47390	0.17838
1067.18813	0.18199
1065.90236	0.18567
1064.61659	0.18935
1063.33082	0.19301
1062.04505	0.19663
1060.75928	0.20020
1059.47351	0.20369
1058.18774	0.20711
1056.90198	0.21053
1055.61621	0.21395
1054.33044	0.21736
1053.04467	0.22070
1051.75890	0.22398
1050.47313	0.22732
1049.18736	0.23081
1047.90159	0.23444
1046.61583	0.23816
1045.33006	0.24192
1044.04429	0.24568
1042.75852	0.24943
1041.47275	0.25317
1040.18698	0.25695
1038.90121	0.26081
1037.61544	0.26472
1036.32967	0.26860
1035.04391	0.27238
1033.75814	0.27603
1032.47237	0.27957
1031.18660	0.28293
1029.90083	0.28599
1028.61506	0.28869
1027.32929	0.29105
1026.04352	0.29314
1024.75775	0.29496
1023.47199	0.29641
1022.18622	0.29739
1020.90045	0.29793
1019.61468	0.29808
1018.32891	0.29786
1017.04314	0.29722
1015.75737	0.29613
1014.47160	0.29457
1013.18584	0.29251
1011.90007	0.28993
1010.61430	0.28684
1009.32853	0.28330
1008.04276	0.27934
1006.75699	0.27494
1005.47122	0.27005
1004.18545	0.26465
1002.89968	0.25883
1001.61392	0.25265
1000.32815	0.24619
999.04238	0.23947
997.75661	0.23255
996.47084	0.22546
995.18507	0.21831
993.89930	0.21117
992.61353	0.20412
991.32777	0.19719
990.04200	0.19035
988.75623	0.18363
987.47046	0.17708
986.18469	0.17074
984.89892	0.16463
983.61315	0.15878
982.32738	0.15324
981.04161	0.14806
979.75585	0.14321
978.47008	0.13868
977.18431	0.13445
975.89854	0.13057
974.61277	0.12707
973.32700	0.12404
972.04123	0.12156
970.75546	0.11969
969.46970	0.11844
968.18393	0.11782
966.89816	0.11780
965.61239	0.11835
964.32662	0.11930
963.04085	0.12032
961.75508	0.12104
960.46931	0.12120
959.18354	0.12068
957.89778	0.11946
956.61201	0.11762
955.32624	0.11530
954.04047	0.11264
952.75470	0.10983
951.46893	0.10706
950.18316	0.10443
948.89739	0.10194
947.61163	0.09948
946.32586	0.09700
945.04009	0.09452
943.75432	0.09208
942.46855	0.08971
941.18278	0.08741
939.89701	0.08519
938.61124	0.08314
937.32547	0.08130
936.03971	0.07960
934.75394	0.07796
933.46817	0.07631
932.18240	0.07472
930.89663	0.07329
929.61086	0.07207
928.32509	0.07100
927.03932	0.06999
925.75356	0.06896
924.46779	0.06787
923.18202	0.06675
921.89625	0.06567
920.61048	0.06470
919.32471	0.06386
918.03894	0.06313
916.75317	0.06245
915.46740	0.06177
914.18164	0.06107
912.89587	0.06034
911.61010	0.05960
910.32433	0.05892
909.03856	0.05835
907.75279	0.05790
906.46702	0.05747
905.18125	0.05700
903.89549	0.05647
902.60972	0.05593
901.32395	0.05543
900.03818	0.05493
898.75241	0.05437
897.46664	0.05374
896.18087	0.05308
894.89510	0.05244
893.60933	0.05190
892.32357	0.05156
891.03780	0.05153
889.75203	0.05179
888.46626	0.05221
887.18049	0.05278
885.89472	0.05375
884.60895	0.05546
883.32318	0.05808
882.03742	0.06135
880.75165	0.06468
879.46588	0.06747
878.18011	0.06959
876.89434	0.07140
875.60857	0.07339
874.32280	0.07563
873.03703	0.07770
871.75126	0.07899
870.46550	0.07914
869.17973	0.07819
867.89396	0.07640
866.60819	0.07403
865.32242	0.07129
864.03665	0.06841
862.75088	0.06559
861.46511	0.06297
860.17935	0.06063
858.89358	0.05858
857.60781	0.05687
856.32204	0.05551
855.03627	0.05447
853.75050	0.05365
852.46473	0.05288
851.17896	0.05206
849.89319	0.05122
848.60743	0.05048
847.32166	0.04991
846.03589	0.04949
844.75012	0.04913
843.46435	0.04874
842.17858	0.04832
840.89281	0.04791
839.60704	0.04755
838.32128	0.04720
837.03551	0.04682
835.74974	0.04641
834.46397	0.04603
833.17820	0.04573
831.89243	0.04549
830.60666	0.04526
829.32089	0.04503
828.03512	0.04484
826.74936	0.04470
825.46359	0.04456
824.17782	0.04437
822.89205	0.04412
821.60628	0.04388
820.32051	0.04373
819.03474	0.04370
817.74897	0.04372
816.46321	0.04371
815.17744	0.04358
813.89167	0.04336
812.60590	0.04315
811.32013	0.04302
810.03436	0.04298
808.74859	0.04298
807.46282	0.04296
806.17705	0.04293
804.89129	0.04288
803.60552	0.04281
802.31975	0.04273
801.03398	0.04261
799.74821	0.04248
798.46244	0.04237
797.17667	0.04235
795.89090	0.04237
794.60513	0.04236
793.31937	0.04226
792.03360	0.04215
790.74783	0.04210
789.46206	0.04213
788.17629	0.04220
786.89052	0.04222
785.60475	0.04220
784.31898	0.04213
783.03322	0.04203
781.74745	0.04186
780.46168	0.04161
779.17591	0.04135
777.89014	0.04119
776.60437	0.04117
775.31860	0.04125
774.03283	0.04133
772.74706	0.04135
771.46130	0.04129
770.17553	0.04119
768.88976	0.04110
767.60399	0.04111
766.31822	0.04125
765.03245	0.04141
763.74668	0.04147
762.46091	0.04140
761.17515	0.04132
759.88938	0.04135
758.60361	0.04148
757.31784	0.04163
756.03207	0.04171
754.74630	0.04170
753.46053	0.04162
752.17476	0.04151
750.88899	0.04141
749.60323	0.04139
748.31746	0.04145
747.03169	0.04150
745.74592	0.04146
744.46015	0.04127
743.17438	0.04098
741.88861	0.04069
740.60284	0.04049
739.31708	0.04036
738.03131	0.04027
736.74554	0.04015
735.45977	0.04001
734.17400	0.03987
732.88823	0.03977
731.60246	0.03976
730.31669	0.03985
729.03092	0.04001
727.74516	0.04020
726.45939	0.04034
725.17362	0.04040
723.88785	0.04033
722.60208	0.04042
721.31631	0.04060
720.03054	0.04077
718.74477	0.04091
717.45901	0.04105
716.17324	0.04113
714.88747	0.04107
713.60170	0.04089
712.31593	0.04066
711.03016	0.04046
709.74439	0.04033
708.45862	0.04026
707.17285	0.04024
705.88709	0.04029
704.60132	0.04040
703.31555	0.04054
702.02978	0.04063
700.74401	0.04063
699.45824	0.04055
698.17247	0.04047
696.88670	0.04046
695.60094	0.04052
694.31517	0.04060
693.02940	0.04062
691.74363	0.04056
690.45786	0.04046
689.17209	0.04038
687.88632	0.04032
686.60055	0.04026
685.31478	0.04019
684.02902	0.04010
682.74325	0.04000
681.45748	0.03986
680.17171	0.03968
678.88594	0.03948
677.60017	0.03932
676.31440	0.03927
675.02863	0.03934
673.74287	0.03944
672.45710	0.03949
671.17133	0.03946
669.88556	0.03937
668.59979	0.03932
667.31402	0.03934
666.02825	0.03936
664.74248	0.03930
663.45671	0.03913
662.17095	0.03891
660.88518	0.03868
659.59941	0.03848
658.31364	0.03830
657.02787	0.03812
655.74210	0.03795
654.45633	0.03782
653.17056	0.03775
651.88480	0.03776
650.59903	0.03779
649.31326	0.03777
648.02749	0.03771
646.74172	0.03765
645.45595	0.03764
644.17018	0.03767
642.88441	0.03772
641.59864	0.03777
640.31288	0.03783
639.02711	0.03790
637.74134	0.03798
636.45557	0.03809
635.16980	0.03823
633.88403	0.03845
632.59826	0.03872
631.31249	0.03907
630.02673	0.03964
628.74096	0.04040
627.45519	0.04088
626.16942	0.04184
624.88365	0.04293
623.59788	0.04387
622.31211	0.04514
621.02634	0.04739
619.74057	0.05043
618.45481	0.05359
617.16904	0.05661
615.88327	0.05953
614.59750	0.06221
613.31173	0.06467
612.02596	0.06777
610.74019	0.07287
609.45442	0.08023
608.16866	0.08823
606.88289	0.09508
605.59712	0.10057
604.31135	0.10527
603.02558	0.10903
601.73981	0.11093
600.45404	0.11044
599.16827	0.10811
597.88250	0.10500
596.59674	0.10195
595.31097	0.09927
594.02520	0.09693
592.73943	0.09494
591.45366	0.09344
590.16789	0.09257
588.88212	0.09233
587.59635	0.09268
586.31059	0.09363
585.02482	0.09521
583.73905	0.09728
582.45328	0.09960
581.16751	0.10201
579.88174	0.10450
578.59597	0.10713
577.31020	0.10991
576.02443	0.11273
574.73867	0.11546
573.45290	0.11809
572.16713	0.12076
570.88136	0.12374
569.59559	0.12724
568.30982	0.13125
567.02405	0.13545
565.73828	0.13940
564.45251	0.14268
563.16675	0.14503
561.88098	0.14624
560.59521	0.14615
559.30944	0.14455
558.02367	0.14132
556.73790	0.13657
555.45213	0.13077
554.16636	0.12456
552.88060	0.11843
551.59483	0.11262
550.30906	0.10720
549.02329	0.10220
547.73752	0.09768
546.45175	0.09363
545.16598	0.08999
543.88021	0.08667
542.59444	0.08360
541.30868	0.08078
540.02291	0.07820
538.73714	0.07588
537.45137	0.07380
536.16560	0.07192
534.87983	0.07013
533.59406	0.06834
532.30829	0.06658
531.02253	0.06493
529.73676	0.06346
528.45099	0.06214
527.16522	0.06084
525.87945	0.05947
524.59368	0.05808
523.30791	0.05678
522.02214	0.05561
520.73637	0.05457
519.45061	0.05363
518.16484	0.05279
516.87907	0.05200
515.59330	0.05122
514.30753	0.05042
513.02176	0.04964
511.73599	0.04885
510.45022	0.04801
509.16446	0.04720
507.87869	0.04648
506.59292	0.04585
505.30715	0.04522
504.02138	0.04456
502.73561	0.04395
501.44984	0.04348
500.16407	0.04309
498.87830	0.04266
497.59254	0.04215
496.30677	0.04160
495.02100	0.04111
493.73523	0.04071
492.44946	0.04041
491.16369	0.04015
489.87792	0.03991
488.59215	0.03965
487.30639	0.03941
486.02062	0.03920
484.73485	0.03908
483.44908	0.03906
482.16331	0.03914
480.87754	0.03925
479.59177	0.03938
478.30600	0.03952
477.02023	0.03970
475.73447	0.03992
474.44870	0.04013
473.16293	0.04025
471.87716	0.04025
470.59139	0.04018
469.30562	0.04008
468.01985	0.03995
466.73408	0.03976
465.44832	0.03945
464.16255	0.03899
462.87678	0.03842
461.59101	0.03784
460.30524	0.03730
459.01947	0.03685
457.73370	0.03646
456.44793	0.03611
455.16216	0.03577
453.87640	0.03541
452.59063	0.03500
451.30486	0.03451
450.01909	0.03397
448.73332	0.03347
447.44755	0.03306
446.16178	0.03276
444.87601	0.03252
443.59025	0.03231
442.30448	0.03210
441.01871	0.03190
439.73294	0.03168
438.44717	0.03144
437.16140	0.03122
435.87563	0.03105
434.58986	0.03095
433.30409	0.03088
432.01833	0.03080
430.73256	0.03067
429.44679	0.03051
428.16102	0.03033
426.87525	0.03012
425.58948	0.02988
424.30371	0.02957
423.01794	0.02920
421.73218	0.02884
420.44641	0.02854
419.16064	0.02831
417.87487	0.02814
416.58910	0.02800
415.30333	0.02787
414.01756	0.02773
412.73179	0.02757
411.44602	0.02740
410.16026	0.02724
408.87449	0.02713
407.58872	0.02707
406.30295	0.02706
405.01718	0.02705
403.73141	0.02701
402.44564	0.02692
401.15987	0.02681
399.87411	0.02671
