3997.45528	0.06985
3996.16951	0.06972
3994.88374	0.06996
3993.59798	0.07033
3992.31221	0.07034
3991.02644	0.06981
3989.74067	0.06902
3988.45490	0.06836
3987.16913	0.06801
3985.88336	0.06794
3984.59759	0.06796
3983.31183	0.06793
3982.02606	0.06791
3980.74029	0.06812
3979.45452	0.06861
3978.16875	0.06911
3976.88298	0.06922
3975.59721	0.06881
3974.31144	0.06814
3973.02567	0.06754
3971.73991	0.06711
3970.45414	0.06681
3969.16837	0.06672
3967.88260	0.06702
3966.59683	0.06776
3965.31106	0.06869
3964.02529	0.06942
3962.73952	0.06960
3961.45376	0.06917
3960.16799	0.06837
3958.88222	0.06766
3957.59645	0.06734
3956.31068	0.06738
3955.02491	0.06751
3953.73914	0.06760
3952.45337	0.06766
3951.16760	0.06774
3949.88184	0.06789
3948.59607	0.06815
3947.31030	0.06847
3946.02453	0.06863
3944.73876	0.06837
3943.45299	0.06781
3942.16722	0.06745
3940.88145	0.06767
3939.59569	0.06828
3938.30992	0.06873
3937.02415	0.06864
3935.73838	0.06814
3934.45261	0.06757
3933.16684	0.06718
3931.88107	0.06695
3930.59530	0.06667
3929.30953	0.06629
3928.02377	0.06600
3926.73800	0.06593
3925.45223	0.06592
3924.16646	0.06566
3922.88069	0.06511
3921.59492	0.06463
3920.30915	0.06457
3919.02338	0.06490
3917.73762	0.06535
3916.45185	0.06562
3915.16608	0.06558
3913.88031	0.06527
3912.59454	0.06499
3911.30877	0.06516
3910.02300	0.06592
3908.73723	0.06685
3907.45146	0.06724
3906.16570	0.06674
3904.87993	0.06580
3903.59416	0.06524
3902.30839	0.06549
3901.02262	0.06633
3899.73685	0.06718
3898.45108	0.06753
3897.16531	0.06718
3895.87955	0.06635
3894.59378	0.06551
3893.30801	0.06515
3892.02224	0.06545
3890.73647	0.06615
3889.45070	0.06679
3888.16493	0.06699
3886.87916	0.06664
3885.59339	0.06587
3884.30763	0.06505
3883.02186	0.06463
3881.73609	0.06483
3880.45032	0.06543
3879.16455	0.06595
3877.87878	0.06596
3876.59301	0.06547
3875.30724	0.06482
3874.02148	0.06447
3872.73571	0.06467
3871.44994	0.06533
3870.16417	0.06594
3868.87840	0.06597
3867.59263	0.06524
3866.30686	0.06421
3865.02109	0.06354
3863.73532	0.06355
3862.44956	0.06389
3861.16379	0.06401
3859.87802	0.06368
3858.59225	0.06305
3857.30648	0.06235
3856.02071	0.06177
3854.73494	0.06137
3853.44917	0.06117
3852.16341	0.06110
3850.87764	0.06119
3849.59187	0.06152
3848.30610	0.06203
3847.02033	0.06245
3845.73456	0.06249
3844.44879	0.06215
3843.16302	0.06177
3841.87725	0.06173
3840.59149	0.06210
3839.30572	0.06259
3838.01995	0.06288
3836.73418	0.06292
3835.44841	0.06293
3834.16264	0.06301
3832.87687	0.06302
3831.59110	0.06272
3830.30534	0.06209
3829.01957	0.06143
3827.73380	0.06109
3826.44803	0.06112
3825.16226	0.06121
3823.87649	0.06107
3822.59072	0.06068
3821.30495	0.06029
3820.01918	0.06011
3818.73342	0.06020
3817.44765	0.06055
3816.16188	0.06109
3814.87611	0.06167
3813.59034	0.06209
3812.30457	0.06230
3811.01880	0.06242
3809.73303	0.06253
3808.44726	0.06248
3807.16150	0.06195
3805.87573	0.06093
3804.58996	0.05989
3803.30419	0.05945
3802.01842	0.05980
3800.73265	0.06051
3799.44688	0.06091
3798.16111	0.06077
3796.87535	0.06044
3795.58958	0.06042
3794.30381	0.06083
3793.01804	0.06131
3791.73227	0.06147
3790.44650	0.06131
3789.16073	0.06120
3787.87496	0.06142
3786.58919	0.06184
3785.30343	0.06202
3784.01766	0.06174
3782.73189	0.06122
3781.44612	0.06086
3780.16035	0.06076
3778.87458	0.06062
3777.58881	0.06016
3776.30304	0.05945
3775.01728	0.05889
3773.73151	0.05880
3772.44574	0.05916
3771.15997	0.05967
3769.87420	0.05999
3768.58843	0.05991
3767.30266	0.05946
3766.01689	0.05890
3764.73112	0.05848
3763.44536	0.05837
3762.15959	0.05856
3760.87382	0.05901
3759.58805	0.05960
3758.30228	0.06013
3757.01651	0.06033
3755.73074	0.06012
3754.44497	0.05963
3753.15921	0.05911
3751.87344	0.05864
3750.58767	0.05810
3749.30190	0.05744
3748.01613	0.05692
3746.73036	0.05693
3745.44459	0.05769
3744.15882	0.05890
3742.87305	0.05994
3741.58729	0.06033
3740.30152	0.06001
3739.01575	0.05922
3737.72998	0.05826
3736.44421	0.05735
3735.15844	0.05662
3733.87267	0.05619
3732.58690	0.05611
3731.30114	0.05624
3730.01537	0.05630
3728.72960	0.05606
3727.44383	0.05567
3726.15806	0.05551
3724.87229	0.05579
3723.58652	0.05624
3722.30075	0.05643
3721.01498	0.05617
3719.72922	0.05572
3718.44345	0.05547
3717.15768	0.05567
3715.87191	0.05627
3714.58614	0.05706
3713.30037	0.05785
3712.01460	0.05854
3710.72883	0.05903
3709.44307	0.05923
3708.15730	0.05912
3706.87153	0.05881
3705.58576	0.05847
3704.29999	0.05823
3703.01422	0.05809
3701.72845	0.05789
3700.44268	0.05739
3699.15691	0.05656
3697.87115	0.05564
3696.58538	0.05501
3695.29961	0.05488
3694.01384	0.05514
3692.72807	0.05548
3691.44230	0.05558
3690.15653	0.05530
3688.87076	0.05478
3687.58500	0.05432
3686.29923	0.05416
3685.01346	0.05434
3683.72769	0.05479
3682.44192	0.05533
3681.15615	0.05574
3679.87038	0.05586
3678.58461	0.05573
3677.29884	0.05546
3676.01308	0.05513
3674.72731	0.05477
3673.44154	0.05458
3672.15577	0.05484
3670.87000	0.05555
3669.58423	0.05629
3668.29846	0.05662
3667.01269	0.05656
3665.72693	0.05654
3664.44116	0.05695
3663.15539	0.05778
3661.86962	0.05870
3660.58385	0.05943
3659.29808	0.05987
3658.01231	0.06006
3656.72654	0.05996
3655.44077	0.05946
3654.15501	0.05869
3652.86924	0.05814
3651.58347	0.05831
3650.29770	0.05926
3649.01193	0.06048
3647.72616	0.06131
3646.44039	0.06152
3645.15462	0.06125
3643.86886	0.06084
3642.58309	0.06056
3641.29732	0.06047
3640.01155	0.06052
3638.72578	0.06063
3637.44001	0.06074
3636.15424	0.06076
3634.86847	0.06066
3633.58270	0.06040
3632.29694	0.06009
3631.01117	0.05990
3629.72540	0.05998
3628.43963	0.06036
3627.15386	0.06089
3625.86809	0.06137
3624.58232	0.06178
3623.29655	0.06227
3622.01079	0.06290
3620.72502	0.06349
3619.43925	0.06376
3618.15348	0.06363
3616.86771	0.06338
3615.58194	0.06330
3614.29617	0.06338
3613.01040	0.06334
3611.72463	0.06301
3610.43887	0.06261
3609.15310	0.06260
3607.86733	0.06326
3606.58156	0.06435
3605.29579	0.06523
3604.01002	0.06546
3602.72425	0.06525
3601.43848	0.06518
3600.15272	0.06560
3598.86695	0.06638
3597.58118	0.06714
3596.29541	0.06760
3595.00964	0.06770
3593.72387	0.06752
3592.43810	0.06734
3591.15233	0.06753
3589.86656	0.06823
3588.58080	0.06917
3587.29503	0.06992
3586.00926	0.07035
3584.72349	0.07069
3583.43772	0.07114
3582.15195	0.07162
3580.86618	0.07183
3579.58041	0.07162
3578.29464	0.07119
3577.00888	0.07094
3575.72311	0.07111
3574.43734	0.07152
3573.15157	0.07190
3571.86580	0.07229
3570.58003	0.07302
3569.29426	0.07422
3568.00849	0.07550
3566.72273	0.07633
3565.43696	0.07654
3564.15119	0.07636
3562.86542	0.07601
3561.57965	0.07551
3560.29388	0.07487
3559.00811	0.07423
3557.72234	0.07374
3556.43657	0.07344
3555.15081	0.07331
3553.86504	0.07338
3552.57927	0.07378
3551.29350	0.07457
3550.00773	0.07560
3548.72196	0.07663
3547.43619	0.07746
3546.15042	0.07801
3544.86466	0.07823
3543.57889	0.07806
3542.29312	0.07749
3541.00735	0.07676
3539.72158	0.07626
3538.43581	0.07633
3537.15004	0.07696
3535.86427	0.07784
3534.57850	0.07866
3533.29274	0.07936
3532.00697	0.07997
3530.72120	0.08047
3529.43543	0.08079
3528.14966	0.08085
3526.86389	0.08067
3525.57812	0.08042
3524.29235	0.08036
3523.00659	0.08060
3521.72082	0.08096
3520.43505	0.08114
3519.14928	0.08107
3517.86351	0.08100
3516.57774	0.08116
3515.29197	0.08148
3514.00620	0.08173
3512.72043	0.08187
3511.43467	0.08206
3510.14890	0.08248
3508.86313	0.08310
3507.57736	0.08375
3506.29159	0.08422
3505.00582	0.08436
3503.72005	0.08409
3502.43428	0.08356
3501.14852	0.08313
3499.86275	0.08325
3498.57698	0.08401
3497.29121	0.08499
3496.00544	0.08557
3494.71967	0.08546
3493.43390	0.08489
3492.14813	0.08433
3490.86236	0.08416
3489.57660	0.08443
3488.29083	0.08491
3487.00506	0.08534
3485.71929	0.08560
3484.43352	0.08579
3483.14775	0.08612
3481.86198	0.08668
3480.57621	0.08730
3479.29045	0.08771
3478.00468	0.08780
3476.71891	0.08772
3475.43314	0.08771
3474.14737	0.08793
3472.86160	0.08841
3471.57583	0.08906
3470.29006	0.08972
3469.00429	0.09021
3467.71853	0.09046
3466.43276	0.09054
3465.14699	0.09055
3463.86122	0.09054
3462.57545	0.09050
3461.28968	0.09039
3460.00391	0.09028
3458.71814	0.09034
3457.43238	0.09066
3456.14661	0.09107
3454.86084	0.09129
3453.57507	0.09121
3452.28930	0.09091
3451.00353	0.09057
3449.71776	0.09031
3448.43199	0.09024
3447.14622	0.09046
3445.86046	0.09098
3444.57469	0.09161
3443.28892	0.09215
3442.00315	0.09251
3440.71738	0.09271
3439.43161	0.09274
3438.14584	0.09260
3436.86007	0.09241
3435.57431	0.09236
3434.28854	0.09253
3433.00277	0.09280
3431.71700	0.09302
3430.43123	0.09313
3429.14546	0.09323
3427.85969	0.09341
3426.57392	0.09371
3425.28815	0.09405
3424.00239	0.09439
3422.71662	0.09474
3421.43085	0.09508
3420.14508	0.09529
3418.85931	0.09528
3417.57354	0.09516
3416.28777	0.09519
3415.00200	0.09543
3413.71624	0.09569
3412.43047	0.09582
3411.14470	0.09589
3409.85893	0.09609
3408.57316	0.09644
3407.28739	0.09677
3406.00162	0.09691
3404.71585	0.09681
3403.43008	0.09656
3402.14432	0.09632
3400.85855	0.09623
3399.57278	0.09637
3398.28701	0.09666
3397.00124	0.09685
3395.71547	0.09691
3394.42970	0.09701
3393.14393	0.09728
3391.85817	0.09757
3390.57240	0.09768
3389.28663	0.09762
3388.00086	0.09760
3386.71509	0.09772
3385.42932	0.09790
3384.14355	0.09800
3382.85778	0.09793
3381.57201	0.09766
3380.28625	0.09724
3379.00048	0.09686
3377.71471	0.09677
3376.42894	0.09699
3375.14317	0.09726
3373.85740	0.09737
3372.57163	0.09737
3371.28586	0.09755
3370.00010	0.09801
3368.71433	0.09854
3367.42856	0.09885
3366.14279	0.09886
3364.85702	0.09874
3363.57125	0.09873
3362.28548	0.09895
3360.99971	0.09934
3359.71394	0.09967
3358.42818	0.09966
3357.14241	0.09922
3355.85664	0.09861
3354.57087	0.09826
3353.28510	0.09836
3351.99933	0.09876
3350.71356	0.09917
3349.42779	0.09952
3348.14202	0.09982
3346.85626	0.09995
3345.57049	0.09976
3344.28472	0.09935
3342.99895	0.09899
3341.71318	0.09881
3340.42741	0.09864
3339.14164	0.09833
3337.85587	0.09800
3336.57011	0.09790
3335.28434	0.09812
3333.99857	0.09844
3332.71280	0.09866
3331.42703	0.09881
3330.14126	0.09903
3328.85549	0.09932
3327.56972	0.09950
3326.28395	0.09936
3324.99819	0.09892
3323.71242	0.09848
3322.42665	0.09841
3321.14088	0.09872
3319.85511	0.09905
3318.56934	0.09907
3317.28357	0.09886
3315.99780	0.09881
3314.71204	0.09912
3313.42627	0.09957
3312.14050	0.09988
3310.85473	0.10005
3309.56896	0.10024
3308.28319	0.10049
3306.99742	0.10063
3305.71165	0.10046
3304.42588	0.09999
3303.14012	0.09937
3301.85435	0.09881
3300.56858	0.09848
3299.28281	0.09839
3297.99704	0.09836
3296.71127	0.09825
3295.42550	0.09810
3294.13973	0.09806
3292.85397	0.09814
3291.56820	0.09824
3290.28243	0.09836
3288.99666	0.09856
3287.71089	0.09876
3286.42512	0.09873
3285.13935	0.09836
3283.85358	0.09788
3282.56781	0.09760
3281.28205	0.09764
3279.99628	0.09786
3278.71051	0.09805
3277.42474	0.09815
3276.13897	0.09818
3274.85320	0.09818
3273.56743	0.09815
3272.28166	0.09805
3270.99590	0.09787
3269.71013	0.09758
3268.42436	0.09718
3267.13859	0.09671
3265.85282	0.09625
3264.56705	0.09595
3263.28128	0.09597
3261.99551	0.09631
3260.70974	0.09670
3259.42398	0.09692
3258.13821	0.09700
3256.85244	0.09716
3255.56667	0.09752
3254.28090	0.09800
3252.99513	0.09838
3251.70936	0.09851
3250.42359	0.09831
3249.13783	0.09779
3247.85206	0.09709
3246.56629	0.09642
3245.28052	0.09592
3243.99475	0.09558
3242.70898	0.09532
3241.42321	0.09515
3240.13744	0.09508
3238.85167	0.09513
3237.56591	0.09524
3236.28014	0.09543
3234.99437	0.09570
3233.70860	0.09605
3232.42283	0.09643
3231.13706	0.09678
3229.85129	0.09702
3228.56552	0.09700
3227.27976	0.09665
3225.99399	0.09605
3224.70822	0.09544
3223.42245	0.09501
3222.13668	0.09479
3220.85091	0.09466
3219.56514	0.09447
3218.27937	0.09417
3216.99360	0.09390
3215.70784	0.09380
3214.42207	0.09384
3213.13630	0.09384
3211.85053	0.09377
3210.56476	0.09377
3209.27899	0.09399
3207.99322	0.09434
3206.70745	0.09459
3205.42169	0.09459
3204.13592	0.09432
3202.85015	0.09386
3201.56438	0.09335
3200.27861	0.09300
3198.99284	0.09296
3197.70707	0.09318
3196.42130	0.09345
3195.13553	0.09356
3193.84977	0.09343
3192.56400	0.09312
3191.27823	0.09271
3189.99246	0.09234
3188.70669	0.09213
3187.42092	0.09221
3186.13515	0.09257
3184.84938	0.09306
3183.56362	0.09351
3182.27785	0.09376
3180.99208	0.09378
3179.70631	0.09364
3178.42054	0.09344
3177.13477	0.09318
3175.84900	0.09281
3174.56323	0.09230
3173.27746	0.09175
3171.99170	0.09134
3170.70593	0.09111
3169.42016	0.09095
3168.13439	0.09074
3166.84862	0.09049
3165.56285	0.09026
3164.27708	0.09010
3162.99131	0.09000
3161.70555	0.08997
3160.41978	0.09005
3159.13401	0.09020
3157.84824	0.09033
3156.56247	0.09040
3155.27670	0.09040
3153.99093	0.09038
3152.70516	0.09031
3151.41939	0.09014
3150.13363	0.08983
3148.84786	0.08942
3147.56209	0.08905
3146.27632	0.08885
3144.99055	0.08887
3143.70478	0.08900
3142.41901	0.08913
3141.13324	0.08926
3139.84748	0.08950
3138.56171	0.08986
3137.27594	0.09028
3135.99017	0.09059
3134.70440	0.09058
3133.41863	0.09010
3132.13286	0.08922
3130.84709	0.08825
3129.56132	0.08753
3128.27556	0.08722
3126.98979	0.08724
3125.70402	0.08739
3124.41825	0.08751
3123.13248	0.08757
3121.84671	0.08758
3120.56094	0.08757
3119.27517	0.08750
3117.98940	0.08732
3116.70364	0.08703
3115.41787	0.08669
3114.13210	0.08633
3112.84633	0.08598
3111.56056	0.08566
3110.27479	0.08541
3108.98902	0.08527
3107.70325	0.08527
3106.41749	0.08537
3105.13172	0.08547
3103.84595	0.08541
3102.56018	0.08512
3101.27441	0.08473
3099.98864	0.08447
3098.70287	0.08441
3097.41710	0.08447
3096.13133	0.08450
3094.84557	0.08449
3093.55980	0.08449
3092.27403	0.08449
3090.98826	0.08443
3089.70249	0.08430
3088.41672	0.08414
3087.13095	0.08397
3085.84518	0.08383
3084.55942	0.08373
3083.27365	0.08376
3081.98788	0.08394
3080.70211	0.08416
3079.41634	0.08421
3078.13057	0.08395
3076.84480	0.08349
3075.55903	0.08306
3074.27326	0.08283
3072.98750	0.08283
3071.70173	0.08294
3070.41596	0.08305
3069.13019	0.08310
3067.84442	0.08307
3066.55865	0.08301
3065.27288	0.08297
3063.98711	0.08287
3062.70135	0.08260
3061.41558	0.08219
3060.12981	0.08179
3058.84404	0.08154
3057.55827	0.08143
3056.27250	0.08133
3054.98673	0.08116
3053.70096	0.08093
3052.41519	0.08068
3051.12943	0.08043
3049.84366	0.08020
3048.55789	0.08002
3047.27212	0.07988
3045.98635	0.07979
3044.70058	0.07976
3043.41481	0.07982
3042.12904	0.07995
3040.84328	0.08001
3039.55751	0.07983
3038.27174	0.07933
3036.98597	0.07871
3035.70020	0.07829
3034.41443	0.07815
3033.12866	0.07809
3031.84289	0.07791
3030.55712	0.07765
3029.27136	0.07745
3027.98559	0.07738
3026.69982	0.07734
3025.41405	0.07722
3024.12828	0.07700
3022.84251	0.07684
3021.55674	0.07686
3020.27097	0.07709
3018.98521	0.07739
3017.69944	0.07759
3016.41367	0.07763
3015.12790	0.07751
3013.84213	0.07730
3012.55636	0.07701
3011.27059	0.07671
3009.98482	0.07646
3008.69905	0.07628
3007.41329	0.07608
3006.12752	0.07577
3004.84175	0.07545
3003.55598	0.07533
3002.27021	0.07547
3000.98444	0.07575
2999.69867	0.07597
2998.41290	0.07605
2997.12714	0.07605
2995.84137	0.07604
2994.55560	0.07601
2993.26983	0.07590
2991.98406	0.07572
2990.69829	0.07559
2989.41252	0.07566
2988.12675	0.07600
2986.84098	0.07650
2985.55522	0.07702
2984.26945	0.07744
2982.98368	0.07766
2981.69791	0.07767
2980.41214	0.07763
2979.12637	0.07783
2977.84060	0.07848
2976.55483	0.07956
2975.26907	0.08086
2973.98330	0.08217
2972.69753	0.08339
2971.41176	0.08460
2970.12599	0.08597
2968.84022	0.08764
2967.55445	0.08959
2966.26868	0.09162
2964.98291	0.09348
2963.69715	0.09501
2962.41138	0.09628
2961.12561	0.09748
2959.83984	0.09880
2958.55407	0.10032
2957.26830	0.10201
2955.98253	0.10373
2954.69676	0.10527
2953.41100	0.10640
2952.12523	0.10697
2950.83946	0.10704
2949.55369	0.10684
2948.26792	0.10668
2946.98215	0.10665
2945.69638	0.10658
2944.41061	0.10633
2943.12484	0.10598
2941.83908	0.10577
2940.55331	0.10595
2939.26754	0.10660
2937.98177	0.10773
2936.69600	0.10918
2935.41023	0.11078
2934.12446	0.11240
2932.83869	0.11397
2931.55293	0.11545
2930.26716	0.11678
2928.98139	0.11797
2927.69562	0.11913
2926.40985	0.12030
2925.12408	0.12131
2923.83831	0.12190
2922.55254	0.12197
2921.26677	0.12166
2919.98101	0.12113
2918.69524	0.12038
2917.40947	0.11930
2916.12370	0.11789
2914.83793	0.11635
2913.55216	0.11498
2912.26639	0.11395
2910.98062	0.11315
2909.69486	0.11234
2908.40909	0.11136
2907.12332	0.11018
2905.83755	0.10889
2904.55178	0.10762
2903.26601	0.10648
2901.98024	0.10554
2900.69447	0.10478
2899.40870	0.10410
2898.12294	0.10342
2896.83717	0.10266
2895.55140	0.10175
2894.26563	0.10064
2892.97986	0.09938
2891.69409	0.09812
2890.40832	0.09706
2889.12255	0.09632
2887.83678	0.09579
2886.55102	0.09524
2885.26525	0.09454
2883.97948	0.09378
2882.69371	0.09314
2881.40794	0.09278
2880.12217	0.09268
2878.83640	0.09277
2877.55063	0.09296
2876.26487	0.09327
2874.97910	0.09375
2873.69333	0.09448
2872.40756	0.09542
2871.12179	0.09642
2869.83602	0.09732
2868.55025	0.09797
2867.26448	0.09828
2865.97871	0.09822
2864.69295	0.09799
2863.40718	0.09783
2862.12141	0.09782
2860.83564	0.09783
2859.54987	0.09778
2858.26410	0.09771
2856.97833	0.09770
2855.69256	0.09766
2854.40680	0.09747
2853.12103	0.09706
2851.83526	0.09644
2850.54949	0.09565
2849.26372	0.09471
2847.97795	0.09361
2846.69218	0.09237
2845.40641	0.09114
2844.12064	0.09003
2842.83488	0.08900
2841.54911	0.08786
2840.26334	0.08654
2838.97757	0.08518
2837.69180	0.08395
2836.40603	0.08282
2835.12026	0.08157
2833.83449	0.08013
2832.54873	0.07866
2831.26296	0.07739
2829.97719	0.07635
2828.69142	0.07545
2827.40565	0.07466
2826.11988	0.07404
2824.83411	0.07360
2823.54834	0.07325
2822.26257	0.07288
2820.97681	0.07249
2819.69104	0.07207
2818.40527	0.07162
2817.11950	0.07120
2815.83373	0.07088
2814.54796	0.07067
2813.26219	0.07043
2811.97642	0.07008
2810.69066	0.06964
2809.40489	0.06920
2808.11912	0.06880
2806.83335	0.06843
2805.54758	0.06811
2804.26181	0.06784
2802.97604	0.06760
2801.69027	0.06734
2800.40450	0.06708
2799.11874	0.06685
2797.83297	0.06668
2796.54720	0.06653
2795.26143	0.06635
2793.97566	0.06609
2792.68989	0.06575
2791.40412	0.06540
2790.11835	0.06511
2788.83259	0.06491
2787.54682	0.06479
2786.26105	0.06471
2784.97528	0.06464
2783.68951	0.06457
2782.40374	0.06446
2781.11797	0.06426
2779.83220	0.06399
2778.54643	0.06371
2777.26067	0.06355
2775.97490	0.06355
2774.68913	0.06362
2773.40336	0.06354
2772.11759	0.06326
2770.83182	0.06296
2769.54605	0.06284
2768.26028	0.06291
2766.97452	0.06298
2765.68875	0.06288
2764.40298	0.06269
2763.11721	0.06255
2761.83144	0.06249
2760.54567	0.06242
2759.25990	0.06230
2757.97413	0.06215
2756.68836	0.06199
2755.40260	0.06182
2754.11683	0.06161
2752.83106	0.06135
2751.54529	0.06105
2750.25952	0.06074
2748.97375	0.06051
2747.68798	0.06038
2746.40221	0.06033
2745.11645	0.06026
2743.83068	0.06015
2742.54491	0.06005
2741.25914	0.06003
2739.97337	0.06013
2738.68760	0.06026
2737.40183	0.06028
2736.11606	0.06007
2734.83029	0.05970
2733.54453	0.05938
2732.25876	0.05926
2730.97299	0.05934
2729.68722	0.05948
2728.40145	0.05955
2727.11568	0.05940
2725.82991	0.05903
2724.54414	0.05860
2723.25838	0.05842
2721.97261	0.05867
2720.68684	0.05921
2719.40107	0.05967
2718.11530	0.05976
2716.82953	0.05950
2715.54376	0.05907
2714.25799	0.05862
2712.97222	0.05821
2711.68646	0.05786
2710.40069	0.05763
2709.11492	0.05754
2707.82915	0.05755
2706.54338	0.05754
2705.25761	0.05746
2703.97184	0.05733
2702.68607	0.05723
2701.40031	0.05720
2700.11454	0.05715
2698.82877	0.05699
2697.54300	0.05677
2696.25723	0.05664
2694.97146	0.05669
2693.68569	0.05684
2692.39992	0.05690
2691.11415	0.05676
2689.82839	0.05647
2688.54262	0.05619
2687.25685	0.05602
2685.97108	0.05597
2684.68531	0.05600
2683.39954	0.05604
2682.11377	0.05603
2680.82800	0.05596
2679.54224	0.05585
2678.25647	0.05567
2676.97070	0.05548
2675.68493	0.05537
2674.39916	0.05542
2673.11339	0.05555
2671.82762	0.05560
2670.54185	0.05548
2669.25608	0.05528
2667.97032	0.05515
2666.68455	0.05516
2665.39878	0.05524
2664.11301	0.05531
2662.82724	0.05534
2661.54147	0.05530
2660.25570	0.05516
2658.96993	0.05485
2657.68417	0.05441
2656.39840	0.05401
2655.11263	0.05373
2653.82686	0.05353
2652.54109	0.05330
2651.25532	0.05306
2649.96955	0.05291
2648.68378	0.05292
2647.39801	0.05301
2646.11225	0.05304
2644.82648	0.05293
2643.54071	0.05270
2642.25494	0.05246
2640.96917	0.05221
2639.68340	0.05190
2638.39763	0.05154
2637.11186	0.05126
2635.82609	0.05110
2634.54033	0.05103
2633.25456	0.05103
2631.96879	0.05121
2630.68302	0.05158
2629.39725	0.05190
2628.11148	0.05185
2626.82571	0.05131
2625.53994	0.05048
2624.25418	0.04974
2622.96841	0.04935
2621.68264	0.04936
2620.39687	0.04958
2619.11110	0.04978
2617.82533	0.04981
2616.53956	0.04964
2615.25379	0.04923
2613.96802	0.04866
2612.68226	0.04811
2611.39649	0.04777
2610.11072	0.04773
2608.82495	0.04785
2607.53918	0.04794
2606.25341	0.04785
2604.96764	0.04762
2603.68187	0.04737
2602.39611	0.04721
2601.11034	0.04715
2599.82457	0.04706
2598.53880	0.04682
2597.25303	0.04648
2595.96726	0.04614
2594.68149	0.04585
2593.39572	0.04552
2592.10995	0.04517
2590.82419	0.04490
2589.53842	0.04486
2588.25265	0.04509
2586.96688	0.04552
2585.68111	0.04598
2584.39534	0.04629
2583.10957	0.04632
2581.82380	0.04605
2580.53804	0.04556
2579.25227	0.04499
2577.96650	0.04453
2576.68073	0.04436
2575.39496	0.04446
2574.10919	0.04459
2572.82342	0.04448
2571.53765	0.04411
2570.25188	0.04375
2568.96612	0.04369
2567.68035	0.04396
2566.39458	0.04439
2565.10881	0.04475
2563.82304	0.04496
2562.53727	0.04502
2561.25150	0.04494
2559.96573	0.04467
2558.67997	0.04423
2557.39420	0.04373
2556.10843	0.04335
2554.82266	0.04315
2553.53689	0.04312
2552.25112	0.04318
2550.96535	0.04323
2549.67958	0.04312
2548.39381	0.04280
2547.10805	0.04242
2545.82228	0.04230
2544.53651	0.04253
2543.25074	0.04288
2541.96497	0.04312
2540.67920	0.04324
2539.39343	0.04329
2538.10766	0.04322
2536.82190	0.04294
2535.53613	0.04248
2534.25036	0.04194
2532.96459	0.04145
2531.67882	0.04113
2530.39305	0.04107
2529.10728	0.04120
2527.82151	0.04139
2526.53574	0.04147
2525.24998	0.04140
2523.96421	0.04125
2522.67844	0.04116
2521.39267	0.04125
2520.10690	0.04149
2518.82113	0.04170
2517.53536	0.04172
2516.24959	0.04150
2514.96383	0.04109
2513.67806	0.04059
2512.39229	0.04018
2511.10652	0.04009
2509.82075	0.04035
2508.53498	0.04074
2507.24921	0.04102
2505.96344	0.04115
2504.67767	0.04125
2503.39191	0.04140
2502.10614	0.04146
2500.82037	0.04130
2499.53460	0.04097
2498.24883	0.04068
2496.96306	0.04053
2495.67729	0.04043
2494.39152	0.04031
2493.10576	0.04020
2491.81999	0.04010
2490.53422	0.03995
2489.24845	0.03976
2487.96268	0.03968
2486.67691	0.03990
2485.39114	0.04032
2484.10537	0.04062
2482.81960	0.04055
2481.53384	0.04017
2480.24807	0.03981
2478.96230	0.03975
2477.67653	0.03998
2476.39076	0.04027
2475.10499	0.04039
2473.81922	0.04022
2472.53345	0.03985
2471.24769	0.03950
2469.96192	0.03939
2468.67615	0.03958
2467.39038	0.03987
2466.10461	0.04002
2464.81884	0.03993
2463.53307	0.03966
2462.24730	0.03935
2460.96153	0.03913
2459.67577	0.03907
2458.39000	0.03921
2457.10423	0.03947
2455.81846	0.03971
2454.53269	0.03981
2453.24692	0.03974
2451.96115	0.03959
2450.67538	0.03944
2449.38962	0.03931
2448.10385	0.03923
2446.81808	0.03930
2445.53231	0.03950
2444.24654	0.03965
2442.96077	0.03951
2441.67500	0.03913
2440.38923	0.03874
2439.10346	0.03848
2437.81770	0.03832
2436.53193	0.03816
2435.24616	0.03796
2433.96039	0.03773
2432.67462	0.03749
2431.38885	0.03731
2430.10308	0.03734
2428.81731	0.03760
2427.53155	0.03796
2426.24578	0.03816
2424.96001	0.03807
2423.67424	0.03778
2422.38847	0.03750
2421.10270	0.03734
2419.81693	0.03735
2418.53116	0.03745
2417.24539	0.03746
2415.95963	0.03730
2414.67386	0.03709
2413.38809	0.03705
2412.10232	0.03718
2410.81655	0.03736
2409.53078	0.03751
2408.24501	0.03764
2406.95924	0.03777
2405.67347	0.03787
2404.38771	0.03789
2403.10194	0.03788
2401.81617	0.03785
2400.53040	0.03780
2399.24463	0.03779
2397.95886	0.03779
2396.67309	0.03782
2395.38732	0.03791
2394.10156	0.03798
2392.81579	0.03800
2391.53002	0.03799
2390.24425	0.03794
2388.95848	0.03782
2387.67271	0.03760
2386.38694	0.03731
2385.10117	0.03710
2383.81540	0.03703
2382.52964	0.03707
2381.24387	0.03707
2379.95810	0.03688
2378.67233	0.03643
2377.38656	0.03582
2376.10079	0.03520
2374.81502	0.03463
2373.52925	0.03412
2372.24349	0.03364
2370.95772	0.03316
2369.67195	0.03263
2368.38618	0.03205
2367.10041	0.03146
2365.81464	0.03097
2364.52887	0.03068
2363.24310	0.03065
2361.95733	0.03083
2360.67157	0.03115
2359.38580	0.03151
2358.10003	0.03187
2356.81426	0.03225
2355.52849	0.03273
2354.24272	0.03336
2352.95695	0.03405
2351.67118	0.03460
2350.38542	0.03488
2349.09965	0.03486
2347.81388	0.03466
2346.52811	0.03442
2345.24234	0.03420
2343.95657	0.03397
2342.67080	0.03369
2341.38503	0.03338
2340.09926	0.03313
2338.81350	0.03298
2337.52773	0.03288
2336.24196	0.03278
2334.95619	0.03262
2333.67042	0.03240
2332.38465	0.03218
2331.09888	0.03205
2329.81311	0.03212
2328.52735	0.03244
2327.24158	0.03301
2325.95581	0.03371
2324.67004	0.03437
2323.38427	0.03483
2322.09850	0.03509
2320.81273	0.03519
2319.52696	0.03523
2318.24119	0.03526
2316.95543	0.03533
2315.66966	0.03545
2314.38389	0.03562
2313.09812	0.03578
2311.81235	0.03589
2310.52658	0.03596
2309.24081	0.03595
2307.95504	0.03585
2306.66928	0.03564
2305.38351	0.03537
2304.09774	0.03507
2302.81197	0.03476
2301.52620	0.03446
2300.24043	0.03418
2298.95466	0.03396
2297.66889	0.03385
2296.38312	0.03393
2295.09736	0.03423
2293.81159	0.03464
2292.52582	0.03495
2291.24005	0.03503
2289.95428	0.03492
2288.66851	0.03481
2287.38274	0.03474
2286.09697	0.03459
2284.81121	0.03424
2283.52544	0.03376
2282.23967	0.03335
2280.95390	0.03302
2279.66813	0.03261
2278.38236	0.03206
2277.09659	0.03161
2275.81082	0.03154
2274.52505	0.03181
2273.23929	0.03211
2271.95352	0.03215
2270.66775	0.03192
2269.38198	0.03164
2268.09621	0.03145
2266.81044	0.03134
2265.52467	0.03117
2264.23890	0.03087
2262.95314	0.03044
2261.66737	0.02996
2260.38160	0.02957
2259.09583	0.02936
2257.81006	0.02925
2256.52429	0.02905
2255.23852	0.02864
2253.95275	0.02820
2252.66698	0.02797
2251.38122	0.02800
2250.09545	0.02824
2248.80968	0.02848
2247.52391	0.02816
2246.23814	0.02776
2244.95237	0.02766
2243.66660	0.02796
2242.38083	0.02837
2241.09507	0.02830
2239.80930	0.02751
2238.52353	0.02640
2237.23776	0.02560
2235.95199	0.02526
2234.66622	0.02498
2233.38045	0.02446
2232.09468	0.02382
2230.80891	0.02333
2229.52315	0.02307
2228.23738	0.02300
2226.95161	0.02319
2225.66584	0.02366
2224.38007	0.02420
2223.09430	0.02462
2221.80853	0.02484
2220.52276	0.02485
2219.23700	0.02462
2217.95123	0.02434
2216.66546	0.02431
2215.37969	0.02444
2214.09392	0.02428
2212.80815	0.02360
2211.52238	0.02274
2210.23661	0.02220
2208.95084	0.02209
2207.66508	0.02215
2206.37931	0.02203
2205.09354	0.02160
2203.80777	0.02107
2202.52200	0.02101
2201.23623	0.02184
2199.95046	0.02320
2198.66469	0.02411
2197.37893	0.02395
2196.09316	0.02316
2194.80739	0.02251
2193.52162	0.02213
2192.23585	0.02169
2190.95008	0.02121
2189.66431	0.02114
2188.37854	0.02154
2187.09277	0.02176
2185.80701	0.02122
2184.52124	0.02011
2183.23547	0.01899
2181.94970	0.01813
2180.66393	0.01734
2179.37816	0.01645
2178.09239	0.01559
2176.80662	0.01507
2175.52085	0.01519
2174.23509	0.01591
2172.94932	0.01672
2171.66355	0.01705
2170.37778	0.01656
2169.09201	0.01546
2167.80624	0.01444
2166.52047	0.01424
2165.23470	0.01489
2163.94894	0.01547
2162.66317	0.01495
2161.37740	0.01320
2160.09163	0.01116
2158.80586	0.00999
2157.52009	0.01019
2156.23432	0.01154
2154.94855	0.01348
2153.66278	0.01535
2152.37702	0.01669
2151.09125	0.01736
2149.80548	0.01757
2148.51971	0.01752
2147.23394	0.01732
2145.94817	0.01713
2144.66240	0.01722
2143.37663	0.01773
2142.09087	0.01835
2140.80510	0.01858
2139.51933	0.01827
2138.23356	0.01775
2136.94779	0.01753
2135.66202	0.01785
2134.37625	0.01867
2133.09048	0.01972
2131.80471	0.02063
2130.51895	0.02105
2129.23318	0.02096
2127.94741	0.02066
2126.66164	0.02052
2125.37587	0.02069
2124.09010	0.02098
2122.80433	0.02108
2121.51856	0.02089
2120.23280	0.02065
2118.94703	0.02067
2117.66126	0.02094
2116.37549	0.02118
2115.08972	0.02126
2113.80395	0.02138
2112.51818	0.02168
2111.23241	0.02198
2109.94664	0.02197
2108.66088	0.02175
2107.37511	0.02170
2106.08934	0.02189
2104.80357	0.02199
2103.51780	0.02167
2102.23203	0.02108
2100.94626	0.02065
2099.66049	0.02119
2098.37473	0.02133
2097.08896	0.02093
2095.80319	0.02046
2094.51742	0.02032
2093.23165	0.02054
2091.94588	0.02081
2090.66011	0.02083
2089.37434	0.02061
2088.08857	0.02042
2086.80281	0.02045
2085.51704	0.02067
2084.23127	0.02086
2082.94550	0.02094
2081.65973	0.02095
2080.37396	0.02087
2079.08819	0.02058
2077.80242	0.02006
2076.51666	0.01954
2075.23089	0.01926
2073.94512	0.01921
2072.65935	0.01922
2071.37358	0.01917
2070.08781	0.01914
2068.80204	0.01921
2067.51627	0.01929
2066.23050	0.01917
2064.94474	0.01870
2063.65897	0.01785
2062.37320	0.01681
2061.08743	0.01601
2059.80166	0.01578
2058.51589	0.01597
2057.23012	0.01604
2055.94435	0.01572
2054.65859	0.01539
2053.37282	0.01563
2052.08705	0.01644
2050.80128	0.01730
2049.51551	0.01772
2048.22974	0.01771
2046.94397	0.01739
2045.65820	0.01674
2044.37243	0.01574
2043.08667	0.01461
2041.80090	0.01373
2040.51513	0.01321
2039.22936	0.01273
2037.94359	0.01193
2036.65782	0.01096
2035.37205	0.01038
2034.08628	0.01054
2032.80052	0.01120
2031.51475	0.01194
2030.22898	0.01271
2028.94321	0.01365
2027.65744	0.01457
2026.37167	0.01496
2025.08590	0.01445
2023.80013	0.01326
2022.51436	0.01198
2021.22860	0.01125
2019.94283	0.01127
2018.65706	0.01167
2017.37129	0.01164
2016.08552	0.01065
2014.79975	0.00909
2013.51398	0.00813
2012.22821	0.00863
2010.94245	0.01027
2009.65668	0.01190
2008.37091	0.01270
2007.08514	0.01287
2005.79937	0.01310
2004.51360	0.01373
2003.22783	0.01447
2001.94206	0.01480
2000.65629	0.01460
1999.37053	0.01426
1998.08476	0.01419
1996.79899	0.01448
1995.51322	0.01483
1994.22745	0.01502
1992.94168	0.01510
1991.65591	0.01526
1990.37014	0.01553
1989.08438	0.01574
1987.79861	0.01571
1986.51284	0.01555
1985.22707	0.01554
1983.94130	0.01595
1982.65553	0.01680
1981.36976	0.01776
1980.08399	0.01832
1978.79822	0.01809
1977.51246	0.01721
1976.22669	0.01615
1974.94092	0.01530
1973.65515	0.01474
1972.36938	0.01439
1971.08361	0.01424
1969.79784	0.01424
1968.51207	0.01425
1967.22631	0.01425
1965.94054	0.01431
1964.65477	0.01449
1963.36900	0.01475
1962.08323	0.01497
1960.79746	0.01510
1959.51169	0.01514
1958.22592	0.01512
1956.94015	0.01507
1955.65439	0.01514
1954.36862	0.01555
1953.08285	0.01629
1951.79708	0.01701
1950.51131	0.01733
1949.22554	0.01728
1947.93977	0.01721
1946.65400	0.01742
1945.36823	0.01786
1944.08247	0.01829
1942.79670	0.01860
1941.51093	0.01881
1940.22516	0.01891
1938.93939	0.01876
1937.65362	0.01830
1936.36785	0.01778
1935.08208	0.01760
1933.79632	0.01799
1932.51055	0.01885
1931.22478	0.01987
1929.93901	0.02070
1928.65324	0.02114
1927.36747	0.02112
1926.08170	0.02079
1924.79593	0.02036
1923.51016	0.02011
1922.22440	0.02020
1920.93863	0.02052
1919.65286	0.02082
1918.36709	0.02087
1917.08132	0.02073
1915.79555	0.02055
1914.50978	0.02049
1913.22401	0.02055
1911.93825	0.02070
1910.65248	0.02089
1909.36671	0.02111
1908.08094	0.02138
1906.79517	0.02173
1905.50940	0.02209
1904.22363	0.02234
1902.93786	0.02245
1901.65209	0.02245
1900.36633	0.02238
1899.08056	0.02220
1897.79479	0.02189
1896.50902	0.02149
1895.22325	0.02112
1893.93748	0.02095
1892.65171	0.02100
1891.36594	0.02121
1890.08018	0.02141
1888.79441	0.02150
1887.50864	0.02151
1886.22287	0.02150
1884.93710	0.02150
1883.65133	0.02145
1882.36556	0.02132
1881.07979	0.02119
1879.79402	0.02115
1878.50826	0.02123
1877.22249	0.02135
1875.93672	0.02147
1874.65095	0.02159
1873.36518	0.02168
1872.07941	0.02167
1870.79364	0.02149
1869.50787	0.02121
1868.22211	0.02098
1866.93634	0.02091
1865.65057	0.02098
1864.36480	0.02113
1863.07903	0.02130
1861.79326	0.02148
1860.50749	0.02165
1859.22172	0.02183
1857.93595	0.02195
1856.65019	0.02194
1855.36442	0.02177
1854.07865	0.02155
1852.79288	0.02139
1851.50711	0.02135
1850.22134	0.02139
1848.93557	0.02145
1847.64980	0.02150
1846.36404	0.02151
1845.07827	0.02150
1843.79250	0.02147
1842.50673	0.02145
1841.22096	0.02144
1839.93519	0.02143
1838.64942	0.02146
1837.36365	0.02155
1836.07788	0.02167
1834.79212	0.02175
1833.50635	0.02177
1832.22058	0.02179
1830.93481	0.02189
1829.64904	0.02207
1828.36327	0.02223
1827.07750	0.02230
1825.79173	0.02228
1824.50597	0.02225
1823.22020	0.02229
1821.93443	0.02239
1820.64866	0.02248
1819.36289	0.02251
1818.07712	0.02247
1816.79135	0.02242
1815.50558	0.02241
1814.21981	0.02244
1812.93405	0.02247
1811.64828	0.02246
1810.36251	0.02236
1809.07674	0.02221
1807.79097	0.02209
1806.50520	0.02208
1805.21943	0.02217
1803.93366	0.02230
1802.64790	0.02238
1801.36213	0.02238
1800.07636	0.02232
1798.79059	0.02228
1797.50482	0.02230
1796.21905	0.02237
1794.93328	0.02245
1793.64751	0.02257
1792.36174	0.02271
1791.07598	0.02285
1789.79021	0.02295
1788.50444	0.02301
1787.21867	0.02307
1785.93290	0.02314
1784.64713	0.02320
1783.36136	0.02319
1782.07559	0.02309
1780.78983	0.02298
1779.50406	0.02292
1778.21829	0.02294
1776.93252	0.02297
1775.64675	0.02294
1774.36098	0.02287
1773.07521	0.02285
1771.78944	0.02294
1770.50367	0.02311
1769.21791	0.02327
1767.93214	0.02336
1766.64637	0.02338
1765.36060	0.02335
1764.07483	0.02333
1762.78906	0.02338
1761.50329	0.02349
1760.21752	0.02360
1758.93176	0.02366
1757.64599	0.02369
1756.36022	0.02374
1755.07445	0.02381
1753.78868	0.02386
1752.50291	0.02381
1751.21714	0.02369
1749.93137	0.02361
1748.64560	0.02364
1747.35984	0.02375
1746.07407	0.02386
1744.78830	0.02393
1743.50253	0.02398
1742.21676	0.02409
1740.93099	0.02426
1739.64522	0.02443
1738.35945	0.02456
1737.07369	0.02465
1735.78792	0.02470
1734.50215	0.02478
1733.21638	0.02488
1731.93061	0.02500
1730.64484	0.02512
1729.35907	0.02525
1728.07330	0.02541
1726.78753	0.02558
1725.50177	0.02571
1724.21600	0.02579
1722.93023	0.02586
1721.64446	0.02596
1720.35869	0.02610
1719.07292	0.02629
1717.78715	0.02652
1716.50138	0.02681
1715.21561	0.02717
1713.92985	0.02757
1712.64408	0.02798
1711.35831	0.02835
1710.07254	0.02867
1708.78677	0.02896
1707.50100	0.02923
1706.21523	0.02949
1704.92946	0.02975
1703.64370	0.03000
1702.35793	0.03028
1701.07216	0.03063
1699.78639	0.03105
1698.50062	0.03148
1697.21485	0.03186
1695.92908	0.03221
1694.64331	0.03254
1693.35754	0.03284
1692.07178	0.03309
1690.78601	0.03329
1689.50024	0.03348
1688.21447	0.03372
1686.92870	0.03402
1685.64293	0.03433
1684.35716	0.03464
1683.07139	0.03493
1681.78563	0.03521
1680.49986	0.03551
1679.21409	0.03585
1677.92832	0.03622
1676.64255	0.03661
1675.35678	0.03696
1674.07101	0.03723
1672.78524	0.03742
1671.49947	0.03759
1670.21371	0.03785
1668.92794	0.03821
1667.64217	0.03860
1666.35640	0.03893
1665.07063	0.03920
1663.78486	0.03948
1662.49909	0.03983
1661.21332	0.04023
1659.92756	0.04061
1658.64179	0.04092
1657.35602	0.04118
1656.07025	0.04139
1654.78448	0.04155
1653.49871	0.04168
1652.21294	0.04176
1650.92717	0.04184
1649.64140	0.04195
1648.35564	0.04208
1647.06987	0.04223
1645.78410	0.04238
1644.49833	0.04252
1643.21256	0.04264
1641.92679	0.04273
1640.64102	0.04279
1639.35525	0.04281
1638.06949	0.04281
1636.78372	0.04282
1635.49795	0.04288
1634.21218	0.04296
1632.92641	0.04303
1631.64064	0.04305
1630.35487	0.04304
1629.06910	0.04303
1627.78333	0.04304
1626.49757	0.04307
1625.21180	0.04311
1623.92603	0.04319
1622.64026	0.04328
1621.35449	0.04338
1620.06872	0.04348
1618.78295	0.04359
1617.49718	0.04372
1616.21142	0.04388
1614.92565	0.04406
1613.63988	0.04426
1612.35411	0.04448
1611.06834	0.04466
1609.78257	0.04479
1608.49680	0.04488
1607.21103	0.04501
1605.92526	0.04523
1604.63950	0.04551
1603.35373	0.04582
1602.06796	0.04614
1600.78219	0.04642
1599.49642	0.04667
1598.21065	0.04688
1596.92488	0.04706
1595.63911	0.04725
1594.35335	0.04749
1593.06758	0.04777
1591.78181	0.04809
1590.49604	0.04839
1589.21027	0.04867
1587.92450	0.04894
1586.63873	0.04923
1585.35296	0.04957
1584.06719	0.04997
1582.78143	0.05042
1581.49566	0.05088
1580.20989	0.05130
1578.92412	0.05169
1577.63835	0.05211
1576.35258	0.05261
1575.06681	0.05319
1573.78104	0.05381
1572.49528	0.05444
1571.20951	0.05506
1569.92374	0.05570
1568.63797	0.05635
1567.35220	0.05698
1566.06643	0.05757
1564.78066	0.05812
1563.49489	0.05865
1562.20912	0.05919
1560.92336	0.05976
1559.63759	0.06037
1558.35182	0.06100
1557.06605	0.06160
1555.78028	0.06216
1554.49451	0.06274
1553.20874	0.06334
1551.92297	0.06392
1550.63721	0.06442
1549.35144	0.06480
1548.06567	0.06504
1546.77990	0.06516
1545.49413	0.06515
1544.20836	0.06504
1542.92259	0.06485
1541.63682	0.06467
1540.35105	0.06454
1539.06529	0.06448
1537.77952	0.06443
1536.49375	0.06437
1535.20798	0.06436
1533.92221	0.06446
1532.63644	0.06466
1531.35067	0.06490
1530.06490	0.06513
1528.77914	0.06537
1527.49337	0.06566
1526.20760	0.06604
1524.92183	0.06650
1523.63606	0.06706
1522.35029	0.06777
1521.06452	0.06862
1519.77875	0.06958
1518.49298	0.07061
1517.20722	0.07174
1515.92145	0.07298
1514.63568	0.07432
1513.34991	0.07572
1512.06414	0.07712
1510.77837	0.07851
1509.49260	0.07989
1508.20683	0.08132
1506.92107	0.08286
1505.63530	0.08450
1504.34953	0.08615
1503.06376	0.08768
1501.77799	0.08903
1500.49222	0.09021
1499.20645	0.09129
1497.92068	0.09232
1496.63491	0.09332
1495.34915	0.09430
1494.06338	0.09525
1492.77761	0.09620
1491.49184	0.09717
1490.20607	0.09816
1488.92030	0.09921
1487.63453	0.10037
1486.34876	0.10169
1485.06299	0.10314
1483.77723	0.10466
1482.49146	0.10620
1481.20569	0.10770
1479.91992	0.10915
1478.63415	0.11056
1477.34838	0.11193
1476.06261	0.11327
1474.77684	0.11461
1473.49108	0.11597
1472.20531	0.11734
1470.91954	0.11864
1469.63377	0.11980
1468.34800	0.12082
1467.06223	0.12173
1465.77646	0.12260
1464.49069	0.12348
1463.20492	0.12440
1461.91916	0.12532
1460.63339	0.12621
1459.34762	0.12705
1458.06185	0.12783
1456.77608	0.12857
1455.49031	0.12925
1454.20454	0.12987
1452.91877	0.13044
1451.63301	0.13096
1450.34724	0.13140
1449.06147	0.13170
1447.77570	0.13184
1446.48993	0.13180
1445.20416	0.13158
1443.91839	0.13123
1442.63262	0.13081
1441.34685	0.13036
1440.06109	0.12993
1438.77532	0.12957
1437.48955	0.12937
1436.20378	0.12937
1434.91801	0.12961
1433.63224	0.13009
1432.34647	0.13083
1431.06070	0.13183
1429.77494	0.13307
1428.48917	0.13453
1427.20340	0.13616
1425.91763	0.13791
1424.63186	0.13967
1423.34609	0.14137
1422.06032	0.14297
1420.77455	0.14450
1419.48878	0.14601
1418.20302	0.14744
1416.91725	0.14870
1415.63148	0.14972
1414.34571	0.15049
1413.05994	0.15102
1411.77417	0.15128
1410.48840	0.15123
1409.20263	0.15084
1407.91687	0.15011
1406.63110	0.14906
1405.34533	0.14774
1404.05956	0.14618
1402.77379	0.14437
1401.48802	0.14233
1400.20225	0.14006
1398.91648	0.13765
1397.63071	0.13512
1396.34495	0.13251
1395.05918	0.12980
1393.77341	0.12699
1392.48764	0.12411
1391.20187	0.12121
1389.91610	0.11837
1388.63033	0.11566
1387.34456	0.11313
1386.05880	0.11075
1384.77303	0.10845
1383.48726	0.10618
1382.20149	0.10393
1380.91572	0.10176
1379.62995	0.09965
1378.34418	0.09751
1377.05841	0.09521
1375.77264	0.09265
1374.48688	0.08985
1373.20111	0.08692
1371.91534	0.08398
1370.62957	0.08115
1369.34380	0.07850
1368.05803	0.07602
1366.77226	0.07371
1365.48649	0.07152
1364.20073	0.06942
1362.91496	0.06737
1361.62919	0.06537
1360.34342	0.06345
1359.05765	0.06164
1357.77188	0.06002
1356.48611	0.05858
1355.20034	0.05730
1353.91457	0.05610
1352.62881	0.05494
1351.34304	0.05384
1350.05727	0.05282
1348.77150	0.05192
1347.48573	0.05108
1346.19996	0.05025
1344.91419	0.04941
1343.62842	0.04858
1342.34266	0.04781
1341.05689	0.04708
1339.77112	0.04638
1338.48535	0.04572
1337.19958	0.04510
1335.91381	0.04456
1334.62804	0.04408
1333.34227	0.04361
1332.05650	0.04313
1330.77074	0.04263
1329.48497	0.04217
1328.19920	0.04177
1326.91343	0.04143
1325.62766	0.04117
1324.34189	0.04095
1323.05612	0.04075
1321.77035	0.04051
1320.48459	0.04020
1319.19882	0.03981
1317.91305	0.03938
1316.62728	0.03899
1315.34151	0.03865
1314.05574	0.03836
1312.76997	0.03810
1311.48420	0.03784
1310.19843	0.03756
1308.91267	0.03725
1307.62690	0.03696
1306.34113	0.03670
1305.05536	0.03648
1303.76959	0.03625
1302.48382	0.03600
1301.19805	0.03574
1299.91228	0.03547
1298.62652	0.03520
1297.34075	0.03491
1296.05498	0.03461
1294.76921	0.03436
1293.48344	0.03416
1292.19767	0.03398
1290.91190	0.03379
1289.62613	0.03356
1288.34036	0.03333
1287.05460	0.03311
1285.76883	0.03292
1284.48306	0.03272
1283.19729	0.03249
1281.91152	0.03224
1280.62575	0.03202
1279.33998	0.03184
1278.05421	0.03167
1276.76845	0.03146
1275.48268	0.03120
1274.19691	0.03090
1272.91114	0.03059
1271.62537	0.03032
1270.33960	0.03010
1269.05383	0.02997
1267.76806	0.02989
1266.48229	0.02984
1265.19653	0.02977
1263.91076	0.02964
1262.62499	0.02946
1261.33922	0.02923
1260.05345	0.02900
1258.76768	0.02878
1257.48191	0.02860
1256.19614	0.02846
1254.91037	0.02834
1253.62461	0.02823
1252.33884	0.02808
1251.05307	0.02790
1249.76730	0.02769
1248.48153	0.02747
1247.19576	0.02728
1245.90999	0.02714
1244.62422	0.02705
1243.33846	0.02698
1242.05269	0.02692
1240.76692	0.02682
1239.48115	0.02666
1238.19538	0.02643
1236.90961	0.02619
1235.62384	0.02598
1234.33807	0.02585
1233.05230	0.02575
1231.76654	0.02563
1230.48077	0.02549
1229.19500	0.02533
1227.90923	0.02518
1226.62346	0.02505
1225.33769	0.02492
1224.05192	0.02477
1222.76615	0.02460
1221.48039	0.02443
1220.19462	0.02430
1218.90885	0.02422
1217.62308	0.02414
1216.33731	0.02404
1215.05154	0.02392
1213.76577	0.02380
1212.48000	0.02371
1211.19423	0.02367
1209.90847	0.02365
1208.62270	0.02366
1207.33693	0.02367
1206.05116	0.02363
1204.76539	0.02352
1203.47962	0.02339
1202.19385	0.02331
1200.90808	0.02325
1199.62232	0.02318
1198.33655	0.02324
1197.05078	0.02328
1195.76501	0.02326
1194.47924	0.02318
1193.19347	0.02304
1191.90770	0.02293
1190.62193	0.02289
1189.33616	0.02292
1188.05040	0.02296
1186.76463	0.02297
1185.47886	0.02297
1184.19309	0.02300
1182.90732	0.02305
1181.62155	0.02308
1180.33578	0.02309
1179.05001	0.02310
1177.76425	0.02314
1176.47848	0.02320
1175.19271	0.02329
1173.90694	0.02341
1172.62117	0.02355
1171.33540	0.02366
1170.04963	0.02374
1168.76386	0.02386
1167.47809	0.02406
1166.19233	0.02436
1164.90656	0.02470
1163.62079	0.02503
1162.33502	0.02531
1161.04925	0.02557
1159.76348	0.02586
1158.47771	0.02620
1157.19194	0.02658
1155.90618	0.02694
1154.62041	0.02727
1153.33464	0.02761
1152.04887	0.02804
1150.76310	0.02855
1149.47733	0.02910
1148.19156	0.02965
1146.90579	0.03027
1145.62002	0.03102
1144.33426	0.03191
1143.04849	0.03287
1141.76272	0.03389
1140.47695	0.03498
1139.19118	0.03619
1137.90541	0.03752
1136.61964	0.03898
1135.33387	0.04052
1134.04811	0.04219
1132.76234	0.04406
1131.47657	0.04623
1130.19080	0.04873
1128.90503	0.05156
1127.61926	0.05469
1126.33349	0.05809
1125.04772	0.06172
1123.76195	0.06547
1122.47619	0.06925
1121.19042	0.07302
1119.90465	0.07685
1118.61888	0.08085
1117.33311	0.08504
1116.04734	0.08932
1114.76157	0.09354
1113.47580	0.09762
1112.19004	0.10161
1110.90427	0.10558
1109.61850	0.10953
1108.33273	0.11340
1107.04696	0.11711
1105.76119	0.12064
1104.47542	0.12405
1103.18965	0.12738
1101.90388	0.13064
1100.61812	0.13378
1099.33235	0.13679
1098.04658	0.13962
1096.76081	0.14229
1095.47504	0.14476
1094.18927	0.14710
1092.90350	0.14939
1091.61773	0.15169
1090.33197	0.15397
1089.04620	0.15617
1087.76043	0.15825
1086.47466	0.16023
1085.18889	0.16216
1083.90312	0.16409
1082.61735	0.16606
1081.33158	0.16819
1080.04581	0.17056
1078.76005	0.17323
1077.47428	0.17614
1076.18851	0.17918
1074.90274	0.18224
1073.61697	0.18531
1072.33120	0.18845
1071.04543	0.19172
1069.75966	0.19517
1068.47390	0.19879
1067.18813	0.20257
1065.90236	0.20648
1064.61659	0.21047
1063.33082	0.21451
1062.04505	0.21851
1060.75928	0.22238
1059.47351	0.22615
1058.18774	0.22985
1056.90198	0.23354
1055.61621	0.23725
1054.33044	0.24103
1053.04467	0.24488
1051.75890	0.24879
1050.47313	0.25276
1049.18736	0.25680
1047.90159	0.26092
1046.61583	0.26515
1045.33006	0.26953
1044.04429	0.27410
1042.75852	0.27882
1041.47275	0.28363
1040.18698	0.28850
1038.90121	0.29342
1037.61544	0.29841
1036.32967	0.30342
1035.04391	0.30840
1033.75814	0.31329
1032.47237	0.31799
1031.18660	0.32239
1029.90083	0.32646
1028.61506	0.33011
1027.32929	0.33333
1026.04352	0.33610
1024.75775	0.33846
1023.47199	0.34035
1022.18622	0.34168
1020.90045	0.34242
1019.61468	0.34266
1018.32891	0.34250
1017.04314	0.34197
1015.75737	0.34100
1014.47160	0.33950
1013.18584	0.33732
1011.90007	0.33444
1010.61430	0.33093
1009.32853	0.32694
1008.04276	0.32248
1006.75699	0.31745
1005.47122	0.31172
1004.18545	0.30534
1002.89968	0.29841
1001.61392	0.29107
1000.32815	0.28343
999.04238	0.27552
997.75661	0.26737
996.47084	0.25899
995.18507	0.25045
993.89930	0.24188
992.61353	0.23342
991.32777	0.22515
990.04200	0.21705
988.75623	0.20912
987.47046	0.20143
986.18469	0.19407
984.89892	0.18709
983.61315	0.18049
982.32738	0.17422
981.04161	0.16824
979.75585	0.16259
978.47008	0.15737
977.18431	0.15266
975.89854	0.14850
974.61277	0.14489
973.32700	0.14183
972.04123	0.13936
970.75546	0.13751
969.46970	0.13633
968.18393	0.13584
966.89816	0.13607
965.61239	0.13693
964.32662	0.13812
963.04085	0.13927
961.75508	0.14007
960.46931	0.14027
959.18354	0.13971
957.89778	0.13830
956.61201	0.13610
955.32624	0.13332
954.04047	0.13024
952.75470	0.12706
951.46893	0.12391
950.18316	0.12081
948.89739	0.11774
947.61163	0.11468
946.32586	0.11165
945.04009	0.10873
943.75432	0.10597
942.46855	0.10335
941.18278	0.10084
939.89701	0.09840
938.61124	0.09604
937.32547	0.09378
936.03971	0.09168
934.75394	0.08973
933.46817	0.08789
932.18240	0.08613
930.89663	0.08451
929.61086	0.08309
928.32509	0.08184
927.03932	0.08065
925.75356	0.07941
924.46779	0.07814
923.18202	0.07690
921.89625	0.07575
920.61048	0.07472
919.32471	0.07381
918.03894	0.07301
916.75317	0.07224
915.46740	0.07143
914.18164	0.07059
912.89587	0.06979
911.61010	0.06910
910.32433	0.06853
909.03856	0.06807
907.75279	0.06767
906.46702	0.06728
905.18125	0.06684
903.89549	0.06628
902.60972	0.06563
901.32395	0.06497
900.03818	0.06436
898.75241	0.06382
897.46664	0.06331
896.18087	0.06284
894.89510	0.06244
893.60933	0.06220
892.32357	0.06222
891.03780	0.06254
889.75203	0.06317
888.46626	0.06406
887.18049	0.06528
885.89472	0.06701
884.60895	0.06950
883.32318	0.07288
882.03742	0.07690
880.75165	0.08095
879.46588	0.08429
878.18011	0.08660
876.89434	0.08819
875.60857	0.08968
874.32280	0.09134
873.03703	0.09282
871.75126	0.09349
870.46550	0.09298
869.17973	0.09136
867.89396	0.08897
866.60819	0.08610
865.32242	0.08299
864.03665	0.07982
862.75088	0.07676
861.46511	0.07392
860.17935	0.07135
858.89358	0.06908
857.60781	0.06711
856.32204	0.06551
855.03627	0.06426
853.75050	0.06329
852.46473	0.06240
851.17896	0.06147
849.89319	0.06048
848.60743	0.05952
847.32166	0.05870
846.03589	0.05804
844.75012	0.05749
843.46435	0.05699
842.17858	0.05649
840.89281	0.05597
839.60704	0.05542
838.32128	0.05486
837.03551	0.05435
835.74974	0.05395
834.46397	0.05365
833.17820	0.05339
831.89243	0.05309
830.60666	0.05272
829.32089	0.05235
828.03512	0.05204
826.74936	0.05186
825.46359	0.05174
824.17782	0.05159
822.89205	0.05135
821.60628	0.05108
820.32051	0.05088
819.03474	0.05077
817.74897	0.05069
816.46321	0.05058
815.17744	0.05042
813.89167	0.05025
812.60590	0.05014
811.32013	0.05007
810.03436	0.05001
808.74859	0.04994
807.46282	0.04989
806.17705	0.04985
804.89129	0.04980
803.60552	0.04970
802.31975	0.04959
801.03398	0.04950
799.74821	0.04941
798.46244	0.04927
797.17667	0.04908
795.89090	0.04889
794.60513	0.04872
793.31937	0.04857
792.03360	0.04843
790.74783	0.04831
789.46206	0.04819
788.17629	0.04811
786.89052	0.04807
785.60475	0.04807
784.31898	0.04805
783.03322	0.04793
781.74745	0.04773
780.46168	0.04747
779.17591	0.04721
777.89014	0.04704
776.60437	0.04701
775.31860	0.04708
774.03283	0.04718
772.74706	0.04723
771.46130	0.04724
770.17553	0.04726
768.88976	0.04729
767.60399	0.04728
766.31822	0.04723
765.03245	0.04712
763.74668	0.04695
762.46091	0.04680
761.17515	0.04674
759.88938	0.04682
758.60361	0.04695
757.31784	0.04705
756.03207	0.04711
754.74630	0.04712
753.46053	0.04709
752.17476	0.04699
750.88899	0.04684
749.60323	0.04669
748.31746	0.04659
747.03169	0.04656
745.74592	0.04656
744.46015	0.04652
743.17438	0.04639
741.88861	0.04619
740.60284	0.04599
739.31708	0.04584
738.03131	0.04575
736.74554	0.04571
735.45977	0.04572
734.17400	0.04579
732.88823	0.04592
731.60246	0.04605
730.31669	0.04612
729.03092	0.04608
727.74516	0.04594
726.45939	0.04576
725.17362	0.04557
723.88785	0.04534
722.60208	0.04528
721.31631	0.04530
720.03054	0.04531
718.74477	0.04529
717.45901	0.04520
716.17324	0.04498
714.88747	0.04464
713.60170	0.04426
712.31593	0.04395
711.03016	0.04375
709.74439	0.04365
708.45862	0.04358
707.17285	0.04352
705.88709	0.04343
704.60132	0.04331
703.31555	0.04318
702.02978	0.04305
700.74401	0.04294
699.45824	0.04287
698.17247	0.04281
696.88670	0.04276
695.60094	0.04272
694.31517	0.04264
693.02940	0.04250
691.74363	0.04232
690.45786	0.04217
689.17209	0.04206
687.88632	0.04196
686.60055	0.04181
685.31478	0.04165
684.02902	0.04150
682.74325	0.04139
681.45748	0.04125
680.17171	0.04106
678.88594	0.04083
677.60017	0.04061
676.31440	0.04046
675.02863	0.04040
673.74287	0.04040
672.45710	0.04038
671.17133	0.04028
669.88556	0.04011
668.59979	0.03998
667.31402	0.03998
666.02825	0.04007
664.74248	0.04012
663.45671	0.04001
662.17095	0.03979
660.88518	0.03953
659.59941	0.03931
658.31364	0.03912
657.02787	0.03896
655.74210	0.03880
654.45633	0.03867
653.17056	0.03857
651.88480	0.03850
650.59903	0.03842
649.31326	0.03833
648.02749	0.03827
646.74172	0.03828
645.45595	0.03836
644.17018	0.03849
642.88441	0.03860
641.59864	0.03867
640.31288	0.03874
639.02711	0.03886
637.74134	0.03908
636.45557	0.03941
635.16980	0.03985
633.88403	0.04038
632.59826	0.04097
631.31249	0.04165
630.02673	0.04281
628.74096	0.04419
627.45519	0.04418
626.16942	0.04584
624.88365	0.04888
623.59788	0.05234
622.31211	0.05601
621.02634	0.05981
619.74057	0.06330
618.45481	0.06605
617.16904	0.06821
615.88327	0.07045
614.59750	0.07344
613.31173	0.07758
612.02596	0.08306
610.74019	0.08979
609.45442	0.09712
608.16866	0.10400
606.88289	0.10995
605.59712	0.11524
604.31135	0.12004
603.02558	0.12362
601.73981	0.12489
600.45404	0.12355
599.16827	0.12036
597.88250	0.11646
596.59674	0.11263
595.31097	0.10917
594.02520	0.10608
592.73943	0.10340
591.45366	0.10129
590.16789	0.09998
588.88212	0.09960
587.59635	0.10008
586.31059	0.10123
585.02482	0.10283
583.73905	0.10476
582.45328	0.10697
581.16751	0.10945
579.88174	0.11220
578.59597	0.11519
577.31020	0.11834
576.02443	0.12153
574.73867	0.12457
573.45290	0.12737
572.16713	0.13003
570.88136	0.13289
569.59559	0.13646
568.30982	0.14103
567.02405	0.14646
565.73828	0.15214
564.45251	0.15726
563.16675	0.16113
561.88098	0.16325
560.59521	0.16331
559.30944	0.16118
558.02367	0.15695
556.73790	0.15100
555.45213	0.14388
554.16636	0.13619
552.88060	0.12845
551.59483	0.12106
550.30906	0.11428
549.02329	0.10823
547.73752	0.10290
546.45175	0.09816
545.16598	0.09387
543.88021	0.08988
542.59444	0.08608
541.30868	0.08251
540.02291	0.07928
538.73714	0.07646
537.45137	0.07402
536.16560	0.07185
534.87983	0.06986
533.59406	0.06796
532.30829	0.06609
531.02253	0.06424
529.73676	0.06246
528.45099	0.06079
527.16522	0.05923
525.87945	0.05777
524.59368	0.05639
523.30791	0.05512
522.02214	0.05395
520.73637	0.05285
519.45061	0.05179
518.16484	0.05071
516.87907	0.04960
515.59330	0.04852
514.30753	0.04756
513.02176	0.04675
511.73599	0.04606
510.45022	0.04539
509.16446	0.04466
507.87869	0.04390
506.59292	0.04317
505.30715	0.04248
504.02138	0.04182
502.73561	0.04118
501.44984	0.04061
500.16407	0.04015
498.87830	0.03977
497.59254	0.03936
496.30677	0.03890
495.02100	0.03846
493.73523	0.03812
492.44946	0.03789
491.16369	0.03770
489.87792	0.03747
488.59215	0.03722
487.30639	0.03702
486.02062	0.03690
484.73485	0.03681
483.44908	0.03674
482.16331	0.03673
480.87754	0.03682
479.59177	0.03701
478.30600	0.03728
477.02023	0.03762
475.73447	0.03802
474.44870	0.03842
473.16293	0.03874
471.87716	0.03891
470.59139	0.03893
469.30562	0.03883
468.01985	0.03864
466.73408	0.03839
465.44832	0.03811
464.16255	0.03778
462.87678	0.03740
461.59101	0.03698
460.30524	0.03659
459.01947	0.03629
457.73370	0.03606
456.44793	0.03581
455.16216	0.03552
453.87640	0.03518
452.59063	0.03479
451.30486	0.03436
450.01909	0.03394
448.73332	0.03362
447.44755	0.03345
446.16178	0.03340
444.87601	0.03339
443.59025	0.03339
442.30448	0.03336
441.01871	0.03330
439.73294	0.03322
438.44717	0.03318
437.16140	0.03322
435.87563	0.03333
434.58986	0.03345
433.30409	0.03352
432.01833	0.03350
430.73256	0.03344
429.44679	0.03341
428.16102	0.03344
426.87525	0.03351
425.58948	0.03358
424.30371	0.03356
423.01794	0.03344
421.73218	0.03325
420.44641	0.03309
419.16064	0.03303
417.87487	0.03304
416.58910	0.03308
415.30333	0.03309
414.01756	0.03305
412.73179	0.03299
411.44602	0.03299
410.16026	0.03306
408.87449	0.03322
407.58872	0.03338
406.30295	0.03352
405.01718	0.03361
403.73141	0.03368
402.44564	0.03376
401.15987	0.03386
399.87411	0.03399
