3997.45528	0.05896
3996.16951	0.05888
3994.88374	0.05889
3993.59798	0.05905
3992.31221	0.05932
3991.02644	0.05941
3989.74067	0.05895
3988.45490	0.05790
3987.16913	0.05681
3985.88336	0.05638
3984.59759	0.05678
3983.31183	0.05754
3982.02606	0.05793
3980.74029	0.05762
3979.45452	0.05678
3978.16875	0.05593
3976.88298	0.05549
3975.59721	0.05559
3974.31144	0.05604
3973.02567	0.05657
3971.73991	0.05701
3970.45414	0.05736
3969.16837	0.05763
3967.88260	0.05781
3966.59683	0.05787
3965.31106	0.05784
3964.02529	0.05786
3962.73952	0.05805
3961.45376	0.05832
3960.16799	0.05837
3958.88222	0.05791
3957.59645	0.05688
3956.31068	0.05546
3955.02491	0.05392
3953.73914	0.05259
3952.45337	0.05184
3951.16760	0.05191
3949.88184	0.05276
3948.59607	0.05405
3947.31030	0.05537
3946.02453	0.05636
3944.73876	0.05680
3943.45299	0.05661
3942.16722	0.05581
3940.88145	0.05464
3939.59569	0.05357
3938.30992	0.05308
3937.02415	0.05328
3935.73838	0.05376
3934.45261	0.05407
3933.16684	0.05413
3931.88107	0.05418
3930.59530	0.05436
3929.30953	0.05459
3928.02377	0.05474
3926.73800	0.05474
3925.45223	0.05455
3924.16646	0.05423
3922.88069	0.05405
3921.59492	0.05427
3920.30915	0.05486
3919.02338	0.05536
3917.73762	0.05535
3916.45185	0.05485
3915.16608	0.05424
3913.88031	0.05380
3912.59454	0.05355
3911.30877	0.05334
3910.02300	0.05319
3908.73723	0.05326
3907.45146	0.05358
3906.16570	0.05393
3904.87993	0.05400
3903.59416	0.05371
3902.30839	0.05334
3901.02262	0.05320
3899.73685	0.05339
3898.45108	0.05361
3897.16531	0.05346
3895.87955	0.05285
3894.59378	0.05216
3893.30801	0.05177
3892.02224	0.05175
3890.73647	0.05196
3889.45070	0.05228
3888.16493	0.05269
3886.87916	0.05325
3885.59339	0.05386
3884.30763	0.05419
3883.02186	0.05383
3881.73609	0.05277
3880.45032	0.05152
3879.16455	0.05074
3877.87878	0.05074
3876.59301	0.05142
3875.30724	0.05242
3874.02148	0.05318
3872.73571	0.05313
3871.44994	0.05218
3870.16417	0.05104
3868.87840	0.05066
3867.59263	0.05118
3866.30686	0.05194
3865.02109	0.05234
3863.73532	0.05228
3862.44956	0.05198
3861.16379	0.05168
3859.87802	0.05153
3858.59225	0.05160
3857.30648	0.05178
3856.02071	0.05191
3854.73494	0.05190
3853.44917	0.05191
3852.16341	0.05204
3850.87764	0.05224
3849.59187	0.05235
3848.30610	0.05215
3847.02033	0.05142
3845.73456	0.05030
3844.44879	0.04945
3843.16302	0.04951
3841.87725	0.05050
3840.59149	0.05163
3839.30572	0.05207
3838.01995	0.05169
3836.73418	0.05097
3835.44841	0.05022
3834.16264	0.04949
3832.87687	0.04882
3831.59110	0.04839
3830.30534	0.04837
3829.01957	0.04872
3827.73380	0.04941
3826.44803	0.05039
3825.16226	0.05140
3823.87649	0.05185
3822.59072	0.05146
3821.30495	0.05059
3820.01918	0.04985
3818.73342	0.04949
3817.44765	0.04934
3816.16188	0.04936
3814.87611	0.04959
3813.59034	0.04992
3812.30457	0.05030
3811.01880	0.05075
3809.73303	0.05098
3808.44726	0.05062
3807.16150	0.04975
3805.87573	0.04896
3804.58996	0.04856
3803.30419	0.04836
3802.01842	0.04823
3800.73265	0.04835
3799.44688	0.04873
3798.16111	0.04909
3796.87535	0.04915
3795.58958	0.04894
3794.30381	0.04865
3793.01804	0.04845
3791.73227	0.04838
3790.44650	0.04828
3789.16073	0.04799
3787.87496	0.04757
3786.58919	0.04728
3785.30343	0.04734
3784.01766	0.04771
3782.73189	0.04807
3781.44612	0.04807
3780.16035	0.04761
3778.87458	0.04696
3777.58881	0.04644
3776.30304	0.04625
3775.01728	0.04644
3773.73151	0.04694
3772.44574	0.04758
3771.15997	0.04811
3769.87420	0.04841
3768.58843	0.04845
3767.30266	0.04821
3766.01689	0.04779
3764.73112	0.04747
3763.44536	0.04748
3762.15959	0.04770
3760.87382	0.04779
3759.58805	0.04754
3758.30228	0.04711
3757.01651	0.04684
3755.73074	0.04686
3754.44497	0.04691
3753.15921	0.04676
3751.87344	0.04660
3750.58767	0.04680
3749.30190	0.04759
3748.01613	0.04875
3746.73036	0.04965
3745.44459	0.04984
3744.15882	0.04941
3742.87305	0.04859
3741.58729	0.04769
3740.30152	0.04715
3739.01575	0.04720
3737.72998	0.04752
3736.44421	0.04770
3735.15844	0.04763
3733.87267	0.04743
3732.58690	0.04723
3731.30114	0.04703
3730.01537	0.04669
3728.72960	0.04610
3727.44383	0.04551
3726.15806	0.04531
3724.87229	0.04553
3723.58652	0.04581
3722.30075	0.04583
3721.01498	0.04561
3719.72922	0.04546
3718.44345	0.04571
3717.15768	0.04634
3715.87191	0.04697
3714.58614	0.04706
3713.30037	0.04634
3712.01460	0.04505
3710.72883	0.04372
3709.44307	0.04284
3708.15730	0.04269
3706.87153	0.04324
3705.58576	0.04416
3704.29999	0.04493
3703.01422	0.04524
3701.72845	0.04523
3700.44268	0.04534
3699.15691	0.04576
3697.87115	0.04624
3696.58538	0.04644
3695.29961	0.04637
3694.01384	0.04625
3692.72807	0.04615
3691.44230	0.04578
3690.15653	0.04481
3688.87076	0.04345
3687.58500	0.04241
3686.29923	0.04214
3685.01346	0.04237
3683.72769	0.04260
3682.44192	0.04256
3681.15615	0.04235
3679.87038	0.04219
3678.58461	0.04211
3677.29884	0.04211
3676.01308	0.04241
3674.72731	0.04327
3673.44154	0.04451
3672.15577	0.04555
3670.87000	0.04596
3669.58423	0.04569
3668.29846	0.04472
3667.01269	0.04320
3665.72693	0.04149
3664.44116	0.04015
3663.15539	0.03972
3661.86962	0.04045
3660.58385	0.04208
3659.29808	0.04380
3658.01231	0.04469
3656.72654	0.04443
3655.44077	0.04362
3654.15501	0.04314
3652.86924	0.04331
3651.58347	0.04378
3650.29770	0.04399
3649.01193	0.04368
3647.72616	0.04306
3646.44039	0.04263
3645.15462	0.04279
3643.86886	0.04351
3642.58309	0.04447
3641.29732	0.04531
3640.01155	0.04592
3638.72578	0.04636
3637.44001	0.04667
3636.15424	0.04679
3634.86847	0.04668
3633.58270	0.04645
3632.29694	0.04608
3631.01117	0.04547
3629.72540	0.04477
3628.43963	0.04434
3627.15386	0.04433
3625.86809	0.04443
3624.58232	0.04443
3623.29655	0.04448
3622.01079	0.04481
3620.72502	0.04538
3619.43925	0.04592
3618.15348	0.04623
3616.86771	0.04629
3615.58194	0.04607
3614.29617	0.04540
3613.01040	0.04429
3611.72463	0.04310
3610.43887	0.04243
3609.15310	0.04265
3607.86733	0.04351
3606.58156	0.04442
3605.29579	0.04496
3604.01002	0.04522
3602.72425	0.04560
3601.43848	0.04636
3600.15272	0.04735
3598.86695	0.04809
3597.58118	0.04816
3596.29541	0.04763
3595.00964	0.04700
3593.72387	0.04678
3592.43810	0.04694
3591.15233	0.04718
3589.86656	0.04742
3588.58080	0.04778
3587.29503	0.04821
3586.00926	0.04837
3584.72349	0.04804
3583.43772	0.04742
3582.15195	0.04690
3580.86618	0.04668
3579.58041	0.04673
3578.29464	0.04684
3577.00888	0.04691
3575.72311	0.04696
3574.43734	0.04708
3573.15157	0.04726
3571.86580	0.04742
3570.58003	0.04759
3569.29426	0.04784
3568.00849	0.04808
3566.72273	0.04812
3565.43696	0.04797
3564.15119	0.04794
3562.86542	0.04827
3561.57965	0.04878
3560.29388	0.04911
3559.00811	0.04906
3557.72234	0.04863
3556.43657	0.04798
3555.15081	0.04738
3553.86504	0.04714
3552.57927	0.04733
3551.29350	0.04772
3550.00773	0.04800
3548.72196	0.04816
3547.43619	0.04845
3546.15042	0.04896
3544.86466	0.04943
3543.57889	0.04961
3542.29312	0.04964
3541.00735	0.04989
3539.72158	0.05042
3538.43581	0.05080
3537.15004	0.05057
3535.86427	0.04972
3534.57850	0.04871
3533.29274	0.04811
3532.00697	0.04818
3530.72120	0.04873
3529.43543	0.04929
3528.14966	0.04956
3526.86389	0.04960
3525.57812	0.04963
3524.29235	0.04972
3523.00659	0.04978
3521.72082	0.04973
3520.43505	0.04960
3519.14928	0.04958
3517.86351	0.04985
3516.57774	0.05038
3515.29197	0.05091
3514.00620	0.05119
3512.72043	0.05121
3511.43467	0.05104
3510.14890	0.05078
3508.86313	0.05054
3507.57736	0.05052
3506.29159	0.05092
3505.00582	0.05163
3503.72005	0.05234
3502.43428	0.05275
3501.14852	0.05284
3499.86275	0.05275
3498.57698	0.05263
3497.29121	0.05250
3496.00544	0.05231
3494.71967	0.05205
3493.43390	0.05170
3492.14813	0.05132
3490.86236	0.05110
3489.57660	0.05118
3488.29083	0.05148
3487.00506	0.05169
3485.71929	0.05157
3484.43352	0.05121
3483.14775	0.05088
3481.86198	0.05074
3480.57621	0.05071
3479.29045	0.05070
3478.00468	0.05077
3476.71891	0.05106
3475.43314	0.05158
3474.14737	0.05219
3472.86160	0.05276
3471.57583	0.05321
3470.29006	0.05346
3469.00429	0.05348
3467.71853	0.05344
3466.43276	0.05356
3465.14699	0.05393
3463.86122	0.05425
3462.57545	0.05424
3461.28968	0.05393
3460.00391	0.05367
3458.71814	0.05376
3457.43238	0.05415
3456.14661	0.05460
3454.86084	0.05492
3453.57507	0.05505
3452.28930	0.05505
3451.00353	0.05499
3449.71776	0.05494
3448.43199	0.05491
3447.14622	0.05495
3445.86046	0.05511
3444.57469	0.05538
3443.28892	0.05564
3442.00315	0.05573
3440.71738	0.05561
3439.43161	0.05536
3438.14584	0.05510
3436.86007	0.05493
3435.57431	0.05496
3434.28854	0.05523
3433.00277	0.05566
3431.71700	0.05606
3430.43123	0.05625
3429.14546	0.05627
3427.85969	0.05625
3426.57392	0.05632
3425.28815	0.05649
3424.00239	0.05663
3422.71662	0.05661
3421.43085	0.05643
3420.14508	0.05618
3418.85931	0.05601
3417.57354	0.05594
3416.28777	0.05592
3415.00200	0.05590
3413.71624	0.05584
3412.43047	0.05572
3411.14470	0.05555
3409.85893	0.05545
3408.57316	0.05554
3407.28739	0.05578
3406.00162	0.05594
3404.71585	0.05592
3403.43008	0.05586
3402.14432	0.05600
3400.85855	0.05634
3399.57278	0.05661
3398.28701	0.05673
3397.00124	0.05688
3395.71547	0.05728
3394.42970	0.05795
3393.14393	0.05864
3391.85817	0.05904
3390.57240	0.05896
3389.28663	0.05842
3388.00086	0.05765
3386.71509	0.05698
3385.42932	0.05658
3384.14355	0.05638
3382.85778	0.05622
3381.57201	0.05610
3380.28625	0.05608
3379.00048	0.05623
3377.71471	0.05650
3376.42894	0.05682
3375.14317	0.05712
3373.85740	0.05736
3372.57163	0.05753
3371.28586	0.05758
3370.00010	0.05755
3368.71433	0.05756
3367.42856	0.05773
3366.14279	0.05802
3364.85702	0.05820
3363.57125	0.05814
3362.28548	0.05799
3360.99971	0.05805
3359.71394	0.05840
3358.42818	0.05885
3357.14241	0.05908
3355.85664	0.05898
3354.57087	0.05868
3353.28510	0.05844
3351.99933	0.05844
3350.71356	0.05866
3349.42779	0.05889
3348.14202	0.05885
3346.85626	0.05837
3345.57049	0.05754
3344.28472	0.05672
3342.99895	0.05634
3341.71318	0.05661
3340.42741	0.05736
3339.14164	0.05814
3337.85587	0.05858
3336.57011	0.05862
3335.28434	0.05842
3333.99857	0.05826
3332.71280	0.05834
3331.42703	0.05874
3330.14126	0.05939
3328.85549	0.06012
3327.56972	0.06074
3326.28395	0.06109
3324.99819	0.06112
3323.71242	0.06089
3322.42665	0.06052
3321.14088	0.06013
3319.85511	0.05977
3318.56934	0.05948
3317.28357	0.05923
3315.99780	0.05900
3314.71204	0.05884
3313.42627	0.05885
3312.14050	0.05911
3310.85473	0.05951
3309.56896	0.05979
3308.28319	0.05974
3306.99742	0.05938
3305.71165	0.05888
3304.42588	0.05848
3303.14012	0.05829
3301.85435	0.05823
3300.56858	0.05815
3299.28281	0.05797
3297.99704	0.05777
3296.71127	0.05775
3295.42550	0.05803
3294.13973	0.05854
3292.85397	0.05905
3291.56820	0.05935
3290.28243	0.05931
3288.99666	0.05893
3287.71089	0.05832
3286.42512	0.05769
3285.13935	0.05732
3283.85358	0.05731
3282.56781	0.05758
3281.28205	0.05797
3279.99628	0.05830
3278.71051	0.05844
3277.42474	0.05835
3276.13897	0.05809
3274.85320	0.05780
3273.56743	0.05757
3272.28166	0.05743
3270.99590	0.05740
3269.71013	0.05739
3268.42436	0.05738
3267.13859	0.05740
3265.85282	0.05752
3264.56705	0.05768
3263.28128	0.05773
3261.99551	0.05768
3260.70974	0.05766
3259.42398	0.05774
3258.13821	0.05778
3256.85244	0.05754
3255.56667	0.05702
3254.28090	0.05648
3252.99513	0.05620
3251.70936	0.05622
3250.42359	0.05639
3249.13783	0.05659
3247.85206	0.05679
3246.56629	0.05700
3245.28052	0.05717
3243.99475	0.05729
3242.70898	0.05739
3241.42321	0.05743
3240.13744	0.05731
3238.85167	0.05697
3237.56591	0.05649
3236.28014	0.05604
3234.99437	0.05565
3233.70860	0.05528
3232.42283	0.05492
3231.13706	0.05468
3229.85129	0.05469
3228.56552	0.05498
3227.27976	0.05545
3225.99399	0.05597
3224.70822	0.05642
3223.42245	0.05669
3222.13668	0.05672
3220.85091	0.05653
3219.56514	0.05622
3218.27937	0.05596
3216.99360	0.05578
3215.70784	0.05568
3214.42207	0.05560
3213.13630	0.05547
3211.85053	0.05524
3210.56476	0.05487
3209.27899	0.05443
3207.99322	0.05401
3206.70745	0.05368
3205.42169	0.05353
3204.13592	0.05369
3202.85015	0.05417
3201.56438	0.05480
3200.27861	0.05528
3198.99284	0.05544
3197.70707	0.05539
3196.42130	0.05534
3195.13553	0.05530
3193.84977	0.05507
3192.56400	0.05457
3191.27823	0.05396
3189.99246	0.05352
3188.70669	0.05342
3187.42092	0.05352
3186.13515	0.05359
3184.84938	0.05342
3183.56362	0.05298
3182.27785	0.05245
3180.99208	0.05209
3179.70631	0.05207
3178.42054	0.05235
3177.13477	0.05268
3175.84900	0.05282
3174.56323	0.05275
3173.27746	0.05256
3171.99170	0.05231
3170.70593	0.05197
3169.42016	0.05155
3168.13439	0.05118
3166.84862	0.05101
3165.56285	0.05113
3164.27708	0.05146
3162.99131	0.05180
3161.70555	0.05185
3160.41978	0.05144
3159.13401	0.05075
3157.84824	0.05016
3156.56247	0.05002
3155.27670	0.05027
3153.99093	0.05055
3152.70516	0.05057
3151.41939	0.05034
3150.13363	0.05008
3148.84786	0.04985
3147.56209	0.04957
3146.27632	0.04926
3144.99055	0.04905
3143.70478	0.04903
3142.41901	0.04912
3141.13324	0.04922
3139.84748	0.04931
3138.56171	0.04943
3137.27594	0.04957
3135.99017	0.04971
3134.70440	0.04981
3133.41863	0.04977
3132.13286	0.04957
3130.84709	0.04930
3129.56132	0.04911
3128.27556	0.04906
3126.98979	0.04907
3125.70402	0.04909
3124.41825	0.04914
3123.13248	0.04922
3121.84671	0.04927
3120.56094	0.04915
3119.27517	0.04886
3117.98940	0.04847
3116.70364	0.04813
3115.41787	0.04785
3114.13210	0.04755
3112.84633	0.04716
3111.56056	0.04681
3110.27479	0.04666
3108.98902	0.04676
3107.70325	0.04702
3106.41749	0.04729
3105.13172	0.04747
3103.84595	0.04743
3102.56018	0.04718
3101.27441	0.04688
3099.98864	0.04674
3098.70287	0.04681
3097.41710	0.04701
3096.13133	0.04723
3094.84557	0.04740
3093.55980	0.04745
3092.27403	0.04736
3090.98826	0.04713
3089.70249	0.04686
3088.41672	0.04664
3087.13095	0.04658
3085.84518	0.04670
3084.55942	0.04691
3083.27365	0.04704
3081.98788	0.04696
3080.70211	0.04674
3079.41634	0.04652
3078.13057	0.04638
3076.84480	0.04632
3075.55903	0.04632
3074.27326	0.04647
3072.98750	0.04679
3071.70173	0.04716
3070.41596	0.04731
3069.13019	0.04713
3067.84442	0.04673
3066.55865	0.04629
3065.27288	0.04594
3063.98711	0.04574
3062.70135	0.04579
3061.41558	0.04612
3060.12981	0.04657
3058.84404	0.04683
3057.55827	0.04672
3056.27250	0.04635
3054.98673	0.04601
3053.70096	0.04590
3052.41519	0.04597
3051.12943	0.04607
3049.84366	0.04608
3048.55789	0.04598
3047.27212	0.04572
3045.98635	0.04529
3044.70058	0.04472
3043.41481	0.04416
3042.12904	0.04383
3040.84328	0.04382
3039.55751	0.04405
3038.27174	0.04437
3036.98597	0.04461
3035.70020	0.04465
3034.41443	0.04450
3033.12866	0.04423
3031.84289	0.04399
3030.55712	0.04389
3029.27136	0.04396
3027.98559	0.04412
3026.69982	0.04426
3025.41405	0.04430
3024.12828	0.04425
3022.84251	0.04415
3021.55674	0.04401
3020.27097	0.04384
3018.98521	0.04364
3017.69944	0.04347
3016.41367	0.04340
3015.12790	0.04344
3013.84213	0.04356
3012.55636	0.04365
3011.27059	0.04364
3009.98482	0.04356
3008.69905	0.04346
3007.41329	0.04339
3006.12752	0.04330
3004.84175	0.04314
3003.55598	0.04288
3002.27021	0.04261
3000.98444	0.04238
2999.69867	0.04225
2998.41290	0.04231
2997.12714	0.04250
2995.84137	0.04265
2994.55560	0.04266
2993.26983	0.04261
2991.98406	0.04265
2990.69829	0.04273
2989.41252	0.04272
2988.12675	0.04258
2986.84098	0.04244
2985.55522	0.04242
2984.26945	0.04252
2982.98368	0.04269
2981.69791	0.04289
2980.41214	0.04311
2979.12637	0.04328
2977.84060	0.04335
2976.55483	0.04333
2975.26907	0.04324
2973.98330	0.04314
2972.69753	0.04307
2971.41176	0.04312
2970.12599	0.04332
2968.84022	0.04360
2967.55445	0.04384
2966.26868	0.04397
2964.98291	0.04399
2963.69715	0.04396
2962.41138	0.04394
2961.12561	0.04401
2959.83984	0.04411
2958.55407	0.04416
2957.26830	0.04416
2955.98253	0.04425
2954.69676	0.04454
2953.41100	0.04499
2952.12523	0.04543
2950.83946	0.04573
2949.55369	0.04587
2948.26792	0.04594
2946.98215	0.04597
2945.69638	0.04598
2944.41061	0.04596
2943.12484	0.04594
2941.83908	0.04592
2940.55331	0.04583
2939.26754	0.04562
2937.98177	0.04537
2936.69600	0.04523
2935.41023	0.04528
2934.12446	0.04543
2932.83869	0.04554
2931.55293	0.04561
2930.26716	0.04574
2928.98139	0.04592
2927.69562	0.04603
2926.40985	0.04602
2925.12408	0.04598
2923.83831	0.04602
2922.55254	0.04610
2921.26677	0.04612
2919.98101	0.04603
2918.69524	0.04589
2917.40947	0.04568
2916.12370	0.04538
2914.83793	0.04501
2913.55216	0.04469
2912.26639	0.04446
2910.98062	0.04433
2909.69486	0.04432
2908.40909	0.04441
2907.12332	0.04451
2905.83755	0.04446
2904.55178	0.04421
2903.26601	0.04383
2901.98024	0.04346
2900.69447	0.04321
2899.40870	0.04311
2898.12294	0.04313
2896.83717	0.04320
2895.55140	0.04321
2894.26563	0.04310
2892.97986	0.04292
2891.69409	0.04281
2890.40832	0.04279
2889.12255	0.04275
2887.83678	0.04259
2886.55102	0.04236
2885.26525	0.04221
2883.97948	0.04216
2882.69371	0.04211
2881.40794	0.04204
2880.12217	0.04204
2878.83640	0.04224
2877.55063	0.04260
2876.26487	0.04292
2874.97910	0.04304
2873.69333	0.04287
2872.40756	0.04250
2871.12179	0.04210
2869.83602	0.04181
2868.55025	0.04168
2867.26448	0.04168
2865.97871	0.04179
2864.69295	0.04198
2863.40718	0.04207
2862.12141	0.04187
2860.83564	0.04139
2859.54987	0.04092
2858.26410	0.04071
2856.97833	0.04073
2855.69256	0.04073
2854.40680	0.04055
2853.12103	0.04028
2851.83526	0.04008
2850.54949	0.03998
2849.26372	0.03994
2847.97795	0.03990
2846.69218	0.03982
2845.40641	0.03973
2844.12064	0.03967
2842.83488	0.03966
2841.54911	0.03961
2840.26334	0.03943
2838.97757	0.03913
2837.69180	0.03885
2836.40603	0.03864
2835.12026	0.03852
2833.83449	0.03845
2832.54873	0.03836
2831.26296	0.03815
2829.97719	0.03788
2828.69142	0.03768
2827.40565	0.03764
2826.11988	0.03765
2824.83411	0.03758
2823.54834	0.03741
2822.26257	0.03723
2820.97681	0.03711
2819.69104	0.03700
2818.40527	0.03681
2817.11950	0.03655
2815.83373	0.03638
2814.54796	0.03641
2813.26219	0.03662
2811.97642	0.03688
2810.69066	0.03704
2809.40489	0.03702
2808.11912	0.03680
2806.83335	0.03650
2805.54758	0.03628
2804.26181	0.03625
2802.97604	0.03639
2801.69027	0.03659
2800.40450	0.03668
2799.11874	0.03648
2797.83297	0.03604
2796.54720	0.03555
2795.26143	0.03525
2793.97566	0.03521
2792.68989	0.03535
2791.40412	0.03551
2790.11835	0.03560
2788.83259	0.03556
2787.54682	0.03544
2786.26105	0.03534
2784.97528	0.03537
2783.68951	0.03548
2782.40374	0.03556
2781.11797	0.03552
2779.83220	0.03538
2778.54643	0.03523
2777.26067	0.03512
2775.97490	0.03504
2774.68913	0.03495
2773.40336	0.03485
2772.11759	0.03478
2770.83182	0.03473
2769.54605	0.03469
2768.26028	0.03461
2766.97452	0.03450
2765.68875	0.03437
2764.40298	0.03423
2763.11721	0.03409
2761.83144	0.03396
2760.54567	0.03386
2759.25990	0.03381
2757.97413	0.03381
2756.68836	0.03386
2755.40260	0.03392
2754.11683	0.03399
2752.83106	0.03411
2751.54529	0.03431
2750.25952	0.03448
2748.97375	0.03451
2747.68798	0.03435
2746.40221	0.03411
2745.11645	0.03394
2743.83068	0.03390
2742.54491	0.03393
2741.25914	0.03392
2739.97337	0.03384
2738.68760	0.03373
2737.40183	0.03364
2736.11606	0.03363
2734.83029	0.03362
2733.54453	0.03351
2732.25876	0.03326
2730.97299	0.03296
2729.68722	0.03279
2728.40145	0.03279
2727.11568	0.03292
2725.82991	0.03305
2724.54414	0.03309
2723.25838	0.03304
2721.97261	0.03293
2720.68684	0.03285
2719.40107	0.03283
2718.11530	0.03286
2716.82953	0.03292
2715.54376	0.03298
2714.25799	0.03300
2712.97222	0.03289
2711.68646	0.03268
2710.40069	0.03248
2709.11492	0.03241
2707.82915	0.03247
2706.54338	0.03255
2705.25761	0.03256
2703.97184	0.03251
2702.68607	0.03248
2701.40031	0.03251
2700.11454	0.03256
2698.82877	0.03259
2697.54300	0.03262
2696.25723	0.03265
2694.97146	0.03265
2693.68569	0.03259
2692.39992	0.03253
2691.11415	0.03258
2689.82839	0.03269
2688.54262	0.03269
2687.25685	0.03248
2685.97108	0.03215
2684.68531	0.03187
2683.39954	0.03172
2682.11377	0.03166
2680.82800	0.03162
2679.54224	0.03154
2678.25647	0.03147
2676.97070	0.03148
2675.68493	0.03160
2674.39916	0.03171
2673.11339	0.03173
2671.82762	0.03162
2670.54185	0.03146
2669.25608	0.03134
2667.97032	0.03137
2666.68455	0.03156
2665.39878	0.03181
2664.11301	0.03200
2662.82724	0.03213
2661.54147	0.03234
2660.25570	0.03266
2658.96993	0.03295
2657.68417	0.03304
2656.39840	0.03287
2655.11263	0.03257
2653.82686	0.03232
2652.54109	0.03227
2651.25532	0.03236
2649.96955	0.03241
2648.68378	0.03227
2647.39801	0.03196
2646.11225	0.03163
2644.82648	0.03137
2643.54071	0.03121
2642.25494	0.03112
2640.96917	0.03105
2639.68340	0.03092
2638.39763	0.03070
2637.11186	0.03050
2635.82609	0.03044
2634.54033	0.03059
2633.25456	0.03082
2631.96879	0.03100
2630.68302	0.03101
2629.39725	0.03085
2628.11148	0.03055
2626.82571	0.03019
2625.53994	0.02986
2624.25418	0.02960
2622.96841	0.02946
2621.68264	0.02942
2620.39687	0.02941
2619.11110	0.02940
2617.82533	0.02936
2616.53956	0.02928
2615.25379	0.02911
2613.96802	0.02886
2612.68226	0.02860
2611.39649	0.02835
2610.11072	0.02814
2608.82495	0.02801
2607.53918	0.02804
2606.25341	0.02823
2604.96764	0.02842
2603.68187	0.02838
2602.39611	0.02806
2601.11034	0.02766
2599.82457	0.02747
2598.53880	0.02762
2597.25303	0.02797
2595.96726	0.02824
2594.68149	0.02821
2593.39572	0.02792
2592.10995	0.02763
2590.82419	0.02760
2589.53842	0.02783
2588.25265	0.02810
2586.96688	0.02821
2585.68111	0.02815
2584.39534	0.02796
2583.10957	0.02778
2581.82380	0.02772
2580.53804	0.02781
2579.25227	0.02786
2577.96650	0.02765
2576.68073	0.02723
2575.39496	0.02685
2574.10919	0.02666
2572.82342	0.02658
2571.53765	0.02647
2570.25188	0.02636
2568.96612	0.02638
2567.68035	0.02655
2566.39458	0.02673
2565.10881	0.02675
2563.82304	0.02653
2562.53727	0.02620
2561.25150	0.02597
2559.96573	0.02594
2558.67997	0.02598
2557.39420	0.02592
2556.10843	0.02581
2554.82266	0.02584
2553.53689	0.02606
2552.25112	0.02629
2550.96535	0.02627
2549.67958	0.02597
2548.39381	0.02560
2547.10805	0.02544
2545.82228	0.02558
2544.53651	0.02586
2543.25074	0.02609
2541.96497	0.02618
2540.67920	0.02614
2539.39343	0.02607
2538.10766	0.02613
2536.82190	0.02633
2535.53613	0.02649
2534.25036	0.02630
2532.96459	0.02576
2531.67882	0.02519
2530.39305	0.02501
2529.10728	0.02528
2527.82151	0.02575
2526.53574	0.02601
2525.24998	0.02587
2523.96421	0.02544
2522.67844	0.02497
2521.39267	0.02461
2520.10690	0.02434
2518.82113	0.02414
2517.53536	0.02409
2516.24959	0.02425
2514.96383	0.02462
2513.67806	0.02504
2512.39229	0.02536
2511.10652	0.02548
2509.82075	0.02542
2508.53498	0.02512
2507.24921	0.02448
2505.96344	0.02355
2504.67767	0.02271
2503.39191	0.02245
2502.10614	0.02290
2500.82037	0.02371
2499.53460	0.02440
2498.24883	0.02475
2496.96306	0.02483
2495.67729	0.02480
2494.39152	0.02469
2493.10576	0.02449
2491.81999	0.02428
2490.53422	0.02417
2489.24845	0.02418
2487.96268	0.02426
2486.67691	0.02438
2485.39114	0.02450
2484.10537	0.02456
2482.81960	0.02448
2481.53384	0.02438
2480.24807	0.02442
2478.96230	0.02468
2477.67653	0.02504
2476.39076	0.02530
2475.10499	0.02533
2473.81922	0.02507
2472.53345	0.02449
2471.24769	0.02371
2469.96192	0.02296
2468.67615	0.02251
2467.39038	0.02249
2466.10461	0.02280
2464.81884	0.02321
2463.53307	0.02352
2462.24730	0.02368
2460.96153	0.02371
2459.67577	0.02364
2458.39000	0.02354
2457.10423	0.02350
2455.81846	0.02361
2454.53269	0.02383
2453.24692	0.02404
2451.96115	0.02410
2450.67538	0.02391
2449.38962	0.02349
2448.10385	0.02302
2446.81808	0.02269
2445.53231	0.02259
2444.24654	0.02259
2442.96077	0.02251
2441.67500	0.02230
2440.38923	0.02209
2439.10346	0.02210
2437.81770	0.02241
2436.53193	0.02284
2435.24616	0.02308
2433.96039	0.02303
2432.67462	0.02288
2431.38885	0.02292
2430.10308	0.02319
2428.81731	0.02353
2427.53155	0.02376
2426.24578	0.02376
2424.96001	0.02346
2423.67424	0.02294
2422.38847	0.02243
2421.10270	0.02219
2419.81693	0.02231
2418.53116	0.02260
2417.24539	0.02280
2415.95963	0.02270
2414.67386	0.02236
2413.38809	0.02200
2412.10232	0.02181
2410.81655	0.02181
2409.53078	0.02187
2408.24501	0.02180
2406.95924	0.02156
2405.67347	0.02128
2404.38771	0.02120
2403.10194	0.02135
2401.81617	0.02153
2400.53040	0.02155
2399.24463	0.02153
2397.95886	0.02147
2396.67309	0.02153
2395.38732	0.02161
2394.10156	0.02158
2392.81579	0.02144
2391.53002	0.02126
2390.24425	0.02109
2388.95848	0.02091
2387.67271	0.02077
2386.38694	0.02072
2385.10117	0.02083
2383.81540	0.02101
2382.52964	0.02117
2381.24387	0.02125
2379.95810	0.02138
2378.67233	0.02152
2377.38656	0.02174
2376.10079	0.02206
2374.81502	0.02237
2373.52925	0.02235
2372.24349	0.02207
2370.95772	0.02175
2369.67195	0.02140
2368.38618	0.02118
2367.10041	0.02131
2365.81464	0.02184
2364.52887	0.02248
2363.24310	0.02286
2361.95733	0.02286
2360.67157	0.02272
2359.38580	0.02271
2358.10003	0.02284
2356.81426	0.02299
2355.52849	0.02319
2354.24272	0.02344
2352.95695	0.02364
2351.67118	0.02347
2350.38542	0.02315
2349.09965	0.02296
2347.81388	0.02278
2346.52811	0.02250
2345.24234	0.02232
2343.95657	0.02240
2342.67080	0.02286
2341.38503	0.02296
2340.09926	0.02284
2338.81350	0.02297
2337.52773	0.02318
2336.24196	0.02291
2334.95619	0.02262
2333.67042	0.02257
2332.38465	0.02267
2331.09888	0.02217
2329.81311	0.02219
2328.52735	0.02280
2327.24158	0.02363
2325.95581	0.02475
2324.67004	0.02568
2323.38427	0.02620
2322.09850	0.02593
2320.81273	0.02536
2319.52696	0.02490
2318.24119	0.02459
2316.95543	0.02424
2315.66966	0.02386
2314.38389	0.02363
2313.09812	0.02349
2311.81235	0.02344
2310.52658	0.02343
2309.24081	0.02335
2307.95504	0.02310
2306.66928	0.02280
2305.38351	0.02254
2304.09774	0.02238
2302.81197	0.02225
2301.52620	0.02211
2300.24043	0.02207
2298.95466	0.02220
2297.66889	0.02242
2296.38312	0.02255
2295.09736	0.02258
2293.81159	0.02271
2292.52582	0.02308
2291.24005	0.02359
2289.95428	0.02396
2288.66851	0.02398
2287.38274	0.02370
2286.09697	0.02331
2284.81121	0.02293
2283.52544	0.02264
2282.23967	0.02241
2280.95390	0.02217
2279.66813	0.02182
2278.38236	0.02134
2277.09659	0.02084
2275.81082	0.02044
2274.52505	0.02015
2273.23929	0.01994
2271.95352	0.01980
2270.66775	0.01971
2269.38198	0.01961
2268.09621	0.01943
2266.81044	0.01922
2265.52467	0.01911
2264.23890	0.01911
2262.95314	0.01914
2261.66737	0.01913
2260.38160	0.01915
2259.09583	0.01928
2257.81006	0.01952
2256.52429	0.01971
2255.23852	0.01972
2253.95275	0.01952
2252.66698	0.01920
2251.38122	0.01883
2250.09545	0.01860
2248.80968	0.01877
2247.52391	0.01899
2246.23814	0.01917
2244.95237	0.01903
2243.66660	0.01857
2242.38083	0.01801
2241.09507	0.01751
2239.80930	0.01705
2238.52353	0.01658
2237.23776	0.01619
2235.95199	0.01600
2234.66622	0.01600
2233.38045	0.01602
2232.09468	0.01592
2230.80891	0.01573
2229.52315	0.01564
2228.23738	0.01576
2226.95161	0.01603
2225.66584	0.01619
2224.38007	0.01600
2223.09430	0.01538
2221.80853	0.01446
2220.52276	0.01344
2219.23700	0.01261
2217.95123	0.01229
2216.66546	0.01267
2215.37969	0.01357
2214.09392	0.01453
2212.80815	0.01515
2211.52238	0.01529
2210.23661	0.01489
2208.95084	0.01413
2207.66508	0.01350
2206.37931	0.01365
2205.09354	0.01467
2203.80777	0.01590
2202.52200	0.01648
2201.23623	0.01615
2199.95046	0.01545
2198.66469	0.01516
2197.37893	0.01555
2196.09316	0.01609
2194.80739	0.01609
2193.52162	0.01533
2192.23585	0.01438
2190.95008	0.01408
2189.66431	0.01480
2188.37854	0.01617
2187.09277	0.01722
2185.80701	0.01716
2184.52124	0.01590
2183.23547	0.01401
2181.94970	0.01217
2180.66393	0.01083
2179.37816	0.01013
2178.09239	0.01001
2176.80662	0.01039
2175.52085	0.01122
2174.23509	0.01237
2172.94932	0.01351
2171.66355	0.01427
2170.37778	0.01447
2169.09201	0.01418
2167.80624	0.01363
2166.52047	0.01313
2165.23470	0.01308
2163.94894	0.01375
2162.66317	0.01476
2161.37740	0.01500
2160.09163	0.01341
2158.80586	0.01006
2157.52009	0.00650
2156.23432	0.00443
2154.94855	0.00433
2153.66278	0.00549
2152.37702	0.00684
2151.09125	0.00763
2149.80548	0.00777
2148.51971	0.00758
2147.23394	0.00737
2145.94817	0.00722
2144.66240	0.00717
2143.37663	0.00741
2142.09087	0.00800
2140.80510	0.00876
2139.51933	0.00935
2138.23356	0.00965
2136.94779	0.00975
2135.66202	0.00992
2134.37625	0.01042
2133.09048	0.01122
2131.80471	0.01193
2130.51895	0.01211
2129.23318	0.01176
2127.94741	0.01127
2126.66164	0.01106
2125.37587	0.01122
2124.09010	0.01150
2122.80433	0.01159
2121.51856	0.01136
2120.23280	0.01106
2118.94703	0.01110
2117.66126	0.01168
2116.37549	0.01260
2115.08972	0.01345
2113.80395	0.01395
2112.51818	0.01412
2111.23241	0.01410
2109.94664	0.01408
2108.66088	0.01413
2107.37511	0.01426
2106.08934	0.01437
2104.80357	0.01436
2103.51780	0.01412
2102.23203	0.01370
2100.94626	0.01330
2099.66049	0.01288
2098.37473	0.01288
2097.08896	0.01309
2095.80319	0.01333
2094.51742	0.01357
2093.23165	0.01382
2091.94588	0.01400
2090.66011	0.01396
2089.37434	0.01365
2088.08857	0.01312
2086.80281	0.01258
2085.51704	0.01224
2084.23127	0.01226
2082.94550	0.01256
2081.65973	0.01292
2080.37396	0.01304
2079.08819	0.01283
2077.80242	0.01236
2076.51666	0.01176
2075.23089	0.01121
2073.94512	0.01091
2072.65935	0.01111
2071.37358	0.01173
2070.08781	0.01234
2068.80204	0.01250
2067.51627	0.01233
2066.23050	0.01231
2064.94474	0.01262
2063.65897	0.01292
2062.37320	0.01287
2061.08743	0.01255
2059.80166	0.01230
2058.51589	0.01227
2057.23012	0.01238
2055.94435	0.01258
2054.65859	0.01288
2053.37282	0.01317
2052.08705	0.01313
2050.80128	0.01245
2049.51551	0.01122
2048.22974	0.00990
2046.94397	0.00891
2045.65820	0.00826
2044.37243	0.00773
2043.08667	0.00725
2041.80090	0.00702
2040.51513	0.00718
2039.22936	0.00753
2037.94359	0.00770
2036.65782	0.00755
2035.37205	0.00734
2034.08628	0.00739
2032.80052	0.00764
2031.51475	0.00765
2030.22898	0.00725
2028.94321	0.00678
2027.65744	0.00667
2026.37167	0.00691
2025.08590	0.00720
2023.80013	0.00747
2022.51436	0.00786
2021.22860	0.00826
2019.94283	0.00819
2018.65706	0.00734
2017.37129	0.00599
2016.08552	0.00484
2014.79975	0.00443
2013.51398	0.00479
2012.22821	0.00555
2010.94245	0.00624
2009.65668	0.00664
2008.37091	0.00696
2007.08514	0.00745
2005.79937	0.00801
2004.51360	0.00827
2003.22783	0.00805
2001.94206	0.00768
2000.65629	0.00761
1999.37053	0.00810
1998.08476	0.00896
1996.79899	0.00983
1995.51322	0.01043
1994.22745	0.01071
1992.94168	0.01077
1991.65591	0.01070
1990.37014	0.01044
1989.08438	0.00992
1987.79861	0.00927
1986.51284	0.00874
1985.22707	0.00841
1983.94130	0.00817
1982.65553	0.00789
1981.36976	0.00759
1980.08399	0.00734
1978.79822	0.00705
1977.51246	0.00655
1976.22669	0.00584
1974.94092	0.00521
1973.65515	0.00498
1972.36938	0.00523
1971.08361	0.00574
1969.79784	0.00620
1968.51207	0.00640
1967.22631	0.00632
1965.94054	0.00613
1964.65477	0.00616
1963.36900	0.00673
1962.08323	0.00775
1960.79746	0.00873
1959.51169	0.00914
1958.22592	0.00888
1956.94015	0.00824
1955.65439	0.00757
1954.36862	0.00709
1953.08285	0.00697
1951.79708	0.00734
1950.51131	0.00816
1949.22554	0.00907
1947.93977	0.00962
1946.65400	0.00964
1945.36823	0.00941
1944.08247	0.00936
1942.79670	0.00963
1941.51093	0.00998
1940.22516	0.01015
1938.93939	0.01010
1937.65362	0.01005
1936.36785	0.01018
1935.08208	0.01046
1933.79632	0.01076
1932.51055	0.01097
1931.22478	0.01103
1929.93901	0.01099
1928.65324	0.01091
1927.36747	0.01089
1926.08170	0.01101
1924.79593	0.01124
1923.51016	0.01152
1922.22440	0.01182
1920.93863	0.01211
1919.65286	0.01238
1918.36709	0.01253
1917.08132	0.01249
1915.79555	0.01225
1914.50978	0.01189
1913.22401	0.01154
1911.93825	0.01127
1910.65248	0.01108
1909.36671	0.01090
1908.08094	0.01072
1906.79517	0.01062
1905.50940	0.01071
1904.22363	0.01096
1902.93786	0.01119
1901.65209	0.01125
1900.36633	0.01120
1899.08056	0.01117
1897.79479	0.01122
1896.50902	0.01129
1895.22325	0.01131
1893.93748	0.01127
1892.65171	0.01119
1891.36594	0.01109
1890.08018	0.01102
1888.79441	0.01102
1887.50864	0.01113
1886.22287	0.01134
1884.93710	0.01158
1883.65133	0.01179
1882.36556	0.01193
1881.07979	0.01195
1879.79402	0.01189
1878.50826	0.01175
1877.22249	0.01155
1875.93672	0.01134
1874.65095	0.01119
1873.36518	0.01120
1872.07941	0.01138
1870.79364	0.01165
1869.50787	0.01189
1868.22211	0.01197
1866.93634	0.01186
1865.65057	0.01161
1864.36480	0.01138
1863.07903	0.01131
1861.79326	0.01143
1860.50749	0.01167
1859.22172	0.01193
1857.93595	0.01211
1856.65019	0.01220
1855.36442	0.01222
1854.07865	0.01218
1852.79288	0.01208
1851.50711	0.01194
1850.22134	0.01181
1848.93557	0.01172
1847.64980	0.01167
1846.36404	0.01164
1845.07827	0.01165
1843.79250	0.01174
1842.50673	0.01188
1841.22096	0.01199
1839.93519	0.01203
1838.64942	0.01206
1837.36365	0.01212
1836.07788	0.01216
1834.79212	0.01213
1833.50635	0.01201
1832.22058	0.01185
1830.93481	0.01172
1829.64904	0.01170
1828.36327	0.01176
1827.07750	0.01180
1825.79173	0.01170
1824.50597	0.01149
1823.22020	0.01133
1821.93443	0.01134
1820.64866	0.01148
1819.36289	0.01156
1818.07712	0.01149
1816.79135	0.01136
1815.50558	0.01132
1814.21981	0.01141
1812.93405	0.01157
1811.64828	0.01176
1810.36251	0.01197
1809.07674	0.01217
1807.79097	0.01227
1806.50520	0.01228
1805.21943	0.01224
1803.93366	0.01221
1802.64790	0.01218
1801.36213	0.01215
1800.07636	0.01213
1798.79059	0.01215
1797.50482	0.01220
1796.21905	0.01225
1794.93328	0.01224
1793.64751	0.01220
1792.36174	0.01220
1791.07598	0.01229
1789.79021	0.01240
1788.50444	0.01243
1787.21867	0.01235
1785.93290	0.01221
1784.64713	0.01212
1783.36136	0.01210
1782.07559	0.01210
1780.78983	0.01206
1779.50406	0.01197
1778.21829	0.01188
1776.93252	0.01185
1775.64675	0.01188
1774.36098	0.01192
1773.07521	0.01193
1771.78944	0.01191
1770.50367	0.01189
1769.21791	0.01191
1767.93214	0.01202
1766.64637	0.01221
1765.36060	0.01237
1764.07483	0.01243
1762.78906	0.01244
1761.50329	0.01249
1760.21752	0.01257
1758.93176	0.01258
1757.64599	0.01247
1756.36022	0.01232
1755.07445	0.01222
1753.78868	0.01217
1752.50291	0.01215
1751.21714	0.01216
1749.93137	0.01225
1748.64560	0.01236
1747.35984	0.01243
1746.07407	0.01241
1744.78830	0.01231
1743.50253	0.01218
1742.21676	0.01210
1740.93099	0.01208
1739.64522	0.01216
1738.35945	0.01231
1737.07369	0.01244
1735.78792	0.01246
1734.50215	0.01239
1733.21638	0.01235
1731.93061	0.01236
1730.64484	0.01236
1729.35907	0.01233
1728.07330	0.01232
1726.78753	0.01237
1725.50177	0.01247
1724.21600	0.01267
1722.93023	0.01294
1721.64446	0.01323
1720.35869	0.01340
1719.07292	0.01341
1717.78715	0.01337
1716.50138	0.01341
1715.21561	0.01356
1713.92985	0.01375
1712.64408	0.01395
1711.35831	0.01414
1710.07254	0.01437
1708.78677	0.01467
1707.50100	0.01504
1706.21523	0.01548
1704.92946	0.01604
1703.64370	0.01668
1702.35793	0.01731
1701.07216	0.01793
1699.78639	0.01863
1698.50062	0.01934
1697.21485	0.01992
1695.92908	0.02041
1694.64331	0.02101
1693.35754	0.02176
1692.07178	0.02255
1690.78601	0.02336
1689.50024	0.02421
1688.21447	0.02505
1686.92870	0.02574
1685.64293	0.02629
1684.35716	0.02686
1683.07139	0.02762
1681.78563	0.02850
1680.49986	0.02937
1679.21409	0.03020
1677.92832	0.03099
1676.64255	0.03172
1675.35678	0.03247
1674.07101	0.03328
1672.78524	0.03411
1671.49947	0.03487
1670.21371	0.03553
1668.92794	0.03615
1667.64217	0.03678
1666.35640	0.03743
1665.07063	0.03806
1663.78486	0.03867
1662.49909	0.03930
1661.21332	0.03994
1659.92756	0.04057
1658.64179	0.04120
1657.35602	0.04180
1656.07025	0.04229
1654.78448	0.04254
1653.49871	0.04267
1652.21294	0.04296
1650.92717	0.04348
1649.64140	0.04400
1648.35564	0.04434
1647.06987	0.04452
1645.78410	0.04464
1644.49833	0.04476
1643.21256	0.04482
1641.92679	0.04482
1640.64102	0.04476
1639.35525	0.04468
1638.06949	0.04451
1636.78372	0.04422
1635.49795	0.04388
1634.21218	0.04357
1632.92641	0.04326
1631.64064	0.04286
1630.35487	0.04234
1629.06910	0.04175
1627.78333	0.04117
1626.49757	0.04060
1625.21180	0.04000
1623.92603	0.03933
1622.64026	0.03868
1621.35449	0.03811
1620.06872	0.03760
1618.78295	0.03701
1617.49718	0.03631
1616.21142	0.03556
1614.92565	0.03484
1613.63988	0.03417
1612.35411	0.03356
1611.06834	0.03303
1609.78257	0.03260
1608.49680	0.03223
1607.21103	0.03190
1605.92526	0.03155
1604.63950	0.03116
1603.35373	0.03077
1602.06796	0.03046
1600.78219	0.03027
1599.49642	0.03018
1598.21065	0.03012
1596.92488	0.03009
1595.63911	0.03006
1594.35335	0.03003
1593.06758	0.02997
1591.78181	0.02991
1590.49604	0.02988
1589.21027	0.02990
1587.92450	0.03000
1586.63873	0.03016
1585.35296	0.03036
1584.06719	0.03058
1582.78143	0.03079
1581.49566	0.03099
1580.20989	0.03122
1578.92412	0.03145
1577.63835	0.03163
1576.35258	0.03180
1575.06681	0.03206
1573.78104	0.03238
1572.49528	0.03269
1571.20951	0.03297
1569.92374	0.03327
1568.63797	0.03360
1567.35220	0.03391
1566.06643	0.03419
1564.78066	0.03449
1563.49489	0.03485
1562.20912	0.03516
1560.92336	0.03533
1559.63759	0.03540
1558.35182	0.03555
1557.06605	0.03584
1555.78028	0.03613
1554.49451	0.03640
1553.20874	0.03667
1551.92297	0.03696
1550.63721	0.03723
1549.35144	0.03745
1548.06567	0.03762
1546.77990	0.03773
1545.49413	0.03780
1544.20836	0.03789
1542.92259	0.03797
1541.63682	0.03798
1540.35105	0.03792
1539.06529	0.03791
1537.77952	0.03801
1536.49375	0.03811
1535.20798	0.03815
1533.92221	0.03818
1532.63644	0.03830
1531.35067	0.03849
1530.06490	0.03864
1528.77914	0.03874
1527.49337	0.03885
1526.20760	0.03902
1524.92183	0.03929
1523.63606	0.03954
1522.35029	0.03971
1521.06452	0.03984
1519.77875	0.04002
1518.49298	0.04024
1517.20722	0.04050
1515.92145	0.04082
1514.63568	0.04118
1513.34991	0.04152
1512.06414	0.04190
1510.77837	0.04231
1509.49260	0.04270
1508.20683	0.04296
1506.92107	0.04313
1505.63530	0.04337
1504.34953	0.04371
1503.06376	0.04406
1501.77799	0.04436
1500.49222	0.04461
1499.20645	0.04484
1497.92068	0.04504
1496.63491	0.04520
1495.34915	0.04535
1494.06338	0.04551
1492.77761	0.04565
1491.49184	0.04578
1490.20607	0.04595
1488.92030	0.04619
1487.63453	0.04650
1486.34876	0.04692
1485.06299	0.04742
1483.77723	0.04796
1482.49146	0.04850
1481.20569	0.04905
1479.91992	0.04961
1478.63415	0.05020
1477.34838	0.05082
1476.06261	0.05143
1474.77684	0.05194
1473.49108	0.05236
1472.20531	0.05272
1470.91954	0.05310
1469.63377	0.05347
1468.34800	0.05380
1467.06223	0.05406
1465.77646	0.05425
1464.49069	0.05442
1463.20492	0.05460
1461.91916	0.05481
1460.63339	0.05505
1459.34762	0.05529
1458.06185	0.05553
1456.77608	0.05585
1455.49031	0.05629
1454.20454	0.05678
1452.91877	0.05723
1451.63301	0.05760
1450.34724	0.05788
1449.06147	0.05808
1447.77570	0.05820
1446.48993	0.05827
1445.20416	0.05826
1443.91839	0.05819
1442.63262	0.05809
1441.34685	0.05799
1440.06109	0.05788
1438.77532	0.05772
1437.48955	0.05751
1436.20378	0.05732
1434.91801	0.05724
1433.63224	0.05729
1432.34647	0.05746
1431.06070	0.05777
1429.77494	0.05821
1428.48917	0.05873
1427.20340	0.05931
1425.91763	0.05991
1424.63186	0.06057
1423.34609	0.06127
1422.06032	0.06197
1420.77455	0.06260
1419.48878	0.06317
1418.20302	0.06373
1416.91725	0.06426
1415.63148	0.06471
1414.34571	0.06508
1413.05994	0.06537
1411.77417	0.06557
1410.48840	0.06566
1409.20263	0.06567
1407.91687	0.06561
1406.63110	0.06547
1405.34533	0.06523
1404.05956	0.06489
1402.77379	0.06442
1401.48802	0.06381
1400.20225	0.06310
1398.91648	0.06236
1397.63071	0.06166
1396.34495	0.06093
1395.05918	0.06015
1393.77341	0.05931
1392.48764	0.05849
1391.20187	0.05767
1389.91610	0.05684
1388.63033	0.05592
1387.34456	0.05493
1386.05880	0.05391
1384.77303	0.05289
1383.48726	0.05190
1382.20149	0.05093
1380.91572	0.04995
1379.62995	0.04894
1378.34418	0.04792
1377.05841	0.04688
1375.77264	0.04583
1374.48688	0.04476
1373.20111	0.04372
1371.91534	0.04272
1370.62957	0.04174
1369.34380	0.04077
1368.05803	0.03983
1366.77226	0.03892
1365.48649	0.03805
1364.20073	0.03722
1362.91496	0.03642
1361.62919	0.03568
1360.34342	0.03499
1359.05765	0.03434
1357.77188	0.03374
1356.48611	0.03318
1355.20034	0.03269
1353.91457	0.03223
1352.62881	0.03180
1351.34304	0.03139
1350.05727	0.03100
1348.77150	0.03061
1347.48573	0.03024
1346.19996	0.02990
1344.91419	0.02960
1343.62842	0.02936
1342.34266	0.02917
1341.05689	0.02899
1339.77112	0.02881
1338.48535	0.02863
1337.19958	0.02844
1335.91381	0.02822
1334.62804	0.02800
1333.34227	0.02778
1332.05650	0.02760
1330.77074	0.02743
1329.48497	0.02724
1328.19920	0.02700
1326.91343	0.02672
1325.62766	0.02645
1324.34189	0.02619
1323.05612	0.02596
1321.77035	0.02572
1320.48459	0.02548
1319.19882	0.02526
1317.91305	0.02508
1316.62728	0.02492
1315.34151	0.02475
1314.05574	0.02457
1312.76997	0.02439
1311.48420	0.02420
1310.19843	0.02400
1308.91267	0.02378
1307.62690	0.02357
1306.34113	0.02336
1305.05536	0.02316
1303.76959	0.02296
1302.48382	0.02275
1301.19805	0.02257
1299.91228	0.02241
1298.62652	0.02226
1297.34075	0.02210
1296.05498	0.02194
1294.76921	0.02179
1293.48344	0.02170
1292.19767	0.02167
1290.91190	0.02167
1289.62613	0.02165
1288.34036	0.02159
1287.05460	0.02148
1285.76883	0.02136
1284.48306	0.02124
1283.19729	0.02115
1281.91152	0.02108
1280.62575	0.02103
1279.33998	0.02097
1278.05421	0.02089
1276.76845	0.02081
1275.48268	0.02075
1274.19691	0.02068
1272.91114	0.02060
1271.62537	0.02048
1270.33960	0.02034
1269.05383	0.02020
1267.76806	0.02009
1266.48229	0.02003
1265.19653	0.02002
1263.91076	0.02004
1262.62499	0.02008
1261.33922	0.02010
1260.05345	0.02011
1258.76768	0.02012
1257.48191	0.02011
1256.19614	0.02009
1254.91037	0.02004
1253.62461	0.01996
1252.33884	0.01989
1251.05307	0.01984
1249.76730	0.01982
1248.48153	0.01982
1247.19576	0.01984
1245.90999	0.01985
1244.62422	0.01985
1243.33846	0.01981
1242.05269	0.01975
1240.76692	0.01967
1239.48115	0.01957
1238.19538	0.01947
1236.90961	0.01936
1235.62384	0.01928
1234.33807	0.01920
1233.05230	0.01911
1231.76654	0.01896
1230.48077	0.01873
1229.19500	0.01846
1227.90923	0.01819
1226.62346	0.01799
1225.33769	0.01786
1224.05192	0.01775
1222.76615	0.01758
1221.48039	0.01736
1220.19462	0.01712
1218.90885	0.01688
1217.62308	0.01664
1216.33731	0.01642
1215.05154	0.01626
1213.76577	0.01614
1212.48000	0.01603
1211.19423	0.01591
1209.90847	0.01581
1208.62270	0.01574
1207.33693	0.01568
1206.05116	0.01563
1204.76539	0.01560
1203.47962	0.01559
1202.19385	0.01557
1200.90808	0.01553
1199.62232	0.01546
1198.33655	0.01531
1197.05078	0.01516
1195.76501	0.01503
1194.47924	0.01488
1193.19347	0.01472
1191.90770	0.01454
1190.62193	0.01437
1189.33616	0.01421
1188.05040	0.01403
1186.76463	0.01386
1185.47886	0.01372
1184.19309	0.01363
1182.90732	0.01359
1181.62155	0.01354
1180.33578	0.01349
1179.05001	0.01346
1177.76425	0.01345
1176.47848	0.01343
1175.19271	0.01339
1173.90694	0.01334
1172.62117	0.01329
1171.33540	0.01326
1170.04963	0.01323
1168.76386	0.01322
1167.47809	0.01325
1166.19233	0.01331
1164.90656	0.01342
1163.62079	0.01353
1162.33502	0.01358
1161.04925	0.01354
1159.76348	0.01344
1158.47771	0.01336
1157.19194	0.01338
1155.90618	0.01348
1154.62041	0.01361
1153.33464	0.01369
1152.04887	0.01373
1150.76310	0.01379
1149.47733	0.01389
1148.19156	0.01405
1146.90579	0.01423
1145.62002	0.01442
1144.33426	0.01463
1143.04849	0.01487
1141.76272	0.01513
1140.47695	0.01543
1139.19118	0.01582
1137.90541	0.01633
1136.61964	0.01697
1135.33387	0.01770
1134.04811	0.01845
1132.76234	0.01919
1131.47657	0.01999
1130.19080	0.02092
1128.90503	0.02203
1127.61926	0.02330
1126.33349	0.02469
1125.04772	0.02620
1123.76195	0.02782
1122.47619	0.02957
1121.19042	0.03143
1119.90465	0.03335
1118.61888	0.03525
1117.33311	0.03709
1116.04734	0.03893
1114.76157	0.04084
1113.47580	0.04284
1112.19004	0.04491
1110.90427	0.04696
1109.61850	0.04889
1108.33273	0.05067
1107.04696	0.05231
1105.76119	0.05389
1104.47542	0.05546
1103.18965	0.05701
1101.90388	0.05856
1100.61812	0.06011
1099.33235	0.06162
1098.04658	0.06304
1096.76081	0.06434
1095.47504	0.06555
1094.18927	0.06672
1092.90350	0.06780
1091.61773	0.06881
1090.33197	0.06978
1089.04620	0.07076
1087.76043	0.07175
1086.47466	0.07271
1085.18889	0.07366
1083.90312	0.07464
1082.61735	0.07572
1081.33158	0.07690
1080.04581	0.07816
1078.76005	0.07947
1077.47428	0.08084
1076.18851	0.08227
1074.90274	0.08378
1073.61697	0.08536
1072.33120	0.08701
1071.04543	0.08870
1069.75966	0.09039
1068.47390	0.09208
1067.18813	0.09377
1065.90236	0.09554
1064.61659	0.09740
1063.33082	0.09932
1062.04505	0.10119
1060.75928	0.10297
1059.47351	0.10464
1058.18774	0.10628
1056.90198	0.10792
1055.61621	0.10959
1054.33044	0.11125
1053.04467	0.11286
1051.75890	0.11441
1050.47313	0.11594
1049.18736	0.11749
1047.90159	0.11907
1046.61583	0.12067
1045.33006	0.12231
1044.04429	0.12397
1042.75852	0.12569
1041.47275	0.12748
1040.18698	0.12930
1038.90121	0.13108
1037.61544	0.13277
1036.32967	0.13436
1035.04391	0.13593
1033.75814	0.13750
1032.47237	0.13902
1031.18660	0.14039
1029.90083	0.14159
1028.61506	0.14263
1027.32929	0.14355
1026.04352	0.14435
1024.75775	0.14496
1023.47199	0.14541
1022.18622	0.14572
1020.90045	0.14588
1019.61468	0.14584
1018.32891	0.14554
1017.04314	0.14500
1015.75737	0.14428
1014.47160	0.14338
1013.18584	0.14227
1011.90007	0.14088
1010.61430	0.13926
1009.32853	0.13746
1008.04276	0.13552
1006.75699	0.13341
1005.47122	0.13106
1004.18545	0.12842
1002.89968	0.12548
1001.61392	0.12234
1000.32815	0.11913
999.04238	0.11595
997.75661	0.11283
996.47084	0.10972
995.18507	0.10656
993.89930	0.10334
992.61353	0.10010
991.32777	0.09686
990.04200	0.09368
988.75623	0.09058
987.47046	0.08762
986.18469	0.08481
984.89892	0.08214
983.61315	0.07962
982.32738	0.07721
981.04161	0.07491
979.75585	0.07275
978.47008	0.07076
977.18431	0.06889
975.89854	0.06713
974.61277	0.06548
973.32700	0.06404
972.04123	0.06290
970.75546	0.06209
969.46970	0.06162
968.18393	0.06142
966.89816	0.06143
965.61239	0.06154
964.32662	0.06172
963.04085	0.06193
961.75508	0.06210
960.46931	0.06213
959.18354	0.06194
957.89778	0.06147
956.61201	0.06072
955.32624	0.05973
954.04047	0.05859
952.75470	0.05741
951.46893	0.05626
950.18316	0.05517
948.89739	0.05414
947.61163	0.05312
946.32586	0.05206
945.04009	0.05090
943.75432	0.04973
942.46855	0.04863
941.18278	0.04769
939.89701	0.04684
938.61124	0.04601
937.32547	0.04518
936.03971	0.04440
934.75394	0.04369
933.46817	0.04304
932.18240	0.04235
930.89663	0.04163
929.61086	0.04091
928.32509	0.04026
927.03932	0.03967
925.75356	0.03915
924.46779	0.03868
923.18202	0.03827
921.89625	0.03794
920.61048	0.03765
919.32471	0.03735
918.03894	0.03697
916.75317	0.03648
915.46740	0.03594
914.18164	0.03541
912.89587	0.03495
911.61010	0.03452
910.32433	0.03412
909.03856	0.03379
907.75279	0.03357
906.46702	0.03338
905.18125	0.03316
903.89549	0.03288
902.60972	0.03257
901.32395	0.03227
900.03818	0.03198
898.75241	0.03169
897.46664	0.03145
896.18087	0.03128
894.89510	0.03116
893.60933	0.03104
892.32357	0.03088
891.03780	0.03070
889.75203	0.03055
888.46626	0.03054
887.18049	0.03075
885.89472	0.03120
884.60895	0.03198
883.32318	0.03311
882.03742	0.03454
880.75165	0.03600
879.46588	0.03723
878.18011	0.03816
876.89434	0.03895
875.60857	0.03985
874.32280	0.04091
873.03703	0.04192
871.75126	0.04262
870.46550	0.04281
869.17973	0.04248
867.89396	0.04170
866.60819	0.04059
865.32242	0.03926
864.03665	0.03784
862.75088	0.03650
861.46511	0.03533
860.17935	0.03435
858.89358	0.03352
857.60781	0.03278
856.32204	0.03212
855.03627	0.03154
853.75050	0.03104
852.46473	0.03061
851.17896	0.03027
849.89319	0.03000
848.60743	0.02977
847.32166	0.02953
846.03589	0.02926
844.75012	0.02894
843.46435	0.02861
842.17858	0.02833
840.89281	0.02810
839.60704	0.02789
838.32128	0.02767
837.03551	0.02747
835.74974	0.02732
834.46397	0.02722
833.17820	0.02713
831.89243	0.02701
830.60666	0.02688
829.32089	0.02675
828.03512	0.02665
826.74936	0.02658
825.46359	0.02650
824.17782	0.02636
822.89205	0.02615
821.60628	0.02595
820.32051	0.02583
819.03474	0.02575
817.74897	0.02562
816.46321	0.02544
815.17744	0.02531
813.89167	0.02533
812.60590	0.02545
811.32013	0.02557
810.03436	0.02558
808.74859	0.02547
807.46282	0.02525
806.17705	0.02503
804.89129	0.02490
803.60552	0.02489
802.31975	0.02491
801.03398	0.02488
799.74821	0.02479
798.46244	0.02471
797.17667	0.02473
795.89090	0.02488
794.60513	0.02505
793.31937	0.02512
792.03360	0.02510
790.74783	0.02506
789.46206	0.02508
788.17629	0.02514
786.89052	0.02517
785.60475	0.02511
784.31898	0.02499
783.03322	0.02489
781.74745	0.02486
780.46168	0.02492
779.17591	0.02502
777.89014	0.02514
776.60437	0.02523
775.31860	0.02522
774.03283	0.02508
772.74706	0.02483
771.46130	0.02460
770.17553	0.02446
768.88976	0.02443
767.60399	0.02448
766.31822	0.02454
765.03245	0.02453
763.74668	0.02445
762.46091	0.02435
761.17515	0.02435
759.88938	0.02451
758.60361	0.02475
757.31784	0.02498
756.03207	0.02510
754.74630	0.02511
753.46053	0.02502
752.17476	0.02488
750.88899	0.02474
749.60323	0.02468
748.31746	0.02468
747.03169	0.02468
745.74592	0.02461
744.46015	0.02449
743.17438	0.02440
741.88861	0.02432
740.60284	0.02419
739.31708	0.02404
738.03131	0.02397
736.74554	0.02404
735.45977	0.02424
734.17400	0.02446
732.88823	0.02460
731.60246	0.02455
730.31669	0.02432
729.03092	0.02405
727.74516	0.02395
726.45939	0.02406
725.17362	0.02425
723.88785	0.02436
722.60208	0.02440
721.31631	0.02443
720.03054	0.02447
718.74477	0.02454
717.45901	0.02457
716.17324	0.02454
714.88747	0.02447
713.60170	0.02444
712.31593	0.02446
711.03016	0.02450
709.74439	0.02451
708.45862	0.02448
707.17285	0.02445
705.88709	0.02446
704.60132	0.02449
703.31555	0.02452
702.02978	0.02456
700.74401	0.02461
699.45824	0.02468
698.17247	0.02475
696.88670	0.02476
695.60094	0.02474
694.31517	0.02472
693.02940	0.02475
691.74363	0.02480
690.45786	0.02485
689.17209	0.02482
687.88632	0.02474
686.60055	0.02464
685.31478	0.02456
684.02902	0.02451
682.74325	0.02446
681.45748	0.02442
680.17171	0.02439
678.88594	0.02437
677.60017	0.02434
676.31440	0.02426
675.02863	0.02417
673.74287	0.02411
672.45710	0.02412
671.17133	0.02418
669.88556	0.02429
668.59979	0.02438
667.31402	0.02443
666.02825	0.02440
664.74248	0.02427
663.45671	0.02408
662.17095	0.02389
660.88518	0.02378
659.59941	0.02378
658.31364	0.02385
657.02787	0.02390
655.74210	0.02385
654.45633	0.02372
653.17056	0.02356
651.88480	0.02345
650.59903	0.02339
649.31326	0.02334
648.02749	0.02328
646.74172	0.02320
645.45595	0.02312
644.17018	0.02311
642.88441	0.02317
641.59864	0.02328
640.31288	0.02340
639.02711	0.02348
637.74134	0.02352
636.45557	0.02356
635.16980	0.02368
633.88403	0.02390
632.59826	0.02420
631.31249	0.02447
630.02673	0.02455
628.74096	0.02476
627.45519	0.02570
626.16942	0.02599
624.88365	0.02580
623.59788	0.02564
622.31211	0.02571
621.02634	0.02615
619.74057	0.02730
618.45481	0.02954
617.16904	0.03255
615.88327	0.03551
614.59750	0.03812
613.31173	0.04110
612.02596	0.04513
610.74019	0.04947
609.45442	0.05227
608.16866	0.05273
606.88289	0.05202
605.59712	0.05182
604.31135	0.05294
603.02558	0.05509
601.73981	0.05742
600.45404	0.05908
599.16827	0.05957
597.88250	0.05894
596.59674	0.05756
595.31097	0.05588
594.02520	0.05417
592.73943	0.05263
591.45366	0.05143
590.16789	0.05075
588.88212	0.05063
587.59635	0.05101
586.31059	0.05178
585.02482	0.05284
583.73905	0.05409
582.45328	0.05544
581.16751	0.05687
579.88174	0.05839
578.59597	0.06001
577.31020	0.06164
576.02443	0.06324
574.73867	0.06479
573.45290	0.06629
572.16713	0.06774
570.88136	0.06910
569.59559	0.07045
568.30982	0.07194
567.02405	0.07376
565.73828	0.07588
564.45251	0.07796
563.16675	0.07958
561.88098	0.08043
560.59521	0.08042
559.30944	0.07954
558.02367	0.07781
556.73790	0.07533
555.45213	0.07231
554.16636	0.06902
552.88060	0.06573
551.59483	0.06262
550.30906	0.05976
549.02329	0.05718
547.73752	0.05485
546.45175	0.05269
545.16598	0.05065
543.88021	0.04877
542.59444	0.04714
541.30868	0.04582
540.02291	0.04473
538.73714	0.04372
537.45137	0.04272
536.16560	0.04174
534.87983	0.04080
533.59406	0.03988
532.30829	0.03893
531.02253	0.03798
529.73676	0.03714
528.45099	0.03651
527.16522	0.03608
525.87945	0.03573
524.59368	0.03535
523.30791	0.03488
522.02214	0.03431
520.73637	0.03369
519.45061	0.03307
518.16484	0.03247
516.87907	0.03186
515.59330	0.03126
514.30753	0.03069
513.02176	0.03018
511.73599	0.02972
510.45022	0.02932
509.16446	0.02898
507.87869	0.02869
506.59292	0.02839
505.30715	0.02805
504.02138	0.02773
502.73561	0.02746
501.44984	0.02721
500.16407	0.02692
498.87830	0.02657
497.59254	0.02620
496.30677	0.02587
495.02100	0.02562
493.73523	0.02544
492.44946	0.02530
491.16369	0.02516
489.87792	0.02501
488.59215	0.02486
487.30639	0.02473
486.02062	0.02463
484.73485	0.02453
483.44908	0.02442
482.16331	0.02427
480.87754	0.02411
479.59177	0.02400
478.30600	0.02399
477.02023	0.02404
475.73447	0.02413
474.44870	0.02425
473.16293	0.02441
471.87716	0.02461
470.59139	0.02478
469.30562	0.02480
468.01985	0.02465
466.73408	0.02433
465.44832	0.02394
464.16255	0.02355
462.87678	0.02323
461.59101	0.02297
460.30524	0.02273
459.01947	0.02248
457.73370	0.02223
456.44793	0.02202
455.16216	0.02183
453.87640	0.02164
452.59063	0.02143
451.30486	0.02120
450.01909	0.02097
448.73332	0.02076
447.44755	0.02058
446.16178	0.02042
444.87601	0.02024
443.59025	0.02004
442.30448	0.01981
441.01871	0.01960
439.73294	0.01943
438.44717	0.01929
437.16140	0.01917
435.87563	0.01908
434.58986	0.01900
433.30409	0.01889
432.01833	0.01874
430.73256	0.01859
429.44679	0.01848
428.16102	0.01843
426.87525	0.01839
425.58948	0.01830
424.30371	0.01815
423.01794	0.01800
421.73218	0.01785
420.44641	0.01770
419.16064	0.01754
417.87487	0.01739
416.58910	0.01722
415.30333	0.01703
414.01756	0.01684
412.73179	0.01671
411.44602	0.01664
410.16026	0.01662
408.87449	0.01659
407.58872	0.01656
406.30295	0.01653
405.01718	0.01650
403.73141	0.01645
402.44564	0.01639
401.15987	0.01632
399.87411	0.01626
