3997.45528	0.01532
3996.16951	0.01517
3994.88374	0.01494
3993.59798	0.01463
3992.31221	0.01436
3991.02644	0.01429
3989.74067	0.01449
3988.45490	0.01485
3987.16913	0.01521
3985.88336	0.01556
3984.59759	0.01606
3983.31183	0.01681
3982.02606	0.01768
3980.74029	0.01834
3979.45452	0.01864
3978.16875	0.01872
3976.88298	0.01882
3975.59721	0.01894
3974.31144	0.01885
3973.02567	0.01841
3971.73991	0.01778
3970.45414	0.01723
3969.16837	0.01685
3967.88260	0.01658
3966.59683	0.01636
3965.31106	0.01633
3964.02529	0.01664
3962.73952	0.01732
3961.45376	0.01819
3960.16799	0.01901
3958.88222	0.01956
3957.59645	0.01965
3956.31068	0.01923
3955.02491	0.01847
3953.73914	0.01774
3952.45337	0.01742
3951.16760	0.01752
3949.88184	0.01775
3948.59607	0.01786
3947.31030	0.01785
3946.02453	0.01781
3944.73876	0.01774
3943.45299	0.01752
3942.16722	0.01713
3940.88145	0.01666
3939.59569	0.01634
3938.30992	0.01633
3937.02415	0.01670
3935.73838	0.01732
3934.45261	0.01784
3933.16684	0.01790
3931.88107	0.01738
3930.59530	0.01658
3929.30953	0.01592
3928.02377	0.01559
3926.73800	0.01546
3925.45223	0.01533
3924.16646	0.01534
3922.88069	0.01570
3921.59492	0.01640
3920.30915	0.01705
3919.02338	0.01735
3917.73762	0.01743
3916.45185	0.01774
3915.16608	0.01854
3913.88031	0.01956
3912.59454	0.02026
3911.30877	0.02032
3910.02300	0.01984
3908.73723	0.01921
3907.45146	0.01888
3906.16570	0.01903
3904.87993	0.01943
3903.59416	0.01961
3902.30839	0.01937
3901.02262	0.01898
3899.73685	0.01890
3898.45108	0.01920
3897.16531	0.01958
3895.87955	0.01974
3894.59378	0.01958
3893.30801	0.01916
3892.02224	0.01866
3890.73647	0.01833
3889.45070	0.01832
3888.16493	0.01848
3886.87916	0.01852
3885.59339	0.01833
3884.30763	0.01805
3883.02186	0.01779
3881.73609	0.01754
3880.45032	0.01726
3879.16455	0.01712
3877.87878	0.01734
3876.59301	0.01804
3875.30724	0.01913
3874.02148	0.02036
3872.73571	0.02140
3871.44994	0.02195
3870.16417	0.02197
3868.87840	0.02172
3867.59263	0.02146
3866.30686	0.02111
3865.02109	0.02046
3863.73532	0.01952
3862.44956	0.01867
3861.16379	0.01830
3859.87802	0.01841
3858.59225	0.01869
3857.30648	0.01893
3856.02071	0.01918
3854.73494	0.01959
3853.44917	0.02021
3852.16341	0.02089
3850.87764	0.02139
3849.59187	0.02148
3848.30610	0.02111
3847.02033	0.02043
3845.73456	0.01966
3844.44879	0.01904
3843.16302	0.01877
3841.87725	0.01890
3840.59149	0.01933
3839.30572	0.01973
3838.01995	0.01982
3836.73418	0.01950
3835.44841	0.01902
3834.16264	0.01884
3832.87687	0.01923
3831.59110	0.01997
3830.30534	0.02059
3829.01957	0.02083
3827.73380	0.02083
3826.44803	0.02080
3825.16226	0.02068
3823.87649	0.02030
3822.59072	0.01966
3821.30495	0.01893
3820.01918	0.01837
3818.73342	0.01817
3817.44765	0.01837
3816.16188	0.01878
3814.87611	0.01918
3813.59034	0.01940
3812.30457	0.01949
3811.01880	0.01952
3809.73303	0.01951
3808.44726	0.01936
3807.16150	0.01896
3805.87573	0.01831
3804.58996	0.01760
3803.30419	0.01718
3802.01842	0.01738
3800.73265	0.01823
3799.44688	0.01939
3798.16111	0.02036
3796.87535	0.02080
3795.58958	0.02064
3794.30381	0.02008
3793.01804	0.01947
3791.73227	0.01916
3790.44650	0.01925
3789.16073	0.01959
3787.87496	0.01993
3786.58919	0.02006
3785.30343	0.01985
3784.01766	0.01933
3782.73189	0.01877
3781.44612	0.01855
3780.16035	0.01880
3778.87458	0.01920
3777.58881	0.01924
3776.30304	0.01872
3775.01728	0.01790
3773.73151	0.01729
3772.44574	0.01721
3771.15997	0.01762
3769.87420	0.01815
3768.58843	0.01839
3767.30266	0.01810
3766.01689	0.01746
3764.73112	0.01696
3763.44536	0.01711
3762.15959	0.01797
3760.87382	0.01913
3759.58805	0.01996
3758.30228	0.02010
3757.01651	0.01963
3755.73074	0.01893
3754.44497	0.01833
3753.15921	0.01791
3751.87344	0.01754
3750.58767	0.01717
3749.30190	0.01700
3748.01613	0.01720
3746.73036	0.01758
3745.44459	0.01773
3744.15882	0.01742
3742.87305	0.01689
3741.58729	0.01659
3740.30152	0.01676
3739.01575	0.01729
3737.72998	0.01785
3736.44421	0.01813
3735.15844	0.01803
3733.87267	0.01773
3732.58690	0.01756
3731.30114	0.01773
3730.01537	0.01825
3728.72960	0.01886
3727.44383	0.01922
3726.15806	0.01913
3724.87229	0.01867
3723.58652	0.01826
3722.30075	0.01822
3721.01498	0.01853
3719.72922	0.01880
3718.44345	0.01867
3717.15768	0.01817
3715.87191	0.01775
3714.58614	0.01776
3713.30037	0.01810
3712.01460	0.01822
3710.72883	0.01774
3709.44307	0.01681
3708.15730	0.01592
3706.87153	0.01543
3705.58576	0.01541
3704.29999	0.01571
3703.01422	0.01617
3701.72845	0.01667
3700.44268	0.01711
3699.15691	0.01738
3697.87115	0.01741
3696.58538	0.01719
3695.29961	0.01692
3694.01384	0.01682
3692.72807	0.01692
3691.44230	0.01713
3690.15653	0.01730
3688.87076	0.01738
3687.58500	0.01734
3686.29923	0.01715
3685.01346	0.01670
3683.72769	0.01598
3682.44192	0.01529
3681.15615	0.01515
3679.87038	0.01591
3678.58461	0.01736
3677.29884	0.01875
3676.01308	0.01941
3674.72731	0.01930
3673.44154	0.01894
3672.15577	0.01885
3670.87000	0.01914
3669.58423	0.01949
3668.29846	0.01962
3667.01269	0.01948
3665.72693	0.01921
3664.44116	0.01892
3663.15539	0.01856
3661.86962	0.01806
3660.58385	0.01755
3659.29808	0.01734
3658.01231	0.01762
3656.72654	0.01823
3655.44077	0.01881
3654.15501	0.01917
3652.86924	0.01943
3651.58347	0.01986
3650.29770	0.02049
3649.01193	0.02110
3647.72616	0.02130
3646.44039	0.02092
3645.15462	0.02010
3643.86886	0.01933
3642.58309	0.01907
3641.29732	0.01951
3640.01155	0.02039
3638.72578	0.02123
3637.44001	0.02174
3636.15424	0.02195
3634.86847	0.02212
3633.58270	0.02236
3632.29694	0.02261
3631.01117	0.02281
3629.72540	0.02297
3628.43963	0.02312
3627.15386	0.02321
3625.86809	0.02310
3624.58232	0.02273
3623.29655	0.02228
3622.01079	0.02212
3620.72502	0.02246
3619.43925	0.02314
3618.15348	0.02380
3616.86771	0.02423
3615.58194	0.02451
3614.29617	0.02481
3613.01040	0.02518
3611.72463	0.02542
3610.43887	0.02538
3609.15310	0.02518
3607.86733	0.02522
3606.58156	0.02575
3605.29579	0.02653
3604.01002	0.02697
3602.72425	0.02674
3601.43848	0.02610
3600.15272	0.02561
3598.86695	0.02551
3597.58118	0.02562
3596.29541	0.02569
3595.00964	0.02573
3593.72387	0.02592
3592.43810	0.02641
3591.15233	0.02715
3589.86656	0.02797
3588.58080	0.02864
3587.29503	0.02894
3586.00926	0.02877
3584.72349	0.02817
3583.43772	0.02727
3582.15195	0.02637
3580.86618	0.02582
3579.58041	0.02590
3578.29464	0.02665
3577.00888	0.02782
3575.72311	0.02900
3574.43734	0.02981
3573.15157	0.03010
3571.86580	0.03000
3570.58003	0.02986
3569.29426	0.02991
3568.00849	0.03010
3566.72273	0.03021
3565.43696	0.03017
3564.15119	0.03013
3562.86542	0.03023
3561.57965	0.03047
3560.29388	0.03084
3559.00811	0.03136
3557.72234	0.03205
3556.43657	0.03277
3555.15081	0.03328
3553.86504	0.03342
3552.57927	0.03321
3551.29350	0.03280
3550.00773	0.03246
3548.72196	0.03248
3547.43619	0.03293
3546.15042	0.03363
3544.86466	0.03426
3543.57889	0.03460
3542.29312	0.03459
3541.00735	0.03437
3539.72158	0.03416
3538.43581	0.03417
3537.15004	0.03441
3535.86427	0.03471
3534.57850	0.03495
3533.29274	0.03518
3532.00697	0.03552
3530.72120	0.03594
3529.43543	0.03631
3528.14966	0.03652
3526.86389	0.03655
3525.57812	0.03649
3524.29235	0.03648
3523.00659	0.03661
3521.72082	0.03679
3520.43505	0.03686
3519.14928	0.03681
3517.86351	0.03685
3516.57774	0.03714
3515.29197	0.03764
3514.00620	0.03817
3512.72043	0.03852
3511.43467	0.03857
3510.14890	0.03835
3508.86313	0.03800
3507.57736	0.03776
3506.29159	0.03782
3505.00582	0.03827
3503.72005	0.03904
3502.43428	0.03997
3501.14852	0.04092
3499.86275	0.04172
3498.57698	0.04212
3497.29121	0.04186
3496.00544	0.04096
3494.71967	0.03990
3493.43390	0.03937
3492.14813	0.03971
3490.86236	0.04064
3489.57660	0.04158
3488.29083	0.04210
3487.00506	0.04217
3485.71929	0.04193
3484.43352	0.04149
3483.14775	0.04101
3481.86198	0.04069
3480.57621	0.04071
3479.29045	0.04102
3478.00468	0.04140
3476.71891	0.04162
3475.43314	0.04157
3474.14737	0.04135
3472.86160	0.04116
3471.57583	0.04116
3470.29006	0.04135
3469.00429	0.04160
3467.71853	0.04178
3466.43276	0.04185
3465.14699	0.04191
3463.86122	0.04219
3462.57545	0.04279
3461.28968	0.04355
3460.00391	0.04414
3458.71814	0.04444
3457.43238	0.04465
3456.14661	0.04495
3454.86084	0.04517
3453.57507	0.04502
3452.28930	0.04458
3451.00353	0.04429
3449.71776	0.04449
3448.43199	0.04508
3447.14622	0.04564
3445.86046	0.04588
3444.57469	0.04576
3443.28892	0.04547
3442.00315	0.04520
3440.71738	0.04507
3439.43161	0.04513
3438.14584	0.04532
3436.86007	0.04548
3435.57431	0.04547
3434.28854	0.04539
3433.00277	0.04548
3431.71700	0.04583
3430.43123	0.04634
3429.14546	0.04683
3427.85969	0.04720
3426.57392	0.04743
3425.28815	0.04748
3424.00239	0.04732
3422.71662	0.04696
3421.43085	0.04659
3420.14508	0.04649
3418.85931	0.04675
3417.57354	0.04719
3416.28777	0.04748
3415.00200	0.04746
3413.71624	0.04718
3412.43047	0.04685
3411.14470	0.04677
3409.85893	0.04714
3408.57316	0.04786
3407.28739	0.04856
3406.00162	0.04893
3404.71585	0.04898
3403.43008	0.04901
3402.14432	0.04928
3400.85855	0.04970
3399.57278	0.04992
3398.28701	0.04972
3397.00124	0.04921
3395.71547	0.04879
3394.42970	0.04882
3393.14393	0.04927
3391.85817	0.04980
3390.57240	0.05005
3389.28663	0.05000
3388.00086	0.04988
3386.71509	0.04995
3385.42932	0.05027
3384.14355	0.05067
3382.85778	0.05095
3381.57201	0.05104
3380.28625	0.05100
3379.00048	0.05090
3377.71471	0.05069
3376.42894	0.05035
3375.14317	0.05003
3373.85740	0.04990
3372.57163	0.04998
3371.28586	0.05013
3370.00010	0.05028
3368.71433	0.05045
3367.42856	0.05071
3366.14279	0.05102
3364.85702	0.05127
3363.57125	0.05134
3362.28548	0.05120
3360.99971	0.05103
3359.71394	0.05107
3358.42818	0.05143
3357.14241	0.05194
3355.85664	0.05234
3354.57087	0.05253
3353.28510	0.05257
3351.99933	0.05259
3350.71356	0.05259
3349.42779	0.05248
3348.14202	0.05222
3346.85626	0.05183
3345.57049	0.05142
3344.28472	0.05111
3342.99895	0.05102
3341.71318	0.05125
3340.42741	0.05173
3339.14164	0.05224
3337.85587	0.05247
3336.57011	0.05230
3335.28434	0.05184
3333.99857	0.05142
3332.71280	0.05131
3331.42703	0.05160
3330.14126	0.05211
3328.85549	0.05248
3327.56972	0.05242
3326.28395	0.05196
3324.99819	0.05142
3323.71242	0.05114
3322.42665	0.05120
3321.14088	0.05144
3319.85511	0.05175
3318.56934	0.05212
3317.28357	0.05254
3315.99780	0.05296
3314.71204	0.05335
3313.42627	0.05376
3312.14050	0.05419
3310.85473	0.05452
3309.56896	0.05453
3308.28319	0.05414
3306.99742	0.05354
3305.71165	0.05304
3304.42588	0.05277
3303.14012	0.05259
3301.85435	0.05236
3300.56858	0.05206
3299.28281	0.05182
3297.99704	0.05175
3296.71127	0.05182
3295.42550	0.05191
3294.13973	0.05193
3292.85397	0.05190
3291.56820	0.05197
3290.28243	0.05226
3288.99666	0.05272
3287.71089	0.05311
3286.42512	0.05325
3285.13935	0.05317
3283.85358	0.05297
3282.56781	0.05268
3281.28205	0.05230
3279.99628	0.05188
3278.71051	0.05157
3277.42474	0.05146
3276.13897	0.05149
3274.85320	0.05149
3273.56743	0.05142
3272.28166	0.05138
3270.99590	0.05153
3269.71013	0.05185
3268.42436	0.05218
3267.13859	0.05232
3265.85282	0.05223
3264.56705	0.05199
3263.28128	0.05172
3261.99551	0.05150
3260.70974	0.05137
3259.42398	0.05129
3258.13821	0.05126
3256.85244	0.05125
3255.56667	0.05120
3254.28090	0.05107
3252.99513	0.05097
3251.70936	0.05111
3250.42359	0.05155
3249.13783	0.05213
3247.85206	0.05253
3246.56629	0.05261
3245.28052	0.05246
3243.99475	0.05229
3242.70898	0.05221
3241.42321	0.05212
3240.13744	0.05192
3238.85167	0.05164
3237.56591	0.05142
3236.28014	0.05140
3234.99437	0.05157
3233.70860	0.05172
3232.42283	0.05169
3231.13706	0.05144
3229.85129	0.05111
3228.56552	0.05087
3227.27976	0.05076
3225.99399	0.05070
3224.70822	0.05059
3223.42245	0.05039
3222.13668	0.05022
3220.85091	0.05019
3219.56514	0.05035
3218.27937	0.05061
3216.99360	0.05078
3215.70784	0.05070
3214.42207	0.05039
3213.13630	0.05007
3211.85053	0.04998
3210.56476	0.05017
3209.27899	0.05039
3207.99322	0.05040
3206.70745	0.05022
3205.42169	0.05008
3204.13592	0.05011
3202.85015	0.05023
3201.56438	0.05026
3200.27861	0.05008
3198.99284	0.04978
3197.70707	0.04951
3196.42130	0.04935
3195.13553	0.04927
3193.84977	0.04910
3192.56400	0.04872
3191.27823	0.04823
3189.99246	0.04790
3188.70669	0.04793
3187.42092	0.04827
3186.13515	0.04869
3184.84938	0.04904
3183.56362	0.04927
3182.27785	0.04937
3180.99208	0.04927
3179.70631	0.04900
3178.42054	0.04869
3177.13477	0.04845
3175.84900	0.04829
3174.56323	0.04815
3173.27746	0.04801
3171.99170	0.04798
3170.70593	0.04812
3169.42016	0.04836
3168.13439	0.04851
3166.84862	0.04840
3165.56285	0.04806
3164.27708	0.04766
3162.99131	0.04741
3161.70555	0.04741
3160.41978	0.04753
3159.13401	0.04759
3157.84824	0.04746
3156.56247	0.04720
3155.27670	0.04699
3153.99093	0.04697
3152.70516	0.04713
3151.41939	0.04739
3150.13363	0.04759
3148.84786	0.04763
3147.56209	0.04750
3146.27632	0.04730
3144.99055	0.04714
3143.70478	0.04697
3142.41901	0.04668
3141.13324	0.04623
3139.84748	0.04580
3138.56171	0.04566
3137.27594	0.04594
3135.99017	0.04649
3134.70440	0.04698
3133.41863	0.04717
3132.13286	0.04702
3130.84709	0.04670
3129.56132	0.04640
3128.27556	0.04620
3126.98979	0.04605
3125.70402	0.04589
3124.41825	0.04570
3123.13248	0.04554
3121.84671	0.04543
3120.56094	0.04537
3119.27517	0.04530
3117.98940	0.04526
3116.70364	0.04532
3115.41787	0.04548
3114.13210	0.04558
3112.84633	0.04549
3111.56056	0.04522
3110.27479	0.04490
3108.98902	0.04470
3107.70325	0.04468
3106.41749	0.04485
3105.13172	0.04512
3103.84595	0.04535
3102.56018	0.04543
3101.27441	0.04539
3099.98864	0.04528
3098.70287	0.04513
3097.41710	0.04496
3096.13133	0.04480
3094.84557	0.04472
3093.55980	0.04477
3092.27403	0.04495
3090.98826	0.04520
3089.70249	0.04549
3088.41672	0.04578
3087.13095	0.04600
3085.84518	0.04607
3084.55942	0.04597
3083.27365	0.04581
3081.98788	0.04570
3080.70211	0.04563
3079.41634	0.04544
3078.13057	0.04505
3076.84480	0.04457
3075.55903	0.04428
3074.27326	0.04436
3072.98750	0.04472
3071.70173	0.04510
3070.41596	0.04522
3069.13019	0.04502
3067.84442	0.04463
3066.55865	0.04431
3065.27288	0.04427
3063.98711	0.04450
3062.70135	0.04486
3061.41558	0.04512
3060.12981	0.04518
3058.84404	0.04502
3057.55827	0.04472
3056.27250	0.04436
3054.98673	0.04401
3053.70096	0.04378
3052.41519	0.04380
3051.12943	0.04409
3049.84366	0.04448
3048.55789	0.04470
3047.27212	0.04462
3045.98635	0.04438
3044.70058	0.04414
3043.41481	0.04397
3042.12904	0.04374
3040.84328	0.04339
3039.55751	0.04300
3038.27174	0.04271
3036.98597	0.04257
3035.70020	0.04253
3034.41443	0.04248
3033.12866	0.04237
3031.84289	0.04220
3030.55712	0.04205
3029.27136	0.04196
3027.98559	0.04194
3026.69982	0.04194
3025.41405	0.04191
3024.12828	0.04184
3022.84251	0.04184
3021.55674	0.04199
3020.27097	0.04221
3018.98521	0.04234
3017.69944	0.04227
3016.41367	0.04211
3015.12790	0.04204
3013.84213	0.04213
3012.55636	0.04227
3011.27059	0.04226
3009.98482	0.04204
3008.69905	0.04177
3007.41329	0.04170
3006.12752	0.04193
3004.84175	0.04230
3003.55598	0.04245
3002.27021	0.04220
3000.98444	0.04161
2999.69867	0.04095
2998.41290	0.04058
2997.12714	0.04057
2995.84137	0.04084
2994.55560	0.04115
2993.26983	0.04130
2991.98406	0.04124
2990.69829	0.04112
2989.41252	0.04106
2988.12675	0.04106
2986.84098	0.04098
2985.55522	0.04077
2984.26945	0.04059
2982.98368	0.04067
2981.69791	0.04114
2980.41214	0.04186
2979.12637	0.04251
2977.84060	0.04275
2976.55483	0.04254
2975.26907	0.04214
2973.98330	0.04192
2972.69753	0.04207
2971.41176	0.04240
2970.12599	0.04261
2968.84022	0.04254
2967.55445	0.04236
2966.26868	0.04231
2964.98291	0.04250
2963.69715	0.04280
2962.41138	0.04303
2961.12561	0.04315
2959.83984	0.04323
2958.55407	0.04340
2957.26830	0.04373
2955.98253	0.04421
2954.69676	0.04472
2953.41100	0.04508
2952.12523	0.04529
2950.83946	0.04544
2949.55369	0.04563
2948.26792	0.04581
2946.98215	0.04587
2945.69638	0.04573
2944.41061	0.04541
2943.12484	0.04504
2941.83908	0.04475
2940.55331	0.04464
2939.26754	0.04470
2937.98177	0.04485
2936.69600	0.04500
2935.41023	0.04511
2934.12446	0.04523
2932.83869	0.04547
2931.55293	0.04588
2930.26716	0.04640
2928.98139	0.04683
2927.69562	0.04701
2926.40985	0.04687
2925.12408	0.04649
2923.83831	0.04603
2922.55254	0.04561
2921.26677	0.04530
2919.98101	0.04514
2918.69524	0.04508
2917.40947	0.04504
2916.12370	0.04493
2914.83793	0.04475
2913.55216	0.04458
2912.26639	0.04452
2910.98062	0.04461
2909.69486	0.04478
2908.40909	0.04493
2907.12332	0.04500
2905.83755	0.04493
2904.55178	0.04469
2903.26601	0.04437
2901.98024	0.04406
2900.69447	0.04380
2899.40870	0.04349
2898.12294	0.04313
2896.83717	0.04281
2895.55140	0.04266
2894.26563	0.04261
2892.97986	0.04250
2891.69409	0.04227
2890.40832	0.04202
2889.12255	0.04188
2887.83678	0.04186
2886.55102	0.04189
2885.26525	0.04188
2883.97948	0.04177
2882.69371	0.04158
2881.40794	0.04134
2880.12217	0.04120
2878.83640	0.04128
2877.55063	0.04161
2876.26487	0.04195
2874.97910	0.04200
2873.69333	0.04167
2872.40756	0.04128
2871.12179	0.04121
2869.83602	0.04152
2868.55025	0.04193
2867.26448	0.04211
2865.97871	0.04197
2864.69295	0.04170
2863.40718	0.04148
2862.12141	0.04133
2860.83564	0.04111
2859.54987	0.04080
2858.26410	0.04048
2856.97833	0.04026
2855.69256	0.04011
2854.40680	0.03997
2853.12103	0.03978
2851.83526	0.03958
2850.54949	0.03944
2849.26372	0.03943
2847.97795	0.03954
2846.69218	0.03963
2845.40641	0.03958
2844.12064	0.03942
2842.83488	0.03926
2841.54911	0.03921
2840.26334	0.03921
2838.97757	0.03915
2837.69180	0.03897
2836.40603	0.03868
2835.12026	0.03828
2833.83449	0.03778
2832.54873	0.03729
2831.26296	0.03691
2829.97719	0.03666
2828.69142	0.03649
2827.40565	0.03636
2826.11988	0.03632
2824.83411	0.03639
2823.54834	0.03646
2822.26257	0.03642
2820.97681	0.03628
2819.69104	0.03613
2818.40527	0.03599
2817.11950	0.03579
2815.83373	0.03545
2814.54796	0.03503
2813.26219	0.03472
2811.97642	0.03466
2810.69066	0.03483
2809.40489	0.03508
2808.11912	0.03523
2806.83335	0.03517
2805.54758	0.03498
2804.26181	0.03480
2802.97604	0.03473
2801.69027	0.03467
2800.40450	0.03453
2799.11874	0.03434
2797.83297	0.03428
2796.54720	0.03447
2795.26143	0.03485
2793.97566	0.03521
2792.68989	0.03537
2791.40412	0.03528
2790.11835	0.03502
2788.83259	0.03474
2787.54682	0.03451
2786.26105	0.03433
2784.97528	0.03411
2783.68951	0.03381
2782.40374	0.03357
2781.11797	0.03354
2779.83220	0.03370
2778.54643	0.03387
2777.26067	0.03389
2775.97490	0.03383
2774.68913	0.03379
2773.40336	0.03384
2772.11759	0.03396
2770.83182	0.03408
2769.54605	0.03405
2768.26028	0.03382
2766.97452	0.03351
2765.68875	0.03332
2764.40298	0.03337
2763.11721	0.03354
2761.83144	0.03365
2760.54567	0.03367
2759.25990	0.03367
2757.97413	0.03369
2756.68836	0.03372
2755.40260	0.03368
2754.11683	0.03351
2752.83106	0.03320
2751.54529	0.03279
2750.25952	0.03246
2748.97375	0.03242
2747.68798	0.03271
2746.40221	0.03312
2745.11645	0.03339
2743.83068	0.03337
2742.54491	0.03311
2741.25914	0.03277
2739.97337	0.03255
2738.68760	0.03251
2737.40183	0.03262
2736.11606	0.03276
2734.83029	0.03285
2733.54453	0.03288
2732.25876	0.03286
2730.97299	0.03281
2729.68722	0.03279
2728.40145	0.03279
2727.11568	0.03273
2725.82991	0.03253
2724.54414	0.03223
2723.25838	0.03196
2721.97261	0.03175
2720.68684	0.03157
2719.40107	0.03139
2718.11530	0.03122
2716.82953	0.03113
2715.54376	0.03111
2714.25799	0.03118
2712.97222	0.03129
2711.68646	0.03141
2710.40069	0.03150
2709.11492	0.03157
2707.82915	0.03161
2706.54338	0.03158
2705.25761	0.03144
2703.97184	0.03125
2702.68607	0.03117
2701.40031	0.03125
2700.11454	0.03143
2698.82877	0.03153
2697.54300	0.03146
2696.25723	0.03125
2694.97146	0.03101
2693.68569	0.03086
2692.39992	0.03082
2691.11415	0.03085
2689.82839	0.03086
2688.54262	0.03084
2687.25685	0.03083
2685.97108	0.03084
2684.68531	0.03083
2683.39954	0.03076
2682.11377	0.03068
2680.82800	0.03063
2679.54224	0.03061
2678.25647	0.03058
2676.97070	0.03049
2675.68493	0.03035
2674.39916	0.03022
2673.11339	0.03022
2671.82762	0.03034
2670.54185	0.03049
2669.25608	0.03054
2667.97032	0.03045
2666.68455	0.03030
2665.39878	0.03022
2664.11301	0.03031
2662.82724	0.03053
2661.54147	0.03072
2660.25570	0.03076
2658.96993	0.03065
2657.68417	0.03047
2656.39840	0.03029
2655.11263	0.03012
2653.82686	0.02995
2652.54109	0.02978
2651.25532	0.02963
2649.96955	0.02957
2648.68378	0.02966
2647.39801	0.02988
2646.11225	0.03008
2644.82648	0.03004
2643.54071	0.02971
2642.25494	0.02925
2640.96917	0.02888
2639.68340	0.02872
2638.39763	0.02868
2637.11186	0.02862
2635.82609	0.02850
2634.54033	0.02834
2633.25456	0.02816
2631.96879	0.02795
2630.68302	0.02773
2629.39725	0.02757
2628.11148	0.02749
2626.82571	0.02745
2625.53994	0.02735
2624.25418	0.02719
2622.96841	0.02709
2621.68264	0.02720
2620.39687	0.02750
2619.11110	0.02781
2617.82533	0.02789
2616.53956	0.02769
2615.25379	0.02734
2613.96802	0.02704
2612.68226	0.02683
2611.39649	0.02668
2610.11072	0.02653
2608.82495	0.02637
2607.53918	0.02623
2606.25341	0.02618
2604.96764	0.02626
2603.68187	0.02639
2602.39611	0.02640
2601.11034	0.02622
2599.82457	0.02595
2598.53880	0.02580
2597.25303	0.02579
2595.96726	0.02583
2594.68149	0.02579
2593.39572	0.02559
2592.10995	0.02530
2590.82419	0.02507
2589.53842	0.02497
2588.25265	0.02490
2586.96688	0.02472
2585.68111	0.02441
2584.39534	0.02410
2583.10957	0.02386
2581.82380	0.02373
2580.53804	0.02370
2579.25227	0.02378
2577.96650	0.02394
2576.68073	0.02405
2575.39496	0.02399
2574.10919	0.02370
2572.82342	0.02330
2571.53765	0.02302
2570.25188	0.02299
2568.96612	0.02310
2567.68035	0.02309
2566.39458	0.02285
2565.10881	0.02252
2563.82304	0.02240
2562.53727	0.02263
2561.25150	0.02301
2559.96573	0.02321
2558.67997	0.02310
2557.39420	0.02289
2556.10843	0.02287
2554.82266	0.02308
2553.53689	0.02335
2552.25112	0.02350
2550.96535	0.02352
2549.67958	0.02351
2548.39381	0.02358
2547.10805	0.02375
2545.82228	0.02396
2544.53651	0.02412
2543.25074	0.02424
2541.96497	0.02435
2540.67920	0.02444
2539.39343	0.02443
2538.10766	0.02425
2536.82190	0.02391
2535.53613	0.02348
2534.25036	0.02306
2532.96459	0.02273
2531.67882	0.02257
2530.39305	0.02245
2529.10728	0.02223
2527.82151	0.02190
2526.53574	0.02170
2525.24998	0.02185
2523.96421	0.02232
2522.67844	0.02279
2521.39267	0.02291
2520.10690	0.02260
2518.82113	0.02217
2517.53536	0.02201
2516.24959	0.02219
2514.96383	0.02249
2513.67806	0.02271
2512.39229	0.02284
2511.10652	0.02291
2509.82075	0.02286
2508.53498	0.02269
2507.24921	0.02253
2505.96344	0.02251
2504.67767	0.02260
2503.39191	0.02270
2502.10614	0.02280
2500.82037	0.02293
2499.53460	0.02298
2498.24883	0.02277
2496.96306	0.02223
2495.67729	0.02155
2494.39152	0.02106
2493.10576	0.02098
2491.81999	0.02126
2490.53422	0.02163
2489.24845	0.02188
2487.96268	0.02194
2486.67691	0.02197
2485.39114	0.02213
2484.10537	0.02242
2482.81960	0.02265
2481.53384	0.02269
2480.24807	0.02257
2478.96230	0.02240
2477.67653	0.02226
2476.39076	0.02209
2475.10499	0.02175
2473.81922	0.02123
2472.53345	0.02071
2471.24769	0.02046
2469.96192	0.02049
2468.67615	0.02066
2467.39038	0.02083
2466.10461	0.02100
2464.81884	0.02118
2463.53307	0.02133
2462.24730	0.02146
2460.96153	0.02165
2459.67577	0.02199
2458.39000	0.02242
2457.10423	0.02268
2455.81846	0.02254
2454.53269	0.02214
2453.24692	0.02185
2451.96115	0.02185
2450.67538	0.02201
2449.38962	0.02216
2448.10385	0.02230
2446.81808	0.02242
2445.53231	0.02235
2444.24654	0.02197
2442.96077	0.02141
2441.67500	0.02090
2440.38923	0.02059
2439.10346	0.02044
2437.81770	0.02041
2436.53193	0.02052
2435.24616	0.02073
2433.96039	0.02097
2432.67462	0.02115
2431.38885	0.02124
2430.10308	0.02116
2428.81731	0.02088
2427.53155	0.02052
2426.24578	0.02031
2424.96001	0.02034
2423.67424	0.02053
2422.38847	0.02077
2421.10270	0.02103
2419.81693	0.02121
2418.53116	0.02121
2417.24539	0.02099
2415.95963	0.02069
2414.67386	0.02043
2413.38809	0.02028
2412.10232	0.02026
2410.81655	0.02037
2409.53078	0.02057
2408.24501	0.02081
2406.95924	0.02104
2405.67347	0.02122
2404.38771	0.02130
2403.10194	0.02128
2401.81617	0.02122
2400.53040	0.02121
2399.24463	0.02125
2397.95886	0.02132
2396.67309	0.02131
2395.38732	0.02115
2394.10156	0.02090
2392.81579	0.02067
2391.53002	0.02056
2390.24425	0.02060
2388.95848	0.02077
2387.67271	0.02097
2386.38694	0.02109
2385.10117	0.02104
2383.81540	0.02085
2382.52964	0.02065
2381.24387	0.02059
2379.95810	0.02064
2378.67233	0.02080
2377.38656	0.02087
2376.10079	0.02066
2374.81502	0.02028
2373.52925	0.02017
2372.24349	0.02019
2370.95772	0.02011
2369.67195	0.02002
2368.38618	0.01989
2367.10041	0.01962
2365.81464	0.01930
2364.52887	0.01906
2363.24310	0.01899
2361.95733	0.01907
2360.67157	0.01914
2359.38580	0.01921
2358.10003	0.01941
2356.81426	0.01977
2355.52849	0.02010
2354.24272	0.02021
2352.95695	0.02022
2351.67118	0.02060
2350.38542	0.02111
2349.09965	0.02129
2347.81388	0.02122
2346.52811	0.02107
2345.24234	0.02094
2343.95657	0.02081
2342.67080	0.02048
2341.38503	0.02046
2340.09926	0.02040
2338.81350	0.02010
2337.52773	0.01989
2336.24196	0.02008
2334.95619	0.02010
2333.67042	0.01992
2332.38465	0.01973
2331.09888	0.02026
2329.81311	0.02052
2328.52735	0.02074
2327.24158	0.02121
2325.95581	0.02151
2324.67004	0.02169
2323.38427	0.02140
2322.09850	0.02111
2320.81273	0.02094
2319.52696	0.02082
2318.24119	0.02073
2316.95543	0.02073
2315.66966	0.02069
2314.38389	0.02064
2313.09812	0.02074
2311.81235	0.02089
2310.52658	0.02088
2309.24081	0.02063
2307.95504	0.02020
2306.66928	0.01979
2305.38351	0.01962
2304.09774	0.01973
2302.81197	0.02005
2301.52620	0.02047
2300.24043	0.02083
2298.95466	0.02099
2297.66889	0.02087
2296.38312	0.02052
2295.09736	0.02008
2293.81159	0.01968
2292.52582	0.01944
2291.24005	0.01943
2289.95428	0.01969
2288.66851	0.02006
2287.38274	0.02028
2286.09697	0.02019
2284.81121	0.01980
2283.52544	0.01930
2282.23967	0.01887
2280.95390	0.01863
2279.66813	0.01856
2278.38236	0.01858
2277.09659	0.01859
2275.81082	0.01856
2274.52505	0.01849
2273.23929	0.01842
2271.95352	0.01839
2270.66775	0.01831
2269.38198	0.01808
2268.09621	0.01767
2266.81044	0.01712
2265.52467	0.01655
2264.23890	0.01608
2262.95314	0.01586
2261.66737	0.01599
2260.38160	0.01638
2259.09583	0.01674
2257.81006	0.01680
2256.52429	0.01654
2255.23852	0.01624
2253.95275	0.01617
2252.66698	0.01625
2251.38122	0.01617
2250.09545	0.01581
2248.80968	0.01540
2247.52391	0.01504
2246.23814	0.01504
2244.95237	0.01539
2243.66660	0.01591
2242.38083	0.01624
2241.09507	0.01606
2239.80930	0.01548
2238.52353	0.01492
2237.23776	0.01453
2235.95199	0.01404
2234.66622	0.01324
2233.38045	0.01240
2232.09468	0.01214
2230.80891	0.01278
2229.52315	0.01402
2228.23738	0.01513
2226.95161	0.01554
2225.66584	0.01524
2224.38007	0.01454
2223.09430	0.01373
2221.80853	0.01299
2220.52276	0.01252
2219.23700	0.01251
2217.95123	0.01283
2216.66546	0.01314
2215.37969	0.01330
2214.09392	0.01352
2212.80815	0.01397
2211.52238	0.01426
2210.23661	0.01382
2208.95084	0.01274
2207.66508	0.01189
2206.37931	0.01202
2205.09354	0.01284
2203.80777	0.01326
2202.52200	0.01260
2201.23623	0.01124
2199.95046	0.01009
2198.66469	0.00967
2197.37893	0.00981
2196.09316	0.01007
2194.80739	0.01016
2193.52162	0.01013
2192.23585	0.01019
2190.95008	0.01042
2189.66431	0.01077
2188.37854	0.01111
2187.09277	0.01135
2185.80701	0.01128
2184.52124	0.01067
2183.23547	0.00976
2181.94970	0.00927
2180.66393	0.00957
2179.37816	0.01025
2178.09239	0.01054
2176.80662	0.01028
2175.52085	0.00982
2174.23509	0.00943
2172.94932	0.00904
2171.66355	0.00854
2170.37778	0.00806
2169.09201	0.00783
2167.80624	0.00797
2166.52047	0.00831
2165.23470	0.00843
2163.94894	0.00805
2162.66317	0.00703
2161.37740	0.00536
2160.09163	0.00327
2158.80586	0.00141
2157.52009	0.00058
2156.23432	0.00099
2154.94855	0.00216
2153.66278	0.00339
2152.37702	0.00418
2151.09125	0.00438
2149.80548	0.00421
2148.51971	0.00407
2147.23394	0.00411
2145.94817	0.00410
2144.66240	0.00390
2143.37663	0.00392
2142.09087	0.00469
2140.80510	0.00616
2139.51933	0.00768
2138.23356	0.00868
2136.94779	0.00914
2135.66202	0.00927
2134.37625	0.00921
2133.09048	0.00904
2131.80471	0.00898
2130.51895	0.00918
2129.23318	0.00963
2127.94741	0.01017
2126.66164	0.01069
2125.37587	0.01111
2124.09010	0.01141
2122.80433	0.01161
2121.51856	0.01175
2120.23280	0.01184
2118.94703	0.01187
2117.66126	0.01181
2116.37549	0.01177
2115.08972	0.01182
2113.80395	0.01196
2112.51818	0.01214
2111.23241	0.01237
2109.94664	0.01269
2108.66088	0.01291
2107.37511	0.01273
2106.08934	0.01204
2104.80357	0.01114
2103.51780	0.01044
2102.23203	0.01003
2100.94626	0.00991
2099.66049	0.01245
2098.37473	0.01370
2097.08896	0.01358
2095.80319	0.01295
2094.51742	0.01218
2093.23165	0.01155
2091.94588	0.01122
2090.66011	0.01110
2089.37434	0.01103
2088.08857	0.01095
2086.80281	0.01095
2085.51704	0.01105
2084.23127	0.01123
2082.94550	0.01146
2081.65973	0.01175
2080.37396	0.01215
2079.08819	0.01259
2077.80242	0.01291
2076.51666	0.01295
2075.23089	0.01280
2073.94512	0.01271
2072.65935	0.01283
2071.37358	0.01301
2070.08781	0.01300
2068.80204	0.01277
2067.51627	0.01243
2066.23050	0.01199
2064.94474	0.01127
2063.65897	0.01023
2062.37320	0.00910
2061.08743	0.00819
2059.80166	0.00758
2058.51589	0.00714
2057.23012	0.00672
2055.94435	0.00632
2054.65859	0.00608
2053.37282	0.00633
2052.08705	0.00734
2050.80128	0.00913
2049.51551	0.01118
2048.22974	0.01260
2046.94397	0.01269
2045.65820	0.01143
2044.37243	0.00948
2043.08667	0.00769
2041.80090	0.00661
2040.51513	0.00630
2039.22936	0.00660
2037.94359	0.00736
2036.65782	0.00845
2035.37205	0.00963
2034.08628	0.01050
2032.80052	0.01075
2031.51475	0.01045
2030.22898	0.00998
2028.94321	0.00963
2027.65744	0.00934
2026.37167	0.00883
2025.08590	0.00801
2023.80013	0.00708
2022.51436	0.00630
2021.22860	0.00584
2019.94283	0.00578
2018.65706	0.00618
2017.37129	0.00706
2016.08552	0.00821
2014.79975	0.00928
2013.51398	0.01005
2012.22821	0.01053
2010.94245	0.01091
2009.65668	0.01136
2008.37091	0.01194
2007.08514	0.01249
2005.79937	0.01262
2004.51360	0.01206
2003.22783	0.01102
2001.94206	0.01001
2000.65629	0.00926
1999.37053	0.00856
1998.08476	0.00772
1996.79899	0.00693
1995.51322	0.00654
1994.22745	0.00667
1992.94168	0.00716
1991.65591	0.00780
1990.37014	0.00844
1989.08438	0.00892
1987.79861	0.00910
1986.51284	0.00903
1985.22707	0.00900
1983.94130	0.00944
1982.65553	0.01072
1981.36976	0.01296
1980.08399	0.01576
1978.79822	0.01810
1977.51246	0.01885
1976.22669	0.01767
1974.94092	0.01538
1973.65515	0.01334
1972.36938	0.01237
1971.08361	0.01238
1969.79784	0.01265
1968.51207	0.01252
1967.22631	0.01189
1965.94054	0.01116
1964.65477	0.01082
1963.36900	0.01095
1962.08323	0.01129
1960.79746	0.01157
1959.51169	0.01168
1958.22592	0.01158
1956.94015	0.01124
1955.65439	0.01087
1954.36862	0.01079
1953.08285	0.01113
1951.79708	0.01160
1950.51131	0.01184
1949.22554	0.01182
1947.93977	0.01184
1946.65400	0.01208
1945.36823	0.01243
1944.08247	0.01263
1942.79670	0.01259
1941.51093	0.01245
1940.22516	0.01238
1938.93939	0.01230
1937.65362	0.01207
1936.36785	0.01170
1935.08208	0.01146
1933.79632	0.01156
1932.51055	0.01200
1931.22478	0.01252
1929.93901	0.01286
1928.65324	0.01296
1927.36747	0.01294
1926.08170	0.01297
1924.79593	0.01311
1923.51016	0.01328
1922.22440	0.01338
1920.93863	0.01341
1919.65286	0.01350
1918.36709	0.01367
1917.08132	0.01380
1915.79555	0.01368
1914.50978	0.01327
1913.22401	0.01283
1911.93825	0.01263
1910.65248	0.01277
1909.36671	0.01309
1908.08094	0.01331
1906.79517	0.01326
1905.50940	0.01301
1904.22363	0.01277
1902.93786	0.01274
1901.65209	0.01295
1900.36633	0.01330
1899.08056	0.01367
1897.79479	0.01396
1896.50902	0.01417
1895.22325	0.01430
1893.93748	0.01433
1892.65171	0.01424
1891.36594	0.01400
1890.08018	0.01366
1888.79441	0.01337
1887.50864	0.01330
1886.22287	0.01342
1884.93710	0.01359
1883.65133	0.01365
1882.36556	0.01362
1881.07979	0.01360
1879.79402	0.01371
1878.50826	0.01390
1877.22249	0.01404
1875.93672	0.01396
1874.65095	0.01360
1873.36518	0.01311
1872.07941	0.01273
1870.79364	0.01264
1869.50787	0.01281
1868.22211	0.01307
1866.93634	0.01328
1865.65057	0.01340
1864.36480	0.01351
1863.07903	0.01365
1861.79326	0.01381
1860.50749	0.01397
1859.22172	0.01410
1857.93595	0.01415
1856.65019	0.01407
1855.36442	0.01387
1854.07865	0.01365
1852.79288	0.01350
1851.50711	0.01348
1850.22134	0.01357
1848.93557	0.01376
1847.64980	0.01397
1846.36404	0.01410
1845.07827	0.01410
1843.79250	0.01405
1842.50673	0.01407
1841.22096	0.01419
1839.93519	0.01429
1838.64942	0.01416
1837.36365	0.01379
1836.07788	0.01335
1834.79212	0.01306
1833.50635	0.01302
1832.22058	0.01314
1830.93481	0.01326
1829.64904	0.01333
1828.36327	0.01347
1827.07750	0.01374
1825.79173	0.01414
1824.50597	0.01458
1823.22020	0.01499
1821.93443	0.01533
1820.64866	0.01548
1819.36289	0.01531
1818.07712	0.01477
1816.79135	0.01404
1815.50558	0.01338
1814.21981	0.01297
1812.93405	0.01283
1811.64828	0.01284
1810.36251	0.01291
1809.07674	0.01298
1807.79097	0.01303
1806.50520	0.01306
1805.21943	0.01305
1803.93366	0.01303
1802.64790	0.01302
1801.36213	0.01306
1800.07636	0.01318
1798.79059	0.01338
1797.50482	0.01362
1796.21905	0.01381
1794.93328	0.01388
1793.64751	0.01386
1792.36174	0.01382
1791.07598	0.01385
1789.79021	0.01396
1788.50444	0.01411
1787.21867	0.01429
1785.93290	0.01443
1784.64713	0.01450
1783.36136	0.01448
1782.07559	0.01442
1780.78983	0.01437
1779.50406	0.01429
1778.21829	0.01416
1776.93252	0.01402
1775.64675	0.01391
1774.36098	0.01388
1773.07521	0.01391
1771.78944	0.01392
1770.50367	0.01389
1769.21791	0.01380
1767.93214	0.01369
1766.64637	0.01364
1765.36060	0.01370
1764.07483	0.01385
1762.78906	0.01401
1761.50329	0.01406
1760.21752	0.01401
1758.93176	0.01393
1757.64599	0.01388
1756.36022	0.01388
1755.07445	0.01390
1753.78868	0.01394
1752.50291	0.01399
1751.21714	0.01404
1749.93137	0.01407
1748.64560	0.01405
1747.35984	0.01399
1746.07407	0.01395
1744.78830	0.01394
1743.50253	0.01396
1742.21676	0.01399
1740.93099	0.01402
1739.64522	0.01406
1738.35945	0.01410
1737.07369	0.01416
1735.78792	0.01425
1734.50215	0.01433
1733.21638	0.01435
1731.93061	0.01431
1730.64484	0.01425
1729.35907	0.01420
1728.07330	0.01413
1726.78753	0.01405
1725.50177	0.01401
1724.21600	0.01407
1722.93023	0.01428
1721.64446	0.01459
1720.35869	0.01494
1719.07292	0.01524
1717.78715	0.01543
1716.50138	0.01551
1715.21561	0.01555
1713.92985	0.01561
1712.64408	0.01574
1711.35831	0.01591
1710.07254	0.01612
1708.78677	0.01635
1707.50100	0.01663
1706.21523	0.01695
1704.92946	0.01736
1703.64370	0.01787
1702.35793	0.01847
1701.07216	0.01905
1699.78639	0.01953
1698.50062	0.01991
1697.21485	0.02026
1695.92908	0.02062
1694.64331	0.02100
1693.35754	0.02139
1692.07178	0.02184
1690.78601	0.02238
1689.50024	0.02298
1688.21447	0.02363
1686.92870	0.02430
1685.64293	0.02495
1684.35716	0.02551
1683.07139	0.02594
1681.78563	0.02630
1680.49986	0.02672
1679.21409	0.02726
1677.92832	0.02790
1676.64255	0.02856
1675.35678	0.02918
1674.07101	0.02977
1672.78524	0.03036
1671.49947	0.03096
1670.21371	0.03152
1668.92794	0.03199
1667.64217	0.03243
1666.35640	0.03295
1665.07063	0.03357
1663.78486	0.03419
1662.49909	0.03468
1661.21332	0.03500
1659.92756	0.03522
1658.64179	0.03545
1657.35602	0.03575
1656.07025	0.03618
1654.78448	0.03668
1653.49871	0.03712
1652.21294	0.03735
1650.92717	0.03740
1649.64140	0.03742
1648.35564	0.03752
1647.06987	0.03769
1645.78410	0.03780
1644.49833	0.03778
1643.21256	0.03766
1641.92679	0.03752
1640.64102	0.03746
1639.35525	0.03750
1638.06949	0.03760
1636.78372	0.03767
1635.49795	0.03759
1634.21218	0.03731
1632.92641	0.03691
1631.64064	0.03647
1630.35487	0.03607
1629.06910	0.03570
1627.78333	0.03535
1626.49757	0.03499
1625.21180	0.03463
1623.92603	0.03426
1622.64026	0.03388
1621.35449	0.03350
1620.06872	0.03314
1618.78295	0.03283
1617.49718	0.03252
1616.21142	0.03216
1614.92565	0.03175
1613.63988	0.03133
1612.35411	0.03096
1611.06834	0.03067
1609.78257	0.03045
1608.49680	0.03026
1607.21103	0.03008
1605.92526	0.02988
1604.63950	0.02969
1603.35373	0.02956
1602.06796	0.02947
1600.78219	0.02940
1599.49642	0.02931
1598.21065	0.02922
1596.92488	0.02918
1595.63911	0.02918
1594.35335	0.02920
1593.06758	0.02924
1591.78181	0.02933
1590.49604	0.02948
1589.21027	0.02965
1587.92450	0.02980
1586.63873	0.02989
1585.35296	0.02994
1584.06719	0.02999
1582.78143	0.03010
1581.49566	0.03031
1580.20989	0.03059
1578.92412	0.03093
1577.63835	0.03129
1576.35258	0.03161
1575.06681	0.03185
1573.78104	0.03202
1572.49528	0.03219
1571.20951	0.03241
1569.92374	0.03267
1568.63797	0.03295
1567.35220	0.03323
1566.06643	0.03351
1564.78066	0.03378
1563.49489	0.03410
1562.20912	0.03451
1560.92336	0.03499
1559.63759	0.03543
1558.35182	0.03573
1557.06605	0.03585
1555.78028	0.03589
1554.49451	0.03596
1553.20874	0.03611
1551.92297	0.03630
1550.63721	0.03652
1549.35144	0.03676
1548.06567	0.03700
1546.77990	0.03725
1545.49413	0.03750
1544.20836	0.03775
1542.92259	0.03799
1541.63682	0.03818
1540.35105	0.03828
1539.06529	0.03830
1537.77952	0.03829
1536.49375	0.03832
1535.20798	0.03844
1533.92221	0.03861
1532.63644	0.03881
1531.35067	0.03903
1530.06490	0.03930
1528.77914	0.03962
1527.49337	0.03997
1526.20760	0.04032
1524.92183	0.04071
1523.63606	0.04116
1522.35029	0.04168
1521.06452	0.04221
1519.77875	0.04271
1518.49298	0.04317
1517.20722	0.04366
1515.92145	0.04420
1514.63568	0.04478
1513.34991	0.04540
1512.06414	0.04604
1510.77837	0.04674
1509.49260	0.04753
1508.20683	0.04841
1506.92107	0.04927
1505.63530	0.04997
1504.34953	0.05048
1503.06376	0.05090
1501.77799	0.05136
1500.49222	0.05192
1499.20645	0.05256
1497.92068	0.05319
1496.63491	0.05372
1495.34915	0.05416
1494.06338	0.05454
1492.77761	0.05493
1491.49184	0.05534
1490.20607	0.05577
1488.92030	0.05621
1487.63453	0.05667
1486.34876	0.05715
1485.06299	0.05767
1483.77723	0.05824
1482.49146	0.05887
1481.20569	0.05956
1479.91992	0.06028
1478.63415	0.06096
1477.34838	0.06159
1476.06261	0.06220
1474.77684	0.06283
1473.49108	0.06346
1472.20531	0.06404
1470.91954	0.06450
1469.63377	0.06487
1468.34800	0.06521
1467.06223	0.06557
1465.77646	0.06594
1464.49069	0.06627
1463.20492	0.06657
1461.91916	0.06688
1460.63339	0.06731
1459.34762	0.06788
1458.06185	0.06854
1456.77608	0.06917
1455.49031	0.06966
1454.20454	0.07000
1452.91877	0.07023
1451.63301	0.07041
1450.34724	0.07057
1449.06147	0.07072
1447.77570	0.07083
1446.48993	0.07087
1445.20416	0.07081
1443.91839	0.07067
1442.63262	0.07047
1441.34685	0.07025
1440.06109	0.07006
1438.77532	0.06994
1437.48955	0.06990
1436.20378	0.06991
1434.91801	0.07000
1433.63224	0.07021
1432.34647	0.07058
1431.06070	0.07111
1429.77494	0.07177
1428.48917	0.07251
1427.20340	0.07332
1425.91763	0.07419
1424.63186	0.07509
1423.34609	0.07602
1422.06032	0.07694
1420.77455	0.07783
1419.48878	0.07864
1418.20302	0.07934
1416.91725	0.07992
1415.63148	0.08040
1414.34571	0.08076
1413.05994	0.08102
1411.77417	0.08118
1410.48840	0.08125
1409.20263	0.08120
1407.91687	0.08098
1406.63110	0.08055
1405.34533	0.07993
1404.05956	0.07918
1402.77379	0.07835
1401.48802	0.07750
1400.20225	0.07658
1398.91648	0.07554
1397.63071	0.07433
1396.34495	0.07299
1395.05918	0.07155
1393.77341	0.07006
1392.48764	0.06858
1391.20187	0.06712
1389.91610	0.06572
1388.63033	0.06435
1387.34456	0.06297
1386.05880	0.06154
1384.77303	0.06009
1383.48726	0.05865
1382.20149	0.05726
1380.91572	0.05589
1379.62995	0.05451
1378.34418	0.05310
1377.05841	0.05166
1375.77264	0.05024
1374.48688	0.04884
1373.20111	0.04743
1371.91534	0.04600
1370.62957	0.04457
1369.34380	0.04320
1368.05803	0.04192
1366.77226	0.04076
1365.48649	0.03966
1364.20073	0.03859
1362.91496	0.03751
1361.62919	0.03644
1360.34342	0.03541
1359.05765	0.03446
1357.77188	0.03362
1356.48611	0.03291
1355.20034	0.03227
1353.91457	0.03167
1352.62881	0.03108
1351.34304	0.03053
1350.05727	0.03005
1348.77150	0.02960
1347.48573	0.02913
1346.19996	0.02866
1344.91419	0.02820
1343.62842	0.02782
1342.34266	0.02750
1341.05689	0.02722
1339.77112	0.02697
1338.48535	0.02673
1337.19958	0.02647
1335.91381	0.02620
1334.62804	0.02592
1333.34227	0.02567
1332.05650	0.02542
1330.77074	0.02516
1329.48497	0.02487
1328.19920	0.02456
1326.91343	0.02427
1325.62766	0.02400
1324.34189	0.02379
1323.05612	0.02362
1321.77035	0.02349
1320.48459	0.02334
1319.19882	0.02315
1317.91305	0.02294
1316.62728	0.02275
1315.34151	0.02257
1314.05574	0.02239
1312.76997	0.02219
1311.48420	0.02200
1310.19843	0.02186
1308.91267	0.02178
1307.62690	0.02171
1306.34113	0.02161
1305.05536	0.02148
1303.76959	0.02133
1302.48382	0.02117
1301.19805	0.02099
1299.91228	0.02079
1298.62652	0.02056
1297.34075	0.02034
1296.05498	0.02015
1294.76921	0.01999
1293.48344	0.01983
1292.19767	0.01966
1290.91190	0.01950
1289.62613	0.01940
1288.34036	0.01937
1287.05460	0.01938
1285.76883	0.01940
1284.48306	0.01938
1283.19729	0.01933
1281.91152	0.01924
1280.62575	0.01914
1279.33998	0.01903
1278.05421	0.01895
1276.76845	0.01887
1275.48268	0.01876
1274.19691	0.01858
1272.91114	0.01838
1271.62537	0.01821
1270.33960	0.01812
1269.05383	0.01810
1267.76806	0.01812
1266.48229	0.01813
1265.19653	0.01812
1263.91076	0.01809
1262.62499	0.01805
1261.33922	0.01802
1260.05345	0.01798
1258.76768	0.01793
1257.48191	0.01786
1256.19614	0.01777
1254.91037	0.01771
1253.62461	0.01769
1252.33884	0.01772
1251.05307	0.01778
1249.76730	0.01781
1248.48153	0.01777
1247.19576	0.01765
1245.90999	0.01751
1244.62422	0.01738
1243.33846	0.01729
1242.05269	0.01723
1240.76692	0.01718
1239.48115	0.01713
1238.19538	0.01708
1236.90961	0.01703
1235.62384	0.01697
1234.33807	0.01690
1233.05230	0.01681
1231.76654	0.01668
1230.48077	0.01651
1229.19500	0.01631
1227.90923	0.01607
1226.62346	0.01582
1225.33769	0.01560
1224.05192	0.01542
1222.76615	0.01529
1221.48039	0.01519
1220.19462	0.01508
1218.90885	0.01492
1217.62308	0.01473
1216.33731	0.01456
1215.05154	0.01445
1213.76577	0.01439
1212.48000	0.01435
1211.19423	0.01432
1209.90847	0.01432
1208.62270	0.01437
1207.33693	0.01447
1206.05116	0.01457
1204.76539	0.01465
1203.47962	0.01472
1202.19385	0.01477
1200.90808	0.01463
1199.62232	0.01423
1198.33655	0.01416
1197.05078	0.01408
1195.76501	0.01398
1194.47924	0.01388
1193.19347	0.01378
1191.90770	0.01370
1190.62193	0.01364
1189.33616	0.01359
1188.05040	0.01355
1186.76463	0.01348
1185.47886	0.01339
1184.19309	0.01329
1182.90732	0.01322
1181.62155	0.01320
1180.33578	0.01323
1179.05001	0.01327
1177.76425	0.01331
1176.47848	0.01335
1175.19271	0.01340
1173.90694	0.01344
1172.62117	0.01346
1171.33540	0.01349
1170.04963	0.01355
1168.76386	0.01366
1167.47809	0.01382
1166.19233	0.01397
1164.90656	0.01408
1163.62079	0.01417
1162.33502	0.01431
1161.04925	0.01451
1159.76348	0.01473
1158.47771	0.01495
1157.19194	0.01515
1155.90618	0.01533
1154.62041	0.01548
1153.33464	0.01564
1152.04887	0.01585
1150.76310	0.01615
1149.47733	0.01652
1148.19156	0.01693
1146.90579	0.01735
1145.62002	0.01779
1144.33426	0.01826
1143.04849	0.01878
1141.76272	0.01933
1140.47695	0.01994
1139.19118	0.02063
1137.90541	0.02143
1136.61964	0.02236
1135.33387	0.02343
1134.04811	0.02466
1132.76234	0.02600
1131.47657	0.02742
1130.19080	0.02889
1128.90503	0.03044
1127.61926	0.03210
1126.33349	0.03392
1125.04772	0.03591
1123.76195	0.03806
1122.47619	0.04033
1121.19042	0.04267
1119.90465	0.04505
1118.61888	0.04746
1117.33311	0.04991
1116.04734	0.05242
1114.76157	0.05494
1113.47580	0.05743
1112.19004	0.05988
1110.90427	0.06235
1109.61850	0.06485
1108.33273	0.06733
1107.04696	0.06970
1105.76119	0.07199
1104.47542	0.07427
1103.18965	0.07657
1101.90388	0.07881
1100.61812	0.08089
1099.33235	0.08282
1098.04658	0.08467
1096.76081	0.08652
1095.47504	0.08833
1094.18927	0.09004
1092.90350	0.09162
1091.61773	0.09316
1090.33197	0.09468
1089.04620	0.09617
1087.76043	0.09761
1086.47466	0.09904
1085.18889	0.10051
1083.90312	0.10207
1082.61735	0.10375
1081.33158	0.10554
1080.04581	0.10739
1078.76005	0.10926
1077.47428	0.11114
1076.18851	0.11310
1074.90274	0.11516
1073.61697	0.11733
1072.33120	0.11956
1071.04543	0.12181
1069.75966	0.12408
1068.47390	0.12641
1067.18813	0.12884
1065.90236	0.13138
1064.61659	0.13397
1063.33082	0.13657
1062.04505	0.13914
1060.75928	0.14166
1059.47351	0.14409
1058.18774	0.14644
1056.90198	0.14873
1055.61621	0.15102
1054.33044	0.15332
1053.04467	0.15563
1051.75890	0.15792
1050.47313	0.16021
1049.18736	0.16253
1047.90159	0.16490
1046.61583	0.16735
1045.33006	0.16983
1044.04429	0.17232
1042.75852	0.17479
1041.47275	0.17726
1040.18698	0.17976
1038.90121	0.18230
1037.61544	0.18487
1036.32967	0.18740
1035.04391	0.18983
1033.75814	0.19210
1032.47237	0.19419
1031.18660	0.19610
1029.90083	0.19786
1028.61506	0.19947
1027.32929	0.20088
1026.04352	0.20209
1024.75775	0.20308
1023.47199	0.20383
1022.18622	0.20434
1020.90045	0.20461
1019.61468	0.20458
1018.32891	0.20421
1017.04314	0.20349
1015.75737	0.20244
1014.47160	0.20110
1013.18584	0.19947
1011.90007	0.19749
1010.61430	0.19515
1009.32853	0.19246
1008.04276	0.18952
1006.75699	0.18645
1005.47122	0.18327
1004.18545	0.17988
1002.89968	0.17613
1001.61392	0.17195
1000.32815	0.16745
999.04238	0.16284
997.75661	0.15825
996.47084	0.15368
995.18507	0.14906
993.89930	0.14441
992.61353	0.13976
991.32777	0.13513
990.04200	0.13053
988.75623	0.12601
987.47046	0.12164
986.18469	0.11745
984.89892	0.11343
983.61315	0.10956
982.32738	0.10581
981.04161	0.10217
979.75585	0.09864
978.47008	0.09527
977.18431	0.09219
975.89854	0.08943
974.61277	0.08700
973.32700	0.08489
972.04123	0.08314
970.75546	0.08179
969.46970	0.08082
968.18393	0.08022
966.89816	0.07999
965.61239	0.08011
964.32662	0.08049
963.04085	0.08100
961.75508	0.08148
960.46931	0.08174
959.18354	0.08161
957.89778	0.08097
956.61201	0.07986
955.32624	0.07836
954.04047	0.07664
952.75470	0.07484
951.46893	0.07305
950.18316	0.07132
948.89739	0.06959
947.61163	0.06784
946.32586	0.06612
945.04009	0.06448
943.75432	0.06292
942.46855	0.06140
941.18278	0.05991
939.89701	0.05846
938.61124	0.05707
937.32547	0.05577
936.03971	0.05457
934.75394	0.05349
933.46817	0.05249
932.18240	0.05153
930.89663	0.05055
929.61086	0.04962
928.32509	0.04879
927.03932	0.04805
925.75356	0.04732
924.46779	0.04658
923.18202	0.04586
921.89625	0.04523
920.61048	0.04466
919.32471	0.04412
918.03894	0.04355
916.75317	0.04295
915.46740	0.04239
914.18164	0.04194
912.89587	0.04157
911.61010	0.04122
910.32433	0.04079
909.03856	0.04031
907.75279	0.03983
906.46702	0.03934
905.18125	0.03884
903.89549	0.03837
902.60972	0.03798
901.32395	0.03771
900.03818	0.03752
898.75241	0.03737
897.46664	0.03718
896.18087	0.03696
894.89510	0.03671
893.60933	0.03646
892.32357	0.03621
891.03780	0.03599
889.75203	0.03588
888.46626	0.03595
887.18049	0.03626
885.89472	0.03692
884.60895	0.03808
883.32318	0.03986
882.03742	0.04214
880.75165	0.04451
879.46588	0.04653
878.18011	0.04799
876.89434	0.04908
875.60857	0.05014
874.32280	0.05129
873.03703	0.05235
871.75126	0.05302
870.46550	0.05310
869.17973	0.05266
867.89396	0.05182
866.60819	0.05070
865.32242	0.04932
864.03665	0.04769
862.75088	0.04595
861.46511	0.04428
860.17935	0.04283
858.89358	0.04165
857.60781	0.04068
856.32204	0.03981
855.03627	0.03898
853.75050	0.03818
852.46473	0.03743
851.17896	0.03679
849.89319	0.03627
848.60743	0.03582
847.32166	0.03539
846.03589	0.03500
844.75012	0.03469
843.46435	0.03446
842.17858	0.03426
840.89281	0.03402
839.60704	0.03371
838.32128	0.03334
837.03551	0.03294
835.74974	0.03260
834.46397	0.03240
833.17820	0.03234
831.89243	0.03235
830.60666	0.03231
829.32089	0.03220
828.03512	0.03203
826.74936	0.03182
825.46359	0.03160
824.17782	0.03139
822.89205	0.03123
821.60628	0.03115
820.32051	0.03111
819.03474	0.03104
817.74897	0.03089
816.46321	0.03070
815.17744	0.03061
813.89167	0.03066
812.60590	0.03075
811.32013	0.03073
810.03436	0.03057
808.74859	0.03036
807.46282	0.03016
806.17705	0.03003
804.89129	0.03000
803.60552	0.03006
802.31975	0.03016
801.03398	0.03019
799.74821	0.03012
798.46244	0.02994
797.17667	0.02973
795.89090	0.02956
794.60513	0.02947
793.31937	0.02943
792.03360	0.02942
790.74783	0.02941
789.46206	0.02942
788.17629	0.02940
786.89052	0.02937
785.60475	0.02931
784.31898	0.02921
783.03322	0.02907
781.74745	0.02890
780.46168	0.02877
779.17591	0.02872
777.89014	0.02873
776.60437	0.02876
775.31860	0.02879
774.03283	0.02884
772.74706	0.02889
771.46130	0.02891
770.17553	0.02890
768.88976	0.02889
767.60399	0.02893
766.31822	0.02902
765.03245	0.02912
763.74668	0.02920
762.46091	0.02928
761.17515	0.02935
759.88938	0.02942
758.60361	0.02943
757.31784	0.02935
756.03207	0.02923
754.74630	0.02915
753.46053	0.02913
752.17476	0.02914
750.88899	0.02912
749.60323	0.02906
748.31746	0.02900
747.03169	0.02898
745.74592	0.02899
744.46015	0.02895
743.17438	0.02885
741.88861	0.02871
740.60284	0.02862
739.31708	0.02860
738.03131	0.02866
736.74554	0.02874
735.45977	0.02881
734.17400	0.02878
732.88823	0.02863
731.60246	0.02844
730.31669	0.02832
729.03092	0.02833
727.74516	0.02842
726.45939	0.02852
725.17362	0.02860
723.88785	0.02861
722.60208	0.02870
721.31631	0.02882
720.03054	0.02890
718.74477	0.02893
717.45901	0.02893
716.17324	0.02893
714.88747	0.02891
713.60170	0.02888
712.31593	0.02885
711.03016	0.02885
709.74439	0.02886
708.45862	0.02885
707.17285	0.02881
705.88709	0.02876
704.60132	0.02873
703.31555	0.02873
702.02978	0.02875
700.74401	0.02878
699.45824	0.02881
698.17247	0.02883
696.88670	0.02884
695.60094	0.02885
694.31517	0.02886
693.02940	0.02887
691.74363	0.02887
690.45786	0.02888
689.17209	0.02892
687.88632	0.02894
686.60055	0.02890
685.31478	0.02875
684.02902	0.02852
682.74325	0.02830
681.45748	0.02815
680.17171	0.02806
678.88594	0.02798
677.60017	0.02789
676.31440	0.02782
675.02863	0.02783
673.74287	0.02791
672.45710	0.02803
671.17133	0.02812
669.88556	0.02816
668.59979	0.02816
667.31402	0.02815
666.02825	0.02809
664.74248	0.02797
663.45671	0.02777
662.17095	0.02756
660.88518	0.02739
659.59941	0.02729
658.31364	0.02726
657.02787	0.02726
655.74210	0.02726
654.45633	0.02723
653.17056	0.02719
651.88480	0.02717
650.59903	0.02720
649.31326	0.02728
648.02749	0.02734
646.74172	0.02736
645.45595	0.02734
644.17018	0.02728
642.88441	0.02721
641.59864	0.02716
640.31288	0.02717
639.02711	0.02724
637.74134	0.02737
636.45557	0.02753
635.16980	0.02772
633.88403	0.02791
632.59826	0.02804
631.31249	0.02843
630.02673	0.03056
628.74096	0.03380
627.45519	0.03238
626.16942	0.03648
624.88365	0.04438
623.59788	0.05203
622.31211	0.05780
621.02634	0.06120
619.74057	0.06238
618.45481	0.06186
617.16904	0.06025
615.88327	0.05811
614.59750	0.05617
613.31173	0.05557
612.02596	0.05742
610.74019	0.06188
609.45442	0.06780
608.16866	0.07366
606.88289	0.07879
605.59712	0.08322
604.31135	0.08683
603.02558	0.08907
601.73981	0.08945
600.45404	0.08804
599.16827	0.08545
597.88250	0.08238
596.59674	0.07937
595.31097	0.07673
594.02520	0.07464
592.73943	0.07313
591.45366	0.07213
590.16789	0.07152
588.88212	0.07126
587.59635	0.07138
586.31059	0.07196
585.02482	0.07304
583.73905	0.07457
582.45328	0.07643
581.16751	0.07848
579.88174	0.08060
578.59597	0.08276
577.31020	0.08495
576.02443	0.08710
574.73867	0.08916
573.45290	0.09113
572.16713	0.09314
570.88136	0.09543
569.59559	0.09812
568.30982	0.10111
567.02405	0.10411
565.73828	0.10684
564.45251	0.10914
563.16675	0.11087
561.88098	0.11172
560.59521	0.11133
559.30944	0.10953
558.02367	0.10648
556.73790	0.10254
555.45213	0.09812
554.16636	0.09356
552.88060	0.08902
551.59483	0.08463
550.30906	0.08047
549.02329	0.07663
547.73752	0.07320
546.45175	0.07019
545.16598	0.06756
543.88021	0.06518
542.59444	0.06290
541.30868	0.06068
540.02291	0.05852
538.73714	0.05648
537.45137	0.05452
536.16560	0.05262
534.87983	0.05084
533.59406	0.04931
532.30829	0.04806
531.02253	0.04703
529.73676	0.04608
528.45099	0.04515
527.16522	0.04425
525.87945	0.04342
524.59368	0.04264
523.30791	0.04184
522.02214	0.04091
520.73637	0.03985
519.45061	0.03877
518.16484	0.03783
516.87907	0.03710
515.59330	0.03650
514.30753	0.03589
513.02176	0.03525
511.73599	0.03462
510.45022	0.03407
509.16446	0.03357
507.87869	0.03301
506.59292	0.03235
505.30715	0.03167
504.02138	0.03107
502.73561	0.03060
501.44984	0.03023
500.16407	0.02989
498.87830	0.02955
497.59254	0.02924
496.30677	0.02899
495.02100	0.02874
493.73523	0.02845
492.44946	0.02815
491.16369	0.02790
489.87792	0.02774
488.59215	0.02766
487.30639	0.02762
486.02062	0.02755
484.73485	0.02744
483.44908	0.02726
482.16331	0.02707
480.87754	0.02691
479.59177	0.02684
478.30600	0.02687
477.02023	0.02696
475.73447	0.02703
474.44870	0.02707
473.16293	0.02709
471.87716	0.02715
470.59139	0.02727
469.30562	0.02741
468.01985	0.02750
466.73408	0.02748
465.44832	0.02734
464.16255	0.02710
462.87678	0.02677
461.59101	0.02640
460.30524	0.02604
459.01947	0.02571
457.73370	0.02541
456.44793	0.02514
455.16216	0.02485
453.87640	0.02454
452.59063	0.02418
451.30486	0.02382
450.01909	0.02351
448.73332	0.02327
447.44755	0.02312
446.16178	0.02300
444.87601	0.02285
443.59025	0.02264
442.30448	0.02238
441.01871	0.02214
439.73294	0.02197
438.44717	0.02187
437.16140	0.02182
435.87563	0.02179
434.58986	0.02171
433.30409	0.02160
432.01833	0.02151
430.73256	0.02147
429.44679	0.02148
428.16102	0.02148
426.87525	0.02141
425.58948	0.02127
424.30371	0.02112
423.01794	0.02098
421.73218	0.02087
420.44641	0.02076
419.16064	0.02062
417.87487	0.02047
416.58910	0.02032
415.30333	0.02022
414.01756	0.02014
412.73179	0.02007
411.44602	0.01999
410.16026	0.01992
408.87449	0.01989
407.58872	0.01992
406.30295	0.02000
405.01718	0.02007
403.73141	0.02009
402.44564	0.02007
401.15987	0.02006
399.87411	0.02009
