3997.45528	0.03636
3996.16951	0.03524
3994.88374	0.03429
3993.59798	0.03388
3992.31221	0.03404
3991.02644	0.03427
3989.74067	0.03418
3988.45490	0.03399
3987.16913	0.03419
3985.88336	0.03478
3984.59759	0.03523
3983.31183	0.03510
3982.02606	0.03450
3980.74029	0.03390
3979.45452	0.03364
3978.16875	0.03372
3976.88298	0.03384
3975.59721	0.03375
3974.31144	0.03342
3973.02567	0.03310
3971.73991	0.03308
3970.45414	0.03349
3969.16837	0.03409
3967.88260	0.03449
3966.59683	0.03449
3965.31106	0.03420
3964.02529	0.03394
3962.73952	0.03394
3961.45376	0.03411
3960.16799	0.03409
3958.88222	0.03361
3957.59645	0.03275
3956.31068	0.03182
3955.02491	0.03110
3953.73914	0.03062
3952.45337	0.03038
3951.16760	0.03037
3949.88184	0.03059
3948.59607	0.03100
3947.31030	0.03146
3946.02453	0.03185
3944.73876	0.03205
3943.45299	0.03195
3942.16722	0.03153
3940.88145	0.03102
3939.59569	0.03084
3938.30992	0.03133
3937.02415	0.03239
3935.73838	0.03344
3934.45261	0.03391
3933.16684	0.03371
3931.88107	0.03329
3930.59530	0.03312
3929.30953	0.03321
3928.02377	0.03317
3926.73800	0.03278
3925.45223	0.03225
3924.16646	0.03196
3922.88069	0.03215
3921.59492	0.03277
3920.30915	0.03350
3919.02338	0.03396
3917.73762	0.03386
3916.45185	0.03328
3915.16608	0.03256
3913.88031	0.03206
3912.59454	0.03187
3911.30877	0.03187
3910.02300	0.03199
3908.73723	0.03219
3907.45146	0.03238
3906.16570	0.03238
3904.87993	0.03212
3903.59416	0.03184
3902.30839	0.03185
3901.02262	0.03222
3899.73685	0.03258
3898.45108	0.03249
3897.16531	0.03190
3895.87955	0.03112
3894.59378	0.03048
3893.30801	0.03018
3892.02224	0.03021
3890.73647	0.03045
3889.45070	0.03089
3888.16493	0.03163
3886.87916	0.03262
3885.59339	0.03355
3884.30763	0.03405
3883.02186	0.03398
3881.73609	0.03329
3880.45032	0.03199
3879.16455	0.03043
3877.87878	0.02933
3876.59301	0.02923
3875.30724	0.02993
3874.02148	0.03060
3872.73571	0.03065
3871.44994	0.03021
3870.16417	0.02982
3868.87840	0.02984
3867.59263	0.03023
3866.30686	0.03066
3865.02109	0.03087
3863.73532	0.03096
3862.44956	0.03126
3861.16379	0.03183
3859.87802	0.03221
3858.59225	0.03185
3857.30648	0.03073
3856.02071	0.02949
3854.73494	0.02893
3853.44917	0.02927
3852.16341	0.03011
3850.87764	0.03089
3849.59187	0.03119
3848.30610	0.03096
3847.02033	0.03050
3845.73456	0.03025
3844.44879	0.03041
3843.16302	0.03080
3841.87725	0.03097
3840.59149	0.03065
3839.30572	0.03004
3838.01995	0.02967
3836.73418	0.02985
3835.44841	0.03039
3834.16264	0.03080
3832.87687	0.03071
3831.59110	0.03018
3830.30534	0.02956
3829.01957	0.02920
3827.73380	0.02929
3826.44803	0.02985
3825.16226	0.03065
3823.87649	0.03134
3822.59072	0.03154
3821.30495	0.03110
3820.01918	0.03030
3818.73342	0.02972
3817.44765	0.02957
3816.16188	0.02962
3814.87611	0.02963
3813.59034	0.02979
3812.30457	0.03026
3811.01880	0.03084
3809.73303	0.03123
3808.44726	0.03128
3807.16150	0.03095
3805.87573	0.03031
3804.58996	0.02953
3803.30419	0.02875
3802.01842	0.02803
3800.73265	0.02753
3799.44688	0.02762
3798.16111	0.02831
3796.87535	0.02909
3795.58958	0.02947
3794.30381	0.02959
3793.01804	0.02981
3791.73227	0.03016
3790.44650	0.03027
3789.16073	0.02995
3787.87496	0.02945
3786.58919	0.02912
3785.30343	0.02914
3784.01766	0.02940
3782.73189	0.02980
3781.44612	0.03022
3780.16035	0.03048
3778.87458	0.03038
3777.58881	0.02997
3776.30304	0.02955
3775.01728	0.02942
3773.73151	0.02970
3772.44574	0.03021
3771.15997	0.03063
3769.87420	0.03068
3768.58843	0.03037
3767.30266	0.02991
3766.01689	0.02955
3764.73112	0.02937
3763.44536	0.02933
3762.15959	0.02930
3760.87382	0.02915
3759.58805	0.02893
3758.30228	0.02883
3757.01651	0.02887
3755.73074	0.02890
3754.44497	0.02883
3753.15921	0.02879
3751.87344	0.02901
3750.58767	0.02959
3749.30190	0.03034
3748.01613	0.03095
3746.73036	0.03133
3745.44459	0.03145
3744.15882	0.03110
3742.87305	0.03033
3741.58729	0.02966
3740.30152	0.02950
3739.01575	0.02984
3737.72998	0.03036
3736.44421	0.03069
3735.15844	0.03062
3733.87267	0.03018
3732.58690	0.02945
3731.30114	0.02846
3730.01537	0.02745
3728.72960	0.02684
3727.44383	0.02676
3726.15806	0.02693
3724.87229	0.02697
3723.58652	0.02677
3722.30075	0.02652
3721.01498	0.02647
3719.72922	0.02671
3718.44345	0.02717
3717.15768	0.02768
3715.87191	0.02816
3714.58614	0.02855
3713.30037	0.02858
3712.01460	0.02796
3710.72883	0.02675
3709.44307	0.02548
3708.15730	0.02480
3706.87153	0.02502
3705.58576	0.02589
3704.29999	0.02691
3703.01422	0.02773
3701.72845	0.02838
3700.44268	0.02900
3699.15691	0.02955
3697.87115	0.02993
3696.58538	0.03003
3695.29961	0.02979
3694.01384	0.02925
3692.72807	0.02857
3691.44230	0.02772
3690.15653	0.02670
3688.87076	0.02580
3687.58500	0.02529
3686.29923	0.02519
3685.01346	0.02538
3683.72769	0.02563
3682.44192	0.02584
3681.15615	0.02604
3679.87038	0.02625
3678.58461	0.02650
3677.29884	0.02685
3676.01308	0.02719
3674.72731	0.02747
3673.44154	0.02779
3672.15577	0.02816
3670.87000	0.02822
3669.58423	0.02771
3668.29846	0.02682
3667.01269	0.02586
3665.72693	0.02494
3664.44116	0.02424
3663.15539	0.02411
3661.86962	0.02483
3660.58385	0.02618
3659.29808	0.02762
3658.01231	0.02863
3656.72654	0.02897
3655.44077	0.02878
3654.15501	0.02840
3652.86924	0.02815
3651.58347	0.02812
3650.29770	0.02819
3649.01193	0.02821
3647.72616	0.02809
3646.44039	0.02793
3645.15462	0.02792
3643.86886	0.02817
3642.58309	0.02857
3641.29732	0.02892
3640.01155	0.02929
3638.72578	0.02981
3637.44001	0.03043
3636.15424	0.03080
3634.86847	0.03058
3633.58270	0.02972
3632.29694	0.02855
3631.01117	0.02760
3629.72540	0.02723
3628.43963	0.02741
3627.15386	0.02786
3625.86809	0.02819
3624.58232	0.02817
3623.29655	0.02795
3622.01079	0.02801
3620.72502	0.02855
3619.43925	0.02922
3618.15348	0.02952
3616.86771	0.02929
3615.58194	0.02872
3614.29617	0.02807
3613.01040	0.02749
3611.72463	0.02706
3610.43887	0.02694
3609.15310	0.02718
3607.86733	0.02765
3606.58156	0.02807
3605.29579	0.02822
3604.01002	0.02802
3602.72425	0.02772
3601.43848	0.02773
3600.15272	0.02826
3598.86695	0.02910
3597.58118	0.02985
3596.29541	0.03035
3595.00964	0.03061
3593.72387	0.03061
3592.43810	0.03037
3591.15233	0.03016
3589.86656	0.03042
3588.58080	0.03130
3587.29503	0.03235
3586.00926	0.03284
3584.72349	0.03246
3583.43772	0.03163
3582.15195	0.03094
3580.86618	0.03055
3579.58041	0.03027
3578.29464	0.02996
3577.00888	0.02977
3575.72311	0.03003
3574.43734	0.03084
3573.15157	0.03188
3571.86580	0.03271
3570.58003	0.03299
3569.29426	0.03272
3568.00849	0.03213
3566.72273	0.03150
3565.43696	0.03120
3564.15119	0.03145
3562.86542	0.03209
3561.57965	0.03257
3560.29388	0.03236
3559.00811	0.03148
3557.72234	0.03051
3556.43657	0.03012
3555.15081	0.03055
3553.86504	0.03155
3552.57927	0.03255
3551.29350	0.03302
3550.00773	0.03285
3548.72196	0.03238
3547.43619	0.03214
3546.15042	0.03235
3544.86466	0.03277
3543.57889	0.03301
3542.29312	0.03299
3541.00735	0.03292
3539.72158	0.03298
3538.43581	0.03301
3537.15004	0.03272
3535.86427	0.03200
3534.57850	0.03107
3533.29274	0.03039
3532.00697	0.03032
3530.72120	0.03084
3529.43543	0.03155
3528.14966	0.03193
3526.86389	0.03183
3525.57812	0.03156
3524.29235	0.03147
3523.00659	0.03166
3521.72082	0.03195
3520.43505	0.03213
3519.14928	0.03217
3517.86351	0.03222
3516.57774	0.03236
3515.29197	0.03248
3514.00620	0.03246
3512.72043	0.03236
3511.43467	0.03230
3510.14890	0.03228
3508.86313	0.03219
3507.57736	0.03212
3506.29159	0.03232
3505.00582	0.03285
3503.72005	0.03349
3502.43428	0.03391
3501.14852	0.03397
3499.86275	0.03372
3498.57698	0.03329
3497.29121	0.03284
3496.00544	0.03253
3494.71967	0.03241
3493.43390	0.03250
3492.14813	0.03286
3490.86236	0.03354
3489.57660	0.03440
3488.29083	0.03506
3487.00506	0.03514
3485.71929	0.03455
3484.43352	0.03353
3483.14775	0.03249
3481.86198	0.03177
3480.57621	0.03157
3479.29045	0.03190
3478.00468	0.03251
3476.71891	0.03304
3475.43314	0.03324
3474.14737	0.03314
3472.86160	0.03298
3471.57583	0.03303
3470.29006	0.03333
3469.00429	0.03380
3467.71853	0.03429
3466.43276	0.03474
3465.14699	0.03508
3463.86122	0.03514
3462.57545	0.03485
3461.28968	0.03441
3460.00391	0.03421
3458.71814	0.03445
3457.43238	0.03498
3456.14661	0.03547
3454.86084	0.03568
3453.57507	0.03552
3452.28930	0.03510
3451.00353	0.03465
3449.71776	0.03445
3448.43199	0.03456
3447.14622	0.03480
3445.86046	0.03497
3444.57469	0.03506
3443.28892	0.03513
3442.00315	0.03525
3440.71738	0.03541
3439.43161	0.03554
3438.14584	0.03556
3436.86007	0.03549
3435.57431	0.03549
3434.28854	0.03565
3433.00277	0.03585
3431.71700	0.03590
3430.43123	0.03580
3429.14546	0.03569
3427.85969	0.03566
3426.57392	0.03572
3425.28815	0.03591
3424.00239	0.03619
3422.71662	0.03637
3421.43085	0.03629
3420.14508	0.03602
3418.85931	0.03584
3417.57354	0.03584
3416.28777	0.03586
3415.00200	0.03576
3413.71624	0.03557
3412.43047	0.03536
3411.14470	0.03512
3409.85893	0.03486
3408.57316	0.03475
3407.28739	0.03484
3406.00162	0.03502
3404.71585	0.03517
3403.43008	0.03529
3402.14432	0.03545
3400.85855	0.03563
3399.57278	0.03574
3398.28701	0.03577
3397.00124	0.03588
3395.71547	0.03614
3394.42970	0.03645
3393.14393	0.03671
3391.85817	0.03693
3390.57240	0.03711
3389.28663	0.03716
3388.00086	0.03692
3386.71509	0.03641
3385.42932	0.03580
3384.14355	0.03535
3382.85778	0.03513
3381.57201	0.03500
3380.28625	0.03479
3379.00048	0.03455
3377.71471	0.03452
3376.42894	0.03490
3375.14317	0.03555
3373.85740	0.03615
3372.57163	0.03648
3371.28586	0.03658
3370.00010	0.03663
3368.71433	0.03672
3367.42856	0.03687
3366.14279	0.03696
3364.85702	0.03688
3363.57125	0.03660
3362.28548	0.03628
3360.99971	0.03616
3359.71394	0.03641
3358.42818	0.03695
3357.14241	0.03757
3355.85664	0.03810
3354.57087	0.03836
3353.28510	0.03827
3351.99933	0.03789
3350.71356	0.03741
3349.42779	0.03703
3348.14202	0.03677
3346.85626	0.03656
3345.57049	0.03634
3344.28472	0.03613
3342.99895	0.03600
3341.71318	0.03604
3340.42741	0.03633
3339.14164	0.03684
3337.85587	0.03739
3336.57011	0.03770
3335.28434	0.03763
3333.99857	0.03728
3332.71280	0.03703
3331.42703	0.03722
3330.14126	0.03785
3328.85549	0.03855
3327.56972	0.03893
3326.28395	0.03888
3324.99819	0.03857
3323.71242	0.03821
3322.42665	0.03786
3321.14088	0.03754
3319.85511	0.03728
3318.56934	0.03713
3317.28357	0.03704
3315.99780	0.03697
3314.71204	0.03696
3313.42627	0.03706
3312.14050	0.03726
3310.85473	0.03746
3309.56896	0.03755
3308.28319	0.03754
3306.99742	0.03748
3305.71165	0.03735
3304.42588	0.03706
3303.14012	0.03661
3301.85435	0.03616
3300.56858	0.03591
3299.28281	0.03586
3297.99704	0.03587
3296.71127	0.03584
3295.42550	0.03581
3294.13973	0.03587
3292.85397	0.03608
3291.56820	0.03643
3290.28243	0.03679
3288.99666	0.03690
3287.71089	0.03657
3286.42512	0.03594
3285.13935	0.03536
3283.85358	0.03515
3282.56781	0.03529
3281.28205	0.03559
3279.99628	0.03585
3278.71051	0.03600
3277.42474	0.03604
3276.13897	0.03598
3274.85320	0.03584
3273.56743	0.03575
3272.28166	0.03584
3270.99590	0.03615
3269.71013	0.03649
3268.42436	0.03659
3267.13859	0.03635
3265.85282	0.03596
3264.56705	0.03572
3263.28128	0.03578
3261.99551	0.03607
3260.70974	0.03641
3259.42398	0.03665
3258.13821	0.03674
3256.85244	0.03667
3255.56667	0.03647
3254.28090	0.03618
3252.99513	0.03587
3251.70936	0.03562
3250.42359	0.03549
3249.13783	0.03548
3247.85206	0.03557
3246.56629	0.03572
3245.28052	0.03592
3243.99475	0.03619
3242.70898	0.03644
3241.42321	0.03660
3240.13744	0.03668
3238.85167	0.03670
3237.56591	0.03661
3236.28014	0.03634
3234.99437	0.03590
3233.70860	0.03545
3232.42283	0.03513
3231.13706	0.03499
3229.85129	0.03496
3228.56552	0.03494
3227.27976	0.03489
3225.99399	0.03490
3224.70822	0.03510
3223.42245	0.03549
3222.13668	0.03587
3220.85091	0.03596
3219.56514	0.03566
3218.27937	0.03523
3216.99360	0.03500
3215.70784	0.03510
3214.42207	0.03533
3213.13630	0.03538
3211.85053	0.03510
3210.56476	0.03458
3209.27899	0.03405
3207.99322	0.03365
3206.70745	0.03345
3205.42169	0.03348
3204.13592	0.03378
3202.85015	0.03430
3201.56438	0.03486
3200.27861	0.03528
3198.99284	0.03549
3197.70707	0.03558
3196.42130	0.03564
3195.13553	0.03563
3193.84977	0.03544
3192.56400	0.03507
3191.27823	0.03467
3189.99246	0.03437
3188.70669	0.03413
3187.42092	0.03382
3186.13515	0.03343
3184.84938	0.03304
3183.56362	0.03277
3182.27785	0.03268
3180.99208	0.03289
3179.70631	0.03349
3178.42054	0.03434
3177.13477	0.03504
3175.84900	0.03519
3174.56323	0.03474
3173.27746	0.03402
3171.99170	0.03345
3170.70593	0.03322
3169.42016	0.03324
3168.13439	0.03330
3166.84862	0.03323
3165.56285	0.03298
3164.27708	0.03269
3162.99131	0.03250
3161.70555	0.03243
3160.41978	0.03234
3159.13401	0.03214
3157.84824	0.03198
3156.56247	0.03207
3155.27670	0.03247
3153.99093	0.03293
3152.70516	0.03314
3151.41939	0.03303
3150.13363	0.03278
3148.84786	0.03255
3147.56209	0.03237
3146.27632	0.03222
3144.99055	0.03210
3143.70478	0.03201
3142.41901	0.03190
3141.13324	0.03173
3139.84748	0.03159
3138.56171	0.03159
3137.27594	0.03173
3135.99017	0.03191
3134.70440	0.03208
3133.41863	0.03223
3132.13286	0.03230
3130.84709	0.03218
3129.56132	0.03188
3128.27556	0.03152
3126.98979	0.03127
3125.70402	0.03124
3124.41825	0.03139
3123.13248	0.03159
3121.84671	0.03172
3120.56094	0.03177
3119.27517	0.03178
3117.98940	0.03176
3116.70364	0.03164
3115.41787	0.03143
3114.13210	0.03121
3112.84633	0.03107
3111.56056	0.03105
3110.27479	0.03115
3108.98902	0.03134
3107.70325	0.03152
3106.41749	0.03155
3105.13172	0.03125
3103.84595	0.03064
3102.56018	0.03000
3101.27441	0.02973
3099.98864	0.02995
3098.70287	0.03044
3097.41710	0.03079
3096.13133	0.03079
3094.84557	0.03055
3093.55980	0.03031
3092.27403	0.03019
3090.98826	0.03019
3089.70249	0.03022
3088.41672	0.03030
3087.13095	0.03047
3085.84518	0.03078
3084.55942	0.03118
3083.27365	0.03148
3081.98788	0.03154
3080.70211	0.03139
3079.41634	0.03117
3078.13057	0.03094
3076.84480	0.03067
3075.55903	0.03036
3074.27326	0.03014
3072.98750	0.03010
3071.70173	0.03021
3070.41596	0.03029
3069.13019	0.03023
3067.84442	0.03008
3066.55865	0.02992
3065.27288	0.02979
3063.98711	0.02970
3062.70135	0.02968
3061.41558	0.02977
3060.12981	0.02996
3058.84404	0.03015
3057.55827	0.03015
3056.27250	0.02981
3054.98673	0.02918
3053.70096	0.02861
3052.41519	0.02853
3051.12943	0.02903
3049.84366	0.02983
3048.55789	0.03048
3047.27212	0.03072
3045.98635	0.03057
3044.70058	0.03019
3043.41481	0.02978
3042.12904	0.02950
3040.84328	0.02943
3039.55751	0.02953
3038.27174	0.02964
3036.98597	0.02963
3035.70020	0.02941
3034.41443	0.02906
3033.12866	0.02878
3031.84289	0.02872
3030.55712	0.02890
3029.27136	0.02919
3027.98559	0.02943
3026.69982	0.02950
3025.41405	0.02943
3024.12828	0.02930
3022.84251	0.02918
3021.55674	0.02908
3020.27097	0.02892
3018.98521	0.02867
3017.69944	0.02837
3016.41367	0.02816
3015.12790	0.02817
3013.84213	0.02839
3012.55636	0.02868
3011.27059	0.02881
3009.98482	0.02868
3008.69905	0.02836
3007.41329	0.02809
3006.12752	0.02804
3004.84175	0.02815
3003.55598	0.02818
3002.27021	0.02807
3000.98444	0.02792
2999.69867	0.02791
2998.41290	0.02806
2997.12714	0.02824
2995.84137	0.02836
2994.55560	0.02847
2993.26983	0.02866
2991.98406	0.02888
2990.69829	0.02899
2989.41252	0.02890
2988.12675	0.02868
2986.84098	0.02852
2985.55522	0.02858
2984.26945	0.02882
2982.98368	0.02910
2981.69791	0.02927
2980.41214	0.02931
2979.12637	0.02928
2977.84060	0.02929
2976.55483	0.02936
2975.26907	0.02942
2973.98330	0.02947
2972.69753	0.02954
2971.41176	0.02971
2970.12599	0.02997
2968.84022	0.03028
2967.55445	0.03062
2966.26868	0.03094
2964.98291	0.03120
2963.69715	0.03139
2962.41138	0.03155
2961.12561	0.03173
2959.83984	0.03190
2958.55407	0.03204
2957.26830	0.03221
2955.98253	0.03250
2954.69676	0.03290
2953.41100	0.03332
2952.12523	0.03366
2950.83946	0.03385
2949.55369	0.03388
2948.26792	0.03384
2946.98215	0.03389
2945.69638	0.03409
2944.41061	0.03433
2943.12484	0.03446
2941.83908	0.03436
2940.55331	0.03402
2939.26754	0.03355
2937.98177	0.03319
2936.69600	0.03318
2935.41023	0.03353
2934.12446	0.03400
2932.83869	0.03435
2931.55293	0.03457
2930.26716	0.03475
2928.98139	0.03499
2927.69562	0.03530
2926.40985	0.03569
2925.12408	0.03612
2923.83831	0.03644
2922.55254	0.03649
2921.26677	0.03624
2919.98101	0.03591
2918.69524	0.03567
2917.40947	0.03549
2916.12370	0.03521
2914.83793	0.03484
2913.55216	0.03452
2912.26639	0.03444
2910.98062	0.03459
2909.69486	0.03483
2908.40909	0.03496
2907.12332	0.03488
2905.83755	0.03462
2904.55178	0.03432
2903.26601	0.03405
2901.98024	0.03378
2900.69447	0.03348
2899.40870	0.03316
2898.12294	0.03287
2896.83717	0.03272
2895.55140	0.03271
2894.26563	0.03274
2892.97986	0.03265
2891.69409	0.03239
2890.40832	0.03212
2889.12255	0.03198
2887.83678	0.03194
2886.55102	0.03190
2885.26525	0.03185
2883.97948	0.03183
2882.69371	0.03179
2881.40794	0.03165
2880.12217	0.03145
2878.83640	0.03135
2877.55063	0.03140
2876.26487	0.03149
2874.97910	0.03150
2873.69333	0.03145
2872.40756	0.03145
2871.12179	0.03155
2869.83602	0.03168
2868.55025	0.03174
2867.26448	0.03174
2865.97871	0.03179
2864.69295	0.03197
2863.40718	0.03216
2862.12141	0.03211
2860.83564	0.03174
2859.54987	0.03125
2858.26410	0.03098
2856.97833	0.03101
2855.69256	0.03114
2854.40680	0.03113
2853.12103	0.03094
2851.83526	0.03076
2850.54949	0.03072
2849.26372	0.03077
2847.97795	0.03074
2846.69218	0.03052
2845.40641	0.03022
2844.12064	0.03005
2842.83488	0.03002
2841.54911	0.02993
2840.26334	0.02959
2838.97757	0.02908
2837.69180	0.02863
2836.40603	0.02839
2835.12026	0.02827
2833.83449	0.02812
2832.54873	0.02784
2831.26296	0.02746
2829.97719	0.02708
2828.69142	0.02680
2827.40565	0.02669
2826.11988	0.02674
2824.83411	0.02690
2823.54834	0.02710
2822.26257	0.02723
2820.97681	0.02721
2819.69104	0.02702
2818.40527	0.02674
2817.11950	0.02652
2815.83373	0.02645
2814.54796	0.02648
2813.26219	0.02650
2811.97642	0.02641
2810.69066	0.02625
2809.40489	0.02609
2808.11912	0.02590
2806.83335	0.02563
2805.54758	0.02536
2804.26181	0.02524
2802.97604	0.02534
2801.69027	0.02556
2800.40450	0.02575
2799.11874	0.02579
2797.83297	0.02567
2796.54720	0.02547
2795.26143	0.02528
2793.97566	0.02510
2792.68989	0.02489
2791.40412	0.02470
2790.11835	0.02459
2788.83259	0.02462
2787.54682	0.02478
2786.26105	0.02496
2784.97528	0.02503
2783.68951	0.02495
2782.40374	0.02479
2781.11797	0.02471
2779.83220	0.02478
2778.54643	0.02494
2777.26067	0.02508
2775.97490	0.02512
2774.68913	0.02508
2773.40336	0.02498
2772.11759	0.02489
2770.83182	0.02484
2769.54605	0.02482
2768.26028	0.02483
2766.97452	0.02480
2765.68875	0.02465
2764.40298	0.02440
2763.11721	0.02420
2761.83144	0.02420
2760.54567	0.02435
2759.25990	0.02449
2757.97413	0.02450
2756.68836	0.02439
2755.40260	0.02427
2754.11683	0.02421
2752.83106	0.02424
2751.54529	0.02435
2750.25952	0.02450
2748.97375	0.02459
2747.68798	0.02448
2746.40221	0.02420
2745.11645	0.02390
2743.83068	0.02376
2742.54491	0.02380
2741.25914	0.02393
2739.97337	0.02403
2738.68760	0.02408
2737.40183	0.02410
2736.11606	0.02413
2734.83029	0.02419
2733.54453	0.02417
2732.25876	0.02403
2730.97299	0.02385
2729.68722	0.02381
2728.40145	0.02394
2727.11568	0.02412
2725.82991	0.02417
2724.54414	0.02401
2723.25838	0.02375
2721.97261	0.02350
2720.68684	0.02334
2719.40107	0.02329
2718.11530	0.02332
2716.82953	0.02338
2715.54376	0.02340
2714.25799	0.02338
2712.97222	0.02332
2711.68646	0.02324
2710.40069	0.02316
2709.11492	0.02314
2707.82915	0.02322
2706.54338	0.02339
2705.25761	0.02356
2703.97184	0.02367
2702.68607	0.02368
2701.40031	0.02356
2700.11454	0.02336
2698.82877	0.02318
2697.54300	0.02313
2696.25723	0.02322
2694.97146	0.02335
2693.68569	0.02343
2692.39992	0.02342
2691.11415	0.02336
2689.82839	0.02324
2688.54262	0.02308
2687.25685	0.02294
2685.97108	0.02287
2684.68531	0.02289
2683.39954	0.02290
2682.11377	0.02284
2680.82800	0.02272
2679.54224	0.02258
2678.25647	0.02252
2676.97070	0.02262
2675.68493	0.02287
2674.39916	0.02312
2673.11339	0.02317
2671.82762	0.02300
2670.54185	0.02275
2669.25608	0.02262
2667.97032	0.02267
2666.68455	0.02284
2665.39878	0.02299
2664.11301	0.02308
2662.82724	0.02309
2661.54147	0.02307
2660.25570	0.02305
2658.96993	0.02304
2657.68417	0.02304
2656.39840	0.02301
2655.11263	0.02291
2653.82686	0.02280
2652.54109	0.02280
2651.25532	0.02293
2649.96955	0.02302
2648.68378	0.02294
2647.39801	0.02272
2646.11225	0.02250
2644.82648	0.02238
2643.54071	0.02232
2642.25494	0.02226
2640.96917	0.02218
2639.68340	0.02204
2638.39763	0.02184
2637.11186	0.02161
2635.82609	0.02147
2634.54033	0.02148
2633.25456	0.02155
2631.96879	0.02155
2630.68302	0.02141
2629.39725	0.02119
2628.11148	0.02099
2626.82571	0.02087
2625.53994	0.02082
2624.25418	0.02080
2622.96841	0.02075
2621.68264	0.02060
2620.39687	0.02037
2619.11110	0.02020
2617.82533	0.02021
2616.53956	0.02041
2615.25379	0.02059
2613.96802	0.02054
2612.68226	0.02023
2611.39649	0.01984
2610.11072	0.01958
2608.82495	0.01955
2607.53918	0.01971
2606.25341	0.01997
2604.96764	0.02021
2603.68187	0.02031
2602.39611	0.02019
2601.11034	0.01996
2599.82457	0.01984
2598.53880	0.01994
2597.25303	0.02016
2595.96726	0.02021
2594.68149	0.01997
2593.39572	0.01956
2592.10995	0.01925
2590.82419	0.01925
2589.53842	0.01954
2588.25265	0.01987
2586.96688	0.02002
2585.68111	0.01993
2584.39534	0.01973
2583.10957	0.01963
2581.82380	0.01969
2580.53804	0.01985
2579.25227	0.02001
2577.96650	0.02004
2576.68073	0.01990
2575.39496	0.01967
2574.10919	0.01949
2572.82342	0.01940
2571.53765	0.01926
2570.25188	0.01897
2568.96612	0.01860
2567.68035	0.01841
2566.39458	0.01856
2565.10881	0.01890
2563.82304	0.01915
2562.53727	0.01923
2561.25150	0.01931
2559.96573	0.01951
2558.67997	0.01965
2557.39420	0.01956
2556.10843	0.01935
2554.82266	0.01932
2553.53689	0.01961
2552.25112	0.02002
2550.96535	0.02013
2549.67958	0.01972
2548.39381	0.01895
2547.10805	0.01822
2545.82228	0.01788
2544.53651	0.01793
2543.25074	0.01809
2541.96497	0.01807
2540.67920	0.01782
2539.39343	0.01763
2538.10766	0.01783
2536.82190	0.01843
2535.53613	0.01909
2534.25036	0.01929
2532.96459	0.01884
2531.67882	0.01805
2530.39305	0.01747
2529.10728	0.01743
2527.82151	0.01781
2526.53574	0.01819
2525.24998	0.01831
2523.96421	0.01822
2522.67844	0.01812
2521.39267	0.01808
2520.10690	0.01807
2518.82113	0.01802
2517.53536	0.01794
2516.24959	0.01785
2514.96383	0.01778
2513.67806	0.01782
2512.39229	0.01801
2511.10652	0.01828
2509.82075	0.01840
2508.53498	0.01822
2507.24921	0.01773
2505.96344	0.01707
2504.67767	0.01646
2503.39191	0.01614
2502.10614	0.01626
2500.82037	0.01670
2499.53460	0.01722
2498.24883	0.01764
2496.96306	0.01796
2495.67729	0.01824
2494.39152	0.01850
2493.10576	0.01870
2491.81999	0.01875
2490.53422	0.01853
2489.24845	0.01810
2487.96268	0.01770
2486.67691	0.01755
2485.39114	0.01764
2484.10537	0.01772
2482.81960	0.01768
2481.53384	0.01766
2480.24807	0.01787
2478.96230	0.01829
2477.67653	0.01862
2476.39076	0.01859
2475.10499	0.01818
2473.81922	0.01761
2472.53345	0.01710
2471.24769	0.01679
2469.96192	0.01676
2468.67615	0.01700
2467.39038	0.01736
2466.10461	0.01762
2464.81884	0.01767
2463.53307	0.01757
2462.24730	0.01740
2460.96153	0.01724
2459.67577	0.01712
2458.39000	0.01702
2457.10423	0.01693
2455.81846	0.01687
2454.53269	0.01689
2453.24692	0.01701
2451.96115	0.01716
2450.67538	0.01721
2449.38962	0.01713
2448.10385	0.01694
2446.81808	0.01671
2445.53231	0.01648
2444.24654	0.01636
2442.96077	0.01645
2441.67500	0.01677
2440.38923	0.01713
2439.10346	0.01736
2437.81770	0.01744
2436.53193	0.01740
2435.24616	0.01728
2433.96039	0.01708
2432.67462	0.01691
2431.38885	0.01687
2430.10308	0.01704
2428.81731	0.01734
2427.53155	0.01762
2426.24578	0.01771
2424.96001	0.01750
2423.67424	0.01704
2422.38847	0.01651
2421.10270	0.01621
2419.81693	0.01634
2418.53116	0.01681
2417.24539	0.01733
2415.95963	0.01759
2414.67386	0.01742
2413.38809	0.01695
2412.10232	0.01654
2410.81655	0.01646
2409.53078	0.01665
2408.24501	0.01676
2406.95924	0.01661
2405.67347	0.01637
2404.38771	0.01632
2403.10194	0.01652
2401.81617	0.01674
2400.53040	0.01680
2399.24463	0.01650
2397.95886	0.01642
2396.67309	0.01654
2395.38732	0.01667
2394.10156	0.01682
2392.81579	0.01700
2391.53002	0.01717
2390.24425	0.01716
2388.95848	0.01686
2387.67271	0.01638
2386.38694	0.01599
2385.10117	0.01583
2383.81540	0.01588
2382.52964	0.01603
2381.24387	0.01621
2379.95810	0.01640
2378.67233	0.01662
2377.38656	0.01690
2376.10079	0.01718
2374.81502	0.01735
2373.52925	0.01737
2372.24349	0.01717
2370.95772	0.01692
2369.67195	0.01652
2368.38618	0.01619
2367.10041	0.01622
2365.81464	0.01659
2364.52887	0.01673
2363.24310	0.01670
2361.95733	0.01688
2360.67157	0.01749
2359.38580	0.01792
2358.10003	0.01807
2356.81426	0.01803
2355.52849	0.01783
2354.24272	0.01755
2352.95695	0.01732
2351.67118	0.01764
2350.38542	0.01842
2349.09965	0.01872
2347.81388	0.01818
2346.52811	0.01783
2345.24234	0.01793
2343.95657	0.01770
2342.67080	0.01691
2341.38503	0.01698
2340.09926	0.01798
2338.81350	0.01789
2337.52773	0.01668
2336.24196	0.01663
2334.95619	0.01748
2333.67042	0.01697
2332.38465	0.01537
2331.09888	0.01537
2329.81311	0.01547
2328.52735	0.01397
2327.24158	0.01427
2325.95581	0.01593
2324.67004	0.01635
2323.38427	0.01720
2322.09850	0.01867
2320.81273	0.01864
2319.52696	0.01891
2318.24119	0.01939
2316.95543	0.01879
2315.66966	0.01846
2314.38389	0.01836
2313.09812	0.01804
2311.81235	0.01820
2310.52658	0.01814
2309.24081	0.01785
2307.95504	0.01750
2306.66928	0.01684
2305.38351	0.01640
2304.09774	0.01614
2302.81197	0.01591
2301.52620	0.01574
2300.24043	0.01546
2298.95466	0.01528
2297.66889	0.01515
2296.38312	0.01501
2295.09736	0.01487
2293.81159	0.01479
2292.52582	0.01496
2291.24005	0.01533
2289.95428	0.01577
2288.66851	0.01611
2287.38274	0.01627
2286.09697	0.01622
2284.81121	0.01595
2283.52544	0.01559
2282.23967	0.01531
2280.95390	0.01524
2279.66813	0.01535
2278.38236	0.01554
2277.09659	0.01568
2275.81082	0.01573
2274.52505	0.01559
2273.23929	0.01523
2271.95352	0.01466
2270.66775	0.01400
2269.38198	0.01343
2268.09621	0.01324
2266.81044	0.01362
2265.52467	0.01438
2264.23890	0.01502
2262.95314	0.01518
2261.66737	0.01486
2260.38160	0.01432
2259.09583	0.01389
2257.81006	0.01385
2256.52429	0.01421
2255.23852	0.01466
2253.95275	0.01474
2252.66698	0.01417
2251.38122	0.01319
2250.09545	0.01269
2248.80968	0.01316
2247.52391	0.01325
2246.23814	0.01314
2244.95237	0.01266
2243.66660	0.01199
2242.38083	0.01141
2241.09507	0.01103
2239.80930	0.01090
2238.52353	0.01104
2237.23776	0.01140
2235.95199	0.01181
2234.66622	0.01220
2233.38045	0.01262
2232.09468	0.01309
2230.80891	0.01348
2229.52315	0.01365
2228.23738	0.01358
2226.95161	0.01341
2225.66584	0.01322
2224.38007	0.01288
2223.09430	0.01222
2221.80853	0.01135
2220.52276	0.01062
2219.23700	0.01033
2217.95123	0.01055
2216.66546	0.01114
2215.37969	0.01174
2214.09392	0.01198
2212.80815	0.01180
2211.52238	0.01147
2210.23661	0.01119
2208.95084	0.01094
2207.66508	0.01069
2206.37931	0.01056
2205.09354	0.01067
2203.80777	0.01096
2202.52200	0.01128
2201.23623	0.01152
2199.95046	0.01168
2198.66469	0.01191
2197.37893	0.01221
2196.09316	0.01236
2194.80739	0.01214
2193.52162	0.01166
2192.23585	0.01121
2190.95008	0.01099
2189.66431	0.01093
2188.37854	0.01082
2187.09277	0.01056
2185.80701	0.01022
2184.52124	0.00990
2183.23547	0.00938
2181.94970	0.00829
2180.66393	0.00670
2179.37816	0.00532
2178.09239	0.00485
2176.80662	0.00547
2175.52085	0.00676
2174.23509	0.00805
2172.94932	0.00869
2171.66355	0.00861
2170.37778	0.00846
2169.09201	0.00880
2167.80624	0.00941
2166.52047	0.00978
2165.23470	0.01005
2163.94894	0.01089
2162.66317	0.01222
2161.37740	0.01279
2160.09163	0.01145
2158.80586	0.00863
2157.52009	0.00617
2156.23432	0.00545
2154.94855	0.00637
2153.66278	0.00786
2152.37702	0.00888
2151.09125	0.00897
2149.80548	0.00826
2148.51971	0.00722
2147.23394	0.00633
2145.94817	0.00584
2144.66240	0.00586
2143.37663	0.00631
2142.09087	0.00704
2140.80510	0.00785
2139.51933	0.00851
2138.23356	0.00889
2136.94779	0.00893
2135.66202	0.00880
2134.37625	0.00870
2133.09048	0.00873
2131.80471	0.00881
2130.51895	0.00878
2129.23318	0.00870
2127.94741	0.00868
2126.66164	0.00885
2125.37587	0.00911
2124.09010	0.00922
2122.80433	0.00898
2121.51856	0.00848
2120.23280	0.00809
2118.94703	0.00809
2117.66126	0.00848
2116.37549	0.00899
2115.08972	0.00938
2113.80395	0.00960
2112.51818	0.00978
2111.23241	0.01010
2109.94664	0.01068
2108.66088	0.01143
2107.37511	0.01209
2106.08934	0.01226
2104.80357	0.01181
2103.51780	0.01096
2102.23203	0.01012
2100.94626	0.00950
2099.66049	0.00782
2098.37473	0.00704
2097.08896	0.00701
2095.80319	0.00719
2094.51742	0.00754
2093.23165	0.00811
2091.94588	0.00873
2090.66011	0.00904
2089.37434	0.00890
2088.08857	0.00855
2086.80281	0.00836
2085.51704	0.00841
2084.23127	0.00849
2082.94550	0.00840
2081.65973	0.00811
2080.37396	0.00763
2079.08819	0.00695
2077.80242	0.00605
2076.51666	0.00507
2075.23089	0.00434
2073.94512	0.00417
2072.65935	0.00473
2071.37358	0.00583
2070.08781	0.00691
2068.80204	0.00750
2067.51627	0.00750
2066.23050	0.00727
2064.94474	0.00724
2063.65897	0.00758
2062.37320	0.00816
2061.08743	0.00866
2059.80166	0.00881
2058.51589	0.00853
2057.23012	0.00805
2055.94435	0.00776
2054.65859	0.00788
2053.37282	0.00820
2052.08705	0.00822
2050.80128	0.00760
2049.51551	0.00647
2048.22974	0.00529
2046.94397	0.00437
2045.65820	0.00370
2044.37243	0.00323
2043.08667	0.00313
2041.80090	0.00356
2040.51513	0.00433
2039.22936	0.00492
2037.94359	0.00483
2036.65782	0.00401
2035.37205	0.00293
2034.08628	0.00232
2032.80052	0.00257
2031.51475	0.00338
2030.22898	0.00405
2028.94321	0.00420
2027.65744	0.00404
2026.37167	0.00397
2025.08590	0.00410
2023.80013	0.00415
2022.51436	0.00393
2021.22860	0.00351
2019.94283	0.00310
2018.65706	0.00281
2017.37129	0.00250
2016.08552	0.00196
2014.79975	0.00127
2013.51398	0.00083
2012.22821	0.00102
2010.94245	0.00165
2009.65668	0.00226
2008.37091	0.00268
2007.08514	0.00328
2005.79937	0.00430
2004.51360	0.00537
2003.22783	0.00596
2001.94206	0.00607
2000.65629	0.00619
1999.37053	0.00670
1998.08476	0.00747
1996.79899	0.00809
1995.51322	0.00823
1994.22745	0.00784
1992.94168	0.00709
1991.65591	0.00627
1990.37014	0.00568
1989.08438	0.00561
1987.79861	0.00620
1986.51284	0.00725
1985.22707	0.00820
1983.94130	0.00840
1982.65553	0.00755
1981.36976	0.00581
1980.08399	0.00372
1978.79822	0.00187
1977.51246	0.00060
1976.22669	-0.00006
1974.94092	-0.00017
1973.65515	0.00018
1972.36938	0.00091
1971.08361	0.00175
1969.79784	0.00237
1968.51207	0.00270
1967.22631	0.00296
1965.94054	0.00352
1964.65477	0.00447
1963.36900	0.00559
1962.08323	0.00654
1960.79746	0.00713
1959.51169	0.00734
1958.22592	0.00722
1956.94015	0.00687
1955.65439	0.00645
1954.36862	0.00618
1953.08285	0.00624
1951.79708	0.00668
1950.51131	0.00736
1949.22554	0.00799
1947.93977	0.00828
1946.65400	0.00806
1945.36823	0.00747
1944.08247	0.00684
1942.79670	0.00644
1941.51093	0.00631
1940.22516	0.00634
1938.93939	0.00649
1937.65362	0.00682
1936.36785	0.00723
1935.08208	0.00747
1933.79632	0.00739
1932.51055	0.00717
1931.22478	0.00712
1929.93901	0.00739
1928.65324	0.00786
1927.36747	0.00829
1926.08170	0.00849
1924.79593	0.00847
1923.51016	0.00835
1922.22440	0.00832
1920.93863	0.00848
1919.65286	0.00880
1918.36709	0.00919
1917.08132	0.00947
1915.79555	0.00948
1914.50978	0.00917
1913.22401	0.00862
1911.93825	0.00804
1910.65248	0.00763
1909.36671	0.00747
1908.08094	0.00749
1906.79517	0.00763
1905.50940	0.00786
1904.22363	0.00816
1902.93786	0.00843
1901.65209	0.00851
1900.36633	0.00837
1899.08056	0.00819
1897.79479	0.00817
1896.50902	0.00839
1895.22325	0.00869
1893.93748	0.00879
1892.65171	0.00860
1891.36594	0.00822
1890.08018	0.00792
1888.79441	0.00789
1887.50864	0.00816
1886.22287	0.00862
1884.93710	0.00911
1883.65133	0.00941
1882.36556	0.00938
1881.07979	0.00909
1879.79402	0.00880
1878.50826	0.00872
1877.22249	0.00882
1875.93672	0.00890
1874.65095	0.00884
1873.36518	0.00873
1872.07941	0.00874
1870.79364	0.00893
1869.50787	0.00917
1868.22211	0.00928
1866.93634	0.00920
1865.65057	0.00904
1864.36480	0.00891
1863.07903	0.00886
1861.79326	0.00893
1860.50749	0.00909
1859.22172	0.00926
1857.93595	0.00934
1856.65019	0.00932
1855.36442	0.00927
1854.07865	0.00923
1852.79288	0.00919
1851.50711	0.00913
1850.22134	0.00904
1848.93557	0.00891
1847.64980	0.00875
1846.36404	0.00861
1845.07827	0.00854
1843.79250	0.00856
1842.50673	0.00866
1841.22096	0.00884
1839.93519	0.00910
1838.64942	0.00936
1837.36365	0.00954
1836.07788	0.00954
1834.79212	0.00937
1833.50635	0.00913
1832.22058	0.00895
1830.93481	0.00886
1829.64904	0.00878
1828.36327	0.00865
1827.07750	0.00850
1825.79173	0.00833
1824.50597	0.00813
1823.22020	0.00796
1821.93443	0.00790
1820.64866	0.00799
1819.36289	0.00818
1818.07712	0.00844
1816.79135	0.00873
1815.50558	0.00904
1814.21981	0.00935
1812.93405	0.00965
1811.64828	0.00991
1810.36251	0.01009
1809.07674	0.01016
1807.79097	0.01016
1806.50520	0.01011
1805.21943	0.01006
1803.93366	0.01000
1802.64790	0.00988
1801.36213	0.00970
1800.07636	0.00953
1798.79059	0.00943
1797.50482	0.00942
1796.21905	0.00942
1794.93328	0.00933
1793.64751	0.00922
1792.36174	0.00916
1791.07598	0.00924
1789.79021	0.00939
1788.50444	0.00953
1787.21867	0.00959
1785.93290	0.00958
1784.64713	0.00954
1783.36136	0.00951
1782.07559	0.00952
1780.78983	0.00953
1779.50406	0.00949
1778.21829	0.00935
1776.93252	0.00916
1775.64675	0.00903
1774.36098	0.00907
1773.07521	0.00923
1771.78944	0.00941
1770.50367	0.00959
1769.21791	0.00983
1767.93214	0.01006
1766.64637	0.01015
1765.36060	0.01006
1764.07483	0.00990
1762.78906	0.00978
1761.50329	0.00976
1760.21752	0.00981
1758.93176	0.00989
1757.64599	0.00993
1756.36022	0.00986
1755.07445	0.00968
1753.78868	0.00950
1752.50291	0.00941
1751.21714	0.00942
1749.93137	0.00953
1748.64560	0.00968
1747.35984	0.00984
1746.07407	0.00990
1744.78830	0.00983
1743.50253	0.00969
1742.21676	0.00960
1740.93099	0.00961
1739.64522	0.00965
1738.35945	0.00959
1737.07369	0.00946
1735.78792	0.00939
1734.50215	0.00945
1733.21638	0.00964
1731.93061	0.00990
1730.64484	0.01018
1729.35907	0.01037
1728.07330	0.01040
1726.78753	0.01035
1725.50177	0.01035
1724.21600	0.01045
1722.93023	0.01059
1721.64446	0.01068
1720.35869	0.01067
1719.07292	0.01062
1717.78715	0.01059
1716.50138	0.01066
1715.21561	0.01085
1713.92985	0.01114
1712.64408	0.01141
1711.35831	0.01160
1710.07254	0.01173
1708.78677	0.01185
1707.50100	0.01199
1706.21523	0.01212
1704.92946	0.01220
1703.64370	0.01227
1702.35793	0.01243
1701.07216	0.01272
1699.78639	0.01302
1698.50062	0.01333
1697.21485	0.01371
1695.92908	0.01416
1694.64331	0.01460
1693.35754	0.01506
1692.07178	0.01559
1690.78601	0.01611
1689.50024	0.01648
1688.21447	0.01671
1686.92870	0.01690
1685.64293	0.01715
1684.35716	0.01747
1683.07139	0.01785
1681.78563	0.01834
1680.49986	0.01890
1679.21409	0.01938
1677.92832	0.01976
1676.64255	0.02009
1675.35678	0.02044
1674.07101	0.02078
1672.78524	0.02111
1671.49947	0.02145
1670.21371	0.02178
1668.92794	0.02207
1667.64217	0.02234
1666.35640	0.02261
1665.07063	0.02294
1663.78486	0.02331
1662.49909	0.02370
1661.21332	0.02406
1659.92756	0.02436
1658.64179	0.02452
1657.35602	0.02451
1656.07025	0.02440
1654.78448	0.02432
1653.49871	0.02434
1652.21294	0.02441
1650.92717	0.02456
1649.64140	0.02483
1648.35564	0.02518
1647.06987	0.02548
1645.78410	0.02564
1644.49833	0.02569
1643.21256	0.02568
1641.92679	0.02563
1640.64102	0.02551
1639.35525	0.02529
1638.06949	0.02501
1636.78372	0.02472
1635.49795	0.02447
1634.21218	0.02425
1632.92641	0.02410
1631.64064	0.02397
1630.35487	0.02383
1629.06910	0.02364
1627.78333	0.02340
1626.49757	0.02309
1625.21180	0.02274
1623.92603	0.02235
1622.64026	0.02195
1621.35449	0.02157
1620.06872	0.02125
1618.78295	0.02100
1617.49718	0.02077
1616.21142	0.02050
1614.92565	0.02022
1613.63988	0.02003
1612.35411	0.01991
1611.06834	0.01981
1609.78257	0.01968
1608.49680	0.01957
1607.21103	0.01946
1605.92526	0.01933
1604.63950	0.01916
1603.35373	0.01902
1602.06796	0.01895
1600.78219	0.01895
1599.49642	0.01899
1598.21065	0.01905
1596.92488	0.01913
1595.63911	0.01924
1594.35335	0.01934
1593.06758	0.01943
1591.78181	0.01951
1590.49604	0.01961
1589.21027	0.01971
1587.92450	0.01980
1586.63873	0.01986
1585.35296	0.01994
1584.06719	0.02006
1582.78143	0.02023
1581.49566	0.02041
1580.20989	0.02054
1578.92412	0.02066
1577.63835	0.02084
1576.35258	0.02107
1575.06681	0.02133
1573.78104	0.02162
1572.49528	0.02195
1571.20951	0.02227
1569.92374	0.02252
1568.63797	0.02271
1567.35220	0.02288
1566.06643	0.02307
1564.78066	0.02322
1563.49489	0.02330
1562.20912	0.02336
1560.92336	0.02347
1559.63759	0.02365
1558.35182	0.02387
1557.06605	0.02415
1555.78028	0.02452
1554.49451	0.02490
1553.20874	0.02519
1551.92297	0.02539
1550.63721	0.02553
1549.35144	0.02562
1548.06567	0.02564
1546.77990	0.02561
1545.49413	0.02554
1544.20836	0.02543
1542.92259	0.02531
1541.63682	0.02522
1540.35105	0.02520
1539.06529	0.02524
1537.77952	0.02527
1536.49375	0.02531
1535.20798	0.02537
1533.92221	0.02545
1532.63644	0.02557
1531.35067	0.02574
1530.06490	0.02592
1528.77914	0.02608
1527.49337	0.02620
1526.20760	0.02630
1524.92183	0.02639
1523.63606	0.02652
1522.35029	0.02672
1521.06452	0.02697
1519.77875	0.02728
1518.49298	0.02768
1517.20722	0.02813
1515.92145	0.02854
1514.63568	0.02891
1513.34991	0.02926
1512.06414	0.02960
1510.77837	0.02992
1509.49260	0.03024
1508.20683	0.03063
1506.92107	0.03108
1505.63530	0.03157
1504.34953	0.03207
1503.06376	0.03258
1501.77799	0.03304
1500.49222	0.03338
1499.20645	0.03363
1497.92068	0.03386
1496.63491	0.03410
1495.34915	0.03432
1494.06338	0.03452
1492.77761	0.03474
1491.49184	0.03500
1490.20607	0.03530
1488.92030	0.03566
1487.63453	0.03612
1486.34876	0.03667
1485.06299	0.03727
1483.77723	0.03787
1482.49146	0.03848
1481.20569	0.03907
1479.91992	0.03967
1478.63415	0.04026
1477.34838	0.04079
1476.06261	0.04126
1474.77684	0.04167
1473.49108	0.04209
1472.20531	0.04254
1470.91954	0.04298
1469.63377	0.04341
1468.34800	0.04379
1467.06223	0.04413
1465.77646	0.04440
1464.49069	0.04458
1463.20492	0.04467
1461.91916	0.04468
1460.63339	0.04470
1459.34762	0.04478
1458.06185	0.04497
1456.77608	0.04527
1455.49031	0.04564
1454.20454	0.04612
1452.91877	0.04665
1451.63301	0.04712
1450.34724	0.04744
1449.06147	0.04761
1447.77570	0.04764
1446.48993	0.04753
1445.20416	0.04731
1443.91839	0.04706
1442.63262	0.04681
1441.34685	0.04661
1440.06109	0.04644
1438.77532	0.04628
1437.48955	0.04609
1436.20378	0.04586
1434.91801	0.04568
1433.63224	0.04569
1432.34647	0.04590
1431.06070	0.04626
1429.77494	0.04669
1428.48917	0.04716
1427.20340	0.04766
1425.91763	0.04822
1424.63186	0.04881
1423.34609	0.04939
1422.06032	0.04997
1420.77455	0.05057
1419.48878	0.05117
1418.20302	0.05171
1416.91725	0.05218
1415.63148	0.05258
1414.34571	0.05288
1413.05994	0.05309
1411.77417	0.05327
1410.48840	0.05342
1409.20263	0.05351
1407.91687	0.05349
1406.63110	0.05331
1405.34533	0.05297
1404.05956	0.05246
1402.77379	0.05181
1401.48802	0.05108
1400.20225	0.05030
1398.91648	0.04952
1397.63071	0.04875
1396.34495	0.04800
1395.05918	0.04724
1393.77341	0.04644
1392.48764	0.04559
1391.20187	0.04471
1389.91610	0.04382
1388.63033	0.04292
1387.34456	0.04204
1386.05880	0.04118
1384.77303	0.04036
1383.48726	0.03956
1382.20149	0.03879
1380.91572	0.03801
1379.62995	0.03721
1378.34418	0.03635
1377.05841	0.03546
1375.77264	0.03455
1374.48688	0.03365
1373.20111	0.03275
1371.91534	0.03189
1370.62957	0.03105
1369.34380	0.03023
1368.05803	0.02942
1366.77226	0.02865
1365.48649	0.02796
1364.20073	0.02731
1362.91496	0.02667
1361.62919	0.02603
1360.34342	0.02542
1359.05765	0.02489
1357.77188	0.02443
1356.48611	0.02400
1355.20034	0.02357
1353.91457	0.02314
1352.62881	0.02273
1351.34304	0.02235
1350.05727	0.02201
1348.77150	0.02172
1347.48573	0.02146
1346.19996	0.02121
1344.91419	0.02097
1343.62842	0.02074
1342.34266	0.02054
1341.05689	0.02034
1339.77112	0.02015
1338.48535	0.01997
1337.19958	0.01979
1335.91381	0.01963
1334.62804	0.01947
1333.34227	0.01933
1332.05650	0.01920
1330.77074	0.01907
1329.48497	0.01889
1328.19920	0.01865
1326.91343	0.01838
1325.62766	0.01816
1324.34189	0.01800
1323.05612	0.01789
1321.77035	0.01778
1320.48459	0.01765
1319.19882	0.01751
1317.91305	0.01738
1316.62728	0.01726
1315.34151	0.01714
1314.05574	0.01703
1312.76997	0.01690
1311.48420	0.01674
1310.19843	0.01658
1308.91267	0.01642
1307.62690	0.01628
1306.34113	0.01616
1305.05536	0.01606
1303.76959	0.01596
1302.48382	0.01588
1301.19805	0.01581
1299.91228	0.01576
1298.62652	0.01569
1297.34075	0.01559
1296.05498	0.01547
1294.76921	0.01534
1293.48344	0.01527
1292.19767	0.01524
1290.91190	0.01524
1289.62613	0.01522
1288.34036	0.01514
1287.05460	0.01502
1285.76883	0.01489
1284.48306	0.01478
1283.19729	0.01472
1281.91152	0.01472
1280.62575	0.01475
1279.33998	0.01475
1278.05421	0.01469
1276.76845	0.01459
1275.48268	0.01447
1274.19691	0.01439
1272.91114	0.01431
1271.62537	0.01423
1270.33960	0.01412
1269.05383	0.01400
1267.76806	0.01389
1266.48229	0.01380
1265.19653	0.01376
1263.91076	0.01375
1262.62499	0.01375
1261.33922	0.01373
1260.05345	0.01370
1258.76768	0.01366
1257.48191	0.01363
1256.19614	0.01359
1254.91037	0.01353
1253.62461	0.01341
1252.33884	0.01328
1251.05307	0.01318
1249.76730	0.01316
1248.48153	0.01319
1247.19576	0.01323
1245.90999	0.01326
1244.62422	0.01325
1243.33846	0.01322
1242.05269	0.01315
1240.76692	0.01307
1239.48115	0.01295
1238.19538	0.01283
1236.90961	0.01272
1235.62384	0.01267
1234.33807	0.01265
1233.05230	0.01261
1231.76654	0.01252
1230.48077	0.01238
1229.19500	0.01221
1227.90923	0.01205
1226.62346	0.01191
1225.33769	0.01179
1224.05192	0.01168
1222.76615	0.01159
1221.48039	0.01152
1220.19462	0.01146
1218.90885	0.01137
1217.62308	0.01124
1216.33731	0.01110
1215.05154	0.01099
1213.76577	0.01095
1212.48000	0.01095
1211.19423	0.01093
1209.90847	0.01087
1208.62270	0.01075
1207.33693	0.01061
1206.05116	0.01048
1204.76539	0.01040
1203.47962	0.01037
1202.19385	0.01033
1200.90808	0.01033
1199.62232	0.01040
1198.33655	0.01027
1197.05078	0.01021
1195.76501	0.01021
1194.47924	0.01020
1193.19347	0.01014
1191.90770	0.01004
1190.62193	0.00993
1189.33616	0.00982
1188.05040	0.00969
1186.76463	0.00957
1185.47886	0.00946
1184.19309	0.00938
1182.90732	0.00932
1181.62155	0.00929
1180.33578	0.00927
1179.05001	0.00925
1177.76425	0.00922
1176.47848	0.00913
1175.19271	0.00905
1173.90694	0.00902
1172.62117	0.00907
1171.33540	0.00913
1170.04963	0.00918
1168.76386	0.00922
1167.47809	0.00927
1166.19233	0.00932
1164.90656	0.00936
1163.62079	0.00938
1162.33502	0.00940
1161.04925	0.00942
1159.76348	0.00946
1158.47771	0.00951
1157.19194	0.00955
1155.90618	0.00956
1154.62041	0.00953
1153.33464	0.00951
1152.04887	0.00954
1150.76310	0.00966
1149.47733	0.00984
1148.19156	0.01001
1146.90579	0.01014
1145.62002	0.01026
1144.33426	0.01045
1143.04849	0.01074
1141.76272	0.01108
1140.47695	0.01141
1139.19118	0.01172
1137.90541	0.01205
1136.61964	0.01251
1135.33387	0.01311
1134.04811	0.01380
1132.76234	0.01450
1131.47657	0.01521
1130.19080	0.01604
1128.90503	0.01705
1127.61926	0.01824
1126.33349	0.01952
1125.04772	0.02085
1123.76195	0.02229
1122.47619	0.02391
1121.19042	0.02567
1119.90465	0.02749
1118.61888	0.02928
1117.33311	0.03104
1116.04734	0.03281
1114.76157	0.03463
1113.47580	0.03649
1112.19004	0.03837
1110.90427	0.04020
1109.61850	0.04192
1108.33273	0.04354
1107.04696	0.04508
1105.76119	0.04658
1104.47542	0.04806
1103.18965	0.04953
1101.90388	0.05098
1100.61812	0.05241
1099.33235	0.05375
1098.04658	0.05501
1096.76081	0.05623
1095.47504	0.05748
1094.18927	0.05870
1092.90350	0.05980
1091.61773	0.06073
1090.33197	0.06150
1089.04620	0.06216
1087.76043	0.06277
1086.47466	0.06337
1085.18889	0.06403
1083.90312	0.06482
1082.61735	0.06577
1081.33158	0.06685
1080.04581	0.06803
1078.76005	0.06926
1077.47428	0.07052
1076.18851	0.07182
1074.90274	0.07313
1073.61697	0.07451
1072.33120	0.07600
1071.04543	0.07761
1069.75966	0.07928
1068.47390	0.08093
1067.18813	0.08254
1065.90236	0.08420
1064.61659	0.08593
1063.33082	0.08773
1062.04505	0.08953
1060.75928	0.09129
1059.47351	0.09296
1058.18774	0.09452
1056.90198	0.09600
1055.61621	0.09747
1054.33044	0.09896
1053.04467	0.10045
1051.75890	0.10196
1050.47313	0.10349
1049.18736	0.10507
1047.90159	0.10667
1046.61583	0.10825
1045.33006	0.10981
1044.04429	0.11136
1042.75852	0.11290
1041.47275	0.11446
1040.18698	0.11605
1038.90121	0.11765
1037.61544	0.11924
1036.32967	0.12078
1035.04391	0.12227
1033.75814	0.12368
1032.47237	0.12499
1031.18660	0.12620
1029.90083	0.12731
1028.61506	0.12829
1027.32929	0.12907
1026.04352	0.12962
1024.75775	0.12997
1023.47199	0.13023
1022.18622	0.13044
1020.90045	0.13052
1019.61468	0.13038
1018.32891	0.12996
1017.04314	0.12930
1015.75737	0.12844
1014.47160	0.12737
1013.18584	0.12607
1011.90007	0.12457
1010.61430	0.12289
1009.32853	0.12107
1008.04276	0.11908
1006.75699	0.11693
1005.47122	0.11460
1004.18545	0.11210
1002.89968	0.10945
1001.61392	0.10668
1000.32815	0.10381
999.04238	0.10088
997.75661	0.09792
996.47084	0.09497
995.18507	0.09201
993.89930	0.08902
992.61353	0.08598
991.32777	0.08294
990.04200	0.07999
988.75623	0.07720
987.47046	0.07456
986.18469	0.07205
984.89892	0.06965
983.61315	0.06736
982.32738	0.06518
981.04161	0.06310
979.75585	0.06118
978.47008	0.05943
977.18431	0.05782
975.89854	0.05628
974.61277	0.05485
973.32700	0.05364
972.04123	0.05273
970.75546	0.05209
969.46970	0.05169
968.18393	0.05150
966.89816	0.05156
965.61239	0.05186
964.32662	0.05236
963.04085	0.05294
961.75508	0.05343
960.46931	0.05366
959.18354	0.05352
957.89778	0.05300
956.61201	0.05215
955.32624	0.05107
954.04047	0.04986
952.75470	0.04863
951.46893	0.04746
950.18316	0.04637
948.89739	0.04533
947.61163	0.04436
946.32586	0.04343
945.04009	0.04247
943.75432	0.04147
942.46855	0.04048
941.18278	0.03957
939.89701	0.03875
938.61124	0.03795
937.32547	0.03713
936.03971	0.03634
934.75394	0.03562
933.46817	0.03498
932.18240	0.03439
930.89663	0.03384
929.61086	0.03333
928.32509	0.03284
927.03932	0.03237
925.75356	0.03190
924.46779	0.03147
923.18202	0.03106
921.89625	0.03071
920.61048	0.03041
919.32471	0.03013
918.03894	0.02979
916.75317	0.02933
915.46740	0.02883
914.18164	0.02841
912.89587	0.02810
911.61010	0.02786
910.32433	0.02764
909.03856	0.02742
907.75279	0.02723
906.46702	0.02702
905.18125	0.02679
903.89549	0.02656
902.60972	0.02637
901.32395	0.02622
900.03818	0.02606
898.75241	0.02590
897.46664	0.02573
896.18087	0.02557
894.89510	0.02538
893.60933	0.02519
892.32357	0.02503
891.03780	0.02492
889.75203	0.02488
888.46626	0.02494
887.18049	0.02514
885.89472	0.02553
884.60895	0.02618
883.32318	0.02719
882.03742	0.02856
880.75165	0.03007
879.46588	0.03141
878.18011	0.03239
876.89434	0.03313
875.60857	0.03385
874.32280	0.03467
873.03703	0.03547
871.75126	0.03601
870.46550	0.03609
869.17973	0.03570
867.89396	0.03492
866.60819	0.03389
865.32242	0.03271
864.03665	0.03146
862.75088	0.03023
861.46511	0.02908
860.17935	0.02806
858.89358	0.02716
857.60781	0.02640
856.32204	0.02579
855.03627	0.02534
853.75050	0.02499
852.46473	0.02468
851.17896	0.02437
849.89319	0.02407
848.60743	0.02376
847.32166	0.02347
846.03589	0.02322
844.75012	0.02303
843.46435	0.02287
842.17858	0.02273
840.89281	0.02257
839.60704	0.02237
838.32128	0.02211
837.03551	0.02183
835.74974	0.02159
834.46397	0.02144
833.17820	0.02138
831.89243	0.02135
830.60666	0.02129
829.32089	0.02120
828.03512	0.02111
826.74936	0.02108
825.46359	0.02109
824.17782	0.02109
822.89205	0.02102
821.60628	0.02087
820.32051	0.02067
819.03474	0.02048
817.74897	0.02027
816.46321	0.02007
815.17744	0.01990
813.89167	0.01982
812.60590	0.01986
811.32013	0.01998
810.03436	0.02008
808.74859	0.02008
807.46282	0.01998
806.17705	0.01985
804.89129	0.01978
803.60552	0.01978
802.31975	0.01976
801.03398	0.01967
799.74821	0.01954
798.46244	0.01943
797.17667	0.01941
795.89090	0.01946
794.60513	0.01949
793.31937	0.01941
792.03360	0.01925
790.74783	0.01909
789.46206	0.01902
788.17629	0.01902
786.89052	0.01906
785.60475	0.01910
784.31898	0.01913
783.03322	0.01912
781.74745	0.01904
780.46168	0.01892
779.17591	0.01883
777.89014	0.01882
776.60437	0.01891
775.31860	0.01903
774.03283	0.01907
772.74706	0.01898
771.46130	0.01880
770.17553	0.01863
768.88976	0.01855
767.60399	0.01854
766.31822	0.01856
765.03245	0.01854
763.74668	0.01848
762.46091	0.01838
761.17515	0.01830
759.88938	0.01832
758.60361	0.01850
757.31784	0.01874
756.03207	0.01892
754.74630	0.01896
753.46053	0.01888
752.17476	0.01868
750.88899	0.01841
749.60323	0.01814
748.31746	0.01801
747.03169	0.01807
745.74592	0.01824
744.46015	0.01839
743.17438	0.01845
741.88861	0.01843
740.60284	0.01840
739.31708	0.01838
738.03131	0.01828
736.74554	0.01808
735.45977	0.01791
734.17400	0.01787
732.88823	0.01795
731.60246	0.01799
730.31669	0.01793
729.03092	0.01788
727.74516	0.01792
726.45939	0.01801
725.17362	0.01798
723.88785	0.01759
722.60208	0.01762
721.31631	0.01795
720.03054	0.01835
718.74477	0.01872
717.45901	0.01896
716.17324	0.01903
714.88747	0.01894
713.60170	0.01874
712.31593	0.01845
711.03016	0.01814
709.74439	0.01789
708.45862	0.01776
707.17285	0.01771
705.88709	0.01770
704.60132	0.01772
703.31555	0.01775
702.02978	0.01779
700.74401	0.01785
699.45824	0.01793
698.17247	0.01802
696.88670	0.01808
695.60094	0.01812
694.31517	0.01815
693.02940	0.01821
691.74363	0.01829
690.45786	0.01835
689.17209	0.01834
687.88632	0.01827
686.60055	0.01814
685.31478	0.01801
684.02902	0.01789
682.74325	0.01780
681.45748	0.01772
680.17171	0.01761
678.88594	0.01747
677.60017	0.01734
676.31440	0.01723
675.02863	0.01716
673.74287	0.01716
672.45710	0.01732
671.17133	0.01760
669.88556	0.01760
668.59979	0.01703
667.31402	0.01700
666.02825	0.01778
664.74248	0.01787
663.45671	0.01755
662.17095	0.01730
660.88518	0.01716
659.59941	0.01710
658.31364	0.01708
657.02787	0.01707
655.74210	0.01704
654.45633	0.01696
653.17056	0.01686
651.88480	0.01679
650.59903	0.01679
649.31326	0.01684
648.02749	0.01692
646.74172	0.01697
645.45595	0.01698
644.17018	0.01698
642.88441	0.01703
641.59864	0.01716
640.31288	0.01733
639.02711	0.01746
637.74134	0.01750
636.45557	0.01751
635.16980	0.01760
633.88403	0.01783
632.59826	0.01815
631.31249	0.01832
630.02673	0.01755
628.74096	0.01629
627.45519	0.01761
626.16942	0.01607
624.88365	0.01252
623.59788	0.00929
622.31211	0.00773
621.02634	0.00846
619.74057	0.01117
618.45481	0.01491
617.16904	0.01871
615.88327	0.02214
614.59750	0.02526
613.31173	0.02834
612.02596	0.03136
610.74019	0.03404
609.45442	0.03631
608.16866	0.03850
606.88289	0.04086
605.59712	0.04326
604.31135	0.04540
603.02558	0.04709
601.73981	0.04822
600.45404	0.04873
599.16827	0.04860
597.88250	0.04788
596.59674	0.04678
595.31097	0.04546
594.02520	0.04404
592.73943	0.04263
591.45366	0.04145
590.16789	0.04072
588.88212	0.04049
587.59635	0.04064
586.31059	0.04107
585.02482	0.04184
583.73905	0.04304
582.45328	0.04460
581.16751	0.04637
579.88174	0.04816
578.59597	0.04987
577.31020	0.05140
576.02443	0.05277
574.73867	0.05405
573.45290	0.05531
572.16713	0.05658
570.88136	0.05784
569.59559	0.05916
568.30982	0.06071
567.02405	0.06262
565.73828	0.06479
564.45251	0.06693
563.16675	0.06866
561.88098	0.06969
560.59521	0.06980
559.30944	0.06887
558.02367	0.06691
556.73790	0.06413
555.45213	0.06083
554.16636	0.05732
552.88060	0.05389
551.59483	0.05071
550.30906	0.04784
549.02329	0.04527
547.73752	0.04294
546.45175	0.04080
545.16598	0.03880
543.88021	0.03698
542.59444	0.03544
541.30868	0.03422
540.02291	0.03324
538.73714	0.03235
537.45137	0.03149
536.16560	0.03063
534.87983	0.02976
533.59406	0.02886
532.30829	0.02799
531.02253	0.02724
529.73676	0.02667
528.45099	0.02623
527.16522	0.02582
525.87945	0.02537
524.59368	0.02491
523.30791	0.02447
522.02214	0.02403
520.73637	0.02352
519.45061	0.02295
518.16484	0.02237
516.87907	0.02188
515.59330	0.02150
514.30753	0.02121
513.02176	0.02094
511.73599	0.02068
510.45022	0.02046
509.16446	0.02028
507.87869	0.02009
506.59292	0.01980
505.30715	0.01942
504.02138	0.01899
502.73561	0.01859
501.44984	0.01827
500.16407	0.01803
498.87830	0.01786
497.59254	0.01772
496.30677	0.01760
495.02100	0.01745
493.73523	0.01726
492.44946	0.01704
491.16369	0.01682
489.87792	0.01664
488.59215	0.01651
487.30639	0.01642
486.02062	0.01634
484.73485	0.01628
483.44908	0.01628
482.16331	0.01632
480.87754	0.01641
479.59177	0.01653
478.30600	0.01665
477.02023	0.01676
475.73447	0.01682
474.44870	0.01690
473.16293	0.01705
471.87716	0.01725
470.59139	0.01743
469.30562	0.01752
468.01985	0.01746
466.73408	0.01725
465.44832	0.01693
464.16255	0.01658
462.87678	0.01628
461.59101	0.01605
460.30524	0.01588
459.01947	0.01569
457.73370	0.01545
456.44793	0.01517
455.16216	0.01490
453.87640	0.01471
452.59063	0.01460
451.30486	0.01456
450.01909	0.01454
448.73332	0.01453
447.44755	0.01450
446.16178	0.01442
444.87601	0.01425
443.59025	0.01399
442.30448	0.01372
441.01871	0.01349
439.73294	0.01336
438.44717	0.01331
437.16140	0.01329
435.87563	0.01325
434.58986	0.01316
433.30409	0.01302
432.01833	0.01284
430.73256	0.01270
429.44679	0.01264
428.16102	0.01264
426.87525	0.01263
425.58948	0.01257
424.30371	0.01251
423.01794	0.01247
421.73218	0.01243
420.44641	0.01232
419.16064	0.01214
417.87487	0.01193
416.58910	0.01171
415.30333	0.01151
414.01756	0.01135
412.73179	0.01129
411.44602	0.01130
410.16026	0.01137
408.87449	0.01144
407.58872	0.01151
406.30295	0.01158
405.01718	0.01165
403.73141	0.01171
402.44564	0.01179
401.15987	0.01185
399.87411	0.01189
