3997.45528	0.03488
3996.16951	0.03457
3994.88374	0.03426
3993.59798	0.03401
3992.31221	0.03393
3991.02644	0.03403
3989.74067	0.03429
3988.45490	0.03463
3987.16913	0.03496
3985.88336	0.03517
3984.59759	0.03523
3983.31183	0.03527
3982.02606	0.03546
3980.74029	0.03580
3979.45452	0.03617
3978.16875	0.03644
3976.88298	0.03651
3975.59721	0.03637
3974.31144	0.03603
3973.02567	0.03561
3971.73991	0.03520
3970.45414	0.03475
3969.16837	0.03403
3967.88260	0.03300
3966.59683	0.03197
3965.31106	0.03145
3964.02529	0.03173
3962.73952	0.03263
3961.45376	0.03375
3960.16799	0.03467
3958.88222	0.03509
3957.59645	0.03498
3956.31068	0.03457
3955.02491	0.03421
3953.73914	0.03413
3952.45337	0.03431
3951.16760	0.03460
3949.88184	0.03488
3948.59607	0.03510
3947.31030	0.03520
3946.02453	0.03504
3944.73876	0.03454
3943.45299	0.03397
3942.16722	0.03376
3940.88145	0.03407
3939.59569	0.03462
3938.30992	0.03510
3937.02415	0.03545
3935.73838	0.03580
3934.45261	0.03608
3933.16684	0.03594
3931.88107	0.03530
3930.59530	0.03454
3929.30953	0.03423
3928.02377	0.03457
3926.73800	0.03524
3925.45223	0.03578
3924.16646	0.03601
3922.88069	0.03603
3921.59492	0.03590
3920.30915	0.03560
3919.02338	0.03517
3917.73762	0.03479
3916.45185	0.03472
3915.16608	0.03503
3913.88031	0.03559
3912.59454	0.03620
3911.30877	0.03666
3910.02300	0.03685
3908.73723	0.03677
3907.45146	0.03656
3906.16570	0.03639
3904.87993	0.03636
3903.59416	0.03645
3902.30839	0.03658
3901.02262	0.03660
3899.73685	0.03642
3898.45108	0.03606
3897.16531	0.03570
3895.87955	0.03552
3894.59378	0.03552
3893.30801	0.03554
3892.02224	0.03550
3890.73647	0.03555
3889.45070	0.03583
3888.16493	0.03616
3886.87916	0.03628
3885.59339	0.03613
3884.30763	0.03584
3883.02186	0.03548
3881.73609	0.03493
3880.45032	0.03418
3879.16455	0.03348
3877.87878	0.03320
3876.59301	0.03361
3875.30724	0.03469
3874.02148	0.03616
3872.73571	0.03747
3871.44994	0.03811
3870.16417	0.03803
3868.87840	0.03769
3867.59263	0.03754
3866.30686	0.03758
3865.02109	0.03748
3863.73532	0.03706
3862.44956	0.03655
3861.16379	0.03626
3859.87802	0.03622
3858.59225	0.03622
3857.30648	0.03611
3856.02071	0.03595
3854.73494	0.03597
3853.44917	0.03629
3852.16341	0.03684
3850.87764	0.03730
3849.59187	0.03731
3848.30610	0.03678
3847.02033	0.03601
3845.73456	0.03537
3844.44879	0.03493
3843.16302	0.03450
3841.87725	0.03395
3840.59149	0.03341
3839.30572	0.03302
3838.01995	0.03274
3836.73418	0.03252
3835.44841	0.03252
3834.16264	0.03302
3832.87687	0.03408
3831.59110	0.03535
3830.30534	0.03631
3829.01957	0.03662
3827.73380	0.03627
3826.44803	0.03553
3825.16226	0.03477
3823.87649	0.03434
3822.59072	0.03431
3821.30495	0.03454
3820.01918	0.03474
3818.73342	0.03472
3817.44765	0.03446
3816.16188	0.03408
3814.87611	0.03381
3813.59034	0.03384
3812.30457	0.03410
3811.01880	0.03432
3809.73303	0.03428
3808.44726	0.03399
3807.16150	0.03359
3805.87573	0.03324
3804.58996	0.03301
3803.30419	0.03292
3802.01842	0.03307
3800.73265	0.03357
3799.44688	0.03433
3798.16111	0.03506
3796.87535	0.03540
3795.58958	0.03514
3794.30381	0.03439
3793.01804	0.03354
3791.73227	0.03307
3790.44650	0.03322
3789.16073	0.03376
3787.87496	0.03427
3786.58919	0.03447
3785.30343	0.03437
3784.01766	0.03409
3782.73189	0.03383
3781.44612	0.03373
3780.16035	0.03389
3778.87458	0.03426
3777.58881	0.03460
3776.30304	0.03468
3775.01728	0.03443
3773.73151	0.03409
3772.44574	0.03389
3771.15997	0.03386
3769.87420	0.03390
3768.58843	0.03396
3767.30266	0.03397
3766.01689	0.03379
3764.73112	0.03338
3763.44536	0.03302
3762.15959	0.03310
3760.87382	0.03374
3759.58805	0.03453
3758.30228	0.03489
3757.01651	0.03457
3755.73074	0.03383
3754.44497	0.03311
3753.15921	0.03260
3751.87344	0.03218
3750.58767	0.03170
3749.30190	0.03136
3748.01613	0.03150
3746.73036	0.03220
3745.44459	0.03313
3744.15882	0.03375
3742.87305	0.03374
3741.58729	0.03320
3740.30152	0.03239
3739.01575	0.03152
3737.72998	0.03080
3736.44421	0.03044
3735.15844	0.03058
3733.87267	0.03108
3732.58690	0.03171
3731.30114	0.03234
3730.01537	0.03296
3728.72960	0.03350
3727.44383	0.03377
3726.15806	0.03353
3724.87229	0.03284
3723.58652	0.03214
3722.30075	0.03199
3721.01498	0.03257
3719.72922	0.03347
3718.44345	0.03398
3717.15768	0.03377
3715.87191	0.03312
3714.58614	0.03254
3713.30037	0.03229
3712.01460	0.03213
3710.72883	0.03182
3709.44307	0.03148
3708.15730	0.03140
3706.87153	0.03163
3705.58576	0.03192
3704.29999	0.03203
3703.01422	0.03198
3701.72845	0.03196
3700.44268	0.03208
3699.15691	0.03221
3697.87115	0.03210
3696.58538	0.03167
3695.29961	0.03114
3694.01384	0.03090
3692.72807	0.03112
3691.44230	0.03169
3690.15653	0.03230
3688.87076	0.03259
3687.58500	0.03251
3686.29923	0.03223
3685.01346	0.03200
3683.72769	0.03191
3682.44192	0.03184
3681.15615	0.03174
3679.87038	0.03177
3678.58461	0.03213
3677.29884	0.03273
3676.01308	0.03321
3674.72731	0.03327
3673.44154	0.03297
3672.15577	0.03261
3670.87000	0.03236
3669.58423	0.03211
3668.29846	0.03171
3667.01269	0.03125
3665.72693	0.03103
3664.44116	0.03117
3663.15539	0.03142
3661.86962	0.03154
3660.58385	0.03162
3659.29808	0.03190
3658.01231	0.03237
3656.72654	0.03274
3655.44077	0.03279
3654.15501	0.03265
3652.86924	0.03267
3651.58347	0.03309
3650.29770	0.03386
3649.01193	0.03457
3647.72616	0.03478
3646.44039	0.03443
3645.15462	0.03385
3643.86886	0.03341
3642.58309	0.03330
3641.29732	0.03349
3640.01155	0.03385
3638.72578	0.03414
3637.44001	0.03422
3636.15424	0.03416
3634.86847	0.03427
3633.58270	0.03484
3632.29694	0.03582
3631.01117	0.03688
3629.72540	0.03752
3628.43963	0.03748
3627.15386	0.03696
3625.86809	0.03640
3624.58232	0.03612
3623.29655	0.03611
3622.01079	0.03621
3620.72502	0.03637
3619.43925	0.03666
3618.15348	0.03709
3616.86771	0.03754
3615.58194	0.03787
3614.29617	0.03805
3613.01040	0.03814
3611.72463	0.03818
3610.43887	0.03815
3609.15310	0.03810
3607.86733	0.03811
3606.58156	0.03822
3605.29579	0.03828
3604.01002	0.03810
3602.72425	0.03773
3601.43848	0.03753
3600.15272	0.03789
3598.86695	0.03872
3597.58118	0.03963
3596.29541	0.04025
3595.00964	0.04058
3593.72387	0.04080
3592.43810	0.04103
3591.15233	0.04124
3589.86656	0.04130
3588.58080	0.04117
3587.29503	0.04094
3586.00926	0.04075
3584.72349	0.04065
3583.43772	0.04060
3582.15195	0.04055
3580.86618	0.04059
3579.58041	0.04082
3578.29464	0.04125
3577.00888	0.04171
3575.72311	0.04205
3574.43734	0.04224
3573.15157	0.04241
3571.86580	0.04269
3570.58003	0.04326
3569.29426	0.04415
3568.00849	0.04520
3566.72273	0.04600
3565.43696	0.04624
3564.15119	0.04595
3562.86542	0.04544
3561.57965	0.04498
3560.29388	0.04468
3559.00811	0.04450
3557.72234	0.04437
3556.43657	0.04435
3555.15081	0.04459
3553.86504	0.04510
3552.57927	0.04569
3551.29350	0.04608
3550.00773	0.04622
3548.72196	0.04633
3547.43619	0.04660
3546.15042	0.04703
3544.86466	0.04747
3543.57889	0.04783
3542.29312	0.04804
3541.00735	0.04803
3539.72158	0.04782
3538.43581	0.04764
3537.15004	0.04772
3535.86427	0.04812
3534.57850	0.04873
3533.29274	0.04943
3532.00697	0.05017
3530.72120	0.05080
3529.43543	0.05109
3528.14966	0.05093
3526.86389	0.05052
3525.57812	0.05018
3524.29235	0.05011
3523.00659	0.05025
3521.72082	0.05048
3520.43505	0.05069
3519.14928	0.05085
3517.86351	0.05094
3516.57774	0.05101
3515.29197	0.05113
3514.00620	0.05131
3512.72043	0.05151
3511.43467	0.05168
3510.14890	0.05182
3508.86313	0.05190
3507.57736	0.05192
3506.29159	0.05190
3505.00582	0.05195
3503.72005	0.05219
3502.43428	0.05275
3501.14852	0.05364
3499.86275	0.05466
3498.57698	0.05540
3497.29121	0.05543
3496.00544	0.05468
3494.71967	0.05358
3493.43390	0.05289
3492.14813	0.05312
3490.86236	0.05418
3489.57660	0.05545
3488.29083	0.05631
3487.00506	0.05653
3485.71929	0.05623
3484.43352	0.05560
3483.14775	0.05479
3481.86198	0.05397
3480.57621	0.05340
3479.29045	0.05331
3478.00468	0.05368
3476.71891	0.05421
3475.43314	0.05463
3474.14737	0.05492
3472.86160	0.05523
3471.57583	0.05562
3470.29006	0.05604
3469.00429	0.05642
3467.71853	0.05676
3466.43276	0.05700
3465.14699	0.05707
3463.86122	0.05701
3462.57545	0.05696
3461.28968	0.05706
3460.00391	0.05731
3458.71814	0.05764
3457.43238	0.05800
3456.14661	0.05828
3454.86084	0.05829
3453.57507	0.05795
3452.28930	0.05747
3451.00353	0.05726
3449.71776	0.05757
3448.43199	0.05816
3447.14622	0.05854
3445.86046	0.05843
3444.57469	0.05797
3443.28892	0.05750
3442.00315	0.05722
3440.71738	0.05717
3439.43161	0.05731
3438.14584	0.05755
3436.86007	0.05776
3435.57431	0.05785
3434.28854	0.05793
3433.00277	0.05829
3431.71700	0.05911
3430.43123	0.06024
3429.14546	0.06128
3427.85969	0.06188
3426.57392	0.06197
3425.28815	0.06166
3424.00239	0.06111
3422.71662	0.06053
3421.43085	0.06019
3420.14508	0.06020
3418.85931	0.06044
3417.57354	0.06066
3416.28777	0.06069
3415.00200	0.06060
3413.71624	0.06048
3412.43047	0.06035
3411.14470	0.06031
3409.85893	0.06050
3408.57316	0.06100
3407.28739	0.06169
3406.00162	0.06226
3404.71585	0.06253
3403.43008	0.06256
3402.14432	0.06253
3400.85855	0.06252
3399.57278	0.06250
3398.28701	0.06250
3397.00124	0.06263
3395.71547	0.06291
3394.42970	0.06320
3393.14393	0.06334
3391.85817	0.06338
3390.57240	0.06343
3389.28663	0.06350
3388.00086	0.06345
3386.71509	0.06321
3385.42932	0.06299
3384.14355	0.06303
3382.85778	0.06337
3381.57201	0.06379
3380.28625	0.06401
3379.00048	0.06400
3377.71471	0.06390
3376.42894	0.06393
3375.14317	0.06408
3373.85740	0.06422
3372.57163	0.06422
3371.28586	0.06414
3370.00010	0.06414
3368.71433	0.06430
3367.42856	0.06452
3366.14279	0.06461
3364.85702	0.06444
3363.57125	0.06401
3362.28548	0.06352
3360.99971	0.06323
3359.71394	0.06333
3358.42818	0.06381
3357.14241	0.06447
3355.85664	0.06502
3354.57087	0.06535
3353.28510	0.06552
3351.99933	0.06565
3350.71356	0.06571
3349.42779	0.06555
3348.14202	0.06507
3346.85626	0.06441
3345.57049	0.06389
3344.28472	0.06372
3342.99895	0.06389
3341.71318	0.06425
3340.42741	0.06463
3339.14164	0.06482
3337.85587	0.06467
3336.57011	0.06419
3335.28434	0.06360
3333.99857	0.06322
3332.71280	0.06331
3331.42703	0.06387
3330.14126	0.06466
3328.85549	0.06529
3327.56972	0.06557
3326.28395	0.06551
3324.99819	0.06529
3323.71242	0.06505
3322.42665	0.06485
3321.14088	0.06474
3319.85511	0.06477
3318.56934	0.06488
3317.28357	0.06497
3315.99780	0.06501
3314.71204	0.06512
3313.42627	0.06548
3312.14050	0.06606
3310.85473	0.06660
3309.56896	0.06684
3308.28319	0.06670
3306.99742	0.06622
3305.71165	0.06555
3304.42588	0.06482
3303.14012	0.06420
3301.85435	0.06378
3300.56858	0.06359
3299.28281	0.06364
3297.99704	0.06388
3296.71127	0.06423
3295.42550	0.06455
3294.13973	0.06471
3292.85397	0.06471
3291.56820	0.06463
3290.28243	0.06461
3288.99666	0.06469
3287.71089	0.06476
3286.42512	0.06475
3285.13935	0.06471
3283.85358	0.06466
3282.56781	0.06458
3281.28205	0.06438
3279.99628	0.06405
3278.71051	0.06365
3277.42474	0.06331
3276.13897	0.06313
3274.85320	0.06316
3273.56743	0.06336
3272.28166	0.06365
3270.99590	0.06397
3269.71013	0.06431
3268.42436	0.06463
3267.13859	0.06484
3265.85282	0.06487
3264.56705	0.06473
3263.28128	0.06452
3261.99551	0.06434
3260.70974	0.06423
3259.42398	0.06414
3258.13821	0.06391
3256.85244	0.06343
3255.56667	0.06280
3254.28090	0.06232
3252.99513	0.06226
3251.70936	0.06261
3250.42359	0.06313
3249.13783	0.06353
3247.85206	0.06368
3246.56629	0.06363
3245.28052	0.06353
3243.99475	0.06347
3242.70898	0.06339
3241.42321	0.06319
3240.13744	0.06279
3238.85167	0.06233
3237.56591	0.06197
3236.28014	0.06173
3234.99437	0.06149
3233.70860	0.06118
3232.42283	0.06087
3231.13706	0.06073
3229.85129	0.06085
3228.56552	0.06114
3227.27976	0.06140
3225.99399	0.06150
3224.70822	0.06149
3223.42245	0.06148
3222.13668	0.06150
3220.85091	0.06146
3219.56514	0.06132
3218.27937	0.06120
3216.99360	0.06120
3215.70784	0.06129
3214.42207	0.06132
3213.13630	0.06115
3211.85053	0.06079
3210.56476	0.06039
3209.27899	0.06017
3207.99322	0.06022
3206.70745	0.06047
3205.42169	0.06081
3204.13592	0.06113
3202.85015	0.06140
3201.56438	0.06156
3200.27861	0.06152
3198.99284	0.06122
3197.70707	0.06076
3196.42130	0.06031
3195.13553	0.05998
3193.84977	0.05973
3192.56400	0.05946
3191.27823	0.05919
3189.99246	0.05909
3188.70669	0.05927
3187.42092	0.05966
3186.13515	0.06010
3184.84938	0.06047
3183.56362	0.06072
3182.27785	0.06079
3180.99208	0.06053
3179.70631	0.05987
3178.42054	0.05897
3177.13477	0.05820
3175.84900	0.05784
3174.56323	0.05789
3173.27746	0.05808
3171.99170	0.05815
3170.70593	0.05805
3169.42016	0.05789
3168.13439	0.05773
3166.84862	0.05755
3165.56285	0.05731
3164.27708	0.05705
3162.99131	0.05683
3161.70555	0.05673
3160.41978	0.05675
3159.13401	0.05682
3157.84824	0.05678
3156.56247	0.05661
3155.27670	0.05642
3153.99093	0.05640
3152.70516	0.05659
3151.41939	0.05681
3150.13363	0.05687
3148.84786	0.05670
3147.56209	0.05643
3146.27632	0.05623
3144.99055	0.05619
3143.70478	0.05620
3142.41901	0.05608
3141.13324	0.05574
3139.84748	0.05528
3138.56171	0.05494
3137.27594	0.05487
3135.99017	0.05497
3134.70440	0.05506
3133.41863	0.05500
3132.13286	0.05478
3130.84709	0.05446
3129.56132	0.05414
3128.27556	0.05396
3126.98979	0.05399
3125.70402	0.05411
3124.41825	0.05418
3123.13248	0.05421
3121.84671	0.05426
3120.56094	0.05440
3119.27517	0.05458
3117.98940	0.05477
3116.70364	0.05497
3115.41787	0.05518
3114.13210	0.05533
3112.84633	0.05532
3111.56056	0.05515
3110.27479	0.05488
3108.98902	0.05460
3107.70325	0.05442
3106.41749	0.05450
3105.13172	0.05491
3103.84595	0.05549
3102.56018	0.05590
3101.27441	0.05590
3099.98864	0.05553
3098.70287	0.05499
3097.41710	0.05451
3096.13133	0.05417
3094.84557	0.05395
3093.55980	0.05379
3092.27403	0.05373
3090.98826	0.05376
3089.70249	0.05386
3088.41672	0.05389
3087.13095	0.05377
3085.84518	0.05349
3084.55942	0.05315
3083.27365	0.05291
3081.98788	0.05287
3080.70211	0.05303
3079.41634	0.05324
3078.13057	0.05333
3076.84480	0.05329
3075.55903	0.05325
3074.27326	0.05326
3072.98750	0.05326
3071.70173	0.05312
3070.41596	0.05285
3069.13019	0.05261
3067.84442	0.05252
3066.55865	0.05257
3065.27288	0.05266
3063.98711	0.05274
3062.70135	0.05277
3061.41558	0.05269
3060.12981	0.05252
3058.84404	0.05233
3057.55827	0.05215
3056.27250	0.05195
3054.98673	0.05165
3053.70096	0.05129
3052.41519	0.05102
3051.12943	0.05099
3049.84366	0.05120
3048.55789	0.05150
3047.27212	0.05170
3045.98635	0.05168
3044.70058	0.05144
3043.41481	0.05106
3042.12904	0.05057
3040.84328	0.05009
3039.55751	0.04973
3038.27174	0.04959
3036.98597	0.04968
3035.70020	0.04988
3034.41443	0.05006
3033.12866	0.05015
3031.84289	0.05014
3030.55712	0.05006
3029.27136	0.05001
3027.98559	0.05001
3026.69982	0.05003
3025.41405	0.04995
3024.12828	0.04976
3022.84251	0.04955
3021.55674	0.04944
3020.27097	0.04947
3018.98521	0.04961
3017.69944	0.04981
3016.41367	0.04998
3015.12790	0.04998
3013.84213	0.04979
3012.55636	0.04943
3011.27059	0.04894
3009.98482	0.04842
3008.69905	0.04804
3007.41329	0.04802
3006.12752	0.04836
3004.84175	0.04881
3003.55598	0.04902
3002.27021	0.04884
3000.98444	0.04843
2999.69867	0.04811
2998.41290	0.04822
2997.12714	0.04865
2995.84137	0.04901
2994.55560	0.04898
2993.26983	0.04853
2991.98406	0.04791
2990.69829	0.04741
2989.41252	0.04718
2988.12675	0.04715
2986.84098	0.04721
2985.55522	0.04733
2984.26945	0.04761
2982.98368	0.04817
2981.69791	0.04899
2980.41214	0.04986
2979.12637	0.05043
2977.84060	0.05056
2976.55483	0.05043
2975.26907	0.05042
2973.98330	0.05077
2972.69753	0.05144
2971.41176	0.05219
2970.12599	0.05275
2968.84022	0.05307
2967.55445	0.05326
2966.26868	0.05351
2964.98291	0.05389
2963.69715	0.05434
2962.41138	0.05478
2961.12561	0.05521
2959.83984	0.05569
2958.55407	0.05622
2957.26830	0.05675
2955.98253	0.05725
2954.69676	0.05772
2953.41100	0.05816
2952.12523	0.05854
2950.83946	0.05880
2949.55369	0.05890
2948.26792	0.05884
2946.98215	0.05869
2945.69638	0.05850
2944.41061	0.05825
2943.12484	0.05799
2941.83908	0.05787
2940.55331	0.05803
2939.26754	0.05839
2937.98177	0.05879
2936.69600	0.05911
2935.41023	0.05938
2934.12446	0.05968
2932.83869	0.06000
2931.55293	0.06034
2930.26716	0.06074
2928.98139	0.06123
2927.69562	0.06168
2926.40985	0.06196
2925.12408	0.06199
2923.83831	0.06182
2922.55254	0.06146
2921.26677	0.06088
2919.98101	0.06023
2918.69524	0.05976
2917.40947	0.05959
2916.12370	0.05956
2914.83793	0.05942
2913.55216	0.05914
2912.26639	0.05878
2910.98062	0.05842
2909.69486	0.05809
2908.40909	0.05776
2907.12332	0.05742
2905.83755	0.05704
2904.55178	0.05659
2903.26601	0.05613
2901.98024	0.05576
2900.69447	0.05552
2899.40870	0.05535
2898.12294	0.05519
2896.83717	0.05505
2895.55140	0.05494
2894.26563	0.05480
2892.97986	0.05454
2891.69409	0.05417
2890.40832	0.05374
2889.12255	0.05331
2887.83678	0.05293
2886.55102	0.05267
2885.26525	0.05253
2883.97948	0.05238
2882.69371	0.05210
2881.40794	0.05177
2880.12217	0.05161
2878.83640	0.05174
2877.55063	0.05202
2876.26487	0.05224
2874.97910	0.05229
2873.69333	0.05228
2872.40756	0.05242
2871.12179	0.05283
2869.83602	0.05344
2868.55025	0.05401
2867.26448	0.05427
2865.97871	0.05411
2864.69295	0.05364
2863.40718	0.05313
2862.12141	0.05273
2860.83564	0.05247
2859.54987	0.05229
2858.26410	0.05212
2856.97833	0.05190
2855.69256	0.05159
2854.40680	0.05120
2853.12103	0.05083
2851.83526	0.05052
2850.54949	0.05030
2849.26372	0.05013
2847.97795	0.04995
2846.69218	0.04966
2845.40641	0.04919
2844.12064	0.04862
2842.83488	0.04810
2841.54911	0.04777
2840.26334	0.04760
2838.97757	0.04744
2837.69180	0.04716
2836.40603	0.04671
2835.12026	0.04617
2833.83449	0.04560
2832.54873	0.04505
2831.26296	0.04456
2829.97719	0.04423
2828.69142	0.04411
2827.40565	0.04419
2826.11988	0.04435
2824.83411	0.04442
2823.54834	0.04423
2822.26257	0.04376
2820.97681	0.04319
2819.69104	0.04274
2818.40527	0.04251
2817.11950	0.04244
2815.83373	0.04238
2814.54796	0.04225
2813.26219	0.04208
2811.97642	0.04196
2810.69066	0.04195
2809.40489	0.04199
2808.11912	0.04197
2806.83335	0.04179
2805.54758	0.04148
2804.26181	0.04119
2802.97604	0.04104
2801.69027	0.04098
2800.40450	0.04088
2799.11874	0.04067
2797.83297	0.04050
2796.54720	0.04052
2795.26143	0.04075
2793.97566	0.04110
2792.68989	0.04136
2791.40412	0.04139
2790.11835	0.04115
2788.83259	0.04075
2787.54682	0.04038
2786.26105	0.04014
2784.97528	0.03998
2783.68951	0.03982
2782.40374	0.03964
2781.11797	0.03952
2779.83220	0.03950
2778.54643	0.03953
2777.26067	0.03952
2775.97490	0.03945
2774.68913	0.03937
2773.40336	0.03937
2772.11759	0.03947
2770.83182	0.03959
2769.54605	0.03958
2768.26028	0.03941
2766.97452	0.03919
2765.68875	0.03905
2764.40298	0.03905
2763.11721	0.03915
2761.83144	0.03922
2760.54567	0.03917
2759.25990	0.03899
2757.97413	0.03878
2756.68836	0.03864
2755.40260	0.03861
2754.11683	0.03860
2752.83106	0.03853
2751.54529	0.03836
2750.25952	0.03817
2748.97375	0.03809
2747.68798	0.03818
2746.40221	0.03832
2745.11645	0.03837
2743.83068	0.03825
2742.54491	0.03805
2741.25914	0.03788
2739.97337	0.03779
2738.68760	0.03777
2737.40183	0.03780
2736.11606	0.03786
2734.83029	0.03793
2733.54453	0.03795
2732.25876	0.03787
2730.97299	0.03776
2729.68722	0.03772
2728.40145	0.03776
2727.11568	0.03776
2725.82991	0.03759
2724.54414	0.03727
2723.25838	0.03691
2721.97261	0.03661
2720.68684	0.03643
2719.40107	0.03633
2718.11530	0.03631
2716.82953	0.03638
2715.54376	0.03648
2714.25799	0.03655
2712.97222	0.03659
2711.68646	0.03666
2710.40069	0.03677
2709.11492	0.03691
2707.82915	0.03708
2706.54338	0.03724
2705.25761	0.03727
2703.97184	0.03713
2702.68607	0.03685
2701.40031	0.03659
2700.11454	0.03645
2698.82877	0.03644
2697.54300	0.03649
2696.25723	0.03655
2694.97146	0.03655
2693.68569	0.03645
2692.39992	0.03627
2691.11415	0.03604
2689.82839	0.03580
2688.54262	0.03556
2687.25685	0.03538
2685.97108	0.03530
2684.68531	0.03532
2683.39954	0.03539
2682.11377	0.03550
2680.82800	0.03563
2679.54224	0.03576
2678.25647	0.03581
2676.97070	0.03571
2675.68493	0.03548
2674.39916	0.03524
2673.11339	0.03511
2671.82762	0.03511
2670.54185	0.03518
2669.25608	0.03526
2667.97032	0.03532
2666.68455	0.03534
2665.39878	0.03532
2664.11301	0.03531
2662.82724	0.03538
2661.54147	0.03552
2660.25570	0.03561
2658.96993	0.03563
2657.68417	0.03561
2656.39840	0.03557
2655.11263	0.03542
2653.82686	0.03507
2652.54109	0.03457
2651.25532	0.03416
2649.96955	0.03407
2648.68378	0.03428
2647.39801	0.03455
2646.11225	0.03461
2644.82648	0.03440
2643.54071	0.03403
2642.25494	0.03371
2640.96917	0.03358
2639.68340	0.03368
2638.39763	0.03386
2637.11186	0.03388
2635.82609	0.03356
2634.54033	0.03293
2633.25456	0.03227
2631.96879	0.03192
2630.68302	0.03196
2629.39725	0.03216
2628.11148	0.03217
2626.82571	0.03187
2625.53994	0.03145
2624.25418	0.03113
2622.96841	0.03103
2621.68264	0.03114
2620.39687	0.03137
2619.11110	0.03163
2617.82533	0.03183
2616.53956	0.03192
2615.25379	0.03189
2613.96802	0.03176
2612.68226	0.03157
2611.39649	0.03136
2610.11072	0.03116
2608.82495	0.03098
2607.53918	0.03082
2606.25341	0.03070
2604.96764	0.03061
2603.68187	0.03051
2602.39611	0.03034
2601.11034	0.03016
2599.82457	0.03008
2598.53880	0.03013
2597.25303	0.03025
2595.96726	0.03034
2594.68149	0.03037
2593.39572	0.03029
2592.10995	0.03014
2590.82419	0.03002
2589.53842	0.03001
2588.25265	0.02996
2586.96688	0.02969
2585.68111	0.02913
2584.39534	0.02843
2583.10957	0.02778
2581.82380	0.02729
2580.53804	0.02712
2579.25227	0.02734
2577.96650	0.02786
2576.68073	0.02838
2575.39496	0.02861
2574.10919	0.02855
2572.82342	0.02839
2571.53765	0.02828
2570.25188	0.02819
2568.96612	0.02801
2567.68035	0.02777
2566.39458	0.02757
2565.10881	0.02744
2563.82304	0.02742
2562.53727	0.02754
2561.25150	0.02775
2559.96573	0.02784
2558.67997	0.02768
2557.39420	0.02741
2556.10843	0.02733
2554.82266	0.02757
2553.53689	0.02793
2552.25112	0.02806
2550.96535	0.02782
2549.67958	0.02746
2548.39381	0.02730
2547.10805	0.02744
2545.82228	0.02769
2544.53651	0.02787
2543.25074	0.02797
2541.96497	0.02800
2540.67920	0.02793
2539.39343	0.02775
2538.10766	0.02755
2536.82190	0.02740
2535.53613	0.02728
2534.25036	0.02710
2532.96459	0.02694
2531.67882	0.02693
2530.39305	0.02709
2529.10728	0.02720
2527.82151	0.02706
2526.53574	0.02675
2525.24998	0.02661
2523.96421	0.02682
2522.67844	0.02723
2521.39267	0.02750
2520.10690	0.02741
2518.82113	0.02702
2517.53536	0.02657
2516.24959	0.02631
2514.96383	0.02633
2513.67806	0.02656
2512.39229	0.02686
2511.10652	0.02706
2509.82075	0.02706
2508.53498	0.02687
2507.24921	0.02657
2505.96344	0.02632
2504.67767	0.02621
2503.39191	0.02627
2502.10614	0.02634
2500.82037	0.02627
2499.53460	0.02599
2498.24883	0.02556
2496.96306	0.02517
2495.67729	0.02502
2494.39152	0.02518
2493.10576	0.02556
2491.81999	0.02591
2490.53422	0.02608
2489.24845	0.02605
2487.96268	0.02590
2486.67691	0.02569
2485.39114	0.02553
2484.10537	0.02553
2482.81960	0.02574
2481.53384	0.02600
2480.24807	0.02610
2478.96230	0.02597
2477.67653	0.02572
2476.39076	0.02551
2475.10499	0.02541
2473.81922	0.02536
2472.53345	0.02533
2471.24769	0.02531
2469.96192	0.02527
2468.67615	0.02516
2467.39038	0.02503
2466.10461	0.02498
2464.81884	0.02499
2463.53307	0.02496
2462.24730	0.02496
2460.96153	0.02513
2459.67577	0.02550
2458.39000	0.02586
2457.10423	0.02596
2455.81846	0.02578
2454.53269	0.02552
2453.24692	0.02532
2451.96115	0.02511
2450.67538	0.02482
2449.38962	0.02463
2448.10385	0.02473
2446.81808	0.02505
2445.53231	0.02525
2444.24654	0.02513
2442.96077	0.02482
2441.67500	0.02452
2440.38923	0.02426
2439.10346	0.02400
2437.81770	0.02384
2436.53193	0.02395
2435.24616	0.02425
2433.96039	0.02450
2432.67462	0.02450
2431.38885	0.02428
2430.10308	0.02399
2428.81731	0.02379
2427.53155	0.02376
2426.24578	0.02387
2424.96001	0.02403
2423.67424	0.02418
2422.38847	0.02435
2421.10270	0.02456
2419.81693	0.02476
2418.53116	0.02485
2417.24539	0.02474
2415.95963	0.02441
2414.67386	0.02390
2413.38809	0.02338
2412.10232	0.02304
2410.81655	0.02302
2409.53078	0.02327
2408.24501	0.02364
2406.95924	0.02398
2405.67347	0.02421
2404.38771	0.02432
2403.10194	0.02436
2401.81617	0.02443
2400.53040	0.02458
2399.24463	0.02476
2397.95886	0.02491
2396.67309	0.02497
2395.38732	0.02490
2394.10156	0.02478
2392.81579	0.02467
2391.53002	0.02462
2390.24425	0.02462
2388.95848	0.02464
2387.67271	0.02467
2386.38694	0.02466
2385.10117	0.02459
2383.81540	0.02444
2382.52964	0.02430
2381.24387	0.02426
2379.95810	0.02432
2378.67233	0.02450
2377.38656	0.02458
2376.10079	0.02430
2374.81502	0.02384
2373.52925	0.02375
2372.24349	0.02399
2370.95772	0.02413
2369.67195	0.02408
2368.38618	0.02387
2367.10041	0.02361
2365.81464	0.02339
2364.52887	0.02332
2363.24310	0.02339
2361.95733	0.02352
2360.67157	0.02366
2359.38580	0.02382
2358.10003	0.02418
2356.81426	0.02469
2355.52849	0.02504
2354.24272	0.02503
2352.95695	0.02486
2351.67118	0.02504
2350.38542	0.02526
2349.09965	0.02510
2347.81388	0.02482
2346.52811	0.02479
2345.24234	0.02488
2343.95657	0.02485
2342.67080	0.02435
2341.38503	0.02434
2340.09926	0.02456
2338.81350	0.02421
2337.52773	0.02366
2336.24196	0.02391
2334.95619	0.02426
2333.67042	0.02420
2332.38465	0.02383
2331.09888	0.02446
2329.81311	0.02460
2328.52735	0.02447
2327.24158	0.02479
2325.95581	0.02510
2324.67004	0.02538
2323.38427	0.02531
2322.09850	0.02543
2320.81273	0.02545
2319.52696	0.02528
2318.24119	0.02499
2316.95543	0.02476
2315.66966	0.02457
2314.38389	0.02431
2313.09812	0.02417
2311.81235	0.02416
2310.52658	0.02406
2309.24081	0.02381
2307.95504	0.02351
2306.66928	0.02327
2305.38351	0.02320
2304.09774	0.02327
2302.81197	0.02342
2301.52620	0.02358
2300.24043	0.02364
2298.95466	0.02353
2297.66889	0.02331
2296.38312	0.02312
2295.09736	0.02308
2293.81159	0.02316
2292.52582	0.02326
2291.24005	0.02329
2289.95428	0.02326
2288.66851	0.02321
2287.38274	0.02311
2286.09697	0.02298
2284.81121	0.02284
2283.52544	0.02268
2282.23967	0.02236
2280.95390	0.02186
2279.66813	0.02133
2278.38236	0.02094
2277.09659	0.02066
2275.81082	0.02039
2274.52505	0.02015
2273.23929	0.02016
2271.95352	0.02052
2270.66775	0.02096
2269.38198	0.02103
2268.09621	0.02057
2266.81044	0.01981
2265.52467	0.01912
2264.23890	0.01872
2262.95314	0.01867
2261.66737	0.01899
2260.38160	0.01959
2259.09583	0.02023
2257.81006	0.02058
2256.52429	0.02047
2255.23852	0.02000
2253.95275	0.01940
2252.66698	0.01884
2251.38122	0.01841
2250.09545	0.01824
2248.80968	0.01838
2247.52391	0.01861
2246.23814	0.01881
2244.95237	0.01876
2243.66660	0.01843
2242.38083	0.01794
2241.09507	0.01750
2239.80930	0.01723
2238.52353	0.01706
2237.23776	0.01675
2235.95199	0.01609
2234.66622	0.01511
2233.38045	0.01415
2232.09468	0.01357
2230.80891	0.01358
2229.52315	0.01411
2228.23738	0.01496
2226.95161	0.01576
2225.66584	0.01621
2224.38007	0.01615
2223.09430	0.01573
2221.80853	0.01523
2220.52276	0.01481
2219.23700	0.01452
2217.95123	0.01437
2216.66546	0.01432
2215.37969	0.01429
2214.09392	0.01437
2212.80815	0.01464
2211.52238	0.01492
2210.23661	0.01476
2208.95084	0.01393
2207.66508	0.01283
2206.37931	0.01214
2205.09354	0.01216
2203.80777	0.01249
2202.52200	0.01253
2201.23623	0.01207
2199.95046	0.01150
2198.66469	0.01138
2197.37893	0.01193
2196.09316	0.01286
2194.80739	0.01364
2193.52162	0.01404
2192.23585	0.01415
2190.95008	0.01411
2189.66431	0.01392
2188.37854	0.01355
2187.09277	0.01319
2185.80701	0.01294
2184.52124	0.01264
2183.23547	0.01202
2181.94970	0.01116
2180.66393	0.01051
2179.37816	0.01039
2178.09239	0.01072
2176.80662	0.01115
2175.52085	0.01136
2174.23509	0.01121
2172.94932	0.01072
2171.66355	0.01010
2170.37778	0.00975
2169.09201	0.01002
2167.80624	0.01092
2166.52047	0.01199
2165.23470	0.01255
2163.94894	0.01211
2162.66317	0.01043
2161.37740	0.00768
2160.09163	0.00458
2158.80586	0.00238
2157.52009	0.00200
2156.23432	0.00325
2154.94855	0.00520
2153.66278	0.00694
2152.37702	0.00797
2151.09125	0.00815
2149.80548	0.00778
2148.51971	0.00747
2147.23394	0.00766
2145.94817	0.00813
2144.66240	0.00837
2143.37663	0.00831
2142.09087	0.00836
2140.80510	0.00874
2139.51933	0.00917
2138.23356	0.00931
2136.94779	0.00916
2135.66202	0.00897
2134.37625	0.00901
2133.09048	0.00940
2131.80471	0.01005
2130.51895	0.01071
2129.23318	0.01119
2127.94741	0.01154
2126.66164	0.01193
2125.37587	0.01239
2124.09010	0.01277
2122.80433	0.01293
2121.51856	0.01285
2120.23280	0.01261
2118.94703	0.01234
2117.66126	0.01217
2116.37549	0.01231
2115.08972	0.01287
2113.80395	0.01364
2112.51818	0.01421
2111.23241	0.01440
2109.94664	0.01441
2108.66088	0.01442
2107.37511	0.01428
2106.08934	0.01387
2104.80357	0.01341
2103.51780	0.01321
2102.23203	0.01316
2100.94626	0.01299
2099.66049	0.01417
2098.37473	0.01427
2097.08896	0.01351
2095.80319	0.01274
2094.51742	0.01223
2093.23165	0.01210
2091.94588	0.01235
2090.66011	0.01279
2089.37434	0.01300
2088.08857	0.01264
2086.80281	0.01170
2085.51704	0.01060
2084.23127	0.00996
2082.94550	0.01013
2081.65973	0.01095
2080.37396	0.01192
2079.08819	0.01255
2077.80242	0.01267
2076.51666	0.01247
2075.23089	0.01230
2073.94512	0.01229
2072.65935	0.01232
2071.37358	0.01228
2070.08781	0.01226
2068.80204	0.01235
2067.51627	0.01237
2066.23050	0.01196
2064.94474	0.01092
2063.65897	0.00947
2062.37320	0.00815
2061.08743	0.00751
2059.80166	0.00774
2058.51589	0.00852
2057.23012	0.00923
2055.94435	0.00946
2054.65859	0.00929
2053.37282	0.00919
2052.08705	0.00948
2050.80128	0.01003
2049.51551	0.01046
2048.22974	0.01051
2046.94397	0.01017
2045.65820	0.00941
2044.37243	0.00826
2043.08667	0.00698
2041.80090	0.00604
2040.51513	0.00568
2039.22936	0.00574
2037.94359	0.00591
2036.65782	0.00603
2035.37205	0.00608
2034.08628	0.00606
2032.80052	0.00599
2031.51475	0.00605
2030.22898	0.00641
2028.94321	0.00700
2027.65744	0.00751
2026.37167	0.00758
2025.08590	0.00710
2023.80013	0.00616
2022.51436	0.00513
2021.22860	0.00452
2019.94283	0.00477
2018.65706	0.00580
2017.37129	0.00707
2016.08552	0.00801
2014.79975	0.00854
2013.51398	0.00904
2012.22821	0.00989
2010.94245	0.01104
2009.65668	0.01213
2008.37091	0.01273
2007.08514	0.01258
2005.79937	0.01177
2004.51360	0.01074
2003.22783	0.01008
2001.94206	0.01001
2000.65629	0.01012
1999.37053	0.00988
1998.08476	0.00922
1996.79899	0.00862
1995.51322	0.00855
1994.22745	0.00897
1992.94168	0.00941
1991.65591	0.00946
1990.37014	0.00912
1989.08438	0.00861
1987.79861	0.00818
1986.51284	0.00800
1985.22707	0.00817
1983.94130	0.00879
1982.65553	0.00998
1981.36976	0.01174
1980.08399	0.01371
1978.79822	0.01513
1977.51246	0.01537
1976.22669	0.01452
1974.94092	0.01334
1973.65515	0.01257
1972.36938	0.01251
1971.08361	0.01306
1969.79784	0.01381
1968.51207	0.01422
1967.22631	0.01395
1965.94054	0.01312
1964.65477	0.01223
1963.36900	0.01176
1962.08323	0.01180
1960.79746	0.01207
1959.51169	0.01218
1958.22592	0.01184
1956.94015	0.01115
1955.65439	0.01065
1954.36862	0.01090
1953.08285	0.01195
1951.79708	0.01318
1950.51131	0.01391
1949.22554	0.01399
1947.93977	0.01382
1946.65400	0.01378
1945.36823	0.01383
1944.08247	0.01373
1942.79670	0.01348
1941.51093	0.01325
1940.22516	0.01313
1938.93939	0.01289
1937.65362	0.01241
1936.36785	0.01194
1935.08208	0.01198
1933.79632	0.01268
1932.51055	0.01367
1931.22478	0.01441
1929.93901	0.01456
1928.65324	0.01415
1927.36747	0.01348
1926.08170	0.01300
1924.79593	0.01299
1923.51016	0.01342
1922.22440	0.01395
1920.93863	0.01429
1919.65286	0.01440
1918.36709	0.01443
1917.08132	0.01445
1915.79555	0.01443
1914.50978	0.01429
1913.22401	0.01411
1911.93825	0.01402
1910.65248	0.01406
1909.36671	0.01420
1908.08094	0.01433
1906.79517	0.01444
1905.50940	0.01452
1904.22363	0.01456
1902.93786	0.01451
1901.65209	0.01439
1900.36633	0.01431
1899.08056	0.01432
1897.79479	0.01438
1896.50902	0.01445
1895.22325	0.01453
1893.93748	0.01462
1892.65171	0.01466
1891.36594	0.01459
1890.08018	0.01434
1888.79441	0.01395
1887.50864	0.01358
1886.22287	0.01345
1884.93710	0.01368
1883.65133	0.01418
1882.36556	0.01468
1881.07979	0.01494
1879.79402	0.01494
1878.50826	0.01480
1877.22249	0.01457
1875.93672	0.01426
1874.65095	0.01387
1873.36518	0.01356
1872.07941	0.01350
1870.79364	0.01376
1869.50787	0.01419
1868.22211	0.01458
1866.93634	0.01480
1865.65057	0.01485
1864.36480	0.01480
1863.07903	0.01475
1861.79326	0.01476
1860.50749	0.01486
1859.22172	0.01501
1857.93595	0.01515
1856.65019	0.01521
1855.36442	0.01516
1854.07865	0.01499
1852.79288	0.01472
1851.50711	0.01443
1850.22134	0.01426
1848.93557	0.01432
1847.64980	0.01461
1846.36404	0.01496
1845.07827	0.01520
1843.79250	0.01521
1842.50673	0.01505
1841.22096	0.01486
1839.93519	0.01470
1838.64942	0.01455
1837.36365	0.01435
1836.07788	0.01411
1834.79212	0.01393
1833.50635	0.01394
1832.22058	0.01413
1830.93481	0.01442
1829.64904	0.01470
1828.36327	0.01489
1827.07750	0.01500
1825.79173	0.01509
1824.50597	0.01521
1823.22020	0.01537
1821.93443	0.01552
1820.64866	0.01559
1819.36289	0.01549
1818.07712	0.01523
1816.79135	0.01490
1815.50558	0.01461
1814.21981	0.01444
1812.93405	0.01437
1811.64828	0.01433
1810.36251	0.01429
1809.07674	0.01428
1807.79097	0.01433
1806.50520	0.01443
1805.21943	0.01450
1803.93366	0.01452
1802.64790	0.01452
1801.36213	0.01460
1800.07636	0.01481
1798.79059	0.01512
1797.50482	0.01544
1796.21905	0.01566
1794.93328	0.01575
1793.64751	0.01572
1792.36174	0.01564
1791.07598	0.01557
1789.79021	0.01553
1788.50444	0.01552
1787.21867	0.01554
1785.93290	0.01557
1784.64713	0.01561
1783.36136	0.01566
1782.07559	0.01572
1780.78983	0.01575
1779.50406	0.01573
1778.21829	0.01564
1776.93252	0.01553
1775.64675	0.01541
1774.36098	0.01527
1773.07521	0.01514
1771.78944	0.01502
1770.50367	0.01495
1769.21791	0.01495
1767.93214	0.01500
1766.64637	0.01510
1765.36060	0.01522
1764.07483	0.01535
1762.78906	0.01545
1761.50329	0.01546
1760.21752	0.01540
1758.93176	0.01529
1757.64599	0.01519
1756.36022	0.01509
1755.07445	0.01500
1753.78868	0.01498
1752.50291	0.01507
1751.21714	0.01526
1749.93137	0.01543
1748.64560	0.01549
1747.35984	0.01543
1746.07407	0.01533
1744.78830	0.01526
1743.50253	0.01528
1742.21676	0.01535
1740.93099	0.01541
1739.64522	0.01542
1738.35945	0.01544
1737.07369	0.01555
1735.78792	0.01577
1734.50215	0.01601
1733.21638	0.01616
1731.93061	0.01620
1730.64484	0.01616
1729.35907	0.01610
1728.07330	0.01604
1726.78753	0.01597
1725.50177	0.01594
1724.21600	0.01601
1722.93023	0.01619
1721.64446	0.01646
1720.35869	0.01677
1719.07292	0.01706
1717.78715	0.01732
1716.50138	0.01750
1715.21561	0.01761
1713.92985	0.01770
1712.64408	0.01784
1711.35831	0.01809
1710.07254	0.01845
1708.78677	0.01885
1707.50100	0.01926
1706.21523	0.01968
1704.92946	0.02014
1703.64370	0.02072
1702.35793	0.02143
1701.07216	0.02217
1699.78639	0.02284
1698.50062	0.02340
1697.21485	0.02390
1695.92908	0.02442
1694.64331	0.02495
1693.35754	0.02547
1692.07178	0.02599
1690.78601	0.02655
1689.50024	0.02719
1688.21447	0.02793
1686.92870	0.02871
1685.64293	0.02944
1684.35716	0.03001
1683.07139	0.03046
1681.78563	0.03091
1680.49986	0.03148
1679.21409	0.03217
1677.92832	0.03292
1676.64255	0.03364
1675.35678	0.03429
1674.07101	0.03488
1672.78524	0.03544
1671.49947	0.03599
1670.21371	0.03654
1668.92794	0.03704
1667.64217	0.03754
1666.35640	0.03809
1665.07063	0.03872
1663.78486	0.03937
1662.49909	0.03995
1661.21332	0.04042
1659.92756	0.04078
1658.64179	0.04109
1657.35602	0.04143
1656.07025	0.04192
1654.78448	0.04256
1653.49871	0.04317
1652.21294	0.04353
1650.92717	0.04358
1649.64140	0.04351
1648.35564	0.04353
1647.06987	0.04368
1645.78410	0.04381
1644.49833	0.04379
1643.21256	0.04363
1641.92679	0.04340
1640.64102	0.04317
1639.35525	0.04300
1638.06949	0.04287
1636.78372	0.04275
1635.49795	0.04254
1634.21218	0.04222
1632.92641	0.04179
1631.64064	0.04133
1630.35487	0.04088
1629.06910	0.04044
1627.78333	0.04000
1626.49757	0.03957
1625.21180	0.03910
1623.92603	0.03858
1622.64026	0.03801
1621.35449	0.03747
1620.06872	0.03705
1618.78295	0.03677
1617.49718	0.03654
1616.21142	0.03626
1614.92565	0.03590
1613.63988	0.03552
1612.35411	0.03521
1611.06834	0.03500
1609.78257	0.03489
1608.49680	0.03484
1607.21103	0.03479
1605.92526	0.03471
1604.63950	0.03460
1603.35373	0.03452
1602.06796	0.03449
1600.78219	0.03449
1599.49642	0.03451
1598.21065	0.03456
1596.92488	0.03467
1595.63911	0.03483
1594.35335	0.03502
1593.06758	0.03521
1591.78181	0.03538
1590.49604	0.03558
1589.21027	0.03584
1587.92450	0.03614
1586.63873	0.03645
1585.35296	0.03675
1584.06719	0.03704
1582.78143	0.03732
1581.49566	0.03764
1580.20989	0.03804
1578.92412	0.03854
1577.63835	0.03909
1576.35258	0.03962
1575.06681	0.04007
1573.78104	0.04047
1572.49528	0.04089
1571.20951	0.04135
1569.92374	0.04181
1568.63797	0.04224
1567.35220	0.04264
1566.06643	0.04304
1564.78066	0.04349
1563.49489	0.04402
1562.20912	0.04465
1560.92336	0.04534
1559.63759	0.04598
1558.35182	0.04647
1557.06605	0.04678
1555.78028	0.04698
1554.49451	0.04712
1553.20874	0.04727
1551.92297	0.04744
1550.63721	0.04766
1549.35144	0.04792
1548.06567	0.04819
1546.77990	0.04845
1545.49413	0.04869
1544.20836	0.04888
1542.92259	0.04903
1541.63682	0.04914
1540.35105	0.04918
1539.06529	0.04915
1537.77952	0.04908
1536.49375	0.04905
1535.20798	0.04911
1533.92221	0.04928
1532.63644	0.04952
1531.35067	0.04982
1530.06490	0.05020
1528.77914	0.05068
1527.49337	0.05124
1526.20760	0.05183
1524.92183	0.05245
1523.63606	0.05312
1522.35029	0.05385
1521.06452	0.05465
1519.77875	0.05551
1518.49298	0.05640
1517.20722	0.05731
1515.92145	0.05823
1514.63568	0.05916
1513.34991	0.06013
1512.06414	0.06115
1510.77837	0.06227
1509.49260	0.06350
1508.20683	0.06482
1506.92107	0.06613
1505.63530	0.06732
1504.34953	0.06839
1503.06376	0.06937
1501.77799	0.07034
1500.49222	0.07132
1499.20645	0.07231
1497.92068	0.07325
1496.63491	0.07411
1495.34915	0.07489
1494.06338	0.07562
1492.77761	0.07640
1491.49184	0.07725
1490.20607	0.07816
1488.92030	0.07906
1487.63453	0.07994
1486.34876	0.08080
1485.06299	0.08170
1483.77723	0.08265
1482.49146	0.08367
1481.20569	0.08475
1479.91992	0.08587
1478.63415	0.08704
1477.34838	0.08824
1476.06261	0.08942
1474.77684	0.09054
1473.49108	0.09157
1472.20531	0.09247
1470.91954	0.09326
1469.63377	0.09395
1468.34800	0.09461
1467.06223	0.09525
1465.77646	0.09586
1464.49069	0.09643
1463.20492	0.09700
1461.91916	0.09764
1460.63339	0.09839
1459.34762	0.09923
1458.06185	0.10007
1456.77608	0.10083
1455.49031	0.10143
1454.20454	0.10187
1452.91877	0.10220
1451.63301	0.10245
1450.34724	0.10266
1449.06147	0.10282
1447.77570	0.10290
1446.48993	0.10285
1445.20416	0.10268
1443.91839	0.10245
1442.63262	0.10221
1441.34685	0.10201
1440.06109	0.10193
1438.77532	0.10203
1437.48955	0.10232
1436.20378	0.10276
1434.91801	0.10333
1433.63224	0.10400
1432.34647	0.10483
1431.06070	0.10579
1429.77494	0.10688
1428.48917	0.10806
1427.20340	0.10934
1425.91763	0.11074
1424.63186	0.11224
1423.34609	0.11378
1422.06032	0.11525
1420.77455	0.11659
1419.48878	0.11774
1418.20302	0.11869
1416.91725	0.11941
1415.63148	0.11993
1414.34571	0.12030
1413.05994	0.12055
1411.77417	0.12068
1410.48840	0.12063
1409.20263	0.12034
1407.91687	0.11981
1406.63110	0.11905
1405.34533	0.11809
1404.05956	0.11694
1402.77379	0.11562
1401.48802	0.11413
1400.20225	0.11246
1398.91648	0.11059
1397.63071	0.10853
1396.34495	0.10631
1395.05918	0.10398
1393.77341	0.10163
1392.48764	0.09929
1391.20187	0.09698
1389.91610	0.09469
1388.63033	0.09242
1387.34456	0.09015
1386.05880	0.08785
1384.77303	0.08553
1383.48726	0.08322
1382.20149	0.08098
1380.91572	0.07883
1379.62995	0.07670
1378.34418	0.07453
1377.05841	0.07228
1375.77264	0.07000
1374.48688	0.06775
1373.20111	0.06556
1371.91534	0.06344
1370.62957	0.06139
1369.34380	0.05942
1368.05803	0.05754
1366.77226	0.05575
1365.48649	0.05405
1364.20073	0.05241
1362.91496	0.05085
1361.62919	0.04938
1360.34342	0.04801
1359.05765	0.04674
1357.77188	0.04555
1356.48611	0.04446
1355.20034	0.04349
1353.91457	0.04259
1352.62881	0.04173
1351.34304	0.04090
1350.05727	0.04013
1348.77150	0.03941
1347.48573	0.03874
1346.19996	0.03811
1344.91419	0.03755
1343.62842	0.03703
1342.34266	0.03655
1341.05689	0.03608
1339.77112	0.03565
1338.48535	0.03526
1337.19958	0.03491
1335.91381	0.03456
1334.62804	0.03419
1333.34227	0.03378
1332.05650	0.03335
1330.77074	0.03293
1329.48497	0.03254
1328.19920	0.03217
1326.91343	0.03183
1325.62766	0.03153
1324.34189	0.03125
1323.05612	0.03101
1321.77035	0.03076
1320.48459	0.03046
1319.19882	0.03014
1317.91305	0.02985
1316.62728	0.02962
1315.34151	0.02944
1314.05574	0.02923
1312.76997	0.02896
1311.48420	0.02866
1310.19843	0.02837
1308.91267	0.02813
1307.62690	0.02792
1306.34113	0.02775
1305.05536	0.02762
1303.76959	0.02749
1302.48382	0.02731
1301.19805	0.02704
1299.91228	0.02673
1298.62652	0.02643
1297.34075	0.02619
1296.05498	0.02601
1294.76921	0.02587
1293.48344	0.02571
1292.19767	0.02554
1290.91190	0.02538
1289.62613	0.02527
1288.34036	0.02519
1287.05460	0.02512
1285.76883	0.02501
1284.48306	0.02484
1283.19729	0.02463
1281.91152	0.02442
1280.62575	0.02422
1279.33998	0.02405
1278.05421	0.02391
1276.76845	0.02379
1275.48268	0.02367
1274.19691	0.02355
1272.91114	0.02345
1271.62537	0.02336
1270.33960	0.02326
1269.05383	0.02319
1267.76806	0.02313
1266.48229	0.02309
1265.19653	0.02305
1263.91076	0.02297
1262.62499	0.02286
1261.33922	0.02273
1260.05345	0.02260
1258.76768	0.02249
1257.48191	0.02239
1256.19614	0.02231
1254.91037	0.02224
1253.62461	0.02221
1252.33884	0.02218
1251.05307	0.02214
1249.76730	0.02207
1248.48153	0.02197
1247.19576	0.02187
1245.90999	0.02178
1244.62422	0.02167
1243.33846	0.02155
1242.05269	0.02141
1240.76692	0.02127
1239.48115	0.02115
1238.19538	0.02105
1236.90961	0.02097
1235.62384	0.02088
1234.33807	0.02079
1233.05230	0.02071
1231.76654	0.02062
1230.48077	0.02051
1229.19500	0.02038
1227.90923	0.02024
1226.62346	0.02009
1225.33769	0.01993
1224.05192	0.01975
1222.76615	0.01955
1221.48039	0.01933
1220.19462	0.01912
1218.90885	0.01891
1217.62308	0.01872
1216.33731	0.01855
1215.05154	0.01843
1213.76577	0.01834
1212.48000	0.01828
1211.19423	0.01822
1209.90847	0.01816
1208.62270	0.01812
1207.33693	0.01810
1206.05116	0.01812
1204.76539	0.01818
1203.47962	0.01830
1202.19385	0.01843
1200.90808	0.01841
1199.62232	0.01816
1198.33655	0.01808
1197.05078	0.01797
1195.76501	0.01788
1194.47924	0.01779
1193.19347	0.01768
1191.90770	0.01753
1190.62193	0.01738
1189.33616	0.01725
1188.05040	0.01717
1186.76463	0.01713
1185.47886	0.01709
1184.19309	0.01707
1182.90732	0.01707
1181.62155	0.01708
1180.33578	0.01712
1179.05001	0.01720
1177.76425	0.01728
1176.47848	0.01735
1175.19271	0.01736
1173.90694	0.01735
1172.62117	0.01736
1171.33540	0.01741
1170.04963	0.01751
1168.76386	0.01765
1167.47809	0.01782
1166.19233	0.01799
1164.90656	0.01809
1163.62079	0.01813
1162.33502	0.01816
1161.04925	0.01826
1159.76348	0.01845
1158.47771	0.01872
1157.19194	0.01901
1155.90618	0.01928
1154.62041	0.01950
1153.33464	0.01968
1152.04887	0.01987
1150.76310	0.02010
1149.47733	0.02039
1148.19156	0.02071
1146.90579	0.02108
1145.62002	0.02153
1144.33426	0.02209
1143.04849	0.02276
1141.76272	0.02348
1140.47695	0.02423
1139.19118	0.02505
1137.90541	0.02596
1136.61964	0.02702
1135.33387	0.02830
1134.04811	0.02984
1132.76234	0.03159
1131.47657	0.03348
1130.19080	0.03546
1128.90503	0.03753
1127.61926	0.03975
1126.33349	0.04215
1125.04772	0.04478
1123.76195	0.04766
1122.47619	0.05077
1121.19042	0.05403
1119.90465	0.05735
1118.61888	0.06066
1117.33311	0.06396
1116.04734	0.06729
1114.76157	0.07064
1113.47580	0.07398
1112.19004	0.07727
1110.90427	0.08047
1109.61850	0.08356
1108.33273	0.08656
1107.04696	0.08947
1105.76119	0.09231
1104.47542	0.09511
1103.18965	0.09791
1101.90388	0.10067
1100.61812	0.10332
1099.33235	0.10582
1098.04658	0.10817
1096.76081	0.11046
1095.47504	0.11276
1094.18927	0.11506
1092.90350	0.11729
1091.61773	0.11940
1090.33197	0.12135
1089.04620	0.12314
1087.76043	0.12483
1086.47466	0.12653
1085.18889	0.12833
1083.90312	0.13027
1082.61735	0.13234
1081.33158	0.13449
1080.04581	0.13676
1078.76005	0.13919
1077.47428	0.14180
1076.18851	0.14456
1074.90274	0.14741
1073.61697	0.15031
1072.33120	0.15331
1071.04543	0.15646
1069.75966	0.15977
1068.47390	0.16317
1067.18813	0.16658
1065.90236	0.17000
1064.61659	0.17348
1063.33082	0.17705
1062.04505	0.18069
1060.75928	0.18430
1059.47351	0.18783
1058.18774	0.19130
1056.90198	0.19472
1055.61621	0.19810
1054.33044	0.20141
1053.04467	0.20469
1051.75890	0.20800
1050.47313	0.21141
1049.18736	0.21497
1047.90159	0.21863
1046.61583	0.22231
1045.33006	0.22590
1044.04429	0.22943
1042.75852	0.23298
1041.47275	0.23662
1040.18698	0.24033
1038.90121	0.24401
1037.61544	0.24763
1036.32967	0.25117
1035.04391	0.25462
1033.75814	0.25787
1032.47237	0.26081
1031.18660	0.26343
1029.90083	0.26581
1028.61506	0.26798
1027.32929	0.26988
1026.04352	0.27138
1024.75775	0.27239
1023.47199	0.27290
1022.18622	0.27291
1020.90045	0.27240
1019.61468	0.27130
1018.32891	0.26960
1017.04314	0.26734
1015.75737	0.26459
1014.47160	0.26138
1013.18584	0.25769
1011.90007	0.25351
1010.61430	0.24883
1009.32853	0.24373
1008.04276	0.23828
1006.75699	0.23254
1005.47122	0.22651
1004.18545	0.22017
1002.89968	0.21353
1001.61392	0.20666
1000.32815	0.19961
999.04238	0.19243
997.75661	0.18518
996.47084	0.17795
995.18507	0.17085
993.89930	0.16396
992.61353	0.15733
991.32777	0.15094
990.04200	0.14477
988.75623	0.13881
987.47046	0.13308
986.18469	0.12761
984.89892	0.12243
983.61315	0.11760
982.32738	0.11314
981.04161	0.10899
979.75585	0.10511
978.47008	0.10145
977.18431	0.09809
975.89854	0.09510
974.61277	0.09255
973.32700	0.09051
972.04123	0.08906
970.75546	0.08822
969.46970	0.08791
968.18393	0.08801
966.89816	0.08844
965.61239	0.08917
964.32662	0.09006
963.04085	0.09087
961.75508	0.09133
960.46931	0.09122
959.18354	0.09046
957.89778	0.08909
956.61201	0.08723
955.32624	0.08505
954.04047	0.08273
952.75470	0.08037
951.46893	0.07804
950.18316	0.07576
948.89739	0.07353
947.61163	0.07135
946.32586	0.06927
945.04009	0.06736
943.75432	0.06566
942.46855	0.06406
941.18278	0.06247
939.89701	0.06085
938.61124	0.05926
937.32547	0.05781
936.03971	0.05652
934.75394	0.05533
933.46817	0.05417
932.18240	0.05303
930.89663	0.05198
929.61086	0.05106
928.32509	0.05027
927.03932	0.04957
925.75356	0.04893
924.46779	0.04835
923.18202	0.04782
921.89625	0.04730
920.61048	0.04672
919.32471	0.04608
918.03894	0.04543
916.75317	0.04480
915.46740	0.04418
914.18164	0.04357
912.89587	0.04302
911.61010	0.04257
910.32433	0.04216
909.03856	0.04170
907.75279	0.04114
906.46702	0.04053
905.18125	0.03998
903.89549	0.03961
902.60972	0.03945
901.32395	0.03938
900.03818	0.03927
898.75241	0.03903
897.46664	0.03873
896.18087	0.03844
894.89510	0.03825
893.60933	0.03816
892.32357	0.03820
891.03780	0.03839
889.75203	0.03875
888.46626	0.03933
887.18049	0.04021
885.89472	0.04155
884.60895	0.04355
883.32318	0.04633
882.03742	0.04972
880.75165	0.05322
879.46588	0.05630
878.18011	0.05875
876.89434	0.06078
875.60857	0.06267
874.32280	0.06445
873.03703	0.06584
871.75126	0.06647
870.46550	0.06613
869.17973	0.06489
867.89396	0.06296
866.60819	0.06055
865.32242	0.05784
864.03665	0.05499
862.75088	0.05219
861.46511	0.04963
860.17935	0.04742
858.89358	0.04556
857.60781	0.04400
856.32204	0.04271
855.03627	0.04163
853.75050	0.04071
852.46473	0.03989
851.17896	0.03915
849.89319	0.03856
848.60743	0.03809
847.32166	0.03768
846.03589	0.03723
844.75012	0.03673
843.46435	0.03627
842.17858	0.03588
840.89281	0.03556
839.60704	0.03528
838.32128	0.03497
837.03551	0.03464
835.74974	0.03432
834.46397	0.03409
833.17820	0.03394
831.89243	0.03380
830.60666	0.03358
829.32089	0.03331
828.03512	0.03307
826.74936	0.03289
825.46359	0.03275
824.17782	0.03262
822.89205	0.03251
821.60628	0.03245
820.32051	0.03238
819.03474	0.03223
817.74897	0.03197
816.46321	0.03171
815.17744	0.03161
813.89167	0.03171
812.60590	0.03189
811.32013	0.03198
810.03436	0.03191
808.74859	0.03172
807.46282	0.03152
806.17705	0.03138
804.89129	0.03133
803.60552	0.03132
802.31975	0.03130
801.03398	0.03126
799.74821	0.03122
798.46244	0.03118
797.17667	0.03111
795.89090	0.03100
794.60513	0.03089
793.31937	0.03082
792.03360	0.03082
790.74783	0.03088
789.46206	0.03095
788.17629	0.03093
786.89052	0.03079
785.60475	0.03061
784.31898	0.03047
783.03322	0.03037
781.74745	0.03026
780.46168	0.03016
779.17591	0.03015
777.89014	0.03026
776.60437	0.03044
775.31860	0.03059
774.03283	0.03061
772.74706	0.03050
771.46130	0.03034
770.17553	0.03021
768.88976	0.03016
767.60399	0.03021
766.31822	0.03035
765.03245	0.03051
763.74668	0.03059
762.46091	0.03060
761.17515	0.03059
759.88938	0.03063
758.60361	0.03069
757.31784	0.03070
756.03207	0.03066
754.74630	0.03062
753.46053	0.03062
752.17476	0.03064
750.88899	0.03067
749.60323	0.03070
748.31746	0.03072
747.03169	0.03069
745.74592	0.03062
744.46015	0.03053
743.17438	0.03042
741.88861	0.03025
740.60284	0.03005
739.31708	0.02987
738.03131	0.02979
736.74554	0.02985
735.45977	0.03000
734.17400	0.03009
732.88823	0.03000
731.60246	0.02979
730.31669	0.02962
729.03092	0.02961
727.74516	0.02972
726.45939	0.02986
725.17362	0.03000
723.88785	0.03012
722.60208	0.03031
721.31631	0.03052
720.03054	0.03070
718.74477	0.03085
717.45901	0.03098
716.17324	0.03109
714.88747	0.03117
713.60170	0.03120
712.31593	0.03116
711.03016	0.03106
709.74439	0.03091
708.45862	0.03074
707.17285	0.03057
705.88709	0.03043
704.60132	0.03032
703.31555	0.03026
702.02978	0.03026
700.74401	0.03029
699.45824	0.03031
698.17247	0.03028
696.88670	0.03021
695.60094	0.03015
694.31517	0.03009
693.02940	0.03002
691.74363	0.02996
690.45786	0.02993
689.17209	0.02994
687.88632	0.02994
686.60055	0.02990
685.31478	0.02982
684.02902	0.02971
682.74325	0.02959
681.45748	0.02945
680.17171	0.02929
678.88594	0.02914
677.60017	0.02902
676.31440	0.02896
675.02863	0.02893
673.74287	0.02892
672.45710	0.02895
671.17133	0.02900
669.88556	0.02906
668.59979	0.02910
667.31402	0.02909
666.02825	0.02902
664.74248	0.02887
663.45671	0.02862
662.17095	0.02836
660.88518	0.02816
659.59941	0.02806
658.31364	0.02804
657.02787	0.02803
655.74210	0.02797
654.45633	0.02787
653.17056	0.02774
651.88480	0.02760
650.59903	0.02751
649.31326	0.02751
648.02749	0.02756
646.74172	0.02761
645.45595	0.02761
644.17018	0.02757
642.88441	0.02755
641.59864	0.02762
640.31288	0.02775
639.02711	0.02787
637.74134	0.02795
636.45557	0.02802
635.16980	0.02815
633.88403	0.02833
632.59826	0.02851
631.31249	0.02888
630.02673	0.03044
628.74096	0.03278
627.45519	0.03203
626.16942	0.03506
624.88365	0.04084
623.59788	0.04690
622.31211	0.05235
621.02634	0.05678
619.74057	0.05980
618.45481	0.06129
617.16904	0.06146
615.88327	0.06084
614.59750	0.06044
613.31173	0.06169
612.02596	0.06582
610.74019	0.07275
609.45442	0.08077
608.16866	0.08788
606.88289	0.09319
605.59712	0.09694
604.31135	0.09962
603.02558	0.10138
601.73981	0.10195
600.45404	0.10099
599.16827	0.09850
597.88250	0.09493
596.59674	0.09099
595.31097	0.08732
594.02520	0.08432
592.73943	0.08216
591.45366	0.08078
590.16789	0.08003
588.88212	0.07982
587.59635	0.08014
586.31059	0.08107
585.02482	0.08264
583.73905	0.08476
582.45328	0.08728
581.16751	0.09009
579.88174	0.09313
578.59597	0.09624
577.31020	0.09912
576.02443	0.10156
574.73867	0.10363
573.45290	0.10566
572.16713	0.10801
570.88136	0.11090
569.59559	0.11426
568.30982	0.11791
567.02405	0.12155
565.73828	0.12486
564.45251	0.12746
563.16675	0.12901
561.88098	0.12920
560.59521	0.12779
559.30944	0.12469
558.02367	0.11999
556.73790	0.11405
555.45213	0.10739
554.16636	0.10055
552.88060	0.09398
551.59483	0.08804
550.30906	0.08288
549.02329	0.07844
547.73752	0.07454
546.45175	0.07102
545.16598	0.06776
543.88021	0.06473
542.59444	0.06196
541.30868	0.05951
540.02291	0.05739
538.73714	0.05549
537.45137	0.05368
536.16560	0.05191
534.87983	0.05021
533.59406	0.04867
532.30829	0.04732
531.02253	0.04619
529.73676	0.04522
528.45099	0.04431
527.16522	0.04339
525.87945	0.04241
524.59368	0.04139
523.30791	0.04035
522.02214	0.03932
520.73637	0.03837
519.45061	0.03756
518.16484	0.03692
516.87907	0.03638
515.59330	0.03586
514.30753	0.03525
513.02176	0.03456
511.73599	0.03384
510.45022	0.03318
509.16446	0.03264
507.87869	0.03218
506.59292	0.03177
505.30715	0.03135
504.02138	0.03094
502.73561	0.03060
501.44984	0.03034
500.16407	0.03011
498.87830	0.02982
497.59254	0.02947
496.30677	0.02909
495.02100	0.02870
493.73523	0.02829
492.44946	0.02789
491.16369	0.02755
489.87792	0.02736
488.59215	0.02731
487.30639	0.02733
486.02062	0.02732
484.73485	0.02726
483.44908	0.02719
482.16331	0.02717
480.87754	0.02723
479.59177	0.02734
478.30600	0.02747
477.02023	0.02760
475.73447	0.02775
474.44870	0.02791
473.16293	0.02806
471.87716	0.02817
470.59139	0.02821
469.30562	0.02819
468.01985	0.02811
466.73408	0.02797
465.44832	0.02777
464.16255	0.02755
462.87678	0.02733
461.59101	0.02706
460.30524	0.02671
459.01947	0.02624
457.73370	0.02572
456.44793	0.02526
455.16216	0.02494
453.87640	0.02473
452.59063	0.02456
451.30486	0.02434
450.01909	0.02405
448.73332	0.02379
447.44755	0.02362
446.16178	0.02354
444.87601	0.02347
443.59025	0.02333
442.30448	0.02311
441.01871	0.02286
439.73294	0.02264
438.44717	0.02245
437.16140	0.02232
435.87563	0.02222
434.58986	0.02212
433.30409	0.02201
432.01833	0.02192
430.73256	0.02190
429.44679	0.02196
428.16102	0.02204
426.87525	0.02203
425.58948	0.02190
424.30371	0.02170
423.01794	0.02151
421.73218	0.02137
420.44641	0.02124
419.16064	0.02109
417.87487	0.02090
416.58910	0.02070
415.30333	0.02054
414.01756	0.02044
412.73179	0.02040
411.44602	0.02042
410.16026	0.02051
408.87449	0.02065
407.58872	0.02081
406.30295	0.02095
405.01718	0.02106
403.73141	0.02117
402.44564	0.02131
401.15987	0.02151
399.87411	0.02174
