3997.45528	0.01420
3996.16951	0.01300
3994.88374	0.01194
3993.59798	0.01151
3992.31221	0.01190
3991.02644	0.01275
3989.74067	0.01352
3988.45490	0.01395
3987.16913	0.01419
3985.88336	0.01439
3984.59759	0.01444
3983.31183	0.01429
3982.02606	0.01417
3980.74029	0.01443
3979.45452	0.01509
3978.16875	0.01572
3976.88298	0.01596
3975.59721	0.01578
3974.31144	0.01537
3973.02567	0.01479
3971.73991	0.01405
3970.45414	0.01335
3969.16837	0.01303
3967.88260	0.01317
3966.59683	0.01353
3965.31106	0.01380
3964.02529	0.01387
3962.73952	0.01394
3961.45376	0.01427
3960.16799	0.01484
3958.88222	0.01538
3957.59645	0.01568
3956.31068	0.01571
3955.02491	0.01551
3953.73914	0.01517
3952.45337	0.01478
3951.16760	0.01449
3949.88184	0.01435
3948.59607	0.01431
3947.31030	0.01423
3946.02453	0.01391
3944.73876	0.01336
3943.45299	0.01292
3942.16722	0.01297
3940.88145	0.01346
3939.59569	0.01408
3938.30992	0.01470
3937.02415	0.01541
3935.73838	0.01601
3934.45261	0.01613
3933.16684	0.01577
3931.88107	0.01532
3930.59530	0.01509
3929.30953	0.01505
3928.02377	0.01500
3926.73800	0.01483
3925.45223	0.01467
3924.16646	0.01470
3922.88069	0.01479
3921.59492	0.01470
3920.30915	0.01443
3919.02338	0.01418
3917.73762	0.01416
3916.45185	0.01451
3915.16608	0.01504
3913.88031	0.01526
3912.59454	0.01493
3911.30877	0.01430
3910.02300	0.01385
3908.73723	0.01389
3907.45146	0.01426
3906.16570	0.01466
3904.87993	0.01511
3903.59416	0.01578
3902.30839	0.01639
3901.02262	0.01636
3899.73685	0.01568
3898.45108	0.01500
3897.16531	0.01479
3895.87955	0.01511
3894.59378	0.01565
3893.30801	0.01601
3892.02224	0.01621
3890.73647	0.01682
3889.45070	0.01763
3888.16493	0.01747
3886.87916	0.01613
3885.59339	0.01500
3884.30763	0.01488
3883.02186	0.01498
3881.73609	0.01454
3880.45032	0.01415
3879.16455	0.01438
3877.87878	0.01457
3876.59301	0.01404
3875.30724	0.01340
3874.02148	0.01352
3872.73571	0.01397
3871.44994	0.01387
3870.16417	0.01380
3868.87840	0.01475
3867.59263	0.01590
3866.30686	0.01596
3865.02109	0.01525
3863.73532	0.01467
3862.44956	0.01423
3861.16379	0.01371
3859.87802	0.01346
3858.59225	0.01385
3857.30648	0.01434
3856.02071	0.01415
3854.73494	0.01380
3853.44917	0.01492
3852.16341	0.01749
3850.87764	0.01943
3849.59187	0.01943
3848.30610	0.01820
3847.02033	0.01685
3845.73456	0.01584
3844.44879	0.01534
3843.16302	0.01555
3841.87725	0.01634
3840.59149	0.01689
3839.30572	0.01671
3838.01995	0.01632
3836.73418	0.01635
3835.44841	0.01645
3834.16264	0.01601
3832.87687	0.01538
3831.59110	0.01533
3830.30534	0.01583
3829.01957	0.01603
3827.73380	0.01550
3826.44803	0.01491
3825.16226	0.01492
3823.87649	0.01517
3822.59072	0.01539
3821.30495	0.01627
3820.01918	0.01776
3818.73342	0.01810
3817.44765	0.01642
3816.16188	0.01467
3814.87611	0.01476
3813.59034	0.01570
3812.30457	0.01591
3811.01880	0.01539
3809.73303	0.01454
3808.44726	0.01355
3807.16150	0.01333
3805.87573	0.01460
3804.58996	0.01608
3803.30419	0.01613
3802.01842	0.01551
3800.73265	0.01605
3799.44688	0.01725
3798.16111	0.01713
3796.87535	0.01557
3795.58958	0.01416
3794.30381	0.01381
3793.01804	0.01430
3791.73227	0.01506
3790.44650	0.01554
3789.16073	0.01538
3787.87496	0.01464
3786.58919	0.01377
3785.30343	0.01334
3784.01766	0.01354
3782.73189	0.01395
3781.44612	0.01398
3780.16035	0.01361
3778.87458	0.01331
3777.58881	0.01327
3776.30304	0.01335
3775.01728	0.01359
3773.73151	0.01396
3772.44574	0.01402
3771.15997	0.01351
3769.87420	0.01297
3768.58843	0.01279
3767.30266	0.01267
3766.01689	0.01257
3764.73112	0.01301
3763.44536	0.01413
3762.15959	0.01522
3760.87382	0.01569
3759.58805	0.01557
3758.30228	0.01524
3757.01651	0.01531
3755.73074	0.01591
3754.44497	0.01647
3753.15921	0.01655
3751.87344	0.01632
3750.58767	0.01620
3749.30190	0.01676
3748.01613	0.01767
3746.73036	0.01730
3745.44459	0.01545
3744.15882	0.01446
3742.87305	0.01517
3741.58729	0.01550
3740.30152	0.01443
3739.01575	0.01302
3737.72998	0.01226
3736.44421	0.01238
3735.15844	0.01303
3733.87267	0.01348
3732.58690	0.01343
3731.30114	0.01361
3730.01537	0.01435
3728.72960	0.01490
3727.44383	0.01493
3726.15806	0.01471
3724.87229	0.01444
3723.58652	0.01417
3722.30075	0.01403
3721.01498	0.01415
3719.72922	0.01433
3718.44345	0.01427
3717.15768	0.01411
3715.87191	0.01401
3714.58614	0.01389
3713.30037	0.01391
3712.01460	0.01420
3710.72883	0.01473
3709.44307	0.01512
3708.15730	0.01495
3706.87153	0.01451
3705.58576	0.01420
3704.29999	0.01399
3703.01422	0.01387
3701.72845	0.01386
3700.44268	0.01400
3699.15691	0.01406
3697.87115	0.01387
3696.58538	0.01375
3695.29961	0.01412
3694.01384	0.01499
3692.72807	0.01594
3691.44230	0.01644
3690.15653	0.01608
3688.87076	0.01518
3687.58500	0.01458
3686.29923	0.01433
3685.01346	0.01384
3683.72769	0.01333
3682.44192	0.01346
3681.15615	0.01430
3679.87038	0.01554
3678.58461	0.01654
3677.29884	0.01684
3676.01308	0.01724
3674.72731	0.01863
3673.44154	0.01978
3672.15577	0.01880
3670.87000	0.01651
3669.58423	0.01525
3668.29846	0.01553
3667.01269	0.01605
3665.72693	0.01607
3664.44116	0.01573
3663.15539	0.01530
3661.86962	0.01490
3660.58385	0.01453
3659.29808	0.01404
3658.01231	0.01349
3656.72654	0.01363
3655.44077	0.01511
3654.15501	0.01707
3652.86924	0.01773
3651.58347	0.01654
3650.29770	0.01461
3649.01193	0.01324
3647.72616	0.01272
3646.44039	0.01257
3645.15462	0.01223
3643.86886	0.01160
3642.58309	0.01109
3641.29732	0.01108
3640.01155	0.01152
3638.72578	0.01212
3637.44001	0.01262
3636.15424	0.01290
3634.86847	0.01323
3633.58270	0.01399
3632.29694	0.01488
3631.01117	0.01498
3629.72540	0.01424
3628.43963	0.01384
3627.15386	0.01420
3625.86809	0.01449
3624.58232	0.01433
3623.29655	0.01427
3622.01079	0.01438
3620.72502	0.01435
3619.43925	0.01421
3618.15348	0.01432
3616.86771	0.01464
3615.58194	0.01479
3614.29617	0.01480
3613.01040	0.01503
3611.72463	0.01544
3610.43887	0.01549
3609.15310	0.01520
3607.86733	0.01520
3606.58156	0.01575
3605.29579	0.01629
3604.01002	0.01624
3602.72425	0.01562
3601.43848	0.01482
3600.15272	0.01444
3598.86695	0.01483
3597.58118	0.01578
3596.29541	0.01663
3595.00964	0.01724
3593.72387	0.01767
3592.43810	0.01766
3591.15233	0.01703
3589.86656	0.01589
3588.58080	0.01482
3587.29503	0.01453
3586.00926	0.01496
3584.72349	0.01540
3583.43772	0.01538
3582.15195	0.01503
3580.86618	0.01475
3579.58041	0.01485
3578.29464	0.01532
3577.00888	0.01593
3575.72311	0.01643
3574.43734	0.01657
3573.15157	0.01623
3571.86580	0.01551
3570.58003	0.01471
3569.29426	0.01425
3568.00849	0.01451
3566.72273	0.01542
3565.43696	0.01646
3564.15119	0.01715
3562.86542	0.01752
3561.57965	0.01795
3560.29388	0.01857
3559.00811	0.01910
3557.72234	0.01920
3556.43657	0.01884
3555.15081	0.01825
3553.86504	0.01774
3552.57927	0.01755
3551.29350	0.01767
3550.00773	0.01788
3548.72196	0.01795
3547.43619	0.01783
3546.15042	0.01762
3544.86466	0.01735
3543.57889	0.01700
3542.29312	0.01664
3541.00735	0.01636
3539.72158	0.01611
3538.43581	0.01591
3537.15004	0.01590
3535.86427	0.01621
3534.57850	0.01670
3533.29274	0.01702
3532.00697	0.01698
3530.72120	0.01665
3529.43543	0.01623
3528.14966	0.01594
3526.86389	0.01598
3525.57812	0.01639
3524.29235	0.01703
3523.00659	0.01763
3521.72082	0.01793
3520.43505	0.01779
3519.14928	0.01729
3517.86351	0.01674
3516.57774	0.01644
3515.29197	0.01646
3514.00620	0.01678
3512.72043	0.01726
3511.43467	0.01769
3510.14890	0.01786
3508.86313	0.01775
3507.57736	0.01748
3506.29159	0.01719
3505.00582	0.01692
3503.72005	0.01671
3502.43428	0.01662
3501.14852	0.01662
3499.86275	0.01667
3498.57698	0.01677
3497.29121	0.01700
3496.00544	0.01741
3494.71967	0.01789
3493.43390	0.01828
3492.14813	0.01843
3490.86236	0.01829
3489.57660	0.01787
3488.29083	0.01726
3487.00506	0.01667
3485.71929	0.01635
3484.43352	0.01637
3483.14775	0.01660
3481.86198	0.01689
3480.57621	0.01720
3479.29045	0.01753
3478.00468	0.01781
3476.71891	0.01800
3475.43314	0.01812
3474.14737	0.01829
3472.86160	0.01856
3471.57583	0.01885
3470.29006	0.01906
3469.00429	0.01921
3467.71853	0.01934
3466.43276	0.01935
3465.14699	0.01900
3463.86122	0.01814
3462.57545	0.01705
3461.28968	0.01628
3460.00391	0.01616
3458.71814	0.01652
3457.43238	0.01696
3456.14661	0.01717
3454.86084	0.01708
3453.57507	0.01680
3452.28930	0.01654
3451.00353	0.01647
3449.71776	0.01669
3448.43199	0.01722
3447.14622	0.01802
3445.86046	0.01881
3444.57469	0.01917
3443.28892	0.01894
3442.00315	0.01838
3440.71738	0.01796
3439.43161	0.01793
3438.14584	0.01823
3436.86007	0.01860
3435.57431	0.01878
3434.28854	0.01862
3433.00277	0.01819
3431.71700	0.01774
3430.43123	0.01752
3429.14546	0.01763
3427.85969	0.01790
3426.57392	0.01811
3425.28815	0.01810
3424.00239	0.01787
3422.71662	0.01759
3421.43085	0.01751
3420.14508	0.01780
3418.85931	0.01838
3417.57354	0.01895
3416.28777	0.01922
3415.00200	0.01923
3413.71624	0.01924
3412.43047	0.01939
3411.14470	0.01956
3409.85893	0.01951
3408.57316	0.01919
3407.28739	0.01882
3406.00162	0.01862
3404.71585	0.01871
3403.43008	0.01900
3402.14432	0.01929
3400.85855	0.01932
3399.57278	0.01908
3398.28701	0.01882
3397.00124	0.01878
3395.71547	0.01898
3394.42970	0.01930
3393.14393	0.01960
3391.85817	0.01978
3390.57240	0.01976
3389.28663	0.01957
3388.00086	0.01939
3386.71509	0.01934
3385.42932	0.01936
3384.14355	0.01934
3382.85778	0.01927
3381.57201	0.01920
3380.28625	0.01915
3379.00048	0.01916
3377.71471	0.01923
3376.42894	0.01936
3375.14317	0.01951
3373.85740	0.01960
3372.57163	0.01957
3371.28586	0.01943
3370.00010	0.01921
3368.71433	0.01893
3367.42856	0.01857
3366.14279	0.01823
3364.85702	0.01814
3363.57125	0.01847
3362.28548	0.01904
3360.99971	0.01947
3359.71394	0.01951
3358.42818	0.01933
3357.14241	0.01917
3355.85664	0.01908
3354.57087	0.01896
3353.28510	0.01879
3351.99933	0.01868
3350.71356	0.01867
3349.42779	0.01863
3348.14202	0.01852
3346.85626	0.01841
3345.57049	0.01837
3344.28472	0.01836
3342.99895	0.01841
3341.71318	0.01860
3340.42741	0.01896
3339.14164	0.01928
3337.85587	0.01936
3336.57011	0.01919
3335.28434	0.01900
3333.99857	0.01895
3332.71280	0.01900
3331.42703	0.01907
3330.14126	0.01913
3328.85549	0.01917
3327.56972	0.01902
3326.28395	0.01862
3324.99819	0.01819
3323.71242	0.01808
3322.42665	0.01841
3321.14088	0.01897
3319.85511	0.01948
3318.56934	0.01974
3317.28357	0.01971
3315.99780	0.01950
3314.71204	0.01928
3313.42627	0.01915
3312.14050	0.01901
3310.85473	0.01866
3309.56896	0.01807
3308.28319	0.01751
3306.99742	0.01731
3305.71165	0.01760
3304.42588	0.01812
3303.14012	0.01853
3301.85435	0.01866
3300.56858	0.01863
3299.28281	0.01860
3297.99704	0.01861
3296.71127	0.01858
3295.42550	0.01841
3294.13973	0.01814
3292.85397	0.01789
3291.56820	0.01781
3290.28243	0.01791
3288.99666	0.01807
3287.71089	0.01822
3286.42512	0.01847
3285.13935	0.01880
3283.85358	0.01902
3282.56781	0.01893
3281.28205	0.01858
3279.99628	0.01822
3278.71051	0.01804
3277.42474	0.01806
3276.13897	0.01821
3274.85320	0.01841
3273.56743	0.01860
3272.28166	0.01874
3270.99590	0.01875
3269.71013	0.01865
3268.42436	0.01867
3267.13859	0.01903
3265.85282	0.01967
3264.56705	0.02032
3263.28128	0.02070
3261.99551	0.02076
3260.70974	0.02058
3259.42398	0.02026
3258.13821	0.01985
3256.85244	0.01943
3255.56667	0.01909
3254.28090	0.01888
3252.99513	0.01882
3251.70936	0.01887
3250.42359	0.01895
3249.13783	0.01897
3247.85206	0.01894
3246.56629	0.01891
3245.28052	0.01898
3243.99475	0.01921
3242.70898	0.01952
3241.42321	0.01974
3240.13744	0.01980
3238.85167	0.01976
3237.56591	0.01968
3236.28014	0.01953
3234.99437	0.01931
3233.70860	0.01909
3232.42283	0.01901
3231.13706	0.01910
3229.85129	0.01921
3228.56552	0.01918
3227.27976	0.01901
3225.99399	0.01879
3224.70822	0.01860
3223.42245	0.01847
3222.13668	0.01842
3220.85091	0.01845
3219.56514	0.01853
3218.27937	0.01865
3216.99360	0.01882
3215.70784	0.01910
3214.42207	0.01948
3213.13630	0.01984
3211.85053	0.02001
3210.56476	0.01991
3209.27899	0.01962
3207.99322	0.01935
3206.70745	0.01923
3205.42169	0.01925
3204.13592	0.01928
3202.85015	0.01930
3201.56438	0.01939
3200.27861	0.01958
3198.99284	0.01974
3197.70707	0.01976
3196.42130	0.01964
3195.13553	0.01957
3193.84977	0.01969
3192.56400	0.02004
3191.27823	0.02042
3189.99246	0.02051
3188.70669	0.02006
3187.42092	0.01917
3186.13515	0.01825
3184.84938	0.01773
3183.56362	0.01768
3182.27785	0.01789
3180.99208	0.01814
3179.70631	0.01839
3178.42054	0.01871
3177.13477	0.01913
3175.84900	0.01961
3174.56323	0.02007
3173.27746	0.02035
3171.99170	0.02039
3170.70593	0.02019
3169.42016	0.01983
3168.13439	0.01947
3166.84862	0.01922
3165.56285	0.01906
3164.27708	0.01890
3162.99131	0.01868
3161.70555	0.01851
3160.41978	0.01848
3159.13401	0.01860
3157.84824	0.01875
3156.56247	0.01886
3155.27670	0.01895
3153.99093	0.01902
3152.70516	0.01903
3151.41939	0.01891
3150.13363	0.01868
3148.84786	0.01844
3147.56209	0.01825
3146.27632	0.01807
3144.99055	0.01787
3143.70478	0.01767
3142.41901	0.01756
3141.13324	0.01750
3139.84748	0.01739
3138.56171	0.01720
3137.27594	0.01713
3135.99017	0.01737
3134.70440	0.01789
3133.41863	0.01842
3132.13286	0.01870
3130.84709	0.01869
3129.56132	0.01857
3128.27556	0.01856
3126.98979	0.01873
3125.70402	0.01900
3124.41825	0.01918
3123.13248	0.01916
3121.84671	0.01899
3120.56094	0.01885
3119.27517	0.01882
3117.98940	0.01885
3116.70364	0.01885
3115.41787	0.01882
3114.13210	0.01876
3112.84633	0.01868
3111.56056	0.01859
3110.27479	0.01850
3108.98902	0.01838
3107.70325	0.01822
3106.41749	0.01809
3105.13172	0.01808
3103.84595	0.01821
3102.56018	0.01840
3101.27441	0.01860
3099.98864	0.01886
3098.70287	0.01923
3097.41710	0.01966
3096.13133	0.02000
3094.84557	0.02011
3093.55980	0.01988
3092.27403	0.01934
3090.98826	0.01867
3089.70249	0.01810
3088.41672	0.01781
3087.13095	0.01776
3085.84518	0.01782
3084.55942	0.01791
3083.27365	0.01796
3081.98788	0.01796
3080.70211	0.01795
3079.41634	0.01802
3078.13057	0.01823
3076.84480	0.01852
3075.55903	0.01878
3074.27326	0.01889
3072.98750	0.01880
3071.70173	0.01854
3070.41596	0.01821
3069.13019	0.01792
3067.84442	0.01778
3066.55865	0.01783
3065.27288	0.01801
3063.98711	0.01823
3062.70135	0.01843
3061.41558	0.01858
3060.12981	0.01865
3058.84404	0.01861
3057.55827	0.01847
3056.27250	0.01832
3054.98673	0.01821
3053.70096	0.01804
3052.41519	0.01770
3051.12943	0.01721
3049.84366	0.01681
3048.55789	0.01668
3047.27212	0.01687
3045.98635	0.01718
3044.70058	0.01737
3043.41481	0.01732
3042.12904	0.01713
3040.84328	0.01697
3039.55751	0.01696
3038.27174	0.01708
3036.98597	0.01723
3035.70020	0.01733
3034.41443	0.01733
3033.12866	0.01728
3031.84289	0.01730
3030.55712	0.01742
3029.27136	0.01746
3027.98559	0.01724
3026.69982	0.01685
3025.41405	0.01657
3024.12828	0.01664
3022.84251	0.01699
3021.55674	0.01738
3020.27097	0.01759
3018.98521	0.01755
3017.69944	0.01739
3016.41367	0.01725
3015.12790	0.01723
3013.84213	0.01728
3012.55636	0.01730
3011.27059	0.01720
3009.98482	0.01704
3008.69905	0.01689
3007.41329	0.01682
3006.12752	0.01680
3004.84175	0.01676
3003.55598	0.01664
3002.27021	0.01642
3000.98444	0.01613
2999.69867	0.01588
2998.41290	0.01581
2997.12714	0.01597
2995.84137	0.01627
2994.55560	0.01655
2993.26983	0.01670
2991.98406	0.01672
2990.69829	0.01667
2989.41252	0.01662
2988.12675	0.01665
2986.84098	0.01682
2985.55522	0.01710
2984.26945	0.01730
2982.98368	0.01726
2981.69791	0.01696
2980.41214	0.01665
2979.12637	0.01655
2977.84060	0.01672
2976.55483	0.01703
2975.26907	0.01730
2973.98330	0.01746
2972.69753	0.01749
2971.41176	0.01740
2970.12599	0.01722
2968.84022	0.01703
2967.55445	0.01691
2966.26868	0.01683
2964.98291	0.01678
2963.69715	0.01679
2962.41138	0.01692
2961.12561	0.01721
2959.83984	0.01765
2958.55407	0.01814
2957.26830	0.01853
2955.98253	0.01870
2954.69676	0.01869
2953.41100	0.01866
2952.12523	0.01877
2950.83946	0.01903
2949.55369	0.01928
2948.26792	0.01938
2946.98215	0.01920
2945.69638	0.01877
2944.41061	0.01826
2943.12484	0.01783
2941.83908	0.01755
2940.55331	0.01739
2939.26754	0.01723
2937.98177	0.01704
2936.69600	0.01685
2935.41023	0.01675
2934.12446	0.01682
2932.83869	0.01699
2931.55293	0.01705
2930.26716	0.01686
2928.98139	0.01646
2927.69562	0.01604
2926.40985	0.01574
2925.12408	0.01555
2923.83831	0.01540
2922.55254	0.01527
2921.26677	0.01523
2919.98101	0.01528
2918.69524	0.01534
2917.40947	0.01535
2916.12370	0.01534
2914.83793	0.01536
2913.55216	0.01552
2912.26639	0.01588
2910.98062	0.01639
2909.69486	0.01691
2908.40909	0.01726
2907.12332	0.01738
2905.83755	0.01738
2904.55178	0.01739
2903.26601	0.01749
2901.98024	0.01766
2900.69447	0.01780
2899.40870	0.01774
2898.12294	0.01744
2896.83717	0.01709
2895.55140	0.01702
2894.26563	0.01741
2892.97986	0.01805
2891.69409	0.01858
2890.40832	0.01878
2889.12255	0.01859
2887.83678	0.01812
2886.55102	0.01754
2885.26525	0.01705
2883.97948	0.01684
2882.69371	0.01694
2881.40794	0.01722
2880.12217	0.01753
2878.83640	0.01774
2877.55063	0.01778
2876.26487	0.01765
2874.97910	0.01747
2873.69333	0.01733
2872.40756	0.01724
2871.12179	0.01713
2869.83602	0.01697
2868.55025	0.01681
2867.26448	0.01664
2865.97871	0.01639
2864.69295	0.01606
2863.40718	0.01577
2862.12141	0.01563
2860.83564	0.01558
2859.54987	0.01548
2858.26410	0.01525
2856.97833	0.01494
2855.69256	0.01458
2854.40680	0.01420
2853.12103	0.01389
2851.83526	0.01380
2850.54949	0.01400
2849.26372	0.01442
2847.97795	0.01488
2846.69218	0.01526
2845.40641	0.01553
2844.12064	0.01569
2842.83488	0.01575
2841.54911	0.01573
2840.26334	0.01573
2838.97757	0.01581
2837.69180	0.01594
2836.40603	0.01602
2835.12026	0.01599
2833.83449	0.01590
2832.54873	0.01585
2831.26296	0.01582
2829.97719	0.01577
2828.69142	0.01568
2827.40565	0.01555
2826.11988	0.01538
2824.83411	0.01519
2823.54834	0.01508
2822.26257	0.01512
2820.97681	0.01527
2819.69104	0.01543
2818.40527	0.01552
2817.11950	0.01549
2815.83373	0.01536
2814.54796	0.01517
2813.26219	0.01501
2811.97642	0.01496
2810.69066	0.01503
2809.40489	0.01510
2808.11912	0.01506
2806.83335	0.01490
2805.54758	0.01476
2804.26181	0.01481
2802.97604	0.01508
2801.69027	0.01543
2800.40450	0.01566
2799.11874	0.01565
2797.83297	0.01536
2796.54720	0.01491
2795.26143	0.01452
2793.97566	0.01439
2792.68989	0.01453
2791.40412	0.01475
2790.11835	0.01484
2788.83259	0.01471
2787.54682	0.01447
2786.26105	0.01424
2784.97528	0.01413
2783.68951	0.01416
2782.40374	0.01428
2781.11797	0.01439
2779.83220	0.01441
2778.54643	0.01437
2777.26067	0.01435
2775.97490	0.01439
2774.68913	0.01451
2773.40336	0.01470
2772.11759	0.01490
2770.83182	0.01501
2769.54605	0.01495
2768.26028	0.01475
2766.97452	0.01453
2765.68875	0.01437
2764.40298	0.01426
2763.11721	0.01414
2761.83144	0.01402
2760.54567	0.01396
2759.25990	0.01388
2757.97413	0.01371
2756.68836	0.01349
2755.40260	0.01341
2754.11683	0.01355
2752.83106	0.01381
2751.54529	0.01399
2750.25952	0.01401
2748.97375	0.01397
2747.68798	0.01394
2746.40221	0.01391
2745.11645	0.01387
2743.83068	0.01385
2742.54491	0.01392
2741.25914	0.01403
2739.97337	0.01405
2738.68760	0.01391
2737.40183	0.01362
2736.11606	0.01332
2734.83029	0.01313
2733.54453	0.01309
2732.25876	0.01317
2730.97299	0.01330
2729.68722	0.01347
2728.40145	0.01362
2727.11568	0.01370
2725.82991	0.01370
2724.54414	0.01365
2723.25838	0.01362
2721.97261	0.01363
2720.68684	0.01369
2719.40107	0.01384
2718.11530	0.01403
2716.82953	0.01415
2715.54376	0.01408
2714.25799	0.01383
2712.97222	0.01357
2711.68646	0.01349
2710.40069	0.01355
2709.11492	0.01361
2707.82915	0.01353
2706.54338	0.01333
2705.25761	0.01315
2703.97184	0.01308
2702.68607	0.01310
2701.40031	0.01313
2700.11454	0.01319
2698.82877	0.01330
2697.54300	0.01345
2696.25723	0.01356
2694.97146	0.01357
2693.68569	0.01346
2692.39992	0.01327
2691.11415	0.01303
2689.82839	0.01279
2688.54262	0.01263
2687.25685	0.01265
2685.97108	0.01284
2684.68531	0.01306
2683.39954	0.01312
2682.11377	0.01303
2680.82800	0.01290
2679.54224	0.01291
2678.25647	0.01307
2676.97070	0.01328
2675.68493	0.01342
2674.39916	0.01345
2673.11339	0.01342
2671.82762	0.01342
2670.54185	0.01340
2669.25608	0.01326
2667.97032	0.01301
2666.68455	0.01278
2665.39878	0.01269
2664.11301	0.01275
2662.82724	0.01286
2661.54147	0.01298
2660.25570	0.01310
2658.96993	0.01321
2657.68417	0.01330
2656.39840	0.01332
2655.11263	0.01327
2653.82686	0.01318
2652.54109	0.01311
2651.25532	0.01315
2649.96955	0.01334
2648.68378	0.01362
2647.39801	0.01387
2646.11225	0.01398
2644.82648	0.01390
2643.54071	0.01373
2642.25494	0.01359
2640.96917	0.01355
2639.68340	0.01354
2638.39763	0.01342
2637.11186	0.01313
2635.82609	0.01273
2634.54033	0.01232
2633.25456	0.01195
2631.96879	0.01176
2630.68302	0.01187
2629.39725	0.01221
2628.11148	0.01251
2626.82571	0.01251
2625.53994	0.01224
2624.25418	0.01199
2622.96841	0.01204
2621.68264	0.01239
2620.39687	0.01274
2619.11110	0.01279
2617.82533	0.01251
2616.53956	0.01211
2615.25379	0.01180
2613.96802	0.01158
2612.68226	0.01142
2611.39649	0.01129
2610.11072	0.01125
2608.82495	0.01138
2607.53918	0.01176
2606.25341	0.01228
2604.96764	0.01263
2603.68187	0.01255
2602.39611	0.01214
2601.11034	0.01176
2599.82457	0.01168
2598.53880	0.01177
2597.25303	0.01175
2595.96726	0.01144
2594.68149	0.01089
2593.39572	0.01032
2592.10995	0.00994
2590.82419	0.00990
2589.53842	0.01017
2588.25265	0.01056
2586.96688	0.01088
2585.68111	0.01098
2584.39534	0.01082
2583.10957	0.01056
2581.82380	0.01047
2580.53804	0.01070
2579.25227	0.01118
2577.96650	0.01166
2576.68073	0.01199
2575.39496	0.01209
2574.10919	0.01186
2572.82342	0.01127
2571.53765	0.01057
2570.25188	0.01009
2568.96612	0.00994
2567.68035	0.00993
2566.39458	0.00991
2565.10881	0.00992
2563.82304	0.01000
2562.53727	0.01007
2561.25150	0.01006
2559.96573	0.01005
2558.67997	0.01018
2557.39420	0.01036
2556.10843	0.01037
2554.82266	0.01008
2553.53689	0.00965
2552.25112	0.00939
2550.96535	0.00947
2549.67958	0.00978
2548.39381	0.01010
2547.10805	0.01036
2545.82228	0.01053
2544.53651	0.01056
2543.25074	0.01040
2541.96497	0.01013
2540.67920	0.00999
2539.39343	0.01011
2538.10766	0.01042
2536.82190	0.01074
2535.53613	0.01100
2534.25036	0.01127
2532.96459	0.01155
2531.67882	0.01168
2530.39305	0.01154
2529.10728	0.01121
2527.82151	0.01091
2526.53574	0.01080
2525.24998	0.01081
2523.96421	0.01079
2522.67844	0.01066
2521.39267	0.01048
2520.10690	0.01043
2518.82113	0.01054
2517.53536	0.01067
2516.24959	0.01060
2514.96383	0.01029
2513.67806	0.00990
2512.39229	0.00965
2511.10652	0.00963
2509.82075	0.00978
2508.53498	0.00998
2507.24921	0.01020
2505.96344	0.01053
2504.67767	0.01094
2503.39191	0.01120
2502.10614	0.01111
2500.82037	0.01072
2499.53460	0.01029
2498.24883	0.00992
2496.96306	0.00957
2495.67729	0.00923
2494.39152	0.00902
2493.10576	0.00899
2491.81999	0.00904
2490.53422	0.00902
2489.24845	0.00886
2487.96268	0.00865
2486.67691	0.00854
2485.39114	0.00869
2484.10537	0.00915
2482.81960	0.00978
2481.53384	0.01031
2480.24807	0.01048
2478.96230	0.01032
2477.67653	0.01006
2476.39076	0.00991
2475.10499	0.00995
2473.81922	0.01008
2472.53345	0.01024
2471.24769	0.01042
2469.96192	0.01065
2468.67615	0.01087
2467.39038	0.01098
2466.10461	0.01090
2464.81884	0.01061
2463.53307	0.01024
2462.24730	0.00991
2460.96153	0.00970
2459.67577	0.00957
2458.39000	0.00951
2457.10423	0.00961
2455.81846	0.00989
2454.53269	0.01026
2453.24692	0.01055
2451.96115	0.01068
2450.67538	0.01066
2449.38962	0.01052
2448.10385	0.01028
2446.81808	0.01001
2445.53231	0.00982
2444.24654	0.00975
2442.96077	0.00968
2441.67500	0.00958
2440.38923	0.00957
2439.10346	0.00975
2437.81770	0.00999
2436.53193	0.01007
2435.24616	0.00998
2433.96039	0.00989
2432.67462	0.00994
2431.38885	0.01004
2430.10308	0.01006
2428.81731	0.00996
2427.53155	0.00976
2426.24578	0.00949
2424.96001	0.00921
2423.67424	0.00902
2422.38847	0.00897
2421.10270	0.00900
2419.81693	0.00905
2418.53116	0.00912
2417.24539	0.00926
2415.95963	0.00948
2414.67386	0.00969
2413.38809	0.00976
2412.10232	0.00970
2410.81655	0.00965
2409.53078	0.00972
2408.24501	0.00985
2406.95924	0.00987
2405.67347	0.00970
2404.38771	0.00946
2403.10194	0.00928
2401.81617	0.00917
2400.53040	0.00907
2399.24463	0.00947
2397.95886	0.00972
2396.67309	0.00974
2395.38732	0.00974
2394.10156	0.00974
2392.81579	0.00963
2391.53002	0.00930
2390.24425	0.00880
2388.95848	0.00825
2387.67271	0.00779
2386.38694	0.00749
2385.10117	0.00735
2383.81540	0.00736
2382.52964	0.00745
2381.24387	0.00755
2379.95810	0.00765
2378.67233	0.00757
2377.38656	0.00709
2376.10079	0.00660
2374.81502	0.00638
2373.52925	0.00638
2372.24349	0.00658
2370.95772	0.00661
2369.67195	0.00677
2368.38618	0.00692
2367.10041	0.00643
2365.81464	0.00576
2364.52887	0.00571
2363.24310	0.00548
2361.95733	0.00406
2360.67157	0.00230
2359.38580	0.00179
2358.10003	0.00220
2356.81426	0.00273
2355.52849	0.00326
2354.24272	0.00368
2352.95695	0.00393
2351.67118	0.00304
2350.38542	0.00052
2349.09965	-0.00092
2347.81388	0.00131
2346.52811	0.00509
2345.24234	0.00691
2343.95657	0.00678
2342.67080	0.00665
2341.38503	0.00656
2340.09926	0.00587
2338.81350	0.00509
2337.52773	0.00451
2336.24196	0.00456
2334.95619	0.00488
2333.67042	0.00524
2332.38465	0.00608
2331.09888	0.00676
2329.81311	0.00681
2328.52735	0.00678
2327.24158	0.00637
2325.95581	0.00574
2324.67004	0.00571
2323.38427	0.00604
2322.09850	0.00659
2320.81273	0.00748
2319.52696	0.00800
2318.24119	0.00785
2316.95543	0.00759
2315.66966	0.00765
2314.38389	0.00798
2313.09812	0.00820
2311.81235	0.00827
2310.52658	0.00822
2309.24081	0.00808
2307.95504	0.00803
2306.66928	0.00803
2305.38351	0.00792
2304.09774	0.00774
2302.81197	0.00769
2301.52620	0.00782
2300.24043	0.00795
2298.95466	0.00803
2297.66889	0.00811
2296.38312	0.00826
2295.09736	0.00846
2293.81159	0.00862
2292.52582	0.00865
2291.24005	0.00855
2289.95428	0.00835
2288.66851	0.00817
2287.38274	0.00815
2286.09697	0.00838
2284.81121	0.00870
2283.52544	0.00893
2282.23967	0.00901
2280.95390	0.00900
2279.66813	0.00897
2278.38236	0.00885
2277.09659	0.00854
2275.81082	0.00805
2274.52505	0.00755
2273.23929	0.00727
2271.95352	0.00723
2270.66775	0.00732
2269.38198	0.00740
2268.09621	0.00745
2266.81044	0.00742
2265.52467	0.00726
2264.23890	0.00687
2262.95314	0.00629
2261.66737	0.00566
2260.38160	0.00518
2259.09583	0.00499
2257.81006	0.00521
2256.52429	0.00577
2255.23852	0.00643
2253.95275	0.00691
2252.66698	0.00710
2251.38122	0.00708
2250.09545	0.00709
2248.80968	0.00734
2247.52391	0.00762
2246.23814	0.00814
2244.95237	0.00857
2243.66660	0.00851
2242.38083	0.00792
2241.09507	0.00721
2239.80930	0.00685
2238.52353	0.00689
2237.23776	0.00707
2235.95199	0.00725
2234.66622	0.00754
2233.38045	0.00796
2232.09468	0.00825
2230.80891	0.00813
2229.52315	0.00772
2228.23738	0.00733
2226.95161	0.00719
2225.66584	0.00723
2224.38007	0.00730
2223.09430	0.00744
2221.80853	0.00783
2220.52276	0.00834
2219.23700	0.00851
2217.95123	0.00817
2216.66546	0.00767
2215.37969	0.00733
2214.09392	0.00696
2212.80815	0.00630
2211.52238	0.00553
2210.23661	0.00502
2208.95084	0.00492
2207.66508	0.00526
2206.37931	0.00614
2205.09354	0.00743
2203.80777	0.00843
2202.52200	0.00836
2201.23623	0.00715
2199.95046	0.00563
2198.66469	0.00475
2197.37893	0.00483
2196.09316	0.00547
2194.80739	0.00592
2193.52162	0.00570
2192.23585	0.00493
2190.95008	0.00420
2189.66431	0.00399
2188.37854	0.00422
2187.09277	0.00455
2185.80701	0.00496
2184.52124	0.00567
2183.23547	0.00670
2181.94970	0.00763
2180.66393	0.00805
2179.37816	0.00789
2178.09239	0.00728
2176.80662	0.00631
2175.52085	0.00505
2174.23509	0.00386
2172.94932	0.00340
2171.66355	0.00405
2170.37778	0.00531
2169.09201	0.00622
2167.80624	0.00636
2166.52047	0.00619
2165.23470	0.00613
2163.94894	0.00602
2162.66317	0.00552
2161.37740	0.00473
2160.09163	0.00395
2158.80586	0.00323
2157.52009	0.00242
2156.23432	0.00158
2154.94855	0.00111
2153.66278	0.00140
2152.37702	0.00245
2151.09125	0.00374
2149.80548	0.00453
2148.51971	0.00436
2147.23394	0.00338
2145.94817	0.00226
2144.66240	0.00165
2143.37663	0.00176
2142.09087	0.00228
2140.80510	0.00283
2139.51933	0.00326
2138.23356	0.00352
2136.94779	0.00365
2135.66202	0.00381
2134.37625	0.00409
2133.09048	0.00435
2131.80471	0.00439
2130.51895	0.00425
2129.23318	0.00418
2127.94741	0.00435
2126.66164	0.00467
2125.37587	0.00501
2124.09010	0.00531
2122.80433	0.00556
2121.51856	0.00565
2120.23280	0.00553
2118.94703	0.00521
2117.66126	0.00482
2116.37549	0.00454
2115.08972	0.00450
2113.80395	0.00473
2112.51818	0.00515
2111.23241	0.00554
2109.94664	0.00573
2108.66088	0.00569
2107.37511	0.00558
2106.08934	0.00561
2104.80357	0.00581
2103.51780	0.00596
2102.23203	0.00581
2100.94626	0.00540
2099.66049	0.00573
2098.37473	0.00607
2097.08896	0.00637
2095.80319	0.00657
2094.51742	0.00652
2093.23165	0.00618
2091.94588	0.00569
2090.66011	0.00523
2089.37434	0.00496
2088.08857	0.00499
2086.80281	0.00525
2085.51704	0.00554
2084.23127	0.00563
2082.94550	0.00547
2081.65973	0.00526
2080.37396	0.00522
2079.08819	0.00537
2077.80242	0.00561
2076.51666	0.00591
2075.23089	0.00631
2073.94512	0.00671
2072.65935	0.00680
2071.37358	0.00635
2070.08781	0.00553
2068.80204	0.00480
2067.51627	0.00445
2066.23050	0.00433
2064.94474	0.00413
2063.65897	0.00373
2062.37320	0.00323
2061.08743	0.00280
2059.80166	0.00247
2058.51589	0.00223
2057.23012	0.00214
2055.94435	0.00236
2054.65859	0.00302
2053.37282	0.00399
2052.08705	0.00479
2050.80128	0.00509
2049.51551	0.00496
2048.22974	0.00474
2046.94397	0.00464
2045.65820	0.00448
2044.37243	0.00405
2043.08667	0.00340
2041.80090	0.00280
2040.51513	0.00246
2039.22936	0.00231
2037.94359	0.00214
2036.65782	0.00183
2035.37205	0.00139
2034.08628	0.00095
2032.80052	0.00070
2031.51475	0.00094
2030.22898	0.00171
2028.94321	0.00271
2027.65744	0.00353
2026.37167	0.00403
2025.08590	0.00425
2023.80013	0.00424
2022.51436	0.00398
2021.22860	0.00352
2019.94283	0.00292
2018.65706	0.00233
2017.37129	0.00198
2016.08552	0.00215
2014.79975	0.00299
2013.51398	0.00440
2012.22821	0.00589
2010.94245	0.00683
2009.65668	0.00694
2008.37091	0.00650
2007.08514	0.00592
2005.79937	0.00529
2004.51360	0.00448
2003.22783	0.00367
2001.94206	0.00336
2000.65629	0.00372
1999.37053	0.00424
1998.08476	0.00419
1996.79899	0.00331
1995.51322	0.00209
1994.22745	0.00120
1992.94168	0.00101
1991.65591	0.00147
1990.37014	0.00229
1989.08438	0.00310
1987.79861	0.00369
1986.51284	0.00406
1985.22707	0.00436
1983.94130	0.00475
1982.65553	0.00517
1981.36976	0.00542
1980.08399	0.00524
1978.79822	0.00465
1977.51246	0.00398
1976.22669	0.00371
1974.94092	0.00402
1973.65515	0.00467
1972.36938	0.00516
1971.08361	0.00516
1969.79784	0.00466
1968.51207	0.00396
1967.22631	0.00341
1965.94054	0.00317
1964.65477	0.00314
1963.36900	0.00321
1962.08323	0.00338
1960.79746	0.00366
1959.51169	0.00398
1958.22592	0.00421
1956.94015	0.00435
1955.65439	0.00455
1954.36862	0.00493
1953.08285	0.00547
1951.79708	0.00599
1950.51131	0.00636
1949.22554	0.00645
1947.93977	0.00620
1946.65400	0.00566
1945.36823	0.00502
1944.08247	0.00451
1942.79670	0.00421
1941.51093	0.00410
1940.22516	0.00407
1938.93939	0.00413
1937.65362	0.00437
1936.36785	0.00480
1935.08208	0.00528
1933.79632	0.00557
1932.51055	0.00553
1931.22478	0.00523
1929.93901	0.00488
1928.65324	0.00456
1927.36747	0.00423
1926.08170	0.00385
1924.79593	0.00366
1923.51016	0.00396
1922.22440	0.00472
1920.93863	0.00542
1919.65286	0.00552
1918.36709	0.00518
1917.08132	0.00508
1915.79555	0.00556
1914.50978	0.00637
1913.22401	0.00707
1911.93825	0.00737
1910.65248	0.00724
1909.36671	0.00684
1908.08094	0.00639
1906.79517	0.00601
1905.50940	0.00573
1904.22363	0.00560
1902.93786	0.00565
1901.65209	0.00581
1900.36633	0.00596
1899.08056	0.00599
1897.79479	0.00589
1896.50902	0.00575
1895.22325	0.00565
1893.93748	0.00558
1892.65171	0.00548
1891.36594	0.00537
1890.08018	0.00543
1888.79441	0.00572
1887.50864	0.00607
1886.22287	0.00622
1884.93710	0.00616
1883.65133	0.00602
1882.36556	0.00591
1881.07979	0.00583
1879.79402	0.00578
1878.50826	0.00576
1877.22249	0.00578
1875.93672	0.00580
1874.65095	0.00585
1873.36518	0.00595
1872.07941	0.00606
1870.79364	0.00610
1869.50787	0.00610
1868.22211	0.00614
1866.93634	0.00622
1865.65057	0.00626
1864.36480	0.00625
1863.07903	0.00626
1861.79326	0.00632
1860.50749	0.00636
1859.22172	0.00631
1857.93595	0.00612
1856.65019	0.00581
1855.36442	0.00550
1854.07865	0.00529
1852.79288	0.00523
1851.50711	0.00526
1850.22134	0.00536
1848.93557	0.00562
1847.64980	0.00602
1846.36404	0.00628
1845.07827	0.00625
1843.79250	0.00620
1842.50673	0.00627
1841.22096	0.00630
1839.93519	0.00619
1838.64942	0.00609
1837.36365	0.00613
1836.07788	0.00622
1834.79212	0.00628
1833.50635	0.00624
1832.22058	0.00602
1830.93481	0.00573
1829.64904	0.00563
1828.36327	0.00581
1827.07750	0.00599
1825.79173	0.00605
1824.50597	0.00616
1823.22020	0.00637
1821.93443	0.00648
1820.64866	0.00641
1819.36289	0.00621
1818.07712	0.00600
1816.79135	0.00585
1815.50558	0.00577
1814.21981	0.00574
1812.93405	0.00570
1811.64828	0.00572
1810.36251	0.00587
1809.07674	0.00607
1807.79097	0.00622
1806.50520	0.00626
1805.21943	0.00625
1803.93366	0.00620
1802.64790	0.00612
1801.36213	0.00608
1800.07636	0.00615
1798.79059	0.00636
1797.50482	0.00662
1796.21905	0.00685
1794.93328	0.00685
1793.64751	0.00661
1792.36174	0.00644
1791.07598	0.00656
1789.79021	0.00678
1788.50444	0.00677
1787.21867	0.00654
1785.93290	0.00631
1784.64713	0.00629
1783.36136	0.00644
1782.07559	0.00653
1780.78983	0.00651
1779.50406	0.00649
1778.21829	0.00657
1776.93252	0.00670
1775.64675	0.00675
1774.36098	0.00654
1773.07521	0.00630
1771.78944	0.00638
1770.50367	0.00659
1769.21791	0.00657
1767.93214	0.00644
1766.64637	0.00658
1765.36060	0.00686
1764.07483	0.00687
1762.78906	0.00664
1761.50329	0.00657
1760.21752	0.00675
1758.93176	0.00684
1757.64599	0.00674
1756.36022	0.00673
1755.07445	0.00691
1753.78868	0.00690
1752.50291	0.00659
1751.21714	0.00631
1749.93137	0.00634
1748.64560	0.00649
1747.35984	0.00650
1746.07407	0.00640
1744.78830	0.00630
1743.50253	0.00620
1742.21676	0.00601
1740.93099	0.00579
1739.64522	0.00589
1738.35945	0.00648
1737.07369	0.00693
1735.78792	0.00664
1734.50215	0.00613
1733.21638	0.00622
1731.93061	0.00674
1730.64484	0.00693
1729.35907	0.00668
1728.07330	0.00646
1726.78753	0.00643
1725.50177	0.00643
1724.21600	0.00650
1722.93023	0.00679
1721.64446	0.00724
1720.35869	0.00742
1719.07292	0.00716
1717.78715	0.00694
1716.50138	0.00715
1715.21561	0.00752
1713.92985	0.00767
1712.64408	0.00761
1711.35831	0.00758
1710.07254	0.00769
1708.78677	0.00781
1707.50100	0.00783
1706.21523	0.00790
1704.92946	0.00835
1703.64370	0.00891
1702.35793	0.00893
1701.07216	0.00868
1699.78639	0.00912
1698.50062	0.00990
1697.21485	0.00991
1695.92908	0.00933
1694.64331	0.00925
1693.35754	0.00962
1692.07178	0.00963
1690.78601	0.00942
1689.50024	0.00964
1688.21447	0.01019
1686.92870	0.01027
1685.64293	0.00973
1684.35716	0.00948
1683.07139	0.01001
1681.78563	0.01060
1680.49986	0.01065
1679.21409	0.01045
1677.92832	0.01029
1676.64255	0.01015
1675.35678	0.01025
1674.07101	0.01076
1672.78524	0.01126
1671.49947	0.01124
1670.21371	0.01094
1668.92794	0.01089
1667.64217	0.01124
1666.35640	0.01154
1665.07063	0.01142
1663.78486	0.01105
1662.49909	0.01086
1661.21332	0.01099
1659.92756	0.01131
1658.64179	0.01183
1657.35602	0.01253
1656.07025	0.01287
1654.78448	0.01237
1653.49871	0.01181
1652.21294	0.01238
1650.92717	0.01368
1649.64140	0.01420
1648.35564	0.01353
1647.06987	0.01265
1645.78410	0.01243
1644.49833	0.01273
1643.21256	0.01296
1641.92679	0.01298
1640.64102	0.01307
1639.35525	0.01333
1638.06949	0.01337
1636.78372	0.01309
1635.49795	0.01299
1634.21218	0.01340
1632.92641	0.01388
1631.64064	0.01391
1630.35487	0.01356
1629.06910	0.01324
1627.78333	0.01318
1626.49757	0.01324
1625.21180	0.01315
1623.92603	0.01295
1622.64026	0.01298
1621.35449	0.01335
1620.06872	0.01361
1618.78295	0.01334
1617.49718	0.01284
1616.21142	0.01278
1614.92565	0.01316
1613.63988	0.01338
1612.35411	0.01316
1611.06834	0.01286
1609.78257	0.01278
1608.49680	0.01287
1607.21103	0.01299
1605.92526	0.01304
1604.63950	0.01300
1603.35373	0.01295
1602.06796	0.01293
1600.78219	0.01295
1599.49642	0.01300
1598.21065	0.01304
1596.92488	0.01307
1595.63911	0.01311
1594.35335	0.01316
1593.06758	0.01321
1591.78181	0.01325
1590.49604	0.01330
1589.21027	0.01338
1587.92450	0.01351
1586.63873	0.01366
1585.35296	0.01378
1584.06719	0.01385
1582.78143	0.01392
1581.49566	0.01414
1580.20989	0.01455
1578.92412	0.01479
1577.63835	0.01462
1576.35258	0.01452
1575.06681	0.01506
1573.78104	0.01585
1572.49528	0.01606
1571.20951	0.01564
1569.92374	0.01524
1568.63797	0.01531
1567.35220	0.01560
1566.06643	0.01579
1564.78066	0.01610
1563.49489	0.01671
1562.20912	0.01715
1560.92336	0.01694
1559.63759	0.01656
1558.35182	0.01683
1557.06605	0.01746
1555.78028	0.01753
1554.49451	0.01703
1553.20874	0.01663
1551.92297	0.01652
1550.63721	0.01646
1549.35144	0.01646
1548.06567	0.01661
1546.77990	0.01684
1545.49413	0.01713
1544.20836	0.01751
1542.92259	0.01773
1541.63682	0.01747
1540.35105	0.01698
1539.06529	0.01695
1537.77952	0.01744
1536.49375	0.01766
1535.20798	0.01719
1533.92221	0.01656
1532.63644	0.01643
1531.35067	0.01671
1530.06490	0.01692
1528.77914	0.01693
1527.49337	0.01695
1526.20760	0.01723
1524.92183	0.01769
1523.63606	0.01795
1522.35029	0.01793
1521.06452	0.01810
1519.77875	0.01865
1518.49298	0.01910
1517.20722	0.01922
1515.92145	0.01935
1514.63568	0.01965
1513.34991	0.02004
1512.06414	0.02063
1510.77837	0.02145
1509.49260	0.02210
1508.20683	0.02227
1506.92107	0.02236
1505.63530	0.02300
1504.34953	0.02398
1503.06376	0.02459
1501.77799	0.02469
1500.49222	0.02473
1499.20645	0.02490
1497.92068	0.02505
1496.63491	0.02521
1495.34915	0.02559
1494.06338	0.02608
1492.77761	0.02633
1491.49184	0.02633
1490.20607	0.02641
1488.92030	0.02672
1487.63453	0.02710
1486.34876	0.02745
1485.06299	0.02776
1483.77723	0.02806
1482.49146	0.02837
1481.20569	0.02878
1479.91992	0.02932
1478.63415	0.02989
1477.34838	0.03044
1476.06261	0.03092
1474.77684	0.03116
1473.49108	0.03121
1472.20531	0.03136
1470.91954	0.03175
1469.63377	0.03212
1468.34800	0.03218
1467.06223	0.03195
1465.77646	0.03172
1464.49069	0.03178
1463.20492	0.03218
1461.91916	0.03276
1460.63339	0.03324
1459.34762	0.03337
1458.06185	0.03326
1456.77608	0.03345
1455.49031	0.03412
1454.20454	0.03472
1452.91877	0.03482
1451.63301	0.03466
1450.34724	0.03457
1449.06147	0.03459
1447.77570	0.03467
1446.48993	0.03479
1445.20416	0.03483
1443.91839	0.03471
1442.63262	0.03458
1441.34685	0.03461
1440.06109	0.03467
1438.77532	0.03447
1437.48955	0.03407
1436.20378	0.03394
1434.91801	0.03417
1433.63224	0.03440
1432.34647	0.03442
1431.06070	0.03441
1429.77494	0.03459
1428.48917	0.03496
1427.20340	0.03535
1425.91763	0.03573
1424.63186	0.03622
1423.34609	0.03689
1422.06032	0.03746
1420.77455	0.03769
1419.48878	0.03784
1418.20302	0.03826
1416.91725	0.03880
1415.63148	0.03908
1414.34571	0.03909
1413.05994	0.03903
1411.77417	0.03902
1410.48840	0.03902
1409.20263	0.03897
1407.91687	0.03878
1406.63110	0.03844
1405.34533	0.03805
1404.05956	0.03777
1402.77379	0.03752
1401.48802	0.03709
1400.20225	0.03645
1398.91648	0.03576
1397.63071	0.03508
1396.34495	0.03429
1395.05918	0.03342
1393.77341	0.03270
1392.48764	0.03214
1391.20187	0.03156
1389.91610	0.03080
1388.63033	0.02994
1387.34456	0.02921
1386.05880	0.02868
1384.77303	0.02820
1383.48726	0.02763
1382.20149	0.02700
1380.91572	0.02639
1379.62995	0.02578
1378.34418	0.02516
1377.05841	0.02450
1375.77264	0.02375
1374.48688	0.02298
1373.20111	0.02228
1371.91534	0.02162
1370.62957	0.02094
1369.34380	0.02025
1368.05803	0.01965
1366.77226	0.01916
1365.48649	0.01869
1364.20073	0.01818
1362.91496	0.01768
1361.62919	0.01725
1360.34342	0.01687
1359.05765	0.01649
1357.77188	0.01610
1356.48611	0.01574
1355.20034	0.01543
1353.91457	0.01515
1352.62881	0.01489
1351.34304	0.01463
1350.05727	0.01439
1348.77150	0.01415
1347.48573	0.01392
1346.19996	0.01369
1344.91419	0.01351
1343.62842	0.01339
1342.34266	0.01327
1341.05689	0.01311
1339.77112	0.01293
1338.48535	0.01277
1337.19958	0.01261
1335.91381	0.01241
1334.62804	0.01217
1333.34227	0.01193
1332.05650	0.01175
1330.77074	0.01162
1329.48497	0.01151
1328.19920	0.01139
1326.91343	0.01125
1325.62766	0.01111
1324.34189	0.01100
1323.05612	0.01094
1321.77035	0.01087
1320.48459	0.01075
1319.19882	0.01059
1317.91305	0.01044
1316.62728	0.01033
1315.34151	0.01028
1314.05574	0.01027
1312.76997	0.01024
1311.48420	0.01018
1310.19843	0.01010
1308.91267	0.01005
1307.62690	0.01001
1306.34113	0.00995
1305.05536	0.00983
1303.76959	0.00966
1302.48382	0.00949
1301.19805	0.00936
1299.91228	0.00930
1298.62652	0.00928
1297.34075	0.00928
1296.05498	0.00928
1294.76921	0.00927
1293.48344	0.00924
1292.19767	0.00919
1290.91190	0.00913
1289.62613	0.00905
1288.34036	0.00898
1287.05460	0.00893
1285.76883	0.00890
1284.48306	0.00889
1283.19729	0.00890
1281.91152	0.00889
1280.62575	0.00884
1279.33998	0.00877
1278.05421	0.00870
1276.76845	0.00861
1275.48268	0.00852
1274.19691	0.00840
1272.91114	0.00830
1271.62537	0.00823
1270.33960	0.00817
1269.05383	0.00812
1267.76806	0.00807
1266.48229	0.00804
1265.19653	0.00803
1263.91076	0.00802
1262.62499	0.00799
1261.33922	0.00793
1260.05345	0.00785
1258.76768	0.00780
1257.48191	0.00778
1256.19614	0.00782
1254.91037	0.00787
1253.62461	0.00791
1252.33884	0.00789
1251.05307	0.00783
1249.76730	0.00775
1248.48153	0.00767
1247.19576	0.00763
1245.90999	0.00761
1244.62422	0.00761
1243.33846	0.00763
1242.05269	0.00767
1240.76692	0.00771
1239.48115	0.00774
1238.19538	0.00773
1236.90961	0.00770
1235.62384	0.00770
1234.33807	0.00772
1233.05230	0.00773
1231.76654	0.00768
1230.48077	0.00756
1229.19500	0.00739
1227.90923	0.00725
1226.62346	0.00716
1225.33769	0.00712
1224.05192	0.00709
1222.76615	0.00705
1221.48039	0.00701
1220.19462	0.00700
1218.90885	0.00705
1217.62308	0.00714
1216.33731	0.00725
1215.05154	0.00733
1213.76577	0.00736
1212.48000	0.00730
1211.19423	0.00719
1209.90847	0.00706
1208.62270	0.00698
1207.33693	0.00696
1206.05116	0.00701
1204.76539	0.00709
1203.47962	0.00717
1202.19385	0.00724
1200.90808	0.00727
1199.62232	0.00724
1198.33655	0.00728
1197.05078	0.00729
1195.76501	0.00723
1194.47924	0.00711
1193.19347	0.00700
1191.90770	0.00696
1190.62193	0.00701
1189.33616	0.00711
1188.05040	0.00719
1186.76463	0.00724
1185.47886	0.00724
1184.19309	0.00722
1182.90732	0.00720
1181.62155	0.00720
1180.33578	0.00723
1179.05001	0.00726
1177.76425	0.00726
1176.47848	0.00722
1175.19271	0.00717
1173.90694	0.00715
1172.62117	0.00719
1171.33540	0.00726
1170.04963	0.00734
1168.76386	0.00743
1167.47809	0.00757
1166.19233	0.00774
1164.90656	0.00788
1163.62079	0.00795
1162.33502	0.00796
1161.04925	0.00795
1159.76348	0.00790
1158.47771	0.00784
1157.19194	0.00782
1155.90618	0.00789
1154.62041	0.00804
1153.33464	0.00822
1152.04887	0.00841
1150.76310	0.00862
1149.47733	0.00885
1148.19156	0.00910
1146.90579	0.00935
1145.62002	0.00963
1144.33426	0.00993
1143.04849	0.01022
1141.76272	0.01048
1140.47695	0.01070
1139.19118	0.01094
1137.90541	0.01127
1136.61964	0.01175
1135.33387	0.01237
1134.04811	0.01308
1132.76234	0.01381
1131.47657	0.01453
1130.19080	0.01529
1128.90503	0.01617
1127.61926	0.01720
1126.33349	0.01833
1125.04772	0.01953
1123.76195	0.02080
1122.47619	0.02215
1121.19042	0.02357
1119.90465	0.02498
1118.61888	0.02635
1117.33311	0.02773
1116.04734	0.02916
1114.76157	0.03067
1113.47580	0.03219
1112.19004	0.03368
1110.90427	0.03508
1109.61850	0.03638
1108.33273	0.03759
1107.04696	0.03875
1105.76119	0.03991
1104.47542	0.04108
1103.18965	0.04227
1101.90388	0.04344
1100.61812	0.04453
1099.33235	0.04551
1098.04658	0.04639
1096.76081	0.04723
1095.47504	0.04806
1094.18927	0.04889
1092.90350	0.04968
1091.61773	0.05041
1090.33197	0.05109
1089.04620	0.05175
1087.76043	0.05241
1086.47466	0.05305
1085.18889	0.05370
1083.90312	0.05440
1082.61735	0.05516
1081.33158	0.05600
1080.04581	0.05690
1078.76005	0.05784
1077.47428	0.05886
1076.18851	0.05991
1074.90274	0.06096
1073.61697	0.06200
1072.33120	0.06306
1071.04543	0.06417
1069.75966	0.06534
1068.47390	0.06655
1067.18813	0.06779
1065.90236	0.06911
1064.61659	0.07050
1063.33082	0.07189
1062.04505	0.07324
1060.75928	0.07453
1059.47351	0.07579
1058.18774	0.07701
1056.90198	0.07817
1055.61621	0.07930
1054.33044	0.08041
1053.04467	0.08154
1051.75890	0.08268
1050.47313	0.08385
1049.18736	0.08505
1047.90159	0.08629
1046.61583	0.08754
1045.33006	0.08879
1044.04429	0.09007
1042.75852	0.09142
1041.47275	0.09282
1040.18698	0.09420
1038.90121	0.09551
1037.61544	0.09674
1036.32967	0.09792
1035.04391	0.09906
1033.75814	0.10018
1032.47237	0.10122
1031.18660	0.10211
1029.90083	0.10280
1028.61506	0.10333
1027.32929	0.10376
1026.04352	0.10410
1024.75775	0.10431
1023.47199	0.10432
1022.18622	0.10415
1020.90045	0.10386
1019.61468	0.10349
1018.32891	0.10304
1017.04314	0.10243
1015.75737	0.10161
1014.47160	0.10061
1013.18584	0.09945
1011.90007	0.09816
1010.61430	0.09671
1009.32853	0.09507
1008.04276	0.09321
1006.75699	0.09117
1005.47122	0.08900
1004.18545	0.08672
1002.89968	0.08434
1001.61392	0.08184
1000.32815	0.07925
999.04238	0.07661
997.75661	0.07400
996.47084	0.07144
995.18507	0.06890
993.89930	0.06637
992.61353	0.06388
991.32777	0.06150
990.04200	0.05924
988.75623	0.05712
987.47046	0.05512
986.18469	0.05322
984.89892	0.05140
983.61315	0.04968
982.32738	0.04803
981.04161	0.04644
979.75585	0.04486
978.47008	0.04332
977.18431	0.04190
975.89854	0.04066
974.61277	0.03960
973.32700	0.03871
972.04123	0.03801
970.75546	0.03754
969.46970	0.03732
968.18393	0.03731
966.89816	0.03747
965.61239	0.03775
964.32662	0.03812
963.04085	0.03854
961.75508	0.03892
960.46931	0.03920
959.18354	0.03930
957.89778	0.03913
956.61201	0.03865
955.32624	0.03786
954.04047	0.03685
952.75470	0.03580
951.46893	0.03480
950.18316	0.03392
948.89739	0.03313
947.61163	0.03238
946.32586	0.03162
945.04009	0.03083
943.75432	0.03002
942.46855	0.02921
941.18278	0.02843
939.89701	0.02775
938.61124	0.02715
937.32547	0.02657
936.03971	0.02599
934.75394	0.02542
933.46817	0.02492
932.18240	0.02451
930.89663	0.02415
929.61086	0.02380
928.32509	0.02345
927.03932	0.02311
925.75356	0.02276
924.46779	0.02238
923.18202	0.02199
921.89625	0.02167
920.61048	0.02146
919.32471	0.02129
918.03894	0.02107
916.75317	0.02080
915.46740	0.02059
914.18164	0.02045
912.89587	0.02034
911.61010	0.02021
910.32433	0.02001
909.03856	0.01974
907.75279	0.01940
906.46702	0.01901
905.18125	0.01866
903.89549	0.01843
902.60972	0.01834
901.32395	0.01835
900.03818	0.01841
898.75241	0.01842
897.46664	0.01835
896.18087	0.01820
894.89510	0.01803
893.60933	0.01795
892.32357	0.01797
891.03780	0.01803
889.75203	0.01802
888.46626	0.01798
887.18049	0.01805
885.89472	0.01841
884.60895	0.01913
883.32318	0.02017
882.03742	0.02140
880.75165	0.02259
879.46588	0.02359
878.18011	0.02436
876.89434	0.02502
875.60857	0.02569
874.32280	0.02639
873.03703	0.02693
871.75126	0.02717
870.46550	0.02706
869.17973	0.02663
867.89396	0.02593
866.60819	0.02500
865.32242	0.02392
864.03665	0.02284
862.75088	0.02184
861.46511	0.02092
860.17935	0.02007
858.89358	0.01933
857.60781	0.01879
856.32204	0.01847
855.03627	0.01830
853.75050	0.01816
852.46473	0.01802
851.17896	0.01786
849.89319	0.01771
848.60743	0.01756
847.32166	0.01742
846.03589	0.01730
844.75012	0.01721
843.46435	0.01712
842.17858	0.01699
840.89281	0.01684
839.60704	0.01670
838.32128	0.01657
837.03551	0.01647
835.74974	0.01636
834.46397	0.01627
833.17820	0.01623
831.89243	0.01622
830.60666	0.01620
829.32089	0.01612
828.03512	0.01596
826.74936	0.01577
825.46359	0.01565
824.17782	0.01564
822.89205	0.01571
821.60628	0.01578
820.32051	0.01580
819.03474	0.01573
817.74897	0.01563
816.46321	0.01554
815.17744	0.01548
813.89167	0.01541
812.60590	0.01531
811.32013	0.01520
810.03436	0.01512
808.74859	0.01507
807.46282	0.01505
806.17705	0.01503
804.89129	0.01502
803.60552	0.01504
802.31975	0.01505
801.03398	0.01502
799.74821	0.01494
798.46244	0.01486
797.17667	0.01485
795.89090	0.01492
794.60513	0.01499
793.31937	0.01501
792.03360	0.01495
790.74783	0.01484
789.46206	0.01472
788.17629	0.01466
786.89052	0.01467
785.60475	0.01472
784.31898	0.01478
783.03322	0.01481
781.74745	0.01479
780.46168	0.01473
779.17591	0.01466
777.89014	0.01465
776.60437	0.01472
775.31860	0.01481
774.03283	0.01485
772.74706	0.01483
771.46130	0.01480
770.17553	0.01479
768.88976	0.01477
767.60399	0.01471
766.31822	0.01465
765.03245	0.01459
763.74668	0.01454
762.46091	0.01454
761.17515	0.01463
759.88938	0.01480
758.60361	0.01495
757.31784	0.01500
756.03207	0.01495
754.74630	0.01487
753.46053	0.01482
752.17476	0.01478
750.88899	0.01470
749.60323	0.01464
748.31746	0.01466
747.03169	0.01479
745.74592	0.01494
744.46015	0.01503
743.17438	0.01507
741.88861	0.01510
740.60284	0.01510
739.31708	0.01504
738.03131	0.01495
736.74554	0.01488
735.45977	0.01484
734.17400	0.01476
732.88823	0.01460
731.60246	0.01443
730.31669	0.01430
729.03092	0.01423
727.74516	0.01417
726.45939	0.01414
725.17362	0.01416
723.88785	0.01407
722.60208	0.01417
721.31631	0.01449
720.03054	0.01474
718.74477	0.01478
717.45901	0.01483
716.17324	0.01488
714.88747	0.01481
713.60170	0.01465
712.31593	0.01446
711.03016	0.01433
709.74439	0.01426
708.45862	0.01424
707.17285	0.01424
705.88709	0.01425
704.60132	0.01426
703.31555	0.01426
702.02978	0.01423
700.74401	0.01420
699.45824	0.01418
698.17247	0.01418
696.88670	0.01419
695.60094	0.01418
694.31517	0.01415
693.02940	0.01412
691.74363	0.01409
690.45786	0.01407
689.17209	0.01405
687.88632	0.01402
686.60055	0.01393
685.31478	0.01377
684.02902	0.01360
682.74325	0.01345
681.45748	0.01337
680.17171	0.01332
678.88594	0.01325
677.60017	0.01315
676.31440	0.01305
675.02863	0.01296
673.74287	0.01277
672.45710	0.01237
671.17133	0.01218
669.88556	0.01340
668.59979	0.01560
667.31402	0.01507
666.02825	0.01293
664.74248	0.01254
663.45671	0.01319
662.17095	0.01362
660.88518	0.01367
659.59941	0.01355
658.31364	0.01344
657.02787	0.01344
655.74210	0.01353
654.45633	0.01362
653.17056	0.01368
651.88480	0.01369
650.59903	0.01371
649.31326	0.01377
648.02749	0.01381
646.74172	0.01385
645.45595	0.01392
644.17018	0.01401
642.88441	0.01413
641.59864	0.01427
640.31288	0.01445
639.02711	0.01464
637.74134	0.01481
636.45557	0.01494
635.16980	0.01503
633.88403	0.01510
632.59826	0.01528
631.31249	0.01574
630.02673	0.01664
628.74096	0.01739
627.45519	0.01715
626.16942	0.01830
624.88365	0.01997
623.59788	0.02099
622.31211	0.02157
621.02634	0.02262
619.74057	0.02456
618.45481	0.02680
617.16904	0.02862
615.88327	0.02992
614.59750	0.03126
613.31173	0.03324
612.02596	0.03591
610.74019	0.03854
609.45442	0.04032
608.16866	0.04137
606.88289	0.04258
605.59712	0.04439
604.31135	0.04621
603.02558	0.04710
601.73981	0.04679
600.45404	0.04572
599.16827	0.04441
597.88250	0.04308
596.59674	0.04170
595.31097	0.04024
594.02520	0.03878
592.73943	0.03752
591.45366	0.03667
590.16789	0.03632
588.88212	0.03636
587.59635	0.03665
586.31059	0.03710
585.02482	0.03772
583.73905	0.03854
582.45328	0.03953
581.16751	0.04062
579.88174	0.04173
578.59597	0.04276
577.31020	0.04376
576.02443	0.04482
574.73867	0.04601
573.45290	0.04730
572.16713	0.04862
570.88136	0.04997
569.59559	0.05141
568.30982	0.05298
567.02405	0.05462
565.73828	0.05616
564.45251	0.05745
563.16675	0.05837
561.88098	0.05881
560.59521	0.05854
559.30944	0.05739
558.02367	0.05537
556.73790	0.05279
555.45213	0.04999
554.16636	0.04725
552.88060	0.04467
551.59483	0.04229
550.30906	0.04011
549.02329	0.03811
547.73752	0.03620
546.45175	0.03436
545.16598	0.03265
543.88021	0.03119
542.59444	0.02999
541.30868	0.02899
540.02291	0.02811
538.73714	0.02736
537.45137	0.02672
536.16560	0.02615
534.87983	0.02556
533.59406	0.02488
532.30829	0.02412
531.02253	0.02339
529.73676	0.02279
528.45099	0.02233
527.16522	0.02192
525.87945	0.02152
524.59368	0.02114
523.30791	0.02080
522.02214	0.02053
520.73637	0.02029
519.45061	0.02002
518.16484	0.01967
516.87907	0.01924
515.59330	0.01882
514.30753	0.01849
513.02176	0.01830
511.73599	0.01818
510.45022	0.01802
509.16446	0.01777
507.87869	0.01746
506.59292	0.01722
505.30715	0.01707
504.02138	0.01694
502.73561	0.01675
501.44984	0.01650
500.16407	0.01626
498.87830	0.01608
497.59254	0.01596
496.30677	0.01585
495.02100	0.01574
493.73523	0.01564
492.44946	0.01556
491.16369	0.01546
489.87792	0.01534
488.59215	0.01524
487.30639	0.01522
486.02062	0.01527
484.73485	0.01529
483.44908	0.01521
482.16331	0.01505
480.87754	0.01492
479.59177	0.01488
478.30600	0.01492
477.02023	0.01501
475.73447	0.01512
474.44870	0.01524
473.16293	0.01534
471.87716	0.01543
470.59139	0.01546
469.30562	0.01541
468.01985	0.01527
466.73408	0.01509
465.44832	0.01492
464.16255	0.01479
462.87678	0.01470
461.59101	0.01462
460.30524	0.01448
459.01947	0.01427
457.73370	0.01404
456.44793	0.01383
455.16216	0.01365
453.87640	0.01352
452.59063	0.01348
451.30486	0.01350
450.01909	0.01351
448.73332	0.01346
447.44755	0.01335
446.16178	0.01320
444.87601	0.01302
443.59025	0.01284
442.30448	0.01274
441.01871	0.01273
439.73294	0.01277
438.44717	0.01277
437.16140	0.01270
435.87563	0.01260
434.58986	0.01250
433.30409	0.01242
432.01833	0.01238
430.73256	0.01238
429.44679	0.01237
428.16102	0.01233
426.87525	0.01225
425.58948	0.01217
424.30371	0.01216
423.01794	0.01219
421.73218	0.01217
420.44641	0.01204
419.16064	0.01193
417.87487	0.01190
416.58910	0.01185
415.30333	0.01172
414.01756	0.01156
412.73179	0.01152
411.44602	0.01157
410.16026	0.01164
408.87449	0.01168
407.58872	0.01167
406.30295	0.01165
405.01718	0.01164
403.73141	0.01169
402.44564	0.01176
401.15987	0.01181
399.87411	0.01180
