3997.45528	0.03135
3996.16951	0.03157
3994.88374	0.03148
3993.59798	0.03121
3992.31221	0.03115
3991.02644	0.03152
3989.74067	0.03212
3988.45490	0.03262
3987.16913	0.03284
3985.88336	0.03284
3984.59759	0.03286
3983.31183	0.03315
3982.02606	0.03371
3980.74029	0.03426
3979.45452	0.03448
3978.16875	0.03438
3976.88298	0.03427
3975.59721	0.03434
3974.31144	0.03443
3973.02567	0.03434
3971.73991	0.03426
3970.45414	0.03450
3969.16837	0.03481
3967.88260	0.03458
3966.59683	0.03350
3965.31106	0.03209
3964.02529	0.03116
3962.73952	0.03120
3961.45376	0.03213
3960.16799	0.03340
3958.88222	0.03437
3957.59645	0.03472
3956.31068	0.03451
3955.02491	0.03402
3953.73914	0.03350
3952.45337	0.03305
3951.16760	0.03273
3949.88184	0.03261
3948.59607	0.03281
3947.31030	0.03334
3946.02453	0.03402
3944.73876	0.03452
3943.45299	0.03473
3942.16722	0.03476
3940.88145	0.03471
3939.59569	0.03454
3938.30992	0.03426
3937.02415	0.03405
3935.73838	0.03397
3934.45261	0.03381
3933.16684	0.03337
3931.88107	0.03273
3930.59530	0.03221
3929.30953	0.03212
3928.02377	0.03243
3926.73800	0.03288
3925.45223	0.03327
3924.16646	0.03360
3922.88069	0.03376
3921.59492	0.03353
3920.30915	0.03298
3919.02338	0.03250
3917.73762	0.03249
3916.45185	0.03295
3915.16608	0.03357
3913.88031	0.03405
3912.59454	0.03441
3911.30877	0.03473
3910.02300	0.03487
3908.73723	0.03472
3907.45146	0.03439
3906.16570	0.03411
3904.87993	0.03406
3903.59416	0.03430
3902.30839	0.03465
3901.02262	0.03490
3899.73685	0.03499
3898.45108	0.03494
3897.16531	0.03472
3895.87955	0.03435
3894.59378	0.03399
3893.30801	0.03377
3892.02224	0.03391
3890.73647	0.03468
3889.45070	0.03584
3888.16493	0.03649
3886.87916	0.03609
3885.59339	0.03516
3884.30763	0.03439
3883.02186	0.03392
3881.73609	0.03364
3880.45032	0.03364
3879.16455	0.03391
3877.87878	0.03412
3876.59301	0.03406
3875.30724	0.03411
3874.02148	0.03470
3872.73571	0.03548
3871.44994	0.03571
3870.16417	0.03542
3868.87840	0.03523
3867.59263	0.03527
3866.30686	0.03522
3865.02109	0.03509
3863.73532	0.03500
3862.44956	0.03493
3861.16379	0.03494
3859.87802	0.03522
3858.59225	0.03577
3857.30648	0.03624
3856.02071	0.03632
3854.73494	0.03640
3853.44917	0.03723
3852.16341	0.03872
3850.87764	0.03970
3849.59187	0.03937
3848.30610	0.03797
3847.02033	0.03612
3845.73456	0.03443
3844.44879	0.03330
3843.16302	0.03290
3841.87725	0.03303
3840.59149	0.03319
3839.30572	0.03316
3838.01995	0.03315
3836.73418	0.03333
3835.44841	0.03346
3834.16264	0.03340
3832.87687	0.03346
3831.59110	0.03387
3830.30534	0.03441
3829.01957	0.03469
3827.73380	0.03474
3826.44803	0.03493
3825.16226	0.03514
3823.87649	0.03478
3822.59072	0.03377
3821.30495	0.03309
3820.01918	0.03334
3818.73342	0.03380
3817.44765	0.03354
3816.16188	0.03300
3814.87611	0.03306
3813.59034	0.03370
3812.30457	0.03449
3811.01880	0.03522
3809.73303	0.03562
3808.44726	0.03547
3807.16150	0.03518
3805.87573	0.03513
3804.58996	0.03475
3803.30419	0.03347
3802.01842	0.03200
3800.73265	0.03165
3799.44688	0.03248
3798.16111	0.03353
3796.87535	0.03424
3795.58958	0.03464
3794.30381	0.03469
3793.01804	0.03449
3791.73227	0.03444
3790.44650	0.03478
3789.16073	0.03521
3787.87496	0.03532
3786.58919	0.03505
3785.30343	0.03465
3784.01766	0.03440
3782.73189	0.03432
3781.44612	0.03422
3780.16035	0.03402
3778.87458	0.03378
3777.58881	0.03348
3776.30304	0.03303
3775.01728	0.03250
3773.73151	0.03210
3772.44574	0.03187
3771.15997	0.03171
3769.87420	0.03163
3768.58843	0.03160
3767.30266	0.03143
3766.01689	0.03107
3764.73112	0.03073
3763.44536	0.03057
3762.15959	0.03064
3760.87382	0.03094
3759.58805	0.03144
3758.30228	0.03189
3757.01651	0.03215
3755.73074	0.03220
3754.44497	0.03201
3753.15921	0.03164
3751.87344	0.03131
3750.58767	0.03127
3749.30190	0.03178
3748.01613	0.03268
3746.73036	0.03308
3745.44459	0.03275
3744.15882	0.03271
3742.87305	0.03336
3741.58729	0.03380
3740.30152	0.03340
3739.01575	0.03243
3737.72998	0.03137
3736.44421	0.03070
3735.15844	0.03062
3733.87267	0.03074
3732.58690	0.03072
3731.30114	0.03067
3730.01537	0.03068
3728.72960	0.03063
3727.44383	0.03075
3726.15806	0.03142
3724.87229	0.03238
3723.58652	0.03287
3722.30075	0.03255
3721.01498	0.03177
3719.72922	0.03111
3718.44345	0.03091
3717.15768	0.03119
3715.87191	0.03161
3714.58614	0.03173
3713.30037	0.03149
3712.01460	0.03122
3710.72883	0.03120
3709.44307	0.03142
3708.15730	0.03172
3706.87153	0.03199
3705.58576	0.03214
3704.29999	0.03218
3703.01422	0.03221
3701.72845	0.03220
3700.44268	0.03207
3699.15691	0.03165
3697.87115	0.03095
3696.58538	0.03029
3695.29961	0.03017
3694.01384	0.03073
3692.72807	0.03159
3691.44230	0.03227
3690.15653	0.03244
3688.87076	0.03215
3687.58500	0.03172
3686.29923	0.03123
3685.01346	0.03040
3683.72769	0.02936
3682.44192	0.02867
3681.15615	0.02877
3679.87038	0.02976
3678.58461	0.03110
3677.29884	0.03191
3676.01308	0.03209
3674.72731	0.03215
3673.44154	0.03215
3672.15577	0.03181
3670.87000	0.03152
3669.58423	0.03188
3668.29846	0.03259
3667.01269	0.03298
3665.72693	0.03309
3664.44116	0.03328
3663.15539	0.03356
3661.86962	0.03370
3660.58385	0.03371
3659.29808	0.03365
3658.01231	0.03341
3656.72654	0.03293
3655.44077	0.03256
3654.15501	0.03259
3652.86924	0.03297
3651.58347	0.03352
3650.29770	0.03420
3649.01193	0.03495
3647.72616	0.03557
3646.44039	0.03584
3645.15462	0.03567
3643.86886	0.03526
3642.58309	0.03490
3641.29732	0.03476
3640.01155	0.03487
3638.72578	0.03520
3637.44001	0.03569
3636.15424	0.03619
3634.86847	0.03662
3633.58270	0.03705
3632.29694	0.03744
3631.01117	0.03765
3629.72540	0.03784
3628.43963	0.03835
3627.15386	0.03893
3625.86809	0.03887
3624.58232	0.03808
3623.29655	0.03723
3622.01079	0.03697
3620.72502	0.03747
3619.43925	0.03845
3618.15348	0.03936
3616.86771	0.03967
3615.58194	0.03944
3614.29617	0.03930
3613.01040	0.03978
3611.72463	0.04076
3610.43887	0.04168
3609.15310	0.04220
3607.86733	0.04230
3606.58156	0.04202
3605.29579	0.04137
3604.01002	0.04057
3602.72425	0.04002
3601.43848	0.04010
3600.15272	0.04101
3598.86695	0.04246
3597.58118	0.04379
3596.29541	0.04442
3595.00964	0.04436
3593.72387	0.04412
3592.43810	0.04407
3591.15233	0.04430
3589.86656	0.04484
3588.58080	0.04564
3587.29503	0.04636
3586.00926	0.04659
3584.72349	0.04622
3583.43772	0.04553
3582.15195	0.04495
3580.86618	0.04478
3579.58041	0.04502
3578.29464	0.04553
3577.00888	0.04621
3575.72311	0.04698
3574.43734	0.04778
3573.15157	0.04850
3571.86580	0.04906
3570.58003	0.04934
3569.29426	0.04922
3568.00849	0.04873
3566.72273	0.04816
3565.43696	0.04787
3564.15119	0.04800
3562.86542	0.04846
3561.57965	0.04896
3560.29388	0.04928
3559.00811	0.04945
3557.72234	0.04966
3556.43657	0.05001
3555.15081	0.05036
3553.86504	0.05041
3552.57927	0.05000
3551.29350	0.04932
3550.00773	0.04884
3548.72196	0.04901
3547.43619	0.04989
3546.15042	0.05109
3544.86466	0.05213
3543.57889	0.05277
3542.29312	0.05316
3541.00735	0.05354
3539.72158	0.05402
3538.43581	0.05456
3537.15004	0.05498
3535.86427	0.05510
3534.57850	0.05493
3533.29274	0.05467
3532.00697	0.05452
3530.72120	0.05449
3529.43543	0.05449
3528.14966	0.05458
3526.86389	0.05480
3525.57812	0.05512
3524.29235	0.05539
3523.00659	0.05563
3521.72082	0.05596
3520.43505	0.05647
3519.14928	0.05714
3517.86351	0.05785
3516.57774	0.05848
3515.29197	0.05889
3514.00620	0.05905
3512.72043	0.05904
3511.43467	0.05903
3510.14890	0.05909
3508.86313	0.05917
3507.57736	0.05918
3506.29159	0.05910
3505.00582	0.05904
3503.72005	0.05917
3502.43428	0.05959
3501.14852	0.06022
3499.86275	0.06090
3498.57698	0.06144
3497.29121	0.06170
3496.00544	0.06162
3494.71967	0.06127
3493.43390	0.06090
3492.14813	0.06080
3490.86236	0.06108
3489.57660	0.06160
3488.29083	0.06208
3487.00506	0.06233
3485.71929	0.06223
3484.43352	0.06179
3483.14775	0.06131
3481.86198	0.06125
3480.57621	0.06180
3479.29045	0.06271
3478.00468	0.06349
3476.71891	0.06376
3475.43314	0.06353
3474.14737	0.06316
3472.86160	0.06300
3471.57583	0.06317
3470.29006	0.06347
3469.00429	0.06369
3467.71853	0.06378
3466.43276	0.06378
3465.14699	0.06381
3463.86122	0.06404
3462.57545	0.06458
3461.28968	0.06525
3460.00391	0.06570
3458.71814	0.06579
3457.43238	0.06576
3456.14661	0.06588
3454.86084	0.06609
3453.57507	0.06610
3452.28930	0.06586
3451.00353	0.06572
3449.71776	0.06602
3448.43199	0.06671
3447.14622	0.06740
3445.86046	0.06768
3444.57469	0.06744
3443.28892	0.06695
3442.00315	0.06660
3440.71738	0.06658
3439.43161	0.06677
3438.14584	0.06689
3436.86007	0.06678
3435.57431	0.06657
3434.28854	0.06659
3433.00277	0.06711
3431.71700	0.06807
3430.43123	0.06915
3429.14546	0.07000
3427.85969	0.07048
3426.57392	0.07067
3425.28815	0.07066
3424.00239	0.07050
3422.71662	0.07025
3421.43085	0.07007
3420.14508	0.07005
3418.85931	0.07010
3417.57354	0.07004
3416.28777	0.06984
3415.00200	0.06969
3413.71624	0.06976
3412.43047	0.07014
3411.14470	0.07079
3409.85893	0.07159
3408.57316	0.07227
3407.28739	0.07247
3406.00162	0.07214
3404.71585	0.07162
3403.43008	0.07142
3402.14432	0.07166
3400.85855	0.07203
3399.57278	0.07212
3398.28701	0.07190
3397.00124	0.07165
3395.71547	0.07166
3394.42970	0.07191
3393.14393	0.07211
3391.85817	0.07205
3390.57240	0.07185
3389.28663	0.07184
3388.00086	0.07213
3386.71509	0.07255
3385.42932	0.07290
3384.14355	0.07315
3382.85778	0.07341
3381.57201	0.07360
3380.28625	0.07358
3379.00048	0.07337
3377.71471	0.07320
3376.42894	0.07333
3375.14317	0.07373
3373.85740	0.07416
3372.57163	0.07438
3371.28586	0.07435
3370.00010	0.07421
3368.71433	0.07412
3367.42856	0.07415
3366.14279	0.07417
3364.85702	0.07401
3363.57125	0.07360
3362.28548	0.07316
3360.99971	0.07299
3359.71394	0.07323
3358.42818	0.07372
3357.14241	0.07417
3355.85664	0.07436
3354.57087	0.07436
3353.28510	0.07444
3351.99933	0.07479
3350.71356	0.07532
3349.42779	0.07568
3348.14202	0.07563
3346.85626	0.07513
3345.57049	0.07435
3344.28472	0.07358
3342.99895	0.07311
3341.71318	0.07313
3340.42741	0.07353
3339.14164	0.07404
3337.85587	0.07433
3336.57011	0.07424
3335.28434	0.07385
3333.99857	0.07340
3332.71280	0.07319
3331.42703	0.07338
3330.14126	0.07386
3328.85549	0.07432
3327.56972	0.07447
3326.28395	0.07431
3324.99819	0.07407
3323.71242	0.07393
3322.42665	0.07386
3321.14088	0.07379
3319.85511	0.07370
3318.56934	0.07365
3317.28357	0.07371
3315.99780	0.07387
3314.71204	0.07412
3313.42627	0.07447
3312.14050	0.07493
3310.85473	0.07542
3309.56896	0.07569
3308.28319	0.07543
3306.99742	0.07458
3305.71165	0.07342
3304.42588	0.07243
3303.14012	0.07196
3301.85435	0.07201
3300.56858	0.07237
3299.28281	0.07284
3297.99704	0.07332
3296.71127	0.07366
3295.42550	0.07370
3294.13973	0.07339
3292.85397	0.07288
3291.56820	0.07247
3290.28243	0.07243
3288.99666	0.07279
3287.71089	0.07330
3286.42512	0.07364
3285.13935	0.07366
3283.85358	0.07347
3282.56781	0.07328
3281.28205	0.07317
3279.99628	0.07310
3278.71051	0.07294
3277.42474	0.07264
3276.13897	0.07228
3274.85320	0.07198
3273.56743	0.07184
3272.28166	0.07188
3270.99590	0.07208
3269.71013	0.07233
3268.42436	0.07243
3267.13859	0.07226
3265.85282	0.07195
3264.56705	0.07177
3263.28128	0.07190
3261.99551	0.07225
3260.70974	0.07262
3259.42398	0.07288
3258.13821	0.07305
3256.85244	0.07316
3255.56667	0.07320
3254.28090	0.07310
3252.99513	0.07285
3251.70936	0.07260
3250.42359	0.07249
3249.13783	0.07250
3247.85206	0.07242
3246.56629	0.07211
3245.28052	0.07173
3243.99475	0.07155
3242.70898	0.07167
3241.42321	0.07187
3240.13744	0.07192
3238.85167	0.07174
3237.56591	0.07149
3236.28014	0.07134
3234.99437	0.07131
3233.70860	0.07126
3232.42283	0.07110
3231.13706	0.07090
3229.85129	0.07084
3228.56552	0.07097
3227.27976	0.07117
3225.99399	0.07125
3224.70822	0.07117
3223.42245	0.07103
3222.13668	0.07090
3220.85091	0.07076
3219.56514	0.07058
3218.27937	0.07033
3216.99360	0.07005
3215.70784	0.06983
3214.42207	0.06977
3213.13630	0.06990
3211.85053	0.07010
3210.56476	0.07022
3209.27899	0.07022
3207.99322	0.07024
3206.70745	0.07036
3205.42169	0.07054
3204.13592	0.07068
3202.85015	0.07075
3201.56438	0.07075
3200.27861	0.07065
3198.99284	0.07043
3197.70707	0.07008
3196.42130	0.06967
3195.13553	0.06933
3193.84977	0.06912
3192.56400	0.06902
3191.27823	0.06893
3189.99246	0.06884
3188.70669	0.06879
3187.42092	0.06878
3186.13515	0.06874
3184.84938	0.06865
3183.56362	0.06862
3182.27785	0.06874
3180.99208	0.06899
3179.70631	0.06922
3178.42054	0.06924
3177.13477	0.06901
3175.84900	0.06861
3174.56323	0.06823
3173.27746	0.06804
3171.99170	0.06810
3170.70593	0.06826
3169.42016	0.06826
3168.13439	0.06801
3166.84862	0.06760
3165.56285	0.06718
3164.27708	0.06679
3162.99131	0.06646
3161.70555	0.06631
3160.41978	0.06647
3159.13401	0.06687
3157.84824	0.06725
3156.56247	0.06740
3155.27670	0.06731
3153.99093	0.06707
3152.70516	0.06676
3151.41939	0.06646
3150.13363	0.06620
3148.84786	0.06601
3147.56209	0.06585
3146.27632	0.06572
3144.99055	0.06562
3143.70478	0.06552
3142.41901	0.06536
3141.13324	0.06517
3139.84748	0.06508
3138.56171	0.06515
3137.27594	0.06531
3135.99017	0.06543
3134.70440	0.06541
3133.41863	0.06522
3132.13286	0.06493
3130.84709	0.06464
3129.56132	0.06452
3128.27556	0.06461
3126.98979	0.06481
3125.70402	0.06493
3124.41825	0.06492
3123.13248	0.06480
3121.84671	0.06463
3120.56094	0.06446
3119.27517	0.06435
3117.98940	0.06439
3116.70364	0.06457
3115.41787	0.06478
3114.13210	0.06479
3112.84633	0.06448
3111.56056	0.06395
3110.27479	0.06342
3108.98902	0.06306
3107.70325	0.06290
3106.41749	0.06289
3105.13172	0.06291
3103.84595	0.06287
3102.56018	0.06279
3101.27441	0.06276
3099.98864	0.06286
3098.70287	0.06299
3097.41710	0.06296
3096.13133	0.06271
3094.84557	0.06238
3093.55980	0.06213
3092.27403	0.06199
3090.98826	0.06193
3089.70249	0.06191
3088.41672	0.06199
3087.13095	0.06217
3085.84518	0.06235
3084.55942	0.06243
3083.27365	0.06238
3081.98788	0.06226
3080.70211	0.06213
3079.41634	0.06208
3078.13057	0.06216
3076.84480	0.06230
3075.55903	0.06237
3074.27326	0.06224
3072.98750	0.06196
3071.70173	0.06169
3070.41596	0.06154
3069.13019	0.06148
3067.84442	0.06144
3066.55865	0.06138
3065.27288	0.06130
3063.98711	0.06121
3062.70135	0.06113
3061.41558	0.06109
3060.12981	0.06112
3058.84404	0.06117
3057.55827	0.06112
3056.27250	0.06089
3054.98673	0.06052
3053.70096	0.06010
3052.41519	0.05977
3051.12943	0.05961
3049.84366	0.05961
3048.55789	0.05970
3047.27212	0.05981
3045.98635	0.05988
3044.70058	0.05989
3043.41481	0.05977
3042.12904	0.05945
3040.84328	0.05901
3039.55751	0.05868
3038.27174	0.05869
3036.98597	0.05902
3035.70020	0.05936
3034.41443	0.05946
3033.12866	0.05928
3031.84289	0.05899
3030.55712	0.05873
3029.27136	0.05857
3027.98559	0.05854
3026.69982	0.05864
3025.41405	0.05881
3024.12828	0.05892
3022.84251	0.05886
3021.55674	0.05863
3020.27097	0.05834
3018.98521	0.05811
3017.69944	0.05809
3016.41367	0.05829
3015.12790	0.05860
3013.84213	0.05877
3012.55636	0.05858
3011.27059	0.05805
3009.98482	0.05742
3008.69905	0.05697
3007.41329	0.05686
3006.12752	0.05701
3004.84175	0.05726
3003.55598	0.05741
3002.27021	0.05734
3000.98444	0.05705
2999.69867	0.05669
2998.41290	0.05650
2997.12714	0.05649
2995.84137	0.05650
2994.55560	0.05635
2993.26983	0.05603
2991.98406	0.05568
2990.69829	0.05547
2989.41252	0.05547
2988.12675	0.05564
2986.84098	0.05589
2985.55522	0.05616
2984.26945	0.05647
2982.98368	0.05684
2981.69791	0.05728
2980.41214	0.05775
2979.12637	0.05817
2977.84060	0.05845
2976.55483	0.05858
2975.26907	0.05865
2973.98330	0.05889
2972.69753	0.05940
2971.41176	0.06003
2970.12599	0.06051
2968.84022	0.06075
2967.55445	0.06096
2966.26868	0.06141
2964.98291	0.06212
2963.69715	0.06292
2962.41138	0.06367
2961.12561	0.06437
2959.83984	0.06508
2958.55407	0.06580
2957.26830	0.06650
2955.98253	0.06706
2954.69676	0.06740
2953.41100	0.06750
2952.12523	0.06744
2950.83946	0.06732
2949.55369	0.06721
2948.26792	0.06710
2946.98215	0.06692
2945.69638	0.06661
2944.41061	0.06618
2943.12484	0.06577
2941.83908	0.06556
2940.55331	0.06563
2939.26754	0.06594
2937.98177	0.06634
2936.69600	0.06677
2935.41023	0.06731
2934.12446	0.06801
2932.83869	0.06881
2931.55293	0.06950
2930.26716	0.06998
2928.98139	0.07028
2927.69562	0.07049
2926.40985	0.07058
2925.12408	0.07049
2923.83831	0.07019
2922.55254	0.06978
2921.26677	0.06934
2919.98101	0.06893
2918.69524	0.06859
2917.40947	0.06827
2916.12370	0.06785
2914.83793	0.06728
2913.55216	0.06667
2912.26639	0.06621
2910.98062	0.06600
2909.69486	0.06593
2908.40909	0.06579
2907.12332	0.06549
2905.83755	0.06511
2904.55178	0.06473
2903.26601	0.06441
2901.98024	0.06414
2900.69447	0.06387
2899.40870	0.06352
2898.12294	0.06307
2896.83717	0.06254
2895.55140	0.06195
2894.26563	0.06136
2892.97986	0.06076
2891.69409	0.06022
2890.40832	0.05977
2889.12255	0.05947
2887.83678	0.05930
2886.55102	0.05920
2885.26525	0.05914
2883.97948	0.05906
2882.69371	0.05892
2881.40794	0.05876
2880.12217	0.05867
2878.83640	0.05875
2877.55063	0.05897
2876.26487	0.05921
2874.97910	0.05934
2873.69333	0.05937
2872.40756	0.05943
2871.12179	0.05962
2869.83602	0.05993
2868.55025	0.06020
2867.26448	0.06029
2865.97871	0.06017
2864.69295	0.05991
2863.40718	0.05967
2862.12141	0.05948
2860.83564	0.05930
2859.54987	0.05898
2858.26410	0.05848
2856.97833	0.05792
2855.69256	0.05753
2854.40680	0.05741
2853.12103	0.05741
2851.83526	0.05734
2850.54949	0.05714
2849.26372	0.05693
2847.97795	0.05674
2846.69218	0.05648
2845.40641	0.05609
2844.12064	0.05561
2842.83488	0.05519
2841.54911	0.05487
2840.26334	0.05456
2838.97757	0.05411
2837.69180	0.05347
2836.40603	0.05273
2835.12026	0.05205
2833.83449	0.05148
2832.54873	0.05105
2831.26296	0.05069
2829.97719	0.05034
2828.69142	0.04999
2827.40565	0.04970
2826.11988	0.04959
2824.83411	0.04963
2823.54834	0.04961
2822.26257	0.04932
2820.97681	0.04875
2819.69104	0.04813
2818.40527	0.04767
2817.11950	0.04744
2815.83373	0.04733
2814.54796	0.04724
2813.26219	0.04716
2811.97642	0.04718
2810.69066	0.04729
2809.40489	0.04736
2808.11912	0.04727
2806.83335	0.04701
2805.54758	0.04671
2804.26181	0.04651
2802.97604	0.04646
2801.69027	0.04645
2800.40450	0.04632
2799.11874	0.04609
2797.83297	0.04586
2796.54720	0.04577
2795.26143	0.04585
2793.97566	0.04604
2792.68989	0.04621
2791.40412	0.04623
2790.11835	0.04611
2788.83259	0.04598
2787.54682	0.04594
2786.26105	0.04596
2784.97528	0.04592
2783.68951	0.04575
2782.40374	0.04554
2781.11797	0.04539
2779.83220	0.04530
2778.54643	0.04515
2777.26067	0.04492
2775.97490	0.04465
2774.68913	0.04449
2773.40336	0.04453
2772.11759	0.04477
2770.83182	0.04506
2769.54605	0.04522
2768.26028	0.04516
2766.97452	0.04497
2765.68875	0.04482
2764.40298	0.04481
2763.11721	0.04488
2761.83144	0.04486
2760.54567	0.04462
2759.25990	0.04422
2757.97413	0.04383
2756.68836	0.04358
2755.40260	0.04343
2754.11683	0.04330
2752.83106	0.04314
2751.54529	0.04301
2750.25952	0.04301
2748.97375	0.04317
2747.68798	0.04336
2746.40221	0.04343
2745.11645	0.04332
2743.83068	0.04316
2742.54491	0.04306
2741.25914	0.04301
2739.97337	0.04298
2738.68760	0.04293
2737.40183	0.04293
2736.11606	0.04299
2734.83029	0.04304
2733.54453	0.04299
2732.25876	0.04286
2730.97299	0.04280
2729.68722	0.04290
2728.40145	0.04303
2727.11568	0.04302
2725.82991	0.04279
2724.54414	0.04247
2723.25838	0.04220
2721.97261	0.04205
2720.68684	0.04193
2719.40107	0.04176
2718.11530	0.04152
2716.82953	0.04130
2715.54376	0.04116
2714.25799	0.04113
2712.97222	0.04119
2711.68646	0.04133
2710.40069	0.04154
2709.11492	0.04174
2707.82915	0.04183
2706.54338	0.04175
2705.25761	0.04155
2703.97184	0.04142
2702.68607	0.04148
2701.40031	0.04169
2700.11454	0.04188
2698.82877	0.04191
2697.54300	0.04180
2696.25723	0.04165
2694.97146	0.04153
2693.68569	0.04142
2692.39992	0.04127
2691.11415	0.04110
2689.82839	0.04097
2688.54262	0.04089
2687.25685	0.04087
2685.97108	0.04087
2684.68531	0.04082
2683.39954	0.04066
2682.11377	0.04039
2680.82800	0.04011
2679.54224	0.03996
2678.25647	0.03995
2676.97070	0.03998
2675.68493	0.03997
2674.39916	0.03990
2673.11339	0.03987
2671.82762	0.03991
2670.54185	0.04002
2669.25608	0.04012
2667.97032	0.04019
2666.68455	0.04023
2665.39878	0.04025
2664.11301	0.04025
2662.82724	0.04023
2661.54147	0.04013
2660.25570	0.03993
2658.96993	0.03967
2657.68417	0.03949
2656.39840	0.03943
2655.11263	0.03939
2653.82686	0.03921
2652.54109	0.03889
2651.25532	0.03857
2649.96955	0.03844
2648.68378	0.03856
2647.39801	0.03880
2646.11225	0.03895
2644.82648	0.03884
2643.54071	0.03845
2642.25494	0.03792
2640.96917	0.03746
2639.68340	0.03725
2638.39763	0.03723
2637.11186	0.03722
2635.82609	0.03701
2634.54033	0.03661
2633.25456	0.03619
2631.96879	0.03595
2630.68302	0.03595
2629.39725	0.03604
2628.11148	0.03603
2626.82571	0.03590
2625.53994	0.03576
2624.25418	0.03567
2622.96841	0.03556
2621.68264	0.03537
2620.39687	0.03520
2619.11110	0.03519
2617.82533	0.03529
2616.53956	0.03531
2615.25379	0.03513
2613.96802	0.03481
2612.68226	0.03451
2611.39649	0.03435
2610.11072	0.03432
2608.82495	0.03426
2607.53918	0.03407
2606.25341	0.03383
2604.96764	0.03374
2603.68187	0.03382
2602.39611	0.03388
2601.11034	0.03372
2599.82457	0.03338
2598.53880	0.03310
2597.25303	0.03302
2595.96726	0.03309
2594.68149	0.03318
2593.39572	0.03315
2592.10995	0.03299
2590.82419	0.03279
2589.53842	0.03271
2588.25265	0.03268
2586.96688	0.03256
2585.68111	0.03232
2584.39534	0.03204
2583.10957	0.03172
2581.82380	0.03131
2580.53804	0.03088
2579.25227	0.03065
2577.96650	0.03075
2576.68073	0.03107
2575.39496	0.03141
2574.10919	0.03158
2572.82342	0.03148
2571.53765	0.03110
2570.25188	0.03062
2568.96612	0.03031
2567.68035	0.03027
2566.39458	0.03034
2565.10881	0.03034
2563.82304	0.03028
2562.53727	0.03033
2561.25150	0.03047
2559.96573	0.03052
2558.67997	0.03042
2557.39420	0.03038
2556.10843	0.03055
2554.82266	0.03087
2553.53689	0.03113
2552.25112	0.03122
2550.96535	0.03110
2549.67958	0.03082
2548.39381	0.03054
2547.10805	0.03049
2545.82228	0.03070
2544.53651	0.03096
2543.25074	0.03102
2541.96497	0.03077
2540.67920	0.03037
2539.39343	0.02998
2538.10766	0.02969
2536.82190	0.02951
2535.53613	0.02941
2534.25036	0.02938
2532.96459	0.02946
2531.67882	0.02980
2530.39305	0.03036
2529.10728	0.03084
2527.82151	0.03089
2526.53574	0.03050
2525.24998	0.03008
2523.96421	0.02997
2522.67844	0.03011
2521.39267	0.03021
2520.10690	0.03009
2518.82113	0.02983
2517.53536	0.02960
2516.24959	0.02946
2514.96383	0.02940
2513.67806	0.02937
2512.39229	0.02935
2511.10652	0.02923
2509.82075	0.02894
2508.53498	0.02858
2507.24921	0.02842
2505.96344	0.02859
2504.67767	0.02899
2503.39191	0.02941
2502.10614	0.02975
2500.82037	0.02993
2499.53460	0.02985
2498.24883	0.02946
2496.96306	0.02888
2495.67729	0.02831
2494.39152	0.02801
2493.10576	0.02808
2491.81999	0.02843
2490.53422	0.02881
2489.24845	0.02902
2487.96268	0.02902
2486.67691	0.02898
2485.39114	0.02907
2484.10537	0.02930
2482.81960	0.02950
2481.53384	0.02944
2480.24807	0.02907
2478.96230	0.02853
2477.67653	0.02810
2476.39076	0.02793
2475.10499	0.02798
2473.81922	0.02803
2472.53345	0.02795
2471.24769	0.02776
2469.96192	0.02759
2468.67615	0.02751
2467.39038	0.02757
2466.10461	0.02768
2464.81884	0.02777
2463.53307	0.02777
2462.24730	0.02778
2460.96153	0.02795
2459.67577	0.02828
2458.39000	0.02861
2457.10423	0.02877
2455.81846	0.02874
2454.53269	0.02865
2453.24692	0.02854
2451.96115	0.02835
2450.67538	0.02810
2449.38962	0.02797
2448.10385	0.02807
2446.81808	0.02820
2445.53231	0.02811
2444.24654	0.02777
2442.96077	0.02742
2441.67500	0.02728
2440.38923	0.02731
2439.10346	0.02732
2437.81770	0.02721
2436.53193	0.02713
2435.24616	0.02725
2433.96039	0.02752
2432.67462	0.02768
2431.38885	0.02759
2430.10308	0.02735
2428.81731	0.02715
2427.53155	0.02704
2426.24578	0.02697
2424.96001	0.02688
2423.67424	0.02675
2422.38847	0.02665
2421.10270	0.02664
2419.81693	0.02669
2418.53116	0.02673
2417.24539	0.02673
2415.95963	0.02668
2414.67386	0.02656
2413.38809	0.02636
2412.10232	0.02618
2410.81655	0.02623
2409.53078	0.02660
2408.24501	0.02717
2406.95924	0.02766
2405.67347	0.02786
2404.38771	0.02773
2403.10194	0.02740
2401.81617	0.02709
2400.53040	0.02693
2399.24463	0.02689
2397.95886	0.02693
2396.67309	0.02696
2395.38732	0.02694
2394.10156	0.02690
2392.81579	0.02691
2391.53002	0.02701
2390.24425	0.02719
2388.95848	0.02733
2387.67271	0.02730
2386.38694	0.02710
2385.10117	0.02681
2383.81540	0.02653
2382.52964	0.02631
2381.24387	0.02622
2379.95810	0.02628
2378.67233	0.02648
2377.38656	0.02665
2376.10079	0.02661
2374.81502	0.02643
2373.52925	0.02610
2372.24349	0.02574
2370.95772	0.02541
2369.67195	0.02530
2368.38618	0.02524
2367.10041	0.02504
2365.81464	0.02466
2364.52887	0.02446
2363.24310	0.02452
2361.95733	0.02465
2360.67157	0.02448
2359.38580	0.02448
2358.10003	0.02493
2356.81426	0.02576
2355.52849	0.02676
2354.24272	0.02768
2352.95695	0.02825
2351.67118	0.02814
2350.38542	0.02767
2349.09965	0.02742
2347.81388	0.02734
2346.52811	0.02667
2345.24234	0.02598
2343.95657	0.02657
2342.67080	0.02792
2341.38503	0.02766
2340.09926	0.02583
2338.81350	0.02561
2337.52773	0.02714
2336.24196	0.02669
2334.95619	0.02483
2333.67042	0.02539
2332.38465	0.02729
2331.09888	0.02657
2329.81311	0.02573
2328.52735	0.02744
2327.24158	0.02758
2325.95581	0.02674
2324.67004	0.02787
2323.38427	0.02828
2322.09850	0.02728
2320.81273	0.02761
2319.52696	0.02733
2318.24119	0.02649
2316.95543	0.02667
2315.66966	0.02639
2314.38389	0.02596
2313.09812	0.02622
2311.81235	0.02622
2310.52658	0.02638
2309.24081	0.02642
2307.95504	0.02599
2306.66928	0.02567
2305.38351	0.02526
2304.09774	0.02495
2302.81197	0.02485
2301.52620	0.02480
2300.24043	0.02494
2298.95466	0.02502
2297.66889	0.02498
2296.38312	0.02488
2295.09736	0.02484
2293.81159	0.02501
2292.52582	0.02523
2291.24005	0.02533
2289.95428	0.02516
2288.66851	0.02480
2287.38274	0.02443
2286.09697	0.02418
2284.81121	0.02410
2283.52544	0.02401
2282.23967	0.02378
2280.95390	0.02340
2279.66813	0.02305
2278.38236	0.02284
2277.09659	0.02269
2275.81082	0.02249
2274.52505	0.02227
2273.23929	0.02218
2271.95352	0.02223
2270.66775	0.02223
2269.38198	0.02198
2268.09621	0.02152
2266.81044	0.02095
2265.52467	0.02039
2264.23890	0.01999
2262.95314	0.01986
2261.66737	0.02008
2260.38160	0.02069
2259.09583	0.02147
2257.81006	0.02201
2256.52429	0.02197
2255.23852	0.02141
2253.95275	0.02062
2252.66698	0.01993
2251.38122	0.01945
2250.09545	0.01904
2248.80968	0.01865
2247.52391	0.01825
2246.23814	0.01816
2244.95237	0.01842
2243.66660	0.01882
2242.38083	0.01901
2241.09507	0.01883
2239.80930	0.01840
2238.52353	0.01790
2237.23776	0.01743
2235.95199	0.01696
2234.66622	0.01660
2233.38045	0.01663
2232.09468	0.01709
2230.80891	0.01771
2229.52315	0.01809
2228.23738	0.01810
2226.95161	0.01780
2225.66584	0.01722
2224.38007	0.01632
2223.09430	0.01524
2221.80853	0.01438
2220.52276	0.01414
2219.23700	0.01456
2217.95123	0.01530
2216.66546	0.01587
2215.37969	0.01605
2214.09392	0.01598
2212.80815	0.01593
2211.52238	0.01590
2210.23661	0.01572
2208.95084	0.01539
2207.66508	0.01521
2206.37931	0.01540
2205.09354	0.01572
2203.80777	0.01567
2202.52200	0.01491
2201.23623	0.01368
2199.95046	0.01259
2198.66469	0.01216
2197.37893	0.01246
2196.09316	0.01309
2194.80739	0.01349
2193.52162	0.01329
2192.23585	0.01252
2190.95008	0.01156
2189.66431	0.01089
2188.37854	0.01097
2187.09277	0.01184
2185.80701	0.01308
2184.52124	0.01401
2183.23547	0.01424
2181.94970	0.01399
2180.66393	0.01372
2179.37816	0.01362
2178.09239	0.01343
2176.80662	0.01296
2175.52085	0.01241
2174.23509	0.01218
2172.94932	0.01225
2171.66355	0.01204
2170.37778	0.01113
2169.09201	0.00973
2167.80624	0.00851
2166.52047	0.00792
2165.23470	0.00794
2163.94894	0.00816
2162.66317	0.00801
2161.37740	0.00705
2160.09163	0.00523
2158.80586	0.00316
2157.52009	0.00195
2156.23432	0.00238
2154.94855	0.00418
2153.66278	0.00629
2152.37702	0.00762
2151.09125	0.00786
2149.80548	0.00742
2148.51971	0.00692
2147.23394	0.00672
2145.94817	0.00687
2144.66240	0.00735
2143.37663	0.00810
2142.09087	0.00898
2140.80510	0.00974
2139.51933	0.01014
2138.23356	0.01013
2136.94779	0.00976
2135.66202	0.00926
2134.37625	0.00898
2133.09048	0.00920
2131.80471	0.00986
2130.51895	0.01057
2129.23318	0.01106
2127.94741	0.01142
2126.66164	0.01189
2125.37587	0.01249
2124.09010	0.01305
2122.80433	0.01343
2121.51856	0.01364
2120.23280	0.01378
2118.94703	0.01389
2117.66126	0.01399
2116.37549	0.01417
2115.08972	0.01451
2113.80395	0.01490
2112.51818	0.01506
2111.23241	0.01487
2109.94664	0.01449
2108.66088	0.01420
2107.37511	0.01409
2106.08934	0.01402
2104.80357	0.01379
2103.51780	0.01329
2102.23203	0.01262
2100.94626	0.01225
2099.66049	0.01484
2098.37473	0.01626
2097.08896	0.01618
2095.80319	0.01550
2094.51742	0.01466
2093.23165	0.01396
2091.94588	0.01346
2090.66011	0.01307
2089.37434	0.01271
2088.08857	0.01236
2086.80281	0.01211
2085.51704	0.01210
2084.23127	0.01243
2082.94550	0.01309
2081.65973	0.01396
2080.37396	0.01470
2079.08819	0.01498
2077.80242	0.01472
2076.51666	0.01425
2075.23089	0.01405
2073.94512	0.01429
2072.65935	0.01476
2071.37358	0.01516
2070.08781	0.01526
2068.80204	0.01504
2067.51627	0.01454
2066.23050	0.01378
2064.94474	0.01278
2063.65897	0.01161
2062.37320	0.01044
2061.08743	0.00954
2059.80166	0.00906
2058.51589	0.00890
2057.23012	0.00870
2055.94435	0.00826
2054.65859	0.00783
2053.37282	0.00804
2052.08705	0.00920
2050.80128	0.01096
2049.51551	0.01248
2048.22974	0.01304
2046.94397	0.01246
2045.65820	0.01092
2044.37243	0.00881
2043.08667	0.00667
2041.80090	0.00509
2040.51513	0.00443
2039.22936	0.00468
2037.94359	0.00557
2036.65782	0.00676
2035.37205	0.00789
2034.08628	0.00854
2032.80052	0.00848
2031.51475	0.00791
2030.22898	0.00734
2028.94321	0.00721
2027.65744	0.00753
2026.37167	0.00795
2025.08590	0.00810
2023.80013	0.00789
2022.51436	0.00755
2021.22860	0.00732
2019.94283	0.00725
2018.65706	0.00726
2017.37129	0.00738
2016.08552	0.00776
2014.79975	0.00860
2013.51398	0.00997
2012.22821	0.01171
2010.94245	0.01355
2009.65668	0.01522
2008.37091	0.01638
2007.08514	0.01663
2005.79937	0.01575
2004.51360	0.01401
2003.22783	0.01215
2001.94206	0.01079
2000.65629	0.01003
1999.37053	0.00964
1998.08476	0.00936
1996.79899	0.00911
1995.51322	0.00890
1994.22745	0.00877
1992.94168	0.00876
1991.65591	0.00889
1990.37014	0.00913
1989.08438	0.00937
1987.79861	0.00953
1986.51284	0.00966
1985.22707	0.00987
1983.94130	0.01034
1982.65553	0.01128
1981.36976	0.01290
1980.08399	0.01511
1978.79822	0.01743
1977.51246	0.01905
1976.22669	0.01937
1974.94092	0.01846
1973.65515	0.01710
1972.36938	0.01613
1971.08361	0.01578
1969.79784	0.01576
1968.51207	0.01571
1967.22631	0.01563
1965.94054	0.01556
1964.65477	0.01533
1963.36900	0.01470
1962.08323	0.01368
1960.79746	0.01266
1959.51169	0.01197
1958.22592	0.01164
1956.94015	0.01155
1955.65439	0.01179
1954.36862	0.01252
1953.08285	0.01362
1951.79708	0.01453
1950.51131	0.01475
1949.22554	0.01425
1947.93977	0.01347
1946.65400	0.01292
1945.36823	0.01286
1944.08247	0.01328
1942.79670	0.01401
1941.51093	0.01477
1940.22516	0.01521
1938.93939	0.01524
1937.65362	0.01505
1936.36785	0.01501
1935.08208	0.01530
1933.79632	0.01578
1932.51055	0.01617
1931.22478	0.01630
1929.93901	0.01616
1928.65324	0.01588
1927.36747	0.01556
1926.08170	0.01526
1924.79593	0.01507
1923.51016	0.01506
1922.22440	0.01523
1920.93863	0.01545
1919.65286	0.01561
1918.36709	0.01572
1917.08132	0.01585
1915.79555	0.01600
1914.50978	0.01614
1913.22401	0.01630
1911.93825	0.01647
1910.65248	0.01652
1909.36671	0.01636
1908.08094	0.01608
1906.79517	0.01583
1905.50940	0.01572
1904.22363	0.01573
1902.93786	0.01581
1901.65209	0.01593
1900.36633	0.01611
1899.08056	0.01636
1897.79479	0.01661
1896.50902	0.01679
1895.22325	0.01692
1893.93748	0.01705
1892.65171	0.01712
1891.36594	0.01704
1890.08018	0.01678
1888.79441	0.01646
1887.50864	0.01620
1886.22287	0.01608
1884.93710	0.01614
1883.65133	0.01636
1882.36556	0.01666
1881.07979	0.01697
1879.79402	0.01723
1878.50826	0.01735
1877.22249	0.01724
1875.93672	0.01688
1874.65095	0.01643
1873.36518	0.01607
1872.07941	0.01586
1870.79364	0.01581
1869.50787	0.01590
1868.22211	0.01616
1866.93634	0.01648
1865.65057	0.01672
1864.36480	0.01679
1863.07903	0.01676
1861.79326	0.01672
1860.50749	0.01676
1859.22172	0.01687
1857.93595	0.01698
1856.65019	0.01701
1855.36442	0.01688
1854.07865	0.01667
1852.79288	0.01649
1851.50711	0.01645
1850.22134	0.01659
1848.93557	0.01687
1847.64980	0.01714
1846.36404	0.01723
1845.07827	0.01714
1843.79250	0.01701
1842.50673	0.01695
1841.22096	0.01687
1839.93519	0.01667
1838.64942	0.01638
1837.36365	0.01606
1836.07788	0.01586
1834.79212	0.01589
1833.50635	0.01616
1832.22058	0.01650
1830.93481	0.01675
1829.64904	0.01696
1828.36327	0.01714
1827.07750	0.01724
1825.79173	0.01732
1824.50597	0.01754
1823.22020	0.01797
1821.93443	0.01846
1820.64866	0.01881
1819.36289	0.01882
1818.07712	0.01841
1816.79135	0.01773
1815.50558	0.01704
1814.21981	0.01651
1812.93405	0.01617
1811.64828	0.01599
1810.36251	0.01597
1809.07674	0.01611
1807.79097	0.01629
1806.50520	0.01646
1805.21943	0.01659
1803.93366	0.01669
1802.64790	0.01677
1801.36213	0.01687
1800.07636	0.01701
1798.79059	0.01720
1797.50482	0.01742
1796.21905	0.01765
1794.93328	0.01780
1793.64751	0.01783
1792.36174	0.01785
1791.07598	0.01794
1789.79021	0.01804
1788.50444	0.01803
1787.21867	0.01793
1785.93290	0.01783
1784.64713	0.01779
1783.36136	0.01782
1782.07559	0.01783
1780.78983	0.01782
1779.50406	0.01780
1778.21829	0.01778
1776.93252	0.01776
1775.64675	0.01772
1774.36098	0.01764
1773.07521	0.01761
1771.78944	0.01773
1770.50367	0.01787
1769.21791	0.01784
1767.93214	0.01773
1766.64637	0.01777
1765.36060	0.01794
1764.07483	0.01805
1762.78906	0.01806
1761.50329	0.01809
1760.21752	0.01816
1758.93176	0.01817
1757.64599	0.01808
1756.36022	0.01803
1755.07445	0.01804
1753.78868	0.01799
1752.50291	0.01788
1751.21714	0.01787
1749.93137	0.01805
1748.64560	0.01827
1747.35984	0.01840
1746.07407	0.01846
1744.78830	0.01852
1743.50253	0.01861
1742.21676	0.01869
1740.93099	0.01873
1739.64522	0.01886
1738.35945	0.01918
1737.07369	0.01947
1735.78792	0.01945
1734.50215	0.01930
1733.21638	0.01934
1731.93061	0.01954
1730.64484	0.01960
1729.35907	0.01952
1728.07330	0.01948
1726.78753	0.01952
1725.50177	0.01958
1724.21600	0.01972
1722.93023	0.02004
1721.64446	0.02053
1720.35869	0.02100
1719.07292	0.02131
1717.78715	0.02156
1716.50138	0.02187
1715.21561	0.02211
1713.92985	0.02223
1712.64408	0.02233
1711.35831	0.02254
1710.07254	0.02285
1708.78677	0.02316
1707.50100	0.02343
1706.21523	0.02376
1704.92946	0.02437
1703.64370	0.02514
1702.35793	0.02572
1701.07216	0.02607
1699.78639	0.02652
1698.50062	0.02698
1697.21485	0.02710
1695.92908	0.02701
1694.64331	0.02713
1693.35754	0.02738
1692.07178	0.02746
1690.78601	0.02754
1689.50024	0.02798
1688.21447	0.02870
1686.92870	0.02930
1685.64293	0.02958
1684.35716	0.02985
1683.07139	0.03028
1681.78563	0.03063
1680.49986	0.03079
1679.21409	0.03101
1677.92832	0.03138
1676.64255	0.03177
1675.35678	0.03215
1674.07101	0.03260
1672.78524	0.03302
1671.49947	0.03327
1670.21371	0.03344
1668.92794	0.03372
1667.64217	0.03415
1666.35640	0.03461
1665.07063	0.03496
1663.78486	0.03523
1662.49909	0.03551
1661.21332	0.03578
1659.92756	0.03601
1658.64179	0.03630
1657.35602	0.03679
1656.07025	0.03730
1654.78448	0.03752
1653.49871	0.03761
1652.21294	0.03797
1650.92717	0.03849
1649.64140	0.03866
1648.35564	0.03840
1647.06987	0.03813
1645.78410	0.03814
1644.49833	0.03833
1643.21256	0.03843
1641.92679	0.03839
1640.64102	0.03838
1639.35525	0.03847
1638.06949	0.03853
1636.78372	0.03851
1635.49795	0.03856
1634.21218	0.03876
1632.92641	0.03893
1631.64064	0.03892
1630.35487	0.03883
1629.06910	0.03882
1627.78333	0.03895
1626.49757	0.03912
1625.21180	0.03920
1623.92603	0.03918
1622.64026	0.03920
1621.35449	0.03934
1620.06872	0.03950
1618.78295	0.03952
1617.49718	0.03948
1616.21142	0.03960
1614.92565	0.03987
1613.63988	0.04009
1612.35411	0.04017
1611.06834	0.04025
1609.78257	0.04041
1608.49680	0.04058
1607.21103	0.04072
1605.92526	0.04083
1604.63950	0.04098
1603.35373	0.04122
1602.06796	0.04152
1600.78219	0.04181
1599.49642	0.04206
1598.21065	0.04226
1596.92488	0.04244
1595.63911	0.04263
1594.35335	0.04282
1593.06758	0.04301
1591.78181	0.04322
1590.49604	0.04344
1589.21027	0.04368
1587.92450	0.04392
1586.63873	0.04417
1585.35296	0.04443
1584.06719	0.04469
1582.78143	0.04496
1581.49566	0.04527
1580.20989	0.04564
1578.92412	0.04597
1577.63835	0.04615
1576.35258	0.04637
1575.06681	0.04684
1573.78104	0.04741
1572.49528	0.04775
1571.20951	0.04785
1569.92374	0.04797
1568.63797	0.04825
1567.35220	0.04856
1566.06643	0.04881
1564.78066	0.04914
1563.49489	0.04967
1562.20912	0.05020
1560.92336	0.05053
1559.63759	0.05078
1558.35182	0.05120
1557.06605	0.05165
1555.78028	0.05178
1554.49451	0.05165
1553.20874	0.05157
1551.92297	0.05164
1550.63721	0.05179
1549.35144	0.05204
1548.06567	0.05238
1546.77990	0.05267
1545.49413	0.05287
1544.20836	0.05304
1542.92259	0.05315
1541.63682	0.05310
1540.35105	0.05298
1539.06529	0.05303
1537.77952	0.05327
1536.49375	0.05343
1535.20798	0.05337
1533.92221	0.05332
1532.63644	0.05352
1531.35067	0.05393
1530.06490	0.05440
1528.77914	0.05493
1527.49337	0.05561
1526.20760	0.05646
1524.92183	0.05740
1523.63606	0.05830
1522.35029	0.05915
1521.06452	0.06018
1519.77875	0.06144
1518.49298	0.06269
1517.20722	0.06380
1515.92145	0.06493
1514.63568	0.06617
1513.34991	0.06752
1512.06414	0.06905
1510.77837	0.07079
1509.49260	0.07258
1508.20683	0.07424
1506.92107	0.07582
1505.63530	0.07748
1504.34953	0.07907
1503.06376	0.08037
1501.77799	0.08143
1500.49222	0.08251
1499.20645	0.08368
1497.92068	0.08483
1496.63491	0.08591
1495.34915	0.08698
1494.06338	0.08802
1492.77761	0.08896
1491.49184	0.08986
1490.20607	0.09085
1488.92030	0.09195
1487.63453	0.09307
1486.34876	0.09421
1485.06299	0.09541
1483.77723	0.09667
1482.49146	0.09799
1481.20569	0.09939
1479.91992	0.10082
1478.63415	0.10222
1477.34838	0.10354
1476.06261	0.10477
1474.77684	0.10587
1473.49108	0.10685
1472.20531	0.10778
1470.91954	0.10869
1469.63377	0.10947
1468.34800	0.11006
1467.06223	0.11050
1465.77646	0.11086
1464.49069	0.11127
1463.20492	0.11179
1461.91916	0.11244
1460.63339	0.11318
1459.34762	0.11388
1458.06185	0.11449
1456.77608	0.11516
1455.49031	0.11591
1454.20454	0.11649
1452.91877	0.11677
1451.63301	0.11691
1450.34724	0.11706
1449.06147	0.11723
1447.77570	0.11736
1446.48993	0.11741
1445.20416	0.11734
1443.91839	0.11713
1442.63262	0.11683
1441.34685	0.11655
1440.06109	0.11633
1438.77532	0.11614
1437.48955	0.11605
1436.20378	0.11623
1434.91801	0.11670
1433.63224	0.11731
1432.34647	0.11803
1431.06070	0.11900
1429.77494	0.12030
1428.48917	0.12185
1427.20340	0.12352
1425.91763	0.12523
1424.63186	0.12699
1423.34609	0.12880
1422.06032	0.13050
1420.77455	0.13191
1419.48878	0.13310
1418.20302	0.13420
1416.91725	0.13513
1415.63148	0.13577
1414.34571	0.13614
1413.05994	0.13634
1411.77417	0.13635
1410.48840	0.13612
1409.20263	0.13553
1407.91687	0.13454
1406.63110	0.13321
1405.34533	0.13165
1404.05956	0.12996
1402.77379	0.12813
1401.48802	0.12609
1400.20225	0.12384
1398.91648	0.12146
1397.63071	0.11897
1396.34495	0.11635
1395.05918	0.11364
1393.77341	0.11093
1392.48764	0.10828
1391.20187	0.10563
1389.91610	0.10297
1388.63033	0.10036
1387.34456	0.09786
1386.05880	0.09544
1384.77303	0.09299
1383.48726	0.09047
1382.20149	0.08793
1380.91572	0.08543
1379.62995	0.08298
1378.34418	0.08054
1377.05841	0.07806
1375.77264	0.07554
1374.48688	0.07301
1373.20111	0.07054
1371.91534	0.06816
1370.62957	0.06583
1369.34380	0.06358
1368.05803	0.06147
1366.77226	0.05954
1365.48649	0.05776
1364.20073	0.05605
1362.91496	0.05440
1361.62919	0.05282
1360.34342	0.05132
1359.05765	0.04990
1357.77188	0.04856
1356.48611	0.04732
1355.20034	0.04618
1353.91457	0.04510
1352.62881	0.04405
1351.34304	0.04304
1350.05727	0.04212
1348.77150	0.04129
1347.48573	0.04052
1346.19996	0.03978
1344.91419	0.03907
1343.62842	0.03839
1342.34266	0.03774
1341.05689	0.03714
1339.77112	0.03661
1338.48535	0.03616
1337.19958	0.03573
1335.91381	0.03530
1334.62804	0.03485
1333.34227	0.03442
1332.05650	0.03401
1330.77074	0.03362
1329.48497	0.03323
1328.19920	0.03287
1326.91343	0.03254
1325.62766	0.03225
1324.34189	0.03198
1323.05612	0.03172
1321.77035	0.03145
1320.48459	0.03115
1319.19882	0.03087
1317.91305	0.03060
1316.62728	0.03034
1315.34151	0.03008
1314.05574	0.02980
1312.76997	0.02955
1311.48420	0.02933
1310.19843	0.02915
1308.91267	0.02896
1307.62690	0.02876
1306.34113	0.02857
1305.05536	0.02843
1303.76959	0.02830
1302.48382	0.02816
1301.19805	0.02795
1299.91228	0.02769
1298.62652	0.02743
1297.34075	0.02721
1296.05498	0.02703
1294.76921	0.02684
1293.48344	0.02661
1292.19767	0.02636
1290.91190	0.02610
1289.62613	0.02589
1288.34036	0.02573
1287.05460	0.02562
1285.76883	0.02554
1284.48306	0.02548
1283.19729	0.02539
1281.91152	0.02527
1280.62575	0.02512
1279.33998	0.02494
1278.05421	0.02476
1276.76845	0.02458
1275.48268	0.02440
1274.19691	0.02422
1272.91114	0.02407
1271.62537	0.02395
1270.33960	0.02385
1269.05383	0.02376
1267.76806	0.02368
1266.48229	0.02359
1265.19653	0.02348
1263.91076	0.02335
1262.62499	0.02321
1261.33922	0.02309
1260.05345	0.02300
1258.76768	0.02292
1257.48191	0.02282
1256.19614	0.02270
1254.91037	0.02257
1253.62461	0.02245
1252.33884	0.02237
1251.05307	0.02230
1249.76730	0.02222
1248.48153	0.02213
1247.19576	0.02203
1245.90999	0.02191
1244.62422	0.02180
1243.33846	0.02168
1242.05269	0.02157
1240.76692	0.02150
1239.48115	0.02144
1238.19538	0.02137
1236.90961	0.02125
1235.62384	0.02110
1234.33807	0.02095
1233.05230	0.02084
1231.76654	0.02077
1230.48077	0.02072
1229.19500	0.02066
1227.90923	0.02059
1226.62346	0.02050
1225.33769	0.02040
1224.05192	0.02028
1222.76615	0.02015
1221.48039	0.02004
1220.19462	0.01995
1218.90885	0.01986
1217.62308	0.01975
1216.33731	0.01962
1215.05154	0.01951
1213.76577	0.01946
1212.48000	0.01943
1211.19423	0.01942
1209.90847	0.01942
1208.62270	0.01942
1207.33693	0.01945
1206.05116	0.01949
1204.76539	0.01954
1203.47962	0.01958
1202.19385	0.01960
1200.90808	0.01943
1199.62232	0.01901
1198.33655	0.01896
1197.05078	0.01892
1195.76501	0.01889
1194.47924	0.01886
1193.19347	0.01882
1191.90770	0.01877
1190.62193	0.01872
1189.33616	0.01868
1188.05040	0.01869
1186.76463	0.01876
1185.47886	0.01886
1184.19309	0.01895
1182.90732	0.01900
1181.62155	0.01901
1180.33578	0.01901
1179.05001	0.01902
1177.76425	0.01906
1176.47848	0.01913
1175.19271	0.01921
1173.90694	0.01927
1172.62117	0.01933
1171.33540	0.01941
1170.04963	0.01952
1168.76386	0.01964
1167.47809	0.01980
1166.19233	0.01998
1164.90656	0.02019
1163.62079	0.02041
1162.33502	0.02066
1161.04925	0.02093
1159.76348	0.02125
1158.47771	0.02161
1157.19194	0.02200
1155.90618	0.02238
1154.62041	0.02273
1153.33464	0.02312
1152.04887	0.02360
1150.76310	0.02419
1149.47733	0.02484
1148.19156	0.02552
1146.90579	0.02624
1145.62002	0.02698
1144.33426	0.02776
1143.04849	0.02859
1141.76272	0.02951
1140.47695	0.03056
1139.19118	0.03178
1137.90541	0.03317
1136.61964	0.03475
1135.33387	0.03652
1134.04811	0.03849
1132.76234	0.04063
1131.47657	0.04298
1130.19080	0.04557
1128.90503	0.04841
1127.61926	0.05146
1126.33349	0.05470
1125.04772	0.05817
1123.76195	0.06188
1122.47619	0.06584
1121.19042	0.06995
1119.90465	0.07409
1118.61888	0.07822
1117.33311	0.08233
1116.04734	0.08646
1114.76157	0.09064
1113.47580	0.09486
1112.19004	0.09904
1110.90427	0.10312
1109.61850	0.10707
1108.33273	0.11091
1107.04696	0.11467
1105.76119	0.11838
1104.47542	0.12205
1103.18965	0.12563
1101.90388	0.12909
1100.61812	0.13242
1099.33235	0.13563
1098.04658	0.13875
1096.76081	0.14181
1095.47504	0.14480
1094.18927	0.14769
1092.90350	0.15047
1091.61773	0.15313
1090.33197	0.15570
1089.04620	0.15817
1087.76043	0.16049
1086.47466	0.16268
1085.18889	0.16481
1083.90312	0.16703
1082.61735	0.16945
1081.33158	0.17213
1080.04581	0.17506
1078.76005	0.17821
1077.47428	0.18155
1076.18851	0.18505
1074.90274	0.18874
1073.61697	0.19259
1072.33120	0.19654
1071.04543	0.20055
1069.75966	0.20462
1068.47390	0.20883
1067.18813	0.21327
1065.90236	0.21793
1064.61659	0.22269
1063.33082	0.22741
1062.04505	0.23203
1060.75928	0.23659
1059.47351	0.24116
1058.18774	0.24574
1056.90198	0.25027
1055.61621	0.25470
1054.33044	0.25904
1053.04467	0.26337
1051.75890	0.26783
1050.47313	0.27252
1049.18736	0.27746
1047.90159	0.28254
1046.61583	0.28770
1045.33006	0.29292
1044.04429	0.29824
1042.75852	0.30366
1041.47275	0.30917
1040.18698	0.31475
1038.90121	0.32040
1037.61544	0.32614
1036.32967	0.33198
1035.04391	0.33785
1033.75814	0.34358
1032.47237	0.34897
1031.18660	0.35386
1029.90083	0.35827
1028.61506	0.36225
1027.32929	0.36583
1026.04352	0.36890
1024.75775	0.37133
1023.47199	0.37305
1022.18622	0.37415
1020.90045	0.37470
1019.61468	0.37470
1018.32891	0.37403
1017.04314	0.37251
1015.75737	0.37008
1014.47160	0.36684
1013.18584	0.36287
1011.90007	0.35814
1010.61430	0.35251
1009.32853	0.34596
1008.04276	0.33861
1006.75699	0.33061
1005.47122	0.32201
1004.18545	0.31282
1002.89968	0.30304
1001.61392	0.29277
1000.32815	0.28213
999.04238	0.27122
997.75661	0.26016
996.47084	0.24908
995.18507	0.23808
993.89930	0.22725
992.61353	0.21670
991.32777	0.20653
990.04200	0.19676
988.75623	0.18739
987.47046	0.17841
986.18469	0.16985
984.89892	0.16181
983.61315	0.15434
982.32738	0.14740
981.04161	0.14096
979.75585	0.13498
978.47008	0.12948
977.18431	0.12452
975.89854	0.12020
974.61277	0.11658
973.32700	0.11370
972.04123	0.11155
970.75546	0.11009
969.46970	0.10931
968.18393	0.10923
966.89816	0.10986
965.61239	0.11107
964.32662	0.11255
963.04085	0.11392
961.75508	0.11480
960.46931	0.11494
959.18354	0.11418
957.89778	0.11251
956.61201	0.11009
955.32624	0.10714
954.04047	0.10391
952.75470	0.10057
951.46893	0.09722
950.18316	0.09393
948.89739	0.09072
947.61163	0.08762
946.32586	0.08469
945.04009	0.08195
943.75432	0.07942
942.46855	0.07702
941.18278	0.07470
939.89701	0.07241
938.61124	0.07020
937.32547	0.06816
936.03971	0.06631
934.75394	0.06468
933.46817	0.06322
932.18240	0.06189
930.89663	0.06062
929.61086	0.05937
928.32509	0.05821
927.03932	0.05718
925.75356	0.05629
924.46779	0.05548
923.18202	0.05469
921.89625	0.05394
920.61048	0.05323
919.32471	0.05256
918.03894	0.05191
916.75317	0.05128
915.46740	0.05069
914.18164	0.05016
912.89587	0.04972
911.61010	0.04933
910.32433	0.04893
909.03856	0.04848
907.75279	0.04798
906.46702	0.04747
905.18125	0.04700
903.89549	0.04664
902.60972	0.04637
901.32395	0.04614
900.03818	0.04588
898.75241	0.04559
897.46664	0.04534
896.18087	0.04513
894.89510	0.04500
893.60933	0.04498
892.32357	0.04519
891.03780	0.04571
889.75203	0.04657
888.46626	0.04773
887.18049	0.04924
885.89472	0.05128
884.60895	0.05408
883.32318	0.05775
882.03742	0.06201
880.75165	0.06621
879.46588	0.06960
878.18011	0.07190
876.89434	0.07347
875.60857	0.07491
874.32280	0.07644
873.03703	0.07774
871.75126	0.07827
870.46550	0.07770
869.17973	0.07607
867.89396	0.07363
866.60819	0.07065
865.32242	0.06735
864.03665	0.06392
862.75088	0.06059
861.46511	0.05755
860.17935	0.05495
858.89358	0.05283
857.60781	0.05116
856.32204	0.04978
855.03627	0.04856
853.75050	0.04746
852.46473	0.04651
851.17896	0.04579
849.89319	0.04524
848.60743	0.04477
847.32166	0.04427
846.03589	0.04376
844.75012	0.04330
843.46435	0.04292
842.17858	0.04258
840.89281	0.04222
839.60704	0.04182
838.32128	0.04140
837.03551	0.04099
835.74974	0.04062
834.46397	0.04035
833.17820	0.04023
831.89243	0.04019
830.60666	0.04010
829.32089	0.03989
828.03512	0.03960
826.74936	0.03935
825.46359	0.03921
824.17782	0.03920
822.89205	0.03925
821.60628	0.03926
820.32051	0.03916
819.03474	0.03895
817.74897	0.03872
816.46321	0.03860
815.17744	0.03859
813.89167	0.03864
812.60590	0.03866
811.32013	0.03863
810.03436	0.03851
808.74859	0.03830
807.46282	0.03801
806.17705	0.03775
804.89129	0.03761
803.60552	0.03760
802.31975	0.03766
801.03398	0.03773
799.74821	0.03776
798.46244	0.03774
797.17667	0.03766
795.89090	0.03755
794.60513	0.03744
793.31937	0.03734
792.03360	0.03723
790.74783	0.03716
789.46206	0.03718
788.17629	0.03725
786.89052	0.03728
785.60475	0.03719
784.31898	0.03699
783.03322	0.03676
781.74745	0.03656
780.46168	0.03643
779.17591	0.03637
777.89014	0.03636
776.60437	0.03643
775.31860	0.03656
774.03283	0.03673
772.74706	0.03685
771.46130	0.03685
770.17553	0.03674
768.88976	0.03660
767.60399	0.03653
766.31822	0.03658
765.03245	0.03674
763.74668	0.03695
762.46091	0.03719
761.17515	0.03744
759.88938	0.03767
758.60361	0.03779
757.31784	0.03773
756.03207	0.03754
754.74630	0.03733
753.46053	0.03724
752.17476	0.03729
750.88899	0.03741
749.60323	0.03746
748.31746	0.03739
747.03169	0.03725
745.74592	0.03712
744.46015	0.03698
743.17438	0.03679
741.88861	0.03655
740.60284	0.03634
739.31708	0.03621
738.03131	0.03623
736.74554	0.03646
735.45977	0.03678
734.17400	0.03700
732.88823	0.03698
731.60246	0.03687
730.31669	0.03690
729.03092	0.03714
727.74516	0.03743
726.45939	0.03758
725.17362	0.03753
723.88785	0.03738
722.60208	0.03728
721.31631	0.03720
720.03054	0.03712
718.74477	0.03703
717.45901	0.03698
716.17324	0.03699
714.88747	0.03705
713.60170	0.03711
712.31593	0.03712
711.03016	0.03707
709.74439	0.03700
708.45862	0.03692
707.17285	0.03683
705.88709	0.03672
704.60132	0.03661
703.31555	0.03652
702.02978	0.03646
700.74401	0.03645
699.45824	0.03649
698.17247	0.03655
696.88670	0.03662
695.60094	0.03668
694.31517	0.03668
693.02940	0.03665
691.74363	0.03659
690.45786	0.03653
689.17209	0.03650
687.88632	0.03648
686.60055	0.03645
685.31478	0.03640
684.02902	0.03627
682.74325	0.03611
681.45748	0.03598
680.17171	0.03594
678.88594	0.03595
677.60017	0.03593
676.31440	0.03584
675.02863	0.03580
673.74287	0.03587
672.45710	0.03604
671.17133	0.03622
669.88556	0.03632
668.59979	0.03648
667.31402	0.03662
666.02825	0.03646
664.74248	0.03631
663.45671	0.03608
662.17095	0.03582
660.88518	0.03562
659.59941	0.03550
658.31364	0.03541
657.02787	0.03532
655.74210	0.03529
654.45633	0.03531
653.17056	0.03536
651.88480	0.03540
650.59903	0.03538
649.31326	0.03534
648.02749	0.03530
646.74172	0.03533
645.45595	0.03541
644.17018	0.03552
642.88441	0.03566
641.59864	0.03583
640.31288	0.03605
639.02711	0.03630
637.74134	0.03657
636.45557	0.03687
635.16980	0.03723
633.88403	0.03764
632.59826	0.03802
631.31249	0.03872
630.02673	0.04124
628.74096	0.04494
627.45519	0.04401
626.16942	0.04854
624.88365	0.05674
623.59788	0.06459
622.31211	0.07074
621.02634	0.07507
619.74057	0.07794
618.45481	0.07979
617.16904	0.08090
615.88327	0.08158
614.59750	0.08258
613.31173	0.08524
612.02596	0.09058
610.74019	0.09823
609.45442	0.10637
608.16866	0.11343
606.88289	0.11929
605.59712	0.12460
604.31135	0.12953
603.02558	0.13329
601.73981	0.13477
600.45404	0.13343
599.16827	0.12971
597.88250	0.12465
596.59674	0.11933
595.31097	0.11453
594.02520	0.11063
592.73943	0.10773
591.45366	0.10574
590.16789	0.10454
588.88212	0.10406
587.59635	0.10428
586.31059	0.10517
585.02482	0.10669
583.73905	0.10886
582.45328	0.11169
581.16751	0.11514
579.88174	0.11903
578.59597	0.12309
577.31020	0.12708
576.02443	0.13091
574.73867	0.13461
573.45290	0.13830
572.16713	0.14205
570.88136	0.14602
569.59559	0.15040
568.30982	0.15533
567.02405	0.16071
565.73828	0.16609
564.45251	0.17079
563.16675	0.17411
561.88098	0.17546
560.59521	0.17447
559.30944	0.17106
558.02367	0.16542
556.73790	0.15804
555.45213	0.14959
554.16636	0.14071
552.88060	0.13185
551.59483	0.12329
550.30906	0.11522
549.02329	0.10782
547.73752	0.10121
546.45175	0.09539
545.16598	0.09031
543.88021	0.08583
542.59444	0.08179
541.30868	0.07808
540.02291	0.07468
538.73714	0.07159
537.45137	0.06883
536.16560	0.06634
534.87983	0.06404
533.59406	0.06188
532.30829	0.05989
531.02253	0.05811
529.73676	0.05655
528.45099	0.05516
527.16522	0.05387
525.87945	0.05266
524.59368	0.05154
523.30791	0.05042
522.02214	0.04924
520.73637	0.04797
519.45061	0.04670
518.16484	0.04556
516.87907	0.04461
515.59330	0.04382
514.30753	0.04310
513.02176	0.04241
511.73599	0.04173
510.45022	0.04105
509.16446	0.04039
507.87869	0.03975
506.59292	0.03912
505.30715	0.03845
504.02138	0.03773
502.73561	0.03700
501.44984	0.03633
500.16407	0.03575
498.87830	0.03526
497.59254	0.03488
496.30677	0.03458
495.02100	0.03432
493.73523	0.03409
492.44946	0.03393
491.16369	0.03386
489.87792	0.03387
488.59215	0.03387
487.30639	0.03381
486.02062	0.03364
484.73485	0.03340
483.44908	0.03319
482.16331	0.03306
480.87754	0.03305
479.59177	0.03314
478.30600	0.03328
477.02023	0.03345
475.73447	0.03364
474.44870	0.03386
473.16293	0.03414
471.87716	0.03445
470.59139	0.03473
469.30562	0.03486
468.01985	0.03476
466.73408	0.03445
465.44832	0.03403
464.16255	0.03360
462.87678	0.03322
461.59101	0.03287
460.30524	0.03252
459.01947	0.03214
457.73370	0.03174
456.44793	0.03135
455.16216	0.03097
453.87640	0.03059
452.59063	0.03025
451.30486	0.02995
450.01909	0.02969
448.73332	0.02947
447.44755	0.02929
446.16178	0.02912
444.87601	0.02894
443.59025	0.02874
442.30448	0.02858
441.01871	0.02851
439.73294	0.02851
438.44717	0.02858
437.16140	0.02867
435.87563	0.02874
434.58986	0.02876
433.30409	0.02871
432.01833	0.02864
430.73256	0.02862
429.44679	0.02865
428.16102	0.02869
426.87525	0.02868
425.58948	0.02863
424.30371	0.02856
423.01794	0.02851
421.73218	0.02847
420.44641	0.02839
419.16064	0.02829
417.87487	0.02818
416.58910	0.02808
415.30333	0.02800
414.01756	0.02797
412.73179	0.02802
411.44602	0.02813
410.16026	0.02831
408.87449	0.02855
407.58872	0.02881
406.30295	0.02904
405.01718	0.02919
403.73141	0.02931
402.44564	0.02941
401.15987	0.02953
399.87411	0.02966
