3997.45528	0.00887
3996.16951	0.00841
3994.88374	0.00799
3993.59798	0.00778
3992.31221	0.00785
3991.02644	0.00803
3989.74067	0.00814
3988.45490	0.00818
3987.16913	0.00834
3985.88336	0.00868
3984.59759	0.00908
3983.31183	0.00941
3982.02606	0.00964
3980.74029	0.00973
3979.45452	0.00950
3978.16875	0.00881
3976.88298	0.00781
3975.59721	0.00686
3974.31144	0.00638
3973.02567	0.00664
3971.73991	0.00756
3970.45414	0.00874
3969.16837	0.00958
3967.88260	0.00977
3966.59683	0.00944
3965.31106	0.00894
3964.02529	0.00858
3962.73952	0.00850
3961.45376	0.00867
3960.16799	0.00884
3958.88222	0.00868
3957.59645	0.00807
3956.31068	0.00718
3955.02491	0.00630
3953.73914	0.00560
3952.45337	0.00516
3951.16760	0.00508
3949.88184	0.00539
3948.59607	0.00605
3947.31030	0.00695
3946.02453	0.00797
3944.73876	0.00878
3943.45299	0.00903
3942.16722	0.00858
3940.88145	0.00769
3939.59569	0.00688
3938.30992	0.00657
3937.02415	0.00678
3935.73838	0.00719
3934.45261	0.00744
3933.16684	0.00744
3931.88107	0.00730
3930.59530	0.00714
3929.30953	0.00701
3928.02377	0.00689
3926.73800	0.00673
3925.45223	0.00644
3924.16646	0.00608
3922.88069	0.00590
3921.59492	0.00609
3920.30915	0.00646
3919.02338	0.00651
3917.73762	0.00602
3916.45185	0.00540
3915.16608	0.00527
3913.88031	0.00576
3912.59454	0.00643
3911.30877	0.00683
3910.02300	0.00702
3908.73723	0.00731
3907.45146	0.00774
3906.16570	0.00801
3904.87993	0.00786
3903.59416	0.00736
3902.30839	0.00683
3901.02262	0.00654
3899.73685	0.00649
3898.45108	0.00646
3897.16531	0.00619
3895.87955	0.00571
3894.59378	0.00532
3893.30801	0.00529
3892.02224	0.00559
3890.73647	0.00608
3889.45070	0.00659
3888.16493	0.00697
3886.87916	0.00720
3885.59339	0.00739
3884.30763	0.00764
3883.02186	0.00787
3881.73609	0.00797
3880.45032	0.00795
3879.16455	0.00788
3877.87878	0.00779
3876.59301	0.00767
3875.30724	0.00752
3874.02148	0.00729
3872.73571	0.00686
3871.44994	0.00625
3870.16417	0.00585
3868.87840	0.00606
3867.59263	0.00673
3866.30686	0.00729
3865.02109	0.00735
3863.73532	0.00694
3862.44956	0.00641
3861.16379	0.00623
3859.87802	0.00667
3858.59225	0.00747
3857.30648	0.00814
3856.02071	0.00830
3854.73494	0.00806
3853.44917	0.00785
3852.16341	0.00790
3850.87764	0.00803
3849.59187	0.00798
3848.30610	0.00764
3847.02033	0.00707
3845.73456	0.00642
3844.44879	0.00589
3843.16302	0.00565
3841.87725	0.00572
3840.59149	0.00590
3839.30572	0.00607
3838.01995	0.00629
3836.73418	0.00660
3835.44841	0.00677
3834.16264	0.00657
3832.87687	0.00611
3831.59110	0.00572
3830.30534	0.00560
3829.01957	0.00570
3827.73380	0.00597
3826.44803	0.00650
3825.16226	0.00728
3823.87649	0.00795
3822.59072	0.00811
3821.30495	0.00770
3820.01918	0.00703
3818.73342	0.00643
3817.44765	0.00606
3816.16188	0.00608
3814.87611	0.00645
3813.59034	0.00689
3812.30457	0.00722
3811.01880	0.00739
3809.73303	0.00725
3808.44726	0.00664
3807.16150	0.00588
3805.87573	0.00543
3804.58996	0.00532
3803.30419	0.00521
3802.01842	0.00499
3800.73265	0.00486
3799.44688	0.00484
3798.16111	0.00483
3796.87535	0.00495
3795.58958	0.00545
3794.30381	0.00620
3793.01804	0.00687
3791.73227	0.00717
3790.44650	0.00706
3789.16073	0.00669
3787.87496	0.00628
3786.58919	0.00603
3785.30343	0.00604
3784.01766	0.00622
3782.73189	0.00636
3781.44612	0.00633
3780.16035	0.00623
3778.87458	0.00632
3777.58881	0.00660
3776.30304	0.00685
3775.01728	0.00690
3773.73151	0.00686
3772.44574	0.00685
3771.15997	0.00694
3769.87420	0.00712
3768.58843	0.00726
3767.30266	0.00725
3766.01689	0.00717
3764.73112	0.00728
3763.44536	0.00761
3762.15959	0.00796
3760.87382	0.00815
3759.58805	0.00824
3758.30228	0.00833
3757.01651	0.00835
3755.73074	0.00820
3754.44497	0.00779
3753.15921	0.00725
3751.87344	0.00683
3750.58767	0.00675
3749.30190	0.00708
3748.01613	0.00765
3746.73036	0.00798
3745.44459	0.00783
3744.15882	0.00751
3742.87305	0.00728
3741.58729	0.00710
3740.30152	0.00702
3739.01575	0.00716
3737.72998	0.00739
3736.44421	0.00748
3735.15844	0.00729
3733.87267	0.00685
3732.58690	0.00631
3731.30114	0.00585
3730.01537	0.00549
3728.72960	0.00522
3727.44383	0.00514
3726.15806	0.00529
3724.87229	0.00548
3723.58652	0.00546
3722.30075	0.00522
3721.01498	0.00500
3719.72922	0.00509
3718.44345	0.00572
3717.15768	0.00692
3715.87191	0.00831
3714.58614	0.00917
3713.30037	0.00885
3712.01460	0.00734
3710.72883	0.00534
3709.44307	0.00376
3708.15730	0.00320
3706.87153	0.00366
3705.58576	0.00467
3704.29999	0.00563
3703.01422	0.00633
3701.72845	0.00693
3700.44268	0.00748
3699.15691	0.00776
3697.87115	0.00774
3696.58538	0.00771
3695.29961	0.00786
3694.01384	0.00813
3692.72807	0.00835
3691.44230	0.00811
3690.15653	0.00721
3688.87076	0.00610
3687.58500	0.00551
3686.29923	0.00552
3685.01346	0.00562
3683.72769	0.00545
3682.44192	0.00513
3681.15615	0.00508
3679.87038	0.00552
3678.58461	0.00619
3677.29884	0.00669
3676.01308	0.00698
3674.72731	0.00743
3673.44154	0.00811
3672.15577	0.00860
3670.87000	0.00859
3669.58423	0.00816
3668.29846	0.00737
3667.01269	0.00623
3665.72693	0.00484
3664.44116	0.00365
3663.15539	0.00325
3661.86962	0.00388
3660.58385	0.00508
3659.29808	0.00602
3658.01231	0.00620
3656.72654	0.00586
3655.44077	0.00563
3654.15501	0.00578
3652.86924	0.00615
3651.58347	0.00654
3650.29770	0.00700
3649.01193	0.00752
3647.72616	0.00787
3646.44039	0.00785
3645.15462	0.00761
3643.86886	0.00755
3642.58309	0.00776
3641.29732	0.00800
3640.01155	0.00811
3638.72578	0.00821
3637.44001	0.00838
3636.15424	0.00845
3634.86847	0.00813
3633.58270	0.00748
3632.29694	0.00673
3631.01117	0.00613
3629.72540	0.00588
3628.43963	0.00614
3627.15386	0.00665
3625.86809	0.00694
3624.58232	0.00693
3623.29655	0.00696
3622.01079	0.00727
3620.72502	0.00774
3619.43925	0.00809
3618.15348	0.00827
3616.86771	0.00844
3615.58194	0.00858
3614.29617	0.00840
3613.01040	0.00765
3611.72463	0.00650
3610.43887	0.00550
3609.15310	0.00520
3607.86733	0.00559
3606.58156	0.00611
3605.29579	0.00616
3604.01002	0.00562
3602.72425	0.00495
3601.43848	0.00474
3600.15272	0.00523
3598.86695	0.00607
3597.58118	0.00674
3596.29541	0.00704
3595.00964	0.00709
3593.72387	0.00694
3592.43810	0.00671
3591.15233	0.00662
3589.86656	0.00689
3588.58080	0.00753
3587.29503	0.00825
3586.00926	0.00863
3584.72349	0.00842
3583.43772	0.00788
3582.15195	0.00742
3580.86618	0.00724
3579.58041	0.00722
3578.29464	0.00712
3577.00888	0.00685
3575.72311	0.00660
3574.43734	0.00662
3573.15157	0.00701
3571.86580	0.00767
3570.58003	0.00837
3569.29426	0.00889
3568.00849	0.00904
3566.72273	0.00876
3565.43696	0.00820
3564.15119	0.00766
3562.86542	0.00736
3561.57965	0.00728
3560.29388	0.00718
3559.00811	0.00678
3557.72234	0.00605
3556.43657	0.00526
3555.15081	0.00483
3553.86504	0.00510
3552.57927	0.00609
3551.29350	0.00736
3550.00773	0.00827
3548.72196	0.00851
3547.43619	0.00831
3546.15042	0.00807
3544.86466	0.00791
3543.57889	0.00772
3542.29312	0.00750
3541.00735	0.00745
3539.72158	0.00758
3538.43581	0.00758
3537.15004	0.00716
3535.86427	0.00636
3534.57850	0.00559
3533.29274	0.00530
3532.00697	0.00567
3530.72120	0.00648
3529.43543	0.00725
3528.14966	0.00759
3526.86389	0.00748
3525.57812	0.00724
3524.29235	0.00718
3523.00659	0.00739
3521.72082	0.00761
3520.43505	0.00755
3519.14928	0.00718
3517.86351	0.00678
3516.57774	0.00665
3515.29197	0.00674
3514.00620	0.00679
3512.72043	0.00664
3511.43467	0.00637
3510.14890	0.00618
3508.86313	0.00622
3507.57736	0.00649
3506.29159	0.00696
3505.00582	0.00754
3503.72005	0.00802
3502.43428	0.00816
3501.14852	0.00790
3499.86275	0.00742
3498.57698	0.00697
3497.29121	0.00661
3496.00544	0.00623
3494.71967	0.00577
3493.43390	0.00541
3492.14813	0.00541
3490.86236	0.00586
3489.57660	0.00653
3488.29083	0.00703
3487.00506	0.00708
3485.71929	0.00666
3484.43352	0.00596
3483.14775	0.00522
3481.86198	0.00465
3480.57621	0.00446
3479.29045	0.00478
3478.00468	0.00559
3476.71891	0.00660
3475.43314	0.00740
3474.14737	0.00762
3472.86160	0.00722
3471.57583	0.00652
3470.29006	0.00605
3469.00429	0.00612
3467.71853	0.00663
3466.43276	0.00718
3465.14699	0.00744
3463.86122	0.00732
3462.57545	0.00698
3461.28968	0.00667
3460.00391	0.00660
3458.71814	0.00679
3457.43238	0.00722
3456.14661	0.00786
3454.86084	0.00856
3453.57507	0.00899
3452.28930	0.00886
3451.00353	0.00826
3449.71776	0.00764
3448.43199	0.00735
3447.14622	0.00740
3445.86046	0.00754
3444.57469	0.00759
3443.28892	0.00761
3442.00315	0.00767
3440.71738	0.00780
3439.43161	0.00785
3438.14584	0.00771
3436.86007	0.00739
3435.57431	0.00712
3434.28854	0.00711
3433.00277	0.00738
3431.71700	0.00772
3430.43123	0.00803
3429.14546	0.00835
3427.85969	0.00876
3426.57392	0.00919
3425.28815	0.00943
3424.00239	0.00932
3422.71662	0.00889
3421.43085	0.00832
3420.14508	0.00784
3418.85931	0.00757
3417.57354	0.00741
3416.28777	0.00720
3415.00200	0.00685
3413.71624	0.00640
3412.43047	0.00595
3411.14470	0.00563
3409.85893	0.00556
3408.57316	0.00577
3407.28739	0.00620
3406.00162	0.00673
3404.71585	0.00719
3403.43008	0.00745
3402.14432	0.00737
3400.85855	0.00692
3399.57278	0.00630
3398.28701	0.00582
3397.00124	0.00574
3395.71547	0.00606
3394.42970	0.00660
3393.14393	0.00720
3391.85817	0.00779
3390.57240	0.00823
3389.28663	0.00833
3388.00086	0.00803
3386.71509	0.00747
3385.42932	0.00691
3384.14355	0.00651
3382.85778	0.00627
3381.57201	0.00612
3380.28625	0.00603
3379.00048	0.00602
3377.71471	0.00612
3376.42894	0.00640
3375.14317	0.00685
3373.85740	0.00739
3372.57163	0.00778
3371.28586	0.00784
3370.00010	0.00766
3368.71433	0.00750
3367.42856	0.00757
3366.14279	0.00770
3364.85702	0.00761
3363.57125	0.00721
3362.28548	0.00672
3360.99971	0.00650
3359.71394	0.00674
3358.42818	0.00738
3357.14241	0.00812
3355.85664	0.00856
3354.57087	0.00845
3353.28510	0.00788
3351.99933	0.00723
3350.71356	0.00686
3349.42779	0.00685
3348.14202	0.00700
3346.85626	0.00706
3345.57049	0.00693
3344.28472	0.00672
3342.99895	0.00662
3341.71318	0.00674
3340.42741	0.00709
3339.14164	0.00751
3337.85587	0.00780
3336.57011	0.00780
3335.28434	0.00747
3333.99857	0.00697
3332.71280	0.00656
3331.42703	0.00648
3330.14126	0.00673
3328.85549	0.00714
3327.56972	0.00753
3326.28395	0.00783
3324.99819	0.00803
3323.71242	0.00808
3322.42665	0.00794
3321.14088	0.00766
3319.85511	0.00741
3318.56934	0.00733
3317.28357	0.00747
3315.99780	0.00774
3314.71204	0.00796
3313.42627	0.00801
3312.14050	0.00792
3310.85473	0.00775
3309.56896	0.00750
3308.28319	0.00721
3306.99742	0.00694
3305.71165	0.00681
3304.42588	0.00675
3303.14012	0.00657
3301.85435	0.00619
3300.56858	0.00580
3299.28281	0.00570
3297.99704	0.00601
3296.71127	0.00652
3295.42550	0.00699
3294.13973	0.00731
3292.85397	0.00749
3291.56820	0.00754
3290.28243	0.00735
3288.99666	0.00688
3287.71089	0.00626
3286.42512	0.00579
3285.13935	0.00572
3283.85358	0.00612
3282.56781	0.00676
3281.28205	0.00723
3279.99628	0.00724
3278.71051	0.00682
3277.42474	0.00631
3276.13897	0.00604
3274.85320	0.00607
3273.56743	0.00626
3272.28166	0.00635
3270.99590	0.00616
3269.71013	0.00570
3268.42436	0.00519
3267.13859	0.00499
3265.85282	0.00524
3264.56705	0.00577
3263.28128	0.00631
3261.99551	0.00672
3260.70974	0.00707
3259.42398	0.00743
3258.13821	0.00774
3256.85244	0.00779
3255.56667	0.00751
3254.28090	0.00704
3252.99513	0.00666
3251.70936	0.00648
3250.42359	0.00641
3249.13783	0.00635
3247.85206	0.00632
3246.56629	0.00647
3245.28052	0.00681
3243.99475	0.00719
3242.70898	0.00740
3241.42321	0.00733
3240.13744	0.00705
3238.85167	0.00672
3237.56591	0.00640
3236.28014	0.00610
3234.99437	0.00580
3233.70860	0.00554
3232.42283	0.00537
3231.13706	0.00536
3229.85129	0.00553
3228.56552	0.00585
3227.27976	0.00620
3225.99399	0.00649
3224.70822	0.00670
3223.42245	0.00684
3222.13668	0.00692
3220.85091	0.00693
3219.56514	0.00690
3218.27937	0.00687
3216.99360	0.00688
3215.70784	0.00697
3214.42207	0.00713
3213.13630	0.00724
3211.85053	0.00712
3210.56476	0.00678
3209.27899	0.00643
3207.99322	0.00623
3206.70745	0.00609
3205.42169	0.00582
3204.13592	0.00548
3202.85015	0.00536
3201.56438	0.00556
3200.27861	0.00590
3198.99284	0.00614
3197.70707	0.00632
3196.42130	0.00664
3195.13553	0.00711
3193.84977	0.00743
3192.56400	0.00729
3191.27823	0.00674
3189.99246	0.00614
3188.70669	0.00588
3187.42092	0.00605
3186.13515	0.00643
3184.84938	0.00671
3183.56362	0.00675
3182.27785	0.00666
3180.99208	0.00668
3179.70631	0.00687
3178.42054	0.00712
3177.13477	0.00717
3175.84900	0.00691
3174.56323	0.00640
3173.27746	0.00586
3171.99170	0.00549
3170.70593	0.00540
3169.42016	0.00550
3168.13439	0.00564
3166.84862	0.00567
3165.56285	0.00564
3164.27708	0.00575
3162.99131	0.00604
3161.70555	0.00633
3160.41978	0.00634
3159.13401	0.00605
3157.84824	0.00571
3156.56247	0.00558
3155.27670	0.00572
3153.99093	0.00596
3152.70516	0.00612
3151.41939	0.00623
3150.13363	0.00637
3148.84786	0.00655
3147.56209	0.00663
3146.27632	0.00652
3144.99055	0.00624
3143.70478	0.00592
3142.41901	0.00573
3141.13324	0.00578
3139.84748	0.00611
3138.56171	0.00654
3137.27594	0.00676
3135.99017	0.00662
3134.70440	0.00629
3133.41863	0.00607
3132.13286	0.00611
3130.84709	0.00633
3129.56132	0.00651
3128.27556	0.00649
3126.98979	0.00628
3125.70402	0.00604
3124.41825	0.00593
3123.13248	0.00599
3121.84671	0.00614
3120.56094	0.00630
3119.27517	0.00642
3117.98940	0.00650
3116.70364	0.00648
3115.41787	0.00630
3114.13210	0.00597
3112.84633	0.00562
3111.56056	0.00545
3110.27479	0.00560
3108.98902	0.00591
3107.70325	0.00612
3106.41749	0.00606
3105.13172	0.00576
3103.84595	0.00536
3102.56018	0.00503
3101.27441	0.00490
3099.98864	0.00503
3098.70287	0.00533
3097.41710	0.00559
3096.13133	0.00568
3094.84557	0.00559
3093.55980	0.00540
3092.27403	0.00525
3090.98826	0.00519
3089.70249	0.00515
3088.41672	0.00503
3087.13095	0.00489
3085.84518	0.00490
3084.55942	0.00520
3083.27365	0.00566
3081.98788	0.00603
3080.70211	0.00614
3079.41634	0.00604
3078.13057	0.00587
3076.84480	0.00575
3075.55903	0.00575
3074.27326	0.00582
3072.98750	0.00587
3071.70173	0.00576
3070.41596	0.00547
3069.13019	0.00512
3067.84442	0.00489
3066.55865	0.00476
3065.27288	0.00459
3063.98711	0.00435
3062.70135	0.00413
3061.41558	0.00407
3060.12981	0.00414
3058.84404	0.00422
3057.55827	0.00422
3056.27250	0.00416
3054.98673	0.00411
3053.70096	0.00417
3052.41519	0.00441
3051.12943	0.00481
3049.84366	0.00525
3048.55789	0.00556
3047.27212	0.00562
3045.98635	0.00543
3044.70058	0.00508
3043.41481	0.00470
3042.12904	0.00444
3040.84328	0.00439
3039.55751	0.00459
3038.27174	0.00497
3036.98597	0.00536
3035.70020	0.00554
3034.41443	0.00539
3033.12866	0.00505
3031.84289	0.00479
3030.55712	0.00478
3029.27136	0.00496
3027.98559	0.00516
3026.69982	0.00530
3025.41405	0.00538
3024.12828	0.00544
3022.84251	0.00548
3021.55674	0.00543
3020.27097	0.00527
3018.98521	0.00503
3017.69944	0.00480
3016.41367	0.00468
3015.12790	0.00468
3013.84213	0.00475
3012.55636	0.00479
3011.27059	0.00473
3009.98482	0.00459
3008.69905	0.00445
3007.41329	0.00437
3006.12752	0.00433
3004.84175	0.00426
3003.55598	0.00419
3002.27021	0.00418
3000.98444	0.00428
2999.69867	0.00445
2998.41290	0.00461
2997.12714	0.00475
2995.84137	0.00481
2994.55560	0.00480
2993.26983	0.00478
2991.98406	0.00478
2990.69829	0.00475
2989.41252	0.00460
2988.12675	0.00437
2986.84098	0.00417
2985.55522	0.00410
2984.26945	0.00411
2982.98368	0.00415
2981.69791	0.00424
2980.41214	0.00445
2979.12637	0.00477
2977.84060	0.00506
2976.55483	0.00516
2975.26907	0.00499
2973.98330	0.00467
2972.69753	0.00436
2971.41176	0.00418
2970.12599	0.00413
2968.84022	0.00416
2967.55445	0.00420
2966.26868	0.00418
2964.98291	0.00407
2963.69715	0.00394
2962.41138	0.00386
2961.12561	0.00383
2959.83984	0.00378
2958.55407	0.00373
2957.26830	0.00379
2955.98253	0.00397
2954.69676	0.00416
2953.41100	0.00430
2952.12523	0.00441
2950.83946	0.00446
2949.55369	0.00443
2948.26792	0.00433
2946.98215	0.00427
2945.69638	0.00430
2944.41061	0.00439
2943.12484	0.00449
2941.83908	0.00459
2940.55331	0.00464
2939.26754	0.00464
2937.98177	0.00458
2936.69600	0.00444
2935.41023	0.00420
2934.12446	0.00395
2932.83869	0.00382
2931.55293	0.00391
2930.26716	0.00415
2928.98139	0.00434
2927.69562	0.00435
2926.40985	0.00420
2925.12408	0.00396
2923.83831	0.00371
2922.55254	0.00353
2921.26677	0.00356
2919.98101	0.00383
2918.69524	0.00418
2917.40947	0.00438
2916.12370	0.00431
2914.83793	0.00408
2913.55216	0.00384
2912.26639	0.00378
2910.98062	0.00400
2909.69486	0.00447
2908.40909	0.00492
2907.12332	0.00507
2905.83755	0.00488
2904.55178	0.00458
2903.26601	0.00436
2901.98024	0.00419
2900.69447	0.00401
2899.40870	0.00386
2898.12294	0.00385
2896.83717	0.00399
2895.55140	0.00413
2894.26563	0.00414
2892.97986	0.00406
2891.69409	0.00408
2890.40832	0.00431
2889.12255	0.00471
2887.83678	0.00502
2886.55102	0.00505
2885.26525	0.00485
2883.97948	0.00458
2882.69371	0.00434
2881.40794	0.00417
2880.12217	0.00409
2878.83640	0.00419
2877.55063	0.00445
2876.26487	0.00468
2874.97910	0.00465
2873.69333	0.00440
2872.40756	0.00415
2871.12179	0.00413
2869.83602	0.00429
2868.55025	0.00439
2867.26448	0.00433
2865.97871	0.00424
2864.69295	0.00429
2863.40718	0.00445
2862.12141	0.00454
2860.83564	0.00447
2859.54987	0.00433
2858.26410	0.00428
2856.97833	0.00429
2855.69256	0.00423
2854.40680	0.00403
2853.12103	0.00381
2851.83526	0.00373
2850.54949	0.00383
2849.26372	0.00401
2847.97795	0.00414
2846.69218	0.00417
2845.40641	0.00412
2844.12064	0.00407
2842.83488	0.00407
2841.54911	0.00409
2840.26334	0.00402
2838.97757	0.00387
2837.69180	0.00375
2836.40603	0.00374
2835.12026	0.00381
2833.83449	0.00387
2832.54873	0.00390
2831.26296	0.00389
2829.97719	0.00385
2828.69142	0.00383
2827.40565	0.00387
2826.11988	0.00395
2824.83411	0.00403
2823.54834	0.00409
2822.26257	0.00411
2820.97681	0.00401
2819.69104	0.00376
2818.40527	0.00347
2817.11950	0.00333
2815.83373	0.00337
2814.54796	0.00347
2813.26219	0.00351
2811.97642	0.00353
2810.69066	0.00365
2809.40489	0.00381
2808.11912	0.00385
2806.83335	0.00368
2805.54758	0.00338
2804.26181	0.00314
2802.97604	0.00310
2801.69027	0.00325
2800.40450	0.00348
2799.11874	0.00358
2797.83297	0.00344
2796.54720	0.00316
2795.26143	0.00289
2793.97566	0.00272
2792.68989	0.00262
2791.40412	0.00260
2790.11835	0.00269
2788.83259	0.00291
2787.54682	0.00315
2786.26105	0.00331
2784.97528	0.00337
2783.68951	0.00336
2782.40374	0.00338
2781.11797	0.00346
2779.83220	0.00361
2778.54643	0.00380
2777.26067	0.00399
2775.97490	0.00409
2774.68913	0.00405
2773.40336	0.00394
2772.11759	0.00385
2770.83182	0.00386
2769.54605	0.00392
2768.26028	0.00397
2766.97452	0.00400
2765.68875	0.00401
2764.40298	0.00399
2763.11721	0.00392
2761.83144	0.00381
2760.54567	0.00370
2759.25990	0.00362
2757.97413	0.00354
2756.68836	0.00342
2755.40260	0.00329
2754.11683	0.00325
2752.83106	0.00332
2751.54529	0.00346
2750.25952	0.00360
2748.97375	0.00367
2747.68798	0.00364
2746.40221	0.00355
2745.11645	0.00351
2743.83068	0.00356
2742.54491	0.00364
2741.25914	0.00366
2739.97337	0.00359
2738.68760	0.00348
2737.40183	0.00337
2736.11606	0.00331
2734.83029	0.00335
2733.54453	0.00343
2732.25876	0.00346
2730.97299	0.00344
2729.68722	0.00343
2728.40145	0.00350
2727.11568	0.00362
2725.82991	0.00373
2724.54414	0.00381
2723.25838	0.00381
2721.97261	0.00369
2720.68684	0.00351
2719.40107	0.00337
2718.11530	0.00333
2716.82953	0.00335
2715.54376	0.00340
2714.25799	0.00346
2712.97222	0.00356
2711.68646	0.00365
2710.40069	0.00371
2709.11492	0.00373
2707.82915	0.00370
2706.54338	0.00364
2705.25761	0.00358
2703.97184	0.00361
2702.68607	0.00373
2701.40031	0.00390
2700.11454	0.00403
2698.82877	0.00410
2697.54300	0.00408
2696.25723	0.00398
2694.97146	0.00382
2693.68569	0.00366
2692.39992	0.00357
2691.11415	0.00356
2689.82839	0.00357
2688.54262	0.00354
2687.25685	0.00349
2685.97108	0.00343
2684.68531	0.00334
2683.39954	0.00322
2682.11377	0.00316
2680.82800	0.00320
2679.54224	0.00327
2678.25647	0.00325
2676.97070	0.00315
2675.68493	0.00313
2674.39916	0.00321
2673.11339	0.00333
2671.82762	0.00335
2670.54185	0.00330
2669.25608	0.00326
2667.97032	0.00333
2666.68455	0.00350
2665.39878	0.00367
2664.11301	0.00378
2662.82724	0.00382
2661.54147	0.00385
2660.25570	0.00389
2658.96993	0.00395
2657.68417	0.00403
2656.39840	0.00411
2655.11263	0.00415
2653.82686	0.00417
2652.54109	0.00426
2651.25532	0.00439
2649.96955	0.00449
2648.68378	0.00445
2647.39801	0.00428
2646.11225	0.00404
2644.82648	0.00380
2643.54071	0.00362
2642.25494	0.00355
2640.96917	0.00353
2639.68340	0.00346
2638.39763	0.00330
2637.11186	0.00319
2635.82609	0.00334
2634.54033	0.00374
2633.25456	0.00418
2631.96879	0.00435
2630.68302	0.00418
2629.39725	0.00383
2628.11148	0.00354
2626.82571	0.00344
2625.53994	0.00350
2624.25418	0.00361
2622.96841	0.00363
2621.68264	0.00352
2620.39687	0.00334
2619.11110	0.00320
2617.82533	0.00320
2616.53956	0.00331
2615.25379	0.00344
2613.96802	0.00346
2612.68226	0.00326
2611.39649	0.00288
2610.11072	0.00249
2608.82495	0.00231
2607.53918	0.00247
2606.25341	0.00288
2604.96764	0.00333
2603.68187	0.00359
2602.39611	0.00358
2601.11034	0.00349
2599.82457	0.00358
2598.53880	0.00388
2597.25303	0.00414
2595.96726	0.00409
2594.68149	0.00366
2593.39572	0.00304
2592.10995	0.00255
2590.82419	0.00246
2589.53842	0.00277
2588.25265	0.00321
2586.96688	0.00343
2585.68111	0.00336
2584.39534	0.00320
2583.10957	0.00313
2581.82380	0.00319
2580.53804	0.00333
2579.25227	0.00349
2577.96650	0.00356
2576.68073	0.00343
2575.39496	0.00316
2574.10919	0.00294
2572.82342	0.00295
2571.53765	0.00316
2570.25188	0.00343
2568.96612	0.00363
2567.68035	0.00378
2566.39458	0.00391
2565.10881	0.00401
2563.82304	0.00397
2562.53727	0.00380
2561.25150	0.00359
2559.96573	0.00341
2558.67997	0.00321
2557.39420	0.00301
2556.10843	0.00298
2554.82266	0.00326
2553.53689	0.00374
2552.25112	0.00406
2550.96535	0.00403
2549.67958	0.00374
2548.39381	0.00346
2547.10805	0.00333
2545.82228	0.00329
2544.53651	0.00323
2543.25074	0.00314
2541.96497	0.00308
2540.67920	0.00314
2539.39343	0.00332
2538.10766	0.00362
2536.82190	0.00396
2535.53613	0.00419
2534.25036	0.00409
2532.96459	0.00364
2531.67882	0.00305
2530.39305	0.00266
2529.10728	0.00266
2527.82151	0.00297
2526.53574	0.00335
2525.24998	0.00358
2523.96421	0.00365
2522.67844	0.00358
2521.39267	0.00343
2520.10690	0.00323
2518.82113	0.00307
2517.53536	0.00299
2516.24959	0.00295
2514.96383	0.00291
2513.67806	0.00294
2512.39229	0.00305
2511.10652	0.00309
2509.82075	0.00292
2508.53498	0.00261
2507.24921	0.00233
2505.96344	0.00217
2504.67767	0.00210
2503.39191	0.00212
2502.10614	0.00226
2500.82037	0.00249
2499.53460	0.00264
2498.24883	0.00264
2496.96306	0.00257
2495.67729	0.00259
2494.39152	0.00274
2493.10576	0.00292
2491.81999	0.00300
2490.53422	0.00287
2489.24845	0.00257
2487.96268	0.00223
2486.67691	0.00203
2485.39114	0.00208
2484.10537	0.00234
2482.81960	0.00269
2481.53384	0.00304
2480.24807	0.00332
2478.96230	0.00350
2477.67653	0.00358
2476.39076	0.00359
2475.10499	0.00357
2473.81922	0.00354
2472.53345	0.00350
2471.24769	0.00338
2469.96192	0.00313
2468.67615	0.00276
2467.39038	0.00239
2466.10461	0.00219
2464.81884	0.00224
2463.53307	0.00246
2462.24730	0.00267
2460.96153	0.00271
2459.67577	0.00253
2458.39000	0.00227
2457.10423	0.00213
2455.81846	0.00221
2454.53269	0.00249
2453.24692	0.00282
2451.96115	0.00304
2450.67538	0.00305
2449.38962	0.00284
2448.10385	0.00249
2446.81808	0.00209
2445.53231	0.00169
2444.24654	0.00135
2442.96077	0.00119
2441.67500	0.00128
2440.38923	0.00157
2439.10346	0.00198
2437.81770	0.00247
2436.53193	0.00294
2435.24616	0.00320
2433.96039	0.00316
2432.67462	0.00291
2431.38885	0.00263
2430.10308	0.00248
2428.81731	0.00251
2427.53155	0.00274
2426.24578	0.00301
2424.96001	0.00309
2423.67424	0.00286
2422.38847	0.00244
2421.10270	0.00216
2419.81693	0.00228
2418.53116	0.00273
2417.24539	0.00316
2415.95963	0.00328
2414.67386	0.00311
2413.38809	0.00284
2412.10232	0.00259
2410.81655	0.00240
2409.53078	0.00231
2408.24501	0.00232
2406.95924	0.00234
2405.67347	0.00233
2404.38771	0.00239
2403.10194	0.00255
2401.81617	0.00267
2400.53040	0.00258
2399.24463	0.00232
2397.95886	0.00214
2396.67309	0.00213
2395.38732	0.00221
2394.10156	0.00224
2392.81579	0.00214
2391.53002	0.00195
2390.24425	0.00172
2388.95848	0.00149
2387.67271	0.00130
2386.38694	0.00126
2385.10117	0.00137
2383.81540	0.00151
2382.52964	0.00150
2381.24387	0.00137
2379.95810	0.00127
2378.67233	0.00144
2377.38656	0.00174
2376.10079	0.00186
2374.81502	0.00183
2373.52925	0.00220
2372.24349	0.00293
2370.95772	0.00343
2369.67195	0.00341
2368.38618	0.00319
2367.10041	0.00326
2365.81464	0.00349
2364.52887	0.00379
2363.24310	0.00406
2361.95733	0.00444
2360.67157	0.00519
2359.38580	0.00578
2358.10003	0.00562
2356.81426	0.00473
2355.52849	0.00346
2354.24272	0.00214
2352.95695	0.00133
2351.67118	0.00158
2350.38542	0.00228
2349.09965	0.00252
2347.81388	0.00247
2346.52811	0.00294
2345.24234	0.00333
2343.95657	0.00254
2342.67080	0.00106
2341.38503	0.00158
2340.09926	0.00368
2338.81350	0.00378
2337.52773	0.00207
2336.24196	0.00261
2334.95619	0.00445
2333.67042	0.00386
2332.38465	0.00184
2331.09888	0.00257
2329.81311	0.00314
2328.52735	0.00189
2327.24158	0.00234
2325.95581	0.00371
2324.67004	0.00365
2323.38427	0.00336
2322.09850	0.00393
2320.81273	0.00356
2319.52696	0.00338
2318.24119	0.00347
2316.95543	0.00305
2315.66966	0.00302
2314.38389	0.00318
2313.09812	0.00322
2311.81235	0.00360
2310.52658	0.00369
2309.24081	0.00344
2307.95504	0.00321
2306.66928	0.00285
2305.38351	0.00266
2304.09774	0.00262
2302.81197	0.00267
2301.52620	0.00284
2300.24043	0.00292
2298.95466	0.00294
2297.66889	0.00294
2296.38312	0.00298
2295.09736	0.00309
2293.81159	0.00318
2292.52582	0.00325
2291.24005	0.00333
2289.95428	0.00343
2288.66851	0.00347
2287.38274	0.00331
2286.09697	0.00290
2284.81121	0.00230
2283.52544	0.00181
2282.23967	0.00172
2280.95390	0.00210
2279.66813	0.00266
2278.38236	0.00308
2277.09659	0.00323
2275.81082	0.00316
2274.52505	0.00286
2273.23929	0.00233
2271.95352	0.00169
2270.66775	0.00116
2269.38198	0.00093
2268.09621	0.00105
2266.81044	0.00148
2265.52467	0.00202
2264.23890	0.00242
2262.95314	0.00266
2261.66737	0.00282
2260.38160	0.00293
2259.09583	0.00296
2257.81006	0.00299
2256.52429	0.00311
2255.23852	0.00328
2253.95275	0.00330
2252.66698	0.00297
2251.38122	0.00235
2250.09545	0.00191
2248.80968	0.00204
2247.52391	0.00264
2246.23814	0.00311
2244.95237	0.00295
2243.66660	0.00215
2242.38083	0.00109
2241.09507	0.00020
2239.80930	-0.00012
2238.52353	0.00027
2237.23776	0.00108
2235.95199	0.00175
2234.66622	0.00194
2233.38045	0.00180
2232.09468	0.00166
2230.80891	0.00168
2229.52315	0.00184
2228.23738	0.00209
2226.95161	0.00235
2225.66584	0.00246
2224.38007	0.00229
2223.09430	0.00196
2221.80853	0.00172
2220.52276	0.00167
2219.23700	0.00171
2217.95123	0.00177
2216.66546	0.00182
2215.37969	0.00182
2214.09392	0.00169
2212.80815	0.00152
2211.52238	0.00147
2210.23661	0.00162
2208.95084	0.00200
2207.66508	0.00254
2206.37931	0.00303
2205.09354	0.00313
2203.80777	0.00272
2202.52200	0.00208
2201.23623	0.00177
2199.95046	0.00217
2198.66469	0.00311
2197.37893	0.00394
2196.09316	0.00403
2194.80739	0.00341
2193.52162	0.00258
2192.23585	0.00202
2190.95008	0.00201
2189.66431	0.00265
2188.37854	0.00378
2187.09277	0.00483
2185.80701	0.00518
2184.52124	0.00469
2183.23547	0.00361
2181.94970	0.00223
2180.66393	0.00074
2179.37816	-0.00063
2178.09239	-0.00154
2176.80662	-0.00173
2175.52085	-0.00129
2174.23509	-0.00058
2172.94932	0.00004
2171.66355	0.00050
2170.37778	0.00100
2169.09201	0.00161
2167.80624	0.00220
2166.52047	0.00269
2165.23470	0.00330
2163.94894	0.00423
2162.66317	0.00513
2161.37740	0.00504
2160.09163	0.00320
2158.80586	0.00007
2157.52009	-0.00279
2156.23432	-0.00401
2154.94855	-0.00342
2153.66278	-0.00180
2152.37702	-0.00017
2151.09125	0.00077
2149.80548	0.00098
2148.51971	0.00090
2147.23394	0.00098
2145.94817	0.00116
2144.66240	0.00105
2143.37663	0.00053
2142.09087	-0.00011
2140.80510	-0.00051
2139.51933	-0.00061
2138.23356	-0.00070
2136.94779	-0.00102
2135.66202	-0.00142
2134.37625	-0.00150
2133.09048	-0.00109
2131.80471	-0.00040
2130.51895	0.00019
2129.23318	0.00051
2127.94741	0.00060
2126.66164	0.00069
2125.37587	0.00093
2124.09010	0.00125
2122.80433	0.00133
2121.51856	0.00099
2120.23280	0.00048
2118.94703	0.00027
2117.66126	0.00053
2116.37549	0.00096
2115.08972	0.00117
2113.80395	0.00111
2112.51818	0.00102
2111.23241	0.00114
2109.94664	0.00152
2108.66088	0.00202
2107.37511	0.00241
2106.08934	0.00256
2104.80357	0.00252
2103.51780	0.00241
2102.23203	0.00224
2100.94626	0.00195
2099.66049	0.00097
2098.37473	0.00031
2097.08896	-0.00005
2095.80319	-0.00029
2094.51742	-0.00030
2093.23165	0.00005
2091.94588	0.00062
2090.66011	0.00104
2089.37434	0.00103
2088.08857	0.00065
2086.80281	0.00019
2085.51704	0.00001
2084.23127	0.00024
2082.94550	0.00077
2081.65973	0.00128
2080.37396	0.00148
2079.08819	0.00116
2077.80242	0.00044
2076.51666	-0.00036
2075.23089	-0.00092
2073.94512	-0.00108
2072.65935	-0.00080
2071.37358	-0.00019
2070.08781	0.00044
2068.80204	0.00066
2067.51627	0.00033
2066.23050	-0.00020
2064.94474	-0.00045
2063.65897	-0.00028
2062.37320	0.00018
2061.08743	0.00073
2059.80166	0.00129
2058.51589	0.00176
2057.23012	0.00200
2055.94435	0.00189
2054.65859	0.00160
2053.37282	0.00136
2052.08705	0.00122
2050.80128	0.00102
2049.51551	0.00059
2048.22974	0.00002
2046.94397	-0.00046
2045.65820	-0.00074
2044.37243	-0.00085
2043.08667	-0.00083
2041.80090	-0.00067
2040.51513	-0.00039
2039.22936	-0.00014
2037.94359	-0.00009
2036.65782	-0.00018
2035.37205	-0.00015
2034.08628	0.00016
2032.80052	0.00064
2031.51475	0.00105
2030.22898	0.00130
2028.94321	0.00146
2027.65744	0.00159
2026.37167	0.00170
2025.08590	0.00184
2023.80013	0.00202
2022.51436	0.00218
2021.22860	0.00212
2019.94283	0.00165
2018.65706	0.00075
2017.37129	-0.00037
2016.08552	-0.00152
2014.79975	-0.00251
2013.51398	-0.00312
2012.22821	-0.00320
2010.94245	-0.00281
2009.65668	-0.00219
2008.37091	-0.00146
2007.08514	-0.00055
2005.79937	0.00050
2004.51360	0.00139
2003.22783	0.00182
2001.94206	0.00181
2000.65629	0.00169
1999.37053	0.00173
1998.08476	0.00200
1996.79899	0.00239
1995.51322	0.00276
1994.22745	0.00298
1992.94168	0.00297
1991.65591	0.00270
1990.37014	0.00225
1989.08438	0.00177
1987.79861	0.00137
1986.51284	0.00102
1985.22707	0.00065
1983.94130	0.00015
1982.65553	-0.00059
1981.36976	-0.00158
1980.08399	-0.00253
1978.79822	-0.00302
1977.51246	-0.00289
1976.22669	-0.00245
1974.94092	-0.00210
1973.65515	-0.00189
1972.36938	-0.00172
1971.08361	-0.00154
1969.79784	-0.00141
1968.51207	-0.00132
1967.22631	-0.00114
1965.94054	-0.00081
1964.65477	-0.00033
1963.36900	0.00021
1962.08323	0.00068
1960.79746	0.00099
1959.51169	0.00103
1958.22592	0.00069
1956.94015	0.00000
1955.65439	-0.00083
1954.36862	-0.00152
1953.08285	-0.00183
1951.79708	-0.00166
1950.51131	-0.00114
1949.22554	-0.00055
1947.93977	-0.00019
1946.65400	-0.00008
1945.36823	-0.00002
1944.08247	0.00016
1942.79670	0.00037
1941.51093	0.00037
1940.22516	0.00011
1938.93939	-0.00019
1937.65362	-0.00022
1936.36785	-0.00000
1935.08208	0.00020
1933.79632	0.00030
1932.51055	0.00051
1931.22478	0.00104
1929.93901	0.00183
1928.65324	0.00259
1927.36747	0.00303
1926.08170	0.00307
1924.79593	0.00281
1923.51016	0.00243
1922.22440	0.00200
1920.93863	0.00160
1919.65286	0.00132
1918.36709	0.00124
1917.08132	0.00131
1915.79555	0.00135
1914.50978	0.00130
1913.22401	0.00122
1911.93825	0.00119
1910.65248	0.00113
1909.36671	0.00087
1908.08094	0.00040
1906.79517	-0.00004
1905.50940	-0.00017
1904.22363	0.00009
1902.93786	0.00055
1901.65209	0.00094
1900.36633	0.00113
1899.08056	0.00120
1897.79479	0.00129
1896.50902	0.00140
1895.22325	0.00140
1893.93748	0.00119
1892.65171	0.00079
1891.36594	0.00037
1890.08018	0.00012
1888.79441	0.00017
1887.50864	0.00049
1886.22287	0.00091
1884.93710	0.00122
1883.65133	0.00134
1882.36556	0.00131
1881.07979	0.00124
1879.79402	0.00113
1878.50826	0.00096
1877.22249	0.00074
1875.93672	0.00054
1874.65095	0.00042
1873.36518	0.00040
1872.07941	0.00046
1870.79364	0.00058
1869.50787	0.00072
1868.22211	0.00082
1866.93634	0.00079
1865.65057	0.00060
1864.36480	0.00033
1863.07903	0.00014
1861.79326	0.00008
1860.50749	0.00018
1859.22172	0.00036
1857.93595	0.00058
1856.65019	0.00079
1855.36442	0.00100
1854.07865	0.00117
1852.79288	0.00125
1851.50711	0.00122
1850.22134	0.00108
1848.93557	0.00088
1847.64980	0.00068
1846.36404	0.00056
1845.07827	0.00061
1843.79250	0.00084
1842.50673	0.00114
1841.22096	0.00131
1839.93519	0.00128
1838.64942	0.00118
1837.36365	0.00117
1836.07788	0.00129
1834.79212	0.00141
1833.50635	0.00142
1832.22058	0.00126
1830.93481	0.00098
1829.64904	0.00070
1828.36327	0.00049
1827.07750	0.00037
1825.79173	0.00032
1824.50597	0.00032
1823.22020	0.00038
1821.93443	0.00046
1820.64866	0.00053
1819.36289	0.00056
1818.07712	0.00056
1816.79135	0.00063
1815.50558	0.00081
1814.21981	0.00106
1812.93405	0.00131
1811.64828	0.00148
1810.36251	0.00156
1809.07674	0.00154
1807.79097	0.00146
1806.50520	0.00140
1805.21943	0.00142
1803.93366	0.00148
1802.64790	0.00150
1801.36213	0.00143
1800.07636	0.00129
1798.79059	0.00119
1797.50482	0.00118
1796.21905	0.00122
1794.93328	0.00125
1793.64751	0.00125
1792.36174	0.00130
1791.07598	0.00142
1789.79021	0.00156
1788.50444	0.00160
1787.21867	0.00156
1785.93290	0.00149
1784.64713	0.00145
1783.36136	0.00144
1782.07559	0.00139
1780.78983	0.00130
1779.50406	0.00120
1778.21829	0.00112
1776.93252	0.00109
1775.64675	0.00113
1774.36098	0.00119
1773.07521	0.00121
1771.78944	0.00121
1770.50367	0.00125
1769.21791	0.00135
1767.93214	0.00154
1766.64637	0.00175
1765.36060	0.00187
1764.07483	0.00186
1762.78906	0.00178
1761.50329	0.00174
1760.21752	0.00173
1758.93176	0.00168
1757.64599	0.00158
1756.36022	0.00149
1755.07445	0.00147
1753.78868	0.00150
1752.50291	0.00154
1751.21714	0.00158
1749.93137	0.00165
1748.64560	0.00172
1747.35984	0.00177
1746.07407	0.00176
1744.78830	0.00170
1743.50253	0.00161
1742.21676	0.00152
1740.93099	0.00146
1739.64522	0.00145
1738.35945	0.00149
1737.07369	0.00148
1735.78792	0.00138
1734.50215	0.00133
1733.21638	0.00148
1731.93061	0.00177
1730.64484	0.00200
1729.35907	0.00208
1728.07330	0.00208
1726.78753	0.00206
1725.50177	0.00203
1724.21600	0.00202
1722.93023	0.00207
1721.64446	0.00217
1720.35869	0.00223
1719.07292	0.00220
1717.78715	0.00215
1716.50138	0.00216
1715.21561	0.00220
1713.92985	0.00220
1712.64408	0.00213
1711.35831	0.00203
1710.07254	0.00196
1708.78677	0.00195
1707.50100	0.00198
1706.21523	0.00203
1704.92946	0.00211
1703.64370	0.00214
1702.35793	0.00207
1701.07216	0.00197
1699.78639	0.00199
1698.50062	0.00208
1697.21485	0.00207
1695.92908	0.00203
1694.64331	0.00213
1693.35754	0.00233
1692.07178	0.00247
1690.78601	0.00251
1689.50024	0.00251
1688.21447	0.00245
1686.92870	0.00227
1685.64293	0.00206
1684.35716	0.00206
1683.07139	0.00232
1681.78563	0.00264
1680.49986	0.00284
1679.21409	0.00291
1677.92832	0.00290
1676.64255	0.00288
1675.35678	0.00290
1674.07101	0.00299
1672.78524	0.00307
1671.49947	0.00308
1670.21371	0.00308
1668.92794	0.00315
1667.64217	0.00328
1666.35640	0.00336
1665.07063	0.00330
1663.78486	0.00317
1662.49909	0.00307
1661.21332	0.00308
1659.92756	0.00314
1658.64179	0.00323
1657.35602	0.00328
1656.07025	0.00320
1654.78448	0.00295
1653.49871	0.00272
1652.21294	0.00272
1650.92717	0.00294
1649.64140	0.00311
1648.35564	0.00314
1647.06987	0.00315
1645.78410	0.00325
1644.49833	0.00341
1643.21256	0.00350
1641.92679	0.00348
1640.64102	0.00340
1639.35525	0.00333
1638.06949	0.00325
1636.78372	0.00316
1635.49795	0.00311
1634.21218	0.00319
1632.92641	0.00331
1631.64064	0.00339
1630.35487	0.00342
1629.06910	0.00343
1627.78333	0.00347
1626.49757	0.00353
1625.21180	0.00353
1623.92603	0.00346
1622.64026	0.00338
1621.35449	0.00337
1620.06872	0.00341
1618.78295	0.00342
1617.49718	0.00339
1616.21142	0.00341
1614.92565	0.00347
1613.63988	0.00355
1612.35411	0.00358
1611.06834	0.00360
1609.78257	0.00359
1608.49680	0.00358
1607.21103	0.00361
1605.92526	0.00366
1604.63950	0.00368
1603.35373	0.00367
1602.06796	0.00365
1600.78219	0.00367
1599.49642	0.00369
1598.21065	0.00371
1596.92488	0.00372
1595.63911	0.00377
1594.35335	0.00384
1593.06758	0.00391
1591.78181	0.00393
1590.49604	0.00391
1589.21027	0.00389
1587.92450	0.00389
1586.63873	0.00394
1585.35296	0.00400
1584.06719	0.00406
1582.78143	0.00408
1581.49566	0.00409
1580.20989	0.00409
1578.92412	0.00407
1577.63835	0.00401
1576.35258	0.00401
1575.06681	0.00412
1573.78104	0.00426
1572.49528	0.00427
1571.20951	0.00413
1569.92374	0.00396
1568.63797	0.00388
1567.35220	0.00391
1566.06643	0.00399
1564.78066	0.00409
1563.49489	0.00417
1562.20912	0.00414
1560.92336	0.00398
1559.63759	0.00386
1558.35182	0.00392
1557.06605	0.00410
1555.78028	0.00422
1554.49451	0.00424
1553.20874	0.00423
1551.92297	0.00426
1550.63721	0.00431
1549.35144	0.00438
1548.06567	0.00443
1546.77990	0.00442
1545.49413	0.00434
1544.20836	0.00427
1542.92259	0.00421
1541.63682	0.00415
1540.35105	0.00410
1539.06529	0.00413
1537.77952	0.00424
1536.49375	0.00432
1535.20798	0.00432
1533.92221	0.00432
1532.63644	0.00444
1531.35067	0.00460
1530.06490	0.00472
1528.77914	0.00476
1527.49337	0.00479
1526.20760	0.00488
1524.92183	0.00500
1523.63606	0.00509
1522.35029	0.00512
1521.06452	0.00520
1519.77875	0.00536
1518.49298	0.00554
1517.20722	0.00568
1515.92145	0.00579
1514.63568	0.00589
1513.34991	0.00598
1512.06414	0.00609
1510.77837	0.00626
1509.49260	0.00642
1508.20683	0.00655
1506.92107	0.00668
1505.63530	0.00691
1504.34953	0.00718
1503.06376	0.00736
1501.77799	0.00740
1500.49222	0.00739
1499.20645	0.00738
1497.92068	0.00743
1496.63491	0.00755
1495.34915	0.00773
1494.06338	0.00793
1492.77761	0.00806
1491.49184	0.00812
1490.20607	0.00815
1488.92030	0.00819
1487.63453	0.00824
1486.34876	0.00833
1485.06299	0.00847
1483.77723	0.00864
1482.49146	0.00882
1481.20569	0.00896
1479.91992	0.00907
1478.63415	0.00916
1477.34838	0.00927
1476.06261	0.00937
1474.77684	0.00940
1473.49108	0.00937
1472.20531	0.00936
1470.91954	0.00942
1469.63377	0.00951
1468.34800	0.00957
1467.06223	0.00957
1465.77646	0.00954
1464.49069	0.00953
1463.20492	0.00955
1461.91916	0.00960
1460.63339	0.00966
1459.34762	0.00969
1458.06185	0.00970
1456.77608	0.00976
1455.49031	0.00991
1454.20454	0.01008
1452.91877	0.01022
1451.63301	0.01034
1450.34724	0.01045
1449.06147	0.01052
1447.77570	0.01052
1446.48993	0.01045
1445.20416	0.01033
1443.91839	0.01017
1442.63262	0.01004
1441.34685	0.01001
1440.06109	0.01005
1438.77532	0.01008
1437.48955	0.01008
1436.20378	0.01007
1434.91801	0.01009
1433.63224	0.01015
1432.34647	0.01024
1431.06070	0.01036
1429.77494	0.01047
1428.48917	0.01057
1427.20340	0.01069
1425.91763	0.01083
1424.63186	0.01099
1423.34609	0.01116
1422.06032	0.01129
1420.77455	0.01139
1419.48878	0.01147
1418.20302	0.01157
1416.91725	0.01164
1415.63148	0.01166
1414.34571	0.01163
1413.05994	0.01158
1411.77417	0.01154
1410.48840	0.01147
1409.20263	0.01137
1407.91687	0.01124
1406.63110	0.01109
1405.34533	0.01092
1404.05956	0.01074
1402.77379	0.01054
1401.48802	0.01030
1400.20225	0.01003
1398.91648	0.00977
1397.63071	0.00954
1396.34495	0.00933
1395.05918	0.00910
1393.77341	0.00891
1392.48764	0.00874
1391.20187	0.00855
1389.91610	0.00830
1388.63033	0.00800
1387.34456	0.00768
1386.05880	0.00738
1384.77303	0.00711
1383.48726	0.00688
1382.20149	0.00671
1380.91572	0.00657
1379.62995	0.00640
1378.34418	0.00618
1377.05841	0.00592
1375.77264	0.00566
1374.48688	0.00544
1373.20111	0.00528
1371.91534	0.00516
1370.62957	0.00503
1369.34380	0.00486
1368.05803	0.00466
1366.77226	0.00452
1365.48649	0.00444
1364.20073	0.00442
1362.91496	0.00440
1361.62919	0.00436
1360.34342	0.00428
1359.05765	0.00418
1357.77188	0.00405
1356.48611	0.00396
1355.20034	0.00392
1353.91457	0.00391
1352.62881	0.00389
1351.34304	0.00381
1350.05727	0.00369
1348.77150	0.00355
1347.48573	0.00345
1346.19996	0.00337
1344.91419	0.00331
1343.62842	0.00325
1342.34266	0.00318
1341.05689	0.00310
1339.77112	0.00306
1338.48535	0.00306
1337.19958	0.00311
1335.91381	0.00315
1334.62804	0.00317
1333.34227	0.00315
1332.05650	0.00313
1330.77074	0.00311
1329.48497	0.00307
1328.19920	0.00300
1326.91343	0.00290
1325.62766	0.00280
1324.34189	0.00271
1323.05612	0.00264
1321.77035	0.00258
1320.48459	0.00255
1319.19882	0.00256
1317.91305	0.00262
1316.62728	0.00265
1315.34151	0.00263
1314.05574	0.00256
1312.76997	0.00251
1311.48420	0.00251
1310.19843	0.00256
1308.91267	0.00260
1307.62690	0.00261
1306.34113	0.00258
1305.05536	0.00254
1303.76959	0.00251
1302.48382	0.00252
1301.19805	0.00256
1299.91228	0.00262
1298.62652	0.00266
1297.34075	0.00264
1296.05498	0.00253
1294.76921	0.00239
1293.48344	0.00228
1292.19767	0.00227
1290.91190	0.00235
1289.62613	0.00248
1288.34036	0.00258
1287.05460	0.00260
1285.76883	0.00253
1284.48306	0.00242
1283.19729	0.00236
1281.91152	0.00238
1280.62575	0.00245
1279.33998	0.00248
1278.05421	0.00246
1276.76845	0.00239
1275.48268	0.00234
1274.19691	0.00230
1272.91114	0.00227
1271.62537	0.00223
1270.33960	0.00220
1269.05383	0.00218
1267.76806	0.00218
1266.48229	0.00220
1265.19653	0.00225
1263.91076	0.00231
1262.62499	0.00235
1261.33922	0.00234
1260.05345	0.00230
1258.76768	0.00227
1257.48191	0.00227
1256.19614	0.00229
1254.91037	0.00228
1253.62461	0.00224
1252.33884	0.00217
1251.05307	0.00213
1249.76730	0.00210
1248.48153	0.00208
1247.19576	0.00206
1245.90999	0.00205
1244.62422	0.00206
1243.33846	0.00209
1242.05269	0.00211
1240.76692	0.00212
1239.48115	0.00210
1238.19538	0.00205
1236.90961	0.00200
1235.62384	0.00198
1234.33807	0.00202
1233.05230	0.00208
1231.76654	0.00211
1230.48077	0.00210
1229.19500	0.00206
1227.90923	0.00202
1226.62346	0.00202
1225.33769	0.00206
1224.05192	0.00211
1222.76615	0.00215
1221.48039	0.00215
1220.19462	0.00213
1218.90885	0.00207
1217.62308	0.00200
1216.33731	0.00198
1215.05154	0.00201
1213.76577	0.00208
1212.48000	0.00215
1211.19423	0.00220
1209.90847	0.00223
1208.62270	0.00225
1207.33693	0.00226
1206.05116	0.00227
1204.76539	0.00229
1203.47962	0.00232
1202.19385	0.00236
1200.90808	0.00242
1199.62232	0.00251
1198.33655	0.00249
1197.05078	0.00248
1195.76501	0.00250
1194.47924	0.00253
1193.19347	0.00256
1191.90770	0.00258
1190.62193	0.00261
1189.33616	0.00263
1188.05040	0.00266
1186.76463	0.00271
1185.47886	0.00276
1184.19309	0.00284
1182.90732	0.00293
1181.62155	0.00299
1180.33578	0.00300
1179.05001	0.00297
1177.76425	0.00295
1176.47848	0.00296
1175.19271	0.00301
1173.90694	0.00308
1172.62117	0.00317
1171.33540	0.00324
1170.04963	0.00326
1168.76386	0.00326
1167.47809	0.00327
1166.19233	0.00331
1164.90656	0.00338
1163.62079	0.00345
1162.33502	0.00351
1161.04925	0.00353
1159.76348	0.00354
1158.47771	0.00356
1157.19194	0.00365
1155.90618	0.00382
1154.62041	0.00400
1153.33464	0.00413
1152.04887	0.00421
1150.76310	0.00430
1149.47733	0.00443
1148.19156	0.00461
1146.90579	0.00478
1145.62002	0.00493
1144.33426	0.00509
1143.04849	0.00525
1141.76272	0.00542
1140.47695	0.00560
1139.19118	0.00580
1137.90541	0.00604
1136.61964	0.00632
1135.33387	0.00660
1134.04811	0.00687
1132.76234	0.00712
1131.47657	0.00740
1130.19080	0.00775
1128.90503	0.00819
1127.61926	0.00874
1126.33349	0.00938
1125.04772	0.01007
1123.76195	0.01078
1122.47619	0.01150
1121.19042	0.01223
1119.90465	0.01299
1118.61888	0.01371
1117.33311	0.01439
1116.04734	0.01506
1114.76157	0.01578
1113.47580	0.01656
1112.19004	0.01736
1110.90427	0.01810
1109.61850	0.01876
1108.33273	0.01934
1107.04696	0.01985
1105.76119	0.02035
1104.47542	0.02086
1103.18965	0.02141
1101.90388	0.02199
1100.61812	0.02256
1099.33235	0.02310
1098.04658	0.02360
1096.76081	0.02409
1095.47504	0.02461
1094.18927	0.02511
1092.90350	0.02558
1091.61773	0.02600
1090.33197	0.02642
1089.04620	0.02681
1087.76043	0.02715
1086.47466	0.02742
1085.18889	0.02767
1083.90312	0.02797
1082.61735	0.02834
1081.33158	0.02877
1080.04581	0.02926
1078.76005	0.02981
1077.47428	0.03038
1076.18851	0.03093
1074.90274	0.03140
1073.61697	0.03184
1072.33120	0.03234
1071.04543	0.03294
1069.75966	0.03363
1068.47390	0.03433
1067.18813	0.03500
1065.90236	0.03565
1064.61659	0.03631
1063.33082	0.03697
1062.04505	0.03758
1060.75928	0.03810
1059.47351	0.03855
1058.18774	0.03898
1056.90198	0.03945
1055.61621	0.03994
1054.33044	0.04042
1053.04467	0.04082
1051.75890	0.04117
1050.47313	0.04152
1049.18736	0.04192
1047.90159	0.04237
1046.61583	0.04285
1045.33006	0.04330
1044.04429	0.04369
1042.75852	0.04403
1041.47275	0.04438
1040.18698	0.04477
1038.90121	0.04517
1037.61544	0.04550
1036.32967	0.04576
1035.04391	0.04596
1033.75814	0.04613
1032.47237	0.04624
1031.18660	0.04625
1029.90083	0.04618
1028.61506	0.04605
1027.32929	0.04586
1026.04352	0.04561
1024.75775	0.04529
1023.47199	0.04491
1022.18622	0.04447
1020.90045	0.04394
1019.61468	0.04330
1018.32891	0.04257
1017.04314	0.04176
1015.75737	0.04087
1014.47160	0.03989
1013.18584	0.03881
1011.90007	0.03769
1010.61430	0.03658
1009.32853	0.03547
1008.04276	0.03435
1006.75699	0.03317
1005.47122	0.03197
1004.18545	0.03079
1002.89968	0.02966
1001.61392	0.02858
1000.32815	0.02751
999.04238	0.02644
997.75661	0.02537
996.47084	0.02430
995.18507	0.02319
993.89930	0.02207
992.61353	0.02101
991.32777	0.02010
990.04200	0.01936
988.75623	0.01868
987.47046	0.01796
986.18469	0.01716
984.89892	0.01633
983.61315	0.01553
982.32738	0.01482
981.04161	0.01425
979.75585	0.01379
978.47008	0.01339
977.18431	0.01298
975.89854	0.01253
974.61277	0.01210
973.32700	0.01177
972.04123	0.01160
970.75546	0.01157
969.46970	0.01165
968.18393	0.01180
966.89816	0.01197
965.61239	0.01211
964.32662	0.01219
963.04085	0.01224
961.75508	0.01230
960.46931	0.01235
959.18354	0.01233
957.89778	0.01222
956.61201	0.01202
955.32624	0.01180
954.04047	0.01155
952.75470	0.01126
951.46893	0.01093
950.18316	0.01057
948.89739	0.01019
947.61163	0.00984
946.32586	0.00951
945.04009	0.00920
943.75432	0.00886
942.46855	0.00853
941.18278	0.00829
939.89701	0.00816
938.61124	0.00810
937.32547	0.00804
936.03971	0.00793
934.75394	0.00779
933.46817	0.00761
932.18240	0.00742
930.89663	0.00721
929.61086	0.00701
928.32509	0.00684
927.03932	0.00673
925.75356	0.00665
924.46779	0.00658
923.18202	0.00651
921.89625	0.00645
920.61048	0.00641
919.32471	0.00640
918.03894	0.00638
916.75317	0.00631
915.46740	0.00619
914.18164	0.00609
912.89587	0.00602
911.61010	0.00600
910.32433	0.00602
909.03856	0.00607
907.75279	0.00608
906.46702	0.00601
905.18125	0.00585
903.89549	0.00567
902.60972	0.00555
901.32395	0.00550
900.03818	0.00549
898.75241	0.00553
897.46664	0.00562
896.18087	0.00574
894.89510	0.00580
893.60933	0.00580
892.32357	0.00574
891.03780	0.00570
889.75203	0.00572
888.46626	0.00582
887.18049	0.00599
885.89472	0.00619
884.60895	0.00644
883.32318	0.00680
882.03742	0.00724
880.75165	0.00770
879.46588	0.00805
878.18011	0.00825
876.89434	0.00835
875.60857	0.00845
874.32280	0.00859
873.03703	0.00875
871.75126	0.00888
870.46550	0.00889
869.17973	0.00875
867.89396	0.00847
866.60819	0.00810
865.32242	0.00766
864.03665	0.00719
862.75088	0.00673
861.46511	0.00640
860.17935	0.00619
858.89358	0.00602
857.60781	0.00583
856.32204	0.00564
855.03627	0.00551
853.75050	0.00548
852.46473	0.00551
851.17896	0.00558
849.89319	0.00564
848.60743	0.00568
847.32166	0.00567
846.03589	0.00562
844.75012	0.00553
843.46435	0.00543
842.17858	0.00534
840.89281	0.00526
839.60704	0.00517
838.32128	0.00509
837.03551	0.00499
835.74974	0.00490
834.46397	0.00486
833.17820	0.00486
831.89243	0.00491
830.60666	0.00498
829.32089	0.00507
828.03512	0.00519
826.74936	0.00530
825.46359	0.00534
824.17782	0.00528
822.89205	0.00518
821.60628	0.00512
820.32051	0.00514
819.03474	0.00519
817.74897	0.00515
816.46321	0.00502
815.17744	0.00489
813.89167	0.00488
812.60590	0.00502
811.32013	0.00519
810.03436	0.00525
808.74859	0.00517
807.46282	0.00502
806.17705	0.00490
804.89129	0.00484
803.60552	0.00484
802.31975	0.00486
801.03398	0.00485
799.74821	0.00480
798.46244	0.00473
797.17667	0.00469
795.89090	0.00473
794.60513	0.00479
793.31937	0.00483
792.03360	0.00484
790.74783	0.00489
789.46206	0.00501
788.17629	0.00513
786.89052	0.00519
785.60475	0.00515
784.31898	0.00502
783.03322	0.00483
781.74745	0.00464
780.46168	0.00455
779.17591	0.00459
777.89014	0.00474
776.60437	0.00493
775.31860	0.00507
774.03283	0.00512
772.74706	0.00507
771.46130	0.00497
770.17553	0.00488
768.88976	0.00485
767.60399	0.00485
766.31822	0.00482
765.03245	0.00473
763.74668	0.00459
762.46091	0.00448
761.17515	0.00447
759.88938	0.00460
758.60361	0.00486
757.31784	0.00514
756.03207	0.00532
754.74630	0.00534
753.46053	0.00525
752.17476	0.00513
750.88899	0.00499
749.60323	0.00486
748.31746	0.00477
747.03169	0.00472
745.74592	0.00466
744.46015	0.00457
743.17438	0.00447
741.88861	0.00448
740.60284	0.00466
739.31708	0.00494
738.03131	0.00519
736.74554	0.00532
735.45977	0.00533
734.17400	0.00530
732.88823	0.00524
731.60246	0.00513
730.31669	0.00497
729.03092	0.00489
727.74516	0.00498
726.45939	0.00520
725.17362	0.00536
723.88785	0.00533
722.60208	0.00523
721.31631	0.00514
720.03054	0.00509
718.74477	0.00506
717.45901	0.00504
716.17324	0.00504
714.88747	0.00506
713.60170	0.00508
712.31593	0.00510
711.03016	0.00511
709.74439	0.00512
708.45862	0.00517
707.17285	0.00523
705.88709	0.00530
704.60132	0.00535
703.31555	0.00537
702.02978	0.00536
700.74401	0.00534
699.45824	0.00533
698.17247	0.00532
696.88670	0.00532
695.60094	0.00533
694.31517	0.00536
693.02940	0.00543
691.74363	0.00553
690.45786	0.00563
689.17209	0.00571
687.88632	0.00573
686.60055	0.00568
685.31478	0.00557
684.02902	0.00548
682.74325	0.00544
681.45748	0.00543
680.17171	0.00544
678.88594	0.00544
677.60017	0.00544
676.31440	0.00545
675.02863	0.00543
673.74287	0.00541
672.45710	0.00541
671.17133	0.00547
669.88556	0.00559
668.59979	0.00568
667.31402	0.00560
666.02825	0.00555
664.74248	0.00549
663.45671	0.00542
662.17095	0.00540
660.88518	0.00543
659.59941	0.00552
658.31364	0.00566
657.02787	0.00579
655.74210	0.00585
654.45633	0.00582
653.17056	0.00575
651.88480	0.00569
650.59903	0.00571
649.31326	0.00579
648.02749	0.00588
646.74172	0.00595
645.45595	0.00601
644.17018	0.00609
642.88441	0.00623
641.59864	0.00640
640.31288	0.00658
639.02711	0.00673
637.74134	0.00683
636.45557	0.00695
635.16980	0.00711
633.88403	0.00732
632.59826	0.00754
631.31249	0.00770
630.02673	0.00748
628.74096	0.00707
627.45519	0.00779
626.16942	0.00695
624.88365	0.00475
623.59788	0.00228
622.31211	0.00052
621.02634	0.00032
619.74057	0.00181
618.45481	0.00431
617.16904	0.00697
615.88327	0.00942
614.59750	0.01178
613.31173	0.01424
612.02596	0.01647
610.74019	0.01768
609.45442	0.01749
608.16866	0.01653
606.88289	0.01582
605.59712	0.01587
604.31135	0.01660
603.02558	0.01759
601.73981	0.01841
600.45404	0.01879
599.16827	0.01871
597.88250	0.01829
596.59674	0.01771
595.31097	0.01706
594.02520	0.01640
592.73943	0.01580
591.45366	0.01543
590.16789	0.01544
588.88212	0.01583
587.59635	0.01640
586.31059	0.01698
585.02482	0.01750
583.73905	0.01805
582.45328	0.01873
581.16751	0.01948
579.88174	0.02018
578.59597	0.02075
577.31020	0.02123
576.02443	0.02174
574.73867	0.02235
573.45290	0.02300
572.16713	0.02363
570.88136	0.02418
569.59559	0.02465
568.30982	0.02506
567.02405	0.02541
565.73828	0.02567
564.45251	0.02582
563.16675	0.02581
561.88098	0.02560
560.59521	0.02514
559.30944	0.02439
558.02367	0.02331
556.73790	0.02192
555.45213	0.02035
554.16636	0.01880
552.88060	0.01744
551.59483	0.01631
550.30906	0.01535
549.02329	0.01445
547.73752	0.01355
546.45175	0.01266
545.16598	0.01182
543.88021	0.01111
542.59444	0.01062
541.30868	0.01038
540.02291	0.01027
538.73714	0.01015
537.45137	0.00992
536.16560	0.00957
534.87983	0.00919
533.59406	0.00881
532.30829	0.00848
531.02253	0.00822
529.73676	0.00805
528.45099	0.00793
527.16522	0.00782
525.87945	0.00771
524.59368	0.00763
523.30791	0.00755
522.02214	0.00743
520.73637	0.00723
519.45061	0.00697
518.16484	0.00670
516.87907	0.00649
515.59330	0.00637
514.30753	0.00635
513.02176	0.00639
511.73599	0.00646
510.45022	0.00650
509.16446	0.00648
507.87869	0.00634
506.59292	0.00607
505.30715	0.00580
504.02138	0.00565
502.73561	0.00563
501.44984	0.00562
500.16407	0.00550
498.87830	0.00527
497.59254	0.00508
496.30677	0.00503
495.02100	0.00511
493.73523	0.00522
492.44946	0.00528
491.16369	0.00535
489.87792	0.00546
488.59215	0.00557
487.30639	0.00560
486.02062	0.00555
484.73485	0.00549
483.44908	0.00552
482.16331	0.00562
480.87754	0.00576
479.59177	0.00588
478.30600	0.00598
477.02023	0.00606
475.73447	0.00615
474.44870	0.00624
473.16293	0.00635
471.87716	0.00645
470.59139	0.00651
469.30562	0.00652
468.01985	0.00646
466.73408	0.00634
465.44832	0.00617
464.16255	0.00599
462.87678	0.00587
461.59101	0.00580
460.30524	0.00576
459.01947	0.00569
457.73370	0.00560
456.44793	0.00554
455.16216	0.00553
453.87640	0.00552
452.59063	0.00551
451.30486	0.00551
450.01909	0.00554
448.73332	0.00561
447.44755	0.00569
446.16178	0.00572
444.87601	0.00570
443.59025	0.00563
442.30448	0.00556
441.01871	0.00551
439.73294	0.00547
438.44717	0.00541
437.16140	0.00534
435.87563	0.00525
434.58986	0.00517
433.30409	0.00510
432.01833	0.00505
430.73256	0.00502
429.44679	0.00501
428.16102	0.00503
426.87525	0.00505
425.58948	0.00507
424.30371	0.00508
423.01794	0.00507
421.73218	0.00502
420.44641	0.00496
419.16064	0.00493
417.87487	0.00496
416.58910	0.00498
415.30333	0.00493
414.01756	0.00481
412.73179	0.00468
411.44602	0.00462
410.16026	0.00465
408.87449	0.00475
407.58872	0.00486
406.30295	0.00495
405.01718	0.00503
403.73141	0.00511
402.44564	0.00519
401.15987	0.00525
399.87411	0.00530
