3997.45528	0.05149
3996.16951	0.05117
3994.88374	0.05121
3993.59798	0.05176
3992.31221	0.05264
3991.02644	0.05352
3989.74067	0.05414
3988.45490	0.05448
3987.16913	0.05476
3985.88336	0.05512
3984.59759	0.05539
3983.31183	0.05525
3982.02606	0.05461
3980.74029	0.05368
3979.45452	0.05273
3978.16875	0.05187
3976.88298	0.05123
3975.59721	0.05091
3974.31144	0.05088
3973.02567	0.05101
3971.73991	0.05118
3970.45414	0.05141
3969.16837	0.05162
3967.88260	0.05169
3966.59683	0.05155
3965.31106	0.05127
3964.02529	0.05093
3962.73952	0.05058
3961.45376	0.05033
3960.16799	0.05027
3958.88222	0.05032
3957.59645	0.05027
3956.31068	0.05018
3955.02491	0.05042
3953.73914	0.05117
3952.45337	0.05211
3951.16760	0.05270
3949.88184	0.05262
3948.59607	0.05198
3947.31030	0.05114
3946.02453	0.05051
3944.73876	0.05031
3943.45299	0.05044
3942.16722	0.05060
3940.88145	0.05059
3939.59569	0.05038
3938.30992	0.05002
3937.02415	0.04952
3935.73838	0.04903
3934.45261	0.04878
3933.16684	0.04891
3931.88107	0.04931
3930.59530	0.04970
3929.30953	0.04978
3928.02377	0.04950
3926.73800	0.04912
3925.45223	0.04905
3924.16646	0.04950
3922.88069	0.05032
3921.59492	0.05110
3920.30915	0.05148
3919.02338	0.05136
3917.73762	0.05085
3916.45185	0.05019
3915.16608	0.04963
3913.88031	0.04928
3912.59454	0.04909
3911.30877	0.04894
3910.02300	0.04871
3908.73723	0.04830
3907.45146	0.04782
3906.16570	0.04752
3904.87993	0.04771
3903.59416	0.04835
3902.30839	0.04906
3901.02262	0.04934
3899.73685	0.04897
3898.45108	0.04820
3897.16531	0.04751
3895.87955	0.04718
3894.59378	0.04718
3893.30801	0.04734
3892.02224	0.04742
3890.73647	0.04720
3889.45070	0.04677
3888.16493	0.04658
3886.87916	0.04687
3885.59339	0.04728
3884.30763	0.04725
3883.02186	0.04673
3881.73609	0.04617
3880.45032	0.04589
3879.16455	0.04588
3877.87878	0.04601
3876.59301	0.04614
3875.30724	0.04610
3874.02148	0.04575
3872.73571	0.04536
3871.44994	0.04533
3870.16417	0.04559
3868.87840	0.04564
3867.59263	0.04531
3866.30686	0.04490
3865.02109	0.04471
3863.73532	0.04480
3862.44956	0.04505
3861.16379	0.04532
3859.87802	0.04549
3858.59225	0.04543
3857.30648	0.04527
3856.02071	0.04529
3854.73494	0.04556
3853.44917	0.04581
3852.16341	0.04584
3850.87764	0.04580
3849.59187	0.04586
3848.30610	0.04589
3847.02033	0.04574
3845.73456	0.04542
3844.44879	0.04496
3843.16302	0.04435
3841.87725	0.04367
3840.59149	0.04332
3839.30572	0.04358
3838.01995	0.04423
3836.73418	0.04465
3835.44841	0.04452
3834.16264	0.04402
3832.87687	0.04346
3831.59110	0.04302
3830.30534	0.04282
3829.01957	0.04303
3827.73380	0.04361
3826.44803	0.04411
3825.16226	0.04415
3823.87649	0.04395
3822.59072	0.04396
3821.30495	0.04418
3820.01918	0.04422
3818.73342	0.04396
3817.44765	0.04357
3816.16188	0.04311
3814.87611	0.04257
3813.59034	0.04218
3812.30457	0.04214
3811.01880	0.04241
3809.73303	0.04283
3808.44726	0.04322
3807.16150	0.04322
3805.87573	0.04272
3804.58996	0.04217
3803.30419	0.04217
3802.01842	0.04273
3800.73265	0.04332
3799.44688	0.04360
3798.16111	0.04375
3796.87535	0.04400
3795.58958	0.04436
3794.30381	0.04467
3793.01804	0.04471
3791.73227	0.04441
3790.44650	0.04394
3789.16073	0.04354
3787.87496	0.04327
3786.58919	0.04295
3785.30343	0.04246
3784.01766	0.04189
3782.73189	0.04150
3781.44612	0.04141
3780.16035	0.04151
3778.87458	0.04153
3777.58881	0.04135
3776.30304	0.04105
3775.01728	0.04076
3773.73151	0.04069
3772.44574	0.04107
3771.15997	0.04184
3769.87420	0.04265
3768.58843	0.04312
3767.30266	0.04317
3766.01689	0.04288
3764.73112	0.04240
3763.44536	0.04204
3762.15959	0.04207
3760.87382	0.04250
3759.58805	0.04300
3758.30228	0.04315
3757.01651	0.04278
3755.73074	0.04208
3754.44497	0.04144
3753.15921	0.04132
3751.87344	0.04191
3750.58767	0.04287
3749.30190	0.04348
3748.01613	0.04336
3746.73036	0.04310
3745.44459	0.04340
3744.15882	0.04397
3742.87305	0.04403
3741.58729	0.04338
3740.30152	0.04240
3739.01575	0.04170
3737.72998	0.04170
3736.44421	0.04230
3735.15844	0.04298
3733.87267	0.04339
3732.58690	0.04348
3731.30114	0.04330
3730.01537	0.04295
3728.72960	0.04264
3727.44383	0.04250
3726.15806	0.04238
3724.87229	0.04205
3723.58652	0.04146
3722.30075	0.04076
3721.01498	0.04018
3719.72922	0.03981
3718.44345	0.03970
3717.15768	0.03987
3715.87191	0.04025
3714.58614	0.04074
3713.30037	0.04112
3712.01460	0.04121
3710.72883	0.04107
3709.44307	0.04101
3708.15730	0.04122
3706.87153	0.04148
3705.58576	0.04149
3704.29999	0.04127
3703.01422	0.04106
3701.72845	0.04091
3700.44268	0.04069
3699.15691	0.04038
3697.87115	0.03999
3696.58538	0.03959
3695.29961	0.03933
3694.01384	0.03923
3692.72807	0.03916
3691.44230	0.03915
3690.15653	0.03941
3688.87076	0.03973
3687.58500	0.03958
3686.29923	0.03886
3685.01346	0.03806
3683.72769	0.03785
3682.44192	0.03838
3681.15615	0.03915
3679.87038	0.03945
3678.58461	0.03910
3677.29884	0.03851
3676.01308	0.03803
3674.72731	0.03771
3673.44154	0.03777
3672.15577	0.03852
3670.87000	0.03977
3669.58423	0.04076
3668.29846	0.04102
3667.01269	0.04070
3665.72693	0.04023
3664.44116	0.03981
3663.15539	0.03937
3661.86962	0.03887
3660.58385	0.03837
3659.29808	0.03803
3658.01231	0.03784
3656.72654	0.03763
3655.44077	0.03736
3654.15501	0.03732
3652.86924	0.03782
3651.58347	0.03874
3650.29770	0.03960
3649.01193	0.04005
3647.72616	0.04006
3646.44039	0.03976
3645.15462	0.03928
3643.86886	0.03881
3642.58309	0.03856
3641.29732	0.03861
3640.01155	0.03884
3638.72578	0.03904
3637.44001	0.03911
3636.15424	0.03909
3634.86847	0.03903
3633.58270	0.03884
3632.29694	0.03857
3631.01117	0.03844
3629.72540	0.03864
3628.43963	0.03900
3627.15386	0.03931
3625.86809	0.03949
3624.58232	0.03950
3623.29655	0.03943
3622.01079	0.03940
3620.72502	0.03947
3619.43925	0.03953
3618.15348	0.03956
3616.86771	0.03975
3615.58194	0.04016
3614.29617	0.04046
3613.01040	0.04024
3611.72463	0.03955
3610.43887	0.03897
3609.15310	0.03888
3607.86733	0.03906
3606.58156	0.03901
3605.29579	0.03855
3604.01002	0.03808
3602.72425	0.03805
3601.43848	0.03855
3600.15272	0.03916
3598.86695	0.03948
3597.58118	0.03941
3596.29541	0.03924
3595.00964	0.03933
3593.72387	0.03966
3592.43810	0.03977
3591.15233	0.03934
3589.86656	0.03882
3588.58080	0.03889
3587.29503	0.03966
3586.00926	0.04050
3584.72349	0.04078
3583.43772	0.04039
3582.15195	0.03979
3580.86618	0.03948
3579.58041	0.03954
3578.29464	0.03973
3577.00888	0.03982
3575.72311	0.03972
3574.43734	0.03946
3573.15157	0.03916
3571.86580	0.03896
3570.58003	0.03902
3569.29426	0.03931
3568.00849	0.03961
3566.72273	0.03969
3565.43696	0.03958
3564.15119	0.03950
3562.86542	0.03950
3561.57965	0.03946
3560.29388	0.03933
3559.00811	0.03931
3557.72234	0.03945
3556.43657	0.03950
3555.15081	0.03923
3553.86504	0.03881
3552.57927	0.03864
3551.29350	0.03884
3550.00773	0.03913
3548.72196	0.03925
3547.43619	0.03928
3546.15042	0.03950
3544.86466	0.04004
3543.57889	0.04064
3542.29312	0.04095
3541.00735	0.04090
3539.72158	0.04078
3538.43581	0.04088
3537.15004	0.04111
3535.86427	0.04121
3534.57850	0.04106
3533.29274	0.04086
3532.00697	0.04085
3530.72120	0.04111
3529.43543	0.04152
3528.14966	0.04189
3526.86389	0.04217
3525.57812	0.04247
3524.29235	0.04288
3523.00659	0.04331
3521.72082	0.04348
3520.43505	0.04321
3519.14928	0.04255
3517.86351	0.04176
3516.57774	0.04112
3515.29197	0.04084
3514.00620	0.04096
3512.72043	0.04133
3511.43467	0.04172
3510.14890	0.04204
3508.86313	0.04229
3507.57736	0.04251
3506.29159	0.04264
3505.00582	0.04260
3503.72005	0.04235
3502.43428	0.04197
3501.14852	0.04163
3499.86275	0.04146
3498.57698	0.04154
3497.29121	0.04178
3496.00544	0.04203
3494.71967	0.04218
3493.43390	0.04218
3492.14813	0.04209
3490.86236	0.04194
3489.57660	0.04182
3488.29083	0.04178
3487.00506	0.04183
3485.71929	0.04196
3484.43352	0.04208
3483.14775	0.04213
3481.86198	0.04211
3480.57621	0.04214
3479.29045	0.04229
3478.00468	0.04241
3476.71891	0.04234
3475.43314	0.04216
3474.14737	0.04214
3472.86160	0.04240
3471.57583	0.04271
3470.29006	0.04281
3469.00429	0.04271
3467.71853	0.04261
3466.43276	0.04269
3465.14699	0.04288
3463.86122	0.04303
3462.57545	0.04300
3461.28968	0.04277
3460.00391	0.04245
3458.71814	0.04215
3457.43238	0.04194
3456.14661	0.04177
3454.86084	0.04170
3453.57507	0.04187
3452.28930	0.04237
3451.00353	0.04302
3449.71776	0.04348
3448.43199	0.04344
3447.14622	0.04290
3445.86046	0.04216
3444.57469	0.04166
3443.28892	0.04162
3442.00315	0.04199
3440.71738	0.04252
3439.43161	0.04298
3438.14584	0.04334
3436.86007	0.04376
3435.57431	0.04435
3434.28854	0.04482
3433.00277	0.04467
3431.71700	0.04373
3430.43123	0.04244
3429.14546	0.04152
3427.85969	0.04137
3426.57392	0.04182
3425.28815	0.04243
3424.00239	0.04290
3422.71662	0.04317
3421.43085	0.04326
3420.14508	0.04317
3418.85931	0.04301
3417.57354	0.04296
3416.28777	0.04305
3415.00200	0.04317
3413.71624	0.04320
3412.43047	0.04316
3411.14470	0.04311
3409.85893	0.04304
3408.57316	0.04302
3407.28739	0.04320
3406.00162	0.04361
3404.71585	0.04404
3403.43008	0.04425
3402.14432	0.04417
3400.85855	0.04389
3399.57278	0.04354
3398.28701	0.04318
3397.00124	0.04285
3395.71547	0.04273
3394.42970	0.04281
3393.14393	0.04292
3391.85817	0.04291
3390.57240	0.04287
3389.28663	0.04293
3388.00086	0.04308
3386.71509	0.04317
3385.42932	0.04318
3384.14355	0.04322
3382.85778	0.04341
3381.57201	0.04375
3380.28625	0.04419
3379.00048	0.04466
3377.71471	0.04503
3376.42894	0.04510
3375.14317	0.04490
3373.85740	0.04463
3372.57163	0.04447
3371.28586	0.04441
3370.00010	0.04431
3368.71433	0.04416
3367.42856	0.04404
3366.14279	0.04401
3364.85702	0.04403
3363.57125	0.04410
3362.28548	0.04422
3360.99971	0.04435
3359.71394	0.04440
3358.42818	0.04433
3357.14241	0.04424
3355.85664	0.04424
3354.57087	0.04432
3353.28510	0.04446
3351.99933	0.04466
3350.71356	0.04495
3349.42779	0.04524
3348.14202	0.04540
3346.85626	0.04536
3345.57049	0.04519
3344.28472	0.04494
3342.99895	0.04470
3341.71318	0.04451
3340.42741	0.04439
3339.14164	0.04432
3337.85587	0.04429
3336.57011	0.04436
3335.28434	0.04465
3333.99857	0.04516
3332.71280	0.04571
3331.42703	0.04602
3330.14126	0.04588
3328.85549	0.04543
3327.56972	0.04501
3326.28395	0.04496
3324.99819	0.04530
3323.71242	0.04577
3322.42665	0.04614
3321.14088	0.04634
3319.85511	0.04646
3318.56934	0.04654
3317.28357	0.04657
3315.99780	0.04655
3314.71204	0.04652
3313.42627	0.04645
3312.14050	0.04631
3310.85473	0.04613
3309.56896	0.04606
3308.28319	0.04617
3306.99742	0.04638
3305.71165	0.04660
3304.42588	0.04676
3303.14012	0.04682
3301.85435	0.04671
3300.56858	0.04636
3299.28281	0.04580
3297.99704	0.04521
3296.71127	0.04485
3295.42550	0.04492
3294.13973	0.04539
3292.85397	0.04592
3291.56820	0.04608
3290.28243	0.04569
3288.99666	0.04497
3287.71089	0.04426
3286.42512	0.04383
3285.13935	0.04383
3283.85358	0.04430
3282.56781	0.04511
3281.28205	0.04597
3279.99628	0.04661
3278.71051	0.04693
3277.42474	0.04707
3276.13897	0.04714
3274.85320	0.04716
3273.56743	0.04711
3272.28166	0.04700
3270.99590	0.04691
3269.71013	0.04679
3268.42436	0.04657
3267.13859	0.04623
3265.85282	0.04597
3264.56705	0.04599
3263.28128	0.04630
3261.99551	0.04668
3260.70974	0.04693
3259.42398	0.04699
3258.13821	0.04697
3256.85244	0.04696
3255.56667	0.04687
3254.28090	0.04650
3252.99513	0.04579
3251.70936	0.04490
3250.42359	0.04418
3249.13783	0.04392
3247.85206	0.04414
3246.56629	0.04459
3245.28052	0.04492
3243.99475	0.04490
3242.70898	0.04458
3241.42321	0.04420
3240.13744	0.04400
3238.85167	0.04406
3237.56591	0.04433
3236.28014	0.04463
3234.99437	0.04473
3233.70860	0.04453
3232.42283	0.04421
3231.13706	0.04407
3229.85129	0.04428
3228.56552	0.04479
3227.27976	0.04534
3225.99399	0.04565
3224.70822	0.04559
3223.42245	0.04525
3222.13668	0.04485
3220.85091	0.04454
3219.56514	0.04421
3218.27937	0.04378
3216.99360	0.04334
3215.70784	0.04306
3214.42207	0.04300
3213.13630	0.04306
3211.85053	0.04312
3210.56476	0.04312
3209.27899	0.04301
3207.99322	0.04283
3206.70745	0.04269
3205.42169	0.04268
3204.13592	0.04282
3202.85015	0.04304
3201.56438	0.04323
3200.27861	0.04328
3198.99284	0.04315
3197.70707	0.04292
3196.42130	0.04271
3195.13553	0.04262
3193.84977	0.04263
3192.56400	0.04277
3191.27823	0.04303
3189.99246	0.04334
3188.70669	0.04355
3187.42092	0.04353
3186.13515	0.04326
3184.84938	0.04291
3183.56362	0.04265
3182.27785	0.04253
3180.99208	0.04249
3179.70631	0.04242
3178.42054	0.04230
3177.13477	0.04216
3175.84900	0.04201
3174.56323	0.04190
3173.27746	0.04189
3171.99170	0.04202
3170.70593	0.04220
3169.42016	0.04220
3168.13439	0.04185
3166.84862	0.04122
3165.56285	0.04061
3164.27708	0.04036
3162.99131	0.04055
3161.70555	0.04100
3160.41978	0.04144
3159.13401	0.04173
3157.84824	0.04180
3156.56247	0.04167
3155.27670	0.04140
3153.99093	0.04105
3152.70516	0.04064
3151.41939	0.04022
3150.13363	0.03990
3148.84786	0.03982
3147.56209	0.03993
3146.27632	0.04003
3144.99055	0.03993
3143.70478	0.03970
3142.41901	0.03953
3141.13324	0.03955
3139.84748	0.03966
3138.56171	0.03978
3137.27594	0.03991
3135.99017	0.04010
3134.70440	0.04029
3133.41863	0.04035
3132.13286	0.04020
3130.84709	0.03993
3129.56132	0.03964
3128.27556	0.03938
3126.98979	0.03921
3125.70402	0.03916
3124.41825	0.03925
3123.13248	0.03947
3121.84671	0.03972
3120.56094	0.03989
3119.27517	0.03985
3117.98940	0.03959
3116.70364	0.03919
3115.41787	0.03878
3114.13210	0.03845
3112.84633	0.03827
3111.56056	0.03830
3110.27479	0.03849
3108.98902	0.03869
3107.70325	0.03867
3106.41749	0.03838
3105.13172	0.03793
3103.84595	0.03758
3102.56018	0.03754
3101.27441	0.03778
3099.98864	0.03811
3098.70287	0.03834
3097.41710	0.03841
3096.13133	0.03839
3094.84557	0.03841
3093.55980	0.03850
3092.27403	0.03860
3090.98826	0.03862
3089.70249	0.03848
3088.41672	0.03827
3087.13095	0.03813
3085.84518	0.03811
3084.55942	0.03812
3083.27365	0.03809
3081.98788	0.03805
3080.70211	0.03806
3079.41634	0.03807
3078.13057	0.03804
3076.84480	0.03804
3075.55903	0.03818
3074.27326	0.03842
3072.98750	0.03857
3071.70173	0.03842
3070.41596	0.03801
3069.13019	0.03755
3067.84442	0.03726
3066.55865	0.03717
3065.27288	0.03718
3063.98711	0.03721
3062.70135	0.03723
3061.41558	0.03729
3060.12981	0.03741
3058.84404	0.03757
3057.55827	0.03771
3056.27250	0.03773
3054.98673	0.03759
3053.70096	0.03737
3052.41519	0.03717
3051.12943	0.03703
3049.84366	0.03687
3048.55789	0.03664
3047.27212	0.03640
3045.98635	0.03625
3044.70058	0.03618
3043.41481	0.03616
3042.12904	0.03622
3040.84328	0.03638
3039.55751	0.03662
3038.27174	0.03681
3036.98597	0.03682
3035.70020	0.03661
3034.41443	0.03622
3033.12866	0.03573
3031.84289	0.03528
3030.55712	0.03502
3029.27136	0.03494
3027.98559	0.03490
3026.69982	0.03477
3025.41405	0.03454
3024.12828	0.03437
3022.84251	0.03432
3021.55674	0.03432
3020.27097	0.03425
3018.98521	0.03412
3017.69944	0.03404
3016.41367	0.03411
3015.12790	0.03434
3013.84213	0.03462
3012.55636	0.03476
3011.27059	0.03465
3009.98482	0.03431
3008.69905	0.03394
3007.41329	0.03373
3006.12752	0.03371
3004.84175	0.03381
3003.55598	0.03394
3002.27021	0.03403
3000.98444	0.03403
2999.69867	0.03391
2998.41290	0.03352
2997.12714	0.03314
2995.84137	0.03300
2994.55560	0.03309
2993.26983	0.03326
2991.98406	0.03336
2990.69829	0.03343
2989.41252	0.03356
2988.12675	0.03378
2986.84098	0.03400
2985.55522	0.03414
2984.26945	0.03413
2982.98368	0.03400
2981.69791	0.03382
2980.41214	0.03371
2979.12637	0.03373
2977.84060	0.03389
2976.55483	0.03415
2975.26907	0.03441
2973.98330	0.03453
2972.69753	0.03445
2971.41176	0.03427
2970.12599	0.03410
2968.84022	0.03404
2967.55445	0.03410
2966.26868	0.03429
2964.98291	0.03451
2963.69715	0.03463
2962.41138	0.03460
2961.12561	0.03454
2959.83984	0.03457
2958.55407	0.03468
2957.26830	0.03485
2955.98253	0.03504
2954.69676	0.03518
2953.41100	0.03512
2952.12523	0.03484
2950.83946	0.03451
2949.55369	0.03431
2948.26792	0.03421
2946.98215	0.03408
2945.69638	0.03385
2944.41061	0.03361
2943.12484	0.03346
2941.83908	0.03343
2940.55331	0.03356
2939.26754	0.03386
2937.98177	0.03423
2936.69600	0.03451
2935.41023	0.03455
2934.12446	0.03436
2932.83869	0.03411
2931.55293	0.03403
2930.26716	0.03423
2928.98139	0.03456
2927.69562	0.03471
2926.40985	0.03448
2925.12408	0.03402
2923.83831	0.03360
2922.55254	0.03338
2921.26677	0.03335
2919.98101	0.03342
2918.69524	0.03356
2917.40947	0.03373
2916.12370	0.03381
2914.83793	0.03374
2913.55216	0.03355
2912.26639	0.03334
2910.98062	0.03319
2909.69486	0.03312
2908.40909	0.03309
2907.12332	0.03302
2905.83755	0.03288
2904.55178	0.03281
2903.26601	0.03294
2901.98024	0.03319
2900.69447	0.03328
2899.40870	0.03297
2898.12294	0.03236
2896.83717	0.03178
2895.55140	0.03151
2894.26563	0.03160
2892.97986	0.03184
2891.69409	0.03199
2890.40832	0.03195
2889.12255	0.03181
2887.83678	0.03171
2886.55102	0.03168
2885.26525	0.03166
2883.97948	0.03154
2882.69371	0.03130
2881.40794	0.03107
2880.12217	0.03099
2878.83640	0.03104
2877.55063	0.03107
2876.26487	0.03103
2874.97910	0.03098
2873.69333	0.03102
2872.40756	0.03114
2871.12179	0.03129
2869.83602	0.03143
2868.55025	0.03149
2867.26448	0.03146
2865.97871	0.03135
2864.69295	0.03122
2863.40718	0.03113
2862.12141	0.03107
2860.83564	0.03100
2859.54987	0.03088
2858.26410	0.03075
2856.97833	0.03067
2855.69256	0.03066
2854.40680	0.03062
2853.12103	0.03050
2851.83526	0.03030
2850.54949	0.03008
2849.26372	0.02988
2847.97795	0.02978
2846.69218	0.02979
2845.40641	0.02987
2844.12064	0.02992
2842.83488	0.02994
2841.54911	0.02997
2840.26334	0.03000
2838.97757	0.02994
2837.69180	0.02966
2836.40603	0.02921
2835.12026	0.02877
2833.83449	0.02856
2832.54873	0.02867
2831.26296	0.02893
2829.97719	0.02914
2828.69142	0.02920
2827.40565	0.02916
2826.11988	0.02907
2824.83411	0.02895
2823.54834	0.02886
2822.26257	0.02883
2820.97681	0.02884
2819.69104	0.02879
2818.40527	0.02864
2817.11950	0.02847
2815.83373	0.02834
2814.54796	0.02821
2813.26219	0.02802
2811.97642	0.02780
2810.69066	0.02765
2809.40489	0.02760
2808.11912	0.02760
2806.83335	0.02762
2805.54758	0.02766
2804.26181	0.02769
2802.97604	0.02768
2801.69027	0.02767
2800.40450	0.02773
2799.11874	0.02777
2797.83297	0.02768
2796.54720	0.02742
2795.26143	0.02715
2793.97566	0.02702
2792.68989	0.02702
2791.40412	0.02710
2790.11835	0.02721
2788.83259	0.02735
2787.54682	0.02743
2786.26105	0.02739
2784.97528	0.02723
2783.68951	0.02702
2782.40374	0.02685
2781.11797	0.02679
2779.83220	0.02683
2778.54643	0.02697
2777.26067	0.02711
2775.97490	0.02719
2774.68913	0.02721
2773.40336	0.02721
2772.11759	0.02720
2770.83182	0.02714
2769.54605	0.02705
2768.26028	0.02692
2766.97452	0.02674
2765.68875	0.02654
2764.40298	0.02635
2763.11721	0.02624
2761.83144	0.02622
2760.54567	0.02631
2759.25990	0.02647
2757.97413	0.02663
2756.68836	0.02671
2755.40260	0.02671
2754.11683	0.02671
2752.83106	0.02671
2751.54529	0.02663
2750.25952	0.02641
2748.97375	0.02614
2747.68798	0.02598
2746.40221	0.02598
2745.11645	0.02606
2743.83068	0.02606
2742.54491	0.02593
2741.25914	0.02577
2739.97337	0.02571
2738.68760	0.02576
2737.40183	0.02587
2736.11606	0.02596
2734.83029	0.02599
2733.54453	0.02591
2732.25876	0.02570
2730.97299	0.02544
2729.68722	0.02524
2728.40145	0.02515
2727.11568	0.02512
2725.82991	0.02516
2724.54414	0.02527
2723.25838	0.02541
2721.97261	0.02550
2720.68684	0.02548
2719.40107	0.02536
2718.11530	0.02522
2716.82953	0.02514
2715.54376	0.02516
2714.25799	0.02522
2712.97222	0.02522
2711.68646	0.02512
2710.40069	0.02490
2709.11492	0.02459
2707.82915	0.02423
2706.54338	0.02394
2705.25761	0.02387
2703.97184	0.02403
2702.68607	0.02426
2701.40031	0.02435
2700.11454	0.02428
2698.82877	0.02418
2697.54300	0.02416
2696.25723	0.02420
2694.97146	0.02421
2693.68569	0.02412
2692.39992	0.02397
2691.11415	0.02387
2689.82839	0.02383
2688.54262	0.02383
2687.25685	0.02381
2685.97108	0.02382
2684.68531	0.02391
2683.39954	0.02410
2682.11377	0.02428
2680.82800	0.02429
2679.54224	0.02412
2678.25647	0.02391
2676.97070	0.02383
2675.68493	0.02393
2674.39916	0.02410
2673.11339	0.02421
2671.82762	0.02421
2670.54185	0.02416
2669.25608	0.02411
2667.97032	0.02410
2666.68455	0.02412
2665.39878	0.02412
2664.11301	0.02400
2662.82724	0.02377
2661.54147	0.02350
2660.25570	0.02331
2658.96993	0.02324
2657.68417	0.02323
2656.39840	0.02316
2655.11263	0.02298
2653.82686	0.02276
2652.54109	0.02263
2651.25532	0.02265
2649.96955	0.02279
2648.68378	0.02296
2647.39801	0.02304
2646.11225	0.02295
2644.82648	0.02269
2643.54071	0.02241
2642.25494	0.02220
2640.96917	0.02207
2639.68340	0.02196
2638.39763	0.02182
2637.11186	0.02160
2635.82609	0.02130
2634.54033	0.02101
2633.25456	0.02092
2631.96879	0.02105
2630.68302	0.02123
2629.39725	0.02123
2628.11148	0.02105
2626.82571	0.02086
2625.53994	0.02076
2624.25418	0.02067
2622.96841	0.02051
2621.68264	0.02038
2620.39687	0.02037
2619.11110	0.02046
2617.82533	0.02055
2616.53956	0.02067
2615.25379	0.02091
2613.96802	0.02116
2612.68226	0.02117
2611.39649	0.02087
2610.11072	0.02050
2608.82495	0.02040
2607.53918	0.02070
2606.25341	0.02118
2604.96764	0.02151
2603.68187	0.02156
2602.39611	0.02149
2601.11034	0.02154
2599.82457	0.02166
2598.53880	0.02161
2597.25303	0.02125
2595.96726	0.02074
2594.68149	0.02038
2593.39572	0.02029
2592.10995	0.02040
2590.82419	0.02054
2589.53842	0.02066
2588.25265	0.02076
2586.96688	0.02084
2585.68111	0.02086
2584.39534	0.02082
2583.10957	0.02069
2581.82380	0.02044
2580.53804	0.02012
2579.25227	0.01989
2577.96650	0.01984
2576.68073	0.01991
2575.39496	0.01989
2574.10919	0.01974
2572.82342	0.01955
2571.53765	0.01948
2570.25188	0.01957
2568.96612	0.01971
2567.68035	0.01976
2566.39458	0.01969
2565.10881	0.01961
2563.82304	0.01963
2562.53727	0.01973
2561.25150	0.01981
2559.96573	0.01979
2558.67997	0.01968
2557.39420	0.01964
2556.10843	0.01980
2554.82266	0.02006
2553.53689	0.02016
2552.25112	0.01997
2550.96535	0.01962
2549.67958	0.01934
2548.39381	0.01927
2547.10805	0.01938
2545.82228	0.01956
2544.53651	0.01969
2543.25074	0.01976
2541.96497	0.01982
2540.67920	0.01990
2539.39343	0.01987
2538.10766	0.01961
2536.82190	0.01916
2535.53613	0.01879
2534.25036	0.01874
2532.96459	0.01894
2531.67882	0.01907
2530.39305	0.01897
2529.10728	0.01878
2527.82151	0.01871
2526.53574	0.01877
2525.24998	0.01880
2523.96421	0.01873
2522.67844	0.01857
2521.39267	0.01840
2520.10690	0.01829
2518.82113	0.01826
2517.53536	0.01834
2516.24959	0.01851
2514.96383	0.01873
2513.67806	0.01901
2512.39229	0.01933
2511.10652	0.01963
2509.82075	0.01993
2508.53498	0.02022
2507.24921	0.02045
2505.96344	0.02050
2504.67767	0.02024
2503.39191	0.01968
2502.10614	0.01903
2500.82037	0.01859
2499.53460	0.01847
2498.24883	0.01853
2496.96306	0.01852
2495.67729	0.01829
2494.39152	0.01801
2493.10576	0.01798
2491.81999	0.01837
2490.53422	0.01893
2489.24845	0.01916
2487.96268	0.01883
2486.67691	0.01823
2485.39114	0.01782
2484.10537	0.01777
2482.81960	0.01794
2481.53384	0.01814
2480.24807	0.01834
2478.96230	0.01855
2477.67653	0.01879
2476.39076	0.01907
2475.10499	0.01927
2473.81922	0.01926
2472.53345	0.01899
2471.24769	0.01866
2469.96192	0.01840
2468.67615	0.01825
2467.39038	0.01819
2466.10461	0.01827
2464.81884	0.01853
2463.53307	0.01881
2462.24730	0.01885
2460.96153	0.01858
2459.67577	0.01825
2458.39000	0.01814
2457.10423	0.01825
2455.81846	0.01838
2454.53269	0.01845
2453.24692	0.01849
2451.96115	0.01849
2450.67538	0.01833
2449.38962	0.01806
2448.10385	0.01789
2446.81808	0.01792
2445.53231	0.01807
2444.24654	0.01819
2442.96077	0.01824
2441.67500	0.01825
2440.38923	0.01819
2439.10346	0.01799
2437.81770	0.01766
2436.53193	0.01724
2435.24616	0.01677
2433.96039	0.01635
2432.67462	0.01619
2431.38885	0.01643
2430.10308	0.01690
2428.81731	0.01719
2427.53155	0.01710
2426.24578	0.01687
2424.96001	0.01685
2423.67424	0.01706
2422.38847	0.01727
2421.10270	0.01734
2419.81693	0.01734
2418.53116	0.01739
2417.24539	0.01743
2415.95963	0.01742
2414.67386	0.01744
2413.38809	0.01761
2412.10232	0.01792
2410.81655	0.01817
2409.53078	0.01823
2408.24501	0.01808
2406.95924	0.01785
2405.67347	0.01773
2404.38771	0.01782
2403.10194	0.01810
2401.81617	0.01843
2400.53040	0.01864
2399.24463	0.01849
2397.95886	0.01838
2396.67309	0.01808
2395.38732	0.01766
2394.10156	0.01731
2392.81579	0.01718
2391.53002	0.01726
2390.24425	0.01750
2388.95848	0.01781
2387.67271	0.01814
2386.38694	0.01841
2385.10117	0.01855
2383.81540	0.01851
2382.52964	0.01832
2381.24387	0.01808
2379.95810	0.01788
2378.67233	0.01758
2377.38656	0.01730
2376.10079	0.01728
2374.81502	0.01753
2373.52925	0.01753
2372.24349	0.01722
2370.95772	0.01701
2369.67195	0.01711
2368.38618	0.01727
2367.10041	0.01716
2365.81464	0.01700
2364.52887	0.01687
2363.24310	0.01679
2361.95733	0.01658
2360.67157	0.01601
2359.38580	0.01553
2358.10003	0.01560
2356.81426	0.01621
2355.52849	0.01710
2354.24272	0.01801
2352.95695	0.01852
2351.67118	0.01820
2350.38542	0.01761
2349.09965	0.01748
2347.81388	0.01758
2346.52811	0.01724
2345.24234	0.01703
2343.95657	0.01792
2342.67080	0.01944
2341.38503	0.01914
2340.09926	0.01731
2338.81350	0.01703
2337.52773	0.01834
2336.24196	0.01803
2334.95619	0.01681
2333.67042	0.01741
2332.38465	0.01899
2331.09888	0.01811
2329.81311	0.01730
2328.52735	0.01794
2327.24158	0.01739
2325.95581	0.01636
2324.67004	0.01647
2323.38427	0.01672
2322.09850	0.01611
2320.81273	0.01606
2319.52696	0.01590
2318.24119	0.01562
2316.95543	0.01585
2315.66966	0.01603
2314.38389	0.01625
2313.09812	0.01649
2311.81235	0.01626
2310.52658	0.01611
2309.24081	0.01617
2307.95504	0.01613
2306.66928	0.01608
2305.38351	0.01586
2304.09774	0.01566
2302.81197	0.01563
2301.52620	0.01567
2300.24043	0.01575
2298.95466	0.01566
2297.66889	0.01536
2296.38312	0.01495
2295.09736	0.01466
2293.81159	0.01460
2292.52582	0.01460
2291.24005	0.01450
2289.95428	0.01434
2288.66851	0.01433
2287.38274	0.01457
2286.09697	0.01498
2284.81121	0.01540
2283.52544	0.01564
2282.23967	0.01552
2280.95390	0.01499
2279.66813	0.01425
2278.38236	0.01361
2277.09659	0.01326
2275.81082	0.01319
2274.52505	0.01337
2273.23929	0.01371
2271.95352	0.01411
2270.66775	0.01432
2269.38198	0.01420
2268.09621	0.01375
2266.81044	0.01318
2265.52467	0.01281
2264.23890	0.01287
2262.95314	0.01324
2261.66737	0.01357
2260.38160	0.01369
2259.09583	0.01363
2257.81006	0.01357
2256.52429	0.01357
2255.23852	0.01356
2253.95275	0.01339
2252.66698	0.01308
2251.38122	0.01283
2250.09545	0.01275
2248.80968	0.01264
2247.52391	0.01282
2246.23814	0.01325
2244.95237	0.01399
2243.66660	0.01484
2242.38083	0.01539
2241.09507	0.01540
2239.80930	0.01493
2238.52353	0.01418
2237.23776	0.01330
2235.95199	0.01254
2234.66622	0.01223
2233.38045	0.01247
2232.09468	0.01283
2230.80891	0.01272
2229.52315	0.01195
2228.23738	0.01104
2226.95161	0.01063
2225.66584	0.01096
2224.38007	0.01171
2223.09430	0.01249
2221.80853	0.01308
2220.52276	0.01346
2219.23700	0.01365
2217.95123	0.01363
2216.66546	0.01337
2215.37969	0.01292
2214.09392	0.01245
2212.80815	0.01209
2211.52238	0.01179
2210.23661	0.01150
2208.95084	0.01137
2207.66508	0.01161
2206.37931	0.01215
2205.09354	0.01259
2203.80777	0.01253
2202.52200	0.01198
2201.23623	0.01135
2199.95046	0.01110
2198.66469	0.01128
2197.37893	0.01147
2196.09316	0.01124
2194.80739	0.01066
2193.52162	0.01015
2192.23585	0.00999
2190.95008	0.01009
2189.66431	0.01023
2188.37854	0.01015
2187.09277	0.00966
2185.80701	0.00886
2184.52124	0.00820
2183.23547	0.00797
2181.94970	0.00796
2180.66393	0.00764
2179.37816	0.00684
2178.09239	0.00596
2176.80662	0.00565
2175.52085	0.00623
2174.23509	0.00735
2172.94932	0.00816
2171.66355	0.00804
2170.37778	0.00710
2169.09201	0.00603
2167.80624	0.00540
2166.52047	0.00516
2165.23470	0.00482
2163.94894	0.00407
2162.66317	0.00312
2161.37740	0.00245
2160.09163	0.00250
2158.80586	0.00338
2157.52009	0.00469
2156.23432	0.00565
2154.94855	0.00582
2153.66278	0.00563
2152.37702	0.00594
2151.09125	0.00702
2149.80548	0.00826
2148.51971	0.00897
2147.23394	0.00909
2145.94817	0.00909
2144.66240	0.00931
2143.37663	0.00964
2142.09087	0.00962
2140.80510	0.00897
2139.51933	0.00790
2138.23356	0.00699
2136.94779	0.00658
2135.66202	0.00657
2134.37625	0.00677
2133.09048	0.00719
2131.80471	0.00781
2130.51895	0.00847
2129.23318	0.00907
2127.94741	0.00978
2126.66164	0.01063
2125.37587	0.01132
2124.09010	0.01149
2122.80433	0.01124
2121.51856	0.01100
2120.23280	0.01094
2118.94703	0.01078
2117.66126	0.01027
2116.37549	0.00950
2115.08972	0.00887
2113.80395	0.00861
2112.51818	0.00871
2111.23241	0.00905
2109.94664	0.00942
2108.66088	0.00960
2107.37511	0.00947
2106.08934	0.00923
2104.80357	0.00927
2103.51780	0.00971
2102.23203	0.01018
2100.94626	0.01015
2099.66049	0.00918
2098.37473	0.00825
2097.08896	0.00778
2095.80319	0.00762
2094.51742	0.00760
2093.23165	0.00761
2091.94588	0.00766
2090.66011	0.00774
2089.37434	0.00780
2088.08857	0.00782
2086.80281	0.00790
2085.51704	0.00817
2084.23127	0.00869
2082.94550	0.00926
2081.65973	0.00953
2080.37396	0.00931
2079.08819	0.00882
2077.80242	0.00843
2076.51666	0.00817
2075.23089	0.00780
2073.94512	0.00721
2072.65935	0.00663
2071.37358	0.00631
2070.08781	0.00627
2068.80204	0.00633
2067.51627	0.00640
2066.23050	0.00648
2064.94474	0.00650
2063.65897	0.00646
2062.37320	0.00652
2061.08743	0.00680
2059.80166	0.00706
2058.51589	0.00688
2057.23012	0.00612
2055.94435	0.00517
2054.65859	0.00462
2053.37282	0.00465
2052.08705	0.00501
2050.80128	0.00527
2049.51551	0.00516
2048.22974	0.00469
2046.94397	0.00397
2045.65820	0.00319
2044.37243	0.00255
2043.08667	0.00224
2041.80090	0.00234
2040.51513	0.00270
2039.22936	0.00297
2037.94359	0.00283
2036.65782	0.00225
2035.37205	0.00155
2034.08628	0.00124
2032.80052	0.00151
2031.51475	0.00204
2030.22898	0.00234
2028.94321	0.00238
2027.65744	0.00268
2026.37167	0.00368
2025.08590	0.00510
2023.80013	0.00622
2022.51436	0.00650
2021.22860	0.00602
2019.94283	0.00526
2018.65706	0.00462
2017.37129	0.00436
2016.08552	0.00453
2014.79975	0.00505
2013.51398	0.00556
2012.22821	0.00557
2010.94245	0.00501
2009.65668	0.00439
2008.37091	0.00438
2007.08514	0.00502
2005.79937	0.00577
2004.51360	0.00609
2003.22783	0.00592
2001.94206	0.00563
2000.65629	0.00562
1999.37053	0.00602
1998.08476	0.00664
1996.79899	0.00723
1995.51322	0.00773
1994.22745	0.00820
1992.94168	0.00847
1991.65591	0.00820
1990.37014	0.00729
1989.08438	0.00622
1987.79861	0.00558
1986.51284	0.00556
1985.22707	0.00564
1983.94130	0.00521
1982.65553	0.00424
1981.36976	0.00346
1980.08399	0.00357
1978.79822	0.00451
1977.51246	0.00555
1976.22669	0.00610
1974.94092	0.00624
1973.65515	0.00640
1972.36938	0.00677
1971.08361	0.00714
1969.79784	0.00730
1968.51207	0.00720
1967.22631	0.00697
1965.94054	0.00676
1964.65477	0.00671
1963.36900	0.00681
1962.08323	0.00701
1960.79746	0.00731
1959.51169	0.00779
1958.22592	0.00839
1956.94015	0.00875
1955.65439	0.00853
1954.36862	0.00781
1953.08285	0.00712
1951.79708	0.00693
1950.51131	0.00723
1949.22554	0.00765
1947.93977	0.00782
1946.65400	0.00775
1945.36823	0.00773
1944.08247	0.00801
1942.79670	0.00852
1941.51093	0.00898
1940.22516	0.00917
1938.93939	0.00913
1937.65362	0.00903
1936.36785	0.00898
1935.08208	0.00891
1933.79632	0.00877
1932.51055	0.00873
1931.22478	0.00903
1929.93901	0.00967
1928.65324	0.01029
1927.36747	0.01057
1926.08170	0.01052
1924.79593	0.01035
1923.51016	0.01014
1922.22440	0.00983
1920.93863	0.00947
1919.65286	0.00925
1918.36709	0.00930
1917.08132	0.00951
1915.79555	0.00965
1914.50978	0.00954
1913.22401	0.00920
1911.93825	0.00878
1910.65248	0.00848
1909.36671	0.00840
1908.08094	0.00847
1906.79517	0.00859
1905.50940	0.00868
1904.22363	0.00869
1902.93786	0.00859
1901.65209	0.00836
1900.36633	0.00809
1899.08056	0.00791
1897.79479	0.00790
1896.50902	0.00804
1895.22325	0.00832
1893.93748	0.00876
1892.65171	0.00933
1891.36594	0.00990
1890.08018	0.01022
1888.79441	0.01022
1887.50864	0.01003
1886.22287	0.00982
1884.93710	0.00963
1883.65133	0.00939
1882.36556	0.00911
1881.07979	0.00890
1879.79402	0.00882
1878.50826	0.00884
1877.22249	0.00889
1875.93672	0.00892
1874.65095	0.00889
1873.36518	0.00882
1872.07941	0.00879
1870.79364	0.00891
1869.50787	0.00918
1868.22211	0.00946
1866.93634	0.00958
1865.65057	0.00952
1864.36480	0.00940
1863.07903	0.00936
1861.79326	0.00945
1860.50749	0.00965
1859.22172	0.00982
1857.93595	0.00988
1856.65019	0.00983
1855.36442	0.00974
1854.07865	0.00967
1852.79288	0.00961
1851.50711	0.00950
1850.22134	0.00934
1848.93557	0.00921
1847.64980	0.00918
1846.36404	0.00929
1845.07827	0.00949
1843.79250	0.00965
1842.50673	0.00968
1841.22096	0.00960
1839.93519	0.00954
1838.64942	0.00963
1837.36365	0.00985
1836.07788	0.01006
1834.79212	0.01011
1833.50635	0.00997
1832.22058	0.00974
1830.93481	0.00954
1829.64904	0.00942
1828.36327	0.00934
1827.07750	0.00926
1825.79173	0.00916
1824.50597	0.00906
1823.22020	0.00899
1821.93443	0.00903
1820.64866	0.00916
1819.36289	0.00936
1818.07712	0.00958
1816.79135	0.00981
1815.50558	0.01006
1814.21981	0.01027
1812.93405	0.01038
1811.64828	0.01034
1810.36251	0.01023
1809.07674	0.01015
1807.79097	0.01015
1806.50520	0.01017
1805.21943	0.01014
1803.93366	0.01005
1802.64790	0.00994
1801.36213	0.00986
1800.07636	0.00984
1798.79059	0.00989
1797.50482	0.00998
1796.21905	0.01004
1794.93328	0.01004
1793.64751	0.00998
1792.36174	0.00985
1791.07598	0.00968
1789.79021	0.00954
1788.50444	0.00948
1787.21867	0.00947
1785.93290	0.00946
1784.64713	0.00943
1783.36136	0.00940
1782.07559	0.00941
1780.78983	0.00946
1779.50406	0.00946
1778.21829	0.00937
1776.93252	0.00923
1775.64675	0.00914
1774.36098	0.00918
1773.07521	0.00929
1771.78944	0.00936
1770.50367	0.00941
1769.21791	0.00953
1767.93214	0.00972
1766.64637	0.00989
1765.36060	0.00998
1764.07483	0.01001
1762.78906	0.00999
1761.50329	0.00990
1760.21752	0.00976
1758.93176	0.00962
1757.64599	0.00957
1756.36022	0.00957
1755.07445	0.00960
1753.78868	0.00967
1752.50291	0.00979
1751.21714	0.00989
1749.93137	0.00992
1748.64560	0.00989
1747.35984	0.00984
1746.07407	0.00982
1744.78830	0.00982
1743.50253	0.00982
1742.21676	0.00976
1740.93099	0.00962
1739.64522	0.00941
1738.35945	0.00914
1737.07369	0.00898
1735.78792	0.00903
1734.50215	0.00925
1733.21638	0.00946
1731.93061	0.00961
1730.64484	0.00975
1729.35907	0.00985
1728.07330	0.00983
1726.78753	0.00974
1725.50177	0.00966
1724.21600	0.00964
1722.93023	0.00962
1721.64446	0.00958
1720.35869	0.00959
1719.07292	0.00972
1717.78715	0.00995
1716.50138	0.01017
1715.21561	0.01037
1713.92985	0.01057
1712.64408	0.01078
1711.35831	0.01100
1710.07254	0.01122
1708.78677	0.01148
1707.50100	0.01180
1706.21523	0.01216
1704.92946	0.01244
1703.64370	0.01266
1702.35793	0.01301
1701.07216	0.01355
1699.78639	0.01413
1698.50062	0.01473
1697.21485	0.01544
1695.92908	0.01625
1694.64331	0.01696
1693.35754	0.01758
1692.07178	0.01822
1690.78601	0.01890
1689.50024	0.01951
1688.21447	0.02004
1686.92870	0.02060
1685.64293	0.02128
1684.35716	0.02198
1683.07139	0.02260
1681.78563	0.02319
1680.49986	0.02379
1679.21409	0.02438
1677.92832	0.02497
1676.64255	0.02564
1675.35678	0.02635
1674.07101	0.02699
1672.78524	0.02757
1671.49947	0.02820
1670.21371	0.02890
1668.92794	0.02957
1667.64217	0.03013
1666.35640	0.03064
1665.07063	0.03118
1663.78486	0.03180
1662.49909	0.03247
1661.21332	0.03311
1659.92756	0.03364
1658.64179	0.03398
1657.35602	0.03412
1656.07025	0.03428
1654.78448	0.03472
1653.49871	0.03538
1652.21294	0.03594
1650.92717	0.03624
1649.64140	0.03644
1648.35564	0.03669
1647.06987	0.03698
1645.78410	0.03720
1644.49833	0.03732
1643.21256	0.03735
1641.92679	0.03732
1640.64102	0.03722
1639.35525	0.03708
1638.06949	0.03696
1636.78372	0.03690
1635.49795	0.03679
1634.21218	0.03652
1632.92641	0.03612
1631.64064	0.03567
1630.35487	0.03524
1629.06910	0.03481
1627.78333	0.03434
1626.49757	0.03383
1625.21180	0.03332
1623.92603	0.03283
1622.64026	0.03232
1621.35449	0.03174
1620.06872	0.03111
1618.78295	0.03054
1617.49718	0.03004
1616.21142	0.02955
1614.92565	0.02901
1613.63988	0.02848
1612.35411	0.02803
1611.06834	0.02764
1609.78257	0.02727
1608.49680	0.02693
1607.21103	0.02660
1605.92526	0.02632
1604.63950	0.02607
1603.35373	0.02582
1602.06796	0.02557
1600.78219	0.02531
1599.49642	0.02513
1598.21065	0.02505
1596.92488	0.02506
1595.63911	0.02511
1594.35335	0.02515
1593.06758	0.02517
1591.78181	0.02519
1590.49604	0.02520
1589.21027	0.02520
1587.92450	0.02520
1586.63873	0.02522
1585.35296	0.02529
1584.06719	0.02539
1582.78143	0.02550
1581.49566	0.02558
1580.20989	0.02566
1578.92412	0.02579
1577.63835	0.02608
1576.35258	0.02646
1575.06681	0.02677
1573.78104	0.02702
1572.49528	0.02729
1571.20951	0.02765
1569.92374	0.02802
1568.63797	0.02836
1567.35220	0.02867
1566.06643	0.02892
1564.78066	0.02904
1563.49489	0.02898
1562.20912	0.02891
1560.92336	0.02906
1559.63759	0.02946
1558.35182	0.02992
1557.06605	0.03032
1555.78028	0.03070
1554.49451	0.03106
1553.20874	0.03135
1551.92297	0.03157
1550.63721	0.03178
1549.35144	0.03196
1548.06567	0.03206
1546.77990	0.03210
1545.49413	0.03210
1544.20836	0.03205
1542.92259	0.03201
1541.63682	0.03206
1540.35105	0.03220
1539.06529	0.03233
1537.77952	0.03237
1536.49375	0.03240
1535.20798	0.03249
1533.92221	0.03263
1532.63644	0.03270
1531.35067	0.03270
1530.06490	0.03267
1528.77914	0.03264
1527.49337	0.03261
1526.20760	0.03253
1524.92183	0.03244
1523.63606	0.03243
1522.35029	0.03257
1521.06452	0.03278
1519.77875	0.03297
1518.49298	0.03317
1517.20722	0.03341
1515.92145	0.03364
1514.63568	0.03384
1513.34991	0.03401
1512.06414	0.03411
1510.77837	0.03415
1509.49260	0.03422
1508.20683	0.03442
1506.92107	0.03473
1505.63530	0.03500
1504.34953	0.03519
1503.06376	0.03535
1501.77799	0.03552
1500.49222	0.03564
1499.20645	0.03572
1497.92068	0.03579
1496.63491	0.03585
1495.34915	0.03587
1494.06338	0.03588
1492.77761	0.03595
1491.49184	0.03614
1490.20607	0.03640
1488.92030	0.03670
1487.63453	0.03700
1486.34876	0.03731
1485.06299	0.03764
1483.77723	0.03801
1482.49146	0.03842
1481.20569	0.03885
1479.91992	0.03927
1478.63415	0.03968
1477.34838	0.04009
1476.06261	0.04050
1474.77684	0.04095
1473.49108	0.04145
1472.20531	0.04197
1470.91954	0.04244
1469.63377	0.04282
1468.34800	0.04314
1467.06223	0.04346
1465.77646	0.04379
1464.49069	0.04411
1463.20492	0.04436
1461.91916	0.04451
1460.63339	0.04464
1459.34762	0.04493
1458.06185	0.04543
1456.77608	0.04604
1455.49031	0.04658
1454.20454	0.04700
1452.91877	0.04729
1451.63301	0.04745
1450.34724	0.04754
1449.06147	0.04765
1447.77570	0.04777
1446.48993	0.04784
1445.20416	0.04779
1443.91839	0.04760
1442.63262	0.04730
1441.34685	0.04693
1440.06109	0.04661
1438.77532	0.04646
1437.48955	0.04647
1436.20378	0.04652
1434.91801	0.04653
1433.63224	0.04655
1432.34647	0.04670
1431.06070	0.04699
1429.77494	0.04739
1428.48917	0.04783
1427.20340	0.04830
1425.91763	0.04880
1424.63186	0.04934
1423.34609	0.04991
1422.06032	0.05052
1420.77455	0.05118
1419.48878	0.05182
1418.20302	0.05234
1416.91725	0.05270
1415.63148	0.05298
1414.34571	0.05321
1413.05994	0.05341
1411.77417	0.05354
1410.48840	0.05356
1409.20263	0.05342
1407.91687	0.05312
1406.63110	0.05274
1405.34533	0.05235
1404.05956	0.05194
1402.77379	0.05151
1401.48802	0.05103
1400.20225	0.05048
1398.91648	0.04982
1397.63071	0.04906
1396.34495	0.04823
1395.05918	0.04735
1393.77341	0.04643
1392.48764	0.04549
1391.20187	0.04456
1389.91610	0.04367
1388.63033	0.04281
1387.34456	0.04196
1386.05880	0.04106
1384.77303	0.04012
1383.48726	0.03916
1382.20149	0.03822
1380.91572	0.03733
1379.62995	0.03649
1378.34418	0.03568
1377.05841	0.03487
1375.77264	0.03404
1374.48688	0.03319
1373.20111	0.03230
1371.91534	0.03139
1370.62957	0.03049
1369.34380	0.02963
1368.05803	0.02884
1366.77226	0.02814
1365.48649	0.02754
1364.20073	0.02700
1362.91496	0.02646
1361.62919	0.02589
1360.34342	0.02533
1359.05765	0.02486
1357.77188	0.02447
1356.48611	0.02413
1355.20034	0.02380
1353.91457	0.02347
1352.62881	0.02318
1351.34304	0.02292
1350.05727	0.02268
1348.77150	0.02244
1347.48573	0.02220
1346.19996	0.02200
1344.91419	0.02183
1343.62842	0.02170
1342.34266	0.02156
1341.05689	0.02140
1339.77112	0.02122
1338.48535	0.02105
1337.19958	0.02090
1335.91381	0.02077
1334.62804	0.02063
1333.34227	0.02045
1332.05650	0.02026
1330.77074	0.02009
1329.48497	0.01995
1328.19920	0.01982
1326.91343	0.01966
1325.62766	0.01947
1324.34189	0.01927
1323.05612	0.01908
1321.77035	0.01892
1320.48459	0.01878
1319.19882	0.01864
1317.91305	0.01852
1316.62728	0.01842
1315.34151	0.01834
1314.05574	0.01824
1312.76997	0.01809
1311.48420	0.01789
1310.19843	0.01767
1308.91267	0.01745
1307.62690	0.01726
1306.34113	0.01708
1305.05536	0.01693
1303.76959	0.01681
1302.48382	0.01671
1301.19805	0.01661
1299.91228	0.01648
1298.62652	0.01639
1297.34075	0.01635
1296.05498	0.01635
1294.76921	0.01634
1293.48344	0.01627
1292.19767	0.01613
1290.91190	0.01595
1289.62613	0.01578
1288.34036	0.01568
1287.05460	0.01569
1285.76883	0.01578
1284.48306	0.01587
1283.19729	0.01591
1281.91152	0.01589
1280.62575	0.01583
1279.33998	0.01574
1278.05421	0.01564
1276.76845	0.01554
1275.48268	0.01542
1274.19691	0.01531
1272.91114	0.01520
1271.62537	0.01511
1270.33960	0.01503
1269.05383	0.01497
1267.76806	0.01493
1266.48229	0.01493
1265.19653	0.01496
1263.91076	0.01502
1262.62499	0.01513
1261.33922	0.01525
1260.05345	0.01533
1258.76768	0.01532
1257.48191	0.01523
1256.19614	0.01510
1254.91037	0.01500
1253.62461	0.01497
1252.33884	0.01499
1251.05307	0.01500
1249.76730	0.01497
1248.48153	0.01492
1247.19576	0.01489
1245.90999	0.01489
1244.62422	0.01491
1243.33846	0.01491
1242.05269	0.01489
1240.76692	0.01485
1239.48115	0.01480
1238.19538	0.01475
1236.90961	0.01470
1235.62384	0.01464
1234.33807	0.01456
1233.05230	0.01446
1231.76654	0.01432
1230.48077	0.01415
1229.19500	0.01396
1227.90923	0.01378
1226.62346	0.01362
1225.33769	0.01347
1224.05192	0.01331
1222.76615	0.01312
1221.48039	0.01291
1220.19462	0.01270
1218.90885	0.01251
1217.62308	0.01234
1216.33731	0.01218
1215.05154	0.01206
1213.76577	0.01195
1212.48000	0.01188
1211.19423	0.01182
1209.90847	0.01177
1208.62270	0.01173
1207.33693	0.01168
1206.05116	0.01162
1204.76539	0.01155
1203.47962	0.01149
1202.19385	0.01145
1200.90808	0.01143
1199.62232	0.01142
1198.33655	0.01136
1197.05078	0.01128
1195.76501	0.01117
1194.47924	0.01104
1193.19347	0.01094
1191.90770	0.01089
1190.62193	0.01087
1189.33616	0.01088
1188.05040	0.01087
1186.76463	0.01083
1185.47886	0.01074
1184.19309	0.01063
1182.90732	0.01054
1181.62155	0.01050
1180.33578	0.01049
1179.05001	0.01051
1177.76425	0.01052
1176.47848	0.01051
1175.19271	0.01049
1173.90694	0.01049
1172.62117	0.01055
1171.33540	0.01063
1170.04963	0.01074
1168.76386	0.01086
1167.47809	0.01098
1166.19233	0.01107
1164.90656	0.01111
1163.62079	0.01110
1162.33502	0.01107
1161.04925	0.01107
1159.76348	0.01111
1158.47771	0.01119
1157.19194	0.01133
1155.90618	0.01151
1154.62041	0.01171
1153.33464	0.01188
1152.04887	0.01199
1150.76310	0.01206
1149.47733	0.01220
1148.19156	0.01247
1146.90579	0.01282
1145.62002	0.01315
1144.33426	0.01342
1143.04849	0.01369
1141.76272	0.01403
1140.47695	0.01445
1139.19118	0.01494
1137.90541	0.01549
1136.61964	0.01608
1135.33387	0.01670
1134.04811	0.01736
1132.76234	0.01813
1131.47657	0.01904
1130.19080	0.02007
1128.90503	0.02118
1127.61926	0.02237
1126.33349	0.02371
1125.04772	0.02518
1123.76195	0.02676
1122.47619	0.02837
1121.19042	0.03000
1119.90465	0.03168
1118.61888	0.03341
1117.33311	0.03519
1116.04734	0.03701
1114.76157	0.03883
1113.47580	0.04062
1112.19004	0.04239
1110.90427	0.04419
1109.61850	0.04605
1108.33273	0.04789
1107.04696	0.04964
1105.76119	0.05126
1104.47542	0.05283
1103.18965	0.05440
1101.90388	0.05595
1100.61812	0.05747
1099.33235	0.05890
1098.04658	0.06026
1096.76081	0.06156
1095.47504	0.06283
1094.18927	0.06406
1092.90350	0.06520
1091.61773	0.06624
1090.33197	0.06721
1089.04620	0.06819
1087.76043	0.06921
1086.47466	0.07024
1085.18889	0.07122
1083.90312	0.07213
1082.61735	0.07306
1081.33158	0.07412
1080.04581	0.07538
1078.76005	0.07678
1077.47428	0.07822
1076.18851	0.07963
1074.90274	0.08105
1073.61697	0.08255
1072.33120	0.08416
1071.04543	0.08582
1069.75966	0.08747
1068.47390	0.08914
1067.18813	0.09088
1065.90236	0.09269
1064.61659	0.09453
1063.33082	0.09638
1062.04505	0.09822
1060.75928	0.10004
1059.47351	0.10178
1058.18774	0.10343
1056.90198	0.10504
1055.61621	0.10672
1054.33044	0.10848
1053.04467	0.11026
1051.75890	0.11195
1050.47313	0.11354
1049.18736	0.11513
1047.90159	0.11680
1046.61583	0.11853
1045.33006	0.12025
1044.04429	0.12191
1042.75852	0.12354
1041.47275	0.12515
1040.18698	0.12674
1038.90121	0.12832
1037.61544	0.12992
1036.32967	0.13155
1035.04391	0.13319
1033.75814	0.13475
1032.47237	0.13614
1031.18660	0.13729
1029.90083	0.13821
1028.61506	0.13896
1027.32929	0.13960
1026.04352	0.14014
1024.75775	0.14056
1023.47199	0.14083
1022.18622	0.14087
1020.90045	0.14062
1019.61468	0.14010
1018.32891	0.13937
1017.04314	0.13848
1015.75737	0.13743
1014.47160	0.13622
1013.18584	0.13483
1011.90007	0.13327
1010.61430	0.13151
1009.32853	0.12952
1008.04276	0.12734
1006.75699	0.12503
1005.47122	0.12259
1004.18545	0.12002
1002.89968	0.11731
1001.61392	0.11450
1000.32815	0.11158
999.04238	0.10855
997.75661	0.10544
996.47084	0.10231
995.18507	0.09921
993.89930	0.09613
992.61353	0.09309
991.32777	0.09011
990.04200	0.08724
988.75623	0.08449
987.47046	0.08179
986.18469	0.07911
984.89892	0.07645
983.61315	0.07387
982.32738	0.07144
981.04161	0.06919
979.75585	0.06712
978.47008	0.06522
977.18431	0.06342
975.89854	0.06169
974.61277	0.06007
973.32700	0.05865
972.04123	0.05753
970.75546	0.05672
969.46970	0.05621
968.18393	0.05598
966.89816	0.05600
965.61239	0.05623
964.32662	0.05654
963.04085	0.05683
961.75508	0.05702
960.46931	0.05702
959.18354	0.05677
957.89778	0.05621
956.61201	0.05539
955.32624	0.05439
954.04047	0.05333
952.75470	0.05224
951.46893	0.05115
950.18316	0.05003
948.89739	0.04889
947.61163	0.04774
946.32586	0.04662
945.04009	0.04554
943.75432	0.04452
942.46855	0.04354
941.18278	0.04260
939.89701	0.04167
938.61124	0.04073
937.32547	0.03978
936.03971	0.03884
934.75394	0.03796
933.46817	0.03717
932.18240	0.03652
930.89663	0.03599
929.61086	0.03553
928.32509	0.03512
927.03932	0.03470
925.75356	0.03426
924.46779	0.03382
923.18202	0.03341
921.89625	0.03302
920.61048	0.03260
919.32471	0.03212
918.03894	0.03163
916.75317	0.03120
915.46740	0.03084
914.18164	0.03052
912.89587	0.03020
911.61010	0.02992
910.32433	0.02970
909.03856	0.02950
907.75279	0.02928
906.46702	0.02900
905.18125	0.02867
903.89549	0.02831
902.60972	0.02800
901.32395	0.02777
900.03818	0.02765
898.75241	0.02758
897.46664	0.02752
896.18087	0.02744
894.89510	0.02731
893.60933	0.02717
892.32357	0.02700
891.03780	0.02681
889.75203	0.02663
888.46626	0.02660
887.18049	0.02681
885.89472	0.02729
884.60895	0.02803
883.32318	0.02906
882.03742	0.03035
880.75165	0.03170
879.46588	0.03286
878.18011	0.03366
876.89434	0.03422
875.60857	0.03477
874.32280	0.03543
873.03703	0.03610
871.75126	0.03650
870.46550	0.03642
869.17973	0.03592
867.89396	0.03518
866.60819	0.03437
865.32242	0.03351
864.03665	0.03260
862.75088	0.03166
861.46511	0.03076
860.17935	0.02991
858.89358	0.02913
857.60781	0.02845
856.32204	0.02789
855.03627	0.02748
853.75050	0.02719
852.46473	0.02699
851.17896	0.02681
849.89319	0.02658
848.60743	0.02628
847.32166	0.02596
846.03589	0.02571
844.75012	0.02554
843.46435	0.02539
842.17858	0.02517
840.89281	0.02483
839.60704	0.02447
838.32128	0.02418
837.03551	0.02399
835.74974	0.02387
834.46397	0.02378
833.17820	0.02366
831.89243	0.02351
830.60666	0.02338
829.32089	0.02327
828.03512	0.02314
826.74936	0.02298
825.46359	0.02281
824.17782	0.02274
822.89205	0.02278
821.60628	0.02285
820.32051	0.02283
819.03474	0.02271
817.74897	0.02256
816.46321	0.02247
815.17744	0.02247
813.89167	0.02249
812.60590	0.02251
811.32013	0.02252
810.03436	0.02251
808.74859	0.02245
807.46282	0.02235
806.17705	0.02224
804.89129	0.02215
803.60552	0.02207
802.31975	0.02203
801.03398	0.02199
799.74821	0.02193
798.46244	0.02185
797.17667	0.02181
795.89090	0.02189
794.60513	0.02208
793.31937	0.02228
792.03360	0.02239
790.74783	0.02239
789.46206	0.02232
788.17629	0.02223
786.89052	0.02215
785.60475	0.02204
784.31898	0.02191
783.03322	0.02181
781.74745	0.02179
780.46168	0.02185
779.17591	0.02194
777.89014	0.02205
776.60437	0.02220
775.31860	0.02236
774.03283	0.02245
772.74706	0.02242
771.46130	0.02230
770.17553	0.02221
768.88976	0.02215
767.60399	0.02209
766.31822	0.02199
765.03245	0.02188
763.74668	0.02181
762.46091	0.02176
761.17515	0.02175
759.88938	0.02180
758.60361	0.02193
757.31784	0.02207
756.03207	0.02215
754.74630	0.02214
753.46053	0.02209
752.17476	0.02208
750.88899	0.02213
749.60323	0.02223
748.31746	0.02231
747.03169	0.02235
745.74592	0.02233
744.46015	0.02225
743.17438	0.02213
741.88861	0.02201
740.60284	0.02192
739.31708	0.02192
738.03131	0.02202
736.74554	0.02218
735.45977	0.02231
734.17400	0.02237
732.88823	0.02239
731.60246	0.02240
730.31669	0.02241
729.03092	0.02242
727.74516	0.02244
726.45939	0.02248
725.17362	0.02252
723.88785	0.02253
722.60208	0.02265
721.31631	0.02279
720.03054	0.02292
718.74477	0.02302
717.45901	0.02309
716.17324	0.02310
714.88747	0.02306
713.60170	0.02299
712.31593	0.02290
711.03016	0.02281
709.74439	0.02275
708.45862	0.02270
707.17285	0.02268
705.88709	0.02266
704.60132	0.02263
703.31555	0.02260
702.02978	0.02260
700.74401	0.02261
699.45824	0.02262
698.17247	0.02261
696.88670	0.02258
695.60094	0.02254
694.31517	0.02252
693.02940	0.02255
691.74363	0.02264
690.45786	0.02271
689.17209	0.02272
687.88632	0.02267
686.60055	0.02263
685.31478	0.02262
684.02902	0.02264
682.74325	0.02263
681.45748	0.02259
680.17171	0.02253
678.88594	0.02242
677.60017	0.02227
676.31440	0.02211
675.02863	0.02205
673.74287	0.02213
672.45710	0.02228
671.17133	0.02241
669.88556	0.02245
668.59979	0.02245
667.31402	0.02247
666.02825	0.02240
664.74248	0.02228
663.45671	0.02217
662.17095	0.02210
660.88518	0.02210
659.59941	0.02212
658.31364	0.02210
657.02787	0.02201
655.74210	0.02189
654.45633	0.02178
653.17056	0.02170
651.88480	0.02166
650.59903	0.02162
649.31326	0.02159
648.02749	0.02157
646.74172	0.02155
645.45595	0.02155
644.17018	0.02156
642.88441	0.02160
641.59864	0.02165
640.31288	0.02171
639.02711	0.02177
637.74134	0.02183
636.45557	0.02189
635.16980	0.02192
633.88403	0.02192
632.59826	0.02190
631.31249	0.02196
630.02673	0.02190
628.74096	0.02137
627.45519	0.02133
626.16942	0.02032
624.88365	0.01875
623.59788	0.01766
622.31211	0.01775
621.02634	0.01913
619.74057	0.02125
618.45481	0.02356
617.16904	0.02598
615.88327	0.02870
614.59750	0.03175
613.31173	0.03498
612.02596	0.03823
610.74019	0.04138
609.45442	0.04420
608.16866	0.04657
606.88289	0.04882
605.59712	0.05139
604.31135	0.05426
603.02558	0.05681
601.73981	0.05826
600.45404	0.05835
599.16827	0.05735
597.88250	0.05574
596.59674	0.05399
595.31097	0.05242
594.02520	0.05121
592.73943	0.05036
591.45366	0.04977
590.16789	0.04931
588.88212	0.04901
587.59635	0.04897
586.31059	0.04929
585.02482	0.04998
583.73905	0.05095
582.45328	0.05217
581.16751	0.05363
579.88174	0.05530
578.59597	0.05710
577.31020	0.05892
576.02443	0.06063
574.73867	0.06212
573.45290	0.06337
572.16713	0.06448
570.88136	0.06568
569.59559	0.06720
568.30982	0.06916
567.02405	0.07142
565.73828	0.07361
564.45251	0.07530
563.16675	0.07623
561.88098	0.07639
560.59521	0.07593
559.30944	0.07495
558.02367	0.07342
556.73790	0.07127
555.45213	0.06849
554.16636	0.06522
552.88060	0.06179
551.59483	0.05850
550.30906	0.05556
549.02329	0.05305
547.73752	0.05091
546.45175	0.04903
545.16598	0.04733
543.88021	0.04577
542.59444	0.04436
541.30868	0.04310
540.02291	0.04192
538.73714	0.04078
537.45137	0.03968
536.16560	0.03865
534.87983	0.03771
533.59406	0.03679
532.30829	0.03583
531.02253	0.03487
529.73676	0.03398
528.45099	0.03324
527.16522	0.03266
525.87945	0.03223
524.59368	0.03186
523.30791	0.03144
522.02214	0.03089
520.73637	0.03028
519.45061	0.02970
518.16484	0.02918
516.87907	0.02867
515.59330	0.02811
514.30753	0.02755
513.02176	0.02706
511.73599	0.02669
510.45022	0.02643
509.16446	0.02620
507.87869	0.02593
506.59292	0.02558
505.30715	0.02519
504.02138	0.02482
502.73561	0.02453
501.44984	0.02431
500.16407	0.02415
498.87830	0.02401
497.59254	0.02382
496.30677	0.02355
495.02100	0.02324
493.73523	0.02294
492.44946	0.02270
491.16369	0.02252
489.87792	0.02236
488.59215	0.02218
487.30639	0.02196
486.02062	0.02174
484.73485	0.02155
483.44908	0.02145
482.16331	0.02148
480.87754	0.02163
479.59177	0.02184
478.30600	0.02202
477.02023	0.02216
475.73447	0.02226
474.44870	0.02237
473.16293	0.02247
471.87716	0.02250
470.59139	0.02245
469.30562	0.02233
468.01985	0.02218
466.73408	0.02201
465.44832	0.02180
464.16255	0.02158
462.87678	0.02136
461.59101	0.02120
460.30524	0.02111
459.01947	0.02106
457.73370	0.02094
456.44793	0.02069
455.16216	0.02031
453.87640	0.01992
452.59063	0.01959
451.30486	0.01938
450.01909	0.01925
448.73332	0.01916
447.44755	0.01907
446.16178	0.01894
444.87601	0.01879
443.59025	0.01865
442.30448	0.01854
441.01871	0.01845
439.73294	0.01834
438.44717	0.01820
437.16140	0.01808
435.87563	0.01801
434.58986	0.01799
433.30409	0.01796
432.01833	0.01792
430.73256	0.01787
429.44679	0.01783
428.16102	0.01782
426.87525	0.01778
425.58948	0.01768
424.30371	0.01754
423.01794	0.01737
421.73218	0.01719
420.44641	0.01702
419.16064	0.01687
417.87487	0.01675
416.58910	0.01667
415.30333	0.01664
414.01756	0.01664
412.73179	0.01666
411.44602	0.01665
410.16026	0.01661
408.87449	0.01654
407.58872	0.01648
406.30295	0.01643
405.01718	0.01639
403.73141	0.01636
402.44564	0.01640
401.15987	0.01651
399.87411	0.01667
