3997.45528	0.06687
3996.16951	0.06673
3994.88374	0.06699
3993.59798	0.06740
3992.31221	0.06748
3991.02644	0.06714
3989.74067	0.06673
3988.45490	0.06654
3987.16913	0.06653
3985.88336	0.06662
3984.59759	0.06689
3983.31183	0.06744
3982.02606	0.06810
3980.74029	0.06859
3979.45452	0.06874
3978.16875	0.06863
3976.88298	0.06835
3975.59721	0.06791
3974.31144	0.06734
3973.02567	0.06684
3971.73991	0.06668
3970.45414	0.06698
3969.16837	0.06763
3967.88260	0.06834
3966.59683	0.06894
3965.31106	0.06946
3964.02529	0.06998
3962.73952	0.07037
3961.45376	0.07037
3960.16799	0.06983
3958.88222	0.06892
3957.59645	0.06799
3956.31068	0.06728
3955.02491	0.06676
3953.73914	0.06635
3952.45337	0.06608
3951.16760	0.06604
3949.88184	0.06618
3948.59607	0.06632
3947.31030	0.06628
3946.02453	0.06594
3944.73876	0.06530
3943.45299	0.06452
3942.16722	0.06391
3940.88145	0.06365
3939.59569	0.06370
3938.30992	0.06392
3937.02415	0.06421
3935.73838	0.06455
3934.45261	0.06483
3933.16684	0.06492
3931.88107	0.06483
3930.59530	0.06478
3929.30953	0.06494
3928.02377	0.06524
3926.73800	0.06540
3925.45223	0.06528
3924.16646	0.06502
3922.88069	0.06480
3921.59492	0.06464
3920.30915	0.06439
3919.02338	0.06401
3917.73762	0.06354
3916.45185	0.06306
3915.16608	0.06270
3913.88031	0.06260
3912.59454	0.06279
3911.30877	0.06308
3910.02300	0.06320
3908.73723	0.06311
3907.45146	0.06301
3906.16570	0.06316
3904.87993	0.06361
3903.59416	0.06427
3902.30839	0.06488
3901.02262	0.06509
3899.73685	0.06470
3898.45108	0.06387
3897.16531	0.06314
3895.87955	0.06293
3894.59378	0.06316
3893.30801	0.06335
3892.02224	0.06327
3890.73647	0.06321
3889.45070	0.06336
3888.16493	0.06349
3886.87916	0.06328
3885.59339	0.06279
3884.30763	0.06230
3883.02186	0.06203
3881.73609	0.06204
3880.45032	0.06233
3879.16455	0.06272
3877.87878	0.06298
3876.59301	0.06298
3875.30724	0.06280
3874.02148	0.06254
3872.73571	0.06221
3871.44994	0.06191
3870.16417	0.06189
3868.87840	0.06222
3867.59263	0.06252
3866.30686	0.06254
3865.02109	0.06244
3863.73532	0.06249
3862.44956	0.06261
3861.16379	0.06257
3859.87802	0.06229
3858.59225	0.06197
3857.30648	0.06190
3856.02071	0.06214
3854.73494	0.06252
3853.44917	0.06284
3852.16341	0.06294
3850.87764	0.06282
3849.59187	0.06276
3848.30610	0.06298
3847.02033	0.06338
3845.73456	0.06368
3844.44879	0.06370
3843.16302	0.06349
3841.87725	0.06317
3840.59149	0.06275
3839.30572	0.06224
3838.01995	0.06175
3836.73418	0.06134
3835.44841	0.06096
3834.16264	0.06062
3832.87687	0.06055
3831.59110	0.06091
3830.30534	0.06150
3829.01957	0.06186
3827.73380	0.06176
3826.44803	0.06145
3825.16226	0.06123
3823.87649	0.06108
3822.59072	0.06072
3821.30495	0.06019
3820.01918	0.05981
3818.73342	0.05988
3817.44765	0.06039
3816.16188	0.06111
3814.87611	0.06158
3813.59034	0.06139
3812.30457	0.06069
3811.01880	0.06001
3809.73303	0.05958
3808.44726	0.05919
3807.16150	0.05879
3805.87573	0.05856
3804.58996	0.05853
3803.30419	0.05860
3802.01842	0.05884
3800.73265	0.05928
3799.44688	0.05958
3798.16111	0.05946
3796.87535	0.05915
3795.58958	0.05910
3794.30381	0.05935
3793.01804	0.05965
3791.73227	0.05979
3790.44650	0.05971
3789.16073	0.05940
3787.87496	0.05885
3786.58919	0.05813
3785.30343	0.05748
3784.01766	0.05713
3782.73189	0.05710
3781.44612	0.05717
3780.16035	0.05717
3778.87458	0.05712
3777.58881	0.05712
3776.30304	0.05713
3775.01728	0.05704
3773.73151	0.05681
3772.44574	0.05653
3771.15997	0.05637
3769.87420	0.05650
3768.58843	0.05687
3767.30266	0.05729
3766.01689	0.05761
3764.73112	0.05784
3763.44536	0.05801
3762.15959	0.05813
3760.87382	0.05812
3759.58805	0.05792
3758.30228	0.05759
3757.01651	0.05738
3755.73074	0.05748
3754.44497	0.05777
3753.15921	0.05798
3751.87344	0.05803
3750.58767	0.05812
3749.30190	0.05849
3748.01613	0.05911
3746.73036	0.05947
3745.44459	0.05920
3744.15882	0.05853
3742.87305	0.05780
3741.58729	0.05711
3740.30152	0.05658
3739.01575	0.05633
3737.72998	0.05632
3736.44421	0.05652
3735.15844	0.05692
3733.87267	0.05731
3732.58690	0.05735
3731.30114	0.05688
3730.01537	0.05599
3728.72960	0.05498
3727.44383	0.05439
3726.15806	0.05452
3724.87229	0.05509
3723.58652	0.05555
3722.30075	0.05561
3721.01498	0.05540
3719.72922	0.05514
3718.44345	0.05497
3717.15768	0.05497
3715.87191	0.05519
3714.58614	0.05553
3713.30037	0.05588
3712.01460	0.05615
3710.72883	0.05639
3709.44307	0.05665
3708.15730	0.05682
3706.87153	0.05668
3705.58576	0.05604
3704.29999	0.05517
3703.01422	0.05460
3701.72845	0.05464
3700.44268	0.05509
3699.15691	0.05545
3697.87115	0.05543
3696.58538	0.05516
3695.29961	0.05502
3694.01384	0.05517
3692.72807	0.05553
3691.44230	0.05590
3690.15653	0.05611
3688.87076	0.05609
3687.58500	0.05580
3686.29923	0.05520
3685.01346	0.05437
3683.72769	0.05367
3682.44192	0.05353
3681.15615	0.05399
3679.87038	0.05464
3678.58461	0.05499
3677.29884	0.05490
3676.01308	0.05482
3674.72731	0.05519
3673.44154	0.05583
3672.15577	0.05622
3670.87000	0.05630
3669.58423	0.05628
3668.29846	0.05619
3667.01269	0.05588
3665.72693	0.05547
3664.44116	0.05521
3663.15539	0.05523
3661.86962	0.05535
3660.58385	0.05536
3659.29808	0.05522
3658.01231	0.05522
3656.72654	0.05571
3655.44077	0.05673
3654.15501	0.05787
3652.86924	0.05863
3651.58347	0.05885
3650.29770	0.05866
3649.01193	0.05815
3647.72616	0.05734
3646.44039	0.05637
3645.15462	0.05545
3643.86886	0.05480
3642.58309	0.05449
3641.29732	0.05446
3640.01155	0.05456
3638.72578	0.05461
3637.44001	0.05454
3636.15424	0.05434
3634.86847	0.05409
3633.58270	0.05394
3632.29694	0.05397
3631.01117	0.05415
3629.72540	0.05449
3628.43963	0.05505
3627.15386	0.05567
3625.86809	0.05605
3624.58232	0.05618
3623.29655	0.05632
3622.01079	0.05662
3620.72502	0.05694
3619.43925	0.05706
3618.15348	0.05688
3616.86771	0.05653
3615.58194	0.05620
3614.29617	0.05610
3613.01040	0.05625
3611.72463	0.05647
3610.43887	0.05659
3609.15310	0.05678
3607.86733	0.05734
3606.58156	0.05820
3605.29579	0.05887
3604.01002	0.05895
3602.72425	0.05854
3601.43848	0.05799
3600.15272	0.05747
3598.86695	0.05705
3597.58118	0.05686
3596.29541	0.05716
3595.00964	0.05778
3593.72387	0.05823
3592.43810	0.05814
3591.15233	0.05777
3589.86656	0.05761
3588.58080	0.05780
3587.29503	0.05812
3586.00926	0.05842
3584.72349	0.05875
3583.43772	0.05910
3582.15195	0.05931
3580.86618	0.05935
3579.58041	0.05944
3578.29464	0.05978
3577.00888	0.06029
3575.72311	0.06067
3574.43734	0.06075
3573.15157	0.06059
3571.86580	0.06037
3570.58003	0.06032
3569.29426	0.06065
3568.00849	0.06142
3566.72273	0.06246
3565.43696	0.06333
3564.15119	0.06359
3562.86542	0.06315
3561.57965	0.06236
3560.29388	0.06174
3559.00811	0.06168
3557.72234	0.06221
3556.43657	0.06311
3555.15081	0.06408
3553.86504	0.06480
3552.57927	0.06499
3551.29350	0.06462
3550.00773	0.06395
3548.72196	0.06341
3547.43619	0.06328
3546.15042	0.06353
3544.86466	0.06387
3543.57889	0.06405
3542.29312	0.06414
3541.00735	0.06441
3539.72158	0.06499
3538.43581	0.06566
3537.15004	0.06604
3535.86427	0.06590
3534.57850	0.06531
3533.29274	0.06457
3532.00697	0.06402
3530.72120	0.06377
3529.43543	0.06379
3528.14966	0.06400
3526.86389	0.06445
3525.57812	0.06514
3524.29235	0.06597
3523.00659	0.06669
3521.72082	0.06703
3520.43505	0.06689
3519.14928	0.06644
3517.86351	0.06606
3516.57774	0.06609
3515.29197	0.06658
3514.00620	0.06726
3512.72043	0.06768
3511.43467	0.06754
3510.14890	0.06692
3508.86313	0.06630
3507.57736	0.06614
3506.29159	0.06652
3505.00582	0.06718
3503.72005	0.06779
3502.43428	0.06816
3501.14852	0.06822
3499.86275	0.06806
3498.57698	0.06783
3497.29121	0.06774
3496.00544	0.06783
3494.71967	0.06801
3493.43390	0.06825
3492.14813	0.06863
3490.86236	0.06916
3489.57660	0.06967
3488.29083	0.06997
3487.00506	0.07006
3485.71929	0.07008
3484.43352	0.07012
3483.14775	0.07011
3481.86198	0.06992
3480.57621	0.06962
3479.29045	0.06947
3478.00468	0.06967
3476.71891	0.07017
3475.43314	0.07062
3474.14737	0.07073
3472.86160	0.07047
3471.57583	0.07011
3470.29006	0.06988
3469.00429	0.06987
3467.71853	0.06996
3466.43276	0.07004
3465.14699	0.07015
3463.86122	0.07036
3462.57545	0.07067
3461.28968	0.07090
3460.00391	0.07091
3458.71814	0.07083
3457.43238	0.07091
3456.14661	0.07126
3454.86084	0.07174
3453.57507	0.07214
3452.28930	0.07240
3451.00353	0.07253
3449.71776	0.07247
3448.43199	0.07218
3447.14622	0.07177
3445.86046	0.07149
3444.57469	0.07149
3443.28892	0.07170
3442.00315	0.07187
3440.71738	0.07185
3439.43161	0.07177
3438.14584	0.07189
3436.86007	0.07236
3435.57431	0.07307
3434.28854	0.07367
3433.00277	0.07392
3431.71700	0.07379
3430.43123	0.07348
3429.14546	0.07321
3427.85969	0.07308
3426.57392	0.07314
3425.28815	0.07339
3424.00239	0.07377
3422.71662	0.07408
3421.43085	0.07420
3420.14508	0.07424
3418.85931	0.07439
3417.57354	0.07474
3416.28777	0.07524
3415.00200	0.07570
3413.71624	0.07592
3412.43047	0.07586
3411.14470	0.07564
3409.85893	0.07545
3408.57316	0.07538
3407.28739	0.07539
3406.00162	0.07545
3404.71585	0.07553
3403.43008	0.07556
3402.14432	0.07548
3400.85855	0.07533
3399.57278	0.07517
3398.28701	0.07515
3397.00124	0.07533
3395.71547	0.07569
3394.42970	0.07604
3393.14393	0.07610
3391.85817	0.07572
3390.57240	0.07507
3389.28663	0.07454
3388.00086	0.07446
3386.71509	0.07486
3385.42932	0.07546
3384.14355	0.07593
3382.85778	0.07616
3381.57201	0.07623
3380.28625	0.07623
3379.00048	0.07615
3377.71471	0.07594
3376.42894	0.07572
3375.14317	0.07578
3373.85740	0.07631
3372.57163	0.07711
3371.28586	0.07771
3370.00010	0.07780
3368.71433	0.07748
3367.42856	0.07712
3366.14279	0.07700
3364.85702	0.07714
3363.57125	0.07742
3362.28548	0.07770
3360.99971	0.07789
3359.71394	0.07794
3358.42818	0.07779
3357.14241	0.07739
3355.85664	0.07688
3354.57087	0.07650
3353.28510	0.07643
3351.99933	0.07660
3350.71356	0.07679
3349.42779	0.07683
3348.14202	0.07676
3346.85626	0.07670
3345.57049	0.07674
3344.28472	0.07687
3342.99895	0.07703
3341.71318	0.07723
3340.42741	0.07750
3339.14164	0.07778
3337.85587	0.07797
3336.57011	0.07791
3335.28434	0.07756
3333.99857	0.07703
3332.71280	0.07649
3331.42703	0.07606
3330.14126	0.07580
3328.85549	0.07569
3327.56972	0.07577
3326.28395	0.07607
3324.99819	0.07657
3323.71242	0.07716
3322.42665	0.07766
3321.14088	0.07791
3319.85511	0.07794
3318.56934	0.07787
3317.28357	0.07783
3315.99780	0.07781
3314.71204	0.07774
3313.42627	0.07759
3312.14050	0.07739
3310.85473	0.07724
3309.56896	0.07720
3308.28319	0.07728
3306.99742	0.07736
3305.71165	0.07727
3304.42588	0.07697
3303.14012	0.07656
3301.85435	0.07624
3300.56858	0.07611
3299.28281	0.07610
3297.99704	0.07603
3296.71127	0.07588
3295.42550	0.07579
3294.13973	0.07590
3292.85397	0.07611
3291.56820	0.07616
3290.28243	0.07592
3288.99666	0.07554
3287.71089	0.07533
3286.42512	0.07550
3285.13935	0.07589
3283.85358	0.07610
3282.56781	0.07590
3281.28205	0.07548
3279.99628	0.07520
3278.71051	0.07527
3277.42474	0.07554
3276.13897	0.07570
3274.85320	0.07562
3273.56743	0.07544
3272.28166	0.07540
3270.99590	0.07554
3269.71013	0.07568
3268.42436	0.07566
3267.13859	0.07553
3265.85282	0.07540
3264.56705	0.07532
3263.28128	0.07527
3261.99551	0.07528
3260.70974	0.07548
3259.42398	0.07591
3258.13821	0.07646
3256.85244	0.07691
3255.56667	0.07710
3254.28090	0.07697
3252.99513	0.07650
3251.70936	0.07577
3250.42359	0.07488
3249.13783	0.07398
3247.85206	0.07321
3246.56629	0.07269
3245.28052	0.07250
3243.99475	0.07261
3242.70898	0.07283
3241.42321	0.07294
3240.13744	0.07289
3238.85167	0.07283
3237.56591	0.07296
3236.28014	0.07330
3234.99437	0.07366
3233.70860	0.07383
3232.42283	0.07379
3231.13706	0.07371
3229.85129	0.07378
3228.56552	0.07399
3227.27976	0.07411
3225.99399	0.07399
3224.70822	0.07371
3223.42245	0.07352
3222.13668	0.07358
3220.85091	0.07376
3219.56514	0.07385
3218.27937	0.07374
3216.99360	0.07349
3215.70784	0.07322
3214.42207	0.07297
3213.13630	0.07269
3211.85053	0.07232
3210.56476	0.07190
3209.27899	0.07155
3207.99322	0.07141
3206.70745	0.07150
3205.42169	0.07177
3204.13592	0.07204
3202.85015	0.07210
3201.56438	0.07182
3200.27861	0.07131
3198.99284	0.07086
3197.70707	0.07071
3196.42130	0.07084
3195.13553	0.07102
3193.84977	0.07106
3192.56400	0.07090
3191.27823	0.07062
3189.99246	0.07030
3188.70669	0.06999
3187.42092	0.06978
3186.13515	0.06973
3184.84938	0.06984
3183.56362	0.07003
3182.27785	0.07019
3180.99208	0.07024
3179.70631	0.07015
3178.42054	0.06985
3177.13477	0.06932
3175.84900	0.06866
3174.56323	0.06812
3173.27746	0.06793
3171.99170	0.06811
3170.70593	0.06851
3169.42016	0.06895
3168.13439	0.06932
3166.84862	0.06958
3165.56285	0.06965
3164.27708	0.06947
3162.99131	0.06905
3161.70555	0.06856
3160.41978	0.06825
3159.13401	0.06818
3157.84824	0.06824
3156.56247	0.06825
3155.27670	0.06813
3153.99093	0.06787
3152.70516	0.06762
3151.41939	0.06751
3150.13363	0.06758
3148.84786	0.06763
3147.56209	0.06747
3146.27632	0.06706
3144.99055	0.06661
3143.70478	0.06634
3142.41901	0.06623
3141.13324	0.06611
3139.84748	0.06582
3138.56171	0.06543
3137.27594	0.06515
3135.99017	0.06518
3134.70440	0.06554
3133.41863	0.06605
3132.13286	0.06644
3130.84709	0.06655
3129.56132	0.06636
3128.27556	0.06598
3126.98979	0.06561
3125.70402	0.06536
3124.41825	0.06527
3123.13248	0.06528
3121.84671	0.06528
3120.56094	0.06520
3119.27517	0.06505
3117.98940	0.06489
3116.70364	0.06480
3115.41787	0.06474
3114.13210	0.06463
3112.84633	0.06449
3111.56056	0.06444
3110.27479	0.06458
3108.98902	0.06481
3107.70325	0.06493
3106.41749	0.06484
3105.13172	0.06460
3103.84595	0.06429
3102.56018	0.06395
3101.27441	0.06366
3099.98864	0.06352
3098.70287	0.06356
3097.41710	0.06367
3096.13133	0.06372
3094.84557	0.06368
3093.55980	0.06364
3092.27403	0.06366
3090.98826	0.06371
3089.70249	0.06367
3088.41672	0.06344
3087.13095	0.06310
3085.84518	0.06283
3084.55942	0.06271
3083.27365	0.06264
3081.98788	0.06254
3080.70211	0.06253
3079.41634	0.06273
3078.13057	0.06307
3076.84480	0.06331
3075.55903	0.06325
3074.27326	0.06297
3072.98750	0.06269
3071.70173	0.06256
3070.41596	0.06258
3069.13019	0.06264
3067.84442	0.06266
3066.55865	0.06264
3065.27288	0.06258
3063.98711	0.06243
3062.70135	0.06220
3061.41558	0.06192
3060.12981	0.06164
3058.84404	0.06139
3057.55827	0.06119
3056.27250	0.06111
3054.98673	0.06116
3053.70096	0.06129
3052.41519	0.06143
3051.12943	0.06158
3049.84366	0.06174
3048.55789	0.06190
3047.27212	0.06196
3045.98635	0.06182
3044.70058	0.06149
3043.41481	0.06104
3042.12904	0.06061
3040.84328	0.06028
3039.55751	0.06010
3038.27174	0.06008
3036.98597	0.06020
3035.70020	0.06036
3034.41443	0.06046
3033.12866	0.06037
3031.84289	0.05999
3030.55712	0.05933
3029.27136	0.05852
3027.98559	0.05782
3026.69982	0.05743
3025.41405	0.05741
3024.12828	0.05762
3022.84251	0.05789
3021.55674	0.05808
3020.27097	0.05815
3018.98521	0.05812
3017.69944	0.05811
3016.41367	0.05817
3015.12790	0.05830
3013.84213	0.05840
3012.55636	0.05839
3011.27059	0.05829
3009.98482	0.05816
3008.69905	0.05810
3007.41329	0.05814
3006.12752	0.05824
3004.84175	0.05831
3003.55598	0.05824
3002.27021	0.05804
3000.98444	0.05779
2999.69867	0.05758
2998.41290	0.05747
2997.12714	0.05750
2995.84137	0.05768
2994.55560	0.05797
2993.26983	0.05820
2991.98406	0.05825
2990.69829	0.05813
2989.41252	0.05797
2988.12675	0.05788
2986.84098	0.05784
2985.55522	0.05787
2984.26945	0.05797
2982.98368	0.05815
2981.69791	0.05841
2980.41214	0.05877
2979.12637	0.05924
2977.84060	0.05981
2976.55483	0.06048
2975.26907	0.06124
2973.98330	0.06204
2972.69753	0.06271
2971.41176	0.06306
2970.12599	0.06314
2968.84022	0.06320
2967.55445	0.06349
2966.26868	0.06404
2964.98291	0.06482
2963.69715	0.06580
2962.41138	0.06689
2961.12561	0.06787
2959.83984	0.06851
2958.55407	0.06875
2957.26830	0.06870
2955.98253	0.06858
2954.69676	0.06859
2953.41100	0.06884
2952.12523	0.06923
2950.83946	0.06954
2949.55369	0.06970
2948.26792	0.06980
2946.98215	0.06993
2945.69638	0.07004
2944.41061	0.07005
2943.12484	0.06999
2941.83908	0.07001
2940.55331	0.07019
2939.26754	0.07048
2937.98177	0.07083
2936.69600	0.07120
2935.41023	0.07164
2934.12446	0.07219
2932.83869	0.07288
2931.55293	0.07365
2930.26716	0.07440
2928.98139	0.07509
2927.69562	0.07574
2926.40985	0.07632
2925.12408	0.07668
2923.83831	0.07664
2922.55254	0.07619
2921.26677	0.07552
2919.98101	0.07487
2918.69524	0.07439
2917.40947	0.07405
2916.12370	0.07372
2914.83793	0.07330
2913.55216	0.07278
2912.26639	0.07212
2910.98062	0.07135
2909.69486	0.07052
2908.40909	0.06974
2907.12332	0.06908
2905.83755	0.06846
2904.55178	0.06776
2903.26601	0.06696
2901.98024	0.06621
2900.69447	0.06567
2899.40870	0.06530
2898.12294	0.06499
2896.83717	0.06459
2895.55140	0.06409
2894.26563	0.06362
2892.97986	0.06333
2891.69409	0.06321
2890.40832	0.06302
2889.12255	0.06264
2887.83678	0.06215
2886.55102	0.06176
2885.26525	0.06150
2883.97948	0.06125
2882.69371	0.06099
2881.40794	0.06080
2880.12217	0.06074
2878.83640	0.06083
2877.55063	0.06114
2876.26487	0.06167
2874.97910	0.06231
2873.69333	0.06290
2872.40756	0.06333
2871.12179	0.06361
2869.83602	0.06368
2868.55025	0.06353
2867.26448	0.06326
2865.97871	0.06304
2864.69295	0.06291
2863.40718	0.06280
2862.12141	0.06268
2860.83564	0.06264
2859.54987	0.06271
2858.26410	0.06280
2856.97833	0.06273
2855.69256	0.06250
2854.40680	0.06223
2853.12103	0.06202
2851.83526	0.06185
2850.54949	0.06164
2849.26372	0.06133
2847.97795	0.06091
2846.69218	0.06039
2845.40641	0.05974
2844.12064	0.05902
2842.83488	0.05835
2841.54911	0.05778
2840.26334	0.05725
2838.97757	0.05664
2837.69180	0.05593
2836.40603	0.05519
2835.12026	0.05447
2833.83449	0.05381
2832.54873	0.05327
2831.26296	0.05290
2829.97719	0.05267
2828.69142	0.05249
2827.40565	0.05233
2826.11988	0.05216
2824.83411	0.05195
2823.54834	0.05168
2822.26257	0.05144
2820.97681	0.05133
2819.69104	0.05131
2818.40527	0.05113
2817.11950	0.05063
2815.83373	0.04992
2814.54796	0.04932
2813.26219	0.04905
2811.97642	0.04906
2810.69066	0.04914
2809.40489	0.04908
2808.11912	0.04887
2806.83335	0.04864
2805.54758	0.04853
2804.26181	0.04853
2802.97604	0.04851
2801.69027	0.04840
2800.40450	0.04826
2799.11874	0.04816
2797.83297	0.04807
2796.54720	0.04790
2795.26143	0.04766
2793.97566	0.04746
2792.68989	0.04738
2791.40412	0.04743
2790.11835	0.04752
2788.83259	0.04759
2787.54682	0.04764
2786.26105	0.04761
2784.97528	0.04746
2783.68951	0.04725
2782.40374	0.04711
2781.11797	0.04711
2779.83220	0.04711
2778.54643	0.04702
2777.26067	0.04685
2775.97490	0.04673
2774.68913	0.04672
2773.40336	0.04674
2772.11759	0.04673
2770.83182	0.04668
2769.54605	0.04665
2768.26028	0.04664
2766.97452	0.04662
2765.68875	0.04649
2764.40298	0.04619
2763.11721	0.04579
2761.83144	0.04544
2760.54567	0.04529
2759.25990	0.04538
2757.97413	0.04563
2756.68836	0.04593
2755.40260	0.04616
2754.11683	0.04624
2752.83106	0.04614
2751.54529	0.04591
2750.25952	0.04565
2748.97375	0.04546
2747.68798	0.04536
2746.40221	0.04528
2745.11645	0.04513
2743.83068	0.04487
2742.54491	0.04452
2741.25914	0.04416
2739.97337	0.04390
2738.68760	0.04379
2737.40183	0.04381
2736.11606	0.04388
2734.83029	0.04398
2733.54453	0.04411
2732.25876	0.04426
2730.97299	0.04437
2729.68722	0.04438
2728.40145	0.04431
2727.11568	0.04418
2725.82991	0.04403
2724.54414	0.04387
2723.25838	0.04374
2721.97261	0.04366
2720.68684	0.04368
2719.40107	0.04383
2718.11530	0.04406
2716.82953	0.04419
2715.54376	0.04408
2714.25799	0.04370
2712.97222	0.04322
2711.68646	0.04287
2710.40069	0.04277
2709.11492	0.04288
2707.82915	0.04306
2706.54338	0.04318
2705.25761	0.04320
2703.97184	0.04312
2702.68607	0.04300
2701.40031	0.04291
2700.11454	0.04289
2698.82877	0.04288
2697.54300	0.04283
2696.25723	0.04271
2694.97146	0.04258
2693.68569	0.04243
2692.39992	0.04225
2691.11415	0.04210
2689.82839	0.04205
2688.54262	0.04208
2687.25685	0.04204
2685.97108	0.04183
2684.68531	0.04153
2683.39954	0.04130
2682.11377	0.04124
2680.82800	0.04136
2679.54224	0.04162
2678.25647	0.04197
2676.97070	0.04228
2675.68493	0.04243
2674.39916	0.04235
2673.11339	0.04209
2671.82762	0.04173
2670.54185	0.04134
2669.25608	0.04096
2667.97032	0.04068
2666.68455	0.04059
2665.39878	0.04070
2664.11301	0.04088
2662.82724	0.04100
2661.54147	0.04102
2660.25570	0.04096
2658.96993	0.04084
2657.68417	0.04064
2656.39840	0.04043
2655.11263	0.04033
2653.82686	0.04038
2652.54109	0.04046
2651.25532	0.04047
2649.96955	0.04036
2648.68378	0.04017
2647.39801	0.03993
2646.11225	0.03968
2644.82648	0.03949
2643.54071	0.03937
2642.25494	0.03930
2640.96917	0.03924
2639.68340	0.03922
2638.39763	0.03920
2637.11186	0.03911
2635.82609	0.03891
2634.54033	0.03865
2633.25456	0.03842
2631.96879	0.03826
2630.68302	0.03817
2629.39725	0.03809
2628.11148	0.03793
2626.82571	0.03767
2625.53994	0.03742
2624.25418	0.03731
2622.96841	0.03733
2621.68264	0.03734
2620.39687	0.03722
2619.11110	0.03697
2617.82533	0.03664
2616.53956	0.03629
2615.25379	0.03598
2613.96802	0.03578
2612.68226	0.03570
2611.39649	0.03569
2610.11072	0.03572
2608.82495	0.03576
2607.53918	0.03580
2606.25341	0.03580
2604.96764	0.03571
2603.68187	0.03555
2602.39611	0.03537
2601.11034	0.03527
2599.82457	0.03529
2598.53880	0.03542
2597.25303	0.03561
2595.96726	0.03579
2594.68149	0.03594
2593.39572	0.03604
2592.10995	0.03603
2590.82419	0.03586
2589.53842	0.03552
2588.25265	0.03511
2586.96688	0.03475
2585.68111	0.03452
2584.39534	0.03441
2583.10957	0.03433
2581.82380	0.03427
2580.53804	0.03434
2579.25227	0.03456
2577.96650	0.03477
2576.68073	0.03472
2575.39496	0.03436
2574.10919	0.03387
2572.82342	0.03348
2571.53765	0.03322
2570.25188	0.03306
2568.96612	0.03299
2567.68035	0.03305
2566.39458	0.03322
2565.10881	0.03335
2563.82304	0.03330
2562.53727	0.03303
2561.25150	0.03263
2559.96573	0.03223
2558.67997	0.03198
2557.39420	0.03191
2556.10843	0.03192
2554.82266	0.03191
2553.53689	0.03191
2552.25112	0.03204
2550.96535	0.03234
2549.67958	0.03268
2548.39381	0.03290
2547.10805	0.03298
2545.82228	0.03296
2544.53651	0.03287
2543.25074	0.03269
2541.96497	0.03247
2540.67920	0.03228
2539.39343	0.03217
2538.10766	0.03212
2536.82190	0.03208
2535.53613	0.03209
2534.25036	0.03221
2532.96459	0.03245
2531.67882	0.03258
2530.39305	0.03238
2529.10728	0.03189
2527.82151	0.03142
2526.53574	0.03126
2525.24998	0.03145
2523.96421	0.03177
2522.67844	0.03199
2521.39267	0.03199
2520.10690	0.03178
2518.82113	0.03150
2517.53536	0.03129
2516.24959	0.03117
2514.96383	0.03110
2513.67806	0.03101
2512.39229	0.03084
2511.10652	0.03059
2509.82075	0.03031
2508.53498	0.03017
2507.24921	0.03025
2505.96344	0.03047
2504.67767	0.03065
2503.39191	0.03069
2502.10614	0.03069
2500.82037	0.03084
2499.53460	0.03113
2498.24883	0.03132
2496.96306	0.03131
2495.67729	0.03121
2494.39152	0.03111
2493.10576	0.03092
2491.81999	0.03055
2490.53422	0.03017
2489.24845	0.03007
2487.96268	0.03028
2486.67691	0.03059
2485.39114	0.03073
2484.10537	0.03065
2482.81960	0.03047
2481.53384	0.03035
2480.24807	0.03029
2478.96230	0.03018
2477.67653	0.02997
2476.39076	0.02975
2475.10499	0.02970
2473.81922	0.02995
2472.53345	0.03041
2471.24769	0.03082
2469.96192	0.03088
2468.67615	0.03056
2467.39038	0.03008
2466.10461	0.02967
2464.81884	0.02945
2463.53307	0.02948
2462.24730	0.02975
2460.96153	0.03013
2459.67577	0.03039
2458.39000	0.03038
2457.10423	0.03009
2455.81846	0.02955
2454.53269	0.02892
2453.24692	0.02843
2451.96115	0.02823
2450.67538	0.02830
2449.38962	0.02849
2448.10385	0.02866
2446.81808	0.02879
2445.53231	0.02888
2444.24654	0.02899
2442.96077	0.02912
2441.67500	0.02925
2440.38923	0.02929
2439.10346	0.02922
2437.81770	0.02914
2436.53193	0.02923
2435.24616	0.02952
2433.96039	0.02983
2432.67462	0.02998
2431.38885	0.02986
2430.10308	0.02952
2428.81731	0.02913
2427.53155	0.02893
2426.24578	0.02901
2424.96001	0.02924
2423.67424	0.02934
2422.38847	0.02921
2421.10270	0.02904
2419.81693	0.02902
2418.53116	0.02907
2417.24539	0.02900
2415.95963	0.02885
2414.67386	0.02884
2413.38809	0.02903
2412.10232	0.02922
2410.81655	0.02918
2409.53078	0.02887
2408.24501	0.02845
2406.95924	0.02810
2405.67347	0.02791
2404.38771	0.02790
2403.10194	0.02804
2401.81617	0.02826
2400.53040	0.02847
2399.24463	0.02848
2397.95886	0.02836
2396.67309	0.02818
2395.38732	0.02805
2394.10156	0.02803
2392.81579	0.02809
2391.53002	0.02820
2390.24425	0.02832
2388.95848	0.02847
2387.67271	0.02865
2386.38694	0.02878
2385.10117	0.02872
2383.81540	0.02840
2382.52964	0.02791
2381.24387	0.02753
2379.95810	0.02752
2378.67233	0.02774
2377.38656	0.02810
2376.10079	0.02854
2374.81502	0.02888
2373.52925	0.02869
2372.24349	0.02810
2370.95772	0.02764
2369.67195	0.02749
2368.38618	0.02760
2367.10041	0.02777
2365.81464	0.02797
2364.52887	0.02807
2363.24310	0.02803
2361.95733	0.02791
2360.67157	0.02774
2359.38580	0.02778
2358.10003	0.02801
2356.81426	0.02832
2355.52849	0.02861
2354.24272	0.02886
2352.95695	0.02899
2351.67118	0.02872
2350.38542	0.02843
2349.09965	0.02854
2347.81388	0.02873
2346.52811	0.02865
2345.24234	0.02858
2343.95657	0.02884
2342.67080	0.02950
2341.38503	0.02922
2340.09926	0.02829
2338.81350	0.02824
2337.52773	0.02897
2336.24196	0.02893
2334.95619	0.02859
2333.67042	0.02878
2332.38465	0.02925
2331.09888	0.02839
2329.81311	0.02808
2328.52735	0.02858
2327.24158	0.02877
2325.95581	0.02901
2324.67004	0.02936
2323.38427	0.02974
2322.09850	0.02946
2320.81273	0.02916
2319.52696	0.02884
2318.24119	0.02846
2316.95543	0.02807
2315.66966	0.02774
2314.38389	0.02769
2313.09812	0.02771
2311.81235	0.02754
2310.52658	0.02734
2309.24081	0.02717
2307.95504	0.02696
2306.66928	0.02678
2305.38351	0.02662
2304.09774	0.02656
2302.81197	0.02660
2301.52620	0.02668
2300.24043	0.02684
2298.95466	0.02706
2297.66889	0.02722
2296.38312	0.02715
2295.09736	0.02686
2293.81159	0.02655
2292.52582	0.02639
2291.24005	0.02641
2289.95428	0.02647
2288.66851	0.02643
2287.38274	0.02627
2286.09697	0.02604
2284.81121	0.02585
2283.52544	0.02577
2282.23967	0.02579
2280.95390	0.02580
2279.66813	0.02568
2278.38236	0.02532
2277.09659	0.02472
2275.81082	0.02407
2274.52505	0.02364
2273.23929	0.02358
2271.95352	0.02374
2270.66775	0.02378
2269.38198	0.02342
2268.09621	0.02270
2266.81044	0.02197
2265.52467	0.02170
2264.23890	0.02204
2262.95314	0.02264
2261.66737	0.02295
2260.38160	0.02274
2259.09583	0.02210
2257.81006	0.02130
2256.52429	0.02047
2255.23852	0.01971
2253.95275	0.01918
2252.66698	0.01897
2251.38122	0.01902
2250.09545	0.01931
2248.80968	0.01986
2247.52391	0.02053
2246.23814	0.02134
2244.95237	0.02192
2243.66660	0.02205
2242.38083	0.02184
2241.09507	0.02147
2239.80930	0.02102
2238.52353	0.02058
2237.23776	0.02047
2235.95199	0.02097
2234.66622	0.02199
2233.38045	0.02291
2232.09468	0.02322
2230.80891	0.02287
2229.52315	0.02223
2228.23738	0.02166
2226.95161	0.02130
2225.66584	0.02111
2224.38007	0.02084
2223.09430	0.02025
2221.80853	0.01953
2220.52276	0.01915
2219.23700	0.01933
2217.95123	0.01966
2216.66546	0.01959
2215.37969	0.01902
2214.09392	0.01834
2212.80815	0.01791
2211.52238	0.01780
2210.23661	0.01783
2208.95084	0.01789
2207.66508	0.01795
2206.37931	0.01794
2205.09354	0.01759
2203.80777	0.01663
2202.52200	0.01524
2201.23623	0.01410
2199.95046	0.01377
2198.66469	0.01420
2197.37893	0.01489
2196.09316	0.01547
2194.80739	0.01588
2193.52162	0.01617
2192.23585	0.01628
2190.95008	0.01610
2189.66431	0.01565
2188.37854	0.01513
2187.09277	0.01477
2185.80701	0.01449
2184.52124	0.01392
2183.23547	0.01276
2181.94970	0.01134
2180.66393	0.01052
2179.37816	0.01084
2178.09239	0.01191
2176.80662	0.01283
2175.52085	0.01313
2174.23509	0.01302
2172.94932	0.01277
2171.66355	0.01238
2170.37778	0.01184
2169.09201	0.01146
2167.80624	0.01155
2166.52047	0.01211
2165.23470	0.01285
2163.94894	0.01341
2162.66317	0.01351
2161.37740	0.01298
2160.09163	0.01194
2158.80586	0.01076
2157.52009	0.00989
2156.23432	0.00965
2154.94855	0.01014
2153.66278	0.01103
2152.37702	0.01168
2151.09125	0.01165
2149.80548	0.01111
2148.51971	0.01059
2147.23394	0.01031
2145.94817	0.01018
2144.66240	0.01024
2143.37663	0.01061
2142.09087	0.01109
2140.80510	0.01113
2139.51933	0.01064
2138.23356	0.01025
2136.94779	0.01068
2135.66202	0.01189
2134.37625	0.01321
2133.09048	0.01406
2131.80471	0.01447
2130.51895	0.01476
2129.23318	0.01509
2127.94741	0.01550
2126.66164	0.01602
2125.37587	0.01667
2124.09010	0.01723
2122.80433	0.01732
2121.51856	0.01686
2120.23280	0.01629
2118.94703	0.01620
2117.66126	0.01668
2116.37549	0.01718
2115.08972	0.01703
2113.80395	0.01608
2112.51818	0.01489
2111.23241	0.01421
2109.94664	0.01433
2108.66088	0.01494
2107.37511	0.01550
2106.08934	0.01571
2104.80357	0.01561
2103.51780	0.01545
2102.23203	0.01539
2100.94626	0.01549
2099.66049	0.01622
2098.37473	0.01658
2097.08896	0.01643
2095.80319	0.01597
2094.51742	0.01545
2093.23165	0.01509
2091.94588	0.01486
2090.66011	0.01461
2089.37434	0.01435
2088.08857	0.01436
2086.80281	0.01485
2085.51704	0.01559
2084.23127	0.01605
2082.94550	0.01591
2081.65973	0.01531
2080.37396	0.01476
2079.08819	0.01467
2077.80242	0.01502
2076.51666	0.01554
2075.23089	0.01594
2073.94512	0.01610
2072.65935	0.01601
2071.37358	0.01563
2070.08781	0.01495
2068.80204	0.01412
2067.51627	0.01336
2066.23050	0.01286
2064.94474	0.01265
2063.65897	0.01260
2062.37320	0.01253
2061.08743	0.01233
2059.80166	0.01206
2058.51589	0.01187
2057.23012	0.01178
2055.94435	0.01160
2054.65859	0.01105
2053.37282	0.01005
2052.08705	0.00892
2050.80128	0.00815
2049.51551	0.00806
2048.22974	0.00843
2046.94397	0.00871
2045.65820	0.00850
2044.37243	0.00790
2043.08667	0.00736
2041.80090	0.00720
2040.51513	0.00739
2039.22936	0.00774
2037.94359	0.00807
2036.65782	0.00818
2035.37205	0.00790
2034.08628	0.00728
2032.80052	0.00677
2031.51475	0.00688
2030.22898	0.00774
2028.94321	0.00891
2027.65744	0.00973
2026.37167	0.00974
2025.08590	0.00899
2023.80013	0.00813
2022.51436	0.00790
2021.22860	0.00851
2019.94283	0.00938
2018.65706	0.00967
2017.37129	0.00909
2016.08552	0.00808
2014.79975	0.00730
2013.51398	0.00711
2012.22821	0.00734
2010.94245	0.00754
2009.65668	0.00738
2008.37091	0.00689
2007.08514	0.00640
2005.79937	0.00624
2004.51360	0.00649
2003.22783	0.00708
2001.94206	0.00785
2000.65629	0.00862
1999.37053	0.00927
1998.08476	0.00985
1996.79899	0.01037
1995.51322	0.01082
1994.22745	0.01116
1992.94168	0.01146
1991.65591	0.01180
1990.37014	0.01210
1989.08438	0.01215
1987.79861	0.01189
1986.51284	0.01153
1985.22707	0.01134
1983.94130	0.01154
1982.65553	0.01216
1981.36976	0.01301
1980.08399	0.01366
1978.79822	0.01364
1977.51246	0.01290
1976.22669	0.01185
1974.94092	0.01096
1973.65515	0.01040
1972.36938	0.01010
1971.08361	0.01009
1969.79784	0.01033
1968.51207	0.01052
1967.22631	0.01028
1965.94054	0.00958
1964.65477	0.00885
1963.36900	0.00864
1962.08323	0.00913
1960.79746	0.01007
1959.51169	0.01106
1958.22592	0.01185
1956.94015	0.01235
1955.65439	0.01263
1954.36862	0.01275
1953.08285	0.01282
1951.79708	0.01293
1950.51131	0.01317
1949.22554	0.01352
1947.93977	0.01387
1946.65400	0.01419
1945.36823	0.01449
1944.08247	0.01476
1942.79670	0.01492
1941.51093	0.01487
1940.22516	0.01467
1938.93939	0.01444
1937.65362	0.01428
1936.36785	0.01424
1935.08208	0.01432
1933.79632	0.01449
1932.51055	0.01463
1931.22478	0.01457
1929.93901	0.01428
1928.65324	0.01401
1927.36747	0.01395
1926.08170	0.01413
1924.79593	0.01444
1923.51016	0.01483
1922.22440	0.01531
1920.93863	0.01576
1919.65286	0.01602
1918.36709	0.01606
1917.08132	0.01600
1915.79555	0.01590
1914.50978	0.01578
1913.22401	0.01567
1911.93825	0.01566
1910.65248	0.01575
1909.36671	0.01590
1908.08094	0.01601
1906.79517	0.01608
1905.50940	0.01615
1904.22363	0.01616
1902.93786	0.01602
1901.65209	0.01571
1900.36633	0.01538
1899.08056	0.01525
1897.79479	0.01548
1896.50902	0.01594
1895.22325	0.01633
1893.93748	0.01641
1892.65171	0.01617
1891.36594	0.01582
1890.08018	0.01556
1888.79441	0.01549
1887.50864	0.01558
1886.22287	0.01573
1884.93710	0.01590
1883.65133	0.01604
1882.36556	0.01610
1881.07979	0.01609
1879.79402	0.01609
1878.50826	0.01615
1877.22249	0.01623
1875.93672	0.01627
1874.65095	0.01629
1873.36518	0.01635
1872.07941	0.01641
1870.79364	0.01632
1869.50787	0.01603
1868.22211	0.01570
1866.93634	0.01556
1865.65057	0.01575
1864.36480	0.01615
1863.07903	0.01652
1861.79326	0.01665
1860.50749	0.01659
1859.22172	0.01652
1857.93595	0.01653
1856.65019	0.01654
1855.36442	0.01644
1854.07865	0.01627
1852.79288	0.01621
1851.50711	0.01637
1850.22134	0.01668
1848.93557	0.01698
1847.64980	0.01712
1846.36404	0.01708
1845.07827	0.01696
1843.79250	0.01687
1842.50673	0.01679
1841.22096	0.01663
1839.93519	0.01641
1838.64942	0.01626
1837.36365	0.01625
1836.07788	0.01630
1834.79212	0.01632
1833.50635	0.01631
1832.22058	0.01637
1830.93481	0.01661
1829.64904	0.01697
1828.36327	0.01727
1827.07750	0.01733
1825.79173	0.01722
1824.50597	0.01712
1823.22020	0.01717
1821.93443	0.01730
1820.64866	0.01737
1819.36289	0.01728
1818.07712	0.01707
1816.79135	0.01685
1815.50558	0.01669
1814.21981	0.01659
1812.93405	0.01654
1811.64828	0.01653
1810.36251	0.01659
1809.07674	0.01670
1807.79097	0.01682
1806.50520	0.01689
1805.21943	0.01693
1803.93366	0.01702
1802.64790	0.01721
1801.36213	0.01744
1800.07636	0.01762
1798.79059	0.01769
1797.50482	0.01770
1796.21905	0.01772
1794.93328	0.01772
1793.64751	0.01767
1792.36174	0.01757
1791.07598	0.01753
1789.79021	0.01756
1788.50444	0.01761
1787.21867	0.01761
1785.93290	0.01751
1784.64713	0.01736
1783.36136	0.01727
1782.07559	0.01733
1780.78983	0.01753
1779.50406	0.01778
1778.21829	0.01796
1776.93252	0.01804
1775.64675	0.01804
1774.36098	0.01801
1773.07521	0.01798
1771.78944	0.01797
1770.50367	0.01792
1769.21791	0.01777
1767.93214	0.01759
1766.64637	0.01751
1765.36060	0.01754
1764.07483	0.01760
1762.78906	0.01768
1761.50329	0.01779
1760.21752	0.01794
1758.93176	0.01805
1757.64599	0.01811
1756.36022	0.01818
1755.07445	0.01827
1753.78868	0.01830
1752.50291	0.01821
1751.21714	0.01802
1749.93137	0.01783
1748.64560	0.01772
1747.35984	0.01771
1746.07407	0.01777
1744.78830	0.01785
1743.50253	0.01790
1742.21676	0.01791
1740.93099	0.01791
1739.64522	0.01795
1738.35945	0.01807
1737.07369	0.01818
1735.78792	0.01819
1734.50215	0.01814
1733.21638	0.01818
1731.93061	0.01829
1730.64484	0.01837
1729.35907	0.01841
1728.07330	0.01845
1726.78753	0.01853
1725.50177	0.01861
1724.21600	0.01870
1722.93023	0.01884
1721.64446	0.01904
1720.35869	0.01926
1719.07292	0.01947
1717.78715	0.01967
1716.50138	0.01986
1715.21561	0.02004
1713.92985	0.02021
1712.64408	0.02044
1711.35831	0.02073
1710.07254	0.02104
1708.78677	0.02132
1707.50100	0.02159
1706.21523	0.02192
1704.92946	0.02240
1703.64370	0.02301
1702.35793	0.02361
1701.07216	0.02417
1699.78639	0.02482
1698.50062	0.02554
1697.21485	0.02616
1695.92908	0.02668
1694.64331	0.02719
1693.35754	0.02768
1692.07178	0.02812
1690.78601	0.02862
1689.50024	0.02931
1688.21447	0.03015
1686.92870	0.03093
1685.64293	0.03158
1684.35716	0.03217
1683.07139	0.03277
1681.78563	0.03336
1680.49986	0.03390
1679.21409	0.03447
1677.92832	0.03508
1676.64255	0.03568
1675.35678	0.03629
1674.07101	0.03692
1672.78524	0.03757
1671.49947	0.03819
1670.21371	0.03881
1668.92794	0.03943
1667.64217	0.03998
1666.35640	0.04042
1665.07063	0.04075
1663.78486	0.04107
1662.49909	0.04146
1661.21332	0.04194
1659.92756	0.04248
1658.64179	0.04305
1657.35602	0.04365
1656.07025	0.04418
1654.78448	0.04454
1653.49871	0.04482
1652.21294	0.04514
1650.92717	0.04545
1649.64140	0.04558
1648.35564	0.04551
1647.06987	0.04540
1645.78410	0.04534
1644.49833	0.04533
1643.21256	0.04530
1641.92679	0.04524
1640.64102	0.04515
1639.35525	0.04501
1638.06949	0.04477
1636.78372	0.04444
1635.49795	0.04412
1634.21218	0.04383
1632.92641	0.04349
1631.64064	0.04302
1630.35487	0.04249
1629.06910	0.04201
1627.78333	0.04158
1626.49757	0.04115
1625.21180	0.04069
1623.92603	0.04023
1622.64026	0.03984
1621.35449	0.03956
1620.06872	0.03929
1618.78295	0.03893
1617.49718	0.03853
1616.21142	0.03815
1614.92565	0.03781
1613.63988	0.03743
1612.35411	0.03700
1611.06834	0.03663
1609.78257	0.03635
1608.49680	0.03614
1607.21103	0.03596
1605.92526	0.03578
1604.63950	0.03564
1603.35373	0.03556
1602.06796	0.03555
1600.78219	0.03558
1599.49642	0.03562
1598.21065	0.03566
1596.92488	0.03570
1595.63911	0.03579
1594.35335	0.03590
1593.06758	0.03604
1591.78181	0.03617
1590.49604	0.03631
1589.21027	0.03649
1587.92450	0.03672
1586.63873	0.03703
1585.35296	0.03741
1584.06719	0.03784
1582.78143	0.03828
1581.49566	0.03875
1580.20989	0.03926
1578.92412	0.03977
1577.63835	0.04026
1576.35258	0.04078
1575.06681	0.04140
1573.78104	0.04205
1572.49528	0.04260
1571.20951	0.04303
1569.92374	0.04342
1568.63797	0.04381
1567.35220	0.04421
1566.06643	0.04460
1564.78066	0.04505
1563.49489	0.04560
1562.20912	0.04617
1560.92336	0.04669
1559.63759	0.04719
1558.35182	0.04772
1557.06605	0.04820
1555.78028	0.04852
1554.49451	0.04873
1553.20874	0.04894
1551.92297	0.04922
1550.63721	0.04954
1549.35144	0.04989
1548.06567	0.05024
1546.77990	0.05050
1545.49413	0.05070
1544.20836	0.05088
1542.92259	0.05104
1541.63682	0.05115
1540.35105	0.05117
1539.06529	0.05113
1537.77952	0.05106
1536.49375	0.05091
1535.20798	0.05070
1533.92221	0.05056
1532.63644	0.05058
1531.35067	0.05073
1530.06490	0.05093
1528.77914	0.05115
1527.49337	0.05141
1526.20760	0.05173
1524.92183	0.05213
1523.63606	0.05257
1522.35029	0.05304
1521.06452	0.05357
1519.77875	0.05414
1518.49298	0.05470
1517.20722	0.05528
1515.92145	0.05599
1514.63568	0.05685
1513.34991	0.05779
1512.06414	0.05875
1510.77837	0.05976
1509.49260	0.06076
1508.20683	0.06169
1506.92107	0.06257
1505.63530	0.06346
1504.34953	0.06434
1503.06376	0.06511
1501.77799	0.06579
1500.49222	0.06644
1499.20645	0.06705
1497.92068	0.06758
1496.63491	0.06800
1495.34915	0.06836
1494.06338	0.06867
1492.77761	0.06895
1491.49184	0.06930
1490.20607	0.06979
1488.92030	0.07042
1487.63453	0.07116
1486.34876	0.07196
1485.06299	0.07284
1483.77723	0.07385
1482.49146	0.07500
1481.20569	0.07627
1479.91992	0.07760
1478.63415	0.07891
1477.34838	0.08020
1476.06261	0.08148
1474.77684	0.08272
1473.49108	0.08393
1472.20531	0.08509
1470.91954	0.08617
1469.63377	0.08710
1468.34800	0.08784
1467.06223	0.08844
1465.77646	0.08898
1464.49069	0.08955
1463.20492	0.09019
1461.91916	0.09090
1460.63339	0.09170
1459.34762	0.09260
1458.06185	0.09358
1456.77608	0.09461
1455.49031	0.09557
1454.20454	0.09631
1452.91877	0.09680
1451.63301	0.09713
1450.34724	0.09738
1449.06147	0.09748
1447.77570	0.09738
1446.48993	0.09705
1445.20416	0.09652
1443.91839	0.09581
1442.63262	0.09500
1441.34685	0.09413
1440.06109	0.09322
1438.77532	0.09233
1437.48955	0.09158
1436.20378	0.09108
1434.91801	0.09085
1433.63224	0.09084
1432.34647	0.09106
1431.06070	0.09159
1429.77494	0.09245
1428.48917	0.09361
1427.20340	0.09498
1425.91763	0.09650
1424.63186	0.09813
1423.34609	0.09984
1422.06032	0.10155
1420.77455	0.10315
1419.48878	0.10457
1418.20302	0.10579
1416.91725	0.10679
1415.63148	0.10757
1414.34571	0.10814
1413.05994	0.10852
1411.77417	0.10869
1410.48840	0.10860
1409.20263	0.10821
1407.91687	0.10747
1406.63110	0.10640
1405.34533	0.10505
1404.05956	0.10349
1402.77379	0.10177
1401.48802	0.09987
1400.20225	0.09780
1398.91648	0.09562
1397.63071	0.09337
1396.34495	0.09106
1395.05918	0.08872
1393.77341	0.08638
1392.48764	0.08410
1391.20187	0.08189
1389.91610	0.07976
1388.63033	0.07771
1387.34456	0.07574
1386.05880	0.07384
1384.77303	0.07200
1383.48726	0.07017
1382.20149	0.06836
1380.91572	0.06654
1379.62995	0.06472
1378.34418	0.06291
1377.05841	0.06108
1375.77264	0.05922
1374.48688	0.05730
1373.20111	0.05533
1371.91534	0.05336
1370.62957	0.05145
1369.34380	0.04966
1368.05803	0.04801
1366.77226	0.04647
1365.48649	0.04502
1364.20073	0.04366
1362.91496	0.04238
1361.62919	0.04117
1360.34342	0.04002
1359.05765	0.03895
1357.77188	0.03800
1356.48611	0.03719
1355.20034	0.03650
1353.91457	0.03589
1352.62881	0.03531
1351.34304	0.03471
1350.05727	0.03410
1348.77150	0.03350
1347.48573	0.03297
1346.19996	0.03251
1344.91419	0.03213
1343.62842	0.03182
1342.34266	0.03157
1341.05689	0.03133
1339.77112	0.03106
1338.48535	0.03075
1337.19958	0.03044
1335.91381	0.03015
1334.62804	0.02989
1333.34227	0.02962
1332.05650	0.02930
1330.77074	0.02895
1329.48497	0.02862
1328.19920	0.02833
1326.91343	0.02809
1325.62766	0.02786
1324.34189	0.02766
1323.05612	0.02747
1321.77035	0.02730
1320.48459	0.02713
1319.19882	0.02695
1317.91305	0.02676
1316.62728	0.02657
1315.34151	0.02639
1314.05574	0.02617
1312.76997	0.02593
1311.48420	0.02567
1310.19843	0.02544
1308.91267	0.02525
1307.62690	0.02505
1306.34113	0.02483
1305.05536	0.02461
1303.76959	0.02441
1302.48382	0.02424
1301.19805	0.02410
1299.91228	0.02399
1298.62652	0.02392
1297.34075	0.02386
1296.05498	0.02377
1294.76921	0.02360
1293.48344	0.02340
1292.19767	0.02319
1290.91190	0.02302
1289.62613	0.02288
1288.34036	0.02276
1287.05460	0.02264
1285.76883	0.02251
1284.48306	0.02239
1283.19729	0.02233
1281.91152	0.02230
1280.62575	0.02226
1279.33998	0.02217
1278.05421	0.02205
1276.76845	0.02192
1275.48268	0.02178
1274.19691	0.02166
1272.91114	0.02157
1271.62537	0.02149
1270.33960	0.02141
1269.05383	0.02134
1267.76806	0.02126
1266.48229	0.02118
1265.19653	0.02110
1263.91076	0.02103
1262.62499	0.02097
1261.33922	0.02091
1260.05345	0.02084
1258.76768	0.02075
1257.48191	0.02063
1256.19614	0.02052
1254.91037	0.02046
1253.62461	0.02046
1252.33884	0.02049
1251.05307	0.02050
1249.76730	0.02046
1248.48153	0.02038
1247.19576	0.02028
1245.90999	0.02019
1244.62422	0.02014
1243.33846	0.02012
1242.05269	0.02010
1240.76692	0.02006
1239.48115	0.01999
1238.19538	0.01989
1236.90961	0.01977
1235.62384	0.01966
1234.33807	0.01956
1233.05230	0.01947
1231.76654	0.01939
1230.48077	0.01933
1229.19500	0.01926
1227.90923	0.01914
1226.62346	0.01894
1225.33769	0.01869
1224.05192	0.01843
1222.76615	0.01821
1221.48039	0.01804
1220.19462	0.01790
1218.90885	0.01778
1217.62308	0.01769
1216.33731	0.01762
1215.05154	0.01756
1213.76577	0.01749
1212.48000	0.01740
1211.19423	0.01733
1209.90847	0.01732
1208.62270	0.01735
1207.33693	0.01739
1206.05116	0.01741
1204.76539	0.01740
1203.47962	0.01735
1202.19385	0.01728
1200.90808	0.01720
1199.62232	0.01710
1198.33655	0.01710
1197.05078	0.01703
1195.76501	0.01688
1194.47924	0.01668
1193.19347	0.01652
1191.90770	0.01643
1190.62193	0.01640
1189.33616	0.01641
1188.05040	0.01642
1186.76463	0.01642
1185.47886	0.01640
1184.19309	0.01638
1182.90732	0.01636
1181.62155	0.01633
1180.33578	0.01632
1179.05001	0.01634
1177.76425	0.01639
1176.47848	0.01647
1175.19271	0.01655
1173.90694	0.01662
1172.62117	0.01667
1171.33540	0.01673
1170.04963	0.01682
1168.76386	0.01694
1167.47809	0.01707
1166.19233	0.01720
1164.90656	0.01735
1163.62079	0.01751
1162.33502	0.01771
1161.04925	0.01798
1159.76348	0.01830
1158.47771	0.01861
1157.19194	0.01885
1155.90618	0.01902
1154.62041	0.01918
1153.33464	0.01942
1152.04887	0.01979
1150.76310	0.02024
1149.47733	0.02074
1148.19156	0.02127
1146.90579	0.02182
1145.62002	0.02242
1144.33426	0.02306
1143.04849	0.02375
1141.76272	0.02449
1140.47695	0.02534
1139.19118	0.02637
1137.90541	0.02758
1136.61964	0.02893
1135.33387	0.03037
1134.04811	0.03190
1132.76234	0.03355
1131.47657	0.03540
1130.19080	0.03747
1128.90503	0.03975
1127.61926	0.04218
1126.33349	0.04476
1125.04772	0.04757
1123.76195	0.05061
1122.47619	0.05386
1121.19042	0.05725
1119.90465	0.06079
1118.61888	0.06449
1117.33311	0.06834
1116.04734	0.07229
1114.76157	0.07624
1113.47580	0.08015
1112.19004	0.08402
1110.90427	0.08792
1109.61850	0.09185
1108.33273	0.09578
1107.04696	0.09962
1105.76119	0.10337
1104.47542	0.10705
1103.18965	0.11069
1101.90388	0.11428
1100.61812	0.11778
1099.33235	0.12116
1098.04658	0.12445
1096.76081	0.12765
1095.47504	0.13076
1094.18927	0.13378
1092.90350	0.13668
1091.61773	0.13945
1090.33197	0.14205
1089.04620	0.14447
1087.76043	0.14671
1086.47466	0.14878
1085.18889	0.15075
1083.90312	0.15271
1082.61735	0.15482
1081.33158	0.15717
1080.04581	0.15979
1078.76005	0.16264
1077.47428	0.16571
1076.18851	0.16901
1074.90274	0.17252
1073.61697	0.17618
1072.33120	0.17995
1071.04543	0.18382
1069.75966	0.18786
1068.47390	0.19204
1067.18813	0.19632
1065.90236	0.20065
1064.61659	0.20504
1063.33082	0.20953
1062.04505	0.21410
1060.75928	0.21869
1059.47351	0.22318
1058.18774	0.22754
1056.90198	0.23179
1055.61621	0.23598
1054.33044	0.24014
1053.04467	0.24427
1051.75890	0.24840
1050.47313	0.25260
1049.18736	0.25689
1047.90159	0.26126
1046.61583	0.26573
1045.33006	0.27028
1044.04429	0.27485
1042.75852	0.27938
1041.47275	0.28382
1040.18698	0.28818
1038.90121	0.29254
1037.61544	0.29698
1036.32967	0.30155
1035.04391	0.30621
1033.75814	0.31077
1032.47237	0.31500
1031.18660	0.31875
1029.90083	0.32209
1028.61506	0.32511
1027.32929	0.32787
1026.04352	0.33030
1024.75775	0.33232
1023.47199	0.33388
1022.18622	0.33496
1020.90045	0.33554
1019.61468	0.33556
1018.32891	0.33495
1017.04314	0.33364
1015.75737	0.33159
1014.47160	0.32882
1013.18584	0.32537
1011.90007	0.32128
1010.61430	0.31661
1009.32853	0.31143
1008.04276	0.30577
1006.75699	0.29953
1005.47122	0.29266
1004.18545	0.28520
1002.89968	0.27730
1001.61392	0.26907
1000.32815	0.26062
999.04238	0.25200
997.75661	0.24327
996.47084	0.23451
995.18507	0.22579
993.89930	0.21718
992.61353	0.20872
991.32777	0.20042
990.04200	0.19229
988.75623	0.18437
987.47046	0.17672
986.18469	0.16936
984.89892	0.16235
983.61315	0.15569
982.32738	0.14937
981.04161	0.14340
979.75585	0.13780
978.47008	0.13262
977.18431	0.12786
975.89854	0.12352
974.61277	0.11969
973.32700	0.11648
972.04123	0.11400
970.75546	0.11228
969.46970	0.11132
968.18393	0.11107
966.89816	0.11155
965.61239	0.11269
964.32662	0.11433
963.04085	0.11607
961.75508	0.11738
960.46931	0.11782
959.18354	0.11717
957.89778	0.11547
956.61201	0.11296
955.32624	0.10997
954.04047	0.10680
952.75470	0.10363
951.46893	0.10054
950.18316	0.09756
948.89739	0.09469
947.61163	0.09195
946.32586	0.08932
945.04009	0.08673
943.75432	0.08418
942.46855	0.08165
941.18278	0.07918
939.89701	0.07684
938.61124	0.07464
937.32547	0.07263
936.03971	0.07078
934.75394	0.06907
933.46817	0.06753
932.18240	0.06615
930.89663	0.06489
929.61086	0.06368
928.32509	0.06251
927.03932	0.06140
925.75356	0.06035
924.46779	0.05933
923.18202	0.05833
921.89625	0.05737
920.61048	0.05647
919.32471	0.05562
918.03894	0.05480
916.75317	0.05405
915.46740	0.05338
914.18164	0.05278
912.89587	0.05216
911.61010	0.05144
910.32433	0.05066
909.03856	0.04996
907.75279	0.04943
906.46702	0.04899
905.18125	0.04854
903.89549	0.04809
902.60972	0.04771
901.32395	0.04742
900.03818	0.04713
898.75241	0.04680
897.46664	0.04644
896.18087	0.04610
894.89510	0.04580
893.60933	0.04556
892.32357	0.04544
891.03780	0.04544
889.75203	0.04554
888.46626	0.04574
887.18049	0.04623
885.89472	0.04736
884.60895	0.04942
883.32318	0.05241
882.03742	0.05593
880.75165	0.05924
879.46588	0.06170
878.18011	0.06319
876.89434	0.06422
875.60857	0.06544
874.32280	0.06701
873.03703	0.06846
871.75126	0.06916
870.46550	0.06878
869.17973	0.06745
867.89396	0.06545
866.60819	0.06305
865.32242	0.06049
864.03665	0.05799
862.75088	0.05570
861.46511	0.05367
860.17935	0.05188
858.89358	0.05030
857.60781	0.04889
856.32204	0.04765
855.03627	0.04656
853.75050	0.04562
852.46473	0.04484
851.17896	0.04422
849.89319	0.04377
848.60743	0.04342
847.32166	0.04312
846.03589	0.04277
844.75012	0.04236
843.46435	0.04189
842.17858	0.04138
840.89281	0.04090
839.60704	0.04051
838.32128	0.04023
837.03551	0.04001
835.74974	0.03978
834.46397	0.03953
833.17820	0.03930
831.89243	0.03910
830.60666	0.03888
829.32089	0.03861
828.03512	0.03831
826.74936	0.03805
825.46359	0.03789
824.17782	0.03777
822.89205	0.03763
821.60628	0.03745
820.32051	0.03726
819.03474	0.03711
817.74897	0.03694
816.46321	0.03676
815.17744	0.03662
813.89167	0.03660
812.60590	0.03665
811.32013	0.03668
810.03436	0.03662
808.74859	0.03652
807.46282	0.03638
806.17705	0.03622
804.89129	0.03606
803.60552	0.03592
802.31975	0.03583
801.03398	0.03573
799.74821	0.03557
798.46244	0.03536
797.17667	0.03516
795.89090	0.03503
794.60513	0.03497
793.31937	0.03496
792.03360	0.03493
790.74783	0.03487
789.46206	0.03480
788.17629	0.03475
786.89052	0.03474
785.60475	0.03473
784.31898	0.03470
783.03322	0.03460
781.74745	0.03446
780.46168	0.03431
779.17591	0.03421
777.89014	0.03419
776.60437	0.03421
775.31860	0.03419
774.03283	0.03409
772.74706	0.03397
771.46130	0.03392
770.17553	0.03397
768.88976	0.03402
767.60399	0.03400
766.31822	0.03395
765.03245	0.03395
763.74668	0.03400
762.46091	0.03404
761.17515	0.03404
759.88938	0.03404
758.60361	0.03408
757.31784	0.03415
756.03207	0.03421
754.74630	0.03421
753.46053	0.03418
752.17476	0.03418
750.88899	0.03419
749.60323	0.03419
748.31746	0.03418
747.03169	0.03419
745.74592	0.03423
744.46015	0.03422
743.17438	0.03402
741.88861	0.03366
740.60284	0.03332
739.31708	0.03315
738.03131	0.03310
736.74554	0.03303
735.45977	0.03292
734.17400	0.03287
732.88823	0.03293
731.60246	0.03305
730.31669	0.03317
729.03092	0.03327
727.74516	0.03336
726.45939	0.03345
725.17362	0.03352
723.88785	0.03355
722.60208	0.03367
721.31631	0.03382
720.03054	0.03392
718.74477	0.03396
717.45901	0.03394
716.17324	0.03387
714.88747	0.03375
713.60170	0.03357
712.31593	0.03340
711.03016	0.03328
709.74439	0.03324
708.45862	0.03326
707.17285	0.03327
705.88709	0.03323
704.60132	0.03313
703.31555	0.03300
702.02978	0.03288
700.74401	0.03281
699.45824	0.03278
698.17247	0.03278
696.88670	0.03282
695.60094	0.03289
694.31517	0.03299
693.02940	0.03305
691.74363	0.03304
690.45786	0.03297
689.17209	0.03290
687.88632	0.03290
686.60055	0.03295
685.31478	0.03296
684.02902	0.03286
682.74325	0.03266
681.45748	0.03247
680.17171	0.03240
678.88594	0.03246
677.60017	0.03259
676.31440	0.03265
675.02863	0.03261
673.74287	0.03252
672.45710	0.03248
671.17133	0.03259
669.88556	0.03282
668.59979	0.03311
667.31402	0.03340
666.02825	0.03355
664.74248	0.03354
663.45671	0.03337
662.17095	0.03313
660.88518	0.03290
659.59941	0.03276
658.31364	0.03272
657.02787	0.03275
655.74210	0.03283
654.45633	0.03293
653.17056	0.03305
651.88480	0.03322
650.59903	0.03346
649.31326	0.03375
648.02749	0.03407
646.74172	0.03438
645.45595	0.03468
644.17018	0.03500
642.88441	0.03535
641.59864	0.03570
640.31288	0.03605
639.02711	0.03645
637.74134	0.03697
636.45557	0.03759
635.16980	0.03825
633.88403	0.03886
632.59826	0.03936
631.31249	0.03984
630.02673	0.04067
628.74096	0.04166
627.45519	0.04150
626.16942	0.04268
624.88365	0.04512
623.59788	0.04820
622.31211	0.05155
621.02634	0.05446
619.74057	0.05637
618.45481	0.05771
617.16904	0.05949
615.88327	0.06206
614.59750	0.06486
613.31173	0.06730
612.02596	0.06984
610.74019	0.07389
609.45442	0.08030
608.16866	0.08840
606.88289	0.09691
605.59712	0.10490
604.31135	0.11171
603.02558	0.11653
601.73981	0.11875
600.45404	0.11846
599.16827	0.11625
597.88250	0.11277
596.59674	0.10859
595.31097	0.10427
594.02520	0.10037
592.73943	0.09730
591.45366	0.09518
590.16789	0.09389
588.88212	0.09328
587.59635	0.09330
586.31059	0.09402
585.02482	0.09548
583.73905	0.09758
582.45328	0.10022
581.16751	0.10332
579.88174	0.10691
578.59597	0.11092
577.31020	0.11516
576.02443	0.11937
574.73867	0.12336
573.45290	0.12713
572.16713	0.13085
570.88136	0.13473
569.59559	0.13899
568.30982	0.14375
567.02405	0.14889
565.73828	0.15403
564.45251	0.15863
563.16675	0.16212
561.88098	0.16391
560.59521	0.16345
559.30944	0.16043
558.02367	0.15507
556.73790	0.14804
555.45213	0.14013
554.16636	0.13191
552.88060	0.12371
551.59483	0.11572
550.30906	0.10814
549.02329	0.10117
547.73752	0.09495
546.45175	0.08950
545.16598	0.08474
543.88021	0.08057
542.59444	0.07687
541.30868	0.07354
540.02291	0.07051
538.73714	0.06772
537.45137	0.06518
536.16560	0.06290
534.87983	0.06080
533.59406	0.05880
532.30829	0.05683
531.02253	0.05489
529.73676	0.05305
528.45099	0.05143
527.16522	0.05007
525.87945	0.04895
524.59368	0.04795
523.30791	0.04693
522.02214	0.04582
520.73637	0.04464
519.45061	0.04345
518.16484	0.04234
516.87907	0.04130
515.59330	0.04035
514.30753	0.03944
513.02176	0.03859
511.73599	0.03781
510.45022	0.03715
509.16446	0.03663
507.87869	0.03622
506.59292	0.03579
505.30715	0.03527
504.02138	0.03465
502.73561	0.03400
501.44984	0.03341
500.16407	0.03294
498.87830	0.03259
497.59254	0.03234
496.30677	0.03211
495.02100	0.03181
493.73523	0.03143
492.44946	0.03102
491.16369	0.03069
489.87792	0.03048
488.59215	0.03039
487.30639	0.03036
486.02062	0.03034
484.73485	0.03027
483.44908	0.03013
482.16331	0.02999
480.87754	0.02993
479.59177	0.02999
478.30600	0.03016
477.02023	0.03041
475.73447	0.03071
474.44870	0.03102
473.16293	0.03129
471.87716	0.03145
470.59139	0.03147
469.30562	0.03138
468.01985	0.03120
466.73408	0.03097
465.44832	0.03072
464.16255	0.03043
462.87678	0.03013
461.59101	0.02982
460.30524	0.02948
459.01947	0.02912
457.73370	0.02874
456.44793	0.02838
455.16216	0.02805
453.87640	0.02772
452.59063	0.02734
451.30486	0.02691
450.01909	0.02649
448.73332	0.02615
447.44755	0.02592
446.16178	0.02574
444.87601	0.02557
443.59025	0.02541
442.30448	0.02530
441.01871	0.02526
439.73294	0.02524
438.44717	0.02519
437.16140	0.02510
435.87563	0.02499
434.58986	0.02490
433.30409	0.02482
432.01833	0.02476
430.73256	0.02471
429.44679	0.02470
428.16102	0.02472
426.87525	0.02474
425.58948	0.02475
424.30371	0.02472
423.01794	0.02466
421.73218	0.02455
420.44641	0.02440
419.16064	0.02424
417.87487	0.02408
416.58910	0.02391
415.30333	0.02374
414.01756	0.02361
412.73179	0.02355
411.44602	0.02358
410.16026	0.02366
408.87449	0.02374
407.58872	0.02380
406.30295	0.02387
405.01718	0.02396
403.73141	0.02406
402.44564	0.02414
401.15987	0.02421
399.87411	0.02430
