3997.45528	0.02314
3996.16951	0.02301
3994.88374	0.02282
3993.59798	0.02270
3992.31221	0.02268
3991.02644	0.02260
3989.74067	0.02230
3988.45490	0.02197
3987.16913	0.02195
3985.88336	0.02234
3984.59759	0.02291
3983.31183	0.02322
3982.02606	0.02296
3980.74029	0.02216
3979.45452	0.02120
3978.16875	0.02046
3976.88298	0.02005
3975.59721	0.01997
3974.31144	0.02028
3973.02567	0.02098
3971.73991	0.02172
3970.45414	0.02204
3969.16837	0.02192
3967.88260	0.02177
3966.59683	0.02192
3965.31106	0.02229
3964.02529	0.02253
3962.73952	0.02238
3961.45376	0.02185
3960.16799	0.02120
3958.88222	0.02072
3957.59645	0.02048
3956.31068	0.02047
3955.02491	0.02075
3953.73914	0.02130
3952.45337	0.02180
3951.16760	0.02180
3949.88184	0.02130
3948.59607	0.02076
3947.31030	0.02060
3946.02453	0.02080
3944.73876	0.02109
3943.45299	0.02127
3942.16722	0.02129
3940.88145	0.02123
3939.59569	0.02125
3938.30992	0.02149
3937.02415	0.02188
3935.73838	0.02219
3934.45261	0.02225
3933.16684	0.02213
3931.88107	0.02204
3930.59530	0.02207
3929.30953	0.02216
3928.02377	0.02223
3926.73800	0.02223
3925.45223	0.02206
3924.16646	0.02149
3922.88069	0.02055
3921.59492	0.01973
3920.30915	0.01957
3919.02338	0.02017
3917.73762	0.02107
3916.45185	0.02164
3915.16608	0.02170
3913.88031	0.02150
3912.59454	0.02126
3911.30877	0.02092
3910.02300	0.02035
3908.73723	0.01971
3907.45146	0.01939
3906.16570	0.01964
3904.87993	0.02021
3903.59416	0.02048
3902.30839	0.02010
3901.02262	0.01931
3899.73685	0.01865
3898.45108	0.01844
3897.16531	0.01858
3895.87955	0.01872
3894.59378	0.01872
3893.30801	0.01886
3892.02224	0.01934
3890.73647	0.01984
3889.45070	0.02005
3888.16493	0.02007
3886.87916	0.02001
3885.59339	0.01967
3884.30763	0.01905
3883.02186	0.01861
3881.73609	0.01871
3880.45032	0.01916
3879.16455	0.01966
3877.87878	0.02021
3876.59301	0.02075
3875.30724	0.02091
3874.02148	0.02039
3872.73571	0.01965
3871.44994	0.01942
3870.16417	0.01976
3868.87840	0.02019
3867.59263	0.02054
3866.30686	0.02081
3865.02109	0.02072
3863.73532	0.02016
3862.44956	0.01951
3861.16379	0.01911
3859.87802	0.01885
3858.59225	0.01851
3857.30648	0.01832
3856.02071	0.01872
3854.73494	0.01960
3853.44917	0.02019
3852.16341	0.02018
3850.87764	0.02009
3849.59187	0.02031
3848.30610	0.02051
3847.02033	0.02025
3845.73456	0.01950
3844.44879	0.01863
3843.16302	0.01803
3841.87725	0.01787
3840.59149	0.01812
3839.30572	0.01844
3838.01995	0.01838
3836.73418	0.01786
3835.44841	0.01741
3834.16264	0.01747
3832.87687	0.01780
3831.59110	0.01797
3830.30534	0.01800
3829.01957	0.01822
3827.73380	0.01861
3826.44803	0.01881
3825.16226	0.01873
3823.87649	0.01870
3822.59072	0.01871
3821.30495	0.01833
3820.01918	0.01770
3818.73342	0.01781
3817.44765	0.01911
3816.16188	0.02058
3814.87611	0.02103
3813.59034	0.02061
3812.30457	0.02004
3811.01880	0.01955
3809.73303	0.01905
3808.44726	0.01857
3807.16150	0.01810
3805.87573	0.01783
3804.58996	0.01834
3803.30419	0.01978
3802.01842	0.02119
3800.73265	0.02142
3799.44688	0.02054
3798.16111	0.01950
3796.87535	0.01877
3795.58958	0.01825
3794.30381	0.01789
3793.01804	0.01778
3791.73227	0.01791
3790.44650	0.01816
3789.16073	0.01846
3787.87496	0.01872
3786.58919	0.01887
3785.30343	0.01890
3784.01766	0.01878
3782.73189	0.01852
3781.44612	0.01820
3780.16035	0.01796
3778.87458	0.01790
3777.58881	0.01809
3776.30304	0.01843
3775.01728	0.01867
3773.73151	0.01871
3772.44574	0.01881
3771.15997	0.01927
3769.87420	0.01987
3768.58843	0.02020
3767.30266	0.02008
3766.01689	0.01953
3764.73112	0.01882
3763.44536	0.01840
3762.15959	0.01867
3760.87382	0.01941
3759.58805	0.01994
3758.30228	0.01972
3757.01651	0.01884
3755.73074	0.01783
3754.44497	0.01726
3753.15921	0.01723
3751.87344	0.01746
3750.58767	0.01771
3749.30190	0.01791
3748.01613	0.01828
3746.73036	0.01924
3745.44459	0.02043
3744.15882	0.02062
3742.87305	0.01959
3741.58729	0.01860
3740.30152	0.01862
3739.01575	0.01942
3737.72998	0.02024
3736.44421	0.02045
3735.15844	0.01990
3733.87267	0.01908
3732.58690	0.01857
3731.30114	0.01842
3730.01537	0.01842
3728.72960	0.01849
3727.44383	0.01850
3726.15806	0.01836
3724.87229	0.01823
3723.58652	0.01834
3722.30075	0.01872
3721.01498	0.01929
3719.72922	0.01990
3718.44345	0.02040
3717.15768	0.02055
3715.87191	0.02029
3714.58614	0.01984
3713.30037	0.01951
3712.01460	0.01941
3710.72883	0.01944
3709.44307	0.01939
3708.15730	0.01926
3706.87153	0.01919
3705.58576	0.01943
3704.29999	0.02007
3703.01422	0.02079
3701.72845	0.02113
3700.44268	0.02095
3699.15691	0.02055
3697.87115	0.02038
3696.58538	0.02049
3695.29961	0.02057
3694.01384	0.02035
3692.72807	0.01994
3691.44230	0.01966
3690.15653	0.01963
3688.87076	0.01959
3687.58500	0.01935
3686.29923	0.01936
3685.01346	0.02016
3683.72769	0.02149
3682.44192	0.02249
3681.15615	0.02254
3679.87038	0.02156
3678.58461	0.02006
3677.29884	0.01884
3676.01308	0.01815
3674.72731	0.01772
3673.44154	0.01755
3672.15577	0.01791
3670.87000	0.01852
3669.58423	0.01879
3668.29846	0.01870
3667.01269	0.01855
3665.72693	0.01839
3664.44116	0.01816
3663.15539	0.01792
3661.86962	0.01787
3660.58385	0.01813
3659.29808	0.01871
3658.01231	0.01941
3656.72654	0.01979
3655.44077	0.01954
3654.15501	0.01897
3652.86924	0.01870
3651.58347	0.01896
3650.29770	0.01946
3649.01193	0.01987
3647.72616	0.02011
3646.44039	0.02028
3645.15462	0.02052
3643.86886	0.02085
3642.58309	0.02105
3641.29732	0.02094
3640.01155	0.02056
3638.72578	0.02015
3637.44001	0.01988
3636.15424	0.01980
3634.86847	0.01983
3633.58270	0.02002
3632.29694	0.02069
3631.01117	0.02191
3629.72540	0.02300
3628.43963	0.02296
3627.15386	0.02182
3625.86809	0.02059
3624.58232	0.02003
3623.29655	0.02010
3622.01079	0.02064
3620.72502	0.02162
3619.43925	0.02285
3618.15348	0.02389
3616.86771	0.02445
3615.58194	0.02460
3614.29617	0.02445
3613.01040	0.02403
3611.72463	0.02350
3610.43887	0.02322
3609.15310	0.02335
3607.86733	0.02362
3606.58156	0.02370
3605.29579	0.02359
3604.01002	0.02350
3602.72425	0.02360
3601.43848	0.02396
3600.15272	0.02442
3598.86695	0.02476
3597.58118	0.02490
3596.29541	0.02500
3595.00964	0.02523
3593.72387	0.02573
3592.43810	0.02645
3591.15233	0.02706
3589.86656	0.02724
3588.58080	0.02691
3587.29503	0.02625
3586.00926	0.02560
3584.72349	0.02521
3583.43772	0.02506
3582.15195	0.02507
3580.86618	0.02512
3579.58041	0.02512
3578.29464	0.02509
3577.00888	0.02531
3575.72311	0.02600
3574.43734	0.02696
3573.15157	0.02760
3571.86580	0.02760
3570.58003	0.02720
3569.29426	0.02692
3568.00849	0.02691
3566.72273	0.02692
3565.43696	0.02678
3564.15119	0.02660
3562.86542	0.02653
3561.57965	0.02660
3560.29388	0.02671
3559.00811	0.02677
3557.72234	0.02679
3556.43657	0.02687
3555.15081	0.02714
3553.86504	0.02771
3552.57927	0.02847
3551.29350	0.02917
3550.00773	0.02962
3548.72196	0.02981
3547.43619	0.02986
3546.15042	0.02984
3544.86466	0.02985
3543.57889	0.02998
3542.29312	0.03025
3541.00735	0.03053
3539.72158	0.03067
3538.43581	0.03068
3537.15004	0.03064
3535.86427	0.03058
3534.57850	0.03043
3533.29274	0.03020
3532.00697	0.03001
3530.72120	0.02999
3529.43543	0.03014
3528.14966	0.03038
3526.86389	0.03060
3525.57812	0.03088
3524.29235	0.03132
3523.00659	0.03185
3521.72082	0.03224
3520.43505	0.03223
3519.14928	0.03189
3517.86351	0.03152
3516.57774	0.03139
3515.29197	0.03155
3514.00620	0.03187
3512.72043	0.03219
3511.43467	0.03232
3510.14890	0.03207
3508.86313	0.03144
3507.57736	0.03075
3506.29159	0.03042
3505.00582	0.03059
3503.72005	0.03105
3502.43428	0.03161
3501.14852	0.03226
3499.86275	0.03298
3498.57698	0.03357
3497.29121	0.03381
3496.00544	0.03375
3494.71967	0.03359
3493.43390	0.03346
3492.14813	0.03333
3490.86236	0.03313
3489.57660	0.03292
3488.29083	0.03281
3487.00506	0.03272
3485.71929	0.03248
3484.43352	0.03200
3483.14775	0.03156
3481.86198	0.03151
3480.57621	0.03195
3479.29045	0.03253
3478.00468	0.03287
3476.71891	0.03291
3475.43314	0.03286
3474.14737	0.03297
3472.86160	0.03329
3471.57583	0.03370
3470.29006	0.03406
3469.00429	0.03425
3467.71853	0.03418
3466.43276	0.03375
3465.14699	0.03309
3463.86122	0.03259
3462.57545	0.03265
3461.28968	0.03337
3460.00391	0.03440
3458.71814	0.03521
3457.43238	0.03550
3456.14661	0.03527
3454.86084	0.03473
3453.57507	0.03411
3452.28930	0.03359
3451.00353	0.03334
3449.71776	0.03340
3448.43199	0.03370
3447.14622	0.03409
3445.86046	0.03448
3444.57469	0.03485
3443.28892	0.03513
3442.00315	0.03521
3440.71738	0.03514
3439.43161	0.03512
3438.14584	0.03530
3436.86007	0.03563
3435.57431	0.03594
3434.28854	0.03606
3433.00277	0.03599
3431.71700	0.03588
3430.43123	0.03582
3429.14546	0.03580
3427.85969	0.03579
3426.57392	0.03584
3425.28815	0.03602
3424.00239	0.03628
3422.71662	0.03644
3421.43085	0.03644
3420.14508	0.03639
3418.85931	0.03645
3417.57354	0.03662
3416.28777	0.03670
3415.00200	0.03653
3413.71624	0.03620
3412.43047	0.03595
3411.14470	0.03592
3409.85893	0.03602
3408.57316	0.03615
3407.28739	0.03634
3406.00162	0.03667
3404.71585	0.03709
3403.43008	0.03751
3402.14432	0.03791
3400.85855	0.03830
3399.57278	0.03855
3398.28701	0.03843
3397.00124	0.03796
3395.71547	0.03743
3394.42970	0.03708
3393.14393	0.03693
3391.85817	0.03683
3390.57240	0.03676
3389.28663	0.03680
3388.00086	0.03691
3386.71509	0.03698
3385.42932	0.03707
3384.14355	0.03731
3382.85778	0.03769
3381.57201	0.03797
3380.28625	0.03788
3379.00048	0.03738
3377.71471	0.03666
3376.42894	0.03598
3375.14317	0.03556
3373.85740	0.03558
3372.57163	0.03608
3371.28586	0.03686
3370.00010	0.03754
3368.71433	0.03779
3367.42856	0.03760
3366.14279	0.03720
3364.85702	0.03689
3363.57125	0.03680
3362.28548	0.03682
3360.99971	0.03684
3359.71394	0.03689
3358.42818	0.03702
3357.14241	0.03719
3355.85664	0.03724
3354.57087	0.03706
3353.28510	0.03667
3351.99933	0.03628
3350.71356	0.03617
3349.42779	0.03645
3348.14202	0.03699
3346.85626	0.03747
3345.57049	0.03763
3344.28472	0.03744
3342.99895	0.03702
3341.71318	0.03652
3340.42741	0.03602
3339.14164	0.03552
3337.85587	0.03514
3336.57011	0.03506
3335.28434	0.03536
3333.99857	0.03590
3332.71280	0.03642
3331.42703	0.03679
3330.14126	0.03698
3328.85549	0.03702
3327.56972	0.03693
3326.28395	0.03676
3324.99819	0.03655
3323.71242	0.03630
3322.42665	0.03600
3321.14088	0.03577
3319.85511	0.03569
3318.56934	0.03574
3317.28357	0.03579
3315.99780	0.03575
3314.71204	0.03566
3313.42627	0.03553
3312.14050	0.03536
3310.85473	0.03517
3309.56896	0.03504
3308.28319	0.03508
3306.99742	0.03533
3305.71165	0.03572
3304.42588	0.03614
3303.14012	0.03646
3301.85435	0.03661
3300.56858	0.03662
3299.28281	0.03653
3297.99704	0.03640
3296.71127	0.03628
3295.42550	0.03615
3294.13973	0.03594
3292.85397	0.03558
3291.56820	0.03511
3290.28243	0.03470
3288.99666	0.03452
3287.71089	0.03451
3286.42512	0.03448
3285.13935	0.03431
3283.85358	0.03409
3282.56781	0.03399
3281.28205	0.03405
3279.99628	0.03415
3278.71051	0.03423
3277.42474	0.03431
3276.13897	0.03448
3274.85320	0.03479
3273.56743	0.03520
3272.28166	0.03562
3270.99590	0.03591
3269.71013	0.03599
3268.42436	0.03583
3267.13859	0.03555
3265.85282	0.03536
3264.56705	0.03535
3263.28128	0.03547
3261.99551	0.03549
3260.70974	0.03527
3259.42398	0.03484
3258.13821	0.03439
3256.85244	0.03407
3255.56667	0.03395
3254.28090	0.03395
3252.99513	0.03401
3251.70936	0.03410
3250.42359	0.03426
3249.13783	0.03456
3247.85206	0.03501
3246.56629	0.03546
3245.28052	0.03563
3243.99475	0.03538
3242.70898	0.03482
3241.42321	0.03421
3240.13744	0.03373
3238.85167	0.03340
3237.56591	0.03320
3236.28014	0.03318
3234.99437	0.03346
3233.70860	0.03407
3232.42283	0.03477
3231.13706	0.03519
3229.85129	0.03508
3228.56552	0.03463
3227.27976	0.03429
3225.99399	0.03434
3224.70822	0.03458
3223.42245	0.03464
3222.13668	0.03438
3220.85091	0.03399
3219.56514	0.03368
3218.27937	0.03345
3216.99360	0.03319
3215.70784	0.03285
3214.42207	0.03250
3213.13630	0.03224
3211.85053	0.03212
3210.56476	0.03213
3209.27899	0.03219
3207.99322	0.03220
3206.70745	0.03223
3205.42169	0.03240
3204.13592	0.03277
3202.85015	0.03315
3201.56438	0.03329
3200.27861	0.03305
3198.99284	0.03250
3197.70707	0.03192
3196.42130	0.03160
3195.13553	0.03164
3193.84977	0.03191
3192.56400	0.03215
3191.27823	0.03216
3189.99246	0.03192
3188.70669	0.03157
3187.42092	0.03133
3186.13515	0.03135
3184.84938	0.03167
3183.56362	0.03215
3182.27785	0.03254
3180.99208	0.03264
3179.70631	0.03237
3178.42054	0.03190
3177.13477	0.03150
3175.84900	0.03136
3174.56323	0.03139
3173.27746	0.03139
3171.99170	0.03119
3170.70593	0.03080
3169.42016	0.03032
3168.13439	0.02991
3166.84862	0.02971
3165.56285	0.02967
3164.27708	0.02964
3162.99131	0.02951
3161.70555	0.02942
3160.41978	0.02954
3159.13401	0.02987
3157.84824	0.03023
3156.56247	0.03042
3155.27670	0.03034
3153.99093	0.03004
3152.70516	0.02966
3151.41939	0.02944
3150.13363	0.02956
3148.84786	0.02998
3147.56209	0.03054
3146.27632	0.03106
3144.99055	0.03145
3143.70478	0.03163
3142.41901	0.03152
3141.13324	0.03110
3139.84748	0.03049
3138.56171	0.02987
3137.27594	0.02942
3135.99017	0.02931
3134.70440	0.02958
3133.41863	0.03010
3132.13286	0.03057
3130.84709	0.03071
3129.56132	0.03051
3128.27556	0.03012
3126.98979	0.02976
3125.70402	0.02952
3124.41825	0.02942
3123.13248	0.02940
3121.84671	0.02931
3120.56094	0.02906
3119.27517	0.02870
3117.98940	0.02845
3116.70364	0.02844
3115.41787	0.02860
3114.13210	0.02877
3112.84633	0.02883
3111.56056	0.02881
3110.27479	0.02879
3108.98902	0.02876
3107.70325	0.02874
3106.41749	0.02872
3105.13172	0.02875
3103.84595	0.02885
3102.56018	0.02904
3101.27441	0.02927
3099.98864	0.02942
3098.70287	0.02940
3097.41710	0.02919
3096.13133	0.02883
3094.84557	0.02835
3093.55980	0.02784
3092.27403	0.02741
3090.98826	0.02713
3089.70249	0.02701
3088.41672	0.02701
3087.13095	0.02716
3085.84518	0.02742
3084.55942	0.02768
3083.27365	0.02781
3081.98788	0.02779
3080.70211	0.02773
3079.41634	0.02770
3078.13057	0.02767
3076.84480	0.02750
3075.55903	0.02708
3074.27326	0.02645
3072.98750	0.02585
3071.70173	0.02550
3070.41596	0.02549
3069.13019	0.02574
3067.84442	0.02608
3066.55865	0.02642
3065.27288	0.02676
3063.98711	0.02712
3062.70135	0.02739
3061.41558	0.02744
3060.12981	0.02728
3058.84404	0.02703
3057.55827	0.02684
3056.27250	0.02674
3054.98673	0.02675
3053.70096	0.02685
3052.41519	0.02699
3051.12943	0.02700
3049.84366	0.02678
3048.55789	0.02638
3047.27212	0.02591
3045.98635	0.02547
3044.70058	0.02517
3043.41481	0.02513
3042.12904	0.02530
3040.84328	0.02547
3039.55751	0.02544
3038.27174	0.02519
3036.98597	0.02487
3035.70020	0.02466
3034.41443	0.02468
3033.12866	0.02491
3031.84289	0.02523
3030.55712	0.02536
3029.27136	0.02516
3027.98559	0.02478
3026.69982	0.02457
3025.41405	0.02468
3024.12828	0.02497
3022.84251	0.02517
3021.55674	0.02512
3020.27097	0.02485
3018.98521	0.02451
3017.69944	0.02421
3016.41367	0.02395
3015.12790	0.02373
3013.84213	0.02353
3012.55636	0.02339
3011.27059	0.02338
3009.98482	0.02349
3008.69905	0.02362
3007.41329	0.02369
3006.12752	0.02367
3004.84175	0.02362
3003.55598	0.02353
3002.27021	0.02332
3000.98444	0.02301
2999.69867	0.02268
2998.41290	0.02239
2997.12714	0.02213
2995.84137	0.02200
2994.55560	0.02224
2993.26983	0.02291
2991.98406	0.02374
2990.69829	0.02434
2989.41252	0.02455
2988.12675	0.02448
2986.84098	0.02426
2985.55522	0.02394
2984.26945	0.02348
2982.98368	0.02294
2981.69791	0.02247
2980.41214	0.02217
2979.12637	0.02205
2977.84060	0.02202
2976.55483	0.02207
2975.26907	0.02226
2973.98330	0.02261
2972.69753	0.02300
2971.41176	0.02316
2970.12599	0.02297
2968.84022	0.02257
2967.55445	0.02223
2966.26868	0.02215
2964.98291	0.02233
2963.69715	0.02263
2962.41138	0.02291
2961.12561	0.02305
2959.83984	0.02306
2958.55407	0.02316
2957.26830	0.02352
2955.98253	0.02410
2954.69676	0.02462
2953.41100	0.02482
2952.12523	0.02467
2950.83946	0.02436
2949.55369	0.02405
2948.26792	0.02380
2946.98215	0.02350
2945.69638	0.02309
2944.41061	0.02263
2943.12484	0.02226
2941.83908	0.02213
2940.55331	0.02224
2939.26754	0.02256
2937.98177	0.02304
2936.69600	0.02353
2935.41023	0.02389
2934.12446	0.02404
2932.83869	0.02401
2931.55293	0.02383
2930.26716	0.02351
2928.98139	0.02314
2927.69562	0.02290
2926.40985	0.02288
2925.12408	0.02299
2923.83831	0.02317
2922.55254	0.02340
2921.26677	0.02359
2919.98101	0.02354
2918.69524	0.02315
2917.40947	0.02263
2916.12370	0.02232
2914.83793	0.02233
2913.55216	0.02242
2912.26639	0.02240
2910.98062	0.02229
2909.69486	0.02224
2908.40909	0.02226
2907.12332	0.02223
2905.83755	0.02217
2904.55178	0.02219
2903.26601	0.02234
2901.98024	0.02247
2900.69447	0.02245
2899.40870	0.02229
2898.12294	0.02210
2896.83717	0.02197
2895.55140	0.02190
2894.26563	0.02183
2892.97986	0.02176
2891.69409	0.02171
2890.40832	0.02168
2889.12255	0.02163
2887.83678	0.02151
2886.55102	0.02133
2885.26525	0.02117
2883.97948	0.02112
2882.69371	0.02117
2881.40794	0.02122
2880.12217	0.02121
2878.83640	0.02113
2877.55063	0.02110
2876.26487	0.02119
2874.97910	0.02132
2873.69333	0.02137
2872.40756	0.02126
2871.12179	0.02106
2869.83602	0.02089
2868.55025	0.02079
2867.26448	0.02072
2865.97871	0.02065
2864.69295	0.02058
2863.40718	0.02056
2862.12141	0.02056
2860.83564	0.02051
2859.54987	0.02035
2858.26410	0.02011
2856.97833	0.01994
2855.69256	0.01992
2854.40680	0.02004
2853.12103	0.02018
2851.83526	0.02028
2850.54949	0.02029
2849.26372	0.02013
2847.97795	0.01982
2846.69218	0.01947
2845.40641	0.01927
2844.12064	0.01926
2842.83488	0.01934
2841.54911	0.01933
2840.26334	0.01917
2838.97757	0.01899
2837.69180	0.01889
2836.40603	0.01882
2835.12026	0.01867
2833.83449	0.01843
2832.54873	0.01820
2831.26296	0.01810
2829.97719	0.01816
2828.69142	0.01834
2827.40565	0.01855
2826.11988	0.01867
2824.83411	0.01861
2823.54834	0.01842
2822.26257	0.01824
2820.97681	0.01815
2819.69104	0.01805
2818.40527	0.01786
2817.11950	0.01759
2815.83373	0.01731
2814.54796	0.01706
2813.26219	0.01688
2811.97642	0.01690
2810.69066	0.01716
2809.40489	0.01752
2808.11912	0.01772
2806.83335	0.01769
2805.54758	0.01748
2804.26181	0.01724
2802.97604	0.01705
2801.69027	0.01700
2800.40450	0.01710
2799.11874	0.01727
2797.83297	0.01737
2796.54720	0.01736
2795.26143	0.01729
2793.97566	0.01721
2792.68989	0.01710
2791.40412	0.01694
2790.11835	0.01676
2788.83259	0.01665
2787.54682	0.01661
2786.26105	0.01658
2784.97528	0.01650
2783.68951	0.01640
2782.40374	0.01635
2781.11797	0.01641
2779.83220	0.01657
2778.54643	0.01679
2777.26067	0.01707
2775.97490	0.01737
2774.68913	0.01763
2773.40336	0.01778
2772.11759	0.01775
2770.83182	0.01757
2769.54605	0.01732
2768.26028	0.01708
2766.97452	0.01688
2765.68875	0.01672
2764.40298	0.01659
2763.11721	0.01646
2761.83144	0.01636
2760.54567	0.01627
2759.25990	0.01616
2757.97413	0.01607
2756.68836	0.01601
2755.40260	0.01600
2754.11683	0.01597
2752.83106	0.01590
2751.54529	0.01583
2750.25952	0.01581
2748.97375	0.01586
2747.68798	0.01599
2746.40221	0.01615
2745.11645	0.01631
2743.83068	0.01646
2742.54491	0.01661
2741.25914	0.01676
2739.97337	0.01683
2738.68760	0.01677
2737.40183	0.01665
2736.11606	0.01656
2734.83029	0.01654
2733.54453	0.01648
2732.25876	0.01629
2730.97299	0.01600
2729.68722	0.01571
2728.40145	0.01548
2727.11568	0.01531
2725.82991	0.01520
2724.54414	0.01513
2723.25838	0.01513
2721.97261	0.01523
2720.68684	0.01545
2719.40107	0.01569
2718.11530	0.01585
2716.82953	0.01592
2715.54376	0.01597
2714.25799	0.01603
2712.97222	0.01606
2711.68646	0.01598
2710.40069	0.01581
2709.11492	0.01560
2707.82915	0.01546
2706.54338	0.01541
2705.25761	0.01542
2703.97184	0.01544
2702.68607	0.01543
2701.40031	0.01539
2700.11454	0.01531
2698.82877	0.01518
2697.54300	0.01504
2696.25723	0.01498
2694.97146	0.01510
2693.68569	0.01531
2692.39992	0.01546
2691.11415	0.01542
2689.82839	0.01525
2688.54262	0.01508
2687.25685	0.01500
2685.97108	0.01501
2684.68531	0.01505
2683.39954	0.01508
2682.11377	0.01508
2680.82800	0.01506
2679.54224	0.01504
2678.25647	0.01498
2676.97070	0.01485
2675.68493	0.01468
2674.39916	0.01453
2673.11339	0.01448
2671.82762	0.01455
2670.54185	0.01472
2669.25608	0.01490
2667.97032	0.01501
2666.68455	0.01503
2665.39878	0.01500
2664.11301	0.01500
2662.82724	0.01506
2661.54147	0.01515
2660.25570	0.01521
2658.96993	0.01519
2657.68417	0.01505
2656.39840	0.01488
2655.11263	0.01479
2653.82686	0.01488
2652.54109	0.01511
2651.25532	0.01532
2649.96955	0.01538
2648.68378	0.01526
2647.39801	0.01505
2646.11225	0.01487
2644.82648	0.01477
2643.54071	0.01474
2642.25494	0.01470
2640.96917	0.01461
2639.68340	0.01449
2638.39763	0.01436
2637.11186	0.01423
2635.82609	0.01407
2634.54033	0.01396
2633.25456	0.01395
2631.96879	0.01403
2630.68302	0.01410
2629.39725	0.01404
2628.11148	0.01389
2626.82571	0.01374
2625.53994	0.01364
2624.25418	0.01350
2622.96841	0.01325
2621.68264	0.01299
2620.39687	0.01294
2619.11110	0.01313
2617.82533	0.01334
2616.53956	0.01335
2615.25379	0.01320
2613.96802	0.01304
2612.68226	0.01286
2611.39649	0.01261
2610.11072	0.01235
2608.82495	0.01229
2607.53918	0.01251
2606.25341	0.01284
2604.96764	0.01310
2603.68187	0.01318
2602.39611	0.01312
2601.11034	0.01292
2599.82457	0.01262
2598.53880	0.01238
2597.25303	0.01232
2595.96726	0.01240
2594.68149	0.01243
2593.39572	0.01233
2592.10995	0.01217
2590.82419	0.01214
2589.53842	0.01233
2588.25265	0.01263
2586.96688	0.01283
2585.68111	0.01283
2584.39534	0.01284
2583.10957	0.01312
2581.82380	0.01361
2580.53804	0.01388
2579.25227	0.01356
2577.96650	0.01268
2576.68073	0.01174
2575.39496	0.01120
2574.10919	0.01108
2572.82342	0.01109
2571.53765	0.01091
2570.25188	0.01063
2568.96612	0.01055
2567.68035	0.01087
2566.39458	0.01148
2565.10881	0.01206
2563.82304	0.01233
2562.53727	0.01226
2561.25150	0.01198
2559.96573	0.01168
2558.67997	0.01143
2557.39420	0.01127
2556.10843	0.01121
2554.82266	0.01124
2553.53689	0.01134
2552.25112	0.01144
2550.96535	0.01145
2549.67958	0.01134
2548.39381	0.01124
2547.10805	0.01126
2545.82228	0.01141
2544.53651	0.01157
2543.25074	0.01166
2541.96497	0.01174
2540.67920	0.01182
2539.39343	0.01183
2538.10766	0.01171
2536.82190	0.01150
2535.53613	0.01128
2534.25036	0.01112
2532.96459	0.01098
2531.67882	0.01085
2530.39305	0.01073
2529.10728	0.01068
2527.82151	0.01071
2526.53574	0.01080
2525.24998	0.01090
2523.96421	0.01102
2522.67844	0.01119
2521.39267	0.01141
2520.10690	0.01161
2518.82113	0.01166
2517.53536	0.01150
2516.24959	0.01118
2514.96383	0.01081
2513.67806	0.01050
2512.39229	0.01027
2511.10652	0.01013
2509.82075	0.01013
2508.53498	0.01029
2507.24921	0.01058
2505.96344	0.01087
2504.67767	0.01113
2503.39191	0.01136
2502.10614	0.01151
2500.82037	0.01148
2499.53460	0.01126
2498.24883	0.01098
2496.96306	0.01080
2495.67729	0.01080
2494.39152	0.01099
2493.10576	0.01127
2491.81999	0.01145
2490.53422	0.01134
2489.24845	0.01099
2487.96268	0.01065
2486.67691	0.01055
2485.39114	0.01069
2484.10537	0.01086
2482.81960	0.01088
2481.53384	0.01076
2480.24807	0.01064
2478.96230	0.01053
2477.67653	0.01030
2476.39076	0.00996
2475.10499	0.00976
2473.81922	0.00994
2472.53345	0.01041
2471.24769	0.01081
2469.96192	0.01086
2468.67615	0.01053
2467.39038	0.01010
2466.10461	0.00987
2464.81884	0.00995
2463.53307	0.01026
2462.24730	0.01062
2460.96153	0.01086
2459.67577	0.01094
2458.39000	0.01096
2457.10423	0.01109
2455.81846	0.01135
2454.53269	0.01158
2453.24692	0.01161
2451.96115	0.01143
2450.67538	0.01113
2449.38962	0.01084
2448.10385	0.01074
2446.81808	0.01089
2445.53231	0.01117
2444.24654	0.01136
2442.96077	0.01132
2441.67500	0.01111
2440.38923	0.01086
2439.10346	0.01070
2437.81770	0.01063
2436.53193	0.01055
2435.24616	0.01036
2433.96039	0.01004
2432.67462	0.00971
2431.38885	0.00949
2430.10308	0.00944
2428.81731	0.00956
2427.53155	0.00975
2426.24578	0.00985
2424.96001	0.00976
2423.67424	0.00956
2422.38847	0.00949
2421.10270	0.00966
2419.81693	0.00989
2418.53116	0.00989
2417.24539	0.00963
2415.95963	0.00936
2414.67386	0.00924
2413.38809	0.00923
2412.10232	0.00924
2410.81655	0.00932
2409.53078	0.00953
2408.24501	0.00979
2406.95924	0.01003
2405.67347	0.01018
2404.38771	0.01018
2403.10194	0.00999
2401.81617	0.00963
2400.53040	0.00915
2399.24463	0.00755
2397.95886	0.00661
2396.67309	0.00680
2395.38732	0.00770
2394.10156	0.00884
2392.81579	0.00992
2391.53002	0.01075
2390.24425	0.01132
2388.95848	0.01180
2387.67271	0.01234
2386.38694	0.01294
2385.10117	0.01344
2383.81540	0.01369
2382.52964	0.01365
2381.24387	0.01342
2379.95810	0.01312
2378.67233	0.01281
2377.38656	0.01255
2376.10079	0.01248
2374.81502	0.01276
2373.52925	0.01336
2372.24349	0.01387
2370.95772	0.01395
2369.67195	0.01382
2368.38618	0.01417
2367.10041	0.01546
2365.81464	0.01742
2364.52887	0.01933
2363.24310	0.02067
2361.95733	0.02131
2360.67157	0.02128
2359.38580	0.02074
2358.10003	0.01998
2356.81426	0.01941
2355.52849	0.01925
2354.24272	0.01940
2352.95695	0.01976
2351.67118	0.02035
2350.38542	0.02096
2349.09965	0.02127
2347.81388	0.02087
2346.52811	0.01977
2345.24234	0.01863
2343.95657	0.01798
2342.67080	0.01782
2341.38503	0.01799
2340.09926	0.01841
2338.81350	0.01892
2337.52773	0.01935
2336.24196	0.01963
2334.95619	0.01958
2333.67042	0.01898
2332.38465	0.01803
2331.09888	0.01727
2329.81311	0.01719
2328.52735	0.01782
2327.24158	0.01857
2325.95581	0.01869
2324.67004	0.01777
2323.38427	0.01603
2322.09850	0.01425
2320.81273	0.01321
2319.52696	0.01315
2318.24119	0.01368
2316.95543	0.01416
2315.66966	0.01417
2314.38389	0.01370
2313.09812	0.01306
2311.81235	0.01253
2310.52658	0.01226
2309.24081	0.01224
2307.95504	0.01242
2306.66928	0.01269
2305.38351	0.01288
2304.09774	0.01275
2302.81197	0.01228
2301.52620	0.01177
2300.24043	0.01165
2298.95466	0.01209
2297.66889	0.01280
2296.38312	0.01331
2295.09736	0.01334
2293.81159	0.01298
2292.52582	0.01254
2291.24005	0.01225
2289.95428	0.01211
2288.66851	0.01195
2287.38274	0.01163
2286.09697	0.01115
2284.81121	0.01062
2283.52544	0.01017
2282.23967	0.00984
2280.95390	0.00961
2279.66813	0.00938
2278.38236	0.00909
2277.09659	0.00878
2275.81082	0.00857
2274.52505	0.00848
2273.23929	0.00848
2271.95352	0.00854
2270.66775	0.00873
2269.38198	0.00908
2268.09621	0.00949
2266.81044	0.00968
2265.52467	0.00948
2264.23890	0.00899
2262.95314	0.00854
2261.66737	0.00841
2260.38160	0.00859
2259.09583	0.00886
2257.81006	0.00905
2256.52429	0.00908
2255.23852	0.00894
2253.95275	0.00861
2252.66698	0.00811
2251.38122	0.00754
2250.09545	0.00687
2248.80968	0.00624
2247.52391	0.00671
2246.23814	0.00770
2244.95237	0.00884
2243.66660	0.00968
2242.38083	0.00997
2241.09507	0.00973
2239.80930	0.00908
2238.52353	0.00814
2237.23776	0.00712
2235.95199	0.00635
2234.66622	0.00604
2233.38045	0.00612
2232.09468	0.00634
2230.80891	0.00637
2229.52315	0.00613
2228.23738	0.00591
2226.95161	0.00615
2225.66584	0.00681
2224.38007	0.00728
2223.09430	0.00692
2221.80853	0.00589
2220.52276	0.00507
2219.23700	0.00528
2217.95123	0.00653
2216.66546	0.00808
2215.37969	0.00905
2214.09392	0.00905
2212.80815	0.00826
2211.52238	0.00722
2210.23661	0.00636
2208.95084	0.00586
2207.66508	0.00575
2206.37931	0.00595
2205.09354	0.00617
2203.80777	0.00607
2202.52200	0.00568
2201.23623	0.00543
2199.95046	0.00561
2198.66469	0.00605
2197.37893	0.00645
2196.09316	0.00670
2194.80739	0.00677
2193.52162	0.00652
2192.23585	0.00597
2190.95008	0.00536
2189.66431	0.00490
2188.37854	0.00451
2187.09277	0.00405
2185.80701	0.00355
2184.52124	0.00315
2183.23547	0.00278
2181.94970	0.00217
2180.66393	0.00131
2179.37816	0.00072
2178.09239	0.00101
2176.80662	0.00208
2175.52085	0.00314
2174.23509	0.00361
2172.94932	0.00362
2171.66355	0.00359
2170.37778	0.00367
2169.09201	0.00380
2167.80624	0.00401
2166.52047	0.00446
2165.23470	0.00507
2163.94894	0.00539
2162.66317	0.00498
2161.37740	0.00384
2160.09163	0.00236
2158.80586	0.00098
2157.52009	0.00004
2156.23432	-0.00035
2154.94855	-0.00043
2153.66278	-0.00053
2152.37702	-0.00073
2151.09125	-0.00088
2149.80548	-0.00095
2148.51971	-0.00105
2147.23394	-0.00108
2145.94817	-0.00064
2144.66240	0.00034
2143.37663	0.00144
2142.09087	0.00218
2140.80510	0.00251
2139.51933	0.00265
2138.23356	0.00261
2136.94779	0.00223
2135.66202	0.00159
2134.37625	0.00119
2133.09048	0.00138
2131.80471	0.00200
2130.51895	0.00259
2129.23318	0.00295
2127.94741	0.00318
2126.66164	0.00338
2125.37587	0.00350
2124.09010	0.00347
2122.80433	0.00342
2121.51856	0.00353
2120.23280	0.00374
2118.94703	0.00381
2117.66126	0.00359
2116.37549	0.00328
2115.08972	0.00318
2113.80395	0.00340
2112.51818	0.00375
2111.23241	0.00403
2109.94664	0.00415
2108.66088	0.00406
2107.37511	0.00387
2106.08934	0.00377
2104.80357	0.00383
2103.51780	0.00393
2102.23203	0.00392
2100.94626	0.00388
2099.66049	0.00386
2098.37473	0.00384
2097.08896	0.00356
2095.80319	0.00294
2094.51742	0.00230
2093.23165	0.00206
2091.94588	0.00233
2090.66011	0.00283
2089.37434	0.00318
2088.08857	0.00324
2086.80281	0.00311
2085.51704	0.00295
2084.23127	0.00281
2082.94550	0.00268
2081.65973	0.00263
2080.37396	0.00273
2079.08819	0.00294
2077.80242	0.00301
2076.51666	0.00274
2075.23089	0.00219
2073.94512	0.00162
2072.65935	0.00129
2071.37358	0.00128
2070.08781	0.00145
2068.80204	0.00151
2067.51627	0.00125
2066.23050	0.00074
2064.94474	0.00025
2063.65897	0.00004
2062.37320	0.00011
2061.08743	0.00031
2059.80166	0.00041
2058.51589	0.00016
2057.23012	-0.00054
2055.94435	-0.00135
2054.65859	-0.00168
2053.37282	-0.00122
2052.08705	-0.00021
2050.80128	0.00067
2049.51551	0.00088
2048.22974	0.00036
2046.94397	-0.00056
2045.65820	-0.00152
2044.37243	-0.00232
2043.08667	-0.00291
2041.80090	-0.00323
2040.51513	-0.00330
2039.22936	-0.00323
2037.94359	-0.00320
2036.65782	-0.00325
2035.37205	-0.00329
2034.08628	-0.00325
2032.80052	-0.00329
2031.51475	-0.00356
2030.22898	-0.00391
2028.94321	-0.00391
2027.65744	-0.00332
2026.37167	-0.00233
2025.08590	-0.00143
2023.80013	-0.00094
2022.51436	-0.00088
2021.22860	-0.00110
2019.94283	-0.00138
2018.65706	-0.00159
2017.37129	-0.00167
2016.08552	-0.00156
2014.79975	-0.00122
2013.51398	-0.00075
2012.22821	-0.00040
2010.94245	-0.00045
2009.65668	-0.00093
2008.37091	-0.00158
2007.08514	-0.00213
2005.79937	-0.00246
2004.51360	-0.00254
2003.22783	-0.00226
2001.94206	-0.00149
2000.65629	-0.00024
1999.37053	0.00114
1998.08476	0.00217
1996.79899	0.00253
1995.51322	0.00239
1994.22745	0.00229
1992.94168	0.00272
1991.65591	0.00364
1990.37014	0.00453
1989.08438	0.00494
1987.79861	0.00486
1986.51284	0.00467
1985.22707	0.00465
1983.94130	0.00467
1982.65553	0.00448
1981.36976	0.00401
1980.08399	0.00340
1978.79822	0.00275
1977.51246	0.00208
1976.22669	0.00150
1974.94092	0.00127
1973.65515	0.00147
1972.36938	0.00190
1971.08361	0.00224
1969.79784	0.00235
1968.51207	0.00221
1967.22631	0.00187
1965.94054	0.00141
1964.65477	0.00112
1963.36900	0.00130
1962.08323	0.00203
1960.79746	0.00291
1959.51169	0.00344
1958.22592	0.00348
1956.94015	0.00327
1955.65439	0.00318
1954.36862	0.00335
1953.08285	0.00364
1951.79708	0.00380
1950.51131	0.00375
1949.22554	0.00359
1947.93977	0.00350
1946.65400	0.00366
1945.36823	0.00417
1944.08247	0.00487
1942.79670	0.00540
1941.51093	0.00544
1940.22516	0.00503
1938.93939	0.00455
1937.65362	0.00425
1936.36785	0.00413
1935.08208	0.00412
1933.79632	0.00430
1932.51055	0.00474
1931.22478	0.00531
1929.93901	0.00573
1928.65324	0.00591
1927.36747	0.00596
1926.08170	0.00597
1924.79593	0.00587
1923.51016	0.00550
1922.22440	0.00493
1920.93863	0.00448
1919.65286	0.00443
1918.36709	0.00475
1917.08132	0.00510
1915.79555	0.00523
1914.50978	0.00512
1913.22401	0.00491
1911.93825	0.00476
1910.65248	0.00470
1909.36671	0.00468
1908.08094	0.00465
1906.79517	0.00464
1905.50940	0.00472
1904.22363	0.00491
1902.93786	0.00517
1901.65209	0.00541
1900.36633	0.00554
1899.08056	0.00555
1897.79479	0.00553
1896.50902	0.00550
1895.22325	0.00541
1893.93748	0.00520
1892.65171	0.00494
1891.36594	0.00479
1890.08018	0.00480
1888.79441	0.00488
1887.50864	0.00503
1886.22287	0.00525
1884.93710	0.00550
1883.65133	0.00562
1882.36556	0.00550
1881.07979	0.00523
1879.79402	0.00495
1878.50826	0.00479
1877.22249	0.00479
1875.93672	0.00493
1874.65095	0.00513
1873.36518	0.00527
1872.07941	0.00527
1870.79364	0.00518
1869.50787	0.00507
1868.22211	0.00498
1866.93634	0.00498
1865.65057	0.00516
1864.36480	0.00551
1863.07903	0.00588
1861.79326	0.00612
1860.50749	0.00617
1859.22172	0.00609
1857.93595	0.00598
1856.65019	0.00587
1855.36442	0.00580
1854.07865	0.00579
1852.79288	0.00582
1851.50711	0.00585
1850.22134	0.00580
1848.93557	0.00566
1847.64980	0.00552
1846.36404	0.00549
1845.07827	0.00556
1843.79250	0.00557
1842.50673	0.00550
1841.22096	0.00548
1839.93519	0.00558
1838.64942	0.00570
1837.36365	0.00575
1836.07788	0.00572
1834.79212	0.00563
1833.50635	0.00552
1832.22058	0.00546
1830.93481	0.00552
1829.64904	0.00560
1828.36327	0.00562
1827.07750	0.00560
1825.79173	0.00564
1824.50597	0.00574
1823.22020	0.00591
1821.93443	0.00606
1820.64866	0.00613
1819.36289	0.00607
1818.07712	0.00598
1816.79135	0.00593
1815.50558	0.00594
1814.21981	0.00600
1812.93405	0.00609
1811.64828	0.00622
1810.36251	0.00635
1809.07674	0.00645
1807.79097	0.00650
1806.50520	0.00652
1805.21943	0.00652
1803.93366	0.00654
1802.64790	0.00664
1801.36213	0.00678
1800.07636	0.00684
1798.79059	0.00675
1797.50482	0.00654
1796.21905	0.00635
1794.93328	0.00630
1793.64751	0.00642
1792.36174	0.00655
1791.07598	0.00658
1789.79021	0.00656
1788.50444	0.00658
1787.21867	0.00665
1785.93290	0.00666
1784.64713	0.00658
1783.36136	0.00650
1782.07559	0.00655
1780.78983	0.00670
1779.50406	0.00681
1778.21829	0.00683
1776.93252	0.00682
1775.64675	0.00689
1774.36098	0.00708
1773.07521	0.00723
1771.78944	0.00718
1770.50367	0.00702
1769.21791	0.00696
1767.93214	0.00703
1766.64637	0.00713
1765.36060	0.00724
1764.07483	0.00744
1762.78906	0.00764
1761.50329	0.00768
1760.21752	0.00755
1758.93176	0.00741
1757.64599	0.00738
1756.36022	0.00740
1755.07445	0.00741
1753.78868	0.00749
1752.50291	0.00765
1751.21714	0.00778
1749.93137	0.00779
1748.64560	0.00773
1747.35984	0.00768
1746.07407	0.00762
1744.78830	0.00755
1743.50253	0.00753
1742.21676	0.00761
1740.93099	0.00778
1739.64522	0.00784
1738.35945	0.00771
1737.07369	0.00761
1735.78792	0.00777
1734.50215	0.00799
1733.21638	0.00796
1731.93061	0.00775
1730.64484	0.00770
1729.35907	0.00790
1728.07330	0.00818
1726.78753	0.00845
1725.50177	0.00870
1724.21600	0.00888
1722.93023	0.00893
1721.64446	0.00887
1720.35869	0.00889
1719.07292	0.00908
1717.78715	0.00930
1716.50138	0.00943
1715.21561	0.00950
1713.92985	0.00966
1712.64408	0.00989
1711.35831	0.01013
1710.07254	0.01030
1708.78677	0.01042
1707.50100	0.01052
1706.21523	0.01059
1704.92946	0.01054
1703.64370	0.01052
1702.35793	0.01074
1701.07216	0.01109
1699.78639	0.01121
1698.50062	0.01120
1697.21485	0.01145
1695.92908	0.01189
1694.64331	0.01212
1693.35754	0.01215
1692.07178	0.01227
1690.78601	0.01247
1689.50024	0.01255
1688.21447	0.01251
1686.92870	0.01257
1685.64293	0.01281
1684.35716	0.01299
1683.07139	0.01299
1681.78563	0.01307
1680.49986	0.01336
1679.21409	0.01370
1677.92832	0.01401
1676.64255	0.01433
1675.35678	0.01460
1674.07101	0.01473
1672.78524	0.01483
1671.49947	0.01504
1670.21371	0.01531
1668.92794	0.01548
1667.64217	0.01556
1666.35640	0.01570
1665.07063	0.01602
1663.78486	0.01642
1662.49909	0.01675
1661.21332	0.01695
1659.92756	0.01708
1658.64179	0.01712
1657.35602	0.01709
1656.07025	0.01718
1654.78448	0.01758
1653.49871	0.01800
1652.21294	0.01801
1650.92717	0.01771
1649.64140	0.01766
1648.35564	0.01806
1647.06987	0.01854
1645.78410	0.01878
1644.49833	0.01879
1643.21256	0.01880
1641.92679	0.01887
1640.64102	0.01892
1639.35525	0.01891
1638.06949	0.01900
1636.78372	0.01923
1635.49795	0.01945
1634.21218	0.01953
1632.92641	0.01960
1631.64064	0.01980
1630.35487	0.02007
1629.06910	0.02024
1627.78333	0.02025
1626.49757	0.02019
1625.21180	0.02022
1623.92603	0.02034
1622.64026	0.02042
1621.35449	0.02035
1620.06872	0.02028
1618.78295	0.02041
1617.49718	0.02067
1616.21142	0.02084
1614.92565	0.02088
1613.63988	0.02096
1612.35411	0.02117
1611.06834	0.02140
1609.78257	0.02154
1608.49680	0.02164
1607.21103	0.02174
1605.92526	0.02187
1604.63950	0.02202
1603.35373	0.02219
1602.06796	0.02233
1600.78219	0.02243
1599.49642	0.02250
1598.21065	0.02255
1596.92488	0.02261
1595.63911	0.02268
1594.35335	0.02274
1593.06758	0.02279
1591.78181	0.02284
1590.49604	0.02289
1589.21027	0.02295
1587.92450	0.02301
1586.63873	0.02304
1585.35296	0.02306
1584.06719	0.02304
1582.78143	0.02299
1581.49566	0.02289
1580.20989	0.02276
1578.92412	0.02273
1577.63835	0.02289
1576.35258	0.02305
1575.06681	0.02296
1573.78104	0.02276
1572.49528	0.02270
1571.20951	0.02282
1569.92374	0.02288
1568.63797	0.02278
1567.35220	0.02261
1566.06643	0.02248
1564.78066	0.02236
1563.49489	0.02219
1562.20912	0.02213
1560.92336	0.02231
1559.63759	0.02247
1558.35182	0.02230
1557.06605	0.02194
1555.78028	0.02178
1554.49451	0.02188
1553.20874	0.02200
1551.92297	0.02204
1550.63721	0.02204
1549.35144	0.02201
1548.06567	0.02193
1546.77990	0.02187
1545.49413	0.02182
1544.20836	0.02176
1542.92259	0.02176
1541.63682	0.02197
1540.35105	0.02229
1539.06529	0.02245
1537.77952	0.02240
1536.49375	0.02237
1535.20798	0.02255
1533.92221	0.02280
1532.63644	0.02296
1531.35067	0.02308
1530.06490	0.02331
1528.77914	0.02369
1527.49337	0.02410
1526.20760	0.02448
1524.92183	0.02489
1523.63606	0.02546
1522.35029	0.02621
1521.06452	0.02691
1519.77875	0.02746
1518.49298	0.02802
1517.20722	0.02871
1515.92145	0.02948
1514.63568	0.03027
1513.34991	0.03111
1512.06414	0.03192
1510.77837	0.03268
1509.49260	0.03350
1508.20683	0.03450
1506.92107	0.03556
1505.63530	0.03640
1504.34953	0.03703
1503.06376	0.03766
1501.77799	0.03837
1500.49222	0.03909
1499.20645	0.03977
1497.92068	0.04047
1496.63491	0.04114
1495.34915	0.04169
1494.06338	0.04217
1492.77761	0.04270
1491.49184	0.04333
1490.20607	0.04396
1488.92030	0.04457
1487.63453	0.04525
1486.34876	0.04605
1485.06299	0.04695
1483.77723	0.04789
1482.49146	0.04881
1481.20569	0.04966
1479.91992	0.05042
1478.63415	0.05112
1477.34838	0.05177
1476.06261	0.05241
1474.77684	0.05306
1473.49108	0.05366
1472.20531	0.05407
1470.91954	0.05420
1469.63377	0.05418
1468.34800	0.05419
1467.06223	0.05429
1465.77646	0.05440
1464.49069	0.05441
1463.20492	0.05429
1461.91916	0.05412
1460.63339	0.05403
1459.34762	0.05418
1458.06185	0.05454
1456.77608	0.05488
1455.49031	0.05504
1454.20454	0.05512
1452.91877	0.05527
1451.63301	0.05548
1450.34724	0.05569
1449.06147	0.05584
1447.77570	0.05586
1446.48993	0.05570
1445.20416	0.05544
1443.91839	0.05515
1442.63262	0.05478
1441.34685	0.05430
1440.06109	0.05384
1438.77532	0.05359
1437.48955	0.05358
1436.20378	0.05367
1434.91801	0.05382
1433.63224	0.05414
1432.34647	0.05473
1431.06070	0.05553
1429.77494	0.05645
1428.48917	0.05746
1427.20340	0.05855
1425.91763	0.05964
1424.63186	0.06064
1423.34609	0.06147
1422.06032	0.06226
1420.77455	0.06310
1419.48878	0.06391
1418.20302	0.06450
1416.91725	0.06482
1415.63148	0.06500
1414.34571	0.06509
1413.05994	0.06507
1411.77417	0.06491
1410.48840	0.06458
1409.20263	0.06405
1407.91687	0.06335
1406.63110	0.06252
1405.34533	0.06156
1404.05956	0.06045
1402.77379	0.05924
1401.48802	0.05799
1400.20225	0.05671
1398.91648	0.05537
1397.63071	0.05402
1396.34495	0.05277
1395.05918	0.05156
1393.77341	0.05029
1392.48764	0.04892
1391.20187	0.04753
1389.91610	0.04623
1388.63033	0.04501
1387.34456	0.04383
1386.05880	0.04268
1384.77303	0.04156
1383.48726	0.04044
1382.20149	0.03923
1380.91572	0.03792
1379.62995	0.03658
1378.34418	0.03529
1377.05841	0.03408
1375.77264	0.03296
1374.48688	0.03186
1373.20111	0.03074
1371.91534	0.02961
1370.62957	0.02855
1369.34380	0.02761
1368.05803	0.02674
1366.77226	0.02590
1365.48649	0.02510
1364.20073	0.02436
1362.91496	0.02362
1361.62919	0.02289
1360.34342	0.02218
1359.05765	0.02156
1357.77188	0.02102
1356.48611	0.02054
1355.20034	0.02008
1353.91457	0.01962
1352.62881	0.01918
1351.34304	0.01879
1350.05727	0.01844
1348.77150	0.01813
1347.48573	0.01783
1346.19996	0.01753
1344.91419	0.01720
1343.62842	0.01686
1342.34266	0.01655
1341.05689	0.01628
1339.77112	0.01605
1338.48535	0.01581
1337.19958	0.01554
1335.91381	0.01525
1334.62804	0.01496
1333.34227	0.01470
1332.05650	0.01452
1330.77074	0.01440
1329.48497	0.01429
1328.19920	0.01416
1326.91343	0.01399
1325.62766	0.01382
1324.34189	0.01366
1323.05612	0.01349
1321.77035	0.01331
1320.48459	0.01315
1319.19882	0.01301
1317.91305	0.01289
1316.62728	0.01276
1315.34151	0.01260
1314.05574	0.01244
1312.76997	0.01230
1311.48420	0.01219
1310.19843	0.01211
1308.91267	0.01204
1307.62690	0.01196
1306.34113	0.01186
1305.05536	0.01176
1303.76959	0.01169
1302.48382	0.01165
1301.19805	0.01163
1299.91228	0.01160
1298.62652	0.01154
1297.34075	0.01146
1296.05498	0.01139
1294.76921	0.01132
1293.48344	0.01124
1292.19767	0.01112
1290.91190	0.01100
1289.62613	0.01091
1288.34036	0.01090
1287.05460	0.01092
1285.76883	0.01094
1284.48306	0.01092
1283.19729	0.01088
1281.91152	0.01080
1280.62575	0.01071
1279.33998	0.01059
1278.05421	0.01051
1276.76845	0.01048
1275.48268	0.01050
1274.19691	0.01051
1272.91114	0.01047
1271.62537	0.01039
1270.33960	0.01030
1269.05383	0.01021
1267.76806	0.01014
1266.48229	0.01008
1265.19653	0.01004
1263.91076	0.01001
1262.62499	0.00998
1261.33922	0.00993
1260.05345	0.00987
1258.76768	0.00981
1257.48191	0.00976
1256.19614	0.00972
1254.91037	0.00971
1253.62461	0.00974
1252.33884	0.00979
1251.05307	0.00983
1249.76730	0.00984
1248.48153	0.00984
1247.19576	0.00984
1245.90999	0.00983
1244.62422	0.00979
1243.33846	0.00970
1242.05269	0.00959
1240.76692	0.00949
1239.48115	0.00943
1238.19538	0.00942
1236.90961	0.00942
1235.62384	0.00941
1234.33807	0.00941
1233.05230	0.00942
1231.76654	0.00940
1230.48077	0.00934
1229.19500	0.00927
1227.90923	0.00923
1226.62346	0.00923
1225.33769	0.00925
1224.05192	0.00922
1222.76615	0.00914
1221.48039	0.00904
1220.19462	0.00897
1218.90885	0.00897
1217.62308	0.00903
1216.33731	0.00910
1215.05154	0.00912
1213.76577	0.00908
1212.48000	0.00900
1211.19423	0.00896
1209.90847	0.00895
1208.62270	0.00898
1207.33693	0.00901
1206.05116	0.00903
1204.76539	0.00904
1203.47962	0.00904
1202.19385	0.00904
1200.90808	0.00905
1199.62232	0.00905
1198.33655	0.00902
1197.05078	0.00896
1195.76501	0.00891
1194.47924	0.00889
1193.19347	0.00888
1191.90770	0.00884
1190.62193	0.00879
1189.33616	0.00874
1188.05040	0.00872
1186.76463	0.00877
1185.47886	0.00886
1184.19309	0.00897
1182.90732	0.00907
1181.62155	0.00911
1180.33578	0.00913
1179.05001	0.00917
1177.76425	0.00925
1176.47848	0.00934
1175.19271	0.00941
1173.90694	0.00946
1172.62117	0.00952
1171.33540	0.00962
1170.04963	0.00975
1168.76386	0.00990
1167.47809	0.01000
1166.19233	0.01005
1164.90656	0.01011
1163.62079	0.01024
1162.33502	0.01045
1161.04925	0.01068
1159.76348	0.01089
1158.47771	0.01108
1157.19194	0.01127
1155.90618	0.01145
1154.62041	0.01163
1153.33464	0.01185
1152.04887	0.01215
1150.76310	0.01250
1149.47733	0.01287
1148.19156	0.01324
1146.90579	0.01363
1145.62002	0.01408
1144.33426	0.01461
1143.04849	0.01522
1141.76272	0.01588
1140.47695	0.01660
1139.19118	0.01743
1137.90541	0.01840
1136.61964	0.01952
1135.33387	0.02075
1134.04811	0.02208
1132.76234	0.02356
1131.47657	0.02523
1130.19080	0.02717
1128.90503	0.02936
1127.61926	0.03177
1126.33349	0.03434
1125.04772	0.03707
1123.76195	0.03993
1122.47619	0.04289
1121.19042	0.04590
1119.90465	0.04892
1118.61888	0.05191
1117.33311	0.05483
1116.04734	0.05770
1114.76157	0.06053
1113.47580	0.06329
1112.19004	0.06592
1110.90427	0.06843
1109.61850	0.07084
1108.33273	0.07315
1107.04696	0.07539
1105.76119	0.07762
1104.47542	0.07988
1103.18965	0.08212
1101.90388	0.08428
1100.61812	0.08634
1099.33235	0.08835
1098.04658	0.09036
1096.76081	0.09231
1095.47504	0.09414
1094.18927	0.09581
1092.90350	0.09734
1091.61773	0.09880
1090.33197	0.10025
1089.04620	0.10172
1087.76043	0.10323
1086.47466	0.10475
1085.18889	0.10631
1083.90312	0.10794
1082.61735	0.10969
1081.33158	0.11162
1080.04581	0.11372
1078.76005	0.11599
1077.47428	0.11843
1076.18851	0.12101
1074.90274	0.12368
1073.61697	0.12640
1072.33120	0.12914
1071.04543	0.13188
1069.75966	0.13465
1068.47390	0.13753
1067.18813	0.14063
1065.90236	0.14392
1064.61659	0.14726
1063.33082	0.15052
1062.04505	0.15369
1060.75928	0.15683
1059.47351	0.15999
1058.18774	0.16317
1056.90198	0.16633
1055.61621	0.16943
1054.33044	0.17250
1053.04467	0.17556
1051.75890	0.17870
1050.47313	0.18199
1049.18736	0.18542
1047.90159	0.18893
1046.61583	0.19243
1045.33006	0.19592
1044.04429	0.19946
1042.75852	0.20313
1041.47275	0.20693
1040.18698	0.21082
1038.90121	0.21473
1037.61544	0.21862
1036.32967	0.22244
1035.04391	0.22607
1033.75814	0.22936
1032.47237	0.23225
1031.18660	0.23474
1029.90083	0.23686
1028.61506	0.23857
1027.32929	0.23982
1026.04352	0.24056
1024.75775	0.24075
1023.47199	0.24036
1022.18622	0.23935
1020.90045	0.23769
1019.61468	0.23532
1018.32891	0.23223
1017.04314	0.22838
1015.75737	0.22378
1014.47160	0.21849
1013.18584	0.21258
1011.90007	0.20609
1010.61430	0.19908
1009.32853	0.19159
1008.04276	0.18369
1006.75699	0.17548
1005.47122	0.16707
1004.18545	0.15851
1002.89968	0.14983
1001.61392	0.14112
1000.32815	0.13259
999.04238	0.12440
997.75661	0.11660
996.47084	0.10920
995.18507	0.10222
993.89930	0.09571
992.61353	0.08971
991.32777	0.08419
990.04200	0.07913
988.75623	0.07449
987.47046	0.07029
986.18469	0.06649
984.89892	0.06306
983.61315	0.05994
982.32738	0.05715
981.04161	0.05470
979.75585	0.05253
978.47008	0.05058
977.18431	0.04881
975.89854	0.04731
974.61277	0.04618
973.32700	0.04548
972.04123	0.04518
970.75546	0.04523
969.46970	0.04559
968.18393	0.04625
966.89816	0.04719
965.61239	0.04830
964.32662	0.04937
963.04085	0.05013
961.75508	0.05035
960.46931	0.05000
959.18354	0.04918
957.89778	0.04802
956.61201	0.04655
955.32624	0.04483
954.04047	0.04299
952.75470	0.04123
951.46893	0.03969
950.18316	0.03832
948.89739	0.03704
947.61163	0.03579
946.32586	0.03457
945.04009	0.03339
943.75432	0.03223
942.46855	0.03112
941.18278	0.03010
939.89701	0.02923
938.61124	0.02848
937.32547	0.02780
936.03971	0.02722
934.75394	0.02676
933.46817	0.02638
932.18240	0.02598
930.89663	0.02553
929.61086	0.02507
928.32509	0.02467
927.03932	0.02435
925.75356	0.02409
924.46779	0.02385
923.18202	0.02360
921.89625	0.02331
920.61048	0.02298
919.32471	0.02265
918.03894	0.02237
916.75317	0.02215
915.46740	0.02198
914.18164	0.02182
912.89587	0.02164
911.61010	0.02145
910.32433	0.02130
909.03856	0.02124
907.75279	0.02125
906.46702	0.02126
905.18125	0.02121
903.89549	0.02106
902.60972	0.02081
901.32395	0.02052
900.03818	0.02029
898.75241	0.02018
897.46664	0.02020
896.18087	0.02034
894.89510	0.02053
893.60933	0.02071
892.32357	0.02086
891.03780	0.02101
889.75203	0.02120
888.46626	0.02151
887.18049	0.02203
885.89472	0.02288
884.60895	0.02420
883.32318	0.02596
882.03742	0.02797
880.75165	0.02990
879.46588	0.03148
878.18011	0.03268
876.89434	0.03374
875.60857	0.03494
874.32280	0.03625
873.03703	0.03728
871.75126	0.03763
870.46550	0.03716
869.17973	0.03601
867.89396	0.03436
866.60819	0.03238
865.32242	0.03031
864.03665	0.02839
862.75088	0.02679
861.46511	0.02549
860.17935	0.02440
858.89358	0.02353
857.60781	0.02290
856.32204	0.02251
855.03627	0.02226
853.75050	0.02204
852.46473	0.02178
851.17896	0.02149
849.89319	0.02124
848.60743	0.02103
847.32166	0.02086
846.03589	0.02067
844.75012	0.02048
843.46435	0.02032
842.17858	0.02020
840.89281	0.02010
839.60704	0.01999
838.32128	0.01987
837.03551	0.01979
835.74974	0.01978
834.46397	0.01982
833.17820	0.01984
831.89243	0.01982
830.60666	0.01979
829.32089	0.01975
828.03512	0.01972
826.74936	0.01966
825.46359	0.01954
824.17782	0.01941
822.89205	0.01931
821.60628	0.01929
820.32051	0.01938
819.03474	0.01956
817.74897	0.01974
816.46321	0.01984
815.17744	0.01983
813.89167	0.01976
812.60590	0.01970
811.32013	0.01969
810.03436	0.01972
808.74859	0.01976
807.46282	0.01975
806.17705	0.01965
804.89129	0.01951
803.60552	0.01940
802.31975	0.01942
801.03398	0.01956
799.74821	0.01978
798.46244	0.02000
797.17667	0.02016
795.89090	0.02019
794.60513	0.02007
793.31937	0.01988
792.03360	0.01972
790.74783	0.01968
789.46206	0.01975
788.17629	0.01987
786.89052	0.01997
785.60475	0.02000
784.31898	0.01996
783.03322	0.01990
781.74745	0.01988
780.46168	0.01991
779.17591	0.01997
777.89014	0.02002
776.60437	0.02000
775.31860	0.01996
774.03283	0.01992
772.74706	0.01991
771.46130	0.01990
770.17553	0.01991
768.88976	0.01997
767.60399	0.02015
766.31822	0.02041
765.03245	0.02066
763.74668	0.02080
762.46091	0.02082
761.17515	0.02076
759.88938	0.02071
758.60361	0.02075
757.31784	0.02092
756.03207	0.02118
754.74630	0.02139
753.46053	0.02146
752.17476	0.02137
750.88899	0.02119
749.60323	0.02099
748.31746	0.02086
747.03169	0.02087
745.74592	0.02099
744.46015	0.02112
743.17438	0.02122
741.88861	0.02130
740.60284	0.02134
739.31708	0.02131
738.03131	0.02119
736.74554	0.02106
735.45977	0.02099
734.17400	0.02098
732.88823	0.02104
731.60246	0.02110
730.31669	0.02112
729.03092	0.02106
727.74516	0.02101
726.45939	0.02104
725.17362	0.02119
723.88785	0.02158
722.60208	0.02160
721.31631	0.02133
720.03054	0.02109
718.74477	0.02101
717.45901	0.02102
716.17324	0.02108
714.88747	0.02121
713.60170	0.02142
712.31593	0.02166
711.03016	0.02186
709.74439	0.02200
708.45862	0.02206
707.17285	0.02210
705.88709	0.02211
704.60132	0.02212
703.31555	0.02213
702.02978	0.02216
700.74401	0.02220
699.45824	0.02223
698.17247	0.02221
696.88670	0.02214
695.60094	0.02208
694.31517	0.02205
693.02940	0.02208
691.74363	0.02211
690.45786	0.02211
689.17209	0.02209
687.88632	0.02208
686.60055	0.02208
685.31478	0.02210
684.02902	0.02213
682.74325	0.02218
681.45748	0.02226
680.17171	0.02237
678.88594	0.02247
677.60017	0.02255
676.31440	0.02261
675.02863	0.02261
673.74287	0.02247
672.45710	0.02202
671.17133	0.02130
669.88556	0.02075
668.59979	0.02093
667.31402	0.02169
666.02825	0.02227
664.74248	0.02267
663.45671	0.02294
662.17095	0.02302
660.88518	0.02296
659.59941	0.02292
658.31364	0.02293
657.02787	0.02295
655.74210	0.02292
654.45633	0.02279
653.17056	0.02260
651.88480	0.02242
650.59903	0.02233
649.31326	0.02239
648.02749	0.02258
646.74172	0.02278
645.45595	0.02290
644.17018	0.02293
642.88441	0.02294
641.59864	0.02301
640.31288	0.02316
639.02711	0.02337
637.74134	0.02363
636.45557	0.02392
635.16980	0.02422
633.88403	0.02455
632.59826	0.02491
631.31249	0.02527
630.02673	0.02561
628.74096	0.02599
627.45519	0.02654
626.16942	0.02706
624.88365	0.02777
623.59788	0.02887
622.31211	0.03018
621.02634	0.03149
619.74057	0.03306
618.45481	0.03530
617.16904	0.03814
615.88327	0.04103
614.59750	0.04363
613.31173	0.04611
612.02596	0.04898
610.74019	0.05289
609.45442	0.05827
608.16866	0.06470
606.88289	0.07108
605.59712	0.07631
604.31135	0.07965
603.02558	0.08094
601.73981	0.08058
600.45404	0.07917
599.16827	0.07706
597.88250	0.07438
596.59674	0.07135
595.31097	0.06832
594.02520	0.06572
592.73943	0.06384
591.45366	0.06277
590.16789	0.06238
588.88212	0.06250
587.59635	0.06305
586.31059	0.06407
585.02482	0.06560
583.73905	0.06760
582.45328	0.06999
581.16751	0.07265
579.88174	0.07547
578.59597	0.07832
577.31020	0.08110
576.02443	0.08376
574.73867	0.08626
573.45290	0.08866
572.16713	0.09108
570.88136	0.09373
569.59559	0.09683
568.30982	0.10040
567.02405	0.10421
565.73828	0.10783
564.45251	0.11072
563.16675	0.11236
561.88098	0.11227
560.59521	0.11007
559.30944	0.10571
558.02367	0.09957
556.73790	0.09240
555.45213	0.08501
554.16636	0.07795
552.88060	0.07149
551.59483	0.06571
550.30906	0.06063
549.02329	0.05623
547.73752	0.05247
546.45175	0.04928
545.16598	0.04658
543.88021	0.04424
542.59444	0.04218
541.30868	0.04032
540.02291	0.03865
538.73714	0.03719
537.45137	0.03596
536.16560	0.03494
534.87983	0.03400
533.59406	0.03305
532.30829	0.03204
531.02253	0.03103
529.73676	0.03010
528.45099	0.02933
527.16522	0.02874
525.87945	0.02821
524.59368	0.02765
523.30791	0.02704
522.02214	0.02647
520.73637	0.02604
519.45061	0.02573
518.16484	0.02544
516.87907	0.02515
515.59330	0.02488
514.30753	0.02465
513.02176	0.02444
511.73599	0.02418
510.45022	0.02387
509.16446	0.02360
507.87869	0.02343
506.59292	0.02335
505.30715	0.02323
504.02138	0.02303
502.73561	0.02275
501.44984	0.02247
500.16407	0.02221
498.87830	0.02199
497.59254	0.02182
496.30677	0.02171
495.02100	0.02167
493.73523	0.02163
492.44946	0.02152
491.16369	0.02133
489.87792	0.02111
488.59215	0.02093
487.30639	0.02083
486.02062	0.02079
484.73485	0.02080
483.44908	0.02089
482.16331	0.02107
480.87754	0.02129
479.59177	0.02149
478.30600	0.02163
477.02023	0.02179
475.73447	0.02205
474.44870	0.02240
473.16293	0.02276
471.87716	0.02300
470.59139	0.02305
469.30562	0.02294
468.01985	0.02272
466.73408	0.02240
465.44832	0.02206
464.16255	0.02174
462.87678	0.02152
461.59101	0.02137
460.30524	0.02124
459.01947	0.02107
457.73370	0.02083
456.44793	0.02055
455.16216	0.02026
453.87640	0.01999
452.59063	0.01976
451.30486	0.01957
450.01909	0.01944
448.73332	0.01937
447.44755	0.01937
446.16178	0.01939
444.87601	0.01940
443.59025	0.01940
442.30448	0.01935
441.01871	0.01929
439.73294	0.01922
438.44717	0.01915
437.16140	0.01907
435.87563	0.01895
434.58986	0.01882
433.30409	0.01874
432.01833	0.01871
430.73256	0.01871
429.44679	0.01871
428.16102	0.01871
426.87525	0.01868
425.58948	0.01858
424.30371	0.01838
423.01794	0.01810
421.73218	0.01787
420.44641	0.01777
419.16064	0.01777
417.87487	0.01776
416.58910	0.01772
415.30333	0.01765
414.01756	0.01757
412.73179	0.01745
411.44602	0.01727
410.16026	0.01712
408.87449	0.01707
407.58872	0.01713
406.30295	0.01728
405.01718	0.01743
403.73141	0.01754
402.44564	0.01760
401.15987	0.01763
399.87411	0.01767
