3997.45528	0.02506
3996.16951	0.02464
3994.88374	0.02447
3993.59798	0.02483
3992.31221	0.02580
3991.02644	0.02711
3989.74067	0.02828
3988.45490	0.02890
3987.16913	0.02881
3985.88336	0.02806
3984.59759	0.02690
3983.31183	0.02575
3982.02606	0.02508
3980.74029	0.02506
3979.45452	0.02552
3978.16875	0.02610
3976.88298	0.02654
3975.59721	0.02666
3974.31144	0.02640
3973.02567	0.02594
3971.73991	0.02560
3970.45414	0.02564
3969.16837	0.02593
3967.88260	0.02614
3966.59683	0.02610
3965.31106	0.02594
3964.02529	0.02581
3962.73952	0.02569
3961.45376	0.02538
3960.16799	0.02470
3958.88222	0.02370
3957.59645	0.02269
3956.31068	0.02209
3955.02491	0.02218
3953.73914	0.02296
3952.45337	0.02416
3951.16760	0.02533
3949.88184	0.02608
3948.59607	0.02620
3947.31030	0.02572
3946.02453	0.02486
3944.73876	0.02399
3943.45299	0.02354
3942.16722	0.02366
3940.88145	0.02402
3939.59569	0.02421
3938.30992	0.02408
3937.02415	0.02386
3935.73838	0.02376
3934.45261	0.02381
3933.16684	0.02395
3931.88107	0.02407
3930.59530	0.02416
3929.30953	0.02431
3928.02377	0.02458
3926.73800	0.02487
3925.45223	0.02499
3924.16646	0.02487
3922.88069	0.02458
3921.59492	0.02419
3920.30915	0.02384
3919.02338	0.02374
3917.73762	0.02392
3916.45185	0.02417
3915.16608	0.02424
3913.88031	0.02408
3912.59454	0.02384
3911.30877	0.02357
3910.02300	0.02323
3908.73723	0.02292
3907.45146	0.02280
3906.16570	0.02296
3904.87993	0.02333
3903.59416	0.02383
3902.30839	0.02443
3901.02262	0.02497
3899.73685	0.02520
3898.45108	0.02490
3897.16531	0.02412
3895.87955	0.02324
3894.59378	0.02280
3893.30801	0.02313
3892.02224	0.02399
3890.73647	0.02487
3889.45070	0.02537
3888.16493	0.02544
3886.87916	0.02529
3885.59339	0.02507
3884.30763	0.02471
3883.02186	0.02409
3881.73609	0.02340
3880.45032	0.02300
3879.16455	0.02293
3877.87878	0.02292
3876.59301	0.02279
3875.30724	0.02274
3874.02148	0.02301
3872.73571	0.02346
3871.44994	0.02375
3870.16417	0.02380
3868.87840	0.02373
3867.59263	0.02355
3866.30686	0.02326
3865.02109	0.02308
3863.73532	0.02316
3862.44956	0.02344
3861.16379	0.02383
3859.87802	0.02423
3858.59225	0.02454
3857.30648	0.02469
3856.02071	0.02472
3854.73494	0.02478
3853.44917	0.02491
3852.16341	0.02498
3850.87764	0.02498
3849.59187	0.02519
3848.30610	0.02570
3847.02033	0.02611
3845.73456	0.02595
3844.44879	0.02518
3843.16302	0.02412
3841.87725	0.02302
3840.59149	0.02198
3839.30572	0.02129
3838.01995	0.02136
3836.73418	0.02231
3835.44841	0.02360
3834.16264	0.02451
3832.87687	0.02465
3831.59110	0.02418
3830.30534	0.02352
3829.01957	0.02305
3827.73380	0.02288
3826.44803	0.02293
3825.16226	0.02306
3823.87649	0.02329
3822.59072	0.02370
3821.30495	0.02435
3820.01918	0.02501
3818.73342	0.02527
3817.44765	0.02499
3816.16188	0.02445
3814.87611	0.02395
3813.59034	0.02349
3812.30457	0.02312
3811.01880	0.02299
3809.73303	0.02303
3808.44726	0.02305
3807.16150	0.02309
3805.87573	0.02334
3804.58996	0.02366
3803.30419	0.02375
3802.01842	0.02353
3800.73265	0.02315
3799.44688	0.02278
3798.16111	0.02254
3796.87535	0.02259
3795.58958	0.02292
3794.30381	0.02330
3793.01804	0.02348
3791.73227	0.02336
3790.44650	0.02288
3789.16073	0.02214
3787.87496	0.02142
3786.58919	0.02104
3785.30343	0.02116
3784.01766	0.02178
3782.73189	0.02275
3781.44612	0.02373
3780.16035	0.02434
3778.87458	0.02439
3777.58881	0.02397
3776.30304	0.02338
3775.01728	0.02291
3773.73151	0.02267
3772.44574	0.02260
3771.15997	0.02254
3769.87420	0.02247
3768.58843	0.02250
3767.30266	0.02260
3766.01689	0.02258
3764.73112	0.02232
3763.44536	0.02196
3762.15959	0.02177
3760.87382	0.02183
3759.58805	0.02185
3758.30228	0.02152
3757.01651	0.02105
3755.73074	0.02092
3754.44497	0.02135
3753.15921	0.02213
3751.87344	0.02284
3750.58767	0.02328
3749.30190	0.02352
3748.01613	0.02360
3746.73036	0.02330
3745.44459	0.02265
3744.15882	0.02216
3742.87305	0.02220
3741.58729	0.02259
3740.30152	0.02310
3739.01575	0.02358
3737.72998	0.02385
3736.44421	0.02393
3735.15844	0.02408
3733.87267	0.02442
3732.58690	0.02476
3731.30114	0.02482
3730.01537	0.02446
3728.72960	0.02375
3727.44383	0.02300
3726.15806	0.02250
3724.87229	0.02230
3723.58652	0.02228
3722.30075	0.02230
3721.01498	0.02232
3719.72922	0.02237
3718.44345	0.02258
3717.15768	0.02309
3715.87191	0.02379
3714.58614	0.02417
3713.30037	0.02381
3712.01460	0.02278
3710.72883	0.02172
3709.44307	0.02132
3708.15730	0.02183
3706.87153	0.02277
3705.58576	0.02331
3704.29999	0.02302
3703.01422	0.02220
3701.72845	0.02148
3700.44268	0.02111
3699.15691	0.02085
3697.87115	0.02043
3696.58538	0.01998
3695.29961	0.01988
3694.01384	0.02022
3692.72807	0.02068
3691.44230	0.02089
3690.15653	0.02070
3688.87076	0.02021
3687.58500	0.01971
3686.29923	0.01942
3685.01346	0.01942
3683.72769	0.01980
3682.44192	0.02052
3681.15615	0.02125
3679.87038	0.02164
3678.58461	0.02156
3677.29884	0.02122
3676.01308	0.02106
3674.72731	0.02136
3673.44154	0.02199
3672.15577	0.02269
3670.87000	0.02341
3669.58423	0.02405
3668.29846	0.02420
3667.01269	0.02358
3665.72693	0.02252
3664.44116	0.02159
3663.15539	0.02114
3661.86962	0.02120
3660.58385	0.02157
3659.29808	0.02186
3658.01231	0.02173
3656.72654	0.02123
3655.44077	0.02081
3654.15501	0.02083
3652.86924	0.02127
3651.58347	0.02187
3650.29770	0.02232
3649.01193	0.02241
3647.72616	0.02211
3646.44039	0.02166
3645.15462	0.02130
3643.86886	0.02118
3642.58309	0.02133
3641.29732	0.02175
3640.01155	0.02229
3638.72578	0.02274
3637.44001	0.02293
3636.15424	0.02276
3634.86847	0.02226
3633.58270	0.02165
3632.29694	0.02121
3631.01117	0.02114
3629.72540	0.02148
3628.43963	0.02213
3627.15386	0.02283
3625.86809	0.02345
3624.58232	0.02404
3623.29655	0.02456
3622.01079	0.02478
3620.72502	0.02466
3619.43925	0.02452
3618.15348	0.02466
3616.86771	0.02484
3615.58194	0.02464
3614.29617	0.02409
3613.01040	0.02367
3611.72463	0.02368
3610.43887	0.02391
3609.15310	0.02407
3607.86733	0.02425
3606.58156	0.02470
3605.29579	0.02545
3604.01002	0.02622
3602.72425	0.02675
3601.43848	0.02696
3600.15272	0.02685
3598.86695	0.02641
3597.58118	0.02567
3596.29541	0.02480
3595.00964	0.02407
3593.72387	0.02373
3592.43810	0.02385
3591.15233	0.02436
3589.86656	0.02510
3588.58080	0.02581
3587.29503	0.02619
3586.00926	0.02613
3584.72349	0.02586
3583.43772	0.02573
3582.15195	0.02587
3580.86618	0.02617
3579.58041	0.02647
3578.29464	0.02667
3577.00888	0.02674
3575.72311	0.02662
3574.43734	0.02645
3573.15157	0.02656
3571.86580	0.02718
3570.58003	0.02818
3569.29426	0.02917
3568.00849	0.02988
3566.72273	0.03017
3565.43696	0.02998
3564.15119	0.02931
3562.86542	0.02848
3561.57965	0.02804
3560.29388	0.02833
3559.00811	0.02917
3557.72234	0.03001
3556.43657	0.03043
3555.15081	0.03032
3553.86504	0.02983
3552.57927	0.02915
3551.29350	0.02846
3550.00773	0.02792
3548.72196	0.02762
3547.43619	0.02768
3546.15042	0.02818
3544.86466	0.02910
3543.57889	0.03016
3542.29312	0.03099
3541.00735	0.03136
3539.72158	0.03136
3538.43581	0.03124
3537.15004	0.03124
3535.86427	0.03142
3534.57850	0.03174
3533.29274	0.03207
3532.00697	0.03216
3530.72120	0.03193
3529.43543	0.03151
3528.14966	0.03119
3526.86389	0.03106
3525.57812	0.03097
3524.29235	0.03084
3523.00659	0.03080
3521.72082	0.03094
3520.43505	0.03116
3519.14928	0.03125
3517.86351	0.03116
3516.57774	0.03105
3515.29197	0.03109
3514.00620	0.03131
3512.72043	0.03156
3511.43467	0.03169
3510.14890	0.03165
3508.86313	0.03153
3507.57736	0.03155
3506.29159	0.03184
3505.00582	0.03236
3503.72005	0.03286
3502.43428	0.03302
3501.14852	0.03267
3499.86275	0.03204
3498.57698	0.03158
3497.29121	0.03160
3496.00544	0.03202
3494.71967	0.03256
3493.43390	0.03297
3492.14813	0.03322
3490.86236	0.03334
3489.57660	0.03336
3488.29083	0.03332
3487.00506	0.03324
3485.71929	0.03315
3484.43352	0.03301
3483.14775	0.03283
3481.86198	0.03267
3480.57621	0.03265
3479.29045	0.03283
3478.00468	0.03320
3476.71891	0.03364
3475.43314	0.03399
3474.14737	0.03416
3472.86160	0.03427
3471.57583	0.03452
3470.29006	0.03499
3469.00429	0.03556
3467.71853	0.03601
3466.43276	0.03622
3465.14699	0.03614
3463.86122	0.03583
3462.57545	0.03548
3461.28968	0.03538
3460.00391	0.03571
3458.71814	0.03623
3457.43238	0.03644
3456.14661	0.03605
3454.86084	0.03531
3453.57507	0.03478
3452.28930	0.03484
3451.00353	0.03541
3449.71776	0.03608
3448.43199	0.03648
3447.14622	0.03660
3445.86046	0.03664
3444.57469	0.03670
3443.28892	0.03668
3442.00315	0.03648
3440.71738	0.03626
3439.43161	0.03636
3438.14584	0.03683
3436.86007	0.03733
3435.57431	0.03750
3434.28854	0.03733
3433.00277	0.03712
3431.71700	0.03707
3430.43123	0.03708
3429.14546	0.03700
3427.85969	0.03680
3426.57392	0.03658
3425.28815	0.03636
3424.00239	0.03603
3422.71662	0.03551
3421.43085	0.03484
3420.14508	0.03423
3418.85931	0.03402
3417.57354	0.03441
3416.28777	0.03532
3415.00200	0.03638
3413.71624	0.03714
3412.43047	0.03735
3411.14470	0.03696
3409.85893	0.03621
3408.57316	0.03553
3407.28739	0.03527
3406.00162	0.03550
3404.71585	0.03607
3403.43008	0.03674
3402.14432	0.03735
3400.85855	0.03774
3399.57278	0.03791
3398.28701	0.03793
3397.00124	0.03795
3395.71547	0.03804
3394.42970	0.03818
3393.14393	0.03842
3391.85817	0.03872
3390.57240	0.03892
3389.28663	0.03886
3388.00086	0.03854
3386.71509	0.03816
3385.42932	0.03796
3384.14355	0.03799
3382.85778	0.03814
3381.57201	0.03825
3380.28625	0.03824
3379.00048	0.03814
3377.71471	0.03800
3376.42894	0.03782
3375.14317	0.03761
3373.85740	0.03753
3372.57163	0.03778
3371.28586	0.03836
3370.00010	0.03895
3368.71433	0.03915
3367.42856	0.03886
3366.14279	0.03837
3364.85702	0.03811
3363.57125	0.03824
3362.28548	0.03857
3360.99971	0.03873
3359.71394	0.03854
3358.42818	0.03819
3357.14241	0.03804
3355.85664	0.03821
3354.57087	0.03853
3353.28510	0.03868
3351.99933	0.03853
3350.71356	0.03822
3349.42779	0.03801
3348.14202	0.03803
3346.85626	0.03826
3345.57049	0.03859
3344.28472	0.03889
3342.99895	0.03911
3341.71318	0.03928
3340.42741	0.03941
3339.14164	0.03939
3337.85587	0.03909
3336.57011	0.03858
3335.28434	0.03802
3333.99857	0.03752
3332.71280	0.03714
3331.42703	0.03693
3330.14126	0.03697
3328.85549	0.03715
3327.56972	0.03726
3326.28395	0.03717
3324.99819	0.03697
3323.71242	0.03677
3322.42665	0.03661
3321.14088	0.03650
3319.85511	0.03653
3318.56934	0.03677
3317.28357	0.03722
3315.99780	0.03774
3314.71204	0.03813
3313.42627	0.03826
3312.14050	0.03818
3310.85473	0.03807
3309.56896	0.03810
3308.28319	0.03817
3306.99742	0.03812
3305.71165	0.03782
3304.42588	0.03732
3303.14012	0.03678
3301.85435	0.03643
3300.56858	0.03636
3299.28281	0.03647
3297.99704	0.03652
3296.71127	0.03638
3295.42550	0.03621
3294.13973	0.03622
3292.85397	0.03649
3291.56820	0.03689
3290.28243	0.03730
3288.99666	0.03770
3287.71089	0.03814
3286.42512	0.03850
3285.13935	0.03853
3283.85358	0.03814
3282.56781	0.03758
3281.28205	0.03719
3279.99628	0.03717
3278.71051	0.03744
3277.42474	0.03782
3276.13897	0.03815
3274.85320	0.03835
3273.56743	0.03834
3272.28166	0.03816
3270.99590	0.03790
3269.71013	0.03769
3268.42436	0.03762
3267.13859	0.03761
3265.85282	0.03757
3264.56705	0.03741
3263.28128	0.03717
3261.99551	0.03696
3260.70974	0.03685
3259.42398	0.03687
3258.13821	0.03699
3256.85244	0.03716
3255.56667	0.03730
3254.28090	0.03729
3252.99513	0.03704
3251.70936	0.03654
3250.42359	0.03599
3249.13783	0.03564
3247.85206	0.03560
3246.56629	0.03576
3245.28052	0.03593
3243.99475	0.03600
3242.70898	0.03603
3241.42321	0.03617
3240.13744	0.03644
3238.85167	0.03676
3237.56591	0.03708
3236.28014	0.03739
3234.99437	0.03762
3233.70860	0.03760
3232.42283	0.03727
3231.13706	0.03682
3229.85129	0.03654
3228.56552	0.03649
3227.27976	0.03639
3225.99399	0.03603
3224.70822	0.03550
3223.42245	0.03511
3222.13668	0.03504
3220.85091	0.03518
3219.56514	0.03535
3218.27937	0.03546
3216.99360	0.03552
3215.70784	0.03558
3214.42207	0.03562
3213.13630	0.03554
3211.85053	0.03538
3210.56476	0.03527
3209.27899	0.03532
3207.99322	0.03551
3206.70745	0.03575
3205.42169	0.03599
3204.13592	0.03621
3202.85015	0.03633
3201.56438	0.03625
3200.27861	0.03598
3198.99284	0.03562
3197.70707	0.03531
3196.42130	0.03519
3195.13553	0.03531
3193.84977	0.03550
3192.56400	0.03550
3191.27823	0.03519
3189.99246	0.03476
3188.70669	0.03454
3187.42092	0.03461
3186.13515	0.03472
3184.84938	0.03458
3183.56362	0.03423
3182.27785	0.03399
3180.99208	0.03413
3179.70631	0.03465
3178.42054	0.03524
3177.13477	0.03553
3175.84900	0.03531
3174.56323	0.03471
3173.27746	0.03414
3171.99170	0.03397
3170.70593	0.03427
3169.42016	0.03479
3168.13439	0.03517
3166.84862	0.03520
3165.56285	0.03488
3164.27708	0.03440
3162.99131	0.03402
3161.70555	0.03391
3160.41978	0.03408
3159.13401	0.03437
3157.84824	0.03452
3156.56247	0.03436
3155.27670	0.03397
3153.99093	0.03356
3152.70516	0.03339
3151.41939	0.03354
3150.13363	0.03390
3148.84786	0.03424
3147.56209	0.03433
3146.27632	0.03407
3144.99055	0.03357
3143.70478	0.03312
3142.41901	0.03295
3141.13324	0.03301
3139.84748	0.03308
3138.56171	0.03300
3137.27594	0.03281
3135.99017	0.03266
3134.70440	0.03272
3133.41863	0.03301
3132.13286	0.03340
3130.84709	0.03370
3129.56132	0.03381
3128.27556	0.03376
3126.98979	0.03367
3125.70402	0.03360
3124.41825	0.03347
3123.13248	0.03320
3121.84671	0.03285
3120.56094	0.03259
3119.27517	0.03253
3117.98940	0.03267
3116.70364	0.03285
3115.41787	0.03289
3114.13210	0.03274
3112.84633	0.03251
3111.56056	0.03229
3110.27479	0.03204
3108.98902	0.03166
3107.70325	0.03128
3106.41749	0.03121
3105.13172	0.03163
3103.84595	0.03237
3102.56018	0.03300
3101.27441	0.03324
3099.98864	0.03313
3098.70287	0.03289
3097.41710	0.03268
3096.13133	0.03254
3094.84557	0.03239
3093.55980	0.03217
3092.27403	0.03182
3090.98826	0.03139
3089.70249	0.03105
3088.41672	0.03091
3087.13095	0.03089
3085.84518	0.03079
3084.55942	0.03060
3083.27365	0.03053
3081.98788	0.03072
3080.70211	0.03106
3079.41634	0.03128
3078.13057	0.03126
3076.84480	0.03110
3075.55903	0.03101
3074.27326	0.03110
3072.98750	0.03127
3071.70173	0.03137
3070.41596	0.03133
3069.13019	0.03116
3067.84442	0.03094
3066.55865	0.03069
3065.27288	0.03049
3063.98711	0.03036
3062.70135	0.03038
3061.41558	0.03054
3060.12981	0.03077
3058.84404	0.03091
3057.55827	0.03083
3056.27250	0.03055
3054.98673	0.03028
3053.70096	0.03019
3052.41519	0.03027
3051.12943	0.03043
3049.84366	0.03058
3048.55789	0.03068
3047.27212	0.03071
3045.98635	0.03067
3044.70058	0.03061
3043.41481	0.03060
3042.12904	0.03060
3040.84328	0.03053
3039.55751	0.03036
3038.27174	0.03018
3036.98597	0.03002
3035.70020	0.02985
3034.41443	0.02968
3033.12866	0.02957
3031.84289	0.02962
3030.55712	0.02978
3029.27136	0.02992
3027.98559	0.02994
3026.69982	0.02985
3025.41405	0.02970
3024.12828	0.02946
3022.84251	0.02913
3021.55674	0.02884
3020.27097	0.02884
3018.98521	0.02919
3017.69944	0.02962
3016.41367	0.02976
3015.12790	0.02951
3013.84213	0.02911
3012.55636	0.02885
3011.27059	0.02884
3009.98482	0.02896
3008.69905	0.02907
3007.41329	0.02906
3006.12752	0.02891
3004.84175	0.02868
3003.55598	0.02846
3002.27021	0.02835
3000.98444	0.02839
2999.69867	0.02856
2998.41290	0.02880
2997.12714	0.02907
2995.84137	0.02929
2994.55560	0.02940
2993.26983	0.02934
2991.98406	0.02913
2990.69829	0.02893
2989.41252	0.02886
2988.12675	0.02889
2986.84098	0.02886
2985.55522	0.02875
2984.26945	0.02869
2982.98368	0.02879
2981.69791	0.02892
2980.41214	0.02883
2979.12637	0.02839
2977.84060	0.02772
2976.55483	0.02711
2975.26907	0.02690
2973.98330	0.02720
2972.69753	0.02787
2971.41176	0.02860
2970.12599	0.02914
2968.84022	0.02944
2967.55445	0.02963
2966.26868	0.02988
2964.98291	0.03024
2963.69715	0.03060
2962.41138	0.03079
2961.12561	0.03085
2959.83984	0.03095
2958.55407	0.03123
2957.26830	0.03160
2955.98253	0.03189
2954.69676	0.03200
2953.41100	0.03202
2952.12523	0.03211
2950.83946	0.03229
2949.55369	0.03243
2948.26792	0.03231
2946.98215	0.03196
2945.69638	0.03161
2944.41061	0.03148
2943.12484	0.03151
2941.83908	0.03145
2940.55331	0.03120
2939.26754	0.03090
2937.98177	0.03079
2936.69600	0.03094
2935.41023	0.03125
2934.12446	0.03164
2932.83869	0.03202
2931.55293	0.03228
2930.26716	0.03231
2928.98139	0.03218
2927.69562	0.03206
2926.40985	0.03207
2925.12408	0.03215
2923.83831	0.03218
2922.55254	0.03212
2921.26677	0.03201
2919.98101	0.03187
2918.69524	0.03172
2917.40947	0.03158
2916.12370	0.03151
2914.83793	0.03152
2913.55216	0.03158
2912.26639	0.03162
2910.98062	0.03157
2909.69486	0.03137
2908.40909	0.03105
2907.12332	0.03067
2905.83755	0.03029
2904.55178	0.02994
2903.26601	0.02960
2901.98024	0.02929
2900.69447	0.02909
2899.40870	0.02910
2898.12294	0.02930
2896.83717	0.02950
2895.55140	0.02952
2894.26563	0.02936
2892.97986	0.02916
2891.69409	0.02900
2890.40832	0.02892
2889.12255	0.02894
2887.83678	0.02903
2886.55102	0.02911
2885.26525	0.02912
2883.97948	0.02909
2882.69371	0.02902
2881.40794	0.02888
2880.12217	0.02870
2878.83640	0.02859
2877.55063	0.02860
2876.26487	0.02867
2874.97910	0.02868
2873.69333	0.02863
2872.40756	0.02859
2871.12179	0.02856
2869.83602	0.02845
2868.55025	0.02820
2867.26448	0.02792
2865.97871	0.02775
2864.69295	0.02775
2863.40718	0.02785
2862.12141	0.02790
2860.83564	0.02779
2859.54987	0.02750
2858.26410	0.02713
2856.97833	0.02687
2855.69256	0.02687
2854.40680	0.02711
2853.12103	0.02744
2851.83526	0.02764
2850.54949	0.02757
2849.26372	0.02724
2847.97795	0.02677
2846.69218	0.02630
2845.40641	0.02594
2844.12064	0.02574
2842.83488	0.02570
2841.54911	0.02581
2840.26334	0.02599
2838.97757	0.02612
2837.69180	0.02603
2836.40603	0.02563
2835.12026	0.02508
2833.83449	0.02465
2832.54873	0.02453
2831.26296	0.02465
2829.97719	0.02480
2828.69142	0.02484
2827.40565	0.02472
2826.11988	0.02447
2824.83411	0.02421
2823.54834	0.02406
2822.26257	0.02408
2820.97681	0.02416
2819.69104	0.02424
2818.40527	0.02430
2817.11950	0.02435
2815.83373	0.02430
2814.54796	0.02406
2813.26219	0.02363
2811.97642	0.02318
2810.69066	0.02294
2809.40489	0.02299
2808.11912	0.02325
2806.83335	0.02346
2805.54758	0.02342
2804.26181	0.02309
2802.97604	0.02267
2801.69027	0.02239
2800.40450	0.02235
2799.11874	0.02244
2797.83297	0.02256
2796.54720	0.02267
2795.26143	0.02278
2793.97566	0.02281
2792.68989	0.02267
2791.40412	0.02241
2790.11835	0.02218
2788.83259	0.02204
2787.54682	0.02198
2786.26105	0.02193
2784.97528	0.02188
2783.68951	0.02181
2782.40374	0.02171
2781.11797	0.02159
2779.83220	0.02150
2778.54643	0.02150
2777.26067	0.02162
2775.97490	0.02176
2774.68913	0.02182
2773.40336	0.02180
2772.11759	0.02183
2770.83182	0.02198
2769.54605	0.02214
2768.26028	0.02220
2766.97452	0.02212
2765.68875	0.02200
2764.40298	0.02195
2763.11721	0.02196
2761.83144	0.02194
2760.54567	0.02182
2759.25990	0.02169
2757.97413	0.02171
2756.68836	0.02193
2755.40260	0.02223
2754.11683	0.02235
2752.83106	0.02221
2751.54529	0.02192
2750.25952	0.02169
2748.97375	0.02158
2747.68798	0.02154
2746.40221	0.02149
2745.11645	0.02143
2743.83068	0.02146
2742.54491	0.02160
2741.25914	0.02188
2739.97337	0.02220
2738.68760	0.02241
2737.40183	0.02232
2736.11606	0.02193
2734.83029	0.02145
2733.54453	0.02117
2732.25876	0.02119
2730.97299	0.02141
2729.68722	0.02165
2728.40145	0.02174
2727.11568	0.02159
2725.82991	0.02124
2724.54414	0.02088
2723.25838	0.02067
2721.97261	0.02066
2720.68684	0.02074
2719.40107	0.02073
2718.11530	0.02059
2716.82953	0.02035
2715.54376	0.02017
2714.25799	0.02017
2712.97222	0.02035
2711.68646	0.02057
2710.40069	0.02065
2709.11492	0.02052
2707.82915	0.02028
2706.54338	0.02006
2705.25761	0.01997
2703.97184	0.02001
2702.68607	0.02009
2701.40031	0.02014
2700.11454	0.02012
2698.82877	0.02010
2697.54300	0.02012
2696.25723	0.02015
2694.97146	0.02014
2693.68569	0.02008
2692.39992	0.01999
2691.11415	0.01992
2689.82839	0.01991
2688.54262	0.02000
2687.25685	0.02017
2685.97108	0.02033
2684.68531	0.02041
2683.39954	0.02036
2682.11377	0.02021
2680.82800	0.02006
2679.54224	0.02001
2678.25647	0.02010
2676.97070	0.02021
2675.68493	0.02020
2674.39916	0.02006
2673.11339	0.01990
2671.82762	0.01985
2670.54185	0.01992
2669.25608	0.01999
2667.97032	0.01995
2666.68455	0.01979
2665.39878	0.01963
2664.11301	0.01956
2662.82724	0.01962
2661.54147	0.01974
2660.25570	0.01982
2658.96993	0.01981
2657.68417	0.01968
2656.39840	0.01946
2655.11263	0.01924
2653.82686	0.01913
2652.54109	0.01916
2651.25532	0.01924
2649.96955	0.01929
2648.68378	0.01932
2647.39801	0.01934
2646.11225	0.01934
2644.82648	0.01926
2643.54071	0.01908
2642.25494	0.01883
2640.96917	0.01860
2639.68340	0.01844
2638.39763	0.01840
2637.11186	0.01850
2635.82609	0.01875
2634.54033	0.01906
2633.25456	0.01921
2631.96879	0.01903
2630.68302	0.01862
2629.39725	0.01823
2628.11148	0.01797
2626.82571	0.01777
2625.53994	0.01756
2624.25418	0.01737
2622.96841	0.01729
2621.68264	0.01728
2620.39687	0.01724
2619.11110	0.01712
2617.82533	0.01704
2616.53956	0.01719
2615.25379	0.01764
2613.96802	0.01819
2612.68226	0.01846
2611.39649	0.01824
2610.11072	0.01770
2608.82495	0.01725
2607.53918	0.01713
2606.25341	0.01728
2604.96764	0.01742
2603.68187	0.01735
2602.39611	0.01716
2601.11034	0.01705
2599.82457	0.01713
2598.53880	0.01727
2597.25303	0.01731
2595.96726	0.01723
2594.68149	0.01709
2593.39572	0.01682
2592.10995	0.01640
2590.82419	0.01599
2589.53842	0.01579
2588.25265	0.01581
2586.96688	0.01588
2585.68111	0.01597
2584.39534	0.01611
2583.10957	0.01626
2581.82380	0.01631
2580.53804	0.01620
2579.25227	0.01601
2577.96650	0.01587
2576.68073	0.01601
2575.39496	0.01646
2574.10919	0.01694
2572.82342	0.01701
2571.53765	0.01655
2570.25188	0.01587
2568.96612	0.01548
2567.68035	0.01554
2566.39458	0.01585
2565.10881	0.01610
2563.82304	0.01615
2562.53727	0.01605
2561.25150	0.01584
2559.96573	0.01551
2558.67997	0.01509
2557.39420	0.01466
2556.10843	0.01432
2554.82266	0.01414
2553.53689	0.01415
2552.25112	0.01433
2550.96535	0.01458
2549.67958	0.01475
2548.39381	0.01479
2547.10805	0.01481
2545.82228	0.01494
2544.53651	0.01521
2543.25074	0.01547
2541.96497	0.01556
2540.67920	0.01543
2539.39343	0.01522
2538.10766	0.01508
2536.82190	0.01503
2535.53613	0.01506
2534.25036	0.01515
2532.96459	0.01527
2531.67882	0.01538
2530.39305	0.01545
2529.10728	0.01545
2527.82151	0.01529
2526.53574	0.01493
2525.24998	0.01448
2523.96421	0.01416
2522.67844	0.01408
2521.39267	0.01407
2520.10690	0.01395
2518.82113	0.01375
2517.53536	0.01369
2516.24959	0.01385
2514.96383	0.01409
2513.67806	0.01423
2512.39229	0.01433
2511.10652	0.01448
2509.82075	0.01464
2508.53498	0.01459
2507.24921	0.01430
2505.96344	0.01400
2504.67767	0.01394
2503.39191	0.01413
2502.10614	0.01439
2500.82037	0.01456
2499.53460	0.01465
2498.24883	0.01468
2496.96306	0.01470
2495.67729	0.01471
2494.39152	0.01470
2493.10576	0.01461
2491.81999	0.01440
2490.53422	0.01408
2489.24845	0.01369
2487.96268	0.01335
2486.67691	0.01326
2485.39114	0.01346
2484.10537	0.01378
2482.81960	0.01389
2481.53384	0.01367
2480.24807	0.01328
2478.96230	0.01299
2477.67653	0.01292
2476.39076	0.01304
2475.10499	0.01327
2473.81922	0.01349
2472.53345	0.01363
2471.24769	0.01365
2469.96192	0.01362
2468.67615	0.01366
2467.39038	0.01382
2466.10461	0.01407
2464.81884	0.01434
2463.53307	0.01450
2462.24730	0.01445
2460.96153	0.01420
2459.67577	0.01390
2458.39000	0.01367
2457.10423	0.01353
2455.81846	0.01350
2454.53269	0.01364
2453.24692	0.01392
2451.96115	0.01418
2450.67538	0.01422
2449.38962	0.01403
2448.10385	0.01371
2446.81808	0.01339
2445.53231	0.01315
2444.24654	0.01304
2442.96077	0.01307
2441.67500	0.01322
2440.38923	0.01335
2439.10346	0.01336
2437.81770	0.01326
2436.53193	0.01318
2435.24616	0.01318
2433.96039	0.01326
2432.67462	0.01338
2431.38885	0.01351
2430.10308	0.01356
2428.81731	0.01351
2427.53155	0.01346
2426.24578	0.01353
2424.96001	0.01365
2423.67424	0.01358
2422.38847	0.01321
2421.10270	0.01272
2419.81693	0.01240
2418.53116	0.01242
2417.24539	0.01267
2415.95963	0.01301
2414.67386	0.01335
2413.38809	0.01368
2412.10232	0.01385
2410.81655	0.01374
2409.53078	0.01337
2408.24501	0.01298
2406.95924	0.01282
2405.67347	0.01294
2404.38771	0.01324
2403.10194	0.01355
2401.81617	0.01370
2400.53040	0.01357
2399.24463	0.01313
2397.95886	0.01253
2396.67309	0.01205
2395.38732	0.01192
2394.10156	0.01217
2392.81579	0.01262
2391.53002	0.01298
2390.24425	0.01311
2388.95848	0.01303
2387.67271	0.01289
2386.38694	0.01283
2385.10117	0.01291
2383.81540	0.01306
2382.52964	0.01314
2381.24387	0.01308
2379.95810	0.01293
2378.67233	0.01281
2377.38656	0.01282
2376.10079	0.01294
2374.81502	0.01312
2373.52925	0.01324
2372.24349	0.01332
2370.95772	0.01335
2369.67195	0.01343
2368.38618	0.01354
2367.10041	0.01366
2365.81464	0.01371
2364.52887	0.01372
2363.24310	0.01364
2361.95733	0.01349
2360.67157	0.01335
2359.38580	0.01342
2358.10003	0.01367
2356.81426	0.01394
2355.52849	0.01419
2354.24272	0.01447
2352.95695	0.01473
2351.67118	0.01478
2350.38542	0.01462
2349.09965	0.01443
2347.81388	0.01427
2346.52811	0.01397
2345.24234	0.01376
2343.95657	0.01405
2342.67080	0.01464
2341.38503	0.01469
2340.09926	0.01413
2338.81350	0.01400
2337.52773	0.01451
2336.24196	0.01458
2334.95619	0.01419
2333.67042	0.01435
2332.38465	0.01474
2331.09888	0.01427
2329.81311	0.01384
2328.52735	0.01440
2327.24158	0.01467
2325.95581	0.01471
2324.67004	0.01528
2323.38427	0.01539
2322.09850	0.01490
2320.81273	0.01484
2319.52696	0.01469
2318.24119	0.01449
2316.95543	0.01460
2315.66966	0.01442
2314.38389	0.01403
2313.09812	0.01380
2311.81235	0.01354
2310.52658	0.01341
2309.24081	0.01327
2307.95504	0.01302
2306.66928	0.01292
2305.38351	0.01292
2304.09774	0.01300
2302.81197	0.01308
2301.52620	0.01309
2300.24043	0.01306
2298.95466	0.01288
2297.66889	0.01253
2296.38312	0.01214
2295.09736	0.01202
2293.81159	0.01232
2292.52582	0.01284
2291.24005	0.01324
2289.95428	0.01329
2288.66851	0.01301
2287.38274	0.01263
2286.09697	0.01240
2284.81121	0.01242
2283.52544	0.01253
2282.23967	0.01249
2280.95390	0.01220
2279.66813	0.01184
2278.38236	0.01168
2277.09659	0.01185
2275.81082	0.01221
2274.52505	0.01250
2273.23929	0.01256
2271.95352	0.01244
2270.66775	0.01227
2269.38198	0.01215
2268.09621	0.01208
2266.81044	0.01194
2265.52467	0.01162
2264.23890	0.01107
2262.95314	0.01040
2261.66737	0.00983
2260.38160	0.00965
2259.09583	0.00992
2257.81006	0.01044
2256.52429	0.01079
2255.23852	0.01071
2253.95275	0.01030
2252.66698	0.00987
2251.38122	0.00961
2250.09545	0.00946
2248.80968	0.00923
2247.52391	0.00890
2246.23814	0.00880
2244.95237	0.00924
2243.66660	0.01012
2242.38083	0.01088
2241.09507	0.01093
2239.80930	0.01030
2238.52353	0.00972
2237.23776	0.00991
2235.95199	0.01072
2234.66622	0.01131
2233.38045	0.01103
2232.09468	0.00996
2230.80891	0.00865
2229.52315	0.00755
2228.23738	0.00688
2226.95161	0.00684
2225.66584	0.00742
2224.38007	0.00822
2223.09430	0.00868
2221.80853	0.00863
2220.52276	0.00844
2219.23700	0.00857
2217.95123	0.00903
2216.66546	0.00947
2215.37969	0.00957
2214.09392	0.00920
2212.80815	0.00845
2211.52238	0.00766
2210.23661	0.00729
2208.95084	0.00742
2207.66508	0.00758
2206.37931	0.00735
2205.09354	0.00692
2203.80777	0.00683
2202.52200	0.00728
2201.23623	0.00788
2199.95046	0.00804
2198.66469	0.00753
2197.37893	0.00673
2196.09316	0.00618
2194.80739	0.00594
2193.52162	0.00563
2192.23585	0.00508
2190.95008	0.00451
2189.66431	0.00407
2188.37854	0.00370
2187.09277	0.00342
2185.80701	0.00346
2184.52124	0.00389
2183.23547	0.00441
2181.94970	0.00463
2180.66393	0.00445
2179.37816	0.00410
2178.09239	0.00393
2176.80662	0.00413
2175.52085	0.00454
2174.23509	0.00493
2172.94932	0.00525
2171.66355	0.00554
2170.37778	0.00577
2169.09201	0.00579
2167.80624	0.00544
2166.52047	0.00459
2165.23470	0.00329
2163.94894	0.00192
2162.66317	0.00102
2161.37740	0.00086
2160.09163	0.00120
2158.80586	0.00158
2157.52009	0.00179
2156.23432	0.00194
2154.94855	0.00215
2153.66278	0.00228
2152.37702	0.00216
2151.09125	0.00190
2149.80548	0.00188
2148.51971	0.00235
2147.23394	0.00323
2145.94817	0.00419
2144.66240	0.00480
2143.37663	0.00476
2142.09087	0.00413
2140.80510	0.00332
2139.51933	0.00288
2138.23356	0.00316
2136.94779	0.00409
2135.66202	0.00513
2134.37625	0.00568
2133.09048	0.00564
2131.80471	0.00538
2130.51895	0.00520
2129.23318	0.00504
2127.94741	0.00484
2126.66164	0.00485
2125.37587	0.00539
2124.09010	0.00636
2122.80433	0.00737
2121.51856	0.00805
2120.23280	0.00822
2118.94703	0.00783
2117.66126	0.00700
2116.37549	0.00605
2115.08972	0.00540
2113.80395	0.00529
2112.51818	0.00570
2111.23241	0.00643
2109.94664	0.00707
2108.66088	0.00710
2107.37511	0.00623
2106.08934	0.00486
2104.80357	0.00390
2103.51780	0.00402
2102.23203	0.00507
2100.94626	0.00623
2099.66049	0.00679
2098.37473	0.00653
2097.08896	0.00584
2095.80319	0.00533
2094.51742	0.00532
2093.23165	0.00574
2091.94588	0.00621
2090.66011	0.00638
2089.37434	0.00615
2088.08857	0.00569
2086.80281	0.00522
2085.51704	0.00496
2084.23127	0.00507
2082.94550	0.00553
2081.65973	0.00604
2080.37396	0.00625
2079.08819	0.00611
2077.80242	0.00588
2076.51666	0.00578
2075.23089	0.00565
2073.94512	0.00525
2072.65935	0.00477
2071.37358	0.00463
2070.08781	0.00492
2068.80204	0.00521
2067.51627	0.00501
2066.23050	0.00433
2064.94474	0.00366
2063.65897	0.00340
2062.37320	0.00351
2061.08743	0.00364
2059.80166	0.00358
2058.51589	0.00353
2057.23012	0.00375
2055.94435	0.00426
2054.65859	0.00476
2053.37282	0.00485
2052.08705	0.00430
2050.80128	0.00322
2049.51551	0.00206
2048.22974	0.00145
2046.94397	0.00181
2045.65820	0.00292
2044.37243	0.00409
2043.08667	0.00465
2041.80090	0.00446
2040.51513	0.00382
2039.22936	0.00301
2037.94359	0.00200
2036.65782	0.00081
2035.37205	-0.00024
2034.08628	-0.00076
2032.80052	-0.00070
2031.51475	-0.00033
2030.22898	0.00019
2028.94321	0.00094
2027.65744	0.00189
2026.37167	0.00284
2025.08590	0.00356
2023.80013	0.00390
2022.51436	0.00374
2021.22860	0.00306
2019.94283	0.00214
2018.65706	0.00148
2017.37129	0.00135
2016.08552	0.00160
2014.79975	0.00195
2013.51398	0.00230
2012.22821	0.00268
2010.94245	0.00285
2009.65668	0.00243
2008.37091	0.00134
2007.08514	0.00003
2005.79937	-0.00077
2004.51360	-0.00060
2003.22783	0.00049
2001.94206	0.00201
2000.65629	0.00319
1999.37053	0.00349
1998.08476	0.00303
1996.79899	0.00252
1995.51322	0.00261
1994.22745	0.00333
1992.94168	0.00417
1991.65591	0.00467
1990.37014	0.00472
1989.08438	0.00443
1987.79861	0.00395
1986.51284	0.00346
1985.22707	0.00315
1983.94130	0.00325
1982.65553	0.00383
1981.36976	0.00466
1980.08399	0.00520
1978.79822	0.00508
1977.51246	0.00454
1976.22669	0.00411
1974.94092	0.00386
1973.65515	0.00344
1972.36938	0.00276
1971.08361	0.00216
1969.79784	0.00186
1968.51207	0.00172
1967.22631	0.00172
1965.94054	0.00221
1964.65477	0.00342
1963.36900	0.00497
1962.08323	0.00608
1960.79746	0.00627
1959.51169	0.00573
1958.22592	0.00504
1956.94015	0.00465
1955.65439	0.00462
1954.36862	0.00486
1953.08285	0.00528
1951.79708	0.00584
1950.51131	0.00644
1949.22554	0.00690
1947.93977	0.00703
1946.65400	0.00672
1945.36823	0.00610
1944.08247	0.00547
1942.79670	0.00515
1941.51093	0.00520
1940.22516	0.00546
1938.93939	0.00574
1937.65362	0.00593
1936.36785	0.00602
1935.08208	0.00603
1933.79632	0.00602
1932.51055	0.00599
1931.22478	0.00595
1929.93901	0.00588
1928.65324	0.00583
1927.36747	0.00594
1926.08170	0.00623
1924.79593	0.00660
1923.51016	0.00689
1922.22440	0.00707
1920.93863	0.00717
1919.65286	0.00721
1918.36709	0.00714
1917.08132	0.00698
1915.79555	0.00682
1914.50978	0.00675
1913.22401	0.00677
1911.93825	0.00681
1910.65248	0.00676
1909.36671	0.00655
1908.08094	0.00625
1906.79517	0.00608
1905.50940	0.00621
1904.22363	0.00657
1902.93786	0.00687
1901.65209	0.00688
1900.36633	0.00669
1899.08056	0.00655
1897.79479	0.00661
1896.50902	0.00679
1895.22325	0.00687
1893.93748	0.00680
1892.65171	0.00675
1891.36594	0.00689
1890.08018	0.00720
1888.79441	0.00743
1887.50864	0.00734
1886.22287	0.00696
1884.93710	0.00659
1883.65133	0.00644
1882.36556	0.00654
1881.07979	0.00673
1879.79402	0.00686
1878.50826	0.00688
1877.22249	0.00680
1875.93672	0.00667
1874.65095	0.00652
1873.36518	0.00641
1872.07941	0.00640
1870.79364	0.00650
1869.50787	0.00668
1868.22211	0.00686
1866.93634	0.00694
1865.65057	0.00689
1864.36480	0.00675
1863.07903	0.00658
1861.79326	0.00644
1860.50749	0.00637
1859.22172	0.00641
1857.93595	0.00654
1856.65019	0.00672
1855.36442	0.00689
1854.07865	0.00700
1852.79288	0.00706
1851.50711	0.00712
1850.22134	0.00720
1848.93557	0.00729
1847.64980	0.00731
1846.36404	0.00725
1845.07827	0.00719
1843.79250	0.00724
1842.50673	0.00737
1841.22096	0.00745
1839.93519	0.00738
1838.64942	0.00725
1837.36365	0.00717
1836.07788	0.00719
1834.79212	0.00724
1833.50635	0.00723
1832.22058	0.00718
1830.93481	0.00719
1829.64904	0.00735
1828.36327	0.00761
1827.07750	0.00782
1825.79173	0.00786
1824.50597	0.00778
1823.22020	0.00764
1821.93443	0.00748
1820.64866	0.00731
1819.36289	0.00713
1818.07712	0.00695
1816.79135	0.00683
1815.50558	0.00681
1814.21981	0.00693
1812.93405	0.00718
1811.64828	0.00750
1810.36251	0.00780
1809.07674	0.00802
1807.79097	0.00813
1806.50520	0.00812
1805.21943	0.00801
1803.93366	0.00788
1802.64790	0.00776
1801.36213	0.00766
1800.07636	0.00760
1798.79059	0.00761
1797.50482	0.00772
1796.21905	0.00791
1794.93328	0.00811
1793.64751	0.00824
1792.36174	0.00826
1791.07598	0.00825
1789.79021	0.00826
1788.50444	0.00832
1787.21867	0.00839
1785.93290	0.00838
1784.64713	0.00829
1783.36136	0.00815
1782.07559	0.00804
1780.78983	0.00801
1779.50406	0.00809
1778.21829	0.00821
1776.93252	0.00833
1775.64675	0.00839
1774.36098	0.00839
1773.07521	0.00839
1771.78944	0.00849
1770.50367	0.00865
1769.21791	0.00878
1767.93214	0.00880
1766.64637	0.00877
1765.36060	0.00875
1764.07483	0.00876
1762.78906	0.00882
1761.50329	0.00891
1760.21752	0.00897
1758.93176	0.00893
1757.64599	0.00882
1756.36022	0.00877
1755.07445	0.00886
1753.78868	0.00903
1752.50291	0.00917
1751.21714	0.00922
1749.93137	0.00923
1748.64560	0.00921
1747.35984	0.00921
1746.07407	0.00924
1744.78830	0.00925
1743.50253	0.00925
1742.21676	0.00922
1740.93099	0.00922
1739.64522	0.00926
1738.35945	0.00935
1737.07369	0.00943
1735.78792	0.00942
1734.50215	0.00941
1733.21638	0.00951
1731.93061	0.00968
1730.64484	0.00982
1729.35907	0.00988
1728.07330	0.00991
1726.78753	0.00992
1725.50177	0.00993
1724.21600	0.00997
1722.93023	0.01010
1721.64446	0.01031
1720.35869	0.01054
1719.07292	0.01074
1717.78715	0.01096
1716.50138	0.01120
1715.21561	0.01139
1713.92985	0.01149
1712.64408	0.01151
1711.35831	0.01157
1710.07254	0.01170
1708.78677	0.01191
1707.50100	0.01212
1706.21523	0.01231
1704.92946	0.01254
1703.64370	0.01280
1702.35793	0.01302
1701.07216	0.01319
1699.78639	0.01341
1698.50062	0.01362
1697.21485	0.01367
1695.92908	0.01364
1694.64331	0.01369
1693.35754	0.01383
1692.07178	0.01394
1690.78601	0.01404
1689.50024	0.01423
1688.21447	0.01452
1686.92870	0.01482
1685.64293	0.01505
1684.35716	0.01526
1683.07139	0.01547
1681.78563	0.01557
1680.49986	0.01558
1679.21409	0.01558
1677.92832	0.01562
1676.64255	0.01565
1675.35678	0.01571
1674.07101	0.01584
1672.78524	0.01601
1671.49947	0.01617
1670.21371	0.01633
1668.92794	0.01651
1667.64217	0.01674
1666.35640	0.01696
1665.07063	0.01714
1663.78486	0.01727
1662.49909	0.01738
1661.21332	0.01747
1659.92756	0.01757
1658.64179	0.01773
1657.35602	0.01802
1656.07025	0.01834
1654.78448	0.01853
1653.49871	0.01859
1652.21294	0.01867
1650.92717	0.01878
1649.64140	0.01882
1648.35564	0.01878
1647.06987	0.01875
1645.78410	0.01877
1644.49833	0.01877
1643.21256	0.01872
1641.92679	0.01868
1640.64102	0.01875
1639.35525	0.01890
1638.06949	0.01901
1636.78372	0.01902
1635.49795	0.01898
1634.21218	0.01898
1632.92641	0.01901
1631.64064	0.01904
1630.35487	0.01907
1629.06910	0.01912
1627.78333	0.01918
1626.49757	0.01922
1625.21180	0.01919
1623.92603	0.01914
1622.64026	0.01913
1621.35449	0.01921
1620.06872	0.01933
1618.78295	0.01942
1617.49718	0.01946
1616.21142	0.01952
1614.92565	0.01965
1613.63988	0.01979
1612.35411	0.01993
1611.06834	0.02007
1609.78257	0.02021
1608.49680	0.02035
1607.21103	0.02053
1605.92526	0.02074
1604.63950	0.02094
1603.35373	0.02106
1602.06796	0.02113
1600.78219	0.02120
1599.49642	0.02130
1598.21065	0.02143
1596.92488	0.02154
1595.63911	0.02159
1594.35335	0.02162
1593.06758	0.02166
1591.78181	0.02174
1590.49604	0.02187
1589.21027	0.02204
1587.92450	0.02222
1586.63873	0.02239
1585.35296	0.02254
1584.06719	0.02266
1582.78143	0.02278
1581.49566	0.02290
1580.20989	0.02304
1578.92412	0.02316
1577.63835	0.02326
1576.35258	0.02338
1575.06681	0.02358
1573.78104	0.02377
1572.49528	0.02386
1571.20951	0.02389
1569.92374	0.02397
1568.63797	0.02415
1567.35220	0.02437
1566.06643	0.02456
1564.78066	0.02473
1563.49489	0.02494
1562.20912	0.02515
1560.92336	0.02533
1559.63759	0.02547
1558.35182	0.02564
1557.06605	0.02578
1555.78028	0.02581
1554.49451	0.02577
1553.20874	0.02580
1551.92297	0.02589
1550.63721	0.02595
1549.35144	0.02597
1548.06567	0.02595
1546.77990	0.02592
1545.49413	0.02597
1544.20836	0.02609
1542.92259	0.02623
1541.63682	0.02627
1540.35105	0.02620
1539.06529	0.02609
1537.77952	0.02601
1536.49375	0.02592
1535.20798	0.02584
1533.92221	0.02584
1532.63644	0.02595
1531.35067	0.02614
1530.06490	0.02631
1528.77914	0.02649
1527.49337	0.02670
1526.20760	0.02697
1524.92183	0.02732
1523.63606	0.02772
1522.35029	0.02816
1521.06452	0.02869
1519.77875	0.02926
1518.49298	0.02979
1517.20722	0.03026
1515.92145	0.03073
1514.63568	0.03129
1513.34991	0.03196
1512.06414	0.03278
1510.77837	0.03371
1509.49260	0.03462
1508.20683	0.03542
1506.92107	0.03610
1505.63530	0.03676
1504.34953	0.03737
1503.06376	0.03790
1501.77799	0.03837
1500.49222	0.03886
1499.20645	0.03935
1497.92068	0.03983
1496.63491	0.04028
1495.34915	0.04076
1494.06338	0.04124
1492.77761	0.04170
1491.49184	0.04215
1490.20607	0.04265
1488.92030	0.04317
1487.63453	0.04366
1486.34876	0.04413
1485.06299	0.04460
1483.77723	0.04512
1482.49146	0.04564
1481.20569	0.04614
1479.91992	0.04663
1478.63415	0.04713
1477.34838	0.04772
1476.06261	0.04836
1474.77684	0.04899
1473.49108	0.04950
1472.20531	0.04991
1470.91954	0.05024
1469.63377	0.05048
1468.34800	0.05067
1467.06223	0.05085
1465.77646	0.05104
1464.49069	0.05123
1463.20492	0.05145
1461.91916	0.05171
1460.63339	0.05204
1459.34762	0.05242
1458.06185	0.05279
1456.77608	0.05318
1455.49031	0.05356
1454.20454	0.05387
1452.91877	0.05408
1451.63301	0.05426
1450.34724	0.05446
1449.06147	0.05466
1447.77570	0.05479
1446.48993	0.05483
1445.20416	0.05481
1443.91839	0.05474
1442.63262	0.05463
1441.34685	0.05448
1440.06109	0.05428
1438.77532	0.05405
1437.48955	0.05385
1436.20378	0.05382
1434.91801	0.05397
1433.63224	0.05424
1432.34647	0.05458
1431.06070	0.05503
1429.77494	0.05562
1428.48917	0.05636
1427.20340	0.05717
1425.91763	0.05797
1424.63186	0.05876
1423.34609	0.05954
1422.06032	0.06029
1420.77455	0.06099
1419.48878	0.06162
1418.20302	0.06218
1416.91725	0.06263
1415.63148	0.06293
1414.34571	0.06306
1413.05994	0.06302
1411.77417	0.06282
1410.48840	0.06251
1409.20263	0.06213
1407.91687	0.06167
1406.63110	0.06111
1405.34533	0.06043
1404.05956	0.05968
1402.77379	0.05886
1401.48802	0.05795
1400.20225	0.05692
1398.91648	0.05579
1397.63071	0.05461
1396.34495	0.05336
1395.05918	0.05206
1393.77341	0.05075
1392.48764	0.04948
1391.20187	0.04826
1389.91610	0.04708
1388.63033	0.04592
1387.34456	0.04478
1386.05880	0.04365
1384.77303	0.04249
1383.48726	0.04132
1382.20149	0.04017
1380.91572	0.03907
1379.62995	0.03799
1378.34418	0.03689
1377.05841	0.03574
1375.77264	0.03453
1374.48688	0.03331
1373.20111	0.03214
1371.91534	0.03107
1370.62957	0.03007
1369.34380	0.02912
1368.05803	0.02821
1366.77226	0.02734
1365.48649	0.02651
1364.20073	0.02573
1362.91496	0.02500
1361.62919	0.02430
1360.34342	0.02362
1359.05765	0.02295
1357.77188	0.02231
1356.48611	0.02173
1355.20034	0.02120
1353.91457	0.02068
1352.62881	0.02016
1351.34304	0.01966
1350.05727	0.01921
1348.77150	0.01885
1347.48573	0.01856
1346.19996	0.01832
1344.91419	0.01810
1343.62842	0.01786
1342.34266	0.01761
1341.05689	0.01734
1339.77112	0.01707
1338.48535	0.01680
1337.19958	0.01654
1335.91381	0.01630
1334.62804	0.01609
1333.34227	0.01587
1332.05650	0.01566
1330.77074	0.01547
1329.48497	0.01530
1328.19920	0.01512
1326.91343	0.01492
1325.62766	0.01471
1324.34189	0.01455
1323.05612	0.01448
1321.77035	0.01445
1320.48459	0.01443
1319.19882	0.01436
1317.91305	0.01427
1316.62728	0.01417
1315.34151	0.01407
1314.05574	0.01397
1312.76997	0.01386
1311.48420	0.01374
1310.19843	0.01360
1308.91267	0.01345
1307.62690	0.01332
1306.34113	0.01321
1305.05536	0.01313
1303.76959	0.01306
1302.48382	0.01295
1301.19805	0.01282
1299.91228	0.01268
1298.62652	0.01257
1297.34075	0.01250
1296.05498	0.01246
1294.76921	0.01247
1293.48344	0.01248
1292.19767	0.01247
1290.91190	0.01240
1289.62613	0.01225
1288.34036	0.01206
1287.05460	0.01191
1285.76883	0.01183
1284.48306	0.01182
1283.19729	0.01182
1281.91152	0.01179
1280.62575	0.01169
1279.33998	0.01156
1278.05421	0.01144
1276.76845	0.01140
1275.48268	0.01144
1274.19691	0.01151
1272.91114	0.01153
1271.62537	0.01151
1270.33960	0.01144
1269.05383	0.01138
1267.76806	0.01133
1266.48229	0.01131
1265.19653	0.01129
1263.91076	0.01126
1262.62499	0.01121
1261.33922	0.01113
1260.05345	0.01104
1258.76768	0.01096
1257.48191	0.01089
1256.19614	0.01083
1254.91037	0.01076
1253.62461	0.01068
1252.33884	0.01060
1251.05307	0.01055
1249.76730	0.01055
1248.48153	0.01056
1247.19576	0.01056
1245.90999	0.01052
1244.62422	0.01045
1243.33846	0.01037
1242.05269	0.01032
1240.76692	0.01030
1239.48115	0.01031
1238.19538	0.01030
1236.90961	0.01027
1235.62384	0.01022
1234.33807	0.01017
1233.05230	0.01011
1231.76654	0.01005
1230.48077	0.00997
1229.19500	0.00990
1227.90923	0.00984
1226.62346	0.00980
1225.33769	0.00977
1224.05192	0.00974
1222.76615	0.00973
1221.48039	0.00976
1220.19462	0.00982
1218.90885	0.00987
1217.62308	0.00988
1216.33731	0.00984
1215.05154	0.00976
1213.76577	0.00968
1212.48000	0.00964
1211.19423	0.00965
1209.90847	0.00969
1208.62270	0.00971
1207.33693	0.00970
1206.05116	0.00966
1204.76539	0.00962
1203.47962	0.00959
1202.19385	0.00960
1200.90808	0.00963
1199.62232	0.00965
1198.33655	0.00968
1197.05078	0.00968
1195.76501	0.00967
1194.47924	0.00964
1193.19347	0.00960
1191.90770	0.00956
1190.62193	0.00955
1189.33616	0.00956
1188.05040	0.00958
1186.76463	0.00960
1185.47886	0.00966
1184.19309	0.00976
1182.90732	0.00990
1181.62155	0.01000
1180.33578	0.01003
1179.05001	0.00999
1177.76425	0.00993
1176.47848	0.00992
1175.19271	0.01001
1173.90694	0.01021
1172.62117	0.01049
1171.33540	0.01076
1170.04963	0.01093
1168.76386	0.01098
1167.47809	0.01099
1166.19233	0.01104
1164.90656	0.01119
1163.62079	0.01138
1162.33502	0.01155
1161.04925	0.01168
1159.76348	0.01178
1158.47771	0.01189
1157.19194	0.01202
1155.90618	0.01220
1154.62041	0.01242
1153.33464	0.01266
1152.04887	0.01288
1150.76310	0.01309
1149.47733	0.01336
1148.19156	0.01373
1146.90579	0.01421
1145.62002	0.01476
1144.33426	0.01540
1143.04849	0.01613
1141.76272	0.01693
1140.47695	0.01770
1139.19118	0.01844
1137.90541	0.01921
1136.61964	0.02012
1135.33387	0.02118
1134.04811	0.02231
1132.76234	0.02351
1131.47657	0.02482
1130.19080	0.02631
1128.90503	0.02795
1127.61926	0.02973
1126.33349	0.03164
1125.04772	0.03369
1123.76195	0.03589
1122.47619	0.03819
1121.19042	0.04055
1119.90465	0.04298
1118.61888	0.04547
1117.33311	0.04794
1116.04734	0.05032
1114.76157	0.05260
1113.47580	0.05487
1112.19004	0.05715
1110.90427	0.05940
1109.61850	0.06153
1108.33273	0.06355
1107.04696	0.06551
1105.76119	0.06746
1104.47542	0.06937
1103.18965	0.07124
1101.90388	0.07307
1100.61812	0.07489
1099.33235	0.07668
1098.04658	0.07842
1096.76081	0.08008
1095.47504	0.08167
1094.18927	0.08316
1092.90350	0.08458
1091.61773	0.08594
1090.33197	0.08729
1089.04620	0.08864
1087.76043	0.08998
1086.47466	0.09130
1085.18889	0.09260
1083.90312	0.09390
1082.61735	0.09523
1081.33158	0.09667
1080.04581	0.09827
1078.76005	0.10000
1077.47428	0.10182
1076.18851	0.10371
1074.90274	0.10565
1073.61697	0.10765
1072.33120	0.10969
1071.04543	0.11173
1069.75966	0.11376
1068.47390	0.11580
1067.18813	0.11790
1065.90236	0.12011
1064.61659	0.12246
1063.33082	0.12490
1062.04505	0.12734
1060.75928	0.12971
1059.47351	0.13199
1058.18774	0.13420
1056.90198	0.13635
1055.61621	0.13849
1054.33044	0.14063
1053.04467	0.14281
1051.75890	0.14500
1050.47313	0.14715
1049.18736	0.14927
1047.90159	0.15140
1046.61583	0.15359
1045.33006	0.15582
1044.04429	0.15809
1042.75852	0.16036
1041.47275	0.16264
1040.18698	0.16493
1038.90121	0.16725
1037.61544	0.16958
1036.32967	0.17187
1035.04391	0.17409
1033.75814	0.17618
1032.47237	0.17808
1031.18660	0.17975
1029.90083	0.18119
1028.61506	0.18239
1027.32929	0.18334
1026.04352	0.18405
1024.75775	0.18453
1023.47199	0.18474
1022.18622	0.18464
1020.90045	0.18419
1019.61468	0.18341
1018.32891	0.18231
1017.04314	0.18089
1015.75737	0.17918
1014.47160	0.17725
1013.18584	0.17507
1011.90007	0.17257
1010.61430	0.16967
1009.32853	0.16639
1008.04276	0.16282
1006.75699	0.15900
1005.47122	0.15495
1004.18545	0.15068
1002.89968	0.14620
1001.61392	0.14157
1000.32815	0.13682
999.04238	0.13199
997.75661	0.12711
996.47084	0.12226
995.18507	0.11746
993.89930	0.11269
992.61353	0.10794
991.32777	0.10325
990.04200	0.09871
988.75623	0.09440
987.47046	0.09030
986.18469	0.08641
984.89892	0.08270
983.61315	0.07918
982.32738	0.07585
981.04161	0.07274
979.75585	0.06988
978.47008	0.06722
977.18431	0.06475
975.89854	0.06252
974.61277	0.06060
973.32700	0.05903
972.04123	0.05782
970.75546	0.05696
969.46970	0.05647
968.18393	0.05635
966.89816	0.05662
965.61239	0.05723
964.32662	0.05801
963.04085	0.05871
961.75508	0.05912
960.46931	0.05914
959.18354	0.05876
957.89778	0.05805
956.61201	0.05702
955.32624	0.05571
954.04047	0.05420
952.75470	0.05260
951.46893	0.05098
950.18316	0.04943
948.89739	0.04795
947.61163	0.04652
946.32586	0.04508
945.04009	0.04366
943.75432	0.04231
942.46855	0.04108
941.18278	0.03992
939.89701	0.03877
938.61124	0.03764
937.32547	0.03654
936.03971	0.03552
934.75394	0.03459
933.46817	0.03375
932.18240	0.03300
930.89663	0.03235
929.61086	0.03180
928.32509	0.03133
927.03932	0.03085
925.75356	0.03034
924.46779	0.02983
923.18202	0.02938
921.89625	0.02901
920.61048	0.02867
919.32471	0.02832
918.03894	0.02794
916.75317	0.02756
915.46740	0.02722
914.18164	0.02697
912.89587	0.02683
911.61010	0.02676
910.32433	0.02670
909.03856	0.02659
907.75279	0.02640
906.46702	0.02616
905.18125	0.02591
903.89549	0.02568
902.60972	0.02547
901.32395	0.02522
900.03818	0.02494
898.75241	0.02468
897.46664	0.02444
896.18087	0.02421
894.89510	0.02397
893.60933	0.02381
892.32357	0.02383
891.03780	0.02398
889.75203	0.02419
888.46626	0.02449
887.18049	0.02503
885.89472	0.02594
884.60895	0.02728
883.32318	0.02899
882.03742	0.03089
880.75165	0.03273
879.46588	0.03426
878.18011	0.03541
876.89434	0.03637
875.60857	0.03737
874.32280	0.03844
873.03703	0.03934
871.75126	0.03978
870.46550	0.03962
869.17973	0.03889
867.89396	0.03767
866.60819	0.03610
865.32242	0.03437
864.03665	0.03271
862.75088	0.03127
861.46511	0.03004
860.17935	0.02900
858.89358	0.02811
857.60781	0.02734
856.32204	0.02669
855.03627	0.02611
853.75050	0.02558
852.46473	0.02505
851.17896	0.02453
849.89319	0.02406
848.60743	0.02373
847.32166	0.02357
846.03589	0.02346
844.75012	0.02330
843.46435	0.02308
842.17858	0.02289
840.89281	0.02279
839.60704	0.02277
838.32128	0.02274
837.03551	0.02267
835.74974	0.02255
834.46397	0.02238
833.17820	0.02222
831.89243	0.02208
830.60666	0.02198
829.32089	0.02193
828.03512	0.02194
826.74936	0.02198
825.46359	0.02203
824.17782	0.02204
822.89205	0.02201
821.60628	0.02195
820.32051	0.02183
819.03474	0.02163
817.74897	0.02134
816.46321	0.02105
815.17744	0.02084
813.89167	0.02082
812.60590	0.02097
811.32013	0.02124
810.03436	0.02145
808.74859	0.02150
807.46282	0.02135
806.17705	0.02116
804.89129	0.02106
803.60552	0.02112
802.31975	0.02122
801.03398	0.02125
799.74821	0.02116
798.46244	0.02105
797.17667	0.02100
795.89090	0.02104
794.60513	0.02107
793.31937	0.02104
792.03360	0.02097
790.74783	0.02092
789.46206	0.02087
788.17629	0.02080
786.89052	0.02077
785.60475	0.02079
784.31898	0.02083
783.03322	0.02083
781.74745	0.02078
780.46168	0.02072
779.17591	0.02071
777.89014	0.02074
776.60437	0.02082
775.31860	0.02091
774.03283	0.02097
772.74706	0.02093
771.46130	0.02082
770.17553	0.02071
768.88976	0.02065
767.60399	0.02066
766.31822	0.02074
765.03245	0.02088
763.74668	0.02104
762.46091	0.02116
761.17515	0.02122
759.88938	0.02128
758.60361	0.02136
757.31784	0.02144
756.03207	0.02145
754.74630	0.02139
753.46053	0.02133
752.17476	0.02129
750.88899	0.02123
749.60323	0.02110
748.31746	0.02091
747.03169	0.02073
745.74592	0.02065
744.46015	0.02065
743.17438	0.02069
741.88861	0.02077
740.60284	0.02094
739.31708	0.02116
738.03131	0.02127
736.74554	0.02114
735.45977	0.02084
734.17400	0.02059
732.88823	0.02050
731.60246	0.02050
730.31669	0.02048
729.03092	0.02040
727.74516	0.02035
726.45939	0.02037
725.17362	0.02045
723.88785	0.02059
722.60208	0.02078
721.31631	0.02100
720.03054	0.02119
718.74477	0.02131
717.45901	0.02131
716.17324	0.02122
714.88747	0.02111
713.60170	0.02106
712.31593	0.02110
711.03016	0.02120
709.74439	0.02130
708.45862	0.02133
707.17285	0.02126
705.88709	0.02113
704.60132	0.02101
703.31555	0.02096
702.02978	0.02098
700.74401	0.02103
699.45824	0.02109
698.17247	0.02114
696.88670	0.02116
695.60094	0.02116
694.31517	0.02115
693.02940	0.02117
691.74363	0.02124
690.45786	0.02133
689.17209	0.02140
687.88632	0.02142
686.60055	0.02141
685.31478	0.02136
684.02902	0.02128
682.74325	0.02118
681.45748	0.02108
680.17171	0.02103
678.88594	0.02102
677.60017	0.02104
676.31440	0.02107
675.02863	0.02112
673.74287	0.02120
672.45710	0.02129
671.17133	0.02137
669.88556	0.02145
668.59979	0.02156
667.31402	0.02162
666.02825	0.02153
664.74248	0.02142
663.45671	0.02130
662.17095	0.02119
660.88518	0.02112
659.59941	0.02108
658.31364	0.02103
657.02787	0.02097
655.74210	0.02091
654.45633	0.02090
653.17056	0.02094
651.88480	0.02102
650.59903	0.02111
649.31326	0.02120
648.02749	0.02130
646.74172	0.02141
645.45595	0.02151
644.17018	0.02160
642.88441	0.02169
641.59864	0.02180
640.31288	0.02194
639.02711	0.02210
637.74134	0.02226
636.45557	0.02244
635.16980	0.02269
633.88403	0.02304
632.59826	0.02347
631.31249	0.02393
630.02673	0.02443
628.74096	0.02497
627.45519	0.02540
626.16942	0.02612
624.88365	0.02707
623.59788	0.02809
622.31211	0.02918
621.02634	0.03046
619.74057	0.03179
618.45481	0.03288
617.16904	0.03379
615.88327	0.03498
614.59750	0.03687
613.31173	0.03969
612.02596	0.04373
610.74019	0.04918
609.45442	0.05547
608.16866	0.06132
606.88289	0.06578
605.59712	0.06879
604.31135	0.07062
603.02558	0.07128
601.73981	0.07069
600.45404	0.06916
599.16827	0.06722
597.88250	0.06527
596.59674	0.06341
595.31097	0.06170
594.02520	0.06030
592.73943	0.05936
591.45366	0.05881
590.16789	0.05853
588.88212	0.05852
587.59635	0.05887
586.31059	0.05961
585.02482	0.06065
583.73905	0.06187
582.45328	0.06328
581.16751	0.06490
579.88174	0.06674
578.59597	0.06873
577.31020	0.07079
576.02443	0.07285
574.73867	0.07481
573.45290	0.07658
572.16713	0.07822
570.88136	0.07992
569.59559	0.08187
568.30982	0.08413
567.02405	0.08659
565.73828	0.08904
564.45251	0.09118
563.16675	0.09274
561.88098	0.09340
560.59521	0.09285
559.30944	0.09092
558.02367	0.08771
556.73790	0.08354
555.45213	0.07887
554.16636	0.07408
552.88060	0.06944
551.59483	0.06505
550.30906	0.06099
549.02329	0.05733
547.73752	0.05411
546.45175	0.05127
545.16598	0.04875
543.88021	0.04651
542.59444	0.04454
541.30868	0.04281
540.02291	0.04124
538.73714	0.03978
537.45137	0.03840
536.16560	0.03712
534.87983	0.03592
533.59406	0.03478
532.30829	0.03367
531.02253	0.03264
529.73676	0.03173
528.45099	0.03098
527.16522	0.03034
525.87945	0.02972
524.59368	0.02906
523.30791	0.02836
522.02214	0.02767
520.73637	0.02706
519.45061	0.02652
518.16484	0.02604
516.87907	0.02558
515.59330	0.02513
514.30753	0.02467
513.02176	0.02425
511.73599	0.02391
510.45022	0.02367
509.16446	0.02346
507.87869	0.02317
506.59292	0.02279
505.30715	0.02239
504.02138	0.02202
502.73561	0.02171
501.44984	0.02141
500.16407	0.02108
498.87830	0.02079
497.59254	0.02056
496.30677	0.02041
495.02100	0.02028
493.73523	0.02012
492.44946	0.01998
491.16369	0.01990
489.87792	0.01986
488.59215	0.01979
487.30639	0.01965
486.02062	0.01947
484.73485	0.01933
483.44908	0.01929
482.16331	0.01937
480.87754	0.01953
479.59177	0.01970
478.30600	0.01987
477.02023	0.02005
475.73447	0.02027
474.44870	0.02049
473.16293	0.02067
471.87716	0.02076
470.59139	0.02077
469.30562	0.02072
468.01985	0.02066
466.73408	0.02055
465.44832	0.02038
464.16255	0.02014
462.87678	0.01987
461.59101	0.01958
460.30524	0.01928
459.01947	0.01897
457.73370	0.01872
456.44793	0.01859
455.16216	0.01855
453.87640	0.01852
452.59063	0.01843
451.30486	0.01826
450.01909	0.01805
448.73332	0.01785
447.44755	0.01770
446.16178	0.01760
444.87601	0.01752
443.59025	0.01747
442.30448	0.01744
441.01871	0.01740
439.73294	0.01733
438.44717	0.01724
437.16140	0.01718
435.87563	0.01716
434.58986	0.01719
433.30409	0.01725
432.01833	0.01730
430.73256	0.01731
429.44679	0.01723
428.16102	0.01708
426.87525	0.01692
425.58948	0.01681
424.30371	0.01678
423.01794	0.01680
421.73218	0.01681
420.44641	0.01677
419.16064	0.01667
417.87487	0.01653
416.58910	0.01637
415.30333	0.01623
414.01756	0.01616
412.73179	0.01619
411.44602	0.01629
410.16026	0.01641
408.87449	0.01650
407.58872	0.01653
406.30295	0.01652
405.01718	0.01649
403.73141	0.01647
402.44564	0.01648
401.15987	0.01655
399.87411	0.01667
