3997.45528	0.04066
3996.16951	0.04032
3994.88374	0.03997
3993.59798	0.03967
3992.31221	0.03957
3991.02644	0.03970
3989.74067	0.03995
3988.45490	0.04013
3987.16913	0.04010
3985.88336	0.03994
3984.59759	0.03989
3983.31183	0.04019
3982.02606	0.04085
3980.74029	0.04167
3979.45452	0.04244
3978.16875	0.04303
3976.88298	0.04340
3975.59721	0.04345
3974.31144	0.04308
3973.02567	0.04242
3971.73991	0.04180
3970.45414	0.04138
3969.16837	0.04103
3967.88260	0.04057
3966.59683	0.04008
3965.31106	0.03978
3964.02529	0.03976
3962.73952	0.03989
3961.45376	0.04008
3960.16799	0.04027
3958.88222	0.04039
3957.59645	0.04030
3956.31068	0.04001
3955.02491	0.03968
3953.73914	0.03957
3952.45337	0.03977
3951.16760	0.04015
3949.88184	0.04050
3948.59607	0.04070
3947.31030	0.04083
3946.02453	0.04091
3944.73876	0.04086
3943.45299	0.04072
3942.16722	0.04066
3940.88145	0.04074
3939.59569	0.04078
3938.30992	0.04068
3937.02415	0.04052
3935.73838	0.04039
3934.45261	0.04027
3933.16684	0.04005
3931.88107	0.03967
3930.59530	0.03910
3929.30953	0.03847
3928.02377	0.03803
3926.73800	0.03797
3925.45223	0.03832
3924.16646	0.03891
3922.88069	0.03943
3921.59492	0.03959
3920.30915	0.03932
3919.02338	0.03881
3917.73762	0.03834
3916.45185	0.03815
3915.16608	0.03830
3913.88031	0.03866
3912.59454	0.03918
3911.30877	0.03984
3910.02300	0.04048
3908.73723	0.04084
3907.45146	0.04078
3906.16570	0.04041
3904.87993	0.04005
3903.59416	0.03995
3902.30839	0.03998
3901.02262	0.03987
3899.73685	0.03958
3898.45108	0.03934
3897.16531	0.03936
3895.87955	0.03974
3894.59378	0.04031
3893.30801	0.04070
3892.02224	0.04076
3890.73647	0.04089
3889.45070	0.04123
3888.16493	0.04119
3886.87916	0.04034
3885.59339	0.03929
3884.30763	0.03883
3883.02186	0.03897
3881.73609	0.03919
3880.45032	0.03924
3879.16455	0.03914
3877.87878	0.03878
3876.59301	0.03831
3875.30724	0.03842
3874.02148	0.03963
3872.73571	0.04126
3871.44994	0.04216
3870.16417	0.04222
3868.87840	0.04226
3867.59263	0.04245
3866.30686	0.04232
3865.02109	0.04182
3863.73532	0.04133
3862.44956	0.04109
3861.16379	0.04117
3859.87802	0.04159
3858.59225	0.04220
3857.30648	0.04244
3856.02071	0.04167
3854.73494	0.04015
3853.44917	0.03917
3852.16341	0.03947
3850.87764	0.04038
3849.59187	0.04088
3848.30610	0.04060
3847.02033	0.03971
3845.73456	0.03861
3844.44879	0.03787
3843.16302	0.03795
3841.87725	0.03873
3840.59149	0.03939
3839.30572	0.03927
3838.01995	0.03860
3836.73418	0.03803
3835.44841	0.03778
3834.16264	0.03770
3832.87687	0.03782
3831.59110	0.03817
3830.30534	0.03845
3829.01957	0.03833
3827.73380	0.03802
3826.44803	0.03816
3825.16226	0.03881
3823.87649	0.03912
3822.59072	0.03858
3821.30495	0.03795
3820.01918	0.03805
3818.73342	0.03833
3817.44765	0.03784
3816.16188	0.03698
3814.87611	0.03687
3813.59034	0.03769
3812.30457	0.03892
3811.01880	0.04006
3809.73303	0.04052
3808.44726	0.04004
3807.16150	0.03930
3805.87573	0.03905
3804.58996	0.03878
3803.30419	0.03760
3802.01842	0.03603
3800.73265	0.03550
3799.44688	0.03622
3798.16111	0.03718
3796.87535	0.03777
3795.58958	0.03811
3794.30381	0.03827
3793.01804	0.03819
3791.73227	0.03803
3790.44650	0.03795
3789.16073	0.03789
3787.87496	0.03773
3786.58919	0.03752
3785.30343	0.03743
3784.01766	0.03750
3782.73189	0.03750
3781.44612	0.03722
3780.16035	0.03688
3778.87458	0.03686
3777.58881	0.03716
3776.30304	0.03744
3775.01728	0.03744
3773.73151	0.03720
3772.44574	0.03671
3771.15997	0.03610
3769.87420	0.03568
3768.58843	0.03559
3767.30266	0.03559
3766.01689	0.03560
3764.73112	0.03584
3763.44536	0.03649
3762.15959	0.03736
3760.87382	0.03820
3759.58805	0.03883
3758.30228	0.03908
3757.01651	0.03903
3755.73074	0.03881
3754.44497	0.03826
3753.15921	0.03723
3751.87344	0.03608
3750.58767	0.03561
3749.30190	0.03648
3748.01613	0.03813
3746.73036	0.03870
3745.44459	0.03745
3744.15882	0.03599
3742.87305	0.03584
3741.58729	0.03660
3740.30152	0.03724
3739.01575	0.03728
3737.72998	0.03676
3736.44421	0.03619
3735.15844	0.03603
3733.87267	0.03609
3732.58690	0.03610
3731.30114	0.03617
3730.01537	0.03629
3728.72960	0.03616
3727.44383	0.03589
3726.15806	0.03596
3724.87229	0.03642
3723.58652	0.03682
3722.30075	0.03684
3721.01498	0.03656
3719.72922	0.03616
3718.44345	0.03576
3717.15768	0.03550
3715.87191	0.03544
3714.58614	0.03550
3713.30037	0.03561
3712.01460	0.03569
3710.72883	0.03564
3709.44307	0.03539
3708.15730	0.03515
3706.87153	0.03524
3705.58576	0.03557
3704.29999	0.03571
3703.01422	0.03546
3701.72845	0.03505
3700.44268	0.03486
3699.15691	0.03488
3697.87115	0.03484
3696.58538	0.03465
3695.29961	0.03446
3694.01384	0.03449
3692.72807	0.03482
3691.44230	0.03519
3690.15653	0.03523
3688.87076	0.03501
3687.58500	0.03485
3686.29923	0.03450
3685.01346	0.03356
3683.72769	0.03230
3682.44192	0.03159
3681.15615	0.03206
3679.87038	0.03366
3678.58461	0.03546
3677.29884	0.03631
3676.01308	0.03613
3674.72731	0.03573
3673.44154	0.03537
3672.15577	0.03474
3670.87000	0.03411
3669.58423	0.03417
3668.29846	0.03477
3667.01269	0.03529
3665.72693	0.03557
3664.44116	0.03582
3663.15539	0.03607
3661.86962	0.03626
3660.58385	0.03649
3659.29808	0.03682
3658.01231	0.03712
3656.72654	0.03736
3655.44077	0.03772
3654.15501	0.03809
3652.86924	0.03807
3651.58347	0.03759
3650.29770	0.03710
3649.01193	0.03699
3647.72616	0.03720
3646.44039	0.03749
3645.15462	0.03778
3643.86886	0.03813
3642.58309	0.03845
3641.29732	0.03862
3640.01155	0.03871
3638.72578	0.03897
3637.44001	0.03955
3636.15424	0.04028
3634.86847	0.04102
3633.58270	0.04182
3632.29694	0.04241
3631.01117	0.04230
3629.72540	0.04157
3628.43963	0.04095
3627.15386	0.04081
3625.86809	0.04085
3624.58232	0.04088
3623.29655	0.04105
3622.01079	0.04142
3620.72502	0.04197
3619.43925	0.04275
3618.15348	0.04366
3616.86771	0.04430
3615.58194	0.04446
3614.29617	0.04443
3613.01040	0.04470
3611.72463	0.04524
3610.43887	0.04554
3609.15310	0.04531
3607.86733	0.04478
3606.58156	0.04424
3605.29579	0.04381
3604.01002	0.04351
3602.72425	0.04336
3601.43848	0.04347
3600.15272	0.04400
3598.86695	0.04486
3597.58118	0.04570
3596.29541	0.04635
3595.00964	0.04697
3593.72387	0.04776
3592.43810	0.04865
3591.15233	0.04929
3589.86656	0.04950
3588.58080	0.04947
3587.29503	0.04942
3586.00926	0.04936
3584.72349	0.04916
3583.43772	0.04880
3582.15195	0.04841
3580.86618	0.04817
3579.58041	0.04829
3578.29464	0.04880
3577.00888	0.04956
3575.72311	0.05031
3574.43734	0.05088
3573.15157	0.05120
3571.86580	0.05128
3570.58003	0.05115
3569.29426	0.05101
3568.00849	0.05106
3566.72273	0.05137
3565.43696	0.05175
3564.15119	0.05202
3562.86542	0.05215
3561.57965	0.05232
3560.29388	0.05269
3559.00811	0.05331
3557.72234	0.05398
3556.43657	0.05441
3555.15081	0.05447
3553.86504	0.05428
3552.57927	0.05405
3551.29350	0.05387
3550.00773	0.05379
3548.72196	0.05398
3547.43619	0.05462
3546.15042	0.05568
3544.86466	0.05685
3543.57889	0.05781
3542.29312	0.05831
3541.00735	0.05820
3539.72158	0.05759
3538.43581	0.05682
3537.15004	0.05636
3535.86427	0.05644
3534.57850	0.05696
3533.29274	0.05760
3532.00697	0.05805
3530.72120	0.05814
3529.43543	0.05796
3528.14966	0.05775
3526.86389	0.05779
3525.57812	0.05815
3524.29235	0.05874
3523.00659	0.05942
3521.72082	0.06001
3520.43505	0.06040
3519.14928	0.06055
3517.86351	0.06057
3516.57774	0.06067
3515.29197	0.06100
3514.00620	0.06166
3512.72043	0.06244
3511.43467	0.06298
3510.14890	0.06310
3508.86313	0.06302
3507.57736	0.06303
3506.29159	0.06315
3505.00582	0.06327
3503.72005	0.06346
3502.43428	0.06392
3501.14852	0.06468
3499.86275	0.06546
3498.57698	0.06594
3497.29121	0.06590
3496.00544	0.06540
3494.71967	0.06476
3493.43390	0.06442
3492.14813	0.06459
3490.86236	0.06512
3489.57660	0.06568
3488.29083	0.06611
3487.00506	0.06640
3485.71929	0.06656
3484.43352	0.06654
3483.14775	0.06637
3481.86198	0.06628
3480.57621	0.06650
3479.29045	0.06700
3478.00468	0.06748
3476.71891	0.06764
3475.43314	0.06742
3474.14737	0.06711
3472.86160	0.06706
3471.57583	0.06734
3470.29006	0.06770
3469.00429	0.06791
3467.71853	0.06802
3466.43276	0.06816
3465.14699	0.06837
3463.86122	0.06864
3462.57545	0.06905
3461.28968	0.06966
3460.00391	0.07033
3458.71814	0.07079
3457.43238	0.07092
3456.14661	0.07081
3454.86084	0.07059
3453.57507	0.07031
3452.28930	0.07003
3451.00353	0.07000
3449.71776	0.07039
3448.43199	0.07108
3447.14622	0.07169
3445.86046	0.07185
3444.57469	0.07155
3443.28892	0.07109
3442.00315	0.07086
3440.71738	0.07100
3439.43161	0.07135
3438.14584	0.07166
3436.86007	0.07177
3435.57431	0.07170
3434.28854	0.07162
3433.00277	0.07176
3431.71700	0.07220
3430.43123	0.07278
3429.14546	0.07328
3427.85969	0.07364
3426.57392	0.07395
3425.28815	0.07425
3424.00239	0.07442
3422.71662	0.07436
3421.43085	0.07421
3420.14508	0.07417
3418.85931	0.07424
3417.57354	0.07416
3416.28777	0.07379
3415.00200	0.07327
3413.71624	0.07294
3412.43047	0.07298
3411.14470	0.07332
3409.85893	0.07375
3408.57316	0.07412
3407.28739	0.07440
3406.00162	0.07459
3404.71585	0.07470
3403.43008	0.07474
3402.14432	0.07479
3400.85855	0.07493
3399.57278	0.07510
3398.28701	0.07523
3397.00124	0.07528
3395.71547	0.07523
3394.42970	0.07513
3393.14393	0.07503
3391.85817	0.07490
3390.57240	0.07481
3389.28663	0.07486
3388.00086	0.07516
3386.71509	0.07562
3385.42932	0.07606
3384.14355	0.07643
3382.85778	0.07674
3381.57201	0.07700
3380.28625	0.07707
3379.00048	0.07690
3377.71471	0.07661
3376.42894	0.07647
3375.14317	0.07658
3373.85740	0.07685
3372.57163	0.07708
3371.28586	0.07718
3370.00010	0.07725
3368.71433	0.07742
3367.42856	0.07772
3366.14279	0.07796
3364.85702	0.07795
3363.57125	0.07767
3362.28548	0.07730
3360.99971	0.07705
3359.71394	0.07701
3358.42818	0.07723
3357.14241	0.07763
3355.85664	0.07810
3354.57087	0.07845
3353.28510	0.07863
3351.99933	0.07881
3350.71356	0.07912
3349.42779	0.07938
3348.14202	0.07922
3346.85626	0.07843
3345.57049	0.07723
3344.28472	0.07611
3342.99895	0.07552
3341.71318	0.07561
3340.42741	0.07624
3339.14164	0.07700
3337.85587	0.07746
3336.57011	0.07746
3335.28434	0.07718
3333.99857	0.07692
3332.71280	0.07695
3331.42703	0.07730
3330.14126	0.07778
3328.85549	0.07811
3327.56972	0.07812
3326.28395	0.07788
3324.99819	0.07759
3323.71242	0.07734
3322.42665	0.07712
3321.14088	0.07690
3319.85511	0.07671
3318.56934	0.07657
3317.28357	0.07659
3315.99780	0.07691
3314.71204	0.07755
3313.42627	0.07827
3312.14050	0.07865
3310.85473	0.07849
3309.56896	0.07792
3308.28319	0.07723
3306.99742	0.07672
3305.71165	0.07650
3304.42588	0.07653
3303.14012	0.07666
3301.85435	0.07670
3300.56858	0.07658
3299.28281	0.07642
3297.99704	0.07636
3296.71127	0.07645
3295.42550	0.07666
3294.13973	0.07693
3292.85397	0.07718
3291.56820	0.07733
3290.28243	0.07728
3288.99666	0.07704
3287.71089	0.07663
3286.42512	0.07616
3285.13935	0.07577
3283.85358	0.07564
3282.56781	0.07582
3281.28205	0.07613
3279.99628	0.07634
3278.71051	0.07633
3277.42474	0.07621
3276.13897	0.07606
3274.85320	0.07581
3273.56743	0.07536
3272.28166	0.07479
3270.99590	0.07438
3269.71013	0.07437
3268.42436	0.07476
3267.13859	0.07534
3265.85282	0.07580
3264.56705	0.07595
3263.28128	0.07577
3261.99551	0.07545
3260.70974	0.07525
3259.42398	0.07532
3258.13821	0.07554
3256.85244	0.07570
3255.56667	0.07562
3254.28090	0.07533
3252.99513	0.07500
3251.70936	0.07479
3250.42359	0.07476
3249.13783	0.07486
3247.85206	0.07502
3246.56629	0.07516
3245.28052	0.07519
3243.99475	0.07505
3242.70898	0.07475
3241.42321	0.07440
3240.13744	0.07415
3238.85167	0.07404
3237.56591	0.07406
3236.28014	0.07410
3234.99437	0.07403
3233.70860	0.07382
3232.42283	0.07354
3231.13706	0.07329
3229.85129	0.07316
3228.56552	0.07324
3227.27976	0.07358
3225.99399	0.07407
3224.70822	0.07440
3223.42245	0.07432
3222.13668	0.07380
3220.85091	0.07312
3219.56514	0.07257
3218.27937	0.07227
3216.99360	0.07210
3215.70784	0.07193
3214.42207	0.07181
3213.13630	0.07180
3211.85053	0.07184
3210.56476	0.07173
3209.27899	0.07146
3207.99322	0.07123
3206.70745	0.07127
3205.42169	0.07158
3204.13592	0.07196
3202.85015	0.07215
3201.56438	0.07201
3200.27861	0.07154
3198.99284	0.07092
3197.70707	0.07039
3196.42130	0.07014
3195.13553	0.07017
3193.84977	0.07035
3192.56400	0.07055
3191.27823	0.07073
3189.99246	0.07090
3188.70669	0.07102
3187.42092	0.07101
3186.13515	0.07083
3184.84938	0.07052
3183.56362	0.07020
3182.27785	0.06998
3180.99208	0.06984
3179.70631	0.06969
3178.42054	0.06942
3177.13477	0.06903
3175.84900	0.06858
3174.56323	0.06813
3173.27746	0.06776
3171.99170	0.06759
3170.70593	0.06765
3169.42016	0.06789
3168.13439	0.06813
3166.84862	0.06825
3165.56285	0.06821
3164.27708	0.06804
3162.99131	0.06781
3161.70555	0.06764
3160.41978	0.06768
3159.13401	0.06795
3157.84824	0.06822
3156.56247	0.06828
3155.27670	0.06812
3153.99093	0.06793
3152.70516	0.06782
3151.41939	0.06771
3150.13363	0.06745
3148.84786	0.06699
3147.56209	0.06646
3146.27632	0.06605
3144.99055	0.06591
3143.70478	0.06598
3142.41901	0.06608
3141.13324	0.06601
3139.84748	0.06573
3138.56171	0.06534
3137.27594	0.06493
3135.99017	0.06459
3134.70440	0.06436
3133.41863	0.06427
3132.13286	0.06430
3130.84709	0.06435
3129.56132	0.06440
3128.27556	0.06444
3126.98979	0.06446
3125.70402	0.06435
3124.41825	0.06409
3123.13248	0.06379
3121.84671	0.06366
3120.56094	0.06376
3119.27517	0.06399
3117.98940	0.06417
3116.70364	0.06417
3115.41787	0.06393
3114.13210	0.06349
3112.84633	0.06303
3111.56056	0.06276
3110.27479	0.06275
3108.98902	0.06283
3107.70325	0.06284
3106.41749	0.06280
3105.13172	0.06288
3103.84595	0.06313
3102.56018	0.06341
3101.27441	0.06356
3099.98864	0.06350
3098.70287	0.06325
3097.41710	0.06285
3096.13133	0.06240
3094.84557	0.06202
3093.55980	0.06184
3092.27403	0.06184
3090.98826	0.06188
3089.70249	0.06185
3088.41672	0.06173
3087.13095	0.06153
3085.84518	0.06127
3084.55942	0.06101
3083.27365	0.06087
3081.98788	0.06095
3080.70211	0.06119
3079.41634	0.06140
3078.13057	0.06147
3076.84480	0.06137
3075.55903	0.06121
3074.27326	0.06105
3072.98750	0.06091
3071.70173	0.06076
3070.41596	0.06054
3069.13019	0.06025
3067.84442	0.05991
3066.55865	0.05957
3065.27288	0.05934
3063.98711	0.05934
3062.70135	0.05960
3061.41558	0.05996
3060.12981	0.06016
3058.84404	0.06000
3057.55827	0.05953
3056.27250	0.05898
3054.98673	0.05856
3053.70096	0.05832
3052.41519	0.05828
3051.12943	0.05844
3049.84366	0.05876
3048.55789	0.05908
3047.27212	0.05923
3045.98635	0.05913
3044.70058	0.05886
3043.41481	0.05852
3042.12904	0.05813
3040.84328	0.05771
3039.55751	0.05736
3038.27174	0.05720
3036.98597	0.05722
3035.70020	0.05733
3034.41443	0.05739
3033.12866	0.05734
3031.84289	0.05717
3030.55712	0.05691
3029.27136	0.05661
3027.98559	0.05631
3026.69982	0.05607
3025.41405	0.05597
3024.12828	0.05607
3022.84251	0.05630
3021.55674	0.05649
3020.27097	0.05649
3018.98521	0.05633
3017.69944	0.05609
3016.41367	0.05591
3015.12790	0.05585
3013.84213	0.05590
3012.55636	0.05592
3011.27059	0.05579
3009.98482	0.05550
3008.69905	0.05523
3007.41329	0.05512
3006.12752	0.05524
3004.84175	0.05547
3003.55598	0.05568
3002.27021	0.05575
3000.98444	0.05562
2999.69867	0.05528
2998.41290	0.05491
2997.12714	0.05461
2995.84137	0.05440
2994.55560	0.05420
2993.26983	0.05399
2991.98406	0.05384
2990.69829	0.05382
2989.41252	0.05388
2988.12675	0.05394
2986.84098	0.05397
2985.55522	0.05397
2984.26945	0.05402
2982.98368	0.05427
2981.69791	0.05478
2980.41214	0.05543
2979.12637	0.05597
2977.84060	0.05624
2976.55483	0.05624
2975.26907	0.05614
2973.98330	0.05611
2972.69753	0.05628
2971.41176	0.05660
2970.12599	0.05691
2968.84022	0.05714
2967.55445	0.05735
2966.26868	0.05771
2964.98291	0.05827
2963.69715	0.05890
2962.41138	0.05944
2961.12561	0.05980
2959.83984	0.06010
2958.55407	0.06045
2957.26830	0.06090
2955.98253	0.06136
2954.69676	0.06172
2953.41100	0.06194
2952.12523	0.06206
2950.83946	0.06213
2949.55369	0.06210
2948.26792	0.06193
2946.98215	0.06165
2945.69638	0.06130
2944.41061	0.06085
2943.12484	0.06036
2941.83908	0.05998
2940.55331	0.05990
2939.26754	0.06013
2937.98177	0.06049
2936.69600	0.06085
2935.41023	0.06118
2934.12446	0.06157
2932.83869	0.06205
2931.55293	0.06260
2930.26716	0.06311
2928.98139	0.06346
2927.69562	0.06356
2926.40985	0.06336
2925.12408	0.06293
2923.83831	0.06244
2922.55254	0.06203
2921.26677	0.06171
2919.98101	0.06141
2918.69524	0.06115
2917.40947	0.06093
2916.12370	0.06068
2914.83793	0.06027
2913.55216	0.05979
2912.26639	0.05946
2910.98062	0.05937
2909.69486	0.05940
2908.40909	0.05933
2907.12332	0.05909
2905.83755	0.05874
2904.55178	0.05832
2903.26601	0.05784
2901.98024	0.05735
2900.69447	0.05692
2899.40870	0.05656
2898.12294	0.05625
2896.83717	0.05595
2895.55140	0.05563
2894.26563	0.05528
2892.97986	0.05493
2891.69409	0.05462
2890.40832	0.05437
2889.12255	0.05417
2887.83678	0.05403
2886.55102	0.05393
2885.26525	0.05384
2883.97948	0.05370
2882.69371	0.05349
2881.40794	0.05331
2880.12217	0.05328
2878.83640	0.05348
2877.55063	0.05380
2876.26487	0.05400
2874.97910	0.05386
2873.69333	0.05345
2872.40756	0.05307
2871.12179	0.05304
2869.83602	0.05337
2868.55025	0.05375
2867.26448	0.05385
2865.97871	0.05361
2864.69295	0.05327
2863.40718	0.05309
2862.12141	0.05309
2860.83564	0.05309
2859.54987	0.05299
2858.26410	0.05278
2856.97833	0.05249
2855.69256	0.05209
2854.40680	0.05160
2853.12103	0.05110
2851.83526	0.05073
2850.54949	0.05055
2849.26372	0.05054
2847.97795	0.05055
2846.69218	0.05041
2845.40641	0.05006
2844.12064	0.04962
2842.83488	0.04930
2841.54911	0.04916
2840.26334	0.04904
2838.97757	0.04875
2837.69180	0.04824
2836.40603	0.04765
2835.12026	0.04709
2833.83449	0.04658
2832.54873	0.04604
2831.26296	0.04555
2829.97719	0.04526
2828.69142	0.04523
2827.40565	0.04537
2826.11988	0.04554
2824.83411	0.04563
2823.54834	0.04558
2822.26257	0.04535
2820.97681	0.04497
2819.69104	0.04453
2818.40527	0.04417
2817.11950	0.04396
2815.83373	0.04379
2814.54796	0.04358
2813.26219	0.04332
2811.97642	0.04314
2810.69066	0.04314
2809.40489	0.04331
2808.11912	0.04348
2806.83335	0.04349
2805.54758	0.04326
2804.26181	0.04293
2802.97604	0.04269
2801.69027	0.04263
2800.40450	0.04261
2799.11874	0.04249
2797.83297	0.04227
2796.54720	0.04209
2795.26143	0.04208
2793.97566	0.04222
2792.68989	0.04237
2791.40412	0.04236
2790.11835	0.04217
2788.83259	0.04192
2787.54682	0.04176
2786.26105	0.04177
2784.97528	0.04180
2783.68951	0.04171
2782.40374	0.04147
2781.11797	0.04121
2779.83220	0.04100
2778.54643	0.04080
2777.26067	0.04057
2775.97490	0.04038
2774.68913	0.04029
2773.40336	0.04030
2772.11759	0.04037
2770.83182	0.04048
2769.54605	0.04054
2768.26028	0.04043
2766.97452	0.04012
2765.68875	0.03979
2764.40298	0.03965
2763.11721	0.03975
2761.83144	0.03998
2760.54567	0.04013
2759.25990	0.04012
2757.97413	0.03999
2756.68836	0.03982
2755.40260	0.03967
2754.11683	0.03949
2752.83106	0.03925
2751.54529	0.03898
2750.25952	0.03875
2748.97375	0.03870
2747.68798	0.03885
2746.40221	0.03910
2745.11645	0.03925
2743.83068	0.03922
2742.54491	0.03906
2741.25914	0.03894
2739.97337	0.03895
2738.68760	0.03908
2737.40183	0.03923
2736.11606	0.03930
2734.83029	0.03924
2733.54453	0.03905
2732.25876	0.03881
2730.97299	0.03861
2729.68722	0.03853
2728.40145	0.03851
2727.11568	0.03845
2725.82991	0.03829
2724.54414	0.03809
2723.25838	0.03794
2721.97261	0.03786
2720.68684	0.03780
2719.40107	0.03771
2718.11530	0.03752
2716.82953	0.03728
2715.54376	0.03706
2714.25799	0.03692
2712.97222	0.03685
2711.68646	0.03685
2710.40069	0.03690
2709.11492	0.03696
2707.82915	0.03696
2706.54338	0.03689
2705.25761	0.03678
2703.97184	0.03670
2702.68607	0.03669
2701.40031	0.03670
2700.11454	0.03669
2698.82877	0.03669
2697.54300	0.03677
2696.25723	0.03693
2694.97146	0.03704
2693.68569	0.03699
2692.39992	0.03676
2691.11415	0.03646
2689.82839	0.03616
2688.54262	0.03594
2687.25685	0.03584
2685.97108	0.03586
2684.68531	0.03599
2683.39954	0.03610
2682.11377	0.03610
2680.82800	0.03595
2679.54224	0.03574
2678.25647	0.03555
2676.97070	0.03543
2675.68493	0.03537
2674.39916	0.03530
2673.11339	0.03521
2671.82762	0.03516
2670.54185	0.03521
2669.25608	0.03536
2667.97032	0.03559
2666.68455	0.03582
2665.39878	0.03603
2664.11301	0.03620
2662.82724	0.03629
2661.54147	0.03629
2660.25570	0.03620
2658.96993	0.03613
2657.68417	0.03615
2656.39840	0.03621
2655.11263	0.03616
2653.82686	0.03592
2652.54109	0.03558
2651.25532	0.03527
2649.96955	0.03509
2648.68378	0.03500
2647.39801	0.03496
2646.11225	0.03491
2644.82648	0.03482
2643.54071	0.03472
2642.25494	0.03465
2640.96917	0.03459
2639.68340	0.03452
2638.39763	0.03440
2637.11186	0.03422
2635.82609	0.03398
2634.54033	0.03367
2633.25456	0.03335
2631.96879	0.03316
2630.68302	0.03319
2629.39725	0.03334
2628.11148	0.03347
2626.82571	0.03346
2625.53994	0.03335
2624.25418	0.03317
2622.96841	0.03297
2621.68264	0.03279
2620.39687	0.03267
2619.11110	0.03260
2617.82533	0.03250
2616.53956	0.03237
2615.25379	0.03221
2613.96802	0.03203
2612.68226	0.03184
2611.39649	0.03173
2610.11072	0.03179
2608.82495	0.03188
2607.53918	0.03181
2606.25341	0.03151
2604.96764	0.03112
2603.68187	0.03080
2602.39611	0.03058
2601.11034	0.03038
2599.82457	0.03022
2598.53880	0.03014
2597.25303	0.03018
2595.96726	0.03035
2594.68149	0.03058
2593.39572	0.03076
2592.10995	0.03080
2590.82419	0.03068
2589.53842	0.03045
2588.25265	0.03007
2586.96688	0.02953
2585.68111	0.02892
2584.39534	0.02836
2583.10957	0.02795
2581.82380	0.02773
2580.53804	0.02775
2579.25227	0.02804
2577.96650	0.02858
2576.68073	0.02920
2575.39496	0.02959
2574.10919	0.02953
2572.82342	0.02909
2571.53765	0.02858
2570.25188	0.02831
2568.96612	0.02830
2567.68035	0.02839
2566.39458	0.02842
2565.10881	0.02833
2563.82304	0.02821
2562.53727	0.02815
2561.25150	0.02815
2559.96573	0.02809
2558.67997	0.02792
2557.39420	0.02779
2556.10843	0.02783
2554.82266	0.02800
2553.53689	0.02810
2552.25112	0.02793
2550.96535	0.02751
2549.67958	0.02709
2548.39381	0.02698
2547.10805	0.02724
2545.82228	0.02768
2544.53651	0.02801
2543.25074	0.02805
2541.96497	0.02783
2540.67920	0.02749
2539.39343	0.02722
2538.10766	0.02703
2536.82190	0.02683
2535.53613	0.02656
2534.25036	0.02632
2532.96459	0.02629
2531.67882	0.02643
2530.39305	0.02654
2529.10728	0.02649
2527.82151	0.02641
2526.53574	0.02651
2525.24998	0.02684
2523.96421	0.02718
2522.67844	0.02722
2521.39267	0.02685
2520.10690	0.02624
2518.82113	0.02576
2517.53536	0.02570
2516.24959	0.02605
2514.96383	0.02654
2513.67806	0.02696
2512.39229	0.02724
2511.10652	0.02729
2509.82075	0.02700
2508.53498	0.02644
2507.24921	0.02591
2505.96344	0.02563
2504.67767	0.02562
2503.39191	0.02580
2502.10614	0.02612
2500.82037	0.02649
2499.53460	0.02668
2498.24883	0.02646
2496.96306	0.02583
2495.67729	0.02507
2494.39152	0.02456
2493.10576	0.02450
2491.81999	0.02482
2490.53422	0.02524
2489.24845	0.02548
2487.96268	0.02542
2486.67691	0.02514
2485.39114	0.02483
2484.10537	0.02462
2482.81960	0.02450
2481.53384	0.02442
2480.24807	0.02442
2478.96230	0.02453
2477.67653	0.02477
2476.39076	0.02505
2475.10499	0.02524
2473.81922	0.02527
2472.53345	0.02514
2471.24769	0.02499
2469.96192	0.02492
2468.67615	0.02497
2467.39038	0.02507
2466.10461	0.02510
2464.81884	0.02497
2463.53307	0.02471
2462.24730	0.02454
2460.96153	0.02468
2459.67577	0.02516
2458.39000	0.02570
2457.10423	0.02596
2455.81846	0.02580
2454.53269	0.02542
2453.24692	0.02509
2451.96115	0.02493
2450.67538	0.02487
2449.38962	0.02492
2448.10385	0.02507
2446.81808	0.02523
2445.53231	0.02520
2444.24654	0.02497
2442.96077	0.02476
2441.67500	0.02475
2440.38923	0.02478
2439.10346	0.02458
2437.81770	0.02413
2436.53193	0.02373
2435.24616	0.02365
2433.96039	0.02387
2432.67462	0.02416
2431.38885	0.02438
2430.10308	0.02447
2428.81731	0.02441
2427.53155	0.02422
2426.24578	0.02401
2424.96001	0.02389
2423.67424	0.02379
2422.38847	0.02369
2421.10270	0.02361
2419.81693	0.02358
2418.53116	0.02346
2417.24539	0.02317
2415.95963	0.02279
2414.67386	0.02244
2413.38809	0.02219
2412.10232	0.02210
2410.81655	0.02222
2409.53078	0.02249
2408.24501	0.02273
2406.95924	0.02282
2405.67347	0.02285
2404.38771	0.02297
2403.10194	0.02322
2401.81617	0.02352
2400.53040	0.02375
2399.24463	0.02395
2397.95886	0.02392
2396.67309	0.02382
2395.38732	0.02369
2394.10156	0.02350
2392.81579	0.02326
2391.53002	0.02301
2390.24425	0.02284
2388.95848	0.02284
2387.67271	0.02300
2386.38694	0.02315
2385.10117	0.02311
2383.81540	0.02286
2382.52964	0.02259
2381.24387	0.02250
2379.95810	0.02261
2378.67233	0.02277
2377.38656	0.02286
2376.10079	0.02284
2374.81502	0.02281
2373.52925	0.02283
2372.24349	0.02292
2370.95772	0.02297
2369.67195	0.02290
2368.38618	0.02271
2367.10041	0.02251
2365.81464	0.02235
2364.52887	0.02221
2363.24310	0.02213
2361.95733	0.02220
2360.67157	0.02243
2359.38580	0.02273
2358.10003	0.02300
2356.81426	0.02316
2355.52849	0.02325
2354.24272	0.02335
2352.95695	0.02351
2351.67118	0.02373
2350.38542	0.02391
2349.09965	0.02395
2347.81388	0.02386
2346.52811	0.02380
2345.24234	0.02391
2343.95657	0.02415
2342.67080	0.02429
2341.38503	0.02416
2340.09926	0.02380
2338.81350	0.02342
2337.52773	0.02324
2336.24196	0.02330
2334.95619	0.02347
2333.67042	0.02362
2332.38465	0.02368
2331.09888	0.02368
2329.81311	0.02372
2328.52735	0.02400
2327.24158	0.02465
2325.95581	0.02550
2324.67004	0.02618
2323.38427	0.02639
2322.09850	0.02616
2320.81273	0.02579
2319.52696	0.02545
2318.24119	0.02519
2316.95543	0.02497
2315.66966	0.02477
2314.38389	0.02461
2313.09812	0.02446
2311.81235	0.02430
2310.52658	0.02409
2309.24081	0.02377
2307.95504	0.02340
2306.66928	0.02307
2305.38351	0.02288
2304.09774	0.02283
2302.81197	0.02290
2301.52620	0.02303
2300.24043	0.02314
2298.95466	0.02312
2297.66889	0.02296
2296.38312	0.02281
2295.09736	0.02288
2293.81159	0.02320
2292.52582	0.02363
2291.24005	0.02395
2289.95428	0.02404
2288.66851	0.02388
2287.38274	0.02354
2286.09697	0.02308
2284.81121	0.02266
2283.52544	0.02238
2282.23967	0.02226
2280.95390	0.02221
2279.66813	0.02219
2278.38236	0.02221
2277.09659	0.02217
2275.81082	0.02191
2274.52505	0.02135
2273.23929	0.02072
2271.95352	0.02039
2270.66775	0.02043
2269.38198	0.02058
2268.09621	0.02053
2266.81044	0.02020
2265.52467	0.01969
2264.23890	0.01911
2262.95314	0.01863
2261.66737	0.01850
2260.38160	0.01884
2259.09583	0.01947
2257.81006	0.01997
2256.52429	0.01996
2255.23852	0.01941
2253.95275	0.01869
2252.66698	0.01816
2251.38122	0.01790
2250.09545	0.01780
2248.80968	0.01788
2247.52391	0.01784
2246.23814	0.01791
2244.95237	0.01805
2243.66660	0.01814
2242.38083	0.01813
2241.09507	0.01798
2239.80930	0.01769
2238.52353	0.01734
2237.23776	0.01698
2235.95199	0.01659
2234.66622	0.01613
2233.38045	0.01575
2232.09468	0.01587
2230.80891	0.01670
2229.52315	0.01800
2228.23738	0.01917
2226.95161	0.01955
2225.66584	0.01893
2224.38007	0.01765
2223.09430	0.01638
2221.80853	0.01558
2220.52276	0.01528
2219.23700	0.01517
2217.95123	0.01496
2216.66546	0.01461
2215.37969	0.01434
2214.09392	0.01438
2212.80815	0.01474
2211.52238	0.01500
2210.23661	0.01466
2208.95084	0.01373
2207.66508	0.01287
2206.37931	0.01270
2205.09354	0.01309
2203.80777	0.01332
2202.52200	0.01299
2201.23623	0.01244
2199.95046	0.01229
2198.66469	0.01273
2197.37893	0.01337
2196.09316	0.01371
2194.80739	0.01364
2193.52162	0.01349
2192.23585	0.01358
2190.95008	0.01382
2189.66431	0.01381
2188.37854	0.01343
2187.09277	0.01300
2185.80701	0.01281
2184.52124	0.01270
2183.23547	0.01234
2181.94970	0.01188
2180.66393	0.01178
2179.37816	0.01221
2178.09239	0.01273
2176.80662	0.01281
2175.52085	0.01254
2174.23509	0.01240
2172.94932	0.01252
2171.66355	0.01240
2170.37778	0.01163
2169.09201	0.01052
2167.80624	0.00990
2166.52047	0.01027
2165.23470	0.01130
2163.94894	0.01209
2162.66317	0.01162
2161.37740	0.00918
2160.09163	0.00503
2158.80586	0.00073
2157.52009	-0.00178
2156.23432	-0.00179
2154.94855	-0.00020
2153.66278	0.00168
2152.37702	0.00329
2151.09125	0.00467
2149.80548	0.00585
2148.51971	0.00668
2147.23394	0.00699
2145.94817	0.00680
2144.66240	0.00629
2143.37663	0.00588
2142.09087	0.00603
2140.80510	0.00677
2139.51933	0.00756
2138.23356	0.00789
2136.94779	0.00770
2135.66202	0.00734
2134.37625	0.00707
2133.09048	0.00694
2131.80471	0.00687
2130.51895	0.00689
2129.23318	0.00714
2127.94741	0.00772
2126.66164	0.00855
2125.37587	0.00938
2124.09010	0.01001
2122.80433	0.01044
2121.51856	0.01083
2120.23280	0.01137
2118.94703	0.01200
2117.66126	0.01257
2116.37549	0.01300
2115.08972	0.01333
2113.80395	0.01352
2112.51818	0.01345
2111.23241	0.01327
2109.94664	0.01337
2108.66088	0.01382
2107.37511	0.01411
2106.08934	0.01374
2104.80357	0.01277
2103.51780	0.01167
2102.23203	0.01082
2100.94626	0.01038
2099.66049	0.01125
2098.37473	0.01175
2097.08896	0.01167
2095.80319	0.01134
2094.51742	0.01108
2093.23165	0.01110
2091.94588	0.01141
2090.66011	0.01174
2089.37434	0.01185
2088.08857	0.01171
2086.80281	0.01148
2085.51704	0.01130
2084.23127	0.01121
2082.94550	0.01127
2081.65973	0.01146
2080.37396	0.01165
2079.08819	0.01175
2077.80242	0.01177
2076.51666	0.01183
2075.23089	0.01197
2073.94512	0.01217
2072.65935	0.01233
2071.37358	0.01240
2070.08781	0.01233
2068.80204	0.01209
2067.51627	0.01169
2066.23050	0.01115
2064.94474	0.01053
2063.65897	0.00997
2062.37320	0.00952
2061.08743	0.00918
2059.80166	0.00889
2058.51589	0.00857
2057.23012	0.00815
2055.94435	0.00771
2054.65859	0.00756
2053.37282	0.00804
2052.08705	0.00905
2050.80128	0.00999
2049.51551	0.01025
2048.22974	0.00982
2046.94397	0.00912
2045.65820	0.00849
2044.37243	0.00784
2043.08667	0.00700
2041.80090	0.00603
2040.51513	0.00521
2039.22936	0.00489
2037.94359	0.00531
2036.65782	0.00646
2035.37205	0.00784
2034.08628	0.00863
2032.80052	0.00835
2031.51475	0.00730
2030.22898	0.00619
2028.94321	0.00552
2027.65744	0.00529
2026.37167	0.00531
2025.08590	0.00540
2023.80013	0.00539
2022.51436	0.00506
2021.22860	0.00437
2019.94283	0.00368
2018.65706	0.00360
2017.37129	0.00441
2016.08552	0.00574
2014.79975	0.00690
2013.51398	0.00762
2012.22821	0.00819
2010.94245	0.00892
2009.65668	0.00974
2008.37091	0.01028
2007.08514	0.01032
2005.79937	0.00996
2004.51360	0.00943
2003.22783	0.00896
2001.94206	0.00863
2000.65629	0.00842
1999.37053	0.00834
1998.08476	0.00840
1996.79899	0.00862
1995.51322	0.00892
1994.22745	0.00909
1992.94168	0.00892
1991.65591	0.00837
1990.37014	0.00764
1989.08438	0.00705
1987.79861	0.00679
1986.51284	0.00679
1985.22707	0.00690
1983.94130	0.00715
1982.65553	0.00788
1981.36976	0.00922
1980.08399	0.01068
1978.79822	0.01141
1977.51246	0.01091
1976.22669	0.00952
1974.94092	0.00807
1973.65515	0.00732
1972.36938	0.00760
1971.08361	0.00860
1969.79784	0.00965
1968.51207	0.01021
1967.22631	0.01024
1965.94054	0.01000
1964.65477	0.00972
1963.36900	0.00948
1962.08323	0.00929
1960.79746	0.00918
1959.51169	0.00912
1958.22592	0.00906
1956.94015	0.00900
1955.65439	0.00911
1954.36862	0.00951
1953.08285	0.01004
1951.79708	0.01030
1950.51131	0.01007
1949.22554	0.00960
1947.93977	0.00939
1946.65400	0.00970
1945.36823	0.01038
1944.08247	0.01110
1942.79670	0.01164
1941.51093	0.01190
1940.22516	0.01171
1938.93939	0.01098
1937.65362	0.01002
1936.36785	0.00940
1935.08208	0.00956
1933.79632	0.01036
1932.51055	0.01132
1931.22478	0.01200
1929.93901	0.01226
1928.65324	0.01218
1927.36747	0.01190
1926.08170	0.01158
1924.79593	0.01137
1923.51016	0.01141
1922.22440	0.01174
1920.93863	0.01218
1919.65286	0.01252
1918.36709	0.01269
1917.08132	0.01275
1915.79555	0.01275
1914.50978	0.01271
1913.22401	0.01271
1911.93825	0.01277
1910.65248	0.01282
1909.36671	0.01276
1908.08094	0.01261
1906.79517	0.01242
1905.50940	0.01229
1904.22363	0.01232
1902.93786	0.01252
1901.65209	0.01283
1900.36633	0.01309
1899.08056	0.01319
1897.79479	0.01311
1896.50902	0.01299
1895.22325	0.01297
1893.93748	0.01303
1892.65171	0.01300
1891.36594	0.01273
1890.08018	0.01233
1888.79441	0.01203
1887.50864	0.01193
1886.22287	0.01197
1884.93710	0.01208
1883.65133	0.01226
1882.36556	0.01251
1881.07979	0.01278
1879.79402	0.01296
1878.50826	0.01296
1877.22249	0.01276
1875.93672	0.01243
1874.65095	0.01209
1873.36518	0.01190
1872.07941	0.01190
1870.79364	0.01205
1869.50787	0.01226
1868.22211	0.01245
1866.93634	0.01253
1865.65057	0.01245
1864.36480	0.01231
1863.07903	0.01221
1861.79326	0.01221
1860.50749	0.01231
1859.22172	0.01247
1857.93595	0.01265
1856.65019	0.01274
1855.36442	0.01267
1854.07865	0.01249
1852.79288	0.01236
1851.50711	0.01243
1850.22134	0.01269
1848.93557	0.01303
1847.64980	0.01329
1846.36404	0.01327
1845.07827	0.01304
1843.79250	0.01287
1842.50673	0.01293
1841.22096	0.01310
1839.93519	0.01318
1838.64942	0.01312
1837.36365	0.01295
1836.07788	0.01273
1834.79212	0.01257
1833.50635	0.01256
1832.22058	0.01262
1830.93481	0.01271
1829.64904	0.01286
1828.36327	0.01306
1827.07750	0.01315
1825.79173	0.01310
1824.50597	0.01305
1823.22020	0.01312
1821.93443	0.01327
1820.64866	0.01335
1819.36289	0.01325
1818.07712	0.01301
1816.79135	0.01277
1815.50558	0.01269
1814.21981	0.01275
1812.93405	0.01288
1811.64828	0.01299
1810.36251	0.01308
1809.07674	0.01315
1807.79097	0.01318
1806.50520	0.01316
1805.21943	0.01310
1803.93366	0.01303
1802.64790	0.01296
1801.36213	0.01294
1800.07636	0.01303
1798.79059	0.01330
1797.50482	0.01371
1796.21905	0.01411
1794.93328	0.01428
1793.64751	0.01416
1792.36174	0.01399
1791.07598	0.01402
1789.79021	0.01421
1788.50444	0.01437
1787.21867	0.01440
1785.93290	0.01434
1784.64713	0.01434
1783.36136	0.01442
1782.07559	0.01447
1780.78983	0.01445
1779.50406	0.01442
1778.21829	0.01444
1776.93252	0.01454
1775.64675	0.01458
1774.36098	0.01445
1773.07521	0.01425
1771.78944	0.01424
1770.50367	0.01437
1769.21791	0.01449
1767.93214	0.01460
1766.64637	0.01488
1765.36060	0.01522
1764.07483	0.01536
1762.78906	0.01530
1761.50329	0.01525
1760.21752	0.01532
1758.93176	0.01538
1757.64599	0.01538
1756.36022	0.01541
1755.07445	0.01554
1753.78868	0.01563
1752.50291	0.01563
1751.21714	0.01569
1749.93137	0.01588
1748.64560	0.01607
1747.35984	0.01614
1746.07407	0.01615
1744.78830	0.01618
1743.50253	0.01624
1742.21676	0.01624
1740.93099	0.01617
1739.64522	0.01621
1738.35945	0.01649
1737.07369	0.01674
1735.78792	0.01663
1734.50215	0.01639
1733.21638	0.01647
1731.93061	0.01689
1730.64484	0.01726
1729.35907	0.01741
1728.07330	0.01750
1726.78753	0.01760
1725.50177	0.01769
1724.21600	0.01783
1722.93023	0.01813
1721.64446	0.01855
1720.35869	0.01887
1719.07292	0.01899
1717.78715	0.01911
1716.50138	0.01944
1715.21561	0.01984
1713.92985	0.02013
1712.64408	0.02034
1711.35831	0.02060
1710.07254	0.02097
1708.78677	0.02138
1707.50100	0.02176
1706.21523	0.02221
1704.92946	0.02288
1703.64370	0.02363
1702.35793	0.02405
1701.07216	0.02424
1699.78639	0.02468
1698.50062	0.02528
1697.21485	0.02558
1695.92908	0.02568
1694.64331	0.02615
1693.35754	0.02692
1692.07178	0.02755
1690.78601	0.02805
1689.50024	0.02871
1688.21447	0.02948
1686.92870	0.02996
1685.64293	0.03002
1684.35716	0.03014
1683.07139	0.03068
1681.78563	0.03141
1680.49986	0.03203
1679.21409	0.03259
1677.92832	0.03310
1676.64255	0.03351
1675.35678	0.03398
1674.07101	0.03470
1672.78524	0.03550
1671.49947	0.03607
1670.21371	0.03640
1668.92794	0.03672
1667.64217	0.03721
1666.35640	0.03779
1665.07063	0.03829
1663.78486	0.03872
1662.49909	0.03920
1661.21332	0.03974
1659.92756	0.04029
1658.64179	0.04088
1657.35602	0.04152
1656.07025	0.04194
1654.78448	0.04184
1653.49871	0.04156
1652.21294	0.04177
1650.92717	0.04245
1649.64140	0.04290
1648.35564	0.04282
1647.06987	0.04257
1645.78410	0.04257
1644.49833	0.04281
1643.21256	0.04303
1641.92679	0.04311
1640.64102	0.04316
1639.35525	0.04326
1638.06949	0.04325
1636.78372	0.04306
1635.49795	0.04293
1634.21218	0.04306
1632.92641	0.04332
1631.64064	0.04347
1630.35487	0.04348
1629.06910	0.04349
1627.78333	0.04359
1626.49757	0.04372
1625.21180	0.04373
1623.92603	0.04361
1622.64026	0.04358
1621.35449	0.04375
1620.06872	0.04393
1618.78295	0.04383
1617.49718	0.04356
1616.21142	0.04350
1614.92565	0.04380
1613.63988	0.04419
1612.35411	0.04444
1611.06834	0.04461
1609.78257	0.04481
1608.49680	0.04502
1607.21103	0.04524
1605.92526	0.04543
1604.63950	0.04561
1603.35373	0.04580
1602.06796	0.04602
1600.78219	0.04625
1599.49642	0.04648
1598.21065	0.04667
1596.92488	0.04683
1595.63911	0.04696
1594.35335	0.04708
1593.06758	0.04721
1591.78181	0.04736
1590.49604	0.04750
1589.21027	0.04765
1587.92450	0.04779
1586.63873	0.04793
1585.35296	0.04807
1584.06719	0.04820
1582.78143	0.04835
1581.49566	0.04859
1580.20989	0.04893
1578.92412	0.04917
1577.63835	0.04912
1576.35258	0.04898
1575.06681	0.04913
1573.78104	0.04947
1572.49528	0.04965
1571.20951	0.04958
1569.92374	0.04950
1568.63797	0.04965
1567.35220	0.04991
1566.06643	0.05014
1564.78066	0.05042
1563.49489	0.05082
1562.20912	0.05104
1560.92336	0.05082
1559.63759	0.05041
1558.35182	0.05030
1557.06605	0.05049
1555.78028	0.05058
1554.49451	0.05047
1553.20874	0.05037
1551.92297	0.05032
1550.63721	0.05026
1549.35144	0.05023
1548.06567	0.05027
1546.77990	0.05029
1545.49413	0.05024
1544.20836	0.05012
1542.92259	0.04985
1541.63682	0.04928
1540.35105	0.04859
1539.06529	0.04820
1537.77952	0.04823
1536.49375	0.04832
1535.20798	0.04817
1533.92221	0.04794
1532.63644	0.04795
1531.35067	0.04817
1530.06490	0.04842
1528.77914	0.04862
1527.49337	0.04885
1526.20760	0.04920
1524.92183	0.04966
1523.63606	0.05007
1522.35029	0.05041
1521.06452	0.05095
1519.77875	0.05178
1518.49298	0.05266
1517.20722	0.05344
1515.92145	0.05424
1514.63568	0.05516
1513.34991	0.05615
1512.06414	0.05726
1510.77837	0.05849
1509.49260	0.05963
1508.20683	0.06050
1506.92107	0.06129
1505.63530	0.06237
1504.34953	0.06372
1503.06376	0.06496
1501.77799	0.06591
1500.49222	0.06671
1499.20645	0.06743
1497.92068	0.06805
1496.63491	0.06865
1495.34915	0.06935
1494.06338	0.07015
1492.77761	0.07087
1491.49184	0.07151
1490.20607	0.07225
1488.92030	0.07316
1487.63453	0.07417
1486.34876	0.07523
1485.06299	0.07635
1483.77723	0.07751
1482.49146	0.07873
1481.20569	0.08005
1479.91992	0.08144
1478.63415	0.08281
1477.34838	0.08408
1476.06261	0.08521
1474.77684	0.08612
1473.49108	0.08684
1472.20531	0.08752
1470.91954	0.08827
1469.63377	0.08896
1468.34800	0.08946
1467.06223	0.08972
1465.77646	0.08984
1464.49069	0.09003
1463.20492	0.09044
1461.91916	0.09105
1460.63339	0.09168
1459.34762	0.09210
1458.06185	0.09231
1456.77608	0.09263
1455.49031	0.09322
1454.20454	0.09385
1452.91877	0.09422
1451.63301	0.09439
1450.34724	0.09446
1449.06147	0.09448
1447.77570	0.09443
1446.48993	0.09431
1445.20416	0.09404
1443.91839	0.09361
1442.63262	0.09311
1441.34685	0.09265
1440.06109	0.09221
1438.77532	0.09170
1437.48955	0.09121
1436.20378	0.09104
1434.91801	0.09133
1433.63224	0.09189
1432.34647	0.09260
1431.06070	0.09350
1429.77494	0.09464
1428.48917	0.09599
1427.20340	0.09742
1425.91763	0.09887
1424.63186	0.10040
1423.34609	0.10204
1422.06032	0.10366
1420.77455	0.10506
1419.48878	0.10625
1418.20302	0.10738
1416.91725	0.10837
1415.63148	0.10911
1414.34571	0.10958
1413.05994	0.10987
1411.77417	0.10999
1410.48840	0.10989
1409.20263	0.10952
1407.91687	0.10882
1406.63110	0.10781
1405.34533	0.10660
1404.05956	0.10530
1402.77379	0.10391
1401.48802	0.10233
1400.20225	0.10054
1398.91648	0.09860
1397.63071	0.09656
1396.34495	0.09438
1395.05918	0.09216
1393.77341	0.09004
1392.48764	0.08806
1391.20187	0.08610
1389.91610	0.08406
1388.63033	0.08196
1387.34456	0.07990
1386.05880	0.07794
1384.77303	0.07598
1383.48726	0.07399
1382.20149	0.07197
1380.91572	0.06997
1379.62995	0.06797
1378.34418	0.06597
1377.05841	0.06396
1375.77264	0.06196
1374.48688	0.06002
1373.20111	0.05817
1371.91534	0.05636
1370.62957	0.05452
1369.34380	0.05270
1368.05803	0.05101
1366.77226	0.04952
1365.48649	0.04816
1364.20073	0.04684
1362.91496	0.04554
1361.62919	0.04431
1360.34342	0.04319
1359.05765	0.04218
1357.77188	0.04123
1356.48611	0.04033
1355.20034	0.03945
1353.91457	0.03860
1352.62881	0.03779
1351.34304	0.03704
1350.05727	0.03635
1348.77150	0.03571
1347.48573	0.03509
1346.19996	0.03451
1344.91419	0.03396
1343.62842	0.03345
1342.34266	0.03296
1341.05689	0.03247
1339.77112	0.03200
1338.48535	0.03161
1337.19958	0.03128
1335.91381	0.03095
1334.62804	0.03064
1333.34227	0.03032
1332.05650	0.03001
1330.77074	0.02966
1329.48497	0.02926
1328.19920	0.02883
1326.91343	0.02841
1325.62766	0.02805
1324.34189	0.02778
1323.05612	0.02756
1321.77035	0.02735
1320.48459	0.02708
1319.19882	0.02679
1317.91305	0.02651
1316.62728	0.02630
1315.34151	0.02612
1314.05574	0.02591
1312.76997	0.02565
1311.48420	0.02536
1310.19843	0.02509
1308.91267	0.02489
1307.62690	0.02474
1306.34113	0.02462
1305.05536	0.02450
1303.76959	0.02439
1302.48382	0.02425
1301.19805	0.02406
1299.91228	0.02382
1298.62652	0.02357
1297.34075	0.02335
1296.05498	0.02321
1294.76921	0.02313
1293.48344	0.02309
1292.19767	0.02303
1290.91190	0.02295
1289.62613	0.02282
1288.34036	0.02267
1287.05460	0.02254
1285.76883	0.02244
1284.48306	0.02236
1283.19729	0.02230
1281.91152	0.02221
1280.62575	0.02209
1279.33998	0.02193
1278.05421	0.02175
1276.76845	0.02157
1275.48268	0.02140
1274.19691	0.02123
1272.91114	0.02110
1271.62537	0.02105
1270.33960	0.02104
1269.05383	0.02101
1267.76806	0.02091
1266.48229	0.02075
1265.19653	0.02061
1263.91076	0.02050
1262.62499	0.02044
1261.33922	0.02038
1260.05345	0.02029
1258.76768	0.02017
1257.48191	0.02003
1256.19614	0.01991
1254.91037	0.01985
1253.62461	0.01985
1252.33884	0.01989
1251.05307	0.01993
1249.76730	0.01993
1248.48153	0.01990
1247.19576	0.01984
1245.90999	0.01975
1244.62422	0.01964
1243.33846	0.01951
1242.05269	0.01937
1240.76692	0.01926
1239.48115	0.01920
1238.19538	0.01919
1236.90961	0.01921
1235.62384	0.01920
1234.33807	0.01912
1233.05230	0.01899
1231.76654	0.01884
1230.48077	0.01870
1229.19500	0.01857
1227.90923	0.01844
1226.62346	0.01833
1225.33769	0.01823
1224.05192	0.01814
1222.76615	0.01806
1221.48039	0.01799
1220.19462	0.01794
1218.90885	0.01788
1217.62308	0.01779
1216.33731	0.01769
1215.05154	0.01760
1213.76577	0.01755
1212.48000	0.01753
1211.19423	0.01752
1209.90847	0.01751
1208.62270	0.01752
1207.33693	0.01754
1206.05116	0.01755
1204.76539	0.01756
1203.47962	0.01758
1202.19385	0.01760
1200.90808	0.01757
1199.62232	0.01750
1198.33655	0.01755
1197.05078	0.01756
1195.76501	0.01752
1194.47924	0.01743
1193.19347	0.01734
1191.90770	0.01726
1190.62193	0.01722
1189.33616	0.01723
1188.05040	0.01728
1186.76463	0.01732
1185.47886	0.01732
1184.19309	0.01732
1182.90732	0.01735
1181.62155	0.01740
1180.33578	0.01744
1179.05001	0.01745
1177.76425	0.01746
1176.47848	0.01750
1175.19271	0.01759
1173.90694	0.01769
1172.62117	0.01779
1171.33540	0.01790
1170.04963	0.01802
1168.76386	0.01819
1167.47809	0.01842
1166.19233	0.01869
1164.90656	0.01894
1163.62079	0.01915
1162.33502	0.01932
1161.04925	0.01948
1159.76348	0.01969
1158.47771	0.01998
1157.19194	0.02034
1155.90618	0.02072
1154.62041	0.02105
1153.33464	0.02135
1152.04887	0.02167
1150.76310	0.02205
1149.47733	0.02250
1148.19156	0.02299
1146.90579	0.02354
1145.62002	0.02418
1144.33426	0.02491
1143.04849	0.02570
1141.76272	0.02656
1140.47695	0.02750
1139.19118	0.02853
1137.90541	0.02966
1136.61964	0.03087
1135.33387	0.03221
1134.04811	0.03374
1132.76234	0.03548
1131.47657	0.03740
1130.19080	0.03948
1128.90503	0.04173
1127.61926	0.04418
1126.33349	0.04681
1125.04772	0.04960
1123.76195	0.05251
1122.47619	0.05557
1121.19042	0.05879
1119.90465	0.06213
1118.61888	0.06553
1117.33311	0.06894
1116.04734	0.07237
1114.76157	0.07580
1113.47580	0.07917
1112.19004	0.08247
1110.90427	0.08574
1109.61850	0.08903
1108.33273	0.09235
1107.04696	0.09561
1105.76119	0.09879
1104.47542	0.10189
1103.18965	0.10495
1101.90388	0.10791
1100.61812	0.11074
1099.33235	0.11343
1098.04658	0.11600
1096.76081	0.11849
1095.47504	0.12092
1094.18927	0.12329
1092.90350	0.12562
1091.61773	0.12792
1090.33197	0.13013
1089.04620	0.13220
1087.76043	0.13409
1086.47466	0.13585
1085.18889	0.13758
1083.90312	0.13938
1082.61735	0.14131
1081.33158	0.14339
1080.04581	0.14563
1078.76005	0.14806
1077.47428	0.15067
1076.18851	0.15342
1074.90274	0.15626
1073.61697	0.15918
1072.33120	0.16220
1071.04543	0.16533
1069.75966	0.16857
1068.47390	0.17193
1067.18813	0.17542
1065.90236	0.17904
1064.61659	0.18277
1063.33082	0.18655
1062.04505	0.19028
1060.75928	0.19389
1059.47351	0.19735
1058.18774	0.20071
1056.90198	0.20405
1055.61621	0.20742
1054.33044	0.21081
1053.04467	0.21420
1051.75890	0.21761
1050.47313	0.22109
1049.18736	0.22468
1047.90159	0.22835
1046.61583	0.23205
1045.33006	0.23573
1044.04429	0.23943
1042.75852	0.24322
1041.47275	0.24711
1040.18698	0.25110
1038.90121	0.25515
1037.61544	0.25928
1036.32967	0.26342
1035.04391	0.26745
1033.75814	0.27123
1032.47237	0.27468
1031.18660	0.27778
1029.90083	0.28056
1028.61506	0.28310
1027.32929	0.28543
1026.04352	0.28752
1024.75775	0.28927
1023.47199	0.29059
1022.18622	0.29143
1020.90045	0.29177
1019.61468	0.29164
1018.32891	0.29109
1017.04314	0.29015
1015.75737	0.28877
1014.47160	0.28688
1013.18584	0.28443
1011.90007	0.28141
1010.61430	0.27784
1009.32853	0.27368
1008.04276	0.26895
1006.75699	0.26372
1005.47122	0.25816
1004.18545	0.25234
1002.89968	0.24623
1001.61392	0.23971
1000.32815	0.23275
999.04238	0.22546
997.75661	0.21797
996.47084	0.21041
995.18507	0.20281
993.89930	0.19517
992.61353	0.18758
991.32777	0.18012
990.04200	0.17285
988.75623	0.16581
987.47046	0.15906
986.18469	0.15259
984.89892	0.14642
983.61315	0.14056
982.32738	0.13499
981.04161	0.12973
979.75585	0.12479
978.47008	0.12021
977.18431	0.11603
975.89854	0.11229
974.61277	0.10904
973.32700	0.10641
972.04123	0.10445
970.75546	0.10317
969.46970	0.10254
968.18393	0.10250
966.89816	0.10302
965.61239	0.10399
964.32662	0.10521
963.04085	0.10636
961.75508	0.10714
960.46931	0.10728
959.18354	0.10664
957.89778	0.10521
956.61201	0.10308
955.32624	0.10043
954.04047	0.09748
952.75470	0.09443
951.46893	0.09148
950.18316	0.08871
948.89739	0.08607
947.61163	0.08350
946.32586	0.08099
945.04009	0.07855
943.75432	0.07620
942.46855	0.07392
941.18278	0.07169
939.89701	0.06956
938.61124	0.06757
937.32547	0.06574
936.03971	0.06407
934.75394	0.06254
933.46817	0.06116
932.18240	0.05987
930.89663	0.05863
929.61086	0.05742
928.32509	0.05631
927.03932	0.05536
925.75356	0.05452
924.46779	0.05372
923.18202	0.05291
921.89625	0.05211
920.61048	0.05132
919.32471	0.05054
918.03894	0.04979
916.75317	0.04911
915.46740	0.04850
914.18164	0.04796
912.89587	0.04747
911.61010	0.04700
910.32433	0.04655
909.03856	0.04610
907.75279	0.04568
906.46702	0.04526
905.18125	0.04485
903.89549	0.04449
902.60972	0.04416
901.32395	0.04380
900.03818	0.04337
898.75241	0.04293
897.46664	0.04256
896.18087	0.04228
894.89510	0.04206
893.60933	0.04187
892.32357	0.04174
891.03780	0.04170
889.75203	0.04174
888.46626	0.04195
887.18049	0.04250
885.89472	0.04364
884.60895	0.04558
883.32318	0.04835
882.03742	0.05172
880.75165	0.05510
879.46588	0.05786
878.18011	0.05973
876.89434	0.06102
875.60857	0.06233
874.32280	0.06391
873.03703	0.06539
871.75126	0.06620
870.46550	0.06599
869.17973	0.06479
867.89396	0.06285
866.60819	0.06042
865.32242	0.05777
864.03665	0.05510
862.75088	0.05259
861.46511	0.05035
860.17935	0.04842
858.89358	0.04682
857.60781	0.04554
856.32204	0.04451
855.03627	0.04364
853.75050	0.04285
852.46473	0.04210
851.17896	0.04144
849.89319	0.04091
848.60743	0.04048
847.32166	0.04007
846.03589	0.03965
844.75012	0.03922
843.46435	0.03885
842.17858	0.03857
840.89281	0.03836
839.60704	0.03820
838.32128	0.03801
837.03551	0.03777
835.74974	0.03749
834.46397	0.03724
833.17820	0.03709
831.89243	0.03703
830.60666	0.03698
829.32089	0.03687
828.03512	0.03672
826.74936	0.03657
825.46359	0.03642
824.17782	0.03626
822.89205	0.03611
821.60628	0.03601
820.32051	0.03597
819.03474	0.03594
817.74897	0.03591
816.46321	0.03589
815.17744	0.03587
813.89167	0.03584
812.60590	0.03581
811.32013	0.03579
810.03436	0.03577
808.74859	0.03570
807.46282	0.03555
806.17705	0.03538
804.89129	0.03527
803.60552	0.03525
802.31975	0.03528
801.03398	0.03531
799.74821	0.03531
798.46244	0.03531
797.17667	0.03530
795.89090	0.03530
794.60513	0.03530
793.31937	0.03528
792.03360	0.03529
790.74783	0.03535
789.46206	0.03543
788.17629	0.03546
786.89052	0.03535
785.60475	0.03514
784.31898	0.03489
783.03322	0.03468
781.74745	0.03454
780.46168	0.03451
779.17591	0.03461
777.89014	0.03480
776.60437	0.03501
775.31860	0.03515
774.03283	0.03518
772.74706	0.03512
771.46130	0.03505
770.17553	0.03497
768.88976	0.03487
767.60399	0.03479
766.31822	0.03477
765.03245	0.03488
763.74668	0.03508
762.46091	0.03526
761.17515	0.03537
759.88938	0.03540
758.60361	0.03539
757.31784	0.03534
756.03207	0.03525
754.74630	0.03514
753.46053	0.03501
752.17476	0.03494
750.88899	0.03493
749.60323	0.03491
748.31746	0.03483
747.03169	0.03473
745.74592	0.03465
744.46015	0.03458
743.17438	0.03445
741.88861	0.03424
740.60284	0.03405
739.31708	0.03397
738.03131	0.03402
736.74554	0.03415
735.45977	0.03427
734.17400	0.03428
732.88823	0.03415
731.60246	0.03395
730.31669	0.03381
729.03092	0.03374
727.74516	0.03372
726.45939	0.03373
725.17362	0.03379
723.88785	0.03392
722.60208	0.03402
721.31631	0.03405
720.03054	0.03396
718.74477	0.03379
717.45901	0.03364
716.17324	0.03356
714.88747	0.03355
713.60170	0.03357
712.31593	0.03362
711.03016	0.03368
709.74439	0.03376
708.45862	0.03385
707.17285	0.03391
705.88709	0.03391
704.60132	0.03384
703.31555	0.03376
702.02978	0.03374
700.74401	0.03379
699.45824	0.03387
698.17247	0.03391
696.88670	0.03390
695.60094	0.03387
694.31517	0.03383
693.02940	0.03381
691.74363	0.03381
690.45786	0.03383
689.17209	0.03385
687.88632	0.03385
686.60055	0.03380
685.31478	0.03371
684.02902	0.03357
682.74325	0.03339
681.45748	0.03320
680.17171	0.03302
678.88594	0.03289
677.60017	0.03282
676.31440	0.03280
675.02863	0.03284
673.74287	0.03296
672.45710	0.03315
671.17133	0.03339
669.88556	0.03361
668.59979	0.03376
667.31402	0.03378
666.02825	0.03367
664.74248	0.03343
663.45671	0.03311
662.17095	0.03279
660.88518	0.03257
659.59941	0.03248
658.31364	0.03247
657.02787	0.03246
655.74210	0.03241
654.45633	0.03235
653.17056	0.03231
651.88480	0.03229
650.59903	0.03229
649.31326	0.03232
648.02749	0.03239
646.74172	0.03250
645.45595	0.03263
644.17018	0.03276
642.88441	0.03287
641.59864	0.03298
640.31288	0.03310
639.02711	0.03326
637.74134	0.03346
636.45557	0.03373
635.16980	0.03410
633.88403	0.03456
632.59826	0.03508
631.31249	0.03571
630.02673	0.03703
628.74096	0.03903
627.45519	0.03938
626.16942	0.04176
624.88365	0.04542
623.59788	0.04886
622.31211	0.05161
621.02634	0.05370
619.74057	0.05542
618.45481	0.05712
617.16904	0.05883
615.88327	0.06035
614.59750	0.06185
613.31173	0.06415
612.02596	0.06821
610.74019	0.07425
609.45442	0.08151
608.16866	0.08881
606.88289	0.09506
605.59712	0.09964
604.31135	0.10250
603.02558	0.10407
601.73981	0.10470
600.45404	0.10440
599.16827	0.10304
597.88250	0.10063
596.59674	0.09750
595.31097	0.09418
594.02520	0.09121
592.73943	0.08889
591.45366	0.08731
590.16789	0.08641
588.88212	0.08615
587.59635	0.08653
586.31059	0.08753
585.02482	0.08905
583.73905	0.09099
582.45328	0.09329
581.16751	0.09593
579.88174	0.09882
578.59597	0.10184
577.31020	0.10482
576.02443	0.10772
574.73867	0.11059
573.45290	0.11348
572.16713	0.11635
570.88136	0.11921
569.59559	0.12214
568.30982	0.12526
567.02405	0.12867
565.73828	0.13227
564.45251	0.13573
563.16675	0.13850
561.88098	0.13992
560.59521	0.13959
559.30944	0.13745
558.02367	0.13374
556.73790	0.12880
555.45213	0.12302
554.16636	0.11683
552.88060	0.11058
551.59483	0.10448
550.30906	0.09866
549.02329	0.09325
547.73752	0.08841
546.45175	0.08422
545.16598	0.08059
543.88021	0.07729
542.59444	0.07414
541.30868	0.07114
540.02291	0.06832
538.73714	0.06566
537.45137	0.06310
536.16560	0.06072
534.87983	0.05867
533.59406	0.05704
532.30829	0.05572
531.02253	0.05450
529.73676	0.05323
528.45099	0.05185
527.16522	0.05047
525.87945	0.04919
524.59368	0.04805
523.30791	0.04697
522.02214	0.04586
520.73637	0.04474
519.45061	0.04368
518.16484	0.04276
516.87907	0.04197
515.59330	0.04125
514.30753	0.04051
513.02176	0.03976
511.73599	0.03906
510.45022	0.03847
509.16446	0.03791
507.87869	0.03731
506.59292	0.03663
505.30715	0.03592
504.02138	0.03527
502.73561	0.03474
501.44984	0.03434
500.16407	0.03403
498.87830	0.03377
497.59254	0.03354
496.30677	0.03333
495.02100	0.03311
493.73523	0.03291
492.44946	0.03273
491.16369	0.03257
489.87792	0.03240
488.59215	0.03221
487.30639	0.03203
486.02062	0.03188
484.73485	0.03176
483.44908	0.03169
482.16331	0.03167
480.87754	0.03170
479.59177	0.03175
478.30600	0.03181
477.02023	0.03189
475.73447	0.03202
474.44870	0.03220
473.16293	0.03240
471.87716	0.03259
470.59139	0.03272
469.30562	0.03276
468.01985	0.03269
466.73408	0.03256
465.44832	0.03236
464.16255	0.03210
462.87678	0.03177
461.59101	0.03138
460.30524	0.03095
459.01947	0.03051
457.73370	0.03013
456.44793	0.02982
455.16216	0.02954
453.87640	0.02926
452.59063	0.02894
451.30486	0.02860
450.01909	0.02824
448.73332	0.02794
447.44755	0.02773
446.16178	0.02761
444.87601	0.02750
443.59025	0.02737
442.30448	0.02722
441.01871	0.02705
439.73294	0.02688
438.44717	0.02673
437.16140	0.02663
435.87563	0.02661
434.58986	0.02658
433.30409	0.02650
432.01833	0.02638
430.73256	0.02631
429.44679	0.02631
428.16102	0.02630
426.87525	0.02620
425.58948	0.02600
424.30371	0.02579
423.01794	0.02561
421.73218	0.02542
420.44641	0.02517
419.16064	0.02494
417.87487	0.02480
416.58910	0.02475
415.30333	0.02470
414.01756	0.02463
412.73179	0.02453
411.44602	0.02442
410.16026	0.02436
408.87449	0.02439
407.58872	0.02451
406.30295	0.02465
405.01718	0.02472
403.73141	0.02473
402.44564	0.02473
401.15987	0.02474
399.87411	0.02475
