3997.45528	0.02758
3996.16951	0.02740
3994.88374	0.02709
3993.59798	0.02665
3992.31221	0.02630
3991.02644	0.02619
3989.74067	0.02625
3988.45490	0.02633
3987.16913	0.02652
3985.88336	0.02699
3984.59759	0.02766
3983.31183	0.02816
3982.02606	0.02808
3980.74029	0.02737
3979.45452	0.02630
3978.16875	0.02524
3976.88298	0.02447
3975.59721	0.02413
3974.31144	0.02424
3973.02567	0.02472
3971.73991	0.02543
3970.45414	0.02614
3969.16837	0.02649
3967.88260	0.02630
3966.59683	0.02584
3965.31106	0.02559
3964.02529	0.02574
3962.73952	0.02602
3961.45376	0.02615
3960.16799	0.02614
3958.88222	0.02608
3957.59645	0.02593
3956.31068	0.02563
3955.02491	0.02533
3953.73914	0.02529
3952.45337	0.02566
3951.16760	0.02629
3949.88184	0.02687
3948.59607	0.02711
3947.31030	0.02696
3946.02453	0.02657
3944.73876	0.02610
3943.45299	0.02554
3942.16722	0.02490
3940.88145	0.02434
3939.59569	0.02406
3938.30992	0.02408
3937.02415	0.02418
3935.73838	0.02414
3934.45261	0.02394
3933.16684	0.02369
3931.88107	0.02357
3930.59530	0.02368
3929.30953	0.02392
3928.02377	0.02403
3926.73800	0.02394
3925.45223	0.02385
3924.16646	0.02397
3922.88069	0.02433
3921.59492	0.02481
3920.30915	0.02525
3919.02338	0.02549
3917.73762	0.02546
3916.45185	0.02535
3915.16608	0.02546
3913.88031	0.02586
3912.59454	0.02631
3911.30877	0.02652
3910.02300	0.02645
3908.73723	0.02622
3907.45146	0.02593
3906.16570	0.02560
3904.87993	0.02528
3903.59416	0.02512
3902.30839	0.02512
3901.02262	0.02509
3899.73685	0.02484
3898.45108	0.02440
3897.16531	0.02395
3895.87955	0.02355
3894.59378	0.02317
3893.30801	0.02288
3892.02224	0.02290
3890.73647	0.02335
3889.45070	0.02407
3888.16493	0.02471
3886.87916	0.02498
3885.59339	0.02469
3884.30763	0.02382
3883.02186	0.02258
3881.73609	0.02136
3880.45032	0.02051
3879.16455	0.02007
3877.87878	0.01995
3876.59301	0.02013
3875.30724	0.02062
3874.02148	0.02131
3872.73571	0.02190
3871.44994	0.02224
3870.16417	0.02238
3868.87840	0.02241
3867.59263	0.02225
3866.30686	0.02189
3865.02109	0.02155
3863.73532	0.02150
3862.44956	0.02180
3861.16379	0.02228
3859.87802	0.02277
3858.59225	0.02318
3857.30648	0.02342
3856.02071	0.02335
3854.73494	0.02292
3853.44917	0.02237
3852.16341	0.02203
3850.87764	0.02206
3849.59187	0.02229
3848.30610	0.02249
3847.02033	0.02256
3845.73456	0.02249
3844.44879	0.02233
3843.16302	0.02214
3841.87725	0.02196
3840.59149	0.02185
3839.30572	0.02181
3838.01995	0.02178
3836.73418	0.02174
3835.44841	0.02175
3834.16264	0.02186
3832.87687	0.02200
3831.59110	0.02206
3830.30534	0.02207
3829.01957	0.02207
3827.73380	0.02205
3826.44803	0.02191
3825.16226	0.02167
3823.87649	0.02151
3822.59072	0.02152
3821.30495	0.02159
3820.01918	0.02155
3818.73342	0.02134
3817.44765	0.02109
3816.16188	0.02103
3814.87611	0.02126
3813.59034	0.02160
3812.30457	0.02187
3811.01880	0.02213
3809.73303	0.02255
3808.44726	0.02297
3807.16150	0.02296
3805.87573	0.02223
3804.58996	0.02107
3803.30419	0.01999
3802.01842	0.01940
3800.73265	0.01948
3799.44688	0.02014
3798.16111	0.02104
3796.87535	0.02187
3795.58958	0.02253
3794.30381	0.02300
3793.01804	0.02314
3791.73227	0.02278
3790.44650	0.02204
3789.16073	0.02131
3787.87496	0.02083
3786.58919	0.02048
3785.30343	0.02011
3784.01766	0.01982
3782.73189	0.01976
3781.44612	0.01993
3780.16035	0.02020
3778.87458	0.02044
3777.58881	0.02061
3776.30304	0.02069
3775.01728	0.02071
3773.73151	0.02075
3772.44574	0.02090
3771.15997	0.02114
3769.87420	0.02134
3768.58843	0.02146
3767.30266	0.02156
3766.01689	0.02172
3764.73112	0.02194
3763.44536	0.02217
3762.15959	0.02229
3760.87382	0.02226
3759.58805	0.02213
3758.30228	0.02204
3757.01651	0.02202
3755.73074	0.02189
3754.44497	0.02155
3753.15921	0.02120
3751.87344	0.02121
3750.58767	0.02169
3749.30190	0.02237
3748.01613	0.02292
3746.73036	0.02330
3745.44459	0.02360
3744.15882	0.02372
3742.87305	0.02351
3741.58729	0.02305
3740.30152	0.02262
3739.01575	0.02240
3737.72998	0.02235
3736.44421	0.02230
3735.15844	0.02222
3733.87267	0.02221
3732.58690	0.02232
3731.30114	0.02239
3730.01537	0.02212
3728.72960	0.02146
3727.44383	0.02065
3726.15806	0.01998
3724.87229	0.01952
3723.58652	0.01925
3722.30075	0.01921
3721.01498	0.01942
3719.72922	0.01976
3718.44345	0.02006
3717.15768	0.02027
3715.87191	0.02040
3714.58614	0.02039
3713.30037	0.02012
3712.01460	0.01956
3710.72883	0.01899
3709.44307	0.01888
3708.15730	0.01948
3706.87153	0.02060
3705.58576	0.02169
3704.29999	0.02225
3703.01422	0.02213
3701.72845	0.02148
3700.44268	0.02063
3699.15691	0.01982
3697.87115	0.01925
3696.58538	0.01906
3695.29961	0.01928
3694.01384	0.01974
3692.72807	0.02020
3691.44230	0.02052
3690.15653	0.02067
3688.87076	0.02058
3687.58500	0.02019
3686.29923	0.01959
3685.01346	0.01914
3683.72769	0.01913
3682.44192	0.01959
3681.15615	0.02020
3679.87038	0.02056
3678.58461	0.02045
3677.29884	0.02002
3676.01308	0.01957
3674.72731	0.01939
3673.44154	0.01953
3672.15577	0.01993
3670.87000	0.02034
3669.58423	0.02047
3668.29846	0.02018
3667.01269	0.01955
3665.72693	0.01896
3664.44116	0.01875
3663.15539	0.01901
3661.86962	0.01951
3660.58385	0.01989
3659.29808	0.01998
3658.01231	0.01978
3656.72654	0.01946
3655.44077	0.01929
3654.15501	0.01948
3652.86924	0.01994
3651.58347	0.02034
3650.29770	0.02044
3649.01193	0.02028
3647.72616	0.02007
3646.44039	0.01989
3645.15462	0.01970
3643.86886	0.01947
3642.58309	0.01922
3641.29732	0.01891
3640.01155	0.01850
3638.72578	0.01805
3637.44001	0.01780
3636.15424	0.01798
3634.86847	0.01853
3633.58270	0.01906
3632.29694	0.01917
3631.01117	0.01879
3629.72540	0.01822
3628.43963	0.01787
3627.15386	0.01799
3625.86809	0.01852
3624.58232	0.01909
3623.29655	0.01933
3622.01079	0.01916
3620.72502	0.01879
3619.43925	0.01845
3618.15348	0.01828
3616.86771	0.01836
3615.58194	0.01871
3614.29617	0.01912
3613.01040	0.01924
3611.72463	0.01887
3610.43887	0.01822
3609.15310	0.01771
3607.86733	0.01758
3606.58156	0.01768
3605.29579	0.01770
3604.01002	0.01747
3602.72425	0.01711
3601.43848	0.01690
3600.15272	0.01697
3598.86695	0.01722
3597.58118	0.01755
3596.29541	0.01793
3595.00964	0.01827
3593.72387	0.01827
3592.43810	0.01766
3591.15233	0.01666
3589.86656	0.01591
3588.58080	0.01590
3587.29503	0.01655
3586.00926	0.01730
3584.72349	0.01773
3583.43772	0.01783
3582.15195	0.01782
3580.86618	0.01788
3579.58041	0.01800
3578.29464	0.01806
3577.00888	0.01787
3575.72311	0.01744
3574.43734	0.01695
3573.15157	0.01665
3571.86580	0.01663
3570.58003	0.01679
3569.29426	0.01695
3568.00849	0.01691
3566.72273	0.01666
3565.43696	0.01638
3564.15119	0.01628
3562.86542	0.01634
3561.57965	0.01627
3560.29388	0.01600
3559.00811	0.01583
3557.72234	0.01604
3556.43657	0.01650
3555.15081	0.01678
3553.86504	0.01668
3552.57927	0.01631
3551.29350	0.01586
3550.00773	0.01543
3548.72196	0.01507
3547.43619	0.01489
3546.15042	0.01489
3544.86466	0.01497
3543.57889	0.01491
3542.29312	0.01460
3541.00735	0.01417
3539.72158	0.01391
3538.43581	0.01400
3537.15004	0.01429
3535.86427	0.01452
3534.57850	0.01471
3533.29274	0.01508
3532.00697	0.01570
3530.72120	0.01631
3529.43543	0.01652
3528.14966	0.01619
3526.86389	0.01555
3525.57812	0.01514
3524.29235	0.01536
3523.00659	0.01608
3521.72082	0.01672
3520.43505	0.01669
3519.14928	0.01593
3517.86351	0.01490
3516.57774	0.01418
3515.29197	0.01407
3514.00620	0.01444
3512.72043	0.01489
3511.43467	0.01509
3510.14890	0.01498
3508.86313	0.01474
3507.57736	0.01455
3506.29159	0.01443
3505.00582	0.01427
3503.72005	0.01400
3502.43428	0.01373
3501.14852	0.01367
3499.86275	0.01395
3498.57698	0.01445
3497.29121	0.01482
3496.00544	0.01478
3494.71967	0.01437
3493.43390	0.01389
3492.14813	0.01360
3490.86236	0.01346
3489.57660	0.01326
3488.29083	0.01295
3487.00506	0.01267
3485.71929	0.01254
3484.43352	0.01252
3483.14775	0.01256
3481.86198	0.01272
3480.57621	0.01310
3479.29045	0.01361
3478.00468	0.01399
3476.71891	0.01406
3475.43314	0.01391
3474.14737	0.01379
3472.86160	0.01386
3471.57583	0.01408
3470.29006	0.01435
3469.00429	0.01456
3467.71853	0.01467
3466.43276	0.01466
3465.14699	0.01452
3463.86122	0.01422
3462.57545	0.01372
3461.28968	0.01308
3460.00391	0.01257
3458.71814	0.01244
3457.43238	0.01266
3456.14661	0.01301
3454.86084	0.01334
3453.57507	0.01369
3452.28930	0.01410
3451.00353	0.01451
3449.71776	0.01473
3448.43199	0.01460
3447.14622	0.01414
3445.86046	0.01354
3444.57469	0.01305
3443.28892	0.01287
3442.00315	0.01298
3440.71738	0.01318
3439.43161	0.01324
3438.14584	0.01311
3436.86007	0.01300
3435.57431	0.01321
3434.28854	0.01369
3433.00277	0.01398
3431.71700	0.01363
3430.43123	0.01282
3429.14546	0.01221
3427.85969	0.01230
3426.57392	0.01296
3425.28815	0.01362
3424.00239	0.01389
3422.71662	0.01377
3421.43085	0.01343
3420.14508	0.01302
3418.85931	0.01262
3417.57354	0.01234
3416.28777	0.01228
3415.00200	0.01248
3413.71624	0.01282
3412.43047	0.01303
3411.14470	0.01281
3409.85893	0.01213
3408.57316	0.01142
3407.28739	0.01120
3406.00162	0.01161
3404.71585	0.01224
3403.43008	0.01257
3402.14432	0.01245
3400.85855	0.01213
3399.57278	0.01189
3398.28701	0.01186
3397.00124	0.01199
3395.71547	0.01222
3394.42970	0.01242
3393.14393	0.01242
3391.85817	0.01224
3390.57240	0.01210
3389.28663	0.01224
3388.00086	0.01262
3386.71509	0.01304
3385.42932	0.01335
3384.14355	0.01353
3382.85778	0.01357
3381.57201	0.01353
3380.28625	0.01347
3379.00048	0.01343
3377.71471	0.01332
3376.42894	0.01314
3375.14317	0.01303
3373.85740	0.01309
3372.57163	0.01315
3371.28586	0.01300
3370.00010	0.01272
3368.71433	0.01258
3367.42856	0.01271
3366.14279	0.01290
3364.85702	0.01284
3363.57125	0.01246
3362.28548	0.01194
3360.99971	0.01153
3359.71394	0.01138
3358.42818	0.01149
3357.14241	0.01181
3355.85664	0.01220
3354.57087	0.01257
3353.28510	0.01290
3351.99933	0.01321
3350.71356	0.01349
3349.42779	0.01367
3348.14202	0.01374
3346.85626	0.01379
3345.57049	0.01388
3344.28472	0.01395
3342.99895	0.01386
3341.71318	0.01355
3340.42741	0.01312
3339.14164	0.01276
3337.85587	0.01265
3336.57011	0.01289
3335.28434	0.01344
3333.99857	0.01412
3332.71280	0.01466
3331.42703	0.01490
3330.14126	0.01478
3328.85549	0.01440
3327.56972	0.01402
3326.28395	0.01392
3324.99819	0.01418
3323.71242	0.01463
3322.42665	0.01506
3321.14088	0.01535
3319.85511	0.01547
3318.56934	0.01539
3317.28357	0.01518
3315.99780	0.01500
3314.71204	0.01498
3313.42627	0.01506
3312.14050	0.01505
3310.85473	0.01487
3309.56896	0.01461
3308.28319	0.01439
3306.99742	0.01427
3305.71165	0.01430
3304.42588	0.01446
3303.14012	0.01460
3301.85435	0.01460
3300.56858	0.01442
3299.28281	0.01411
3297.99704	0.01374
3296.71127	0.01342
3295.42550	0.01334
3294.13973	0.01363
3292.85397	0.01420
3291.56820	0.01467
3290.28243	0.01469
3288.99666	0.01426
3287.71089	0.01368
3286.42512	0.01333
3285.13935	0.01335
3283.85358	0.01368
3282.56781	0.01419
3281.28205	0.01475
3279.99628	0.01525
3278.71051	0.01560
3277.42474	0.01572
3276.13897	0.01567
3274.85320	0.01553
3273.56743	0.01543
3272.28166	0.01544
3270.99590	0.01553
3269.71013	0.01559
3268.42436	0.01556
3267.13859	0.01545
3265.85282	0.01539
3264.56705	0.01549
3263.28128	0.01572
3261.99551	0.01596
3260.70974	0.01602
3259.42398	0.01583
3258.13821	0.01551
3256.85244	0.01523
3255.56667	0.01506
3254.28090	0.01491
3252.99513	0.01468
3251.70936	0.01439
3250.42359	0.01417
3249.13783	0.01420
3247.85206	0.01455
3246.56629	0.01514
3245.28052	0.01566
3243.99475	0.01573
3242.70898	0.01524
3241.42321	0.01448
3240.13744	0.01395
3238.85167	0.01393
3237.56591	0.01433
3236.28014	0.01486
3234.99437	0.01525
3233.70860	0.01543
3232.42283	0.01541
3231.13706	0.01529
3229.85129	0.01519
3228.56552	0.01518
3227.27976	0.01522
3225.99399	0.01518
3224.70822	0.01497
3223.42245	0.01466
3222.13668	0.01441
3220.85091	0.01431
3219.56514	0.01428
3218.27937	0.01418
3216.99360	0.01396
3215.70784	0.01377
3214.42207	0.01379
3213.13630	0.01413
3211.85053	0.01465
3210.56476	0.01505
3209.27899	0.01508
3207.99322	0.01477
3206.70745	0.01442
3205.42169	0.01430
3204.13592	0.01442
3202.85015	0.01456
3201.56438	0.01454
3200.27861	0.01428
3198.99284	0.01388
3197.70707	0.01354
3196.42130	0.01346
3195.13553	0.01366
3193.84977	0.01406
3192.56400	0.01449
3191.27823	0.01485
3189.99246	0.01512
3188.70669	0.01533
3187.42092	0.01548
3186.13515	0.01555
3184.84938	0.01556
3183.56362	0.01561
3182.27785	0.01568
3180.99208	0.01563
3179.70631	0.01534
3178.42054	0.01494
3177.13477	0.01471
3175.84900	0.01478
3174.56323	0.01498
3173.27746	0.01508
3171.99170	0.01506
3170.70593	0.01507
3169.42016	0.01516
3168.13439	0.01520
3166.84862	0.01507
3165.56285	0.01484
3164.27708	0.01470
3162.99131	0.01473
3161.70555	0.01487
3160.41978	0.01499
3159.13401	0.01509
3157.84824	0.01520
3156.56247	0.01534
3155.27670	0.01546
3153.99093	0.01552
3152.70516	0.01557
3151.41939	0.01567
3150.13363	0.01581
3148.84786	0.01590
3147.56209	0.01580
3146.27632	0.01546
3144.99055	0.01495
3143.70478	0.01448
3142.41901	0.01424
3141.13324	0.01431
3139.84748	0.01457
3138.56171	0.01487
3137.27594	0.01509
3135.99017	0.01514
3134.70440	0.01500
3133.41863	0.01467
3132.13286	0.01425
3130.84709	0.01388
3129.56132	0.01370
3128.27556	0.01372
3126.98979	0.01384
3125.70402	0.01402
3124.41825	0.01425
3123.13248	0.01449
3121.84671	0.01467
3120.56094	0.01471
3119.27517	0.01467
3117.98940	0.01464
3116.70364	0.01463
3115.41787	0.01462
3114.13210	0.01455
3112.84633	0.01444
3111.56056	0.01435
3110.27479	0.01437
3108.98902	0.01455
3107.70325	0.01480
3106.41749	0.01495
3105.13172	0.01485
3103.84595	0.01454
3102.56018	0.01421
3101.27441	0.01406
3099.98864	0.01417
3098.70287	0.01442
3097.41710	0.01470
3096.13133	0.01493
3094.84557	0.01512
3093.55980	0.01531
3092.27403	0.01553
3090.98826	0.01574
3089.70249	0.01580
3088.41672	0.01558
3087.13095	0.01517
3085.84518	0.01476
3084.55942	0.01451
3083.27365	0.01441
3081.98788	0.01437
3080.70211	0.01431
3079.41634	0.01426
3078.13057	0.01424
3076.84480	0.01434
3075.55903	0.01457
3074.27326	0.01484
3072.98750	0.01502
3071.70173	0.01505
3070.41596	0.01493
3069.13019	0.01464
3067.84442	0.01419
3066.55865	0.01366
3065.27288	0.01331
3063.98711	0.01329
3062.70135	0.01356
3061.41558	0.01390
3060.12981	0.01419
3058.84404	0.01445
3057.55827	0.01466
3056.27250	0.01472
3054.98673	0.01461
3053.70096	0.01444
3052.41519	0.01438
3051.12943	0.01447
3049.84366	0.01463
3048.55789	0.01474
3047.27212	0.01478
3045.98635	0.01477
3044.70058	0.01472
3043.41481	0.01467
3042.12904	0.01468
3040.84328	0.01477
3039.55751	0.01490
3038.27174	0.01494
3036.98597	0.01483
3035.70020	0.01462
3034.41443	0.01437
3033.12866	0.01419
3031.84289	0.01412
3030.55712	0.01413
3029.27136	0.01414
3027.98559	0.01407
3026.69982	0.01387
3025.41405	0.01359
3024.12828	0.01338
3022.84251	0.01336
3021.55674	0.01353
3020.27097	0.01377
3018.98521	0.01397
3017.69944	0.01412
3016.41367	0.01428
3015.12790	0.01447
3013.84213	0.01461
3012.55636	0.01460
3011.27059	0.01442
3009.98482	0.01416
3008.69905	0.01391
3007.41329	0.01371
3006.12752	0.01362
3004.84175	0.01370
3003.55598	0.01392
3002.27021	0.01407
3000.98444	0.01395
2999.69867	0.01354
2998.41290	0.01305
2997.12714	0.01283
2995.84137	0.01298
2994.55560	0.01332
2993.26983	0.01353
2991.98406	0.01349
2990.69829	0.01330
2989.41252	0.01314
2988.12675	0.01309
2986.84098	0.01319
2985.55522	0.01339
2984.26945	0.01362
2982.98368	0.01376
2981.69791	0.01380
2980.41214	0.01384
2979.12637	0.01396
2977.84060	0.01409
2976.55483	0.01409
2975.26907	0.01397
2973.98330	0.01386
2972.69753	0.01388
2971.41176	0.01396
2970.12599	0.01399
2968.84022	0.01399
2967.55445	0.01414
2966.26868	0.01452
2964.98291	0.01498
2963.69715	0.01523
2962.41138	0.01521
2961.12561	0.01509
2959.83984	0.01507
2958.55407	0.01519
2957.26830	0.01533
2955.98253	0.01538
2954.69676	0.01530
2953.41100	0.01512
2952.12523	0.01492
2950.83946	0.01480
2949.55369	0.01485
2948.26792	0.01496
2946.98215	0.01494
2945.69638	0.01468
2944.41061	0.01433
2943.12484	0.01415
2941.83908	0.01419
2940.55331	0.01431
2939.26754	0.01436
2937.98177	0.01441
2936.69600	0.01456
2935.41023	0.01478
2934.12446	0.01495
2932.83869	0.01496
2931.55293	0.01485
2930.26716	0.01474
2928.98139	0.01470
2927.69562	0.01465
2926.40985	0.01451
2925.12408	0.01431
2923.83831	0.01420
2922.55254	0.01422
2921.26677	0.01426
2919.98101	0.01425
2918.69524	0.01429
2917.40947	0.01450
2916.12370	0.01481
2914.83793	0.01502
2913.55216	0.01497
2912.26639	0.01479
2910.98062	0.01471
2909.69486	0.01484
2908.40909	0.01507
2907.12332	0.01520
2905.83755	0.01512
2904.55178	0.01494
2903.26601	0.01493
2901.98024	0.01517
2900.69447	0.01543
2899.40870	0.01537
2898.12294	0.01494
2896.83717	0.01447
2895.55140	0.01430
2894.26563	0.01442
2892.97986	0.01456
2891.69409	0.01453
2890.40832	0.01435
2889.12255	0.01418
2887.83678	0.01410
2886.55102	0.01410
2885.26525	0.01411
2883.97948	0.01408
2882.69371	0.01402
2881.40794	0.01404
2880.12217	0.01418
2878.83640	0.01432
2877.55063	0.01428
2876.26487	0.01407
2874.97910	0.01386
2873.69333	0.01383
2872.40756	0.01399
2871.12179	0.01422
2869.83602	0.01445
2868.55025	0.01465
2867.26448	0.01479
2865.97871	0.01483
2864.69295	0.01483
2863.40718	0.01487
2862.12141	0.01494
2860.83564	0.01496
2859.54987	0.01482
2858.26410	0.01456
2856.97833	0.01424
2855.69256	0.01394
2854.40680	0.01369
2853.12103	0.01352
2851.83526	0.01342
2850.54949	0.01334
2849.26372	0.01328
2847.97795	0.01330
2846.69218	0.01343
2845.40641	0.01360
2844.12064	0.01371
2842.83488	0.01378
2841.54911	0.01387
2840.26334	0.01397
2838.97757	0.01393
2837.69180	0.01370
2836.40603	0.01334
2835.12026	0.01305
2833.83449	0.01297
2832.54873	0.01308
2831.26296	0.01329
2829.97719	0.01350
2828.69142	0.01365
2827.40565	0.01372
2826.11988	0.01371
2824.83411	0.01361
2823.54834	0.01346
2822.26257	0.01332
2820.97681	0.01324
2819.69104	0.01327
2818.40527	0.01335
2817.11950	0.01341
2815.83373	0.01340
2814.54796	0.01329
2813.26219	0.01308
2811.97642	0.01281
2810.69066	0.01261
2809.40489	0.01256
2808.11912	0.01258
2806.83335	0.01256
2805.54758	0.01251
2804.26181	0.01254
2802.97604	0.01264
2801.69027	0.01272
2800.40450	0.01268
2799.11874	0.01257
2797.83297	0.01243
2796.54720	0.01224
2795.26143	0.01202
2793.97566	0.01185
2792.68989	0.01181
2791.40412	0.01191
2790.11835	0.01210
2788.83259	0.01230
2787.54682	0.01245
2786.26105	0.01250
2784.97528	0.01246
2783.68951	0.01236
2782.40374	0.01227
2781.11797	0.01225
2779.83220	0.01231
2778.54643	0.01240
2777.26067	0.01241
2775.97490	0.01232
2774.68913	0.01220
2773.40336	0.01213
2772.11759	0.01214
2770.83182	0.01213
2769.54605	0.01203
2768.26028	0.01187
2766.97452	0.01176
2765.68875	0.01175
2764.40298	0.01179
2763.11721	0.01181
2761.83144	0.01179
2760.54567	0.01174
2759.25990	0.01170
2757.97413	0.01167
2756.68836	0.01171
2755.40260	0.01187
2754.11683	0.01211
2752.83106	0.01231
2751.54529	0.01236
2750.25952	0.01227
2748.97375	0.01222
2747.68798	0.01237
2746.40221	0.01270
2745.11645	0.01298
2743.83068	0.01301
2742.54491	0.01275
2741.25914	0.01236
2739.97337	0.01206
2738.68760	0.01192
2737.40183	0.01187
2736.11606	0.01183
2734.83029	0.01178
2733.54453	0.01173
2732.25876	0.01170
2730.97299	0.01166
2729.68722	0.01161
2728.40145	0.01158
2727.11568	0.01160
2725.82991	0.01165
2724.54414	0.01169
2723.25838	0.01165
2721.97261	0.01151
2720.68684	0.01135
2719.40107	0.01126
2718.11530	0.01130
2716.82953	0.01142
2715.54376	0.01155
2714.25799	0.01169
2712.97222	0.01180
2711.68646	0.01181
2710.40069	0.01165
2709.11492	0.01137
2707.82915	0.01108
2706.54338	0.01082
2705.25761	0.01065
2703.97184	0.01063
2702.68607	0.01077
2701.40031	0.01098
2700.11454	0.01113
2698.82877	0.01117
2697.54300	0.01113
2696.25723	0.01109
2694.97146	0.01106
2693.68569	0.01102
2692.39992	0.01097
2691.11415	0.01095
2689.82839	0.01102
2688.54262	0.01117
2687.25685	0.01128
2685.97108	0.01131
2684.68531	0.01134
2683.39954	0.01143
2682.11377	0.01154
2680.82800	0.01155
2679.54224	0.01141
2678.25647	0.01123
2676.97070	0.01117
2675.68493	0.01122
2674.39916	0.01126
2673.11339	0.01120
2671.82762	0.01110
2670.54185	0.01108
2669.25608	0.01118
2667.97032	0.01133
2666.68455	0.01147
2665.39878	0.01158
2664.11301	0.01163
2662.82724	0.01162
2661.54147	0.01153
2660.25570	0.01140
2658.96993	0.01130
2657.68417	0.01129
2656.39840	0.01135
2655.11263	0.01142
2653.82686	0.01144
2652.54109	0.01141
2651.25532	0.01135
2649.96955	0.01132
2648.68378	0.01135
2647.39801	0.01142
2646.11225	0.01146
2644.82648	0.01144
2643.54071	0.01139
2642.25494	0.01135
2640.96917	0.01130
2639.68340	0.01123
2638.39763	0.01109
2637.11186	0.01086
2635.82609	0.01061
2634.54033	0.01053
2633.25456	0.01080
2631.96879	0.01129
2630.68302	0.01165
2629.39725	0.01162
2628.11148	0.01130
2626.82571	0.01094
2625.53994	0.01070
2624.25418	0.01055
2622.96841	0.01051
2621.68264	0.01056
2620.39687	0.01063
2619.11110	0.01060
2617.82533	0.01047
2616.53956	0.01033
2615.25379	0.01019
2613.96802	0.00999
2612.68226	0.00975
2611.39649	0.00959
2610.11072	0.00964
2608.82495	0.00991
2607.53918	0.01033
2606.25341	0.01074
2604.96764	0.01102
2603.68187	0.01118
2602.39611	0.01130
2601.11034	0.01140
2599.82457	0.01138
2598.53880	0.01113
2597.25303	0.01071
2595.96726	0.01031
2594.68149	0.01005
2593.39572	0.01000
2592.10995	0.01013
2590.82419	0.01038
2589.53842	0.01060
2588.25265	0.01067
2586.96688	0.01057
2585.68111	0.01034
2584.39534	0.01008
2583.10957	0.00992
2581.82380	0.00988
2580.53804	0.00990
2579.25227	0.00991
2577.96650	0.00996
2576.68073	0.01007
2575.39496	0.01017
2574.10919	0.01010
2572.82342	0.00984
2571.53765	0.00950
2570.25188	0.00921
2568.96612	0.00901
2567.68035	0.00895
2566.39458	0.00904
2565.10881	0.00923
2563.82304	0.00940
2562.53727	0.00953
2561.25150	0.00969
2559.96573	0.00990
2558.67997	0.01002
2557.39420	0.00995
2556.10843	0.00980
2554.82266	0.00974
2553.53689	0.00974
2552.25112	0.00964
2550.96535	0.00947
2549.67958	0.00944
2548.39381	0.00969
2547.10805	0.01005
2545.82228	0.01022
2544.53651	0.01009
2543.25074	0.00977
2541.96497	0.00942
2540.67920	0.00910
2539.39343	0.00881
2538.10766	0.00860
2536.82190	0.00848
2535.53613	0.00848
2534.25036	0.00855
2532.96459	0.00864
2531.67882	0.00870
2530.39305	0.00870
2529.10728	0.00865
2527.82151	0.00858
2526.53574	0.00849
2525.24998	0.00842
2523.96421	0.00839
2522.67844	0.00839
2521.39267	0.00841
2520.10690	0.00846
2518.82113	0.00857
2517.53536	0.00874
2516.24959	0.00888
2514.96383	0.00891
2513.67806	0.00876
2512.39229	0.00851
2511.10652	0.00826
2509.82075	0.00812
2508.53498	0.00816
2507.24921	0.00844
2505.96344	0.00896
2504.67767	0.00951
2503.39191	0.00979
2502.10614	0.00969
2500.82037	0.00941
2499.53460	0.00919
2498.24883	0.00906
2496.96306	0.00885
2495.67729	0.00844
2494.39152	0.00798
2493.10576	0.00776
2491.81999	0.00790
2490.53422	0.00822
2489.24845	0.00840
2487.96268	0.00833
2486.67691	0.00818
2485.39114	0.00813
2484.10537	0.00828
2482.81960	0.00861
2481.53384	0.00909
2480.24807	0.00960
2478.96230	0.00993
2477.67653	0.00990
2476.39076	0.00954
2475.10499	0.00907
2473.81922	0.00876
2472.53345	0.00874
2471.24769	0.00892
2469.96192	0.00907
2468.67615	0.00910
2467.39038	0.00910
2466.10461	0.00927
2464.81884	0.00963
2463.53307	0.00988
2462.24730	0.00972
2460.96153	0.00919
2459.67577	0.00870
2458.39000	0.00858
2457.10423	0.00881
2455.81846	0.00911
2454.53269	0.00926
2453.24692	0.00919
2451.96115	0.00897
2450.67538	0.00867
2449.38962	0.00840
2448.10385	0.00822
2446.81808	0.00818
2445.53231	0.00835
2444.24654	0.00865
2442.96077	0.00887
2441.67500	0.00881
2440.38923	0.00855
2439.10346	0.00833
2437.81770	0.00827
2436.53193	0.00825
2435.24616	0.00809
2433.96039	0.00781
2432.67462	0.00764
2431.38885	0.00782
2430.10308	0.00823
2428.81731	0.00851
2427.53155	0.00844
2426.24578	0.00816
2424.96001	0.00796
2423.67424	0.00787
2422.38847	0.00778
2421.10270	0.00768
2419.81693	0.00773
2418.53116	0.00795
2417.24539	0.00822
2415.95963	0.00839
2414.67386	0.00851
2413.38809	0.00869
2412.10232	0.00891
2410.81655	0.00903
2409.53078	0.00900
2408.24501	0.00893
2406.95924	0.00889
2405.67347	0.00892
2404.38771	0.00899
2403.10194	0.00906
2401.81617	0.00907
2400.53040	0.00894
2399.24463	0.00873
2397.95886	0.00849
2396.67309	0.00828
2395.38732	0.00809
2394.10156	0.00794
2392.81579	0.00788
2391.53002	0.00797
2390.24425	0.00820
2388.95848	0.00848
2387.67271	0.00867
2386.38694	0.00870
2385.10117	0.00861
2383.81540	0.00847
2382.52964	0.00839
2381.24387	0.00841
2379.95810	0.00852
2378.67233	0.00865
2377.38656	0.00868
2376.10079	0.00857
2374.81502	0.00840
2373.52925	0.00829
2372.24349	0.00830
2370.95772	0.00839
2369.67195	0.00846
2368.38618	0.00847
2367.10041	0.00844
2365.81464	0.00840
2364.52887	0.00836
2363.24310	0.00834
2361.95733	0.00837
2360.67157	0.00844
2359.38580	0.00845
2358.10003	0.00838
2356.81426	0.00836
2355.52849	0.00845
2354.24272	0.00860
2352.95695	0.00863
2351.67118	0.00850
2350.38542	0.00831
2349.09965	0.00819
2347.81388	0.00818
2346.52811	0.00824
2345.24234	0.00834
2343.95657	0.00847
2342.67080	0.00855
2341.38503	0.00850
2340.09926	0.00830
2338.81350	0.00806
2337.52773	0.00793
2336.24196	0.00801
2334.95619	0.00817
2333.67042	0.00825
2332.38465	0.00824
2331.09888	0.00827
2329.81311	0.00835
2328.52735	0.00848
2327.24158	0.00879
2325.95581	0.00927
2324.67004	0.00972
2323.38427	0.00993
2322.09850	0.00978
2320.81273	0.00931
2319.52696	0.00885
2318.24119	0.00861
2316.95543	0.00863
2315.66966	0.00886
2314.38389	0.00909
2313.09812	0.00908
2311.81235	0.00881
2310.52658	0.00846
2309.24081	0.00822
2307.95504	0.00812
2306.66928	0.00806
2305.38351	0.00803
2304.09774	0.00808
2302.81197	0.00826
2301.52620	0.00853
2300.24043	0.00872
2298.95466	0.00866
2297.66889	0.00830
2296.38312	0.00777
2295.09736	0.00736
2293.81159	0.00724
2292.52582	0.00731
2291.24005	0.00732
2289.95428	0.00722
2288.66851	0.00707
2287.38274	0.00703
2286.09697	0.00714
2284.81121	0.00742
2283.52544	0.00774
2282.23967	0.00787
2280.95390	0.00765
2279.66813	0.00718
2278.38236	0.00679
2277.09659	0.00673
2275.81082	0.00697
2274.52505	0.00732
2273.23929	0.00764
2271.95352	0.00787
2270.66775	0.00790
2269.38198	0.00761
2268.09621	0.00704
2266.81044	0.00639
2265.52467	0.00594
2264.23890	0.00584
2262.95314	0.00608
2261.66737	0.00655
2260.38160	0.00710
2259.09583	0.00751
2257.81006	0.00760
2256.52429	0.00733
2255.23852	0.00680
2253.95275	0.00618
2252.66698	0.00560
2251.38122	0.00522
2250.09545	0.00518
2248.80968	0.00552
2247.52391	0.00608
2246.23814	0.00666
2244.95237	0.00726
2243.66660	0.00800
2242.38083	0.00871
2241.09507	0.00902
2239.80930	0.00879
2238.52353	0.00823
2237.23776	0.00769
2235.95199	0.00736
2234.66622	0.00719
2233.38045	0.00705
2232.09468	0.00677
2230.80891	0.00632
2229.52315	0.00582
2228.23738	0.00544
2226.95161	0.00521
2225.66584	0.00503
2224.38007	0.00480
2223.09430	0.00466
2221.80853	0.00479
2220.52276	0.00525
2219.23700	0.00587
2217.95123	0.00634
2216.66546	0.00645
2215.37969	0.00620
2214.09392	0.00587
2212.80815	0.00573
2211.52238	0.00586
2210.23661	0.00610
2208.95084	0.00635
2207.66508	0.00671
2206.37931	0.00738
2205.09354	0.00836
2203.80777	0.00923
2202.52200	0.00946
2201.23623	0.00882
2199.95046	0.00762
2198.66469	0.00643
2197.37893	0.00556
2196.09316	0.00495
2194.80739	0.00446
2193.52162	0.00410
2192.23585	0.00405
2190.95008	0.00444
2189.66431	0.00517
2188.37854	0.00583
2187.09277	0.00605
2185.80701	0.00591
2184.52124	0.00584
2183.23547	0.00600
2181.94970	0.00605
2180.66393	0.00554
2179.37816	0.00443
2178.09239	0.00311
2176.80662	0.00211
2175.52085	0.00180
2174.23509	0.00219
2172.94932	0.00290
2171.66355	0.00349
2170.37778	0.00373
2169.09201	0.00363
2167.80624	0.00328
2166.52047	0.00285
2165.23470	0.00255
2163.94894	0.00255
2162.66317	0.00271
2161.37740	0.00267
2160.09163	0.00231
2158.80586	0.00196
2157.52009	0.00202
2156.23432	0.00228
2154.94855	0.00222
2153.66278	0.00181
2152.37702	0.00160
2151.09125	0.00203
2149.80548	0.00291
2148.51971	0.00360
2147.23394	0.00370
2145.94817	0.00338
2144.66240	0.00306
2143.37663	0.00285
2142.09087	0.00253
2140.80510	0.00209
2139.51933	0.00191
2138.23356	0.00234
2136.94779	0.00318
2135.66202	0.00391
2134.37625	0.00421
2133.09048	0.00403
2131.80471	0.00350
2130.51895	0.00295
2129.23318	0.00289
2127.94741	0.00363
2126.66164	0.00483
2125.37587	0.00572
2124.09010	0.00587
2122.80433	0.00549
2121.51856	0.00508
2120.23280	0.00493
2118.94703	0.00497
2117.66126	0.00501
2116.37549	0.00490
2115.08972	0.00469
2113.80395	0.00463
2112.51818	0.00492
2111.23241	0.00550
2109.94664	0.00603
2108.66088	0.00615
2107.37511	0.00583
2106.08934	0.00538
2104.80357	0.00524
2103.51780	0.00551
2102.23203	0.00582
2100.94626	0.00569
2099.66049	0.00474
2098.37473	0.00393
2097.08896	0.00346
2095.80319	0.00305
2094.51742	0.00256
2093.23165	0.00221
2091.94588	0.00230
2090.66011	0.00286
2089.37434	0.00351
2088.08857	0.00383
2086.80281	0.00373
2085.51704	0.00356
2084.23127	0.00369
2082.94550	0.00408
2081.65973	0.00428
2080.37396	0.00396
2079.08819	0.00332
2077.80242	0.00289
2076.51666	0.00299
2075.23089	0.00339
2073.94512	0.00367
2072.65935	0.00360
2071.37358	0.00339
2070.08781	0.00337
2068.80204	0.00375
2067.51627	0.00444
2066.23050	0.00509
2064.94474	0.00529
2063.65897	0.00498
2062.37320	0.00457
2061.08743	0.00459
2059.80166	0.00498
2058.51589	0.00505
2057.23012	0.00427
2055.94435	0.00292
2054.65859	0.00184
2053.37282	0.00158
2052.08705	0.00188
2050.80128	0.00213
2049.51551	0.00204
2048.22974	0.00187
2046.94397	0.00188
2045.65820	0.00196
2044.37243	0.00181
2043.08667	0.00135
2041.80090	0.00083
2040.51513	0.00049
2039.22936	0.00034
2037.94359	0.00026
2036.65782	0.00013
2035.37205	0.00001
2034.08628	0.00006
2032.80052	0.00031
2031.51475	0.00050
2030.22898	0.00040
2028.94321	0.00034
2027.65744	0.00110
2026.37167	0.00296
2025.08590	0.00506
2023.80013	0.00611
2022.51436	0.00554
2021.22860	0.00394
2019.94283	0.00239
2018.65706	0.00154
2017.37129	0.00136
2016.08552	0.00156
2014.79975	0.00191
2013.51398	0.00226
2012.22821	0.00249
2010.94245	0.00260
2009.65668	0.00266
2008.37091	0.00275
2007.08514	0.00286
2005.79937	0.00288
2004.51360	0.00271
2003.22783	0.00244
2001.94206	0.00239
2000.65629	0.00275
1999.37053	0.00339
1998.08476	0.00390
1996.79899	0.00413
1995.51322	0.00425
1994.22745	0.00436
1992.94168	0.00426
1991.65591	0.00374
1990.37014	0.00304
1989.08438	0.00267
1987.79861	0.00294
1986.51284	0.00362
1985.22707	0.00426
1983.94130	0.00458
1982.65553	0.00457
1981.36976	0.00446
1980.08399	0.00438
1978.79822	0.00420
1977.51246	0.00363
1976.22669	0.00272
1974.94092	0.00206
1973.65515	0.00228
1972.36938	0.00319
1971.08361	0.00388
1969.79784	0.00366
1968.51207	0.00282
1967.22631	0.00224
1965.94054	0.00247
1964.65477	0.00335
1963.36900	0.00417
1962.08323	0.00444
1960.79746	0.00419
1959.51169	0.00389
1958.22592	0.00386
1956.94015	0.00391
1955.65439	0.00367
1954.36862	0.00312
1953.08285	0.00261
1951.79708	0.00250
1950.51131	0.00279
1949.22554	0.00321
1947.93977	0.00353
1946.65400	0.00376
1945.36823	0.00398
1944.08247	0.00420
1942.79670	0.00429
1941.51093	0.00416
1940.22516	0.00393
1938.93939	0.00382
1937.65362	0.00396
1936.36785	0.00426
1935.08208	0.00448
1933.79632	0.00443
1932.51055	0.00408
1931.22478	0.00362
1929.93901	0.00337
1928.65324	0.00356
1927.36747	0.00416
1926.08170	0.00490
1924.79593	0.00549
1923.51016	0.00579
1922.22440	0.00583
1920.93863	0.00578
1919.65286	0.00575
1918.36709	0.00569
1917.08132	0.00550
1915.79555	0.00521
1914.50978	0.00496
1913.22401	0.00478
1911.93825	0.00457
1910.65248	0.00422
1909.36671	0.00386
1908.08094	0.00365
1906.79517	0.00367
1905.50940	0.00383
1904.22363	0.00397
1902.93786	0.00396
1901.65209	0.00376
1900.36633	0.00347
1899.08056	0.00325
1897.79479	0.00321
1896.50902	0.00333
1895.22325	0.00350
1893.93748	0.00367
1892.65171	0.00388
1891.36594	0.00417
1890.08018	0.00452
1888.79441	0.00482
1887.50864	0.00503
1886.22287	0.00519
1884.93710	0.00529
1883.65133	0.00523
1882.36556	0.00496
1881.07979	0.00455
1879.79402	0.00420
1878.50826	0.00405
1877.22249	0.00410
1875.93672	0.00425
1874.65095	0.00435
1873.36518	0.00433
1872.07941	0.00426
1870.79364	0.00425
1869.50787	0.00437
1868.22211	0.00459
1866.93634	0.00479
1865.65057	0.00492
1864.36480	0.00495
1863.07903	0.00490
1861.79326	0.00483
1860.50749	0.00481
1859.22172	0.00486
1857.93595	0.00496
1856.65019	0.00505
1855.36442	0.00507
1854.07865	0.00504
1852.79288	0.00496
1851.50711	0.00480
1850.22134	0.00460
1848.93557	0.00441
1847.64980	0.00433
1846.36404	0.00438
1845.07827	0.00454
1843.79250	0.00473
1842.50673	0.00485
1841.22096	0.00485
1839.93519	0.00479
1838.64942	0.00484
1837.36365	0.00503
1836.07788	0.00524
1834.79212	0.00525
1833.50635	0.00500
1832.22058	0.00463
1830.93481	0.00434
1829.64904	0.00425
1828.36327	0.00430
1827.07750	0.00441
1825.79173	0.00451
1824.50597	0.00458
1823.22020	0.00463
1821.93443	0.00464
1820.64866	0.00460
1819.36289	0.00453
1818.07712	0.00449
1816.79135	0.00452
1815.50558	0.00465
1814.21981	0.00485
1812.93405	0.00502
1811.64828	0.00509
1810.36251	0.00508
1809.07674	0.00505
1807.79097	0.00503
1806.50520	0.00502
1805.21943	0.00500
1803.93366	0.00497
1802.64790	0.00493
1801.36213	0.00493
1800.07636	0.00494
1798.79059	0.00497
1797.50482	0.00499
1796.21905	0.00502
1794.93328	0.00504
1793.64751	0.00500
1792.36174	0.00490
1791.07598	0.00480
1789.79021	0.00476
1788.50444	0.00475
1787.21867	0.00471
1785.93290	0.00463
1784.64713	0.00453
1783.36136	0.00450
1782.07559	0.00457
1780.78983	0.00471
1779.50406	0.00481
1778.21829	0.00479
1776.93252	0.00468
1775.64675	0.00455
1774.36098	0.00449
1773.07521	0.00450
1771.78944	0.00456
1770.50367	0.00462
1769.21791	0.00472
1767.93214	0.00487
1766.64637	0.00503
1765.36060	0.00513
1764.07483	0.00513
1762.78906	0.00506
1761.50329	0.00498
1760.21752	0.00492
1758.93176	0.00486
1757.64599	0.00484
1756.36022	0.00486
1755.07445	0.00490
1753.78868	0.00490
1752.50291	0.00481
1751.21714	0.00468
1749.93137	0.00461
1748.64560	0.00462
1747.35984	0.00465
1746.07407	0.00463
1744.78830	0.00457
1743.50253	0.00450
1742.21676	0.00446
1740.93099	0.00442
1739.64522	0.00436
1738.35945	0.00429
1737.07369	0.00422
1735.78792	0.00419
1734.50215	0.00422
1733.21638	0.00431
1731.93061	0.00444
1730.64484	0.00454
1729.35907	0.00457
1728.07330	0.00453
1726.78753	0.00447
1725.50177	0.00450
1724.21600	0.00464
1722.93023	0.00485
1721.64446	0.00500
1720.35869	0.00502
1719.07292	0.00493
1717.78715	0.00484
1716.50138	0.00483
1715.21561	0.00491
1713.92985	0.00501
1712.64408	0.00511
1711.35831	0.00521
1710.07254	0.00531
1708.78677	0.00540
1707.50100	0.00552
1706.21523	0.00567
1704.92946	0.00581
1703.64370	0.00589
1702.35793	0.00591
1701.07216	0.00597
1699.78639	0.00614
1698.50062	0.00641
1697.21485	0.00674
1695.92908	0.00711
1694.64331	0.00745
1693.35754	0.00772
1692.07178	0.00788
1690.78601	0.00799
1689.50024	0.00809
1688.21447	0.00822
1686.92870	0.00834
1685.64293	0.00842
1684.35716	0.00850
1683.07139	0.00862
1681.78563	0.00881
1680.49986	0.00905
1679.21409	0.00930
1677.92832	0.00955
1676.64255	0.00980
1675.35678	0.01004
1674.07101	0.01026
1672.78524	0.01045
1671.49947	0.01063
1670.21371	0.01081
1668.92794	0.01100
1667.64217	0.01119
1666.35640	0.01138
1665.07063	0.01158
1663.78486	0.01179
1662.49909	0.01203
1661.21332	0.01227
1659.92756	0.01251
1658.64179	0.01272
1657.35602	0.01286
1656.07025	0.01289
1654.78448	0.01285
1653.49871	0.01282
1652.21294	0.01289
1650.92717	0.01306
1649.64140	0.01325
1648.35564	0.01338
1647.06987	0.01344
1645.78410	0.01346
1644.49833	0.01351
1643.21256	0.01359
1641.92679	0.01368
1640.64102	0.01372
1639.35525	0.01369
1638.06949	0.01359
1636.78372	0.01347
1635.49795	0.01336
1634.21218	0.01327
1632.92641	0.01317
1631.64064	0.01301
1630.35487	0.01281
1629.06910	0.01258
1627.78333	0.01234
1626.49757	0.01213
1625.21180	0.01195
1623.92603	0.01181
1622.64026	0.01170
1621.35449	0.01156
1620.06872	0.01137
1618.78295	0.01114
1617.49718	0.01090
1616.21142	0.01071
1614.92565	0.01057
1613.63988	0.01045
1612.35411	0.01035
1611.06834	0.01027
1609.78257	0.01019
1608.49680	0.01010
1607.21103	0.01000
1605.92526	0.00988
1604.63950	0.00975
1603.35373	0.00962
1602.06796	0.00952
1600.78219	0.00946
1599.49642	0.00943
1598.21065	0.00941
1596.92488	0.00938
1595.63911	0.00938
1594.35335	0.00942
1593.06758	0.00950
1591.78181	0.00959
1590.49604	0.00966
1589.21027	0.00970
1587.92450	0.00972
1586.63873	0.00976
1585.35296	0.00983
1584.06719	0.00994
1582.78143	0.01006
1581.49566	0.01018
1580.20989	0.01031
1578.92412	0.01046
1577.63835	0.01063
1576.35258	0.01085
1575.06681	0.01108
1573.78104	0.01128
1572.49528	0.01143
1571.20951	0.01154
1569.92374	0.01165
1568.63797	0.01183
1567.35220	0.01207
1566.06643	0.01231
1564.78066	0.01246
1563.49489	0.01245
1562.20912	0.01235
1560.92336	0.01224
1559.63759	0.01223
1558.35182	0.01234
1557.06605	0.01256
1555.78028	0.01284
1554.49451	0.01313
1553.20874	0.01339
1551.92297	0.01358
1550.63721	0.01369
1549.35144	0.01372
1548.06567	0.01371
1546.77990	0.01368
1545.49413	0.01364
1544.20836	0.01359
1542.92259	0.01351
1541.63682	0.01344
1540.35105	0.01342
1539.06529	0.01347
1537.77952	0.01356
1536.49375	0.01363
1535.20798	0.01364
1533.92221	0.01359
1532.63644	0.01350
1531.35067	0.01339
1530.06490	0.01326
1528.77914	0.01316
1527.49337	0.01309
1526.20760	0.01303
1524.92183	0.01294
1523.63606	0.01283
1522.35029	0.01273
1521.06452	0.01269
1519.77875	0.01273
1518.49298	0.01281
1517.20722	0.01290
1515.92145	0.01298
1514.63568	0.01302
1513.34991	0.01304
1512.06414	0.01301
1510.77837	0.01297
1509.49260	0.01293
1508.20683	0.01291
1506.92107	0.01290
1505.63530	0.01292
1504.34953	0.01295
1503.06376	0.01300
1501.77799	0.01303
1500.49222	0.01303
1499.20645	0.01299
1497.92068	0.01293
1496.63491	0.01289
1495.34915	0.01286
1494.06338	0.01284
1492.77761	0.01282
1491.49184	0.01281
1490.20607	0.01282
1488.92030	0.01286
1487.63453	0.01291
1486.34876	0.01300
1485.06299	0.01313
1483.77723	0.01330
1482.49146	0.01350
1481.20569	0.01368
1479.91992	0.01384
1478.63415	0.01399
1477.34838	0.01415
1476.06261	0.01432
1474.77684	0.01449
1473.49108	0.01467
1472.20531	0.01487
1470.91954	0.01509
1469.63377	0.01533
1468.34800	0.01558
1467.06223	0.01581
1465.77646	0.01604
1464.49069	0.01625
1463.20492	0.01643
1461.91916	0.01657
1460.63339	0.01667
1459.34762	0.01675
1458.06185	0.01686
1456.77608	0.01703
1455.49031	0.01727
1454.20454	0.01754
1452.91877	0.01777
1451.63301	0.01794
1450.34724	0.01807
1449.06147	0.01819
1447.77570	0.01831
1446.48993	0.01836
1445.20416	0.01830
1443.91839	0.01812
1442.63262	0.01787
1441.34685	0.01759
1440.06109	0.01730
1438.77532	0.01706
1437.48955	0.01688
1436.20378	0.01679
1434.91801	0.01675
1433.63224	0.01672
1432.34647	0.01667
1431.06070	0.01664
1429.77494	0.01667
1428.48917	0.01678
1427.20340	0.01694
1425.91763	0.01712
1424.63186	0.01732
1423.34609	0.01753
1422.06032	0.01774
1420.77455	0.01793
1419.48878	0.01810
1418.20302	0.01826
1416.91725	0.01839
1415.63148	0.01848
1414.34571	0.01855
1413.05994	0.01862
1411.77417	0.01869
1410.48840	0.01875
1409.20263	0.01877
1407.91687	0.01870
1406.63110	0.01854
1405.34533	0.01833
1404.05956	0.01811
1402.77379	0.01794
1401.48802	0.01779
1400.20225	0.01763
1398.91648	0.01740
1397.63071	0.01712
1396.34495	0.01681
1395.05918	0.01648
1393.77341	0.01614
1392.48764	0.01581
1391.20187	0.01549
1389.91610	0.01518
1388.63033	0.01492
1387.34456	0.01468
1386.05880	0.01445
1384.77303	0.01418
1383.48726	0.01389
1382.20149	0.01362
1380.91572	0.01339
1379.62995	0.01322
1378.34418	0.01305
1377.05841	0.01285
1375.77264	0.01263
1374.48688	0.01238
1373.20111	0.01215
1371.91534	0.01193
1370.62957	0.01170
1369.34380	0.01144
1368.05803	0.01120
1366.77226	0.01100
1365.48649	0.01086
1364.20073	0.01073
1362.91496	0.01056
1361.62919	0.01032
1360.34342	0.01005
1359.05765	0.00985
1357.77188	0.00975
1356.48611	0.00974
1355.20034	0.00977
1353.91457	0.00977
1352.62881	0.00970
1351.34304	0.00958
1350.05727	0.00943
1348.77150	0.00930
1347.48573	0.00922
1346.19996	0.00917
1344.91419	0.00916
1343.62842	0.00916
1342.34266	0.00913
1341.05689	0.00908
1339.77112	0.00901
1338.48535	0.00897
1337.19958	0.00898
1335.91381	0.00901
1334.62804	0.00898
1333.34227	0.00889
1332.05650	0.00878
1330.77074	0.00870
1329.48497	0.00864
1328.19920	0.00859
1326.91343	0.00853
1325.62766	0.00848
1324.34189	0.00845
1323.05612	0.00846
1321.77035	0.00848
1320.48459	0.00849
1319.19882	0.00847
1317.91305	0.00841
1316.62728	0.00833
1315.34151	0.00823
1314.05574	0.00814
1312.76997	0.00806
1311.48420	0.00800
1310.19843	0.00796
1308.91267	0.00795
1307.62690	0.00794
1306.34113	0.00792
1305.05536	0.00792
1303.76959	0.00793
1302.48382	0.00795
1301.19805	0.00794
1299.91228	0.00786
1298.62652	0.00773
1297.34075	0.00762
1296.05498	0.00757
1294.76921	0.00754
1293.48344	0.00750
1292.19767	0.00744
1290.91190	0.00736
1289.62613	0.00730
1288.34036	0.00728
1287.05460	0.00732
1285.76883	0.00741
1284.48306	0.00750
1283.19729	0.00756
1281.91152	0.00756
1280.62575	0.00751
1279.33998	0.00743
1278.05421	0.00736
1276.76845	0.00732
1275.48268	0.00730
1274.19691	0.00727
1272.91114	0.00721
1271.62537	0.00714
1270.33960	0.00708
1269.05383	0.00704
1267.76806	0.00704
1266.48229	0.00708
1265.19653	0.00717
1263.91076	0.00728
1262.62499	0.00738
1261.33922	0.00743
1260.05345	0.00739
1258.76768	0.00729
1257.48191	0.00717
1256.19614	0.00709
1254.91037	0.00705
1253.62461	0.00706
1252.33884	0.00709
1251.05307	0.00712
1249.76730	0.00713
1248.48153	0.00711
1247.19576	0.00709
1245.90999	0.00708
1244.62422	0.00708
1243.33846	0.00710
1242.05269	0.00712
1240.76692	0.00715
1239.48115	0.00717
1238.19538	0.00716
1236.90961	0.00714
1235.62384	0.00712
1234.33807	0.00711
1233.05230	0.00709
1231.76654	0.00703
1230.48077	0.00692
1229.19500	0.00681
1227.90923	0.00671
1226.62346	0.00663
1225.33769	0.00657
1224.05192	0.00651
1222.76615	0.00646
1221.48039	0.00643
1220.19462	0.00643
1218.90885	0.00643
1217.62308	0.00643
1216.33731	0.00641
1215.05154	0.00639
1213.76577	0.00636
1212.48000	0.00631
1211.19423	0.00623
1209.90847	0.00616
1208.62270	0.00610
1207.33693	0.00607
1206.05116	0.00608
1204.76539	0.00611
1203.47962	0.00615
1202.19385	0.00617
1200.90808	0.00617
1199.62232	0.00619
1198.33655	0.00617
1197.05078	0.00617
1195.76501	0.00618
1194.47924	0.00618
1193.19347	0.00618
1191.90770	0.00617
1190.62193	0.00617
1189.33616	0.00618
1188.05040	0.00622
1186.76463	0.00627
1185.47886	0.00628
1184.19309	0.00626
1182.90732	0.00621
1181.62155	0.00620
1180.33578	0.00626
1179.05001	0.00635
1177.76425	0.00642
1176.47848	0.00645
1175.19271	0.00646
1173.90694	0.00649
1172.62117	0.00654
1171.33540	0.00657
1170.04963	0.00659
1168.76386	0.00661
1167.47809	0.00667
1166.19233	0.00678
1164.90656	0.00689
1163.62079	0.00694
1162.33502	0.00691
1161.04925	0.00683
1159.76348	0.00674
1158.47771	0.00671
1157.19194	0.00679
1155.90618	0.00697
1154.62041	0.00718
1153.33464	0.00735
1152.04887	0.00742
1150.76310	0.00741
1149.47733	0.00740
1148.19156	0.00744
1146.90579	0.00754
1145.62002	0.00765
1144.33426	0.00773
1143.04849	0.00781
1141.76272	0.00792
1140.47695	0.00806
1139.19118	0.00821
1137.90541	0.00837
1136.61964	0.00857
1135.33387	0.00878
1134.04811	0.00898
1132.76234	0.00921
1131.47657	0.00953
1130.19080	0.00997
1128.90503	0.01050
1127.61926	0.01111
1126.33349	0.01177
1125.04772	0.01244
1123.76195	0.01311
1122.47619	0.01378
1121.19042	0.01450
1119.90465	0.01531
1118.61888	0.01618
1117.33311	0.01707
1116.04734	0.01794
1114.76157	0.01877
1113.47580	0.01956
1112.19004	0.02034
1110.90427	0.02115
1109.61850	0.02199
1108.33273	0.02283
1107.04696	0.02358
1105.76119	0.02423
1104.47542	0.02481
1103.18965	0.02536
1101.90388	0.02591
1100.61812	0.02642
1099.33235	0.02685
1098.04658	0.02717
1096.76081	0.02745
1095.47504	0.02774
1094.18927	0.02805
1092.90350	0.02834
1091.61773	0.02856
1090.33197	0.02876
1089.04620	0.02897
1087.76043	0.02918
1086.47466	0.02938
1085.18889	0.02955
1083.90312	0.02974
1082.61735	0.02998
1081.33158	0.03032
1080.04581	0.03074
1078.76005	0.03117
1077.47428	0.03161
1076.18851	0.03208
1074.90274	0.03264
1073.61697	0.03329
1072.33120	0.03397
1071.04543	0.03459
1069.75966	0.03515
1068.47390	0.03568
1067.18813	0.03627
1065.90236	0.03696
1064.61659	0.03772
1063.33082	0.03849
1062.04505	0.03923
1060.75928	0.03992
1059.47351	0.04058
1058.18774	0.04125
1056.90198	0.04198
1055.61621	0.04277
1054.33044	0.04360
1053.04467	0.04443
1051.75890	0.04519
1050.47313	0.04591
1049.18736	0.04663
1047.90159	0.04737
1046.61583	0.04811
1045.33006	0.04881
1044.04429	0.04948
1042.75852	0.05020
1041.47275	0.05096
1040.18698	0.05174
1038.90121	0.05247
1037.61544	0.05313
1036.32967	0.05373
1035.04391	0.05430
1033.75814	0.05486
1032.47237	0.05539
1031.18660	0.05586
1029.90083	0.05620
1028.61506	0.05641
1027.32929	0.05654
1026.04352	0.05662
1024.75775	0.05665
1023.47199	0.05656
1022.18622	0.05630
1020.90045	0.05585
1019.61468	0.05524
1018.32891	0.05455
1017.04314	0.05381
1015.75737	0.05302
1014.47160	0.05219
1013.18584	0.05132
1011.90007	0.05042
1010.61430	0.04947
1009.32853	0.04844
1008.04276	0.04733
1006.75699	0.04618
1005.47122	0.04504
1004.18545	0.04389
1002.89968	0.04271
1001.61392	0.04150
1000.32815	0.04025
999.04238	0.03901
997.75661	0.03783
996.47084	0.03672
995.18507	0.03565
993.89930	0.03458
992.61353	0.03348
991.32777	0.03240
990.04200	0.03144
988.75623	0.03063
987.47046	0.02991
986.18469	0.02918
984.89892	0.02838
983.61315	0.02751
982.32738	0.02666
981.04161	0.02591
979.75585	0.02532
978.47008	0.02484
977.18431	0.02440
975.89854	0.02396
974.61277	0.02350
973.32700	0.02306
972.04123	0.02269
970.75546	0.02246
969.46970	0.02242
968.18393	0.02250
966.89816	0.02262
965.61239	0.02273
964.32662	0.02282
963.04085	0.02292
961.75508	0.02303
960.46931	0.02307
959.18354	0.02297
957.89778	0.02271
956.61201	0.02235
955.32624	0.02194
954.04047	0.02156
952.75470	0.02121
951.46893	0.02087
950.18316	0.02053
948.89739	0.02019
947.61163	0.01983
946.32586	0.01941
945.04009	0.01894
943.75432	0.01848
942.46855	0.01810
941.18278	0.01785
939.89701	0.01765
938.61124	0.01740
937.32547	0.01706
936.03971	0.01666
934.75394	0.01628
933.46817	0.01601
932.18240	0.01586
930.89663	0.01577
929.61086	0.01567
928.32509	0.01554
927.03932	0.01540
925.75356	0.01528
924.46779	0.01518
923.18202	0.01508
921.89625	0.01497
920.61048	0.01485
919.32471	0.01473
918.03894	0.01461
916.75317	0.01451
915.46740	0.01442
914.18164	0.01433
912.89587	0.01424
911.61010	0.01417
910.32433	0.01412
909.03856	0.01407
907.75279	0.01397
906.46702	0.01377
905.18125	0.01351
903.89549	0.01327
902.60972	0.01311
901.32395	0.01306
900.03818	0.01306
898.75241	0.01303
897.46664	0.01291
896.18087	0.01273
894.89510	0.01258
893.60933	0.01254
892.32357	0.01258
891.03780	0.01258
889.75203	0.01254
888.46626	0.01253
887.18049	0.01264
885.89472	0.01285
884.60895	0.01313
883.32318	0.01347
882.03742	0.01386
880.75165	0.01425
879.46588	0.01455
878.18011	0.01472
876.89434	0.01480
875.60857	0.01491
874.32280	0.01510
873.03703	0.01531
871.75126	0.01537
870.46550	0.01520
869.17973	0.01487
867.89396	0.01449
866.60819	0.01413
865.32242	0.01378
864.03665	0.01341
862.75088	0.01303
861.46511	0.01272
860.17935	0.01250
858.89358	0.01237
857.60781	0.01230
856.32204	0.01220
855.03627	0.01202
853.75050	0.01182
852.46473	0.01168
851.17896	0.01160
849.89319	0.01153
848.60743	0.01140
847.32166	0.01130
846.03589	0.01128
844.75012	0.01131
843.46435	0.01130
842.17858	0.01118
840.89281	0.01100
839.60704	0.01084
838.32128	0.01074
837.03551	0.01073
835.74974	0.01076
834.46397	0.01077
833.17820	0.01073
831.89243	0.01061
830.60666	0.01045
829.32089	0.01030
828.03512	0.01022
826.74936	0.01022
825.46359	0.01024
824.17782	0.01024
822.89205	0.01023
821.60628	0.01025
820.32051	0.01029
819.03474	0.01027
817.74897	0.01016
816.46321	0.00998
815.17744	0.00985
813.89167	0.00982
812.60590	0.00988
811.32013	0.00996
810.03436	0.01003
808.74859	0.01006
807.46282	0.01008
806.17705	0.01009
804.89129	0.01012
803.60552	0.01015
802.31975	0.01016
801.03398	0.01016
799.74821	0.01013
798.46244	0.01009
797.17667	0.01010
795.89090	0.01017
794.60513	0.01029
793.31937	0.01041
792.03360	0.01047
790.74783	0.01045
789.46206	0.01039
788.17629	0.01033
786.89052	0.01027
785.60475	0.01021
784.31898	0.01015
783.03322	0.01011
781.74745	0.01014
780.46168	0.01022
779.17591	0.01033
777.89014	0.01044
776.60437	0.01055
775.31860	0.01066
774.03283	0.01074
772.74706	0.01077
771.46130	0.01075
770.17553	0.01070
768.88976	0.01062
767.60399	0.01054
766.31822	0.01047
765.03245	0.01041
763.74668	0.01037
762.46091	0.01033
761.17515	0.01026
759.88938	0.01015
758.60361	0.01008
757.31784	0.01010
756.03207	0.01018
754.74630	0.01021
753.46053	0.01015
752.17476	0.01005
750.88899	0.01005
749.60323	0.01018
748.31746	0.01032
747.03169	0.01038
745.74592	0.01037
744.46015	0.01034
743.17438	0.01030
741.88861	0.01023
740.60284	0.01013
739.31708	0.01005
738.03131	0.01002
736.74554	0.01001
735.45977	0.00993
734.17400	0.00981
732.88823	0.00970
731.60246	0.00967
730.31669	0.00969
729.03092	0.00975
727.74516	0.00981
726.45939	0.00988
725.17362	0.00997
723.88785	0.01008
722.60208	0.01021
721.31631	0.01036
720.03054	0.01048
718.74477	0.01054
717.45901	0.01054
716.17324	0.01049
714.88747	0.01039
713.60170	0.01023
712.31593	0.01004
711.03016	0.00988
709.74439	0.00980
708.45862	0.00983
707.17285	0.00991
705.88709	0.00998
704.60132	0.01001
703.31555	0.01001
702.02978	0.01001
700.74401	0.01002
699.45824	0.01002
698.17247	0.00998
696.88670	0.00990
695.60094	0.00983
694.31517	0.00982
693.02940	0.00986
691.74363	0.00991
690.45786	0.00993
689.17209	0.00989
687.88632	0.00983
686.60055	0.00978
685.31478	0.00979
684.02902	0.00987
682.74325	0.00996
681.45748	0.00999
680.17171	0.00992
678.88594	0.00978
677.60017	0.00962
676.31440	0.00953
675.02863	0.00952
673.74287	0.00959
672.45710	0.00969
671.17133	0.00979
669.88556	0.00986
668.59979	0.00986
667.31402	0.00980
666.02825	0.00971
664.74248	0.00964
663.45671	0.00964
662.17095	0.00972
660.88518	0.00985
659.59941	0.00995
658.31364	0.00999
657.02787	0.00995
655.74210	0.00988
654.45633	0.00985
653.17056	0.00989
651.88480	0.00999
650.59903	0.01009
649.31326	0.01014
648.02749	0.01013
646.74172	0.01012
645.45595	0.01015
644.17018	0.01023
642.88441	0.01034
641.59864	0.01043
640.31288	0.01046
639.02711	0.01046
637.74134	0.01046
636.45557	0.01050
635.16980	0.01053
633.88403	0.01057
632.59826	0.01063
631.31249	0.01068
630.02673	0.01050
628.74096	0.01021
627.45519	0.01072
626.16942	0.01030
624.88365	0.00910
623.59788	0.00775
622.31211	0.00674
621.02634	0.00649
619.74057	0.00698
618.45481	0.00790
617.16904	0.00919
615.88327	0.01112
614.59750	0.01373
613.31173	0.01653
612.02596	0.01873
610.74019	0.01983
609.45442	0.02005
608.16866	0.02006
606.88289	0.02042
605.59712	0.02131
604.31135	0.02243
603.02558	0.02331
601.73981	0.02368
600.45404	0.02356
599.16827	0.02309
597.88250	0.02237
596.59674	0.02150
595.31097	0.02065
594.02520	0.01998
592.73943	0.01956
591.45366	0.01932
590.16789	0.01917
588.88212	0.01908
587.59635	0.01910
586.31059	0.01922
585.02482	0.01938
583.73905	0.01957
582.45328	0.01985
581.16751	0.02033
579.88174	0.02099
578.59597	0.02173
577.31020	0.02246
576.02443	0.02315
574.73867	0.02379
573.45290	0.02438
572.16713	0.02492
570.88136	0.02544
569.59559	0.02595
568.30982	0.02653
567.02405	0.02728
565.73828	0.02818
564.45251	0.02906
563.16675	0.02972
561.88098	0.02997
560.59521	0.02974
559.30944	0.02908
558.02367	0.02811
556.73790	0.02695
555.45213	0.02567
554.16636	0.02434
552.88060	0.02303
551.59483	0.02187
550.30906	0.02090
549.02329	0.02007
547.73752	0.01927
546.45175	0.01844
545.16598	0.01765
543.88021	0.01700
542.59444	0.01657
541.30868	0.01631
540.02291	0.01611
538.73714	0.01593
537.45137	0.01576
536.16560	0.01566
534.87983	0.01560
533.59406	0.01552
532.30829	0.01533
531.02253	0.01501
529.73676	0.01462
528.45099	0.01423
527.16522	0.01392
525.87945	0.01366
524.59368	0.01343
523.30791	0.01324
522.02214	0.01316
520.73637	0.01321
519.45061	0.01331
518.16484	0.01330
516.87907	0.01311
515.59330	0.01279
514.30753	0.01242
513.02176	0.01209
511.73599	0.01186
510.45022	0.01178
509.16446	0.01185
507.87869	0.01194
506.59292	0.01194
505.30715	0.01179
504.02138	0.01155
502.73561	0.01129
501.44984	0.01109
500.16407	0.01096
498.87830	0.01086
497.59254	0.01074
496.30677	0.01061
495.02100	0.01053
493.73523	0.01053
492.44946	0.01064
491.16369	0.01082
489.87792	0.01098
488.59215	0.01103
487.30639	0.01094
486.02062	0.01077
484.73485	0.01063
483.44908	0.01060
482.16331	0.01067
480.87754	0.01080
479.59177	0.01101
478.30600	0.01127
477.02023	0.01152
475.73447	0.01168
474.44870	0.01171
473.16293	0.01164
471.87716	0.01158
470.59139	0.01160
469.30562	0.01169
468.01985	0.01175
466.73408	0.01171
465.44832	0.01157
464.16255	0.01142
462.87678	0.01135
461.59101	0.01136
460.30524	0.01139
459.01947	0.01138
457.73370	0.01132
456.44793	0.01121
455.16216	0.01107
453.87640	0.01092
452.59063	0.01079
451.30486	0.01070
450.01909	0.01061
448.73332	0.01052
447.44755	0.01044
446.16178	0.01038
444.87601	0.01037
443.59025	0.01041
442.30448	0.01046
441.01871	0.01046
439.73294	0.01040
438.44717	0.01033
437.16140	0.01032
435.87563	0.01037
434.58986	0.01042
433.30409	0.01044
432.01833	0.01044
430.73256	0.01046
429.44679	0.01051
428.16102	0.01054
426.87525	0.01053
425.58948	0.01048
424.30371	0.01040
423.01794	0.01030
421.73218	0.01020
420.44641	0.01011
419.16064	0.01004
417.87487	0.01001
416.58910	0.01001
415.30333	0.01001
414.01756	0.00998
412.73179	0.00994
411.44602	0.00986
410.16026	0.00977
408.87449	0.00966
407.58872	0.00957
406.30295	0.00951
405.01718	0.00949
403.73141	0.00950
402.44564	0.00953
401.15987	0.00958
399.87411	0.00963
