3997.45528	0.02649
3996.16951	0.02735
3994.88374	0.02795
3993.59798	0.02811
3992.31221	0.02802
3991.02644	0.02800
3989.74067	0.02818
3988.45490	0.02840
3987.16913	0.02832
3985.88336	0.02769
3984.59759	0.02663
3983.31183	0.02544
3982.02606	0.02445
3980.74029	0.02381
3979.45452	0.02354
3978.16875	0.02357
3976.88298	0.02371
3975.59721	0.02384
3974.31144	0.02401
3973.02567	0.02432
3971.73991	0.02474
3970.45414	0.02512
3969.16837	0.02532
3967.88260	0.02531
3966.59683	0.02513
3965.31106	0.02490
3964.02529	0.02476
3962.73952	0.02473
3961.45376	0.02468
3960.16799	0.02450
3958.88222	0.02420
3957.59645	0.02384
3956.31068	0.02350
3955.02491	0.02334
3953.73914	0.02355
3952.45337	0.02416
3951.16760	0.02501
3949.88184	0.02582
3948.59607	0.02632
3947.31030	0.02635
3946.02453	0.02601
3944.73876	0.02562
3943.45299	0.02536
3942.16722	0.02518
3940.88145	0.02497
3939.59569	0.02473
3938.30992	0.02456
3937.02415	0.02461
3935.73838	0.02499
3934.45261	0.02557
3933.16684	0.02596
3931.88107	0.02593
3930.59530	0.02563
3929.30953	0.02541
3928.02377	0.02545
3926.73800	0.02571
3925.45223	0.02593
3924.16646	0.02582
3922.88069	0.02536
3921.59492	0.02476
3920.30915	0.02433
3919.02338	0.02418
3917.73762	0.02418
3916.45185	0.02409
3915.16608	0.02392
3913.88031	0.02405
3912.59454	0.02458
3911.30877	0.02512
3910.02300	0.02529
3908.73723	0.02507
3907.45146	0.02494
3906.16570	0.02523
3904.87993	0.02567
3903.59416	0.02568
3902.30839	0.02515
3901.02262	0.02450
3899.73685	0.02407
3898.45108	0.02385
3897.16531	0.02369
3895.87955	0.02347
3894.59378	0.02323
3893.30801	0.02316
3892.02224	0.02328
3890.73647	0.02320
3889.45070	0.02290
3888.16493	0.02289
3886.87916	0.02323
3885.59339	0.02324
3884.30763	0.02292
3883.02186	0.02318
3881.73609	0.02442
3880.45032	0.02574
3879.16455	0.02619
3877.87878	0.02601
3876.59301	0.02580
3875.30724	0.02549
3874.02148	0.02487
3872.73571	0.02452
3871.44994	0.02505
3870.16417	0.02571
3868.87840	0.02549
3867.59263	0.02478
3866.30686	0.02455
3865.02109	0.02463
3863.73532	0.02441
3862.44956	0.02393
3861.16379	0.02343
3859.87802	0.02275
3858.59225	0.02176
3857.30648	0.02116
3856.02071	0.02187
3854.73494	0.02354
3853.44917	0.02454
3852.16341	0.02412
3850.87764	0.02328
3849.59187	0.02298
3848.30610	0.02297
3847.02033	0.02280
3845.73456	0.02249
3844.44879	0.02229
3843.16302	0.02226
3841.87725	0.02245
3840.59149	0.02312
3839.30572	0.02417
3838.01995	0.02480
3836.73418	0.02448
3835.44841	0.02377
3834.16264	0.02354
3832.87687	0.02374
3831.59110	0.02381
3830.30534	0.02368
3829.01957	0.02374
3827.73380	0.02399
3826.44803	0.02376
3825.16226	0.02280
3823.87649	0.02185
3822.59072	0.02142
3821.30495	0.02097
3820.01918	0.02033
3818.73342	0.02059
3817.44765	0.02233
3816.16188	0.02414
3814.87611	0.02455
3813.59034	0.02403
3812.30457	0.02358
3811.01880	0.02336
3809.73303	0.02338
3808.44726	0.02378
3807.16150	0.02404
3805.87573	0.02367
3804.58996	0.02356
3803.30419	0.02469
3802.01842	0.02613
3800.73265	0.02603
3799.44688	0.02444
3798.16111	0.02309
3796.87535	0.02271
3795.58958	0.02272
3794.30381	0.02259
3793.01804	0.02224
3791.73227	0.02165
3790.44650	0.02087
3789.16073	0.02013
3787.87496	0.01981
3786.58919	0.02003
3785.30343	0.02060
3784.01766	0.02114
3782.73189	0.02155
3781.44612	0.02199
3780.16035	0.02251
3778.87458	0.02295
3777.58881	0.02318
3776.30304	0.02314
3775.01728	0.02275
3773.73151	0.02220
3772.44574	0.02209
3771.15997	0.02271
3769.87420	0.02353
3768.58843	0.02395
3767.30266	0.02397
3766.01689	0.02375
3764.73112	0.02330
3763.44536	0.02282
3762.15959	0.02278
3760.87382	0.02326
3759.58805	0.02385
3758.30228	0.02403
3757.01651	0.02357
3755.73074	0.02279
3754.44497	0.02246
3753.15921	0.02288
3751.87344	0.02353
3750.58767	0.02358
3749.30190	0.02268
3748.01613	0.02169
3746.73036	0.02224
3745.44459	0.02420
3744.15882	0.02505
3742.87305	0.02371
3741.58729	0.02212
3740.30152	0.02193
3739.01575	0.02280
3737.72998	0.02370
3736.44421	0.02391
3735.15844	0.02353
3733.87267	0.02320
3732.58690	0.02335
3731.30114	0.02345
3730.01537	0.02301
3728.72960	0.02253
3727.44383	0.02230
3726.15806	0.02220
3724.87229	0.02216
3723.58652	0.02225
3722.30075	0.02266
3721.01498	0.02341
3719.72922	0.02426
3718.44345	0.02496
3717.15768	0.02510
3715.87191	0.02457
3714.58614	0.02371
3713.30037	0.02292
3712.01460	0.02261
3710.72883	0.02268
3709.44307	0.02278
3708.15730	0.02298
3706.87153	0.02310
3705.58576	0.02316
3704.29999	0.02337
3703.01422	0.02377
3701.72845	0.02416
3700.44268	0.02435
3699.15691	0.02436
3697.87115	0.02438
3696.58538	0.02440
3695.29961	0.02433
3694.01384	0.02413
3692.72807	0.02406
3691.44230	0.02425
3690.15653	0.02461
3688.87076	0.02464
3687.58500	0.02383
3686.29923	0.02266
3685.01346	0.02223
3683.72769	0.02268
3682.44192	0.02340
3681.15615	0.02390
3679.87038	0.02397
3678.58461	0.02397
3677.29884	0.02446
3676.01308	0.02490
3674.72731	0.02440
3673.44154	0.02350
3672.15577	0.02353
3670.87000	0.02429
3669.58423	0.02455
3668.29846	0.02420
3667.01269	0.02414
3665.72693	0.02463
3664.44116	0.02520
3663.15539	0.02538
3661.86962	0.02516
3660.58385	0.02475
3659.29808	0.02455
3658.01231	0.02484
3656.72654	0.02536
3655.44077	0.02550
3654.15501	0.02525
3652.86924	0.02512
3651.58347	0.02526
3650.29770	0.02522
3649.01193	0.02483
3647.72616	0.02451
3646.44039	0.02476
3645.15462	0.02559
3643.86886	0.02659
3642.58309	0.02719
3641.29732	0.02716
3640.01155	0.02671
3638.72578	0.02626
3637.44001	0.02617
3636.15424	0.02660
3634.86847	0.02729
3633.58270	0.02784
3632.29694	0.02837
3631.01117	0.02936
3629.72540	0.03055
3628.43963	0.03068
3627.15386	0.02945
3625.86809	0.02809
3624.58232	0.02792
3623.29655	0.02883
3622.01079	0.03034
3620.72502	0.03186
3619.43925	0.03298
3618.15348	0.03338
3616.86771	0.03329
3615.58194	0.03328
3614.29617	0.03354
3613.01040	0.03368
3611.72463	0.03354
3610.43887	0.03349
3609.15310	0.03367
3607.86733	0.03367
3606.58156	0.03321
3605.29579	0.03277
3604.01002	0.03293
3602.72425	0.03371
3601.43848	0.03483
3600.15272	0.03578
3598.86695	0.03613
3597.58118	0.03586
3596.29541	0.03552
3595.00964	0.03524
3593.72387	0.03505
3592.43810	0.03522
3591.15233	0.03573
3589.86656	0.03649
3588.58080	0.03731
3587.29503	0.03764
3586.00926	0.03739
3584.72349	0.03700
3583.43772	0.03680
3582.15195	0.03687
3580.86618	0.03708
3579.58041	0.03729
3578.29464	0.03757
3577.00888	0.03808
3575.72311	0.03875
3574.43734	0.03929
3573.15157	0.03954
3571.86580	0.03975
3570.58003	0.04028
3569.29426	0.04111
3568.00849	0.04171
3566.72273	0.04162
3565.43696	0.04103
3564.15119	0.04048
3562.86542	0.04042
3561.57965	0.04084
3560.29388	0.04138
3559.00811	0.04174
3557.72234	0.04189
3556.43657	0.04200
3555.15081	0.04231
3553.86504	0.04289
3552.57927	0.04361
3551.29350	0.04419
3550.00773	0.04447
3548.72196	0.04454
3547.43619	0.04459
3546.15042	0.04474
3544.86466	0.04494
3543.57889	0.04503
3542.29312	0.04485
3541.00735	0.04442
3539.72158	0.04392
3538.43581	0.04361
3537.15004	0.04359
3535.86427	0.04384
3534.57850	0.04424
3533.29274	0.04465
3532.00697	0.04501
3530.72120	0.04537
3529.43543	0.04587
3528.14966	0.04658
3526.86389	0.04739
3525.57812	0.04813
3524.29235	0.04858
3523.00659	0.04864
3521.72082	0.04838
3520.43505	0.04805
3519.14928	0.04787
3517.86351	0.04790
3516.57774	0.04809
3515.29197	0.04832
3514.00620	0.04854
3512.72043	0.04872
3511.43467	0.04880
3510.14890	0.04867
3508.86313	0.04831
3507.57736	0.04798
3506.29159	0.04810
3505.00582	0.04880
3503.72005	0.04982
3502.43428	0.05077
3501.14852	0.05149
3499.86275	0.05213
3498.57698	0.05276
3497.29121	0.05322
3496.00544	0.05324
3494.71967	0.05282
3493.43390	0.05234
3492.14813	0.05216
3490.86236	0.05236
3489.57660	0.05270
3488.29083	0.05288
3487.00506	0.05275
3485.71929	0.05235
3484.43352	0.05189
3483.14775	0.05167
3481.86198	0.05190
3480.57621	0.05255
3479.29045	0.05333
3478.00468	0.05394
3476.71891	0.05424
3475.43314	0.05425
3474.14737	0.05415
3472.86160	0.05417
3471.57583	0.05444
3470.29006	0.05488
3469.00429	0.05526
3467.71853	0.05532
3466.43276	0.05498
3465.14699	0.05443
3463.86122	0.05403
3462.57545	0.05402
3461.28968	0.05432
3460.00391	0.05464
3458.71814	0.05481
3457.43238	0.05487
3456.14661	0.05494
3454.86084	0.05497
3453.57507	0.05487
3452.28930	0.05472
3451.00353	0.05476
3449.71776	0.05512
3448.43199	0.05567
3447.14622	0.05619
3445.86046	0.05662
3444.57469	0.05708
3443.28892	0.05754
3442.00315	0.05777
3440.71738	0.05768
3439.43161	0.05750
3438.14584	0.05748
3436.86007	0.05759
3435.57431	0.05764
3434.28854	0.05756
3433.00277	0.05756
3431.71700	0.05777
3430.43123	0.05802
3429.14546	0.05806
3427.85969	0.05796
3426.57392	0.05801
3425.28815	0.05837
3424.00239	0.05890
3422.71662	0.05942
3421.43085	0.05986
3420.14508	0.06027
3418.85931	0.06061
3417.57354	0.06076
3416.28777	0.06051
3415.00200	0.05984
3413.71624	0.05901
3412.43047	0.05839
3411.14470	0.05819
3409.85893	0.05831
3408.57316	0.05864
3407.28739	0.05924
3406.00162	0.06012
3404.71585	0.06108
3403.43008	0.06177
3402.14432	0.06198
3400.85855	0.06181
3399.57278	0.06150
3398.28701	0.06112
3397.00124	0.06062
3395.71547	0.05996
3394.42970	0.05926
3393.14393	0.05876
3391.85817	0.05871
3390.57240	0.05920
3389.28663	0.06001
3388.00086	0.06076
3386.71509	0.06116
3385.42932	0.06121
3384.14355	0.06106
3382.85778	0.06080
3381.57201	0.06046
3380.28625	0.06012
3379.00048	0.05996
3377.71471	0.06002
3376.42894	0.06014
3375.14317	0.06013
3373.85740	0.06008
3372.57163	0.06017
3371.28586	0.06047
3370.00010	0.06076
3368.71433	0.06078
3367.42856	0.06046
3366.14279	0.05998
3364.85702	0.05960
3363.57125	0.05941
3362.28548	0.05932
3360.99971	0.05922
3359.71394	0.05915
3358.42818	0.05926
3357.14241	0.05951
3355.85664	0.05968
3354.57087	0.05957
3353.28510	0.05927
3351.99933	0.05910
3350.71356	0.05924
3349.42779	0.05953
3348.14202	0.05964
3346.85626	0.05945
3345.57049	0.05910
3344.28472	0.05884
3342.99895	0.05879
3341.71318	0.05892
3340.42741	0.05910
3339.14164	0.05921
3337.85587	0.05920
3336.57011	0.05909
3335.28434	0.05898
3333.99857	0.05893
3332.71280	0.05897
3331.42703	0.05899
3330.14126	0.05894
3328.85549	0.05876
3327.56972	0.05848
3326.28395	0.05819
3324.99819	0.05794
3323.71242	0.05775
3322.42665	0.05761
3321.14088	0.05756
3319.85511	0.05769
3318.56934	0.05788
3317.28357	0.05792
3315.99780	0.05767
3314.71204	0.05722
3313.42627	0.05674
3312.14050	0.05633
3310.85473	0.05602
3309.56896	0.05583
3308.28319	0.05591
3306.99742	0.05634
3305.71165	0.05698
3304.42588	0.05751
3303.14012	0.05769
3301.85435	0.05754
3300.56858	0.05724
3299.28281	0.05691
3297.99704	0.05659
3296.71127	0.05622
3295.42550	0.05584
3294.13973	0.05554
3292.85397	0.05549
3291.56820	0.05572
3290.28243	0.05618
3288.99666	0.05668
3287.71089	0.05698
3286.42512	0.05685
3285.13935	0.05634
3283.85358	0.05566
3282.56781	0.05507
3281.28205	0.05468
3279.99628	0.05451
3278.71051	0.05458
3277.42474	0.05489
3276.13897	0.05536
3274.85320	0.05585
3273.56743	0.05626
3272.28166	0.05658
3270.99590	0.05680
3269.71013	0.05688
3268.42436	0.05668
3267.13859	0.05619
3265.85282	0.05560
3264.56705	0.05526
3263.28128	0.05530
3261.99551	0.05547
3260.70974	0.05546
3259.42398	0.05525
3258.13821	0.05513
3256.85244	0.05532
3255.56667	0.05570
3254.28090	0.05597
3252.99513	0.05594
3251.70936	0.05566
3250.42359	0.05537
3249.13783	0.05526
3247.85206	0.05535
3246.56629	0.05543
3245.28052	0.05531
3243.99475	0.05499
3242.70898	0.05467
3241.42321	0.05447
3240.13744	0.05432
3238.85167	0.05402
3237.56591	0.05355
3236.28014	0.05306
3234.99437	0.05275
3233.70860	0.05269
3232.42283	0.05279
3231.13706	0.05287
3229.85129	0.05279
3228.56552	0.05257
3227.27976	0.05245
3225.99399	0.05258
3224.70822	0.05288
3223.42245	0.05312
3222.13668	0.05313
3220.85091	0.05301
3219.56514	0.05296
3218.27937	0.05302
3216.99360	0.05300
3215.70784	0.05269
3214.42207	0.05209
3213.13630	0.05147
3211.85053	0.05107
3210.56476	0.05090
3209.27899	0.05078
3207.99322	0.05062
3206.70745	0.05044
3205.42169	0.05032
3204.13592	0.05027
3202.85015	0.05028
3201.56438	0.05034
3200.27861	0.05038
3198.99284	0.05031
3197.70707	0.05016
3196.42130	0.05011
3195.13553	0.05030
3193.84977	0.05069
3192.56400	0.05101
3191.27823	0.05099
3189.99246	0.05058
3188.70669	0.05000
3187.42092	0.04951
3186.13515	0.04929
3184.84938	0.04924
3183.56362	0.04920
3182.27785	0.04901
3180.99208	0.04865
3179.70631	0.04821
3178.42054	0.04778
3177.13477	0.04739
3175.84900	0.04703
3174.56323	0.04669
3173.27746	0.04644
3171.99170	0.04644
3170.70593	0.04669
3169.42016	0.04695
3168.13439	0.04690
3166.84862	0.04650
3165.56285	0.04596
3164.27708	0.04552
3162.99131	0.04526
3161.70555	0.04517
3160.41978	0.04521
3159.13401	0.04534
3157.84824	0.04553
3156.56247	0.04572
3155.27670	0.04583
3153.99093	0.04578
3152.70516	0.04561
3151.41939	0.04543
3150.13363	0.04537
3148.84786	0.04539
3147.56209	0.04534
3146.27632	0.04511
3144.99055	0.04476
3143.70478	0.04444
3142.41901	0.04423
3141.13324	0.04416
3139.84748	0.04424
3138.56171	0.04447
3137.27594	0.04471
3135.99017	0.04478
3134.70440	0.04464
3133.41863	0.04441
3132.13286	0.04426
3130.84709	0.04423
3129.56132	0.04423
3128.27556	0.04419
3126.98979	0.04408
3125.70402	0.04391
3124.41825	0.04370
3123.13248	0.04341
3121.84671	0.04304
3120.56094	0.04264
3119.27517	0.04224
3117.98940	0.04193
3116.70364	0.04176
3115.41787	0.04178
3114.13210	0.04200
3112.84633	0.04238
3111.56056	0.04277
3110.27479	0.04297
3108.98902	0.04278
3107.70325	0.04224
3106.41749	0.04160
3105.13172	0.04119
3103.84595	0.04112
3102.56018	0.04127
3101.27441	0.04148
3099.98864	0.04169
3098.70287	0.04194
3097.41710	0.04215
3096.13133	0.04215
3094.84557	0.04185
3093.55980	0.04134
3092.27403	0.04081
3090.98826	0.04037
3089.70249	0.04005
3088.41672	0.03988
3087.13095	0.03985
3085.84518	0.03990
3084.55942	0.03994
3083.27365	0.03993
3081.98788	0.03989
3080.70211	0.03983
3079.41634	0.03974
3078.13057	0.03957
3076.84480	0.03929
3075.55903	0.03888
3074.27326	0.03843
3072.98750	0.03808
3071.70173	0.03792
3070.41596	0.03792
3069.13019	0.03796
3067.84442	0.03792
3066.55865	0.03778
3065.27288	0.03765
3063.98711	0.03766
3062.70135	0.03775
3061.41558	0.03778
3060.12981	0.03762
3058.84404	0.03731
3057.55827	0.03697
3056.27250	0.03667
3054.98673	0.03647
3053.70096	0.03640
3052.41519	0.03648
3051.12943	0.03665
3049.84366	0.03678
3048.55789	0.03672
3047.27212	0.03642
3045.98635	0.03599
3044.70058	0.03566
3043.41481	0.03558
3042.12904	0.03572
3040.84328	0.03591
3039.55751	0.03600
3038.27174	0.03598
3036.98597	0.03584
3035.70020	0.03561
3034.41443	0.03538
3033.12866	0.03529
3031.84289	0.03533
3030.55712	0.03533
3029.27136	0.03516
3027.98559	0.03492
3026.69982	0.03480
3025.41405	0.03486
3024.12828	0.03497
3022.84251	0.03497
3021.55674	0.03485
3020.27097	0.03470
3018.98521	0.03453
3017.69944	0.03435
3016.41367	0.03413
3015.12790	0.03389
3013.84213	0.03362
3012.55636	0.03329
3011.27059	0.03296
3009.98482	0.03272
3008.69905	0.03259
3007.41329	0.03250
3006.12752	0.03241
3004.84175	0.03232
3003.55598	0.03224
3002.27021	0.03218
3000.98444	0.03216
2999.69867	0.03214
2998.41290	0.03207
2997.12714	0.03188
2995.84137	0.03168
2994.55560	0.03167
2993.26983	0.03196
2991.98406	0.03243
2990.69829	0.03284
2989.41252	0.03300
2988.12675	0.03292
2986.84098	0.03264
2985.55522	0.03219
2984.26945	0.03162
2982.98368	0.03114
2981.69791	0.03092
2980.41214	0.03096
2979.12637	0.03104
2977.84060	0.03103
2976.55483	0.03096
2975.26907	0.03092
2973.98330	0.03087
2972.69753	0.03075
2971.41176	0.03055
2970.12599	0.03039
2968.84022	0.03036
2967.55445	0.03043
2966.26868	0.03041
2964.98291	0.03017
2963.69715	0.02975
2962.41138	0.02940
2961.12561	0.02933
2959.83984	0.02956
2958.55407	0.02992
2957.26830	0.03027
2955.98253	0.03056
2954.69676	0.03082
2953.41100	0.03107
2952.12523	0.03130
2950.83946	0.03144
2949.55369	0.03143
2948.26792	0.03120
2946.98215	0.03074
2945.69638	0.03013
2944.41061	0.02953
2943.12484	0.02915
2941.83908	0.02911
2940.55331	0.02938
2939.26754	0.02977
2937.98177	0.03009
2936.69600	0.03022
2935.41023	0.03019
2934.12446	0.03012
2932.83869	0.03014
2931.55293	0.03026
2930.26716	0.03033
2928.98139	0.03024
2927.69562	0.02999
2926.40985	0.02972
2925.12408	0.02955
2923.83831	0.02955
2922.55254	0.02967
2921.26677	0.02978
2919.98101	0.02971
2918.69524	0.02946
2917.40947	0.02921
2916.12370	0.02915
2914.83793	0.02924
2913.55216	0.02921
2912.26639	0.02890
2910.98062	0.02844
2909.69486	0.02808
2908.40909	0.02789
2907.12332	0.02776
2905.83755	0.02766
2904.55178	0.02768
2903.26601	0.02792
2901.98024	0.02828
2900.69447	0.02851
2899.40870	0.02851
2898.12294	0.02833
2896.83717	0.02812
2895.55140	0.02791
2894.26563	0.02774
2892.97986	0.02763
2891.69409	0.02761
2890.40832	0.02764
2889.12255	0.02761
2887.83678	0.02749
2886.55102	0.02739
2885.26525	0.02740
2883.97948	0.02752
2882.69371	0.02763
2881.40794	0.02759
2880.12217	0.02736
2878.83640	0.02705
2877.55063	0.02682
2876.26487	0.02678
2874.97910	0.02683
2873.69333	0.02682
2872.40756	0.02657
2871.12179	0.02610
2869.83602	0.02563
2868.55025	0.02539
2867.26448	0.02542
2865.97871	0.02556
2864.69295	0.02566
2863.40718	0.02568
2862.12141	0.02569
2860.83564	0.02570
2859.54987	0.02569
2858.26410	0.02566
2856.97833	0.02559
2855.69256	0.02546
2854.40680	0.02529
2853.12103	0.02522
2851.83526	0.02532
2850.54949	0.02549
2849.26372	0.02552
2847.97795	0.02533
2846.69218	0.02505
2845.40641	0.02486
2844.12064	0.02479
2842.83488	0.02474
2841.54911	0.02458
2840.26334	0.02429
2838.97757	0.02392
2837.69180	0.02363
2836.40603	0.02350
2835.12026	0.02350
2833.83449	0.02348
2832.54873	0.02333
2831.26296	0.02314
2829.97719	0.02312
2828.69142	0.02329
2827.40565	0.02350
2826.11988	0.02352
2824.83411	0.02331
2823.54834	0.02301
2822.26257	0.02276
2820.97681	0.02256
2819.69104	0.02231
2818.40527	0.02202
2817.11950	0.02182
2815.83373	0.02187
2814.54796	0.02216
2813.26219	0.02255
2811.97642	0.02295
2810.69066	0.02325
2809.40489	0.02330
2808.11912	0.02307
2806.83335	0.02270
2805.54758	0.02240
2804.26181	0.02225
2802.97604	0.02224
2801.69027	0.02234
2800.40450	0.02251
2799.11874	0.02259
2797.83297	0.02252
2796.54720	0.02240
2795.26143	0.02238
2793.97566	0.02248
2792.68989	0.02259
2791.40412	0.02257
2790.11835	0.02231
2788.83259	0.02183
2787.54682	0.02132
2786.26105	0.02098
2784.97528	0.02088
2783.68951	0.02095
2782.40374	0.02104
2781.11797	0.02111
2779.83220	0.02120
2778.54643	0.02135
2777.26067	0.02152
2775.97490	0.02168
2774.68913	0.02179
2773.40336	0.02184
2772.11759	0.02179
2770.83182	0.02166
2769.54605	0.02150
2768.26028	0.02135
2766.97452	0.02124
2765.68875	0.02116
2764.40298	0.02113
2763.11721	0.02115
2761.83144	0.02118
2760.54567	0.02114
2759.25990	0.02101
2757.97413	0.02084
2756.68836	0.02073
2755.40260	0.02068
2754.11683	0.02060
2752.83106	0.02045
2751.54529	0.02029
2750.25952	0.02019
2748.97375	0.02017
2747.68798	0.02024
2746.40221	0.02039
2745.11645	0.02057
2743.83068	0.02070
2742.54491	0.02080
2741.25914	0.02088
2739.97337	0.02085
2738.68760	0.02064
2737.40183	0.02032
2736.11606	0.02010
2734.83029	0.02006
2733.54453	0.02011
2732.25876	0.02005
2730.97299	0.01984
2729.68722	0.01956
2728.40145	0.01934
2727.11568	0.01926
2725.82991	0.01935
2724.54414	0.01958
2723.25838	0.01987
2721.97261	0.02010
2720.68684	0.02021
2719.40107	0.02020
2718.11530	0.02015
2716.82953	0.02008
2715.54376	0.01998
2714.25799	0.01982
2712.97222	0.01959
2711.68646	0.01936
2710.40069	0.01922
2709.11492	0.01922
2707.82915	0.01932
2706.54338	0.01940
2705.25761	0.01935
2703.97184	0.01920
2702.68607	0.01903
2701.40031	0.01896
2700.11454	0.01898
2698.82877	0.01907
2697.54300	0.01919
2696.25723	0.01928
2694.97146	0.01926
2693.68569	0.01905
2692.39992	0.01868
2691.11415	0.01834
2689.82839	0.01822
2688.54262	0.01835
2687.25685	0.01856
2685.97108	0.01861
2684.68531	0.01843
2683.39954	0.01815
2682.11377	0.01795
2680.82800	0.01789
2679.54224	0.01798
2678.25647	0.01813
2676.97070	0.01825
2675.68493	0.01827
2674.39916	0.01818
2673.11339	0.01804
2671.82762	0.01799
2670.54185	0.01808
2669.25608	0.01827
2667.97032	0.01842
2666.68455	0.01845
2665.39878	0.01838
2664.11301	0.01831
2662.82724	0.01829
2661.54147	0.01831
2660.25570	0.01838
2658.96993	0.01846
2657.68417	0.01847
2656.39840	0.01842
2655.11263	0.01839
2653.82686	0.01848
2652.54109	0.01868
2651.25532	0.01887
2649.96955	0.01892
2648.68378	0.01877
2647.39801	0.01847
2646.11225	0.01816
2644.82648	0.01792
2643.54071	0.01779
2642.25494	0.01771
2640.96917	0.01766
2639.68340	0.01765
2638.39763	0.01768
2637.11186	0.01766
2635.82609	0.01752
2634.54033	0.01729
2633.25456	0.01706
2631.96879	0.01690
2630.68302	0.01682
2629.39725	0.01680
2628.11148	0.01683
2626.82571	0.01690
2625.53994	0.01690
2624.25418	0.01668
2622.96841	0.01621
2621.68264	0.01573
2620.39687	0.01558
2619.11110	0.01578
2617.82533	0.01598
2616.53956	0.01588
2615.25379	0.01553
2613.96802	0.01523
2612.68226	0.01511
2611.39649	0.01511
2610.11072	0.01507
2608.82495	0.01502
2607.53918	0.01510
2606.25341	0.01541
2604.96764	0.01587
2603.68187	0.01618
2602.39611	0.01616
2601.11034	0.01582
2599.82457	0.01541
2598.53880	0.01514
2597.25303	0.01503
2595.96726	0.01497
2594.68149	0.01485
2593.39572	0.01472
2592.10995	0.01474
2590.82419	0.01500
2589.53842	0.01539
2588.25265	0.01568
2586.96688	0.01576
2585.68111	0.01571
2584.39534	0.01570
2583.10957	0.01581
2581.82380	0.01590
2580.53804	0.01573
2579.25227	0.01515
2577.96650	0.01437
2576.68073	0.01386
2575.39496	0.01396
2574.10919	0.01448
2572.82342	0.01490
2571.53765	0.01487
2570.25188	0.01460
2568.96612	0.01449
2567.68035	0.01471
2566.39458	0.01507
2565.10881	0.01526
2563.82304	0.01516
2562.53727	0.01491
2561.25150	0.01474
2559.96573	0.01473
2558.67997	0.01480
2557.39420	0.01487
2556.10843	0.01485
2554.82266	0.01471
2553.53689	0.01447
2552.25112	0.01418
2550.96535	0.01384
2549.67958	0.01357
2548.39381	0.01365
2547.10805	0.01420
2545.82228	0.01489
2544.53651	0.01520
2543.25074	0.01504
2541.96497	0.01478
2540.67920	0.01470
2539.39343	0.01469
2538.10766	0.01448
2536.82190	0.01404
2535.53613	0.01356
2534.25036	0.01326
2532.96459	0.01321
2531.67882	0.01336
2530.39305	0.01360
2529.10728	0.01386
2527.82151	0.01401
2526.53574	0.01394
2525.24998	0.01371
2523.96421	0.01350
2522.67844	0.01345
2521.39267	0.01354
2520.10690	0.01368
2518.82113	0.01379
2517.53536	0.01381
2516.24959	0.01374
2514.96383	0.01362
2513.67806	0.01351
2512.39229	0.01342
2511.10652	0.01335
2509.82075	0.01332
2508.53498	0.01338
2507.24921	0.01353
2505.96344	0.01374
2504.67767	0.01399
2503.39191	0.01428
2502.10614	0.01454
2500.82037	0.01463
2499.53460	0.01451
2498.24883	0.01429
2496.96306	0.01404
2495.67729	0.01379
2494.39152	0.01357
2493.10576	0.01342
2491.81999	0.01336
2490.53422	0.01331
2489.24845	0.01324
2487.96268	0.01319
2486.67691	0.01325
2485.39114	0.01337
2484.10537	0.01341
2482.81960	0.01330
2481.53384	0.01312
2480.24807	0.01299
2478.96230	0.01287
2477.67653	0.01261
2476.39076	0.01224
2475.10499	0.01206
2473.81922	0.01228
2472.53345	0.01277
2471.24769	0.01311
2469.96192	0.01304
2468.67615	0.01265
2467.39038	0.01226
2466.10461	0.01215
2464.81884	0.01235
2463.53307	0.01272
2462.24730	0.01302
2460.96153	0.01313
2459.67577	0.01313
2458.39000	0.01318
2457.10423	0.01332
2455.81846	0.01345
2454.53269	0.01352
2453.24692	0.01355
2451.96115	0.01355
2450.67538	0.01345
2449.38962	0.01333
2448.10385	0.01333
2446.81808	0.01342
2445.53231	0.01342
2444.24654	0.01326
2442.96077	0.01305
2441.67500	0.01296
2440.38923	0.01300
2439.10346	0.01315
2437.81770	0.01330
2436.53193	0.01337
2435.24616	0.01330
2433.96039	0.01309
2432.67462	0.01280
2431.38885	0.01247
2430.10308	0.01224
2428.81731	0.01227
2427.53155	0.01255
2426.24578	0.01281
2424.96001	0.01276
2423.67424	0.01237
2422.38847	0.01196
2421.10270	0.01184
2419.81693	0.01199
2418.53116	0.01212
2417.24539	0.01206
2415.95963	0.01193
2414.67386	0.01198
2413.38809	0.01220
2412.10232	0.01240
2410.81655	0.01240
2409.53078	0.01226
2408.24501	0.01215
2406.95924	0.01212
2405.67347	0.01210
2404.38771	0.01203
2403.10194	0.01187
2401.81617	0.01164
2400.53040	0.01128
2399.24463	0.00959
2397.95886	0.00860
2396.67309	0.00880
2395.38732	0.00960
2394.10156	0.01054
2392.81579	0.01140
2391.53002	0.01214
2390.24425	0.01276
2388.95848	0.01331
2387.67271	0.01394
2386.38694	0.01475
2385.10117	0.01571
2383.81540	0.01665
2382.52964	0.01732
2381.24387	0.01763
2379.95810	0.01756
2378.67233	0.01735
2377.38656	0.01738
2376.10079	0.01741
2374.81502	0.01749
2373.52925	0.01789
2372.24349	0.01835
2370.95772	0.01888
2369.67195	0.01897
2368.38618	0.01919
2367.10041	0.02066
2365.81464	0.02284
2364.52887	0.02403
2363.24310	0.02447
2361.95733	0.02521
2360.67157	0.02605
2359.38580	0.02596
2358.10003	0.02559
2356.81426	0.02553
2355.52849	0.02549
2354.24272	0.02551
2352.95695	0.02573
2351.67118	0.02705
2350.38542	0.02988
2349.09965	0.03128
2347.81388	0.02824
2346.52811	0.02333
2345.24234	0.02088
2343.95657	0.02122
2342.67080	0.02184
2341.38503	0.02218
2340.09926	0.02288
2338.81350	0.02376
2337.52773	0.02484
2336.24196	0.02547
2334.95619	0.02577
2333.67042	0.02583
2332.38465	0.02497
2331.09888	0.02410
2329.81311	0.02427
2328.52735	0.02481
2327.24158	0.02549
2325.95581	0.02568
2324.67004	0.02440
2323.38427	0.02219
2322.09850	0.01996
2320.81273	0.01806
2319.52696	0.01730
2318.24119	0.01758
2316.95543	0.01781
2315.66966	0.01744
2314.38389	0.01659
2313.09812	0.01578
2311.81235	0.01530
2310.52658	0.01512
2309.24081	0.01537
2307.95504	0.01582
2306.66928	0.01616
2305.38351	0.01643
2304.09774	0.01646
2302.81197	0.01615
2301.52620	0.01577
2300.24043	0.01564
2298.95466	0.01582
2297.66889	0.01608
2296.38312	0.01620
2295.09736	0.01610
2293.81159	0.01584
2292.52582	0.01557
2291.24005	0.01527
2289.95428	0.01494
2288.66851	0.01449
2287.38274	0.01388
2286.09697	0.01321
2284.81121	0.01272
2283.52544	0.01254
2282.23967	0.01258
2280.95390	0.01260
2279.66813	0.01239
2278.38236	0.01204
2277.09659	0.01173
2275.81082	0.01167
2274.52505	0.01184
2273.23929	0.01199
2271.95352	0.01199
2270.66775	0.01187
2269.38198	0.01169
2268.09621	0.01144
2266.81044	0.01108
2265.52467	0.01064
2264.23890	0.01030
2262.95314	0.01026
2261.66737	0.01053
2260.38160	0.01100
2259.09583	0.01159
2257.81006	0.01204
2256.52429	0.01209
2255.23852	0.01161
2253.95275	0.01078
2252.66698	0.00998
2251.38122	0.00936
2250.09545	0.00865
2248.80968	0.00772
2247.52391	0.00780
2246.23814	0.00870
2244.95237	0.01016
2243.66660	0.01151
2242.38083	0.01219
2241.09507	0.01218
2239.80930	0.01177
2238.52353	0.01115
2237.23776	0.01037
2235.95199	0.00954
2234.66622	0.00886
2233.38045	0.00843
2232.09468	0.00809
2230.80891	0.00768
2229.52315	0.00729
2228.23738	0.00727
2226.95161	0.00779
2225.66584	0.00845
2224.38007	0.00851
2223.09430	0.00749
2221.80853	0.00570
2220.52276	0.00423
2219.23700	0.00407
2217.95123	0.00530
2216.66546	0.00697
2215.37969	0.00809
2214.09392	0.00845
2212.80815	0.00844
2211.52238	0.00832
2210.23661	0.00801
2208.95084	0.00752
2207.66508	0.00717
2206.37931	0.00724
2205.09354	0.00765
2203.80777	0.00815
2202.52200	0.00856
2201.23623	0.00876
2199.95046	0.00856
2198.66469	0.00784
2197.37893	0.00671
2196.09316	0.00558
2194.80739	0.00485
2193.52162	0.00468
2192.23585	0.00488
2190.95008	0.00507
2189.66431	0.00508
2188.37854	0.00518
2187.09277	0.00570
2185.80701	0.00644
2184.52124	0.00679
2183.23547	0.00642
2181.94970	0.00572
2180.66393	0.00520
2179.37816	0.00497
2178.09239	0.00478
2176.80662	0.00441
2175.52085	0.00380
2174.23509	0.00309
2172.94932	0.00258
2171.66355	0.00261
2170.37778	0.00315
2169.09201	0.00393
2167.80624	0.00463
2166.52047	0.00508
2165.23470	0.00530
2163.94894	0.00533
2162.66317	0.00515
2161.37740	0.00462
2160.09163	0.00351
2158.80586	0.00182
2157.52009	-0.00000
2156.23432	-0.00129
2154.94855	-0.00161
2153.66278	-0.00110
2152.37702	-0.00031
2151.09125	0.00016
2149.80548	0.00024
2148.51971	0.00037
2147.23394	0.00107
2145.94817	0.00230
2144.66240	0.00350
2143.37663	0.00403
2142.09087	0.00379
2140.80510	0.00323
2139.51933	0.00278
2138.23356	0.00242
2136.94779	0.00184
2135.66202	0.00111
2134.37625	0.00069
2133.09048	0.00092
2131.80471	0.00164
2130.51895	0.00252
2129.23318	0.00336
2127.94741	0.00411
2126.66164	0.00464
2125.37587	0.00477
2124.09010	0.00448
2122.80433	0.00398
2121.51856	0.00359
2120.23280	0.00357
2118.94703	0.00392
2117.66126	0.00444
2116.37549	0.00493
2115.08972	0.00533
2113.80395	0.00567
2112.51818	0.00600
2111.23241	0.00625
2109.94664	0.00629
2108.66088	0.00595
2107.37511	0.00523
2106.08934	0.00439
2104.80357	0.00381
2103.51780	0.00364
2102.23203	0.00377
2100.94626	0.00398
2099.66049	0.00437
2098.37473	0.00462
2097.08896	0.00455
2095.80319	0.00417
2094.51742	0.00372
2093.23165	0.00361
2091.94588	0.00394
2090.66011	0.00441
2089.37434	0.00462
2088.08857	0.00449
2086.80281	0.00429
2085.51704	0.00425
2084.23127	0.00437
2082.94550	0.00446
2081.65973	0.00435
2080.37396	0.00402
2079.08819	0.00356
2077.80242	0.00312
2076.51666	0.00286
2075.23089	0.00286
2073.94512	0.00311
2072.65935	0.00346
2071.37358	0.00367
2070.08781	0.00351
2068.80204	0.00290
2067.51627	0.00207
2066.23050	0.00132
2064.94474	0.00084
2063.65897	0.00060
2062.37320	0.00056
2061.08743	0.00071
2059.80166	0.00099
2058.51589	0.00121
2057.23012	0.00113
2055.94435	0.00075
2054.65859	0.00030
2053.37282	0.00004
2052.08705	0.00007
2050.80128	0.00020
2049.51551	0.00021
2048.22974	-0.00007
2046.94397	-0.00061
2045.65820	-0.00125
2044.37243	-0.00171
2043.08667	-0.00164
2041.80090	-0.00093
2040.51513	0.00015
2039.22936	0.00104
2037.94359	0.00135
2036.65782	0.00108
2035.37205	0.00050
2034.08628	-0.00011
2032.80052	-0.00058
2031.51475	-0.00077
2030.22898	-0.00067
2028.94321	-0.00040
2027.65744	-0.00012
2026.37167	0.00011
2025.08590	0.00019
2023.80013	-0.00001
2022.51436	-0.00051
2021.22860	-0.00099
2019.94283	-0.00114
2018.65706	-0.00104
2017.37129	-0.00108
2016.08552	-0.00133
2014.79975	-0.00137
2013.51398	-0.00084
2012.22821	-0.00003
2010.94245	0.00041
2009.65668	0.00018
2008.37091	-0.00041
2007.08514	-0.00084
2005.79937	-0.00084
2004.51360	-0.00052
2003.22783	-0.00003
2001.94206	0.00058
2000.65629	0.00137
1999.37053	0.00227
1998.08476	0.00304
1996.79899	0.00343
1995.51322	0.00343
1994.22745	0.00336
1992.94168	0.00354
1991.65591	0.00393
1990.37014	0.00419
1989.08438	0.00409
1987.79861	0.00375
1986.51284	0.00346
1985.22707	0.00343
1983.94130	0.00360
1982.65553	0.00374
1981.36976	0.00371
1980.08399	0.00349
1978.79822	0.00309
1977.51246	0.00251
1976.22669	0.00194
1974.94092	0.00167
1973.65515	0.00185
1972.36938	0.00228
1971.08361	0.00269
1969.79784	0.00300
1968.51207	0.00333
1967.22631	0.00375
1965.94054	0.00417
1964.65477	0.00449
1963.36900	0.00455
1962.08323	0.00425
1960.79746	0.00376
1959.51169	0.00343
1958.22592	0.00350
1956.94015	0.00380
1955.65439	0.00408
1954.36862	0.00435
1953.08285	0.00477
1951.79708	0.00529
1950.51131	0.00558
1949.22554	0.00541
1947.93977	0.00494
1946.65400	0.00464
1945.36823	0.00493
1944.08247	0.00583
1942.79670	0.00686
1941.51093	0.00738
1940.22516	0.00718
1938.93939	0.00654
1937.65362	0.00577
1936.36785	0.00504
1935.08208	0.00444
1933.79632	0.00418
1932.51055	0.00437
1931.22478	0.00486
1929.93901	0.00536
1928.65324	0.00571
1927.36747	0.00597
1926.08170	0.00616
1924.79593	0.00624
1923.51016	0.00612
1922.22440	0.00587
1920.93863	0.00576
1919.65286	0.00597
1918.36709	0.00633
1917.08132	0.00649
1915.79555	0.00635
1914.50978	0.00610
1913.22401	0.00593
1911.93825	0.00589
1910.65248	0.00592
1909.36671	0.00591
1908.08094	0.00584
1906.79517	0.00580
1905.50940	0.00587
1904.22363	0.00601
1902.93786	0.00615
1901.65209	0.00627
1900.36633	0.00644
1899.08056	0.00673
1897.79479	0.00711
1896.50902	0.00742
1895.22325	0.00745
1893.93748	0.00716
1892.65171	0.00672
1891.36594	0.00639
1890.08018	0.00620
1888.79441	0.00610
1887.50864	0.00607
1886.22287	0.00616
1884.93710	0.00635
1883.65133	0.00646
1882.36556	0.00637
1881.07979	0.00609
1879.79402	0.00576
1878.50826	0.00559
1877.22249	0.00563
1875.93672	0.00583
1874.65095	0.00603
1873.36518	0.00615
1872.07941	0.00623
1870.79364	0.00635
1869.50787	0.00647
1868.22211	0.00651
1866.93634	0.00646
1865.65057	0.00642
1864.36480	0.00644
1863.07903	0.00650
1861.79326	0.00654
1860.50749	0.00656
1859.22172	0.00654
1857.93595	0.00650
1856.65019	0.00645
1855.36442	0.00643
1854.07865	0.00646
1852.79288	0.00652
1851.50711	0.00655
1850.22134	0.00650
1848.93557	0.00635
1847.64980	0.00623
1846.36404	0.00631
1845.07827	0.00655
1843.79250	0.00661
1842.50673	0.00642
1841.22096	0.00625
1839.93519	0.00633
1838.64942	0.00661
1837.36365	0.00691
1836.07788	0.00712
1834.79212	0.00720
1833.50635	0.00721
1832.22058	0.00729
1830.93481	0.00744
1829.64904	0.00746
1828.36327	0.00730
1827.07750	0.00716
1825.79173	0.00714
1824.50597	0.00718
1823.22020	0.00723
1821.93443	0.00735
1820.64866	0.00748
1819.36289	0.00753
1818.07712	0.00749
1816.79135	0.00744
1815.50558	0.00743
1814.21981	0.00744
1812.93405	0.00747
1811.64828	0.00750
1810.36251	0.00752
1809.07674	0.00751
1807.79097	0.00749
1806.50520	0.00751
1805.21943	0.00760
1803.93366	0.00781
1802.64790	0.00808
1801.36213	0.00827
1800.07636	0.00825
1798.79059	0.00803
1797.50482	0.00774
1796.21905	0.00754
1794.93328	0.00761
1793.64751	0.00790
1792.36174	0.00811
1791.07598	0.00804
1789.79021	0.00784
1788.50444	0.00778
1787.21867	0.00787
1785.93290	0.00795
1784.64713	0.00792
1783.36136	0.00787
1782.07559	0.00795
1780.78983	0.00808
1779.50406	0.00810
1778.21829	0.00795
1776.93252	0.00780
1775.64675	0.00789
1774.36098	0.00830
1773.07521	0.00872
1771.78944	0.00878
1770.50367	0.00862
1769.21791	0.00861
1767.93214	0.00877
1766.64637	0.00883
1765.36060	0.00884
1764.07483	0.00904
1762.78906	0.00932
1761.50329	0.00939
1760.21752	0.00920
1758.93176	0.00908
1757.64599	0.00915
1756.36022	0.00923
1755.07445	0.00920
1753.78868	0.00928
1752.50291	0.00955
1751.21714	0.00977
1749.93137	0.00976
1748.64560	0.00965
1747.35984	0.00961
1746.07407	0.00959
1744.78830	0.00949
1743.50253	0.00937
1742.21676	0.00939
1740.93099	0.00956
1739.64522	0.00960
1738.35945	0.00939
1737.07369	0.00938
1735.78792	0.00992
1734.50215	0.01051
1733.21638	0.01049
1731.93061	0.01002
1730.64484	0.00979
1729.35907	0.00999
1728.07330	0.01032
1726.78753	0.01062
1725.50177	0.01093
1724.21600	0.01118
1722.93023	0.01125
1721.64446	0.01119
1720.35869	0.01136
1719.07292	0.01190
1717.78715	0.01241
1716.50138	0.01255
1715.21561	0.01244
1713.92985	0.01243
1712.64408	0.01262
1711.35831	0.01286
1710.07254	0.01305
1708.78677	0.01321
1707.50100	0.01339
1706.21523	0.01350
1704.92946	0.01344
1703.64370	0.01345
1702.35793	0.01399
1701.07216	0.01473
1699.78639	0.01495
1698.50062	0.01486
1697.21485	0.01523
1695.92908	0.01590
1694.64331	0.01611
1693.35754	0.01594
1692.07178	0.01607
1690.78601	0.01647
1689.50024	0.01668
1688.21447	0.01672
1686.92870	0.01713
1685.64293	0.01800
1684.35716	0.01866
1683.07139	0.01870
1681.78563	0.01861
1680.49986	0.01886
1679.21409	0.01933
1677.92832	0.01988
1676.64255	0.02053
1675.35678	0.02106
1674.07101	0.02127
1672.78524	0.02143
1671.49947	0.02188
1670.21371	0.02248
1668.92794	0.02284
1667.64217	0.02291
1666.35640	0.02302
1665.07063	0.02343
1663.78486	0.02397
1662.49909	0.02433
1661.21332	0.02445
1659.92756	0.02449
1658.64179	0.02451
1657.35602	0.02455
1656.07025	0.02501
1654.78448	0.02614
1653.49871	0.02720
1652.21294	0.02722
1650.92717	0.02651
1649.64140	0.02628
1648.35564	0.02699
1647.06987	0.02793
1645.78410	0.02833
1644.49833	0.02823
1643.21256	0.02812
1641.92679	0.02823
1640.64102	0.02842
1639.35525	0.02863
1638.06949	0.02907
1636.78372	0.02972
1635.49795	0.03014
1634.21218	0.03006
1632.92641	0.02981
1631.64064	0.02984
1630.35487	0.03016
1629.06910	0.03045
1627.78333	0.03055
1626.49757	0.03055
1625.21180	0.03068
1623.92603	0.03089
1622.64026	0.03094
1621.35449	0.03075
1620.06872	0.03073
1618.78295	0.03120
1617.49718	0.03185
1616.21142	0.03209
1614.92565	0.03186
1613.63988	0.03167
1612.35411	0.03184
1611.06834	0.03220
1609.78257	0.03250
1608.49680	0.03274
1607.21103	0.03295
1605.92526	0.03314
1604.63950	0.03334
1603.35373	0.03351
1602.06796	0.03364
1600.78219	0.03371
1599.49642	0.03375
1598.21065	0.03379
1596.92488	0.03388
1595.63911	0.03399
1594.35335	0.03407
1593.06758	0.03409
1591.78181	0.03406
1590.49604	0.03403
1589.21027	0.03402
1587.92450	0.03407
1586.63873	0.03415
1585.35296	0.03422
1584.06719	0.03422
1582.78143	0.03412
1581.49566	0.03388
1580.20989	0.03361
1578.92412	0.03361
1577.63835	0.03401
1576.35258	0.03434
1575.06681	0.03409
1573.78104	0.03353
1572.49528	0.03329
1571.20951	0.03349
1569.92374	0.03369
1568.63797	0.03357
1567.35220	0.03329
1566.06643	0.03307
1564.78066	0.03285
1563.49489	0.03258
1562.20912	0.03264
1560.92336	0.03323
1559.63759	0.03379
1558.35182	0.03357
1557.06605	0.03280
1555.78028	0.03232
1554.49451	0.03235
1553.20874	0.03252
1551.92297	0.03266
1550.63721	0.03282
1549.35144	0.03298
1548.06567	0.03307
1546.77990	0.03317
1545.49413	0.03330
1544.20836	0.03344
1542.92259	0.03371
1541.63682	0.03427
1540.35105	0.03488
1539.06529	0.03504
1537.77952	0.03477
1536.49375	0.03473
1535.20798	0.03530
1533.92221	0.03612
1532.63644	0.03668
1531.35067	0.03703
1530.06490	0.03752
1528.77914	0.03832
1527.49337	0.03924
1526.20760	0.04007
1524.92183	0.04083
1523.63606	0.04179
1522.35029	0.04299
1521.06452	0.04406
1519.77875	0.04488
1518.49298	0.04578
1517.20722	0.04696
1515.92145	0.04822
1514.63568	0.04946
1513.34991	0.05077
1512.06414	0.05212
1510.77837	0.05348
1509.49260	0.05508
1508.20683	0.05703
1506.92107	0.05894
1505.63530	0.06023
1504.34953	0.06100
1503.06376	0.06186
1501.77799	0.06307
1500.49222	0.06443
1499.20645	0.06574
1497.92068	0.06699
1496.63491	0.06807
1495.34915	0.06882
1494.06338	0.06941
1492.77761	0.07021
1491.49184	0.07130
1490.20607	0.07243
1488.92030	0.07343
1487.63453	0.07441
1486.34876	0.07549
1485.06299	0.07671
1483.77723	0.07804
1482.49146	0.07941
1481.20569	0.08073
1479.91992	0.08198
1478.63415	0.08322
1477.34838	0.08445
1476.06261	0.08568
1474.77684	0.08692
1473.49108	0.08806
1472.20531	0.08879
1470.91954	0.08901
1469.63377	0.08900
1468.34800	0.08911
1467.06223	0.08943
1465.77646	0.08980
1464.49069	0.08996
1463.20492	0.08986
1461.91916	0.08966
1460.63339	0.08970
1459.34762	0.09022
1458.06185	0.09108
1456.77608	0.09173
1455.49031	0.09189
1454.20454	0.09188
1452.91877	0.09210
1451.63301	0.09251
1450.34724	0.09291
1449.06147	0.09322
1447.77570	0.09335
1446.48993	0.09325
1445.20416	0.09298
1443.91839	0.09264
1442.63262	0.09221
1441.34685	0.09166
1440.06109	0.09117
1438.77532	0.09100
1437.48955	0.09109
1436.20378	0.09111
1434.91801	0.09109
1433.63224	0.09138
1432.34647	0.09221
1431.06070	0.09343
1429.77494	0.09477
1428.48917	0.09616
1427.20340	0.09764
1425.91763	0.09925
1424.63186	0.10083
1423.34609	0.10225
1422.06032	0.10364
1420.77455	0.10512
1419.48878	0.10644
1418.20302	0.10730
1416.91725	0.10775
1415.63148	0.10806
1414.34571	0.10832
1413.05994	0.10844
1411.77417	0.10832
1410.48840	0.10791
1409.20263	0.10719
1407.91687	0.10620
1406.63110	0.10501
1405.34533	0.10364
1404.05956	0.10206
1402.77379	0.10034
1401.48802	0.09857
1400.20225	0.09670
1398.91648	0.09464
1397.63071	0.09243
1396.34495	0.09027
1395.05918	0.08815
1393.77341	0.08594
1392.48764	0.08360
1391.20187	0.08131
1389.91610	0.07917
1388.63033	0.07711
1387.34456	0.07498
1386.05880	0.07277
1384.77303	0.07059
1383.48726	0.06847
1382.20149	0.06629
1380.91572	0.06400
1379.62995	0.06167
1378.34418	0.05942
1377.05841	0.05734
1375.77264	0.05543
1374.48688	0.05358
1373.20111	0.05169
1371.91534	0.04978
1370.62957	0.04798
1369.34380	0.04634
1368.05803	0.04477
1366.77226	0.04325
1365.48649	0.04182
1364.20073	0.04052
1362.91496	0.03929
1361.62919	0.03806
1360.34342	0.03685
1359.05765	0.03572
1357.77188	0.03471
1356.48611	0.03379
1355.20034	0.03292
1353.91457	0.03211
1352.62881	0.03137
1351.34304	0.03071
1350.05727	0.03007
1348.77150	0.02943
1347.48573	0.02876
1346.19996	0.02811
1344.91419	0.02748
1343.62842	0.02687
1342.34266	0.02630
1341.05689	0.02581
1339.77112	0.02538
1338.48535	0.02494
1337.19958	0.02447
1335.91381	0.02399
1334.62804	0.02352
1333.34227	0.02310
1332.05650	0.02272
1330.77074	0.02239
1329.48497	0.02211
1328.19920	0.02185
1326.91343	0.02162
1325.62766	0.02139
1324.34189	0.02115
1323.05612	0.02089
1321.77035	0.02061
1320.48459	0.02033
1319.19882	0.02005
1317.91305	0.01976
1316.62728	0.01945
1315.34151	0.01915
1314.05574	0.01891
1312.76997	0.01874
1311.48420	0.01863
1310.19843	0.01853
1308.91267	0.01843
1307.62690	0.01828
1306.34113	0.01809
1305.05536	0.01785
1303.76959	0.01763
1302.48382	0.01745
1301.19805	0.01735
1299.91228	0.01725
1298.62652	0.01711
1297.34075	0.01692
1296.05498	0.01674
1294.76921	0.01659
1293.48344	0.01648
1292.19767	0.01640
1290.91190	0.01631
1289.62613	0.01619
1288.34036	0.01606
1287.05460	0.01592
1285.76883	0.01581
1284.48306	0.01571
1283.19729	0.01560
1281.91152	0.01546
1280.62575	0.01530
1279.33998	0.01515
1278.05421	0.01503
1276.76845	0.01497
1275.48268	0.01495
1274.19691	0.01496
1272.91114	0.01498
1271.62537	0.01499
1270.33960	0.01499
1269.05383	0.01495
1267.76806	0.01488
1266.48229	0.01479
1265.19653	0.01470
1263.91076	0.01462
1262.62499	0.01454
1261.33922	0.01446
1260.05345	0.01436
1258.76768	0.01424
1257.48191	0.01412
1256.19614	0.01401
1254.91037	0.01392
1253.62461	0.01390
1252.33884	0.01394
1251.05307	0.01397
1249.76730	0.01396
1248.48153	0.01391
1247.19576	0.01387
1245.90999	0.01385
1244.62422	0.01383
1243.33846	0.01377
1242.05269	0.01365
1240.76692	0.01350
1239.48115	0.01338
1238.19538	0.01333
1236.90961	0.01333
1235.62384	0.01334
1234.33807	0.01334
1233.05230	0.01331
1231.76654	0.01325
1230.48077	0.01317
1229.19500	0.01306
1227.90923	0.01296
1226.62346	0.01291
1225.33769	0.01292
1224.05192	0.01294
1222.76615	0.01294
1221.48039	0.01292
1220.19462	0.01287
1218.90885	0.01284
1217.62308	0.01282
1216.33731	0.01283
1215.05154	0.01286
1213.76577	0.01292
1212.48000	0.01297
1211.19423	0.01300
1209.90847	0.01300
1208.62270	0.01296
1207.33693	0.01293
1206.05116	0.01291
1204.76539	0.01291
1203.47962	0.01292
1202.19385	0.01291
1200.90808	0.01289
1199.62232	0.01285
1198.33655	0.01283
1197.05078	0.01281
1195.76501	0.01282
1194.47924	0.01284
1193.19347	0.01286
1191.90770	0.01283
1190.62193	0.01278
1189.33616	0.01281
1188.05040	0.01291
1186.76463	0.01303
1185.47886	0.01312
1184.19309	0.01315
1182.90732	0.01317
1181.62155	0.01319
1180.33578	0.01324
1179.05001	0.01330
1177.76425	0.01335
1176.47848	0.01341
1175.19271	0.01350
1173.90694	0.01362
1172.62117	0.01376
1171.33540	0.01390
1170.04963	0.01401
1168.76386	0.01408
1167.47809	0.01411
1166.19233	0.01412
1164.90656	0.01418
1163.62079	0.01434
1162.33502	0.01456
1161.04925	0.01482
1159.76348	0.01507
1158.47771	0.01529
1157.19194	0.01546
1155.90618	0.01560
1154.62041	0.01578
1153.33464	0.01609
1152.04887	0.01650
1150.76310	0.01695
1149.47733	0.01736
1148.19156	0.01777
1146.90579	0.01824
1145.62002	0.01878
1144.33426	0.01940
1143.04849	0.02007
1141.76272	0.02079
1140.47695	0.02156
1139.19118	0.02243
1137.90541	0.02349
1136.61964	0.02478
1135.33387	0.02631
1134.04811	0.02800
1132.76234	0.02982
1131.47657	0.03184
1130.19080	0.03411
1128.90503	0.03664
1127.61926	0.03941
1126.33349	0.04238
1125.04772	0.04556
1123.76195	0.04891
1122.47619	0.05237
1121.19042	0.05585
1119.90465	0.05933
1118.61888	0.06280
1117.33311	0.06630
1116.04734	0.06982
1114.76157	0.07333
1113.47580	0.07673
1112.19004	0.07998
1110.90427	0.08310
1109.61850	0.08613
1108.33273	0.08908
1107.04696	0.09194
1105.76119	0.09474
1104.47542	0.09752
1103.18965	0.10030
1101.90388	0.10302
1100.61812	0.10565
1099.33235	0.10817
1098.04658	0.11064
1096.76081	0.11306
1095.47504	0.11544
1094.18927	0.11773
1092.90350	0.11989
1091.61773	0.12192
1090.33197	0.12386
1089.04620	0.12576
1087.76043	0.12764
1086.47466	0.12950
1085.18889	0.13139
1083.90312	0.13336
1082.61735	0.13546
1081.33158	0.13772
1080.04581	0.14016
1078.76005	0.14285
1077.47428	0.14582
1076.18851	0.14899
1074.90274	0.15226
1073.61697	0.15554
1072.33120	0.15884
1071.04543	0.16222
1069.75966	0.16576
1068.47390	0.16951
1067.18813	0.17347
1065.90236	0.17755
1064.61659	0.18166
1063.33082	0.18575
1062.04505	0.18987
1060.75928	0.19406
1059.47351	0.19831
1058.18774	0.20255
1056.90198	0.20671
1055.61621	0.21076
1054.33044	0.21471
1053.04467	0.21864
1051.75890	0.22268
1050.47313	0.22690
1049.18736	0.23129
1047.90159	0.23580
1046.61583	0.24038
1045.33006	0.24501
1044.04429	0.24974
1042.75852	0.25457
1041.47275	0.25946
1040.18698	0.26435
1038.90121	0.26921
1037.61544	0.27401
1036.32967	0.27874
1035.04391	0.28341
1033.75814	0.28795
1032.47237	0.29225
1031.18660	0.29618
1029.90083	0.29966
1028.61506	0.30265
1027.32929	0.30513
1026.04352	0.30705
1024.75775	0.30839
1023.47199	0.30911
1022.18622	0.30917
1020.90045	0.30850
1019.61468	0.30705
1018.32891	0.30477
1017.04314	0.30165
1015.75737	0.29770
1014.47160	0.29291
1013.18584	0.28733
1011.90007	0.28102
1010.61430	0.27398
1009.32853	0.26619
1008.04276	0.25759
1006.75699	0.24816
1005.47122	0.23804
1004.18545	0.22741
1002.89968	0.21646
1001.61392	0.20529
1000.32815	0.19404
999.04238	0.18284
997.75661	0.17189
996.47084	0.16131
995.18507	0.15112
993.89930	0.14134
992.61353	0.13205
991.32777	0.12337
990.04200	0.11536
988.75623	0.10802
987.47046	0.10129
986.18469	0.09516
984.89892	0.08961
983.61315	0.08456
982.32738	0.07996
981.04161	0.07584
979.75585	0.07226
978.47008	0.06923
977.18431	0.06671
975.89854	0.06466
974.61277	0.06308
973.32700	0.06200
972.04123	0.06146
970.75546	0.06148
969.46970	0.06207
968.18393	0.06318
966.89816	0.06471
965.61239	0.06648
964.32662	0.06827
963.04085	0.06976
961.75508	0.07062
960.46931	0.07062
959.18354	0.06975
957.89778	0.06810
956.61201	0.06586
955.32624	0.06322
954.04047	0.06045
952.75470	0.05777
951.46893	0.05529
950.18316	0.05300
948.89739	0.05084
947.61163	0.04878
946.32586	0.04683
945.04009	0.04498
943.75432	0.04325
942.46855	0.04161
941.18278	0.04011
939.89701	0.03877
938.61124	0.03760
937.32547	0.03658
936.03971	0.03568
934.75394	0.03488
933.46817	0.03417
932.18240	0.03355
930.89663	0.03301
929.61086	0.03253
928.32509	0.03210
927.03932	0.03173
925.75356	0.03142
924.46779	0.03111
923.18202	0.03076
921.89625	0.03034
920.61048	0.02994
919.32471	0.02960
918.03894	0.02934
916.75317	0.02913
915.46740	0.02891
914.18164	0.02866
912.89587	0.02837
911.61010	0.02811
910.32433	0.02796
909.03856	0.02797
907.75279	0.02807
906.46702	0.02812
905.18125	0.02804
903.89549	0.02782
902.60972	0.02755
901.32395	0.02731
900.03818	0.02715
898.75241	0.02709
897.46664	0.02712
896.18087	0.02720
894.89510	0.02731
893.60933	0.02746
892.32357	0.02768
891.03780	0.02805
889.75203	0.02864
888.46626	0.02959
887.18049	0.03106
885.89472	0.03318
884.60895	0.03595
883.32318	0.03921
882.03742	0.04269
880.75165	0.04600
879.46588	0.04879
878.18011	0.05094
876.89434	0.05276
875.60857	0.05459
874.32280	0.05638
873.03703	0.05763
871.75126	0.05776
870.46550	0.05657
869.17973	0.05430
867.89396	0.05132
866.60819	0.04802
865.32242	0.04473
864.03665	0.04176
862.75088	0.03927
861.46511	0.03722
860.17935	0.03548
858.89358	0.03399
857.60781	0.03276
856.32204	0.03183
855.03627	0.03118
853.75050	0.03069
852.46473	0.03028
851.17896	0.02991
849.89319	0.02962
848.60743	0.02944
847.32166	0.02935
846.03589	0.02926
844.75012	0.02911
843.46435	0.02891
842.17858	0.02871
840.89281	0.02853
839.60704	0.02834
838.32128	0.02815
837.03551	0.02800
835.74974	0.02792
834.46397	0.02785
833.17820	0.02774
831.89243	0.02757
830.60666	0.02744
829.32089	0.02741
828.03512	0.02744
826.74936	0.02746
825.46359	0.02742
824.17782	0.02732
822.89205	0.02721
821.60628	0.02717
820.32051	0.02723
819.03474	0.02735
817.74897	0.02742
816.46321	0.02736
815.17744	0.02719
813.89167	0.02702
812.60590	0.02694
811.32013	0.02703
810.03436	0.02726
808.74859	0.02750
807.46282	0.02758
806.17705	0.02749
804.89129	0.02734
803.60552	0.02729
802.31975	0.02737
801.03398	0.02750
799.74821	0.02760
798.46244	0.02764
797.17667	0.02764
795.89090	0.02760
794.60513	0.02753
793.31937	0.02744
792.03360	0.02739
790.74783	0.02740
789.46206	0.02749
788.17629	0.02761
786.89052	0.02774
785.60475	0.02782
784.31898	0.02784
783.03322	0.02782
781.74745	0.02782
780.46168	0.02784
779.17591	0.02784
777.89014	0.02778
776.60437	0.02768
775.31860	0.02765
774.03283	0.02773
772.74706	0.02789
771.46130	0.02803
770.17553	0.02810
768.88976	0.02810
767.60399	0.02809
766.31822	0.02814
765.03245	0.02820
763.74668	0.02825
762.46091	0.02828
761.17515	0.02830
759.88938	0.02836
758.60361	0.02848
757.31784	0.02866
756.03207	0.02890
754.74630	0.02915
753.46053	0.02935
752.17476	0.02942
750.88899	0.02931
749.60323	0.02904
748.31746	0.02876
747.03169	0.02859
745.74592	0.02858
744.46015	0.02863
743.17438	0.02866
741.88861	0.02862
740.60284	0.02854
739.31708	0.02852
738.03131	0.02860
736.74554	0.02878
735.45977	0.02897
734.17400	0.02911
732.88823	0.02922
731.60246	0.02937
730.31669	0.02955
729.03092	0.02967
727.74516	0.02971
726.45939	0.02974
725.17362	0.02987
723.88785	0.03032
722.60208	0.03034
721.31631	0.02992
720.03054	0.02959
718.74477	0.02961
717.45901	0.02969
716.17324	0.02978
714.88747	0.02996
713.60170	0.03019
712.31593	0.03040
711.03016	0.03054
709.74439	0.03061
708.45862	0.03065
707.17285	0.03069
705.88709	0.03075
704.60132	0.03082
703.31555	0.03086
702.02978	0.03088
700.74401	0.03090
699.45824	0.03092
698.17247	0.03094
696.88670	0.03093
695.60094	0.03091
694.31517	0.03091
693.02940	0.03095
691.74363	0.03104
690.45786	0.03115
689.17209	0.03125
687.88632	0.03131
686.60055	0.03134
685.31478	0.03138
684.02902	0.03145
682.74325	0.03156
681.45748	0.03169
680.17171	0.03180
678.88594	0.03189
677.60017	0.03199
676.31440	0.03209
675.02863	0.03218
673.74287	0.03230
672.45710	0.03245
671.17133	0.03222
669.88556	0.03067
668.59979	0.02843
667.31402	0.02955
666.02825	0.03230
664.74248	0.03298
663.45671	0.03249
662.17095	0.03204
660.88518	0.03180
659.59941	0.03170
658.31364	0.03170
657.02787	0.03170
655.74210	0.03166
654.45633	0.03159
653.17056	0.03149
651.88480	0.03144
650.59903	0.03148
649.31326	0.03159
648.02749	0.03178
646.74172	0.03193
645.45595	0.03196
644.17018	0.03195
642.88441	0.03201
641.59864	0.03218
640.31288	0.03245
639.02711	0.03279
637.74134	0.03311
636.45557	0.03340
635.16980	0.03363
633.88403	0.03385
632.59826	0.03410
631.31249	0.03445
630.02673	0.03490
628.74096	0.03526
627.45519	0.03538
626.16942	0.03605
624.88365	0.03749
623.59788	0.03973
622.31211	0.04260
621.02634	0.04556
619.74057	0.04818
618.45481	0.05041
617.16904	0.05227
615.88327	0.05383
614.59750	0.05535
613.31173	0.05733
612.02596	0.06040
610.74019	0.06528
609.45442	0.07213
608.16866	0.08004
606.88289	0.08763
605.59712	0.09405
604.31135	0.09883
603.02558	0.10167
601.73981	0.10254
600.45404	0.10170
599.16827	0.09956
597.88250	0.09650
596.59674	0.09294
595.31097	0.08926
594.02520	0.08593
592.73943	0.08333
591.45366	0.08164
590.16789	0.08080
588.88212	0.08061
587.59635	0.08100
586.31059	0.08202
585.02482	0.08370
583.73905	0.08595
582.45328	0.08858
581.16751	0.09146
579.88174	0.09452
578.59597	0.09774
577.31020	0.10108
576.02443	0.10444
574.73867	0.10773
573.45290	0.11091
572.16713	0.11399
570.88136	0.11723
569.59559	0.12096
568.30982	0.12535
567.02405	0.13016
565.73828	0.13487
564.45251	0.13888
563.16675	0.14158
561.88098	0.14236
560.59521	0.14077
559.30944	0.13673
558.02367	0.13057
556.73790	0.12290
555.45213	0.11440
554.16636	0.10574
552.88060	0.09741
551.59483	0.08972
550.30906	0.08281
549.02329	0.07678
547.73752	0.07166
546.45175	0.06741
545.16598	0.06387
543.88021	0.06087
542.59444	0.05827
541.30868	0.05596
540.02291	0.05387
538.73714	0.05199
537.45137	0.05030
536.16560	0.04879
534.87983	0.04739
533.59406	0.04607
532.30829	0.04479
531.02253	0.04355
529.73676	0.04238
528.45099	0.04129
527.16522	0.04028
525.87945	0.03934
524.59368	0.03855
523.30791	0.03797
522.02214	0.03755
520.73637	0.03717
519.45061	0.03671
518.16484	0.03613
516.87907	0.03548
515.59330	0.03486
514.30753	0.03431
513.02176	0.03386
511.73599	0.03348
510.45022	0.03320
509.16446	0.03300
507.87869	0.03284
506.59292	0.03258
505.30715	0.03215
504.02138	0.03159
502.73561	0.03104
501.44984	0.03057
500.16407	0.03018
498.87830	0.02985
497.59254	0.02958
496.30677	0.02940
495.02100	0.02927
493.73523	0.02914
492.44946	0.02896
491.16369	0.02877
489.87792	0.02865
488.59215	0.02861
487.30639	0.02861
486.02062	0.02859
484.73485	0.02853
483.44908	0.02848
482.16331	0.02849
480.87754	0.02854
479.59177	0.02861
478.30600	0.02874
477.02023	0.02895
475.73447	0.02928
474.44870	0.02968
473.16293	0.03007
471.87716	0.03037
470.59139	0.03052
469.30562	0.03052
468.01985	0.03034
466.73408	0.02998
465.44832	0.02954
464.16255	0.02911
462.87678	0.02875
461.59101	0.02844
460.30524	0.02814
459.01947	0.02782
457.73370	0.02748
456.44793	0.02713
455.16216	0.02680
453.87640	0.02651
452.59063	0.02621
451.30486	0.02590
450.01909	0.02567
448.73332	0.02556
447.44755	0.02550
446.16178	0.02541
444.87601	0.02525
443.59025	0.02504
442.30448	0.02487
441.01871	0.02480
439.73294	0.02482
438.44717	0.02489
437.16140	0.02491
435.87563	0.02484
434.58986	0.02472
433.30409	0.02461
432.01833	0.02457
430.73256	0.02458
429.44679	0.02459
428.16102	0.02457
426.87525	0.02452
425.58948	0.02439
424.30371	0.02418
423.01794	0.02395
421.73218	0.02383
420.44641	0.02389
419.16064	0.02399
417.87487	0.02398
416.58910	0.02389
415.30333	0.02380
414.01756	0.02376
412.73179	0.02374
411.44602	0.02374
410.16026	0.02376
408.87449	0.02380
407.58872	0.02386
406.30295	0.02392
405.01718	0.02399
403.73141	0.02406
402.44564	0.02418
401.15987	0.02434
399.87411	0.02456
