3997.45528	-0.01127
3996.16951	-0.01183
3994.88374	-0.01196
3993.59798	-0.01149
3992.31221	-0.01059
3991.02644	-0.00965
3989.74067	-0.00897
3988.45490	-0.00862
3987.16913	-0.00844
3985.88336	-0.00829
3984.59759	-0.00814
3983.31183	-0.00804
3982.02606	-0.00797
3980.74029	-0.00793
3979.45452	-0.00788
3978.16875	-0.00770
3976.88298	-0.00734
3975.59721	-0.00694
3974.31144	-0.00672
3973.02567	-0.00673
3971.73991	-0.00682
3970.45414	-0.00686
3969.16837	-0.00695
3967.88260	-0.00720
3966.59683	-0.00753
3965.31106	-0.00771
3964.02529	-0.00768
3962.73952	-0.00751
3961.45376	-0.00720
3960.16799	-0.00664
3958.88222	-0.00596
3957.59645	-0.00555
3956.31068	-0.00574
3955.02491	-0.00645
3953.73914	-0.00727
3952.45337	-0.00782
3951.16760	-0.00798
3949.88184	-0.00790
3948.59607	-0.00773
3947.31030	-0.00753
3946.02453	-0.00725
3944.73876	-0.00688
3943.45299	-0.00658
3942.16722	-0.00649
3940.88145	-0.00662
3939.59569	-0.00679
3938.30992	-0.00679
3937.02415	-0.00653
3935.73838	-0.00609
3934.45261	-0.00577
3933.16684	-0.00589
3931.88107	-0.00651
3930.59530	-0.00735
3929.30953	-0.00802
3928.02377	-0.00824
3926.73800	-0.00796
3925.45223	-0.00726
3924.16646	-0.00632
3922.88069	-0.00547
3921.59492	-0.00503
3920.30915	-0.00519
3919.02338	-0.00571
3917.73762	-0.00611
3916.45185	-0.00607
3915.16608	-0.00568
3913.88031	-0.00523
3912.59454	-0.00504
3911.30877	-0.00524
3910.02300	-0.00572
3908.73723	-0.00622
3907.45146	-0.00639
3906.16570	-0.00605
3904.87993	-0.00538
3903.59416	-0.00480
3902.30839	-0.00453
3901.02262	-0.00439
3899.73685	-0.00416
3898.45108	-0.00384
3897.16531	-0.00355
3895.87955	-0.00338
3894.59378	-0.00346
3893.30801	-0.00387
3892.02224	-0.00451
3890.73647	-0.00495
3889.45070	-0.00471
3888.16493	-0.00387
3886.87916	-0.00325
3885.59339	-0.00364
3884.30763	-0.00478
3883.02186	-0.00573
3881.73609	-0.00608
3880.45032	-0.00620
3879.16455	-0.00636
3877.87878	-0.00628
3876.59301	-0.00567
3875.30724	-0.00471
3874.02148	-0.00369
3872.73571	-0.00274
3871.44994	-0.00198
3870.16417	-0.00172
3868.87840	-0.00197
3867.59263	-0.00222
3866.30686	-0.00220
3865.02109	-0.00224
3863.73532	-0.00252
3862.44956	-0.00278
3861.16379	-0.00285
3859.87802	-0.00289
3858.59225	-0.00284
3857.30648	-0.00241
3856.02071	-0.00157
3854.73494	-0.00088
3853.44917	-0.00099
3852.16341	-0.00176
3850.87764	-0.00244
3849.59187	-0.00276
3848.30610	-0.00303
3847.02033	-0.00351
3845.73456	-0.00421
3844.44879	-0.00487
3843.16302	-0.00520
3841.87725	-0.00491
3840.59149	-0.00406
3839.30572	-0.00326
3838.01995	-0.00329
3836.73418	-0.00430
3835.44841	-0.00546
3834.16264	-0.00587
3832.87687	-0.00534
3831.59110	-0.00441
3830.30534	-0.00360
3829.01957	-0.00311
3827.73380	-0.00284
3826.44803	-0.00271
3825.16226	-0.00265
3823.87649	-0.00262
3822.59072	-0.00280
3821.30495	-0.00333
3820.01918	-0.00389
3818.73342	-0.00390
3817.44765	-0.00341
3816.16188	-0.00321
3814.87611	-0.00360
3813.59034	-0.00387
3812.30457	-0.00334
3811.01880	-0.00228
3809.73303	-0.00134
3808.44726	-0.00101
3807.16150	-0.00147
3805.87573	-0.00242
3804.58996	-0.00309
3803.30419	-0.00309
3802.01842	-0.00279
3800.73265	-0.00267
3799.44688	-0.00252
3798.16111	-0.00201
3796.87535	-0.00154
3795.58958	-0.00163
3794.30381	-0.00207
3793.01804	-0.00224
3791.73227	-0.00192
3790.44650	-0.00151
3789.16073	-0.00151
3787.87496	-0.00201
3786.58919	-0.00268
3785.30343	-0.00306
3784.01766	-0.00292
3782.73189	-0.00237
3781.44612	-0.00176
3780.16035	-0.00150
3778.87458	-0.00175
3777.58881	-0.00224
3776.30304	-0.00263
3775.01728	-0.00280
3773.73151	-0.00286
3772.44574	-0.00287
3771.15997	-0.00288
3769.87420	-0.00290
3768.58843	-0.00290
3767.30266	-0.00289
3766.01689	-0.00304
3764.73112	-0.00337
3763.44536	-0.00343
3762.15959	-0.00278
3760.87382	-0.00169
3759.58805	-0.00102
3758.30228	-0.00128
3757.01651	-0.00214
3755.73074	-0.00277
3754.44497	-0.00269
3753.15921	-0.00225
3751.87344	-0.00227
3750.58767	-0.00295
3749.30190	-0.00367
3748.01613	-0.00363
3746.73036	-0.00261
3745.44459	-0.00142
3744.15882	-0.00114
3742.87305	-0.00168
3741.58729	-0.00204
3740.30152	-0.00194
3739.01575	-0.00191
3737.72998	-0.00226
3736.44421	-0.00274
3735.15844	-0.00298
3733.87267	-0.00274
3732.58690	-0.00225
3731.30114	-0.00192
3730.01537	-0.00188
3728.72960	-0.00192
3727.44383	-0.00194
3726.15806	-0.00210
3724.87229	-0.00241
3723.58652	-0.00269
3722.30075	-0.00280
3721.01498	-0.00278
3719.72922	-0.00273
3718.44345	-0.00273
3717.15768	-0.00274
3715.87191	-0.00260
3714.58614	-0.00223
3713.30037	-0.00190
3712.01460	-0.00206
3710.72883	-0.00272
3709.44307	-0.00336
3708.15730	-0.00347
3706.87153	-0.00310
3705.58576	-0.00266
3704.29999	-0.00251
3703.01422	-0.00268
3701.72845	-0.00290
3700.44268	-0.00284
3699.15691	-0.00240
3697.87115	-0.00179
3696.58538	-0.00127
3695.29961	-0.00092
3694.01384	-0.00069
3692.72807	-0.00063
3691.44230	-0.00085
3690.15653	-0.00136
3688.87076	-0.00212
3687.58500	-0.00295
3686.29923	-0.00339
3685.01346	-0.00317
3683.72769	-0.00264
3682.44192	-0.00228
3681.15615	-0.00205
3679.87038	-0.00148
3678.58461	-0.00033
3677.29884	0.00086
3676.01308	0.00106
3674.72731	-0.00012
3673.44154	-0.00169
3672.15577	-0.00247
3670.87000	-0.00249
3669.58423	-0.00252
3668.29846	-0.00271
3667.01269	-0.00267
3665.72693	-0.00220
3664.44116	-0.00157
3663.15539	-0.00112
3661.86962	-0.00103
3660.58385	-0.00114
3659.29808	-0.00110
3658.01231	-0.00084
3656.72654	-0.00064
3655.44077	-0.00066
3654.15501	-0.00062
3652.86924	-0.00017
3651.58347	0.00053
3650.29770	0.00101
3649.01193	0.00106
3647.72616	0.00079
3646.44039	0.00031
3645.15462	-0.00029
3643.86886	-0.00090
3642.58309	-0.00130
3641.29732	-0.00130
3640.01155	-0.00094
3638.72578	-0.00044
3637.44001	0.00001
3636.15424	0.00037
3634.86847	0.00070
3633.58270	0.00106
3632.29694	0.00151
3631.01117	0.00189
3629.72540	0.00179
3628.43963	0.00091
3627.15386	-0.00032
3625.86809	-0.00107
3624.58232	-0.00106
3623.29655	-0.00069
3622.01079	-0.00028
3620.72502	0.00018
3619.43925	0.00075
3618.15348	0.00139
3616.86771	0.00195
3615.58194	0.00230
3614.29617	0.00243
3613.01040	0.00240
3611.72463	0.00232
3610.43887	0.00229
3609.15310	0.00236
3607.86733	0.00254
3606.58156	0.00281
3605.29579	0.00296
3604.01002	0.00274
3602.72425	0.00216
3601.43848	0.00157
3600.15272	0.00128
3598.86695	0.00138
3597.58118	0.00178
3596.29541	0.00238
3595.00964	0.00301
3593.72387	0.00349
3592.43810	0.00375
3591.15233	0.00396
3589.86656	0.00430
3588.58080	0.00464
3587.29503	0.00465
3586.00926	0.00417
3584.72349	0.00341
3583.43772	0.00272
3582.15195	0.00234
3580.86618	0.00231
3579.58041	0.00259
3578.29464	0.00306
3577.00888	0.00355
3575.72311	0.00392
3574.43734	0.00411
3573.15157	0.00415
3571.86580	0.00412
3570.58003	0.00422
3569.29426	0.00460
3568.00849	0.00526
3566.72273	0.00595
3565.43696	0.00634
3564.15119	0.00621
3562.86542	0.00558
3561.57965	0.00477
3560.29388	0.00428
3559.00811	0.00446
3557.72234	0.00512
3556.43657	0.00584
3555.15081	0.00632
3553.86504	0.00649
3552.57927	0.00637
3551.29350	0.00606
3550.00773	0.00581
3548.72196	0.00585
3547.43619	0.00618
3546.15042	0.00663
3544.86466	0.00701
3543.57889	0.00720
3542.29312	0.00711
3541.00735	0.00674
3539.72158	0.00621
3538.43581	0.00577
3537.15004	0.00563
3535.86427	0.00573
3534.57850	0.00595
3533.29274	0.00624
3532.00697	0.00667
3530.72120	0.00719
3529.43543	0.00759
3528.14966	0.00767
3526.86389	0.00751
3525.57812	0.00733
3524.29235	0.00727
3523.00659	0.00727
3521.72082	0.00724
3520.43505	0.00727
3519.14928	0.00754
3517.86351	0.00808
3516.57774	0.00872
3515.29197	0.00927
3514.00620	0.00965
3512.72043	0.00982
3511.43467	0.00968
3510.14890	0.00925
3508.86313	0.00868
3507.57736	0.00831
3506.29159	0.00829
3505.00582	0.00844
3503.72005	0.00847
3502.43428	0.00827
3501.14852	0.00807
3499.86275	0.00817
3498.57698	0.00852
3497.29121	0.00876
3496.00544	0.00871
3494.71967	0.00856
3493.43390	0.00863
3492.14813	0.00901
3490.86236	0.00957
3489.57660	0.01011
3488.29083	0.01048
3487.00506	0.01058
3485.71929	0.01036
3484.43352	0.00992
3483.14775	0.00947
3481.86198	0.00923
3480.57621	0.00926
3479.29045	0.00943
3478.00468	0.00953
3476.71891	0.00945
3475.43314	0.00928
3474.14737	0.00913
3472.86160	0.00907
3471.57583	0.00908
3470.29006	0.00912
3469.00429	0.00932
3467.71853	0.00986
3466.43276	0.01066
3465.14699	0.01140
3463.86122	0.01173
3462.57545	0.01167
3461.28968	0.01151
3460.00391	0.01151
3458.71814	0.01173
3457.43238	0.01215
3456.14661	0.01263
3454.86084	0.01299
3453.57507	0.01304
3452.28930	0.01278
3451.00353	0.01248
3449.71776	0.01246
3448.43199	0.01275
3447.14622	0.01305
3445.86046	0.01297
3444.57469	0.01239
3443.28892	0.01155
3442.00315	0.01077
3440.71738	0.01029
3439.43161	0.01016
3438.14584	0.01034
3436.86007	0.01066
3435.57431	0.01090
3434.28854	0.01096
3433.00277	0.01093
3431.71700	0.01096
3430.43123	0.01116
3429.14546	0.01152
3427.85969	0.01203
3426.57392	0.01267
3425.28815	0.01332
3424.00239	0.01375
3422.71662	0.01374
3421.43085	0.01334
3420.14508	0.01280
3418.85931	0.01238
3417.57354	0.01210
3416.28777	0.01183
3415.00200	0.01155
3413.71624	0.01139
3412.43047	0.01148
3411.14470	0.01183
3409.85893	0.01236
3408.57316	0.01293
3407.28739	0.01334
3406.00162	0.01344
3404.71585	0.01332
3403.43008	0.01332
3402.14432	0.01372
3400.85855	0.01439
3399.57278	0.01491
3398.28701	0.01495
3397.00124	0.01456
3395.71547	0.01407
3394.42970	0.01382
3393.14393	0.01389
3391.85817	0.01406
3390.57240	0.01412
3389.28663	0.01405
3388.00086	0.01397
3386.71509	0.01401
3385.42932	0.01421
3384.14355	0.01457
3382.85778	0.01502
3381.57201	0.01537
3380.28625	0.01543
3379.00048	0.01520
3377.71471	0.01481
3376.42894	0.01447
3375.14317	0.01434
3373.85740	0.01441
3372.57163	0.01459
3371.28586	0.01484
3370.00010	0.01519
3368.71433	0.01564
3367.42856	0.01597
3366.14279	0.01591
3364.85702	0.01545
3363.57125	0.01490
3362.28548	0.01455
3360.99971	0.01452
3359.71394	0.01472
3358.42818	0.01498
3357.14241	0.01518
3355.85664	0.01531
3354.57087	0.01542
3353.28510	0.01560
3351.99933	0.01581
3350.71356	0.01596
3349.42779	0.01600
3348.14202	0.01599
3346.85626	0.01596
3345.57049	0.01581
3344.28472	0.01548
3342.99895	0.01504
3341.71318	0.01472
3340.42741	0.01460
3339.14164	0.01461
3337.85587	0.01460
3336.57011	0.01451
3335.28434	0.01428
3333.99857	0.01395
3332.71280	0.01370
3331.42703	0.01378
3330.14126	0.01427
3328.85549	0.01490
3327.56972	0.01532
3326.28395	0.01541
3324.99819	0.01531
3323.71242	0.01517
3322.42665	0.01502
3321.14088	0.01485
3319.85511	0.01471
3318.56934	0.01467
3317.28357	0.01475
3315.99780	0.01500
3314.71204	0.01544
3313.42627	0.01607
3312.14050	0.01668
3310.85473	0.01700
3309.56896	0.01690
3308.28319	0.01648
3306.99742	0.01598
3305.71165	0.01558
3304.42588	0.01532
3303.14012	0.01518
3301.85435	0.01513
3300.56858	0.01519
3299.28281	0.01537
3297.99704	0.01558
3296.71127	0.01567
3295.42550	0.01558
3294.13973	0.01537
3292.85397	0.01522
3291.56820	0.01527
3290.28243	0.01558
3288.99666	0.01600
3287.71089	0.01625
3286.42512	0.01613
3285.13935	0.01578
3283.85358	0.01551
3282.56781	0.01551
3281.28205	0.01571
3279.99628	0.01587
3278.71051	0.01585
3277.42474	0.01560
3276.13897	0.01523
3274.85320	0.01491
3273.56743	0.01479
3272.28166	0.01491
3270.99590	0.01513
3269.71013	0.01522
3268.42436	0.01504
3267.13859	0.01468
3265.85282	0.01445
3264.56705	0.01459
3263.28128	0.01503
3261.99551	0.01545
3260.70974	0.01559
3259.42398	0.01551
3258.13821	0.01538
3256.85244	0.01531
3255.56667	0.01527
3254.28090	0.01522
3252.99513	0.01521
3251.70936	0.01534
3250.42359	0.01562
3249.13783	0.01597
3247.85206	0.01630
3246.56629	0.01657
3245.28052	0.01677
3243.99475	0.01681
3242.70898	0.01663
3241.42321	0.01632
3240.13744	0.01605
3238.85167	0.01593
3237.56591	0.01586
3236.28014	0.01572
3234.99437	0.01556
3233.70860	0.01551
3232.42283	0.01556
3231.13706	0.01557
3229.85129	0.01545
3228.56552	0.01537
3227.27976	0.01548
3225.99399	0.01576
3224.70822	0.01600
3223.42245	0.01606
3222.13668	0.01601
3220.85091	0.01596
3219.56514	0.01588
3218.27937	0.01561
3216.99360	0.01518
3215.70784	0.01484
3214.42207	0.01479
3213.13630	0.01493
3211.85053	0.01501
3210.56476	0.01496
3209.27899	0.01492
3207.99322	0.01504
3206.70745	0.01530
3205.42169	0.01559
3204.13592	0.01582
3202.85015	0.01594
3201.56438	0.01592
3200.27861	0.01570
3198.99284	0.01534
3197.70707	0.01491
3196.42130	0.01450
3195.13553	0.01421
3193.84977	0.01414
3192.56400	0.01437
3191.27823	0.01489
3189.99246	0.01556
3188.70669	0.01614
3187.42092	0.01638
3186.13515	0.01621
3184.84938	0.01579
3183.56362	0.01543
3182.27785	0.01529
3180.99208	0.01524
3179.70631	0.01506
3178.42054	0.01468
3177.13477	0.01420
3175.84900	0.01379
3174.56323	0.01360
3173.27746	0.01370
3171.99170	0.01406
3170.70593	0.01459
3169.42016	0.01511
3168.13439	0.01546
3166.84862	0.01551
3165.56285	0.01532
3164.27708	0.01505
3162.99131	0.01495
3161.70555	0.01516
3160.41978	0.01556
3159.13401	0.01580
3157.84824	0.01564
3156.56247	0.01521
3155.27670	0.01487
3153.99093	0.01488
3152.70516	0.01518
3151.41939	0.01555
3150.13363	0.01577
3148.84786	0.01576
3147.56209	0.01559
3146.27632	0.01541
3144.99055	0.01532
3143.70478	0.01532
3142.41901	0.01530
3141.13324	0.01513
3139.84748	0.01480
3138.56171	0.01444
3137.27594	0.01425
3135.99017	0.01434
3134.70440	0.01466
3133.41863	0.01497
3132.13286	0.01503
3130.84709	0.01481
3129.56132	0.01454
3128.27556	0.01450
3126.98979	0.01473
3125.70402	0.01501
3124.41825	0.01510
3123.13248	0.01497
3121.84671	0.01475
3120.56094	0.01461
3119.27517	0.01464
3117.98940	0.01486
3116.70364	0.01525
3115.41787	0.01568
3114.13210	0.01597
3112.84633	0.01605
3111.56056	0.01599
3110.27479	0.01589
3108.98902	0.01570
3107.70325	0.01542
3106.41749	0.01519
3105.13172	0.01522
3103.84595	0.01549
3102.56018	0.01586
3101.27441	0.01614
3099.98864	0.01624
3098.70287	0.01610
3097.41710	0.01578
3096.13133	0.01545
3094.84557	0.01526
3093.55980	0.01523
3092.27403	0.01530
3090.98826	0.01542
3089.70249	0.01551
3088.41672	0.01548
3087.13095	0.01528
3085.84518	0.01497
3084.55942	0.01475
3083.27365	0.01482
3081.98788	0.01520
3080.70211	0.01567
3079.41634	0.01594
3078.13057	0.01590
3076.84480	0.01568
3075.55903	0.01546
3074.27326	0.01533
3072.98750	0.01523
3071.70173	0.01514
3070.41596	0.01511
3069.13019	0.01519
3067.84442	0.01531
3066.55865	0.01536
3065.27288	0.01534
3063.98711	0.01533
3062.70135	0.01539
3061.41558	0.01548
3060.12981	0.01554
3058.84404	0.01551
3057.55827	0.01538
3056.27250	0.01513
3054.98673	0.01481
3053.70096	0.01455
3052.41519	0.01452
3051.12943	0.01482
3049.84366	0.01528
3048.55789	0.01559
3047.27212	0.01562
3045.98635	0.01542
3044.70058	0.01513
3043.41481	0.01482
3042.12904	0.01451
3040.84328	0.01423
3039.55751	0.01408
3038.27174	0.01406
3036.98597	0.01408
3035.70020	0.01405
3034.41443	0.01400
3033.12866	0.01400
3031.84289	0.01413
3030.55712	0.01435
3029.27136	0.01455
3027.98559	0.01462
3026.69982	0.01458
3025.41405	0.01449
3024.12828	0.01440
3022.84251	0.01433
3021.55674	0.01425
3020.27097	0.01420
3018.98521	0.01424
3017.69944	0.01442
3016.41367	0.01470
3015.12790	0.01497
3013.84213	0.01517
3012.55636	0.01527
3011.27059	0.01523
3009.98482	0.01503
3008.69905	0.01471
3007.41329	0.01447
3006.12752	0.01447
3004.84175	0.01465
3003.55598	0.01484
3002.27021	0.01487
3000.98444	0.01470
2999.69867	0.01443
2998.41290	0.01423
2997.12714	0.01415
2995.84137	0.01411
2994.55560	0.01401
2993.26983	0.01390
2991.98406	0.01390
2990.69829	0.01407
2989.41252	0.01428
2988.12675	0.01437
2986.84098	0.01423
2985.55522	0.01398
2984.26945	0.01382
2982.98368	0.01395
2981.69791	0.01435
2980.41214	0.01480
2979.12637	0.01499
2977.84060	0.01484
2976.55483	0.01448
2975.26907	0.01413
2973.98330	0.01396
2972.69753	0.01402
2971.41176	0.01424
2970.12599	0.01438
2968.84022	0.01424
2967.55445	0.01382
2966.26868	0.01338
2964.98291	0.01320
2963.69715	0.01339
2962.41138	0.01381
2961.12561	0.01423
2959.83984	0.01450
2958.55407	0.01466
2957.26830	0.01485
2955.98253	0.01518
2954.69676	0.01556
2953.41100	0.01587
2952.12523	0.01602
2950.83946	0.01606
2949.55369	0.01603
2948.26792	0.01596
2946.98215	0.01581
2945.69638	0.01557
2944.41061	0.01524
2943.12484	0.01493
2941.83908	0.01475
2940.55331	0.01472
2939.26754	0.01471
2937.98177	0.01465
2936.69600	0.01456
2935.41023	0.01450
2934.12446	0.01452
2932.83869	0.01458
2931.55293	0.01463
2930.26716	0.01465
2928.98139	0.01468
2927.69562	0.01475
2926.40985	0.01481
2925.12408	0.01481
2923.83831	0.01474
2922.55254	0.01461
2921.26677	0.01441
2919.98101	0.01422
2918.69524	0.01413
2917.40947	0.01418
2916.12370	0.01428
2914.83793	0.01428
2913.55216	0.01416
2912.26639	0.01401
2910.98062	0.01391
2909.69486	0.01394
2908.40909	0.01419
2907.12332	0.01460
2905.83755	0.01497
2904.55178	0.01512
2903.26601	0.01513
2901.98024	0.01514
2900.69447	0.01513
2899.40870	0.01495
2898.12294	0.01457
2896.83717	0.01423
2895.55140	0.01422
2894.26563	0.01453
2892.97986	0.01484
2891.69409	0.01487
2890.40832	0.01462
2889.12255	0.01441
2887.83678	0.01442
2886.55102	0.01463
2885.26525	0.01482
2883.97948	0.01481
2882.69371	0.01456
2881.40794	0.01420
2880.12217	0.01394
2878.83640	0.01390
2877.55063	0.01404
2876.26487	0.01418
2874.97910	0.01420
2873.69333	0.01406
2872.40756	0.01388
2871.12179	0.01384
2869.83602	0.01400
2868.55025	0.01427
2867.26448	0.01443
2865.97871	0.01437
2864.69295	0.01418
2863.40718	0.01400
2862.12141	0.01392
2860.83564	0.01388
2859.54987	0.01381
2858.26410	0.01366
2856.97833	0.01347
2855.69256	0.01330
2854.40680	0.01320
2853.12103	0.01323
2851.83526	0.01335
2850.54949	0.01346
2849.26372	0.01348
2847.97795	0.01340
2846.69218	0.01327
2845.40641	0.01313
2844.12064	0.01305
2842.83488	0.01311
2841.54911	0.01339
2840.26334	0.01377
2838.97757	0.01404
2837.69180	0.01407
2836.40603	0.01384
2835.12026	0.01348
2833.83449	0.01310
2832.54873	0.01282
2831.26296	0.01271
2829.97719	0.01275
2828.69142	0.01281
2827.40565	0.01281
2826.11988	0.01280
2824.83411	0.01286
2823.54834	0.01297
2822.26257	0.01306
2820.97681	0.01305
2819.69104	0.01288
2818.40527	0.01261
2817.11950	0.01232
2815.83373	0.01204
2814.54796	0.01184
2813.26219	0.01177
2811.97642	0.01189
2810.69066	0.01218
2809.40489	0.01256
2808.11912	0.01284
2806.83335	0.01291
2805.54758	0.01274
2804.26181	0.01249
2802.97604	0.01235
2801.69027	0.01235
2800.40450	0.01235
2799.11874	0.01227
2797.83297	0.01216
2796.54720	0.01214
2795.26143	0.01225
2793.97566	0.01243
2792.68989	0.01259
2791.40412	0.01266
2790.11835	0.01261
2788.83259	0.01251
2787.54682	0.01244
2786.26105	0.01242
2784.97528	0.01240
2783.68951	0.01237
2782.40374	0.01237
2781.11797	0.01238
2779.83220	0.01227
2778.54643	0.01203
2777.26067	0.01183
2775.97490	0.01188
2774.68913	0.01213
2773.40336	0.01242
2772.11759	0.01263
2770.83182	0.01269
2769.54605	0.01254
2768.26028	0.01218
2766.97452	0.01183
2765.68875	0.01178
2764.40298	0.01212
2763.11721	0.01262
2761.83144	0.01300
2760.54567	0.01308
2759.25990	0.01290
2757.97413	0.01262
2756.68836	0.01242
2755.40260	0.01235
2754.11683	0.01230
2752.83106	0.01220
2751.54529	0.01204
2750.25952	0.01187
2748.97375	0.01174
2747.68798	0.01168
2746.40221	0.01169
2745.11645	0.01175
2743.83068	0.01180
2742.54491	0.01177
2741.25914	0.01169
2739.97337	0.01164
2738.68760	0.01169
2737.40183	0.01186
2736.11606	0.01210
2734.83029	0.01227
2733.54453	0.01225
2732.25876	0.01207
2730.97299	0.01192
2729.68722	0.01195
2728.40145	0.01213
2727.11568	0.01224
2725.82991	0.01213
2724.54414	0.01183
2723.25838	0.01150
2721.97261	0.01127
2720.68684	0.01109
2719.40107	0.01092
2718.11530	0.01080
2716.82953	0.01085
2715.54376	0.01105
2714.25799	0.01129
2712.97222	0.01151
2711.68646	0.01169
2710.40069	0.01187
2709.11492	0.01204
2707.82915	0.01216
2706.54338	0.01218
2705.25761	0.01208
2703.97184	0.01192
2702.68607	0.01179
2701.40031	0.01175
2700.11454	0.01176
2698.82877	0.01180
2697.54300	0.01187
2696.25723	0.01196
2694.97146	0.01201
2693.68569	0.01191
2692.39992	0.01163
2691.11415	0.01126
2689.82839	0.01091
2688.54262	0.01067
2687.25685	0.01059
2685.97108	0.01072
2684.68531	0.01099
2683.39954	0.01126
2682.11377	0.01141
2680.82800	0.01140
2679.54224	0.01127
2678.25647	0.01110
2676.97070	0.01095
2675.68493	0.01088
2674.39916	0.01092
2673.11339	0.01107
2671.82762	0.01125
2670.54185	0.01132
2669.25608	0.01123
2667.97032	0.01110
2666.68455	0.01108
2665.39878	0.01126
2664.11301	0.01160
2662.82724	0.01196
2661.54147	0.01218
2660.25570	0.01223
2658.96993	0.01222
2657.68417	0.01229
2656.39840	0.01243
2655.11263	0.01247
2653.82686	0.01231
2652.54109	0.01196
2651.25532	0.01156
2649.96955	0.01130
2648.68378	0.01130
2647.39801	0.01157
2646.11225	0.01195
2644.82648	0.01226
2643.54071	0.01238
2642.25494	0.01234
2640.96917	0.01225
2639.68340	0.01221
2638.39763	0.01221
2637.11186	0.01215
2635.82609	0.01195
2634.54033	0.01166
2633.25456	0.01138
2631.96879	0.01121
2630.68302	0.01115
2629.39725	0.01110
2628.11148	0.01098
2626.82571	0.01077
2625.53994	0.01058
2624.25418	0.01050
2622.96841	0.01054
2621.68264	0.01065
2620.39687	0.01082
2619.11110	0.01100
2617.82533	0.01114
2616.53956	0.01114
2615.25379	0.01098
2613.96802	0.01076
2612.68226	0.01062
2611.39649	0.01066
2610.11072	0.01082
2608.82495	0.01095
2607.53918	0.01092
2606.25341	0.01076
2604.96764	0.01064
2603.68187	0.01060
2602.39611	0.01048
2601.11034	0.01017
2599.82457	0.00975
2598.53880	0.00944
2597.25303	0.00937
2595.96726	0.00947
2594.68149	0.00965
2593.39572	0.00984
2592.10995	0.00997
2590.82419	0.00995
2589.53842	0.00977
2588.25265	0.00950
2586.96688	0.00921
2585.68111	0.00902
2584.39534	0.00891
2583.10957	0.00875
2581.82380	0.00840
2580.53804	0.00803
2579.25227	0.00791
2577.96650	0.00816
2576.68073	0.00864
2575.39496	0.00906
2574.10919	0.00921
2572.82342	0.00901
2571.53765	0.00859
2570.25188	0.00821
2568.96612	0.00803
2567.68035	0.00796
2566.39458	0.00783
2565.10881	0.00764
2563.82304	0.00758
2562.53727	0.00778
2561.25150	0.00810
2559.96573	0.00823
2558.67997	0.00808
2557.39420	0.00788
2556.10843	0.00789
2554.82266	0.00816
2553.53689	0.00856
2552.25112	0.00888
2550.96535	0.00900
2549.67958	0.00892
2548.39381	0.00874
2547.10805	0.00856
2545.82228	0.00834
2544.53651	0.00808
2543.25074	0.00786
2541.96497	0.00780
2540.67920	0.00797
2539.39343	0.00824
2538.10766	0.00837
2536.82190	0.00816
2535.53613	0.00768
2534.25036	0.00725
2532.96459	0.00709
2531.67882	0.00716
2530.39305	0.00723
2529.10728	0.00716
2527.82151	0.00701
2526.53574	0.00699
2525.24998	0.00723
2523.96421	0.00761
2522.67844	0.00789
2521.39267	0.00792
2520.10690	0.00778
2518.82113	0.00773
2517.53536	0.00789
2516.24959	0.00816
2514.96383	0.00832
2513.67806	0.00829
2512.39229	0.00820
2511.10652	0.00810
2509.82075	0.00790
2508.53498	0.00760
2507.24921	0.00740
2505.96344	0.00748
2504.67767	0.00784
2503.39191	0.00829
2502.10614	0.00859
2500.82037	0.00859
2499.53460	0.00830
2498.24883	0.00789
2496.96306	0.00755
2495.67729	0.00730
2494.39152	0.00720
2493.10576	0.00736
2491.81999	0.00780
2490.53422	0.00830
2489.24845	0.00854
2487.96268	0.00837
2486.67691	0.00799
2485.39114	0.00765
2484.10537	0.00743
2482.81960	0.00727
2481.53384	0.00712
2480.24807	0.00705
2478.96230	0.00711
2477.67653	0.00724
2476.39076	0.00736
2475.10499	0.00738
2473.81922	0.00728
2472.53345	0.00711
2471.24769	0.00698
2469.96192	0.00695
2468.67615	0.00701
2467.39038	0.00715
2466.10461	0.00739
2464.81884	0.00766
2463.53307	0.00781
2462.24730	0.00783
2460.96153	0.00794
2459.67577	0.00833
2458.39000	0.00880
2457.10423	0.00896
2455.81846	0.00867
2454.53269	0.00823
2453.24692	0.00802
2451.96115	0.00808
2450.67538	0.00820
2449.38962	0.00825
2448.10385	0.00828
2446.81808	0.00830
2445.53231	0.00820
2444.24654	0.00796
2442.96077	0.00774
2441.67500	0.00766
2440.38923	0.00764
2439.10346	0.00749
2437.81770	0.00719
2436.53193	0.00695
2435.24616	0.00699
2433.96039	0.00733
2432.67462	0.00776
2431.38885	0.00807
2430.10308	0.00815
2428.81731	0.00802
2427.53155	0.00775
2426.24578	0.00749
2424.96001	0.00730
2423.67424	0.00718
2422.38847	0.00710
2421.10270	0.00712
2419.81693	0.00723
2418.53116	0.00731
2417.24539	0.00726
2415.95963	0.00708
2414.67386	0.00682
2413.38809	0.00650
2412.10232	0.00616
2410.81655	0.00599
2409.53078	0.00607
2408.24501	0.00635
2406.95924	0.00668
2405.67347	0.00695
2404.38771	0.00713
2403.10194	0.00717
2401.81617	0.00703
2400.53040	0.00676
2399.24463	0.00642
2397.95886	0.00633
2396.67309	0.00646
2395.38732	0.00664
2394.10156	0.00674
2392.81579	0.00677
2391.53002	0.00675
2390.24425	0.00668
2388.95848	0.00655
2387.67271	0.00639
2386.38694	0.00624
2385.10117	0.00613
2383.81540	0.00611
2382.52964	0.00618
2381.24387	0.00632
2379.95810	0.00652
2378.67233	0.00673
2377.38656	0.00694
2376.10079	0.00706
2374.81502	0.00696
2373.52925	0.00661
2372.24349	0.00624
2370.95772	0.00602
2369.67195	0.00586
2368.38618	0.00566
2367.10041	0.00541
2365.81464	0.00515
2364.52887	0.00495
2363.24310	0.00483
2361.95733	0.00478
2360.67157	0.00479
2359.38580	0.00482
2358.10003	0.00493
2356.81426	0.00520
2355.52849	0.00563
2354.24272	0.00619
2352.95695	0.00678
2351.67118	0.00724
2350.38542	0.00751
2349.09965	0.00757
2347.81388	0.00742
2346.52811	0.00724
2345.24234	0.00723
2343.95657	0.00744
2342.67080	0.00768
2341.38503	0.00762
2340.09926	0.00729
2338.81350	0.00684
2337.52773	0.00643
2336.24196	0.00617
2334.95619	0.00613
2333.67042	0.00616
2332.38465	0.00613
2331.09888	0.00590
2329.81311	0.00582
2328.52735	0.00608
2327.24158	0.00676
2325.95581	0.00786
2324.67004	0.00900
2323.38427	0.00990
2322.09850	0.01036
2320.81273	0.01052
2319.52696	0.01055
2318.24119	0.01052
2316.95543	0.01045
2315.66966	0.01036
2314.38389	0.01027
2313.09812	0.01012
2311.81235	0.00992
2310.52658	0.00968
2309.24081	0.00937
2307.95504	0.00899
2306.66928	0.00856
2305.38351	0.00817
2304.09774	0.00790
2302.81197	0.00781
2301.52620	0.00793
2300.24043	0.00815
2298.95466	0.00831
2297.66889	0.00829
2296.38312	0.00810
2295.09736	0.00791
2293.81159	0.00784
2292.52582	0.00789
2291.24005	0.00802
2289.95428	0.00822
2288.66851	0.00847
2287.38274	0.00874
2286.09697	0.00897
2284.81121	0.00909
2283.52544	0.00903
2282.23967	0.00879
2280.95390	0.00846
2279.66813	0.00816
2278.38236	0.00801
2277.09659	0.00811
2275.81082	0.00841
2274.52505	0.00877
2273.23929	0.00896
2271.95352	0.00895
2270.66775	0.00879
2269.38198	0.00858
2268.09621	0.00831
2266.81044	0.00793
2265.52467	0.00744
2264.23890	0.00689
2262.95314	0.00641
2261.66737	0.00622
2260.38160	0.00641
2259.09583	0.00687
2257.81006	0.00722
2256.52429	0.00714
2255.23852	0.00665
2253.95275	0.00605
2252.66698	0.00551
2251.38122	0.00497
2250.09545	0.00460
2248.80968	0.00471
2247.52391	0.00475
2246.23814	0.00535
2244.95237	0.00622
2243.66660	0.00688
2242.38083	0.00694
2241.09507	0.00641
2239.80930	0.00576
2238.52353	0.00539
2237.23776	0.00523
2235.95199	0.00491
2234.66622	0.00443
2233.38045	0.00417
2232.09468	0.00440
2230.80891	0.00494
2229.52315	0.00536
2228.23738	0.00537
2226.95161	0.00491
2225.66584	0.00411
2224.38007	0.00319
2223.09430	0.00240
2221.80853	0.00191
2220.52276	0.00185
2219.23700	0.00222
2217.95123	0.00288
2216.66546	0.00356
2215.37969	0.00418
2214.09392	0.00479
2212.80815	0.00531
2211.52238	0.00537
2210.23661	0.00481
2208.95084	0.00403
2207.66508	0.00373
2206.37931	0.00411
2205.09354	0.00462
2203.80777	0.00458
2202.52200	0.00388
2201.23623	0.00306
2199.95046	0.00263
2198.66469	0.00264
2197.37893	0.00273
2196.09316	0.00262
2194.80739	0.00243
2193.52162	0.00252
2192.23585	0.00306
2190.95008	0.00367
2189.66431	0.00380
2188.37854	0.00334
2187.09277	0.00285
2185.80701	0.00292
2184.52124	0.00353
2183.23547	0.00404
2181.94970	0.00404
2180.66393	0.00384
2179.37816	0.00403
2178.09239	0.00460
2176.80662	0.00498
2175.52085	0.00474
2174.23509	0.00412
2172.94932	0.00349
2171.66355	0.00294
2170.37778	0.00243
2169.09201	0.00219
2167.80624	0.00249
2166.52047	0.00334
2165.23470	0.00443
2163.94894	0.00523
2162.66317	0.00504
2161.37740	0.00316
2160.09163	-0.00036
2158.80586	-0.00418
2157.52009	-0.00629
2156.23432	-0.00588
2154.94855	-0.00391
2153.66278	-0.00203
2152.37702	-0.00111
2151.09125	-0.00094
2149.80548	-0.00097
2148.51971	-0.00090
2147.23394	-0.00087
2145.94817	-0.00109
2144.66240	-0.00143
2143.37663	-0.00149
2142.09087	-0.00098
2140.80510	-0.00021
2139.51933	0.00026
2138.23356	0.00019
2136.94779	-0.00011
2135.66202	-0.00029
2134.37625	-0.00028
2133.09048	-0.00016
2131.80471	-0.00006
2130.51895	-0.00011
2129.23318	-0.00036
2127.94741	-0.00051
2126.66164	-0.00022
2125.37587	0.00050
2124.09010	0.00128
2122.80433	0.00173
2121.51856	0.00184
2120.23280	0.00191
2118.94703	0.00218
2117.66126	0.00266
2116.37549	0.00326
2115.08972	0.00387
2113.80395	0.00429
2112.51818	0.00436
2111.23241	0.00416
2109.94664	0.00396
2108.66088	0.00387
2107.37511	0.00369
2106.08934	0.00328
2104.80357	0.00282
2103.51780	0.00258
2102.23203	0.00251
2100.94626	0.00258
2099.66049	0.00565
2098.37473	0.00707
2097.08896	0.00688
2095.80319	0.00625
2094.51742	0.00550
2093.23165	0.00473
2091.94588	0.00397
2090.66011	0.00324
2089.37434	0.00256
2088.08857	0.00200
2086.80281	0.00172
2085.51704	0.00194
2084.23127	0.00275
2082.94550	0.00392
2081.65973	0.00508
2080.37396	0.00589
2079.08819	0.00632
2077.80242	0.00653
2076.51666	0.00665
2075.23089	0.00672
2073.94512	0.00679
2072.65935	0.00703
2071.37358	0.00753
2070.08781	0.00803
2068.80204	0.00814
2067.51627	0.00772
2066.23050	0.00699
2064.94474	0.00614
2063.65897	0.00516
2062.37320	0.00402
2061.08743	0.00288
2059.80166	0.00198
2058.51589	0.00141
2057.23012	0.00106
2055.94435	0.00091
2054.65859	0.00117
2053.37282	0.00216
2052.08705	0.00391
2050.80128	0.00602
2049.51551	0.00778
2048.22974	0.00866
2046.94397	0.00846
2045.65820	0.00725
2044.37243	0.00534
2043.08667	0.00331
2041.80090	0.00187
2040.51513	0.00150
2039.22936	0.00219
2037.94359	0.00355
2036.65782	0.00508
2035.37205	0.00627
2034.08628	0.00671
2032.80052	0.00626
2031.51475	0.00524
2030.22898	0.00423
2028.94321	0.00358
2027.65744	0.00314
2026.37167	0.00265
2025.08590	0.00222
2023.80013	0.00212
2022.51436	0.00243
2021.22860	0.00296
2019.94283	0.00358
2018.65706	0.00432
2017.37129	0.00515
2016.08552	0.00581
2014.79975	0.00596
2013.51398	0.00569
2012.22821	0.00556
2010.94245	0.00610
2009.65668	0.00717
2008.37091	0.00800
2007.08514	0.00790
2005.79937	0.00692
2004.51360	0.00570
2003.22783	0.00468
2001.94206	0.00385
2000.65629	0.00292
1999.37053	0.00186
1998.08476	0.00095
1996.79899	0.00054
1995.51322	0.00076
1994.22745	0.00136
1992.94168	0.00194
1991.65591	0.00229
1990.37014	0.00256
1989.08438	0.00294
1987.79861	0.00337
1986.51284	0.00374
1985.22707	0.00424
1983.94130	0.00527
1982.65553	0.00719
1981.36976	0.00996
1980.08399	0.01294
1978.79822	0.01506
1977.51246	0.01544
1976.22669	0.01406
1974.94092	0.01176
1973.65515	0.00970
1972.36938	0.00865
1971.08361	0.00864
1969.79784	0.00910
1968.51207	0.00926
1967.22631	0.00885
1965.94054	0.00815
1964.65477	0.00747
1963.36900	0.00684
1962.08323	0.00608
1960.79746	0.00524
1959.51169	0.00452
1958.22592	0.00402
1956.94015	0.00363
1955.65439	0.00327
1954.36862	0.00307
1953.08285	0.00321
1951.79708	0.00370
1950.51131	0.00435
1949.22554	0.00496
1947.93977	0.00543
1946.65400	0.00574
1945.36823	0.00597
1944.08247	0.00621
1942.79670	0.00649
1941.51093	0.00671
1940.22516	0.00669
1938.93939	0.00633
1937.65362	0.00574
1936.36785	0.00522
1935.08208	0.00504
1933.79632	0.00521
1932.51055	0.00552
1931.22478	0.00572
1929.93901	0.00574
1928.65324	0.00565
1927.36747	0.00552
1926.08170	0.00539
1924.79593	0.00528
1923.51016	0.00517
1922.22440	0.00513
1920.93863	0.00526
1919.65286	0.00561
1918.36709	0.00595
1917.08132	0.00597
1915.79555	0.00561
1914.50978	0.00516
1913.22401	0.00496
1911.93825	0.00511
1910.65248	0.00545
1909.36671	0.00578
1908.08094	0.00600
1906.79517	0.00610
1905.50940	0.00614
1904.22363	0.00613
1902.93786	0.00609
1901.65209	0.00605
1900.36633	0.00605
1899.08056	0.00611
1897.79479	0.00620
1896.50902	0.00628
1895.22325	0.00629
1893.93748	0.00617
1892.65171	0.00589
1891.36594	0.00554
1890.08018	0.00526
1888.79441	0.00512
1887.50864	0.00512
1886.22287	0.00519
1884.93710	0.00530
1883.65133	0.00545
1882.36556	0.00566
1881.07979	0.00592
1879.79402	0.00614
1878.50826	0.00625
1877.22249	0.00620
1875.93672	0.00595
1874.65095	0.00556
1873.36518	0.00522
1872.07941	0.00512
1870.79364	0.00531
1869.50787	0.00565
1868.22211	0.00594
1866.93634	0.00610
1865.65057	0.00613
1864.36480	0.00605
1863.07903	0.00588
1861.79326	0.00567
1860.50749	0.00553
1859.22172	0.00551
1857.93595	0.00562
1856.65019	0.00581
1855.36442	0.00597
1854.07865	0.00603
1852.79288	0.00599
1851.50711	0.00593
1850.22134	0.00596
1848.93557	0.00612
1847.64980	0.00632
1846.36404	0.00644
1845.07827	0.00639
1843.79250	0.00618
1842.50673	0.00596
1841.22096	0.00584
1839.93519	0.00579
1838.64942	0.00566
1837.36365	0.00538
1836.07788	0.00510
1834.79212	0.00496
1833.50635	0.00506
1832.22058	0.00538
1830.93481	0.00579
1829.64904	0.00613
1828.36327	0.00638
1827.07750	0.00663
1825.79173	0.00693
1824.50597	0.00723
1823.22020	0.00750
1821.93443	0.00774
1820.64866	0.00785
1819.36289	0.00768
1818.07712	0.00714
1816.79135	0.00638
1815.50558	0.00566
1814.21981	0.00518
1812.93405	0.00494
1811.64828	0.00481
1810.36251	0.00469
1809.07674	0.00463
1807.79097	0.00470
1806.50520	0.00490
1805.21943	0.00515
1803.93366	0.00536
1802.64790	0.00550
1801.36213	0.00556
1800.07636	0.00556
1798.79059	0.00561
1797.50482	0.00575
1796.21905	0.00597
1794.93328	0.00619
1793.64751	0.00636
1792.36174	0.00636
1791.07598	0.00620
1789.79021	0.00601
1788.50444	0.00596
1787.21867	0.00607
1785.93290	0.00627
1784.64713	0.00644
1783.36136	0.00655
1782.07559	0.00664
1780.78983	0.00671
1779.50406	0.00671
1778.21829	0.00663
1776.93252	0.00652
1775.64675	0.00643
1774.36098	0.00637
1773.07521	0.00626
1771.78944	0.00602
1770.50367	0.00577
1769.21791	0.00565
1767.93214	0.00563
1766.64637	0.00560
1765.36060	0.00563
1764.07483	0.00581
1762.78906	0.00607
1761.50329	0.00621
1760.21752	0.00620
1758.93176	0.00615
1757.64599	0.00611
1756.36022	0.00605
1755.07445	0.00597
1753.78868	0.00600
1752.50291	0.00614
1751.21714	0.00622
1749.93137	0.00615
1748.64560	0.00598
1747.35984	0.00589
1746.07407	0.00591
1744.78830	0.00604
1743.50253	0.00620
1742.21676	0.00634
1740.93099	0.00643
1739.64522	0.00646
1738.35945	0.00650
1737.07369	0.00673
1735.78792	0.00713
1734.50215	0.00735
1733.21638	0.00713
1731.93061	0.00665
1730.64484	0.00631
1729.35907	0.00621
1728.07330	0.00620
1726.78753	0.00618
1725.50177	0.00620
1724.21600	0.00627
1722.93023	0.00636
1721.64446	0.00650
1720.35869	0.00678
1719.07292	0.00719
1717.78715	0.00747
1716.50138	0.00744
1715.21561	0.00719
1713.92985	0.00697
1712.64408	0.00689
1711.35831	0.00696
1710.07254	0.00710
1708.78677	0.00725
1707.50100	0.00740
1706.21523	0.00754
1704.92946	0.00771
1703.64370	0.00803
1702.35793	0.00854
1701.07216	0.00896
1699.78639	0.00901
1698.50062	0.00884
1697.21485	0.00878
1695.92908	0.00880
1694.64331	0.00861
1693.35754	0.00834
1692.07178	0.00831
1690.78601	0.00855
1689.50024	0.00889
1688.21447	0.00930
1686.92870	0.00983
1685.64293	0.01034
1684.35716	0.01045
1683.07139	0.01009
1681.78563	0.00965
1680.49986	0.00951
1679.21409	0.00966
1677.92832	0.00997
1676.64255	0.01030
1675.35678	0.01051
1674.07101	0.01055
1672.78524	0.01062
1671.49947	0.01082
1670.21371	0.01101
1668.92794	0.01104
1667.64217	0.01096
1666.35640	0.01100
1665.07063	0.01127
1663.78486	0.01159
1662.49909	0.01176
1661.21332	0.01177
1659.92756	0.01175
1658.64179	0.01183
1657.35602	0.01213
1656.07025	0.01274
1654.78448	0.01352
1653.49871	0.01391
1652.21294	0.01353
1650.92717	0.01275
1649.64140	0.01231
1648.35564	0.01243
1647.06987	0.01270
1645.78410	0.01271
1644.49833	0.01251
1643.21256	0.01234
1641.92679	0.01234
1640.64102	0.01246
1639.35525	0.01267
1638.06949	0.01296
1636.78372	0.01321
1635.49795	0.01321
1634.21218	0.01291
1632.92641	0.01260
1631.64064	0.01257
1630.35487	0.01281
1629.06910	0.01311
1627.78333	0.01335
1626.49757	0.01349
1625.21180	0.01358
1623.92603	0.01356
1622.64026	0.01339
1621.35449	0.01317
1620.06872	0.01314
1618.78295	0.01338
1617.49718	0.01366
1616.21142	0.01365
1614.92565	0.01340
1613.63988	0.01321
1612.35411	0.01325
1611.06834	0.01343
1609.78257	0.01359
1608.49680	0.01370
1607.21103	0.01373
1605.92526	0.01373
1604.63950	0.01372
1603.35373	0.01376
1602.06796	0.01387
1600.78219	0.01403
1599.49642	0.01421
1598.21065	0.01435
1596.92488	0.01445
1595.63911	0.01449
1594.35335	0.01450
1593.06758	0.01453
1591.78181	0.01461
1590.49604	0.01473
1589.21027	0.01486
1587.92450	0.01495
1586.63873	0.01501
1585.35296	0.01504
1584.06719	0.01505
1582.78143	0.01505
1581.49566	0.01507
1580.20989	0.01518
1578.92412	0.01544
1577.63835	0.01575
1576.35258	0.01586
1575.06681	0.01565
1573.78104	0.01538
1572.49528	0.01537
1571.20951	0.01558
1569.92374	0.01574
1568.63797	0.01570
1567.35220	0.01556
1566.06643	0.01552
1564.78066	0.01566
1563.49489	0.01599
1562.20912	0.01657
1560.92336	0.01726
1559.63759	0.01762
1558.35182	0.01735
1557.06605	0.01674
1555.78028	0.01629
1554.49451	0.01615
1553.20874	0.01613
1551.92297	0.01612
1550.63721	0.01616
1549.35144	0.01624
1548.06567	0.01637
1546.77990	0.01658
1545.49413	0.01684
1544.20836	0.01710
1542.92259	0.01734
1541.63682	0.01752
1540.35105	0.01751
1539.06529	0.01718
1537.77952	0.01669
1536.49375	0.01639
1535.20798	0.01643
1533.92221	0.01661
1532.63644	0.01671
1531.35067	0.01674
1530.06490	0.01687
1528.77914	0.01715
1527.49337	0.01748
1526.20760	0.01778
1524.92183	0.01807
1523.63606	0.01844
1522.35029	0.01884
1521.06452	0.01910
1519.77875	0.01917
1518.49298	0.01927
1517.20722	0.01952
1515.92145	0.01984
1514.63568	0.02017
1513.34991	0.02054
1512.06414	0.02099
1510.77837	0.02158
1509.49260	0.02235
1508.20683	0.02321
1506.92107	0.02382
1505.63530	0.02396
1504.34953	0.02383
1503.06376	0.02388
1501.77799	0.02425
1500.49222	0.02482
1499.20645	0.02536
1497.92068	0.02578
1496.63491	0.02603
1495.34915	0.02613
1494.06338	0.02627
1492.77761	0.02658
1491.49184	0.02702
1490.20607	0.02742
1488.92030	0.02767
1487.63453	0.02784
1486.34876	0.02799
1485.06299	0.02821
1483.77723	0.02853
1482.49146	0.02893
1481.20569	0.02934
1479.91992	0.02972
1478.63415	0.03008
1477.34838	0.03044
1476.06261	0.03082
1474.77684	0.03124
1473.49108	0.03160
1472.20531	0.03178
1470.91954	0.03179
1469.63377	0.03179
1468.34800	0.03195
1467.06223	0.03224
1465.77646	0.03249
1464.49069	0.03258
1463.20492	0.03257
1461.91916	0.03267
1460.63339	0.03305
1459.34762	0.03367
1458.06185	0.03424
1456.77608	0.03445
1455.49031	0.03427
1454.20454	0.03403
1452.91877	0.03397
1451.63301	0.03406
1450.34724	0.03415
1449.06147	0.03419
1447.77570	0.03415
1446.48993	0.03403
1445.20416	0.03389
1443.91839	0.03377
1442.63262	0.03367
1441.34685	0.03357
1440.06109	0.03355
1438.77532	0.03366
1437.48955	0.03380
1436.20378	0.03382
1434.91801	0.03374
1433.63224	0.03378
1432.34647	0.03407
1431.06070	0.03448
1429.77494	0.03485
1428.48917	0.03515
1427.20340	0.03548
1425.91763	0.03591
1424.63186	0.03645
1423.34609	0.03705
1422.06032	0.03772
1420.77455	0.03840
1419.48878	0.03892
1418.20302	0.03916
1416.91725	0.03921
1415.63148	0.03925
1414.34571	0.03934
1413.05994	0.03944
1411.77417	0.03950
1410.48840	0.03944
1409.20263	0.03925
1407.91687	0.03892
1406.63110	0.03850
1405.34533	0.03804
1404.05956	0.03757
1402.77379	0.03713
1401.48802	0.03669
1400.20225	0.03618
1398.91648	0.03553
1397.63071	0.03474
1396.34495	0.03392
1395.05918	0.03310
1393.77341	0.03226
1392.48764	0.03144
1391.20187	0.03070
1389.91610	0.03006
1388.63033	0.02944
1387.34456	0.02874
1386.05880	0.02793
1384.77303	0.02709
1383.48726	0.02631
1382.20149	0.02560
1380.91572	0.02494
1379.62995	0.02429
1378.34418	0.02363
1377.05841	0.02294
1375.77264	0.02227
1374.48688	0.02161
1373.20111	0.02097
1371.91534	0.02032
1370.62957	0.01966
1369.34380	0.01901
1368.05803	0.01838
1366.77226	0.01783
1365.48649	0.01736
1364.20073	0.01694
1362.91496	0.01649
1361.62919	0.01600
1360.34342	0.01552
1359.05765	0.01509
1357.77188	0.01472
1356.48611	0.01440
1355.20034	0.01410
1353.91457	0.01380
1352.62881	0.01349
1351.34304	0.01321
1350.05727	0.01295
1348.77150	0.01270
1347.48573	0.01246
1346.19996	0.01220
1344.91419	0.01195
1343.62842	0.01174
1342.34266	0.01159
1341.05689	0.01148
1339.77112	0.01141
1338.48535	0.01134
1337.19958	0.01127
1335.91381	0.01119
1334.62804	0.01110
1333.34227	0.01098
1332.05650	0.01084
1330.77074	0.01065
1329.48497	0.01045
1328.19920	0.01028
1326.91343	0.01017
1325.62766	0.01010
1324.34189	0.01005
1323.05612	0.01002
1321.77035	0.01002
1320.48459	0.01002
1319.19882	0.01002
1317.91305	0.01001
1316.62728	0.00999
1315.34151	0.00996
1314.05574	0.00990
1312.76997	0.00979
1311.48420	0.00966
1310.19843	0.00955
1308.91267	0.00946
1307.62690	0.00938
1306.34113	0.00933
1305.05536	0.00934
1303.76959	0.00938
1302.48382	0.00940
1301.19805	0.00936
1299.91228	0.00927
1298.62652	0.00915
1297.34075	0.00904
1296.05498	0.00892
1294.76921	0.00881
1293.48344	0.00871
1292.19767	0.00863
1290.91190	0.00857
1289.62613	0.00853
1288.34036	0.00853
1287.05460	0.00854
1285.76883	0.00857
1284.48306	0.00860
1283.19729	0.00862
1281.91152	0.00858
1280.62575	0.00848
1279.33998	0.00832
1278.05421	0.00818
1276.76845	0.00809
1275.48268	0.00804
1274.19691	0.00800
1272.91114	0.00796
1271.62537	0.00792
1270.33960	0.00788
1269.05383	0.00787
1267.76806	0.00788
1266.48229	0.00792
1265.19653	0.00798
1263.91076	0.00800
1262.62499	0.00796
1261.33922	0.00787
1260.05345	0.00777
1258.76768	0.00768
1257.48191	0.00761
1256.19614	0.00757
1254.91037	0.00757
1253.62461	0.00760
1252.33884	0.00763
1251.05307	0.00765
1249.76730	0.00765
1248.48153	0.00765
1247.19576	0.00762
1245.90999	0.00757
1244.62422	0.00750
1243.33846	0.00744
1242.05269	0.00740
1240.76692	0.00740
1239.48115	0.00743
1238.19538	0.00746
1236.90961	0.00747
1235.62384	0.00743
1234.33807	0.00737
1233.05230	0.00731
1231.76654	0.00725
1230.48077	0.00718
1229.19500	0.00710
1227.90923	0.00701
1226.62346	0.00695
1225.33769	0.00692
1224.05192	0.00689
1222.76615	0.00684
1221.48039	0.00678
1220.19462	0.00674
1218.90885	0.00671
1217.62308	0.00668
1216.33731	0.00663
1215.05154	0.00660
1213.76577	0.00660
1212.48000	0.00662
1211.19423	0.00665
1209.90847	0.00671
1208.62270	0.00680
1207.33693	0.00691
1206.05116	0.00702
1204.76539	0.00712
1203.47962	0.00720
1202.19385	0.00726
1200.90808	0.00710
1199.62232	0.00667
1198.33655	0.00665
1197.05078	0.00664
1195.76501	0.00661
1194.47924	0.00659
1193.19347	0.00660
1191.90770	0.00664
1190.62193	0.00670
1189.33616	0.00677
1188.05040	0.00680
1186.76463	0.00677
1185.47886	0.00672
1184.19309	0.00668
1182.90732	0.00669
1181.62155	0.00673
1180.33578	0.00678
1179.05001	0.00680
1177.76425	0.00681
1176.47848	0.00682
1175.19271	0.00684
1173.90694	0.00688
1172.62117	0.00694
1171.33540	0.00699
1170.04963	0.00704
1168.76386	0.00709
1167.47809	0.00714
1166.19233	0.00721
1164.90656	0.00728
1163.62079	0.00736
1162.33502	0.00746
1161.04925	0.00762
1159.76348	0.00784
1158.47771	0.00811
1157.19194	0.00840
1155.90618	0.00860
1154.62041	0.00870
1153.33464	0.00877
1152.04887	0.00893
1150.76310	0.00922
1149.47733	0.00958
1148.19156	0.00992
1146.90579	0.01024
1145.62002	0.01056
1144.33426	0.01091
1143.04849	0.01128
1141.76272	0.01166
1140.47695	0.01206
1139.19118	0.01250
1137.90541	0.01301
1136.61964	0.01364
1135.33387	0.01440
1134.04811	0.01525
1132.76234	0.01618
1131.47657	0.01718
1130.19080	0.01831
1128.90503	0.01954
1127.61926	0.02082
1126.33349	0.02208
1125.04772	0.02333
1123.76195	0.02467
1122.47619	0.02616
1121.19042	0.02778
1119.90465	0.02947
1118.61888	0.03112
1117.33311	0.03271
1116.04734	0.03427
1114.76157	0.03578
1113.47580	0.03727
1112.19004	0.03876
1110.90427	0.04028
1109.61850	0.04184
1108.33273	0.04341
1107.04696	0.04495
1105.76119	0.04644
1104.47542	0.04791
1103.18965	0.04933
1101.90388	0.05069
1100.61812	0.05192
1099.33235	0.05300
1098.04658	0.05396
1096.76081	0.05485
1095.47504	0.05575
1094.18927	0.05669
1092.90350	0.05767
1091.61773	0.05865
1090.33197	0.05960
1089.04620	0.06050
1087.76043	0.06137
1086.47466	0.06221
1085.18889	0.06308
1083.90312	0.06400
1082.61735	0.06497
1081.33158	0.06599
1080.04581	0.06709
1078.76005	0.06825
1077.47428	0.06947
1076.18851	0.07071
1074.90274	0.07197
1073.61697	0.07327
1072.33120	0.07458
1071.04543	0.07588
1069.75966	0.07717
1068.47390	0.07854
1067.18813	0.08003
1065.90236	0.08159
1064.61659	0.08317
1063.33082	0.08471
1062.04505	0.08619
1060.75928	0.08757
1059.47351	0.08881
1058.18774	0.08995
1056.90198	0.09106
1055.61621	0.09221
1054.33044	0.09344
1053.04467	0.09472
1051.75890	0.09602
1050.47313	0.09731
1049.18736	0.09861
1047.90159	0.09993
1046.61583	0.10131
1045.33006	0.10273
1044.04429	0.10415
1042.75852	0.10554
1041.47275	0.10689
1040.18698	0.10821
1038.90121	0.10953
1037.61544	0.11084
1036.32967	0.11210
1035.04391	0.11325
1033.75814	0.11428
1032.47237	0.11517
1031.18660	0.11589
1029.90083	0.11641
1028.61506	0.11675
1027.32929	0.11696
1026.04352	0.11708
1024.75775	0.11707
1023.47199	0.11687
1022.18622	0.11642
1020.90045	0.11575
1019.61468	0.11488
1018.32891	0.11383
1017.04314	0.11259
1015.75737	0.11116
1014.47160	0.10956
1013.18584	0.10779
1011.90007	0.10586
1010.61430	0.10370
1009.32853	0.10133
1008.04276	0.09879
1006.75699	0.09615
1005.47122	0.09344
1004.18545	0.09059
1002.89968	0.08756
1001.61392	0.08435
1000.32815	0.08104
999.04238	0.07775
997.75661	0.07455
996.47084	0.07143
995.18507	0.06836
993.89930	0.06532
992.61353	0.06232
991.32777	0.05940
990.04200	0.05660
988.75623	0.05398
987.47046	0.05154
986.18469	0.04923
984.89892	0.04704
983.61315	0.04500
982.32738	0.04317
981.04161	0.04150
979.75585	0.03993
978.47008	0.03846
977.18431	0.03716
975.89854	0.03607
974.61277	0.03517
973.32700	0.03447
972.04123	0.03399
970.75546	0.03370
969.46970	0.03356
968.18393	0.03353
966.89816	0.03364
965.61239	0.03394
964.32662	0.03440
963.04085	0.03487
961.75508	0.03519
960.46931	0.03526
959.18354	0.03507
957.89778	0.03462
956.61201	0.03393
955.32624	0.03306
954.04047	0.03210
952.75470	0.03110
951.46893	0.03010
950.18316	0.02911
948.89739	0.02817
947.61163	0.02728
946.32586	0.02645
945.04009	0.02568
943.75432	0.02501
942.46855	0.02442
941.18278	0.02383
939.89701	0.02324
938.61124	0.02266
937.32547	0.02212
936.03971	0.02166
934.75394	0.02128
933.46817	0.02097
932.18240	0.02069
930.89663	0.02038
929.61086	0.02000
928.32509	0.01959
927.03932	0.01921
925.75356	0.01890
924.46779	0.01864
923.18202	0.01842
921.89625	0.01822
920.61048	0.01802
919.32471	0.01781
918.03894	0.01762
916.75317	0.01746
915.46740	0.01734
914.18164	0.01723
912.89587	0.01713
911.61010	0.01703
910.32433	0.01690
909.03856	0.01673
907.75279	0.01651
906.46702	0.01626
905.18125	0.01605
903.89549	0.01593
902.60972	0.01592
901.32395	0.01594
900.03818	0.01590
898.75241	0.01578
897.46664	0.01562
896.18087	0.01551
894.89510	0.01552
893.60933	0.01565
892.32357	0.01587
891.03780	0.01609
889.75203	0.01625
888.46626	0.01634
887.18049	0.01647
885.89472	0.01678
884.60895	0.01738
883.32318	0.01834
882.03742	0.01958
880.75165	0.02089
879.46588	0.02201
878.18011	0.02282
876.89434	0.02336
875.60857	0.02380
874.32280	0.02423
873.03703	0.02459
871.75126	0.02477
870.46550	0.02466
869.17973	0.02422
867.89396	0.02355
866.60819	0.02276
865.32242	0.02191
864.03665	0.02100
862.75088	0.02007
861.46511	0.01920
860.17935	0.01849
858.89358	0.01796
857.60781	0.01755
856.32204	0.01720
855.03627	0.01687
853.75050	0.01659
852.46473	0.01637
851.17896	0.01620
849.89319	0.01606
848.60743	0.01590
847.32166	0.01571
846.03589	0.01550
844.75012	0.01535
843.46435	0.01528
842.17858	0.01525
840.89281	0.01519
839.60704	0.01508
838.32128	0.01494
837.03551	0.01482
835.74974	0.01475
834.46397	0.01474
833.17820	0.01476
831.89243	0.01480
830.60666	0.01482
829.32089	0.01480
828.03512	0.01477
826.74936	0.01475
825.46359	0.01477
824.17782	0.01478
822.89205	0.01473
821.60628	0.01462
820.32051	0.01448
819.03474	0.01437
817.74897	0.01436
816.46321	0.01444
815.17744	0.01457
813.89167	0.01468
812.60590	0.01473
811.32013	0.01471
810.03436	0.01462
808.74859	0.01447
807.46282	0.01426
806.17705	0.01410
804.89129	0.01404
803.60552	0.01407
802.31975	0.01413
801.03398	0.01416
799.74821	0.01415
798.46244	0.01412
797.17667	0.01408
795.89090	0.01403
794.60513	0.01402
793.31937	0.01405
792.03360	0.01414
790.74783	0.01430
789.46206	0.01445
788.17629	0.01449
786.89052	0.01434
785.60475	0.01407
784.31898	0.01384
783.03322	0.01376
781.74745	0.01377
780.46168	0.01379
779.17591	0.01381
777.89014	0.01386
776.60437	0.01395
775.31860	0.01405
774.03283	0.01413
772.74706	0.01414
771.46130	0.01408
770.17553	0.01397
768.88976	0.01388
767.60399	0.01385
766.31822	0.01392
765.03245	0.01406
763.74668	0.01418
762.46091	0.01424
761.17515	0.01429
759.88938	0.01439
758.60361	0.01449
757.31784	0.01450
756.03207	0.01440
754.74630	0.01429
753.46053	0.01427
752.17476	0.01438
750.88899	0.01454
749.60323	0.01466
748.31746	0.01473
747.03169	0.01476
745.74592	0.01474
744.46015	0.01467
743.17438	0.01456
741.88861	0.01445
740.60284	0.01438
739.31708	0.01434
738.03131	0.01433
736.74554	0.01437
735.45977	0.01444
734.17400	0.01446
732.88823	0.01432
731.60246	0.01408
730.31669	0.01386
729.03092	0.01375
727.74516	0.01375
726.45939	0.01378
725.17362	0.01382
723.88785	0.01374
722.60208	0.01398
721.31631	0.01431
720.03054	0.01454
718.74477	0.01467
717.45901	0.01472
716.17324	0.01471
714.88747	0.01463
713.60170	0.01451
712.31593	0.01441
711.03016	0.01436
709.74439	0.01435
708.45862	0.01433
707.17285	0.01429
705.88709	0.01423
704.60132	0.01419
703.31555	0.01419
702.02978	0.01423
700.74401	0.01432
699.45824	0.01444
698.17247	0.01460
696.88670	0.01477
695.60094	0.01492
694.31517	0.01501
693.02940	0.01504
691.74363	0.01502
690.45786	0.01500
689.17209	0.01499
687.88632	0.01500
686.60055	0.01499
685.31478	0.01491
684.02902	0.01475
682.74325	0.01452
681.45748	0.01429
680.17171	0.01413
678.88594	0.01406
677.60017	0.01403
676.31440	0.01402
675.02863	0.01402
673.74287	0.01407
672.45710	0.01416
671.17133	0.01428
669.88556	0.01439
668.59979	0.01448
667.31402	0.01456
666.02825	0.01459
664.74248	0.01453
663.45671	0.01442
662.17095	0.01435
660.88518	0.01435
659.59941	0.01438
658.31364	0.01437
657.02787	0.01430
655.74210	0.01425
654.45633	0.01423
653.17056	0.01425
651.88480	0.01428
650.59903	0.01434
649.31326	0.01445
648.02749	0.01459
646.74172	0.01474
645.45595	0.01483
644.17018	0.01487
642.88441	0.01487
641.59864	0.01488
640.31288	0.01494
639.02711	0.01506
637.74134	0.01523
636.45557	0.01544
635.16980	0.01570
633.88403	0.01593
632.59826	0.01608
631.31249	0.01660
630.02673	0.01933
628.74096	0.02348
627.45519	0.02195
626.16942	0.02677
624.88365	0.03576
623.59788	0.04387
622.31211	0.04882
621.02634	0.05005
619.74057	0.04843
618.45481	0.04554
617.16904	0.04247
615.88327	0.03970
614.59750	0.03779
613.31173	0.03764
612.02596	0.03987
610.74019	0.04416
609.45442	0.04927
608.16866	0.05398
606.88289	0.05765
605.59712	0.06010
604.31135	0.06116
603.02558	0.06064
601.73981	0.05868
600.45404	0.05583
599.16827	0.05279
597.88250	0.05007
596.59674	0.04782
595.31097	0.04602
594.02520	0.04457
592.73943	0.04347
591.45366	0.04275
590.16789	0.04243
588.88212	0.04253
587.59635	0.04300
586.31059	0.04375
585.02482	0.04467
583.73905	0.04572
582.45328	0.04688
581.16751	0.04818
579.88174	0.04959
578.59597	0.05105
577.31020	0.05246
576.02443	0.05378
574.73867	0.05508
573.45290	0.05647
572.16713	0.05802
570.88136	0.05973
569.59559	0.06156
568.30982	0.06337
567.02405	0.06498
565.73828	0.06617
564.45251	0.06677
563.16675	0.06670
561.88098	0.06593
560.59521	0.06443
559.30944	0.06223
558.02367	0.05941
556.73790	0.05617
555.45213	0.05278
554.16636	0.04945
552.88060	0.04630
551.59483	0.04340
550.30906	0.04083
549.02329	0.03867
547.73752	0.03690
546.45175	0.03539
545.16598	0.03394
543.88021	0.03246
542.59444	0.03097
541.30868	0.02955
540.02291	0.02829
538.73714	0.02720
537.45137	0.02626
536.16560	0.02544
534.87983	0.02469
533.59406	0.02398
532.30829	0.02332
531.02253	0.02273
529.73676	0.02220
528.45099	0.02169
527.16522	0.02120
525.87945	0.02078
524.59368	0.02044
523.30791	0.02014
522.02214	0.01978
520.73637	0.01932
519.45061	0.01883
518.16484	0.01842
516.87907	0.01811
515.59330	0.01787
514.30753	0.01764
513.02176	0.01736
511.73599	0.01704
510.45022	0.01672
509.16446	0.01645
507.87869	0.01622
506.59292	0.01595
505.30715	0.01563
504.02138	0.01531
502.73561	0.01508
501.44984	0.01492
500.16407	0.01474
498.87830	0.01448
497.59254	0.01416
496.30677	0.01388
495.02100	0.01370
493.73523	0.01363
492.44946	0.01366
491.16369	0.01376
489.87792	0.01384
488.59215	0.01386
487.30639	0.01383
486.02062	0.01379
484.73485	0.01378
483.44908	0.01376
482.16331	0.01372
480.87754	0.01366
479.59177	0.01361
478.30600	0.01357
477.02023	0.01357
475.73447	0.01365
474.44870	0.01382
473.16293	0.01404
471.87716	0.01425
470.59139	0.01440
469.30562	0.01447
468.01985	0.01443
466.73408	0.01429
465.44832	0.01411
464.16255	0.01395
462.87678	0.01386
461.59101	0.01381
460.30524	0.01373
459.01947	0.01362
457.73370	0.01347
456.44793	0.01329
455.16216	0.01309
453.87640	0.01289
452.59063	0.01270
451.30486	0.01254
450.01909	0.01242
448.73332	0.01236
447.44755	0.01237
446.16178	0.01241
444.87601	0.01242
443.59025	0.01233
442.30448	0.01214
441.01871	0.01194
439.73294	0.01184
438.44717	0.01185
437.16140	0.01193
435.87563	0.01202
434.58986	0.01207
433.30409	0.01207
432.01833	0.01206
430.73256	0.01209
429.44679	0.01218
428.16102	0.01228
426.87525	0.01233
425.58948	0.01231
424.30371	0.01225
423.01794	0.01220
421.73218	0.01218
420.44641	0.01219
419.16064	0.01217
417.87487	0.01209
416.58910	0.01199
415.30333	0.01194
414.01756	0.01193
412.73179	0.01194
411.44602	0.01197
410.16026	0.01200
408.87449	0.01206
407.58872	0.01214
406.30295	0.01224
405.01718	0.01234
403.73141	0.01241
402.44564	0.01245
401.15987	0.01248
399.87411	0.01253
