3997.45528	0.02764
3996.16951	0.02729
3994.88374	0.02712
3993.59798	0.02714
3992.31221	0.02721
3991.02644	0.02714
3989.74067	0.02689
3988.45490	0.02667
3987.16913	0.02680
3985.88336	0.02731
3984.59759	0.02787
3983.31183	0.02817
3982.02606	0.02822
3980.74029	0.02824
3979.45452	0.02834
3978.16875	0.02842
3976.88298	0.02843
3975.59721	0.02846
3974.31144	0.02859
3973.02567	0.02872
3971.73991	0.02861
3970.45414	0.02810
3969.16837	0.02731
3967.88260	0.02659
3966.59683	0.02634
3965.31106	0.02676
3964.02529	0.02771
3962.73952	0.02868
3961.45376	0.02913
3960.16799	0.02894
3958.88222	0.02837
3957.59645	0.02780
3956.31068	0.02745
3955.02491	0.02741
3953.73914	0.02770
3952.45337	0.02821
3951.16760	0.02871
3949.88184	0.02899
3948.59607	0.02899
3947.31030	0.02883
3946.02453	0.02868
3944.73876	0.02864
3943.45299	0.02867
3942.16722	0.02865
3940.88145	0.02851
3939.59569	0.02819
3938.30992	0.02767
3937.02415	0.02708
3935.73838	0.02676
3934.45261	0.02698
3933.16684	0.02766
3931.88107	0.02833
3930.59530	0.02847
3929.30953	0.02800
3928.02377	0.02730
3926.73800	0.02680
3925.45223	0.02656
3924.16646	0.02637
3922.88069	0.02622
3921.59492	0.02633
3920.30915	0.02687
3919.02338	0.02766
3917.73762	0.02824
3916.45185	0.02824
3915.16608	0.02780
3913.88031	0.02741
3912.59454	0.02742
3911.30877	0.02764
3910.02300	0.02764
3908.73723	0.02731
3907.45146	0.02686
3906.16570	0.02661
3904.87993	0.02669
3903.59416	0.02700
3902.30839	0.02731
3901.02262	0.02741
3899.73685	0.02725
3898.45108	0.02701
3897.16531	0.02694
3895.87955	0.02722
3894.59378	0.02776
3893.30801	0.02824
3892.02224	0.02828
3890.73647	0.02783
3889.45070	0.02719
3888.16493	0.02679
3886.87916	0.02686
3885.59339	0.02737
3884.30763	0.02810
3883.02186	0.02870
3881.73609	0.02883
3880.45032	0.02840
3879.16455	0.02771
3877.87878	0.02725
3876.59301	0.02733
3875.30724	0.02785
3874.02148	0.02840
3872.73571	0.02856
3871.44994	0.02824
3870.16417	0.02768
3868.87840	0.02729
3867.59263	0.02728
3866.30686	0.02760
3865.02109	0.02794
3863.73532	0.02809
3862.44956	0.02811
3861.16379	0.02815
3859.87802	0.02817
3858.59225	0.02791
3857.30648	0.02722
3856.02071	0.02637
3854.73494	0.02576
3853.44917	0.02554
3852.16341	0.02552
3850.87764	0.02548
3849.59187	0.02548
3848.30610	0.02563
3847.02033	0.02581
3845.73456	0.02575
3844.44879	0.02534
3843.16302	0.02479
3841.87725	0.02435
3840.59149	0.02415
3839.30572	0.02416
3838.01995	0.02433
3836.73418	0.02460
3835.44841	0.02485
3834.16264	0.02504
3832.87687	0.02527
3831.59110	0.02565
3830.30534	0.02614
3829.01957	0.02645
3827.73380	0.02642
3826.44803	0.02615
3825.16226	0.02594
3823.87649	0.02586
3822.59072	0.02583
3821.30495	0.02581
3820.01918	0.02589
3818.73342	0.02611
3817.44765	0.02635
3816.16188	0.02643
3814.87611	0.02632
3813.59034	0.02612
3812.30457	0.02598
3811.01880	0.02603
3809.73303	0.02625
3808.44726	0.02645
3807.16150	0.02638
3805.87573	0.02598
3804.58996	0.02555
3803.30419	0.02549
3802.01842	0.02589
3800.73265	0.02644
3799.44688	0.02680
3798.16111	0.02682
3796.87535	0.02655
3795.58958	0.02610
3794.30381	0.02564
3793.01804	0.02539
3791.73227	0.02543
3790.44650	0.02567
3789.16073	0.02590
3787.87496	0.02602
3786.58919	0.02592
3785.30343	0.02555
3784.01766	0.02493
3782.73189	0.02430
3781.44612	0.02399
3780.16035	0.02410
3778.87458	0.02444
3777.58881	0.02467
3776.30304	0.02468
3775.01728	0.02464
3773.73151	0.02477
3772.44574	0.02507
3771.15997	0.02530
3769.87420	0.02528
3768.58843	0.02504
3767.30266	0.02469
3766.01689	0.02431
3764.73112	0.02393
3763.44536	0.02371
3762.15959	0.02386
3760.87382	0.02446
3759.58805	0.02528
3758.30228	0.02586
3757.01651	0.02596
3755.73074	0.02585
3754.44497	0.02608
3753.15921	0.02685
3751.87344	0.02768
3750.58767	0.02790
3749.30190	0.02735
3748.01613	0.02653
3746.73036	0.02602
3745.44459	0.02601
3744.15882	0.02622
3742.87305	0.02617
3741.58729	0.02559
3740.30152	0.02471
3739.01575	0.02405
3737.72998	0.02400
3736.44421	0.02445
3735.15844	0.02495
3733.87267	0.02516
3732.58690	0.02515
3731.30114	0.02517
3730.01537	0.02536
3728.72960	0.02567
3727.44383	0.02592
3726.15806	0.02596
3724.87229	0.02565
3723.58652	0.02494
3722.30075	0.02402
3721.01498	0.02336
3719.72922	0.02342
3718.44345	0.02432
3717.15768	0.02560
3715.87191	0.02662
3714.58614	0.02697
3713.30037	0.02674
3712.01460	0.02630
3710.72883	0.02595
3709.44307	0.02564
3708.15730	0.02515
3706.87153	0.02438
3705.58576	0.02354
3704.29999	0.02297
3703.01422	0.02277
3701.72845	0.02278
3700.44268	0.02287
3699.15691	0.02318
3697.87115	0.02369
3696.58538	0.02412
3695.29961	0.02413
3694.01384	0.02363
3692.72807	0.02287
3691.44230	0.02235
3690.15653	0.02238
3688.87076	0.02280
3687.58500	0.02323
3686.29923	0.02350
3685.01346	0.02368
3683.72769	0.02380
3682.44192	0.02377
3681.15615	0.02364
3679.87038	0.02368
3678.58461	0.02411
3677.29884	0.02485
3676.01308	0.02558
3674.72731	0.02607
3673.44154	0.02636
3672.15577	0.02655
3670.87000	0.02663
3669.58423	0.02662
3668.29846	0.02662
3667.01269	0.02673
3665.72693	0.02694
3664.44116	0.02712
3663.15539	0.02718
3661.86962	0.02714
3660.58385	0.02700
3659.29808	0.02673
3658.01231	0.02630
3656.72654	0.02578
3655.44077	0.02530
3654.15501	0.02504
3652.86924	0.02522
3651.58347	0.02595
3650.29770	0.02705
3649.01193	0.02817
3647.72616	0.02904
3646.44039	0.02962
3645.15462	0.02996
3643.86886	0.03012
3642.58309	0.03024
3641.29732	0.03044
3640.01155	0.03070
3638.72578	0.03078
3637.44001	0.03049
3636.15424	0.02990
3634.86847	0.02930
3633.58270	0.02909
3632.29694	0.02951
3631.01117	0.03048
3629.72540	0.03152
3628.43963	0.03201
3627.15386	0.03164
3625.86809	0.03074
3624.58232	0.02996
3623.29655	0.02965
3622.01079	0.02959
3620.72502	0.02941
3619.43925	0.02907
3618.15348	0.02893
3616.86771	0.02924
3615.58194	0.02986
3614.29617	0.03052
3613.01040	0.03112
3611.72463	0.03180
3610.43887	0.03268
3609.15310	0.03363
3607.86733	0.03431
3606.58156	0.03444
3605.29579	0.03407
3604.01002	0.03357
3602.72425	0.03332
3601.43848	0.03354
3600.15272	0.03428
3598.86695	0.03539
3597.58118	0.03643
3596.29541	0.03690
3595.00964	0.03667
3593.72387	0.03612
3592.43810	0.03566
3591.15233	0.03548
3589.86656	0.03565
3588.58080	0.03615
3587.29503	0.03686
3586.00926	0.03749
3584.72349	0.03787
3583.43772	0.03811
3582.15195	0.03846
3580.86618	0.03902
3579.58041	0.03962
3578.29464	0.04007
3577.00888	0.04042
3575.72311	0.04094
3574.43734	0.04182
3573.15157	0.04290
3571.86580	0.04382
3570.58003	0.04438
3569.29426	0.04458
3568.00849	0.04450
3566.72273	0.04414
3565.43696	0.04353
3564.15119	0.04276
3562.86542	0.04195
3561.57965	0.04126
3560.29388	0.04085
3559.00811	0.04077
3557.72234	0.04093
3556.43657	0.04116
3555.15081	0.04148
3553.86504	0.04203
3552.57927	0.04287
3551.29350	0.04378
3550.00773	0.04446
3548.72196	0.04468
3547.43619	0.04443
3546.15042	0.04381
3544.86466	0.04314
3543.57889	0.04288
3542.29312	0.04334
3541.00735	0.04442
3539.72158	0.04563
3538.43581	0.04645
3537.15004	0.04671
3535.86427	0.04665
3534.57850	0.04660
3533.29274	0.04665
3532.00697	0.04664
3530.72120	0.04647
3529.43543	0.04634
3528.14966	0.04650
3526.86389	0.04702
3525.57812	0.04768
3524.29235	0.04820
3523.00659	0.04838
3521.72082	0.04826
3520.43505	0.04807
3519.14928	0.04810
3517.86351	0.04838
3516.57774	0.04872
3515.29197	0.04893
3514.00620	0.04912
3512.72043	0.04950
3511.43467	0.05010
3510.14890	0.05068
3508.86313	0.05101
3507.57736	0.05113
3506.29159	0.05123
3505.00582	0.05147
3503.72005	0.05178
3502.43428	0.05193
3501.14852	0.05176
3499.86275	0.05130
3498.57698	0.05093
3497.29121	0.05100
3496.00544	0.05157
3494.71967	0.05236
3493.43390	0.05303
3492.14813	0.05349
3490.86236	0.05380
3489.57660	0.05393
3488.29083	0.05377
3487.00506	0.05335
3485.71929	0.05296
3484.43352	0.05288
3483.14775	0.05315
3481.86198	0.05357
3480.57621	0.05392
3479.29045	0.05416
3478.00468	0.05438
3476.71891	0.05460
3475.43314	0.05477
3474.14737	0.05486
3472.86160	0.05492
3471.57583	0.05509
3470.29006	0.05541
3469.00429	0.05564
3467.71853	0.05555
3466.43276	0.05523
3465.14699	0.05510
3463.86122	0.05542
3462.57545	0.05600
3461.28968	0.05635
3460.00391	0.05620
3458.71814	0.05564
3457.43238	0.05500
3456.14661	0.05466
3454.86084	0.05478
3453.57507	0.05531
3452.28930	0.05595
3451.00353	0.05652
3449.71776	0.05701
3448.43199	0.05748
3447.14622	0.05785
3445.86046	0.05786
3444.57469	0.05740
3443.28892	0.05665
3442.00315	0.05599
3440.71738	0.05573
3439.43161	0.05596
3438.14584	0.05667
3436.86007	0.05764
3435.57431	0.05853
3434.28854	0.05907
3433.00277	0.05928
3431.71700	0.05944
3430.43123	0.05980
3429.14546	0.06029
3427.85969	0.06065
3426.57392	0.06058
3425.28815	0.06010
3424.00239	0.05958
3422.71662	0.05951
3421.43085	0.06005
3420.14508	0.06095
3418.85931	0.06177
3417.57354	0.06223
3416.28777	0.06224
3415.00200	0.06178
3413.71624	0.06099
3412.43047	0.06024
3411.14470	0.05994
3409.85893	0.06014
3408.57316	0.06051
3407.28739	0.06071
3406.00162	0.06079
3404.71585	0.06098
3403.43008	0.06136
3402.14432	0.06177
3400.85855	0.06199
3399.57278	0.06194
3398.28701	0.06171
3397.00124	0.06146
3395.71547	0.06132
3394.42970	0.06138
3393.14393	0.06162
3391.85817	0.06195
3390.57240	0.06235
3389.28663	0.06282
3388.00086	0.06333
3386.71509	0.06370
3385.42932	0.06373
3384.14355	0.06335
3382.85778	0.06277
3381.57201	0.06231
3380.28625	0.06222
3379.00048	0.06245
3377.71471	0.06272
3376.42894	0.06273
3375.14317	0.06255
3373.85740	0.06247
3372.57163	0.06264
3371.28586	0.06292
3370.00010	0.06312
3368.71433	0.06323
3367.42856	0.06330
3366.14279	0.06332
3364.85702	0.06325
3363.57125	0.06315
3362.28548	0.06305
3360.99971	0.06296
3359.71394	0.06292
3358.42818	0.06302
3357.14241	0.06330
3355.85664	0.06358
3354.57087	0.06364
3353.28510	0.06340
3351.99933	0.06306
3350.71356	0.06289
3349.42779	0.06302
3348.14202	0.06330
3346.85626	0.06347
3345.57049	0.06344
3344.28472	0.06327
3342.99895	0.06310
3341.71318	0.06301
3340.42741	0.06297
3339.14164	0.06296
3337.85587	0.06295
3336.57011	0.06293
3335.28434	0.06291
3333.99857	0.06297
3332.71280	0.06324
3331.42703	0.06376
3330.14126	0.06430
3328.85549	0.06448
3327.56972	0.06411
3326.28395	0.06338
3324.99819	0.06273
3323.71242	0.06246
3322.42665	0.06254
3321.14088	0.06268
3319.85511	0.06264
3318.56934	0.06238
3317.28357	0.06208
3315.99780	0.06193
3314.71204	0.06204
3313.42627	0.06236
3312.14050	0.06278
3310.85473	0.06322
3309.56896	0.06364
3308.28319	0.06395
3306.99742	0.06409
3305.71165	0.06406
3304.42588	0.06391
3303.14012	0.06367
3301.85435	0.06339
3300.56858	0.06314
3299.28281	0.06301
3297.99704	0.06301
3296.71127	0.06307
3295.42550	0.06309
3294.13973	0.06307
3292.85397	0.06300
3291.56820	0.06282
3290.28243	0.06244
3288.99666	0.06199
3287.71089	0.06171
3286.42512	0.06177
3285.13935	0.06209
3283.85358	0.06243
3282.56781	0.06265
3281.28205	0.06273
3279.99628	0.06278
3278.71051	0.06286
3277.42474	0.06293
3276.13897	0.06293
3274.85320	0.06287
3273.56743	0.06281
3272.28166	0.06269
3270.99590	0.06241
3269.71013	0.06201
3268.42436	0.06165
3267.13859	0.06145
3265.85282	0.06143
3264.56705	0.06157
3263.28128	0.06182
3261.99551	0.06208
3260.70974	0.06225
3259.42398	0.06234
3258.13821	0.06240
3256.85244	0.06244
3255.56667	0.06237
3254.28090	0.06213
3252.99513	0.06176
3251.70936	0.06137
3250.42359	0.06111
3249.13783	0.06105
3247.85206	0.06110
3246.56629	0.06111
3245.28052	0.06104
3243.99475	0.06102
3242.70898	0.06114
3241.42321	0.06137
3240.13744	0.06157
3238.85167	0.06160
3237.56591	0.06141
3236.28014	0.06095
3234.99437	0.06028
3233.70860	0.05953
3232.42283	0.05891
3231.13706	0.05857
3229.85129	0.05859
3228.56552	0.05895
3227.27976	0.05949
3225.99399	0.06003
3224.70822	0.06038
3223.42245	0.06041
3222.13668	0.06014
3220.85091	0.05976
3219.56514	0.05954
3218.27937	0.05965
3216.99360	0.06003
3215.70784	0.06048
3214.42207	0.06081
3213.13630	0.06086
3211.85053	0.06057
3210.56476	0.06008
3209.27899	0.05961
3207.99322	0.05937
3206.70745	0.05941
3205.42169	0.05961
3204.13592	0.05980
3202.85015	0.05981
3201.56438	0.05957
3200.27861	0.05919
3198.99284	0.05887
3197.70707	0.05878
3196.42130	0.05888
3195.13553	0.05898
3193.84977	0.05895
3192.56400	0.05886
3191.27823	0.05887
3189.99246	0.05903
3188.70669	0.05923
3187.42092	0.05928
3186.13515	0.05908
3184.84938	0.05864
3183.56362	0.05815
3182.27785	0.05785
3180.99208	0.05783
3179.70631	0.05794
3178.42054	0.05794
3177.13477	0.05775
3175.84900	0.05750
3174.56323	0.05731
3173.27746	0.05715
3171.99170	0.05698
3170.70593	0.05686
3169.42016	0.05696
3168.13439	0.05735
3166.84862	0.05784
3165.56285	0.05813
3164.27708	0.05800
3162.99131	0.05747
3161.70555	0.05677
3160.41978	0.05616
3159.13401	0.05584
3157.84824	0.05582
3156.56247	0.05604
3155.27670	0.05640
3153.99093	0.05685
3152.70516	0.05729
3151.41939	0.05754
3150.13363	0.05752
3148.84786	0.05731
3147.56209	0.05704
3146.27632	0.05670
3144.99055	0.05624
3143.70478	0.05577
3142.41901	0.05552
3141.13324	0.05563
3139.84748	0.05594
3138.56171	0.05618
3137.27594	0.05618
3135.99017	0.05603
3134.70440	0.05592
3133.41863	0.05593
3132.13286	0.05594
3130.84709	0.05578
3129.56132	0.05542
3128.27556	0.05499
3126.98979	0.05463
3125.70402	0.05440
3124.41825	0.05425
3123.13248	0.05413
3121.84671	0.05396
3120.56094	0.05373
3119.27517	0.05347
3117.98940	0.05326
3116.70364	0.05309
3115.41787	0.05293
3114.13210	0.05278
3112.84633	0.05270
3111.56056	0.05266
3110.27479	0.05267
3108.98902	0.05272
3107.70325	0.05277
3106.41749	0.05274
3105.13172	0.05256
3103.84595	0.05229
3102.56018	0.05211
3101.27441	0.05208
3099.98864	0.05207
3098.70287	0.05193
3097.41710	0.05167
3096.13133	0.05143
3094.84557	0.05134
3093.55980	0.05139
3092.27403	0.05156
3090.98826	0.05176
3089.70249	0.05192
3088.41672	0.05202
3087.13095	0.05214
3085.84518	0.05237
3084.55942	0.05264
3083.27365	0.05280
3081.98788	0.05269
3080.70211	0.05234
3079.41634	0.05189
3078.13057	0.05146
3076.84480	0.05107
3075.55903	0.05066
3074.27326	0.05022
3072.98750	0.04986
3071.70173	0.04974
3070.41596	0.04998
3069.13019	0.05060
3067.84442	0.05134
3066.55865	0.05177
3065.27288	0.05155
3063.98711	0.05084
3062.70135	0.05016
3061.41558	0.04988
3060.12981	0.04992
3058.84404	0.04996
3057.55827	0.04984
3056.27250	0.04970
3054.98673	0.04975
3053.70096	0.04997
3052.41519	0.05017
3051.12943	0.05013
3049.84366	0.04976
3048.55789	0.04918
3047.27212	0.04858
3045.98635	0.04814
3044.70058	0.04795
3043.41481	0.04796
3042.12904	0.04805
3040.84328	0.04813
3039.55751	0.04818
3038.27174	0.04821
3036.98597	0.04830
3035.70020	0.04847
3034.41443	0.04870
3033.12866	0.04886
3031.84289	0.04883
3030.55712	0.04862
3029.27136	0.04836
3027.98559	0.04821
3026.69982	0.04812
3025.41405	0.04796
3024.12828	0.04763
3022.84251	0.04724
3021.55674	0.04699
3020.27097	0.04702
3018.98521	0.04729
3017.69944	0.04755
3016.41367	0.04756
3015.12790	0.04725
3013.84213	0.04674
3012.55636	0.04621
3011.27059	0.04580
3009.98482	0.04552
3008.69905	0.04535
3007.41329	0.04528
3006.12752	0.04533
3004.84175	0.04552
3003.55598	0.04582
3002.27021	0.04604
3000.98444	0.04598
2999.69867	0.04564
2998.41290	0.04525
2997.12714	0.04514
2995.84137	0.04536
2994.55560	0.04572
2993.26983	0.04598
2991.98406	0.04597
2990.69829	0.04570
2989.41252	0.04532
2988.12675	0.04506
2986.84098	0.04513
2985.55522	0.04549
2984.26945	0.04592
2982.98368	0.04618
2981.69791	0.04629
2980.41214	0.04645
2979.12637	0.04677
2977.84060	0.04711
2976.55483	0.04732
2975.26907	0.04743
2973.98330	0.04765
2972.69753	0.04809
2971.41176	0.04867
2970.12599	0.04917
2968.84022	0.04950
2967.55445	0.04973
2966.26868	0.05001
2964.98291	0.05041
2963.69715	0.05080
2962.41138	0.05108
2961.12561	0.05131
2959.83984	0.05160
2958.55407	0.05195
2957.26830	0.05221
2955.98253	0.05232
2954.69676	0.05234
2953.41100	0.05240
2952.12523	0.05253
2950.83946	0.05266
2949.55369	0.05271
2948.26792	0.05267
2946.98215	0.05260
2945.69638	0.05255
2944.41061	0.05254
2943.12484	0.05253
2941.83908	0.05247
2940.55331	0.05235
2939.26754	0.05221
2937.98177	0.05220
2936.69600	0.05244
2935.41023	0.05287
2934.12446	0.05327
2932.83869	0.05345
2931.55293	0.05348
2930.26716	0.05349
2928.98139	0.05353
2927.69562	0.05351
2926.40985	0.05336
2925.12408	0.05309
2923.83831	0.05287
2922.55254	0.05290
2921.26677	0.05322
2919.98101	0.05360
2918.69524	0.05363
2917.40947	0.05322
2916.12370	0.05258
2914.83793	0.05200
2913.55216	0.05151
2912.26639	0.05102
2910.98062	0.05050
2909.69486	0.05004
2908.40909	0.04968
2907.12332	0.04932
2905.83755	0.04889
2904.55178	0.04845
2903.26601	0.04818
2901.98024	0.04814
2900.69447	0.04819
2899.40870	0.04812
2898.12294	0.04787
2896.83717	0.04754
2895.55140	0.04723
2894.26563	0.04697
2892.97986	0.04678
2891.69409	0.04658
2890.40832	0.04623
2889.12255	0.04569
2887.83678	0.04509
2886.55102	0.04462
2885.26525	0.04441
2883.97948	0.04431
2882.69371	0.04409
2881.40794	0.04368
2880.12217	0.04329
2878.83640	0.04316
2877.55063	0.04336
2876.26487	0.04376
2874.97910	0.04419
2873.69333	0.04452
2872.40756	0.04469
2871.12179	0.04473
2869.83602	0.04476
2868.55025	0.04484
2867.26448	0.04492
2865.97871	0.04497
2864.69295	0.04498
2863.40718	0.04491
2862.12141	0.04471
2860.83564	0.04438
2859.54987	0.04398
2858.26410	0.04361
2856.97833	0.04333
2855.69256	0.04316
2854.40680	0.04304
2853.12103	0.04289
2851.83526	0.04268
2850.54949	0.04248
2849.26372	0.04237
2847.97795	0.04238
2846.69218	0.04244
2845.40641	0.04242
2844.12064	0.04217
2842.83488	0.04159
2841.54911	0.04076
2840.26334	0.03990
2838.97757	0.03919
2837.69180	0.03871
2836.40603	0.03844
2835.12026	0.03833
2833.83449	0.03825
2832.54873	0.03808
2831.26296	0.03777
2829.97719	0.03737
2828.69142	0.03694
2827.40565	0.03657
2826.11988	0.03637
2824.83411	0.03638
2823.54834	0.03651
2822.26257	0.03660
2820.97681	0.03652
2819.69104	0.03625
2818.40527	0.03587
2817.11950	0.03547
2815.83373	0.03512
2814.54796	0.03481
2813.26219	0.03458
2811.97642	0.03447
2810.69066	0.03443
2809.40489	0.03431
2808.11912	0.03406
2806.83335	0.03386
2805.54758	0.03387
2804.26181	0.03403
2802.97604	0.03413
2801.69027	0.03403
2800.40450	0.03379
2799.11874	0.03354
2797.83297	0.03334
2796.54720	0.03320
2795.26143	0.03309
2793.97566	0.03303
2792.68989	0.03302
2791.40412	0.03307
2790.11835	0.03312
2788.83259	0.03308
2787.54682	0.03292
2786.26105	0.03273
2784.97528	0.03265
2783.68951	0.03269
2782.40374	0.03274
2781.11797	0.03270
2779.83220	0.03255
2778.54643	0.03232
2777.26067	0.03208
2775.97490	0.03186
2774.68913	0.03173
2773.40336	0.03169
2772.11759	0.03174
2770.83182	0.03183
2769.54605	0.03192
2768.26028	0.03199
2766.97452	0.03205
2765.68875	0.03208
2764.40298	0.03207
2763.11721	0.03200
2761.83144	0.03186
2760.54567	0.03162
2759.25990	0.03128
2757.97413	0.03095
2756.68836	0.03075
2755.40260	0.03069
2754.11683	0.03069
2752.83106	0.03064
2751.54529	0.03054
2750.25952	0.03045
2748.97375	0.03040
2747.68798	0.03034
2746.40221	0.03021
2745.11645	0.03003
2743.83068	0.02995
2742.54491	0.03004
2741.25914	0.03024
2739.97337	0.03046
2738.68760	0.03062
2737.40183	0.03069
2736.11606	0.03063
2734.83029	0.03051
2733.54453	0.03050
2732.25876	0.03068
2730.97299	0.03093
2729.68722	0.03103
2728.40145	0.03086
2727.11568	0.03047
2725.82991	0.02998
2724.54414	0.02950
2723.25838	0.02917
2721.97261	0.02904
2720.68684	0.02906
2719.40107	0.02910
2718.11530	0.02912
2716.82953	0.02913
2715.54376	0.02918
2714.25799	0.02925
2712.97222	0.02930
2711.68646	0.02928
2710.40069	0.02919
2709.11492	0.02903
2707.82915	0.02887
2706.54338	0.02875
2705.25761	0.02868
2703.97184	0.02864
2702.68607	0.02859
2701.40031	0.02852
2700.11454	0.02850
2698.82877	0.02861
2697.54300	0.02885
2696.25723	0.02908
2694.97146	0.02913
2693.68569	0.02899
2692.39992	0.02876
2691.11415	0.02858
2689.82839	0.02852
2688.54262	0.02849
2687.25685	0.02844
2685.97108	0.02840
2684.68531	0.02845
2683.39954	0.02852
2682.11377	0.02847
2680.82800	0.02822
2679.54224	0.02787
2678.25647	0.02760
2676.97070	0.02748
2675.68493	0.02748
2674.39916	0.02750
2673.11339	0.02745
2671.82762	0.02730
2670.54185	0.02712
2669.25608	0.02701
2667.97032	0.02702
2666.68455	0.02712
2665.39878	0.02720
2664.11301	0.02721
2662.82724	0.02716
2661.54147	0.02708
2660.25570	0.02699
2658.96993	0.02693
2657.68417	0.02700
2656.39840	0.02724
2655.11263	0.02751
2653.82686	0.02760
2652.54109	0.02745
2651.25532	0.02717
2649.96955	0.02695
2648.68378	0.02683
2647.39801	0.02675
2646.11225	0.02664
2644.82648	0.02648
2643.54071	0.02631
2642.25494	0.02620
2640.96917	0.02616
2639.68340	0.02613
2638.39763	0.02603
2637.11186	0.02584
2635.82609	0.02560
2634.54033	0.02535
2633.25456	0.02510
2631.96879	0.02484
2630.68302	0.02457
2629.39725	0.02429
2628.11148	0.02406
2626.82571	0.02398
2625.53994	0.02413
2624.25418	0.02445
2622.96841	0.02477
2621.68264	0.02492
2620.39687	0.02485
2619.11110	0.02460
2617.82533	0.02423
2616.53956	0.02382
2615.25379	0.02343
2613.96802	0.02302
2612.68226	0.02261
2611.39649	0.02229
2610.11072	0.02222
2608.82495	0.02245
2607.53918	0.02285
2606.25341	0.02320
2604.96764	0.02335
2603.68187	0.02331
2602.39611	0.02314
2601.11034	0.02291
2599.82457	0.02261
2598.53880	0.02227
2597.25303	0.02203
2595.96726	0.02204
2594.68149	0.02231
2593.39572	0.02262
2592.10995	0.02271
2590.82419	0.02250
2589.53842	0.02212
2588.25265	0.02180
2586.96688	0.02162
2585.68111	0.02161
2584.39534	0.02171
2583.10957	0.02179
2581.82380	0.02168
2580.53804	0.02136
2579.25227	0.02104
2577.96650	0.02100
2576.68073	0.02124
2575.39496	0.02153
2574.10919	0.02167
2572.82342	0.02158
2571.53765	0.02132
2570.25188	0.02104
2568.96612	0.02090
2567.68035	0.02098
2566.39458	0.02118
2565.10881	0.02130
2563.82304	0.02121
2562.53727	0.02100
2561.25150	0.02077
2559.96573	0.02058
2558.67997	0.02043
2557.39420	0.02035
2556.10843	0.02029
2554.82266	0.02014
2553.53689	0.01985
2552.25112	0.01956
2550.96535	0.01952
2549.67958	0.01980
2548.39381	0.02029
2547.10805	0.02077
2545.82228	0.02103
2544.53651	0.02096
2543.25074	0.02067
2541.96497	0.02041
2540.67920	0.02033
2539.39343	0.02031
2538.10766	0.02022
2536.82190	0.02009
2535.53613	0.02002
2534.25036	0.02005
2532.96459	0.02004
2531.67882	0.01989
2530.39305	0.01958
2529.10728	0.01921
2527.82151	0.01893
2526.53574	0.01890
2525.24998	0.01915
2523.96421	0.01953
2522.67844	0.01986
2521.39267	0.02001
2520.10690	0.01988
2518.82113	0.01951
2517.53536	0.01901
2516.24959	0.01857
2514.96383	0.01831
2513.67806	0.01822
2512.39229	0.01823
2511.10652	0.01825
2509.82075	0.01826
2508.53498	0.01830
2507.24921	0.01840
2505.96344	0.01857
2504.67767	0.01876
2503.39191	0.01896
2502.10614	0.01910
2500.82037	0.01911
2499.53460	0.01899
2498.24883	0.01883
2496.96306	0.01875
2495.67729	0.01881
2494.39152	0.01893
2493.10576	0.01896
2491.81999	0.01881
2490.53422	0.01849
2489.24845	0.01820
2487.96268	0.01813
2486.67691	0.01833
2485.39114	0.01862
2484.10537	0.01882
2482.81960	0.01887
2481.53384	0.01878
2480.24807	0.01856
2478.96230	0.01818
2477.67653	0.01769
2476.39076	0.01727
2475.10499	0.01710
2473.81922	0.01718
2472.53345	0.01741
2471.24769	0.01767
2469.96192	0.01784
2468.67615	0.01788
2467.39038	0.01785
2466.10461	0.01789
2464.81884	0.01807
2463.53307	0.01833
2462.24730	0.01858
2460.96153	0.01881
2459.67577	0.01903
2458.39000	0.01915
2457.10423	0.01908
2455.81846	0.01885
2454.53269	0.01857
2453.24692	0.01831
2451.96115	0.01813
2450.67538	0.01807
2449.38962	0.01813
2448.10385	0.01822
2446.81808	0.01828
2445.53231	0.01837
2444.24654	0.01850
2442.96077	0.01855
2441.67500	0.01841
2440.38923	0.01813
2439.10346	0.01781
2437.81770	0.01748
2436.53193	0.01715
2435.24616	0.01699
2433.96039	0.01711
2432.67462	0.01743
2431.38885	0.01772
2430.10308	0.01785
2428.81731	0.01778
2427.53155	0.01758
2426.24578	0.01733
2424.96001	0.01707
2423.67424	0.01677
2422.38847	0.01642
2421.10270	0.01611
2419.81693	0.01599
2418.53116	0.01616
2417.24539	0.01659
2415.95963	0.01706
2414.67386	0.01731
2413.38809	0.01730
2412.10232	0.01726
2410.81655	0.01745
2409.53078	0.01777
2408.24501	0.01790
2406.95924	0.01766
2405.67347	0.01727
2404.38771	0.01703
2403.10194	0.01700
2401.81617	0.01698
2400.53040	0.01685
2399.24463	0.01668
2397.95886	0.01656
2396.67309	0.01647
2395.38732	0.01642
2394.10156	0.01650
2392.81579	0.01673
2391.53002	0.01699
2390.24425	0.01708
2388.95848	0.01696
2387.67271	0.01677
2386.38694	0.01669
2385.10117	0.01677
2383.81540	0.01693
2382.52964	0.01706
2381.24387	0.01707
2379.95810	0.01698
2378.67233	0.01672
2377.38656	0.01657
2376.10079	0.01679
2374.81502	0.01716
2373.52925	0.01698
2372.24349	0.01633
2370.95772	0.01585
2369.67195	0.01574
2368.38618	0.01582
2367.10041	0.01583
2365.81464	0.01594
2364.52887	0.01616
2363.24310	0.01646
2361.95733	0.01667
2360.67157	0.01661
2359.38580	0.01651
2358.10003	0.01657
2356.81426	0.01684
2355.52849	0.01732
2354.24272	0.01791
2352.95695	0.01827
2351.67118	0.01792
2350.38542	0.01737
2349.09965	0.01726
2347.81388	0.01735
2346.52811	0.01715
2345.24234	0.01705
2343.95657	0.01749
2342.67080	0.01852
2341.38503	0.01833
2340.09926	0.01728
2338.81350	0.01734
2337.52773	0.01824
2336.24196	0.01783
2334.95619	0.01694
2333.67042	0.01717
2332.38465	0.01824
2331.09888	0.01768
2329.81311	0.01756
2328.52735	0.01822
2327.24158	0.01824
2325.95581	0.01836
2324.67004	0.01901
2323.38427	0.01978
2322.09850	0.01952
2320.81273	0.01906
2319.52696	0.01852
2318.24119	0.01807
2316.95543	0.01783
2315.66966	0.01759
2314.38389	0.01751
2313.09812	0.01744
2311.81235	0.01720
2310.52658	0.01708
2309.24081	0.01708
2307.95504	0.01694
2306.66928	0.01671
2305.38351	0.01637
2304.09774	0.01610
2302.81197	0.01598
2301.52620	0.01599
2300.24043	0.01615
2298.95466	0.01639
2297.66889	0.01662
2296.38312	0.01670
2295.09736	0.01656
2293.81159	0.01626
2292.52582	0.01594
2291.24005	0.01581
2289.95428	0.01592
2288.66851	0.01623
2287.38274	0.01658
2286.09697	0.01682
2284.81121	0.01681
2283.52544	0.01655
2282.23967	0.01613
2280.95390	0.01571
2279.66813	0.01542
2278.38236	0.01532
2277.09659	0.01541
2275.81082	0.01556
2274.52505	0.01552
2273.23929	0.01511
2271.95352	0.01442
2270.66775	0.01371
2269.38198	0.01324
2268.09621	0.01320
2266.81044	0.01364
2265.52467	0.01445
2264.23890	0.01524
2262.95314	0.01549
2261.66737	0.01495
2260.38160	0.01394
2259.09583	0.01310
2257.81006	0.01282
2256.52429	0.01301
2255.23852	0.01321
2253.95275	0.01311
2252.66698	0.01272
2251.38122	0.01227
2250.09545	0.01192
2248.80968	0.01168
2247.52391	0.01148
2246.23814	0.01163
2244.95237	0.01211
2243.66660	0.01251
2242.38083	0.01237
2241.09507	0.01171
2239.80930	0.01103
2238.52353	0.01088
2237.23776	0.01136
2235.95199	0.01213
2234.66622	0.01264
2233.38045	0.01253
2232.09468	0.01186
2230.80891	0.01107
2229.52315	0.01065
2228.23738	0.01076
2226.95161	0.01108
2225.66584	0.01108
2224.38007	0.01066
2223.09430	0.01021
2221.80853	0.01014
2220.52276	0.01026
2219.23700	0.01016
2217.95123	0.00975
2216.66546	0.00942
2215.37969	0.00948
2214.09392	0.00981
2212.80815	0.01012
2211.52238	0.01030
2210.23661	0.01037
2208.95084	0.01023
2207.66508	0.00982
2206.37931	0.00931
2205.09354	0.00896
2203.80777	0.00867
2202.52200	0.00825
2201.23623	0.00778
2199.95046	0.00762
2198.66469	0.00789
2197.37893	0.00843
2196.09316	0.00910
2194.80739	0.00988
2193.52162	0.01057
2192.23585	0.01078
2190.95008	0.01028
2189.66431	0.00931
2188.37854	0.00833
2187.09277	0.00766
2185.80701	0.00736
2184.52124	0.00723
2183.23547	0.00698
2181.94970	0.00638
2180.66393	0.00555
2179.37816	0.00489
2178.09239	0.00470
2176.80662	0.00487
2175.52085	0.00501
2174.23509	0.00485
2172.94932	0.00445
2171.66355	0.00402
2170.37778	0.00380
2169.09201	0.00406
2167.80624	0.00508
2166.52047	0.00670
2165.23470	0.00819
2163.94894	0.00860
2162.66317	0.00755
2161.37740	0.00555
2160.09163	0.00376
2158.80586	0.00320
2157.52009	0.00382
2156.23432	0.00466
2154.94855	0.00493
2153.66278	0.00456
2152.37702	0.00388
2151.09125	0.00310
2149.80548	0.00235
2148.51971	0.00189
2147.23394	0.00185
2145.94817	0.00190
2144.66240	0.00172
2143.37663	0.00150
2142.09087	0.00175
2140.80510	0.00263
2139.51933	0.00382
2138.23356	0.00493
2136.94779	0.00588
2135.66202	0.00669
2134.37625	0.00724
2133.09048	0.00728
2131.80471	0.00685
2130.51895	0.00628
2129.23318	0.00599
2127.94741	0.00611
2126.66164	0.00659
2125.37587	0.00727
2124.09010	0.00796
2122.80433	0.00848
2121.51856	0.00875
2120.23280	0.00884
2118.94703	0.00887
2117.66126	0.00885
2116.37549	0.00873
2115.08972	0.00849
2113.80395	0.00812
2112.51818	0.00767
2111.23241	0.00716
2109.94664	0.00661
2108.66088	0.00605
2107.37511	0.00562
2106.08934	0.00556
2104.80357	0.00598
2103.51780	0.00679
2102.23203	0.00762
2100.94626	0.00813
2099.66049	0.00861
2098.37473	0.00845
2097.08896	0.00794
2095.80319	0.00752
2094.51742	0.00732
2093.23165	0.00730
2091.94588	0.00740
2090.66011	0.00759
2089.37434	0.00779
2088.08857	0.00783
2086.80281	0.00748
2085.51704	0.00673
2084.23127	0.00592
2082.94550	0.00551
2081.65973	0.00564
2080.37396	0.00613
2079.08819	0.00675
2077.80242	0.00738
2076.51666	0.00794
2075.23089	0.00827
2073.94512	0.00834
2072.65935	0.00826
2071.37358	0.00805
2070.08781	0.00756
2068.80204	0.00664
2067.51627	0.00541
2066.23050	0.00429
2064.94474	0.00373
2063.65897	0.00391
2062.37320	0.00458
2061.08743	0.00526
2059.80166	0.00561
2058.51589	0.00552
2057.23012	0.00515
2055.94435	0.00472
2054.65859	0.00443
2053.37282	0.00433
2052.08705	0.00434
2050.80128	0.00433
2049.51551	0.00416
2048.22974	0.00378
2046.94397	0.00310
2045.65820	0.00207
2044.37243	0.00075
2043.08667	-0.00051
2041.80090	-0.00128
2040.51513	-0.00127
2039.22936	-0.00042
2037.94359	0.00099
2036.65782	0.00245
2035.37205	0.00334
2034.08628	0.00319
2032.80052	0.00198
2031.51475	0.00026
2030.22898	-0.00104
2028.94321	-0.00113
2027.65744	0.00000
2026.37167	0.00149
2025.08590	0.00238
2023.80013	0.00259
2022.51436	0.00277
2021.22860	0.00328
2019.94283	0.00366
2018.65706	0.00333
2017.37129	0.00242
2016.08552	0.00169
2014.79975	0.00177
2013.51398	0.00253
2012.22821	0.00330
2010.94245	0.00341
2009.65668	0.00275
2008.37091	0.00182
2007.08514	0.00130
2005.79937	0.00148
2004.51360	0.00219
2003.22783	0.00314
2001.94206	0.00416
2000.65629	0.00511
1999.37053	0.00578
1998.08476	0.00611
1996.79899	0.00627
1995.51322	0.00643
1994.22745	0.00654
1992.94168	0.00639
1991.65591	0.00597
1990.37014	0.00560
1989.08438	0.00564
1987.79861	0.00606
1986.51284	0.00650
1985.22707	0.00674
1983.94130	0.00693
1982.65553	0.00738
1981.36976	0.00798
1980.08399	0.00824
1978.79822	0.00787
1977.51246	0.00714
1976.22669	0.00657
1974.94092	0.00628
1973.65515	0.00588
1972.36938	0.00513
1971.08361	0.00430
1969.79784	0.00393
1968.51207	0.00422
1967.22631	0.00484
1965.94054	0.00534
1964.65477	0.00556
1963.36900	0.00565
1962.08323	0.00576
1960.79746	0.00589
1959.51169	0.00594
1958.22592	0.00594
1956.94015	0.00598
1955.65439	0.00607
1954.36862	0.00611
1953.08285	0.00606
1951.79708	0.00602
1950.51131	0.00606
1949.22554	0.00619
1947.93977	0.00645
1946.65400	0.00691
1945.36823	0.00750
1944.08247	0.00802
1942.79670	0.00834
1941.51093	0.00852
1940.22516	0.00864
1938.93939	0.00858
1937.65362	0.00825
1936.36785	0.00786
1935.08208	0.00772
1933.79632	0.00789
1932.51055	0.00815
1931.22478	0.00827
1929.93901	0.00826
1928.65324	0.00823
1927.36747	0.00823
1926.08170	0.00827
1924.79593	0.00838
1923.51016	0.00855
1922.22440	0.00867
1920.93863	0.00869
1919.65286	0.00866
1918.36709	0.00866
1917.08132	0.00875
1915.79555	0.00883
1914.50978	0.00883
1913.22401	0.00874
1911.93825	0.00865
1910.65248	0.00866
1909.36671	0.00875
1908.08094	0.00881
1906.79517	0.00878
1905.50940	0.00876
1904.22363	0.00894
1902.93786	0.00930
1901.65209	0.00960
1900.36633	0.00955
1899.08056	0.00918
1897.79479	0.00878
1896.50902	0.00861
1895.22325	0.00870
1893.93748	0.00886
1892.65171	0.00899
1891.36594	0.00908
1890.08018	0.00911
1888.79441	0.00903
1887.50864	0.00883
1886.22287	0.00866
1884.93710	0.00864
1883.65133	0.00872
1882.36556	0.00878
1881.07979	0.00875
1879.79402	0.00871
1878.50826	0.00878
1877.22249	0.00896
1875.93672	0.00916
1874.65095	0.00931
1873.36518	0.00943
1872.07941	0.00953
1870.79364	0.00961
1869.50787	0.00964
1868.22211	0.00964
1866.93634	0.00962
1865.65057	0.00956
1864.36480	0.00944
1863.07903	0.00924
1861.79326	0.00905
1860.50749	0.00901
1859.22172	0.00910
1857.93595	0.00924
1856.65019	0.00932
1855.36442	0.00935
1854.07865	0.00937
1852.79288	0.00940
1851.50711	0.00940
1850.22134	0.00939
1848.93557	0.00940
1847.64980	0.00947
1846.36404	0.00958
1845.07827	0.00969
1843.79250	0.00977
1842.50673	0.00981
1841.22096	0.00978
1839.93519	0.00968
1838.64942	0.00950
1837.36365	0.00932
1836.07788	0.00924
1834.79212	0.00937
1833.50635	0.00967
1832.22058	0.00996
1830.93481	0.01010
1829.64904	0.01010
1828.36327	0.01011
1827.07750	0.01026
1825.79173	0.01052
1824.50597	0.01075
1823.22020	0.01085
1821.93443	0.01082
1820.64866	0.01069
1819.36289	0.01050
1818.07712	0.01028
1816.79135	0.01011
1815.50558	0.01007
1814.21981	0.01011
1812.93405	0.01009
1811.64828	0.00993
1810.36251	0.00969
1809.07674	0.00952
1807.79097	0.00952
1806.50520	0.00971
1805.21943	0.00997
1803.93366	0.01020
1802.64790	0.01037
1801.36213	0.01047
1800.07636	0.01050
1798.79059	0.01047
1797.50482	0.01043
1796.21905	0.01043
1794.93328	0.01047
1793.64751	0.01055
1792.36174	0.01065
1791.07598	0.01076
1789.79021	0.01089
1788.50444	0.01098
1787.21867	0.01099
1785.93290	0.01092
1784.64713	0.01083
1783.36136	0.01083
1782.07559	0.01098
1780.78983	0.01121
1779.50406	0.01143
1778.21829	0.01154
1776.93252	0.01152
1775.64675	0.01140
1774.36098	0.01129
1773.07521	0.01125
1771.78944	0.01129
1770.50367	0.01140
1769.21791	0.01153
1767.93214	0.01167
1766.64637	0.01178
1765.36060	0.01190
1764.07483	0.01205
1762.78906	0.01226
1761.50329	0.01249
1760.21752	0.01265
1758.93176	0.01270
1757.64599	0.01266
1756.36022	0.01260
1755.07445	0.01259
1753.78868	0.01264
1752.50291	0.01270
1751.21714	0.01271
1749.93137	0.01266
1748.64560	0.01260
1747.35984	0.01259
1746.07407	0.01269
1744.78830	0.01287
1743.50253	0.01310
1742.21676	0.01329
1740.93099	0.01341
1739.64522	0.01344
1738.35945	0.01342
1737.07369	0.01342
1735.78792	0.01350
1734.50215	0.01364
1733.21638	0.01381
1731.93061	0.01397
1730.64484	0.01412
1729.35907	0.01426
1728.07330	0.01439
1726.78753	0.01450
1725.50177	0.01459
1724.21600	0.01471
1722.93023	0.01490
1721.64446	0.01519
1720.35869	0.01553
1719.07292	0.01587
1717.78715	0.01616
1716.50138	0.01640
1715.21561	0.01663
1713.92985	0.01688
1712.64408	0.01715
1711.35831	0.01746
1710.07254	0.01778
1708.78677	0.01810
1707.50100	0.01839
1706.21523	0.01866
1704.92946	0.01892
1703.64370	0.01923
1702.35793	0.01963
1701.07216	0.02011
1699.78639	0.02063
1698.50062	0.02114
1697.21485	0.02161
1695.92908	0.02201
1694.64331	0.02233
1693.35754	0.02259
1692.07178	0.02282
1690.78601	0.02303
1689.50024	0.02328
1688.21447	0.02359
1686.92870	0.02399
1685.64293	0.02444
1684.35716	0.02486
1683.07139	0.02521
1681.78563	0.02549
1680.49986	0.02576
1679.21409	0.02606
1677.92832	0.02639
1676.64255	0.02674
1675.35678	0.02709
1674.07101	0.02744
1672.78524	0.02776
1671.49947	0.02807
1670.21371	0.02836
1668.92794	0.02867
1667.64217	0.02899
1666.35640	0.02936
1665.07063	0.02977
1663.78486	0.03019
1662.49909	0.03058
1661.21332	0.03091
1659.92756	0.03118
1658.64179	0.03143
1657.35602	0.03172
1656.07025	0.03210
1654.78448	0.03250
1653.49871	0.03279
1652.21294	0.03290
1650.92717	0.03287
1649.64140	0.03289
1648.35564	0.03305
1647.06987	0.03332
1645.78410	0.03354
1644.49833	0.03360
1643.21256	0.03353
1641.92679	0.03343
1640.64102	0.03341
1639.35525	0.03351
1638.06949	0.03369
1636.78372	0.03387
1635.49795	0.03398
1634.21218	0.03400
1632.92641	0.03402
1631.64064	0.03408
1630.35487	0.03419
1629.06910	0.03432
1627.78333	0.03442
1626.49757	0.03449
1625.21180	0.03453
1623.92603	0.03453
1622.64026	0.03452
1621.35449	0.03454
1620.06872	0.03466
1618.78295	0.03487
1617.49718	0.03510
1616.21142	0.03525
1614.92565	0.03531
1613.63988	0.03535
1612.35411	0.03542
1611.06834	0.03554
1609.78257	0.03565
1608.49680	0.03572
1607.21103	0.03580
1605.92526	0.03596
1604.63950	0.03619
1603.35373	0.03646
1602.06796	0.03669
1600.78219	0.03684
1599.49642	0.03694
1598.21065	0.03704
1596.92488	0.03718
1595.63911	0.03737
1594.35335	0.03757
1593.06758	0.03778
1591.78181	0.03799
1590.49604	0.03820
1589.21027	0.03838
1587.92450	0.03853
1586.63873	0.03868
1585.35296	0.03884
1584.06719	0.03903
1582.78143	0.03927
1581.49566	0.03955
1580.20989	0.03988
1578.92412	0.04021
1577.63835	0.04048
1576.35258	0.04067
1575.06681	0.04080
1573.78104	0.04093
1572.49528	0.04113
1571.20951	0.04138
1569.92374	0.04164
1568.63797	0.04188
1567.35220	0.04210
1566.06643	0.04232
1564.78066	0.04256
1563.49489	0.04283
1562.20912	0.04315
1560.92336	0.04348
1559.63759	0.04376
1558.35182	0.04394
1557.06605	0.04400
1555.78028	0.04402
1554.49451	0.04409
1553.20874	0.04427
1551.92297	0.04450
1550.63721	0.04472
1549.35144	0.04487
1548.06567	0.04494
1546.77990	0.04494
1545.49413	0.04492
1544.20836	0.04492
1542.92259	0.04493
1541.63682	0.04494
1540.35105	0.04489
1539.06529	0.04476
1537.77952	0.04459
1536.49375	0.04446
1535.20798	0.04444
1533.92221	0.04454
1532.63644	0.04473
1531.35067	0.04494
1530.06490	0.04518
1528.77914	0.04547
1527.49337	0.04586
1526.20760	0.04636
1524.92183	0.04698
1523.63606	0.04767
1522.35029	0.04843
1521.06452	0.04918
1519.77875	0.04992
1518.49298	0.05064
1517.20722	0.05138
1515.92145	0.05216
1514.63568	0.05301
1513.34991	0.05394
1512.06414	0.05496
1510.77837	0.05608
1509.49260	0.05730
1508.20683	0.05855
1506.92107	0.05976
1505.63530	0.06085
1504.34953	0.06181
1503.06376	0.06270
1501.77799	0.06357
1500.49222	0.06441
1499.20645	0.06517
1497.92068	0.06584
1496.63491	0.06644
1495.34915	0.06702
1494.06338	0.06763
1492.77761	0.06829
1491.49184	0.06899
1490.20607	0.06970
1488.92030	0.07040
1487.63453	0.07111
1486.34876	0.07186
1485.06299	0.07268
1483.77723	0.07357
1482.49146	0.07449
1481.20569	0.07542
1479.91992	0.07635
1478.63415	0.07729
1477.34838	0.07822
1476.06261	0.07911
1474.77684	0.07991
1473.49108	0.08061
1472.20531	0.08119
1470.91954	0.08166
1469.63377	0.08201
1468.34800	0.08226
1467.06223	0.08247
1465.77646	0.08266
1464.49069	0.08282
1463.20492	0.08296
1461.91916	0.08313
1460.63339	0.08342
1459.34762	0.08385
1458.06185	0.08439
1456.77608	0.08494
1455.49031	0.08545
1454.20454	0.08587
1452.91877	0.08619
1451.63301	0.08642
1450.34724	0.08657
1449.06147	0.08671
1447.77570	0.08683
1446.48993	0.08691
1445.20416	0.08688
1443.91839	0.08673
1442.63262	0.08651
1441.34685	0.08632
1440.06109	0.08620
1438.77532	0.08615
1437.48955	0.08617
1436.20378	0.08630
1434.91801	0.08660
1433.63224	0.08709
1432.34647	0.08779
1431.06070	0.08870
1429.77494	0.08976
1428.48917	0.09092
1427.20340	0.09213
1425.91763	0.09337
1424.63186	0.09463
1423.34609	0.09587
1422.06032	0.09708
1420.77455	0.09822
1419.48878	0.09930
1418.20302	0.10026
1416.91725	0.10106
1415.63148	0.10163
1414.34571	0.10197
1413.05994	0.10206
1411.77417	0.10192
1410.48840	0.10158
1409.20263	0.10105
1407.91687	0.10037
1406.63110	0.09954
1405.34533	0.09852
1404.05956	0.09732
1402.77379	0.09595
1401.48802	0.09445
1400.20225	0.09281
1398.91648	0.09104
1397.63071	0.08920
1396.34495	0.08733
1395.05918	0.08548
1393.77341	0.08361
1392.48764	0.08167
1391.20187	0.07967
1389.91610	0.07768
1388.63033	0.07574
1387.34456	0.07384
1386.05880	0.07197
1384.77303	0.07010
1383.48726	0.06823
1382.20149	0.06635
1380.91572	0.06447
1379.62995	0.06257
1378.34418	0.06065
1377.05841	0.05870
1375.77264	0.05676
1374.48688	0.05484
1373.20111	0.05294
1371.91534	0.05104
1370.62957	0.04917
1369.34380	0.04737
1368.05803	0.04571
1366.77226	0.04420
1365.48649	0.04284
1364.20073	0.04157
1362.91496	0.04035
1361.62919	0.03914
1360.34342	0.03797
1359.05765	0.03689
1357.77188	0.03591
1356.48611	0.03501
1355.20034	0.03416
1353.91457	0.03334
1352.62881	0.03256
1351.34304	0.03184
1350.05727	0.03115
1348.77150	0.03048
1347.48573	0.02982
1346.19996	0.02920
1344.91419	0.02861
1343.62842	0.02806
1342.34266	0.02755
1341.05689	0.02710
1339.77112	0.02670
1338.48535	0.02636
1337.19958	0.02604
1335.91381	0.02571
1334.62804	0.02535
1333.34227	0.02498
1332.05650	0.02462
1330.77074	0.02429
1329.48497	0.02399
1328.19920	0.02371
1326.91343	0.02349
1325.62766	0.02334
1324.34189	0.02322
1323.05612	0.02309
1321.77035	0.02292
1320.48459	0.02270
1319.19882	0.02249
1317.91305	0.02229
1316.62728	0.02211
1315.34151	0.02189
1314.05574	0.02167
1312.76997	0.02146
1311.48420	0.02130
1310.19843	0.02117
1308.91267	0.02102
1307.62690	0.02085
1306.34113	0.02067
1305.05536	0.02050
1303.76959	0.02035
1302.48382	0.02019
1301.19805	0.02004
1299.91228	0.01991
1298.62652	0.01978
1297.34075	0.01965
1296.05498	0.01952
1294.76921	0.01941
1293.48344	0.01933
1292.19767	0.01928
1290.91190	0.01922
1289.62613	0.01912
1288.34036	0.01899
1287.05460	0.01881
1285.76883	0.01862
1284.48306	0.01846
1283.19729	0.01836
1281.91152	0.01831
1280.62575	0.01826
1279.33998	0.01818
1278.05421	0.01810
1276.76845	0.01802
1275.48268	0.01797
1274.19691	0.01790
1272.91114	0.01780
1271.62537	0.01769
1270.33960	0.01761
1269.05383	0.01757
1267.76806	0.01755
1266.48229	0.01750
1265.19653	0.01743
1263.91076	0.01734
1262.62499	0.01728
1261.33922	0.01724
1260.05345	0.01720
1258.76768	0.01714
1257.48191	0.01706
1256.19614	0.01697
1254.91037	0.01691
1253.62461	0.01690
1252.33884	0.01692
1251.05307	0.01692
1249.76730	0.01686
1248.48153	0.01676
1247.19576	0.01663
1245.90999	0.01653
1244.62422	0.01648
1243.33846	0.01647
1242.05269	0.01647
1240.76692	0.01645
1239.48115	0.01640
1238.19538	0.01631
1236.90961	0.01622
1235.62384	0.01613
1234.33807	0.01605
1233.05230	0.01600
1231.76654	0.01596
1230.48077	0.01591
1229.19500	0.01583
1227.90923	0.01573
1226.62346	0.01562
1225.33769	0.01553
1224.05192	0.01547
1222.76615	0.01546
1221.48039	0.01547
1220.19462	0.01549
1218.90885	0.01548
1217.62308	0.01543
1216.33731	0.01537
1215.05154	0.01533
1213.76577	0.01533
1212.48000	0.01533
1211.19423	0.01531
1209.90847	0.01529
1208.62270	0.01530
1207.33693	0.01533
1206.05116	0.01534
1204.76539	0.01531
1203.47962	0.01526
1202.19385	0.01525
1200.90808	0.01527
1199.62232	0.01528
1198.33655	0.01535
1197.05078	0.01538
1195.76501	0.01536
1194.47924	0.01533
1193.19347	0.01531
1191.90770	0.01531
1190.62193	0.01533
1189.33616	0.01535
1188.05040	0.01535
1186.76463	0.01533
1185.47886	0.01536
1184.19309	0.01547
1182.90732	0.01561
1181.62155	0.01571
1180.33578	0.01574
1179.05001	0.01575
1177.76425	0.01578
1176.47848	0.01584
1175.19271	0.01593
1173.90694	0.01605
1172.62117	0.01622
1171.33540	0.01641
1170.04963	0.01661
1168.76386	0.01680
1167.47809	0.01702
1166.19233	0.01724
1164.90656	0.01743
1163.62079	0.01759
1162.33502	0.01777
1161.04925	0.01803
1159.76348	0.01834
1158.47771	0.01868
1157.19194	0.01903
1155.90618	0.01941
1154.62041	0.01979
1153.33464	0.02014
1152.04887	0.02049
1150.76310	0.02090
1149.47733	0.02142
1148.19156	0.02207
1146.90579	0.02282
1145.62002	0.02364
1144.33426	0.02450
1143.04849	0.02535
1141.76272	0.02620
1140.47695	0.02712
1139.19118	0.02816
1137.90541	0.02937
1136.61964	0.03072
1135.33387	0.03220
1134.04811	0.03383
1132.76234	0.03560
1131.47657	0.03754
1130.19080	0.03966
1128.90503	0.04199
1127.61926	0.04454
1126.33349	0.04727
1125.04772	0.05015
1123.76195	0.05316
1122.47619	0.05630
1121.19042	0.05953
1119.90465	0.06282
1118.61888	0.06612
1117.33311	0.06939
1116.04734	0.07263
1114.76157	0.07583
1113.47580	0.07899
1112.19004	0.08210
1110.90427	0.08516
1109.61850	0.08817
1108.33273	0.09114
1107.04696	0.09403
1105.76119	0.09679
1104.47542	0.09941
1103.18965	0.10196
1101.90388	0.10450
1100.61812	0.10705
1099.33235	0.10959
1098.04658	0.11203
1096.76081	0.11434
1095.47504	0.11654
1094.18927	0.11866
1092.90350	0.12068
1091.61773	0.12253
1090.33197	0.12419
1089.04620	0.12573
1087.76043	0.12730
1086.47466	0.12898
1085.18889	0.13076
1083.90312	0.13262
1082.61735	0.13455
1081.33158	0.13658
1080.04581	0.13874
1078.76005	0.14105
1077.47428	0.14352
1076.18851	0.14612
1074.90274	0.14875
1073.61697	0.15144
1072.33120	0.15425
1071.04543	0.15719
1069.75966	0.16017
1068.47390	0.16308
1067.18813	0.16596
1065.90236	0.16894
1064.61659	0.17206
1063.33082	0.17524
1062.04505	0.17839
1060.75928	0.18150
1059.47351	0.18457
1058.18774	0.18757
1056.90198	0.19048
1055.61621	0.19333
1054.33044	0.19618
1053.04467	0.19905
1051.75890	0.20195
1050.47313	0.20486
1049.18736	0.20779
1047.90159	0.21076
1046.61583	0.21384
1045.33006	0.21703
1044.04429	0.22033
1042.75852	0.22369
1041.47275	0.22705
1040.18698	0.23038
1038.90121	0.23365
1037.61544	0.23691
1036.32967	0.24019
1035.04391	0.24346
1033.75814	0.24656
1032.47237	0.24930
1031.18660	0.25162
1029.90083	0.25361
1028.61506	0.25538
1027.32929	0.25695
1026.04352	0.25823
1024.75775	0.25920
1023.47199	0.25984
1022.18622	0.26014
1020.90045	0.26003
1019.61468	0.25944
1018.32891	0.25840
1017.04314	0.25695
1015.75737	0.25512
1014.47160	0.25290
1013.18584	0.25031
1011.90007	0.24732
1010.61430	0.24392
1009.32853	0.24007
1008.04276	0.23581
1006.75699	0.23120
1005.47122	0.22630
1004.18545	0.22108
1002.89968	0.21550
1001.61392	0.20956
1000.32815	0.20333
999.04238	0.19693
997.75661	0.19045
996.47084	0.18393
995.18507	0.17734
993.89930	0.17067
992.61353	0.16397
991.32777	0.15733
990.04200	0.15082
988.75623	0.14447
987.47046	0.13832
986.18469	0.13244
984.89892	0.12689
983.61315	0.12170
982.32738	0.11685
981.04161	0.11225
979.75585	0.10788
978.47008	0.10378
977.18431	0.10006
975.89854	0.09683
974.61277	0.09417
973.32700	0.09206
972.04123	0.09045
970.75546	0.08929
969.46970	0.08862
968.18393	0.08853
966.89816	0.08905
965.61239	0.09001
964.32662	0.09107
963.04085	0.09189
961.75508	0.09227
960.46931	0.09213
959.18354	0.09144
957.89778	0.09016
956.61201	0.08831
955.32624	0.08600
954.04047	0.08344
952.75470	0.08082
951.46893	0.07825
950.18316	0.07572
948.89739	0.07320
947.61163	0.07070
946.32586	0.06830
945.04009	0.06606
943.75432	0.06396
942.46855	0.06194
941.18278	0.06000
939.89701	0.05820
938.61124	0.05660
937.32547	0.05514
936.03971	0.05374
934.75394	0.05234
933.46817	0.05101
932.18240	0.04981
930.89663	0.04876
929.61086	0.04784
928.32509	0.04704
927.03932	0.04637
925.75356	0.04578
924.46779	0.04517
923.18202	0.04444
921.89625	0.04363
920.61048	0.04292
919.32471	0.04240
918.03894	0.04203
916.75317	0.04168
915.46740	0.04128
914.18164	0.04085
912.89587	0.04044
911.61010	0.04008
910.32433	0.03977
909.03856	0.03950
907.75279	0.03926
906.46702	0.03904
905.18125	0.03882
903.89549	0.03856
902.60972	0.03820
901.32395	0.03782
900.03818	0.03749
898.75241	0.03727
897.46664	0.03713
896.18087	0.03706
894.89510	0.03706
893.60933	0.03712
892.32357	0.03719
891.03780	0.03727
889.75203	0.03743
888.46626	0.03782
887.18049	0.03862
885.89472	0.04001
884.60895	0.04213
883.32318	0.04495
882.03742	0.04812
880.75165	0.05105
879.46588	0.05335
878.18011	0.05503
876.89434	0.05641
875.60857	0.05778
874.32280	0.05913
873.03703	0.06012
871.75126	0.06044
870.46550	0.05997
869.17973	0.05881
867.89396	0.05715
866.60819	0.05513
865.32242	0.05286
864.03665	0.05051
862.75088	0.04827
861.46511	0.04628
860.17935	0.04454
858.89358	0.04302
857.60781	0.04169
856.32204	0.04054
855.03627	0.03957
853.75050	0.03876
852.46473	0.03812
851.17896	0.03764
849.89319	0.03729
848.60743	0.03701
847.32166	0.03675
846.03589	0.03652
844.75012	0.03628
843.46435	0.03603
842.17858	0.03573
840.89281	0.03541
839.60704	0.03514
838.32128	0.03492
837.03551	0.03471
835.74974	0.03446
834.46397	0.03418
833.17820	0.03394
831.89243	0.03376
830.60666	0.03364
829.32089	0.03356
828.03512	0.03350
826.74936	0.03343
825.46359	0.03336
824.17782	0.03329
822.89205	0.03323
821.60628	0.03316
820.32051	0.03310
819.03474	0.03310
817.74897	0.03318
816.46321	0.03331
815.17744	0.03338
813.89167	0.03331
812.60590	0.03312
811.32013	0.03290
810.03436	0.03275
808.74859	0.03272
807.46282	0.03279
806.17705	0.03287
804.89129	0.03287
803.60552	0.03278
802.31975	0.03265
801.03398	0.03255
799.74821	0.03250
798.46244	0.03246
797.17667	0.03243
795.89090	0.03244
794.60513	0.03249
793.31937	0.03256
792.03360	0.03263
790.74783	0.03268
789.46206	0.03270
788.17629	0.03269
786.89052	0.03266
785.60475	0.03264
784.31898	0.03264
783.03322	0.03262
781.74745	0.03256
780.46168	0.03248
779.17591	0.03241
777.89014	0.03242
776.60437	0.03247
775.31860	0.03255
774.03283	0.03260
772.74706	0.03264
771.46130	0.03267
770.17553	0.03267
768.88976	0.03259
767.60399	0.03244
766.31822	0.03228
765.03245	0.03219
763.74668	0.03220
762.46091	0.03229
761.17515	0.03241
759.88938	0.03252
758.60361	0.03260
757.31784	0.03265
756.03207	0.03270
754.74630	0.03279
753.46053	0.03295
752.17476	0.03314
750.88899	0.03326
749.60323	0.03318
748.31746	0.03293
747.03169	0.03265
745.74592	0.03250
744.46015	0.03255
743.17438	0.03267
741.88861	0.03267
740.60284	0.03252
739.31708	0.03236
738.03131	0.03233
736.74554	0.03238
735.45977	0.03240
734.17400	0.03235
732.88823	0.03235
731.60246	0.03247
730.31669	0.03265
729.03092	0.03280
727.74516	0.03290
726.45939	0.03301
725.17362	0.03311
723.88785	0.03312
722.60208	0.03307
721.31631	0.03297
720.03054	0.03287
718.74477	0.03285
717.45901	0.03288
716.17324	0.03292
714.88747	0.03294
713.60170	0.03291
712.31593	0.03286
711.03016	0.03281
709.74439	0.03276
708.45862	0.03269
707.17285	0.03259
705.88709	0.03249
704.60132	0.03241
703.31555	0.03234
702.02978	0.03231
700.74401	0.03233
699.45824	0.03242
698.17247	0.03257
696.88670	0.03274
695.60094	0.03287
694.31517	0.03293
693.02940	0.03291
691.74363	0.03282
690.45786	0.03273
689.17209	0.03266
687.88632	0.03263
686.60055	0.03259
685.31478	0.03249
684.02902	0.03233
682.74325	0.03214
681.45748	0.03201
680.17171	0.03199
678.88594	0.03203
677.60017	0.03209
676.31440	0.03208
675.02863	0.03201
673.74287	0.03192
672.45710	0.03188
671.17133	0.03193
669.88556	0.03207
668.59979	0.03222
667.31402	0.03232
666.02825	0.03225
664.74248	0.03204
663.45671	0.03179
662.17095	0.03157
660.88518	0.03139
659.59941	0.03122
658.31364	0.03107
657.02787	0.03095
655.74210	0.03089
654.45633	0.03088
653.17056	0.03089
651.88480	0.03094
650.59903	0.03101
649.31326	0.03108
648.02749	0.03114
646.74172	0.03117
645.45595	0.03121
644.17018	0.03131
642.88441	0.03146
641.59864	0.03163
640.31288	0.03181
639.02711	0.03200
637.74134	0.03222
636.45557	0.03251
635.16980	0.03292
633.88403	0.03345
632.59826	0.03404
631.31249	0.03471
630.02673	0.03569
628.74096	0.03680
627.45519	0.03690
626.16942	0.03814
624.88365	0.04038
623.59788	0.04300
622.31211	0.04578
621.02634	0.04870
619.74057	0.05181
618.45481	0.05501
617.16904	0.05791
615.88327	0.06010
614.59750	0.06175
613.31173	0.06370
612.02596	0.06684
610.74019	0.07133
609.45442	0.07633
608.16866	0.08102
606.88289	0.08537
605.59712	0.08969
604.31135	0.09374
603.02558	0.09668
601.73981	0.09782
600.45404	0.09712
599.16827	0.09510
597.88250	0.09245
596.59674	0.08974
595.31097	0.08724
594.02520	0.08502
592.73943	0.08307
591.45366	0.08148
590.16789	0.08043
588.88212	0.08005
587.59635	0.08032
586.31059	0.08115
585.02482	0.08245
583.73905	0.08418
582.45328	0.08628
581.16751	0.08861
579.88174	0.09104
578.59597	0.09346
577.31020	0.09583
576.02443	0.09816
574.73867	0.10043
573.45290	0.10270
572.16713	0.10508
570.88136	0.10769
569.59559	0.11066
568.30982	0.11397
567.02405	0.11745
565.73828	0.12072
564.45251	0.12340
563.16675	0.12519
561.88098	0.12587
560.59521	0.12527
559.30944	0.12329
558.02367	0.11995
556.73790	0.11548
555.45213	0.11021
554.16636	0.10457
552.88060	0.09897
551.59483	0.09370
550.30906	0.08883
549.02329	0.08432
547.73752	0.08007
546.45175	0.07609
545.16598	0.07240
543.88021	0.06904
542.59444	0.06601
541.30868	0.06335
540.02291	0.06105
538.73714	0.05907
537.45137	0.05728
536.16560	0.05558
534.87983	0.05392
533.59406	0.05234
532.30829	0.05090
531.02253	0.04954
529.73676	0.04822
528.45099	0.04692
527.16522	0.04570
525.87945	0.04468
524.59368	0.04384
523.30791	0.04307
522.02214	0.04226
520.73637	0.04138
519.45061	0.04052
518.16484	0.03975
516.87907	0.03908
515.59330	0.03846
514.30753	0.03782
513.02176	0.03711
511.73599	0.03635
510.45022	0.03564
509.16446	0.03507
507.87869	0.03463
506.59292	0.03423
505.30715	0.03380
504.02138	0.03334
502.73561	0.03292
501.44984	0.03259
500.16407	0.03235
498.87830	0.03211
497.59254	0.03182
496.30677	0.03147
495.02100	0.03111
493.73523	0.03076
492.44946	0.03045
491.16369	0.03017
489.87792	0.02993
488.59215	0.02976
487.30639	0.02965
486.02062	0.02961
484.73485	0.02960
483.44908	0.02962
482.16331	0.02966
480.87754	0.02971
479.59177	0.02975
478.30600	0.02980
477.02023	0.02987
475.73447	0.03000
474.44870	0.03020
473.16293	0.03044
471.87716	0.03071
470.59139	0.03094
469.30562	0.03105
468.01985	0.03094
466.73408	0.03061
465.44832	0.03016
464.16255	0.02973
462.87678	0.02939
461.59101	0.02915
460.30524	0.02897
459.01947	0.02878
457.73370	0.02854
456.44793	0.02824
455.16216	0.02791
453.87640	0.02761
452.59063	0.02736
451.30486	0.02714
450.01909	0.02695
448.73332	0.02678
447.44755	0.02664
446.16178	0.02651
444.87601	0.02640
443.59025	0.02627
442.30448	0.02615
441.01871	0.02602
439.73294	0.02593
438.44717	0.02588
437.16140	0.02587
435.87563	0.02586
434.58986	0.02583
433.30409	0.02579
432.01833	0.02576
430.73256	0.02575
429.44679	0.02574
428.16102	0.02569
426.87525	0.02559
425.58948	0.02549
424.30371	0.02541
423.01794	0.02535
421.73218	0.02530
420.44641	0.02523
419.16064	0.02516
417.87487	0.02511
416.58910	0.02509
415.30333	0.02504
414.01756	0.02493
412.73179	0.02481
411.44602	0.02473
410.16026	0.02476
408.87449	0.02487
407.58872	0.02501
406.30295	0.02511
405.01718	0.02518
403.73141	0.02525
402.44564	0.02538
401.15987	0.02556
399.87411	0.02576
