3997.45528	0.03868
3996.16951	0.03878
3994.88374	0.03911
3993.59798	0.03939
3992.31221	0.03933
3991.02644	0.03900
3989.74067	0.03858
3988.45490	0.03811
3987.16913	0.03766
3985.88336	0.03742
3984.59759	0.03766
3983.31183	0.03837
3982.02606	0.03930
3980.74029	0.04007
3979.45452	0.04049
3978.16875	0.04053
3976.88298	0.04032
3975.59721	0.03992
3974.31144	0.03935
3973.02567	0.03862
3971.73991	0.03791
3970.45414	0.03753
3969.16837	0.03768
3967.88260	0.03834
3966.59683	0.03926
3965.31106	0.04013
3964.02529	0.04056
3962.73952	0.04027
3961.45376	0.03931
3960.16799	0.03817
3958.88222	0.03754
3957.59645	0.03765
3956.31068	0.03814
3955.02491	0.03842
3953.73914	0.03820
3952.45337	0.03757
3951.16760	0.03682
3949.88184	0.03623
3948.59607	0.03589
3947.31030	0.03579
3946.02453	0.03584
3944.73876	0.03603
3943.45299	0.03626
3942.16722	0.03637
3940.88145	0.03629
3939.59569	0.03617
3938.30992	0.03622
3937.02415	0.03644
3935.73838	0.03669
3934.45261	0.03681
3933.16684	0.03671
3931.88107	0.03634
3930.59530	0.03582
3929.30953	0.03544
3928.02377	0.03549
3926.73800	0.03598
3925.45223	0.03661
3924.16646	0.03704
3922.88069	0.03714
3921.59492	0.03698
3920.30915	0.03667
3919.02338	0.03624
3917.73762	0.03568
3916.45185	0.03511
3915.16608	0.03480
3913.88031	0.03491
3912.59454	0.03533
3911.30877	0.03572
3910.02300	0.03586
3908.73723	0.03577
3907.45146	0.03567
3906.16570	0.03579
3904.87993	0.03612
3903.59416	0.03644
3902.30839	0.03652
3901.02262	0.03622
3899.73685	0.03557
3898.45108	0.03475
3897.16531	0.03415
3895.87955	0.03405
3894.59378	0.03442
3893.30801	0.03494
3892.02224	0.03526
3890.73647	0.03509
3889.45070	0.03446
3888.16493	0.03364
3886.87916	0.03290
3885.59339	0.03236
3884.30763	0.03209
3883.02186	0.03216
3881.73609	0.03246
3880.45032	0.03272
3879.16455	0.03285
3877.87878	0.03305
3876.59301	0.03342
3875.30724	0.03371
3874.02148	0.03361
3872.73571	0.03326
3871.44994	0.03303
3870.16417	0.03297
3868.87840	0.03285
3867.59263	0.03271
3866.30686	0.03276
3865.02109	0.03298
3863.73532	0.03330
3862.44956	0.03367
3861.16379	0.03388
3859.87802	0.03362
3858.59225	0.03278
3857.30648	0.03180
3856.02071	0.03133
3854.73494	0.03160
3853.44917	0.03217
3852.16341	0.03258
3850.87764	0.03275
3849.59187	0.03276
3848.30610	0.03262
3847.02033	0.03232
3845.73456	0.03197
3844.44879	0.03168
3843.16302	0.03152
3841.87725	0.03152
3840.59149	0.03172
3839.30572	0.03199
3838.01995	0.03206
3836.73418	0.03175
3835.44841	0.03123
3834.16264	0.03090
3832.87687	0.03098
3831.59110	0.03149
3830.30534	0.03223
3829.01957	0.03292
3827.73380	0.03330
3826.44803	0.03336
3825.16226	0.03338
3823.87649	0.03362
3822.59072	0.03386
3821.30495	0.03356
3820.01918	0.03265
3818.73342	0.03183
3817.44765	0.03175
3816.16188	0.03218
3814.87611	0.03254
3813.59034	0.03263
3812.30457	0.03247
3811.01880	0.03200
3809.73303	0.03129
3808.44726	0.03060
3807.16150	0.03012
3805.87573	0.03000
3804.58996	0.03051
3803.30419	0.03171
3802.01842	0.03299
3800.73265	0.03358
3799.44688	0.03337
3798.16111	0.03285
3796.87535	0.03235
3795.58958	0.03184
3794.30381	0.03140
3793.01804	0.03123
3791.73227	0.03142
3790.44650	0.03179
3789.16073	0.03214
3787.87496	0.03236
3786.58919	0.03244
3785.30343	0.03230
3784.01766	0.03181
3782.73189	0.03102
3781.44612	0.03027
3780.16035	0.02986
3778.87458	0.02990
3777.58881	0.03033
3776.30304	0.03094
3775.01728	0.03143
3773.73151	0.03161
3772.44574	0.03162
3771.15997	0.03167
3769.87420	0.03182
3768.58843	0.03198
3767.30266	0.03207
3766.01689	0.03205
3764.73112	0.03192
3763.44536	0.03183
3762.15959	0.03187
3760.87382	0.03183
3759.58805	0.03139
3758.30228	0.03059
3757.01651	0.02983
3755.73074	0.02961
3754.44497	0.03013
3753.15921	0.03096
3751.87344	0.03147
3750.58767	0.03151
3749.30190	0.03142
3748.01613	0.03146
3746.73036	0.03168
3745.44459	0.03179
3744.15882	0.03146
3742.87305	0.03087
3741.58729	0.03043
3740.30152	0.03009
3739.01575	0.02963
3737.72998	0.02927
3736.44421	0.02931
3735.15844	0.02980
3733.87267	0.03048
3732.58690	0.03092
3731.30114	0.03073
3730.01537	0.02998
3728.72960	0.02923
3727.44383	0.02899
3726.15806	0.02932
3724.87229	0.02996
3723.58652	0.03053
3722.30075	0.03073
3721.01498	0.03056
3719.72922	0.03042
3718.44345	0.03069
3717.15768	0.03128
3715.87191	0.03175
3714.58614	0.03168
3713.30037	0.03107
3712.01460	0.03034
3710.72883	0.03000
3709.44307	0.03022
3708.15730	0.03058
3706.87153	0.03051
3705.58576	0.02984
3704.29999	0.02893
3703.01422	0.02834
3701.72845	0.02840
3700.44268	0.02901
3699.15691	0.02971
3697.87115	0.02999
3696.58538	0.02970
3695.29961	0.02918
3694.01384	0.02884
3692.72807	0.02869
3691.44230	0.02855
3690.15653	0.02846
3688.87076	0.02847
3687.58500	0.02850
3686.29923	0.02848
3685.01346	0.02847
3683.72769	0.02851
3682.44192	0.02856
3681.15615	0.02853
3679.87038	0.02827
3678.58461	0.02795
3677.29884	0.02797
3676.01308	0.02846
3674.72731	0.02898
3673.44154	0.02914
3672.15577	0.02911
3670.87000	0.02919
3669.58423	0.02945
3668.29846	0.02975
3667.01269	0.02990
3665.72693	0.02989
3664.44116	0.02991
3663.15539	0.03008
3661.86962	0.03020
3660.58385	0.02995
3659.29808	0.02944
3658.01231	0.02923
3656.72654	0.02977
3655.44077	0.03078
3654.15501	0.03154
3652.86924	0.03167
3651.58347	0.03127
3650.29770	0.03077
3649.01193	0.03045
3647.72616	0.03035
3646.44039	0.03028
3645.15462	0.03003
3643.86886	0.02954
3642.58309	0.02904
3641.29732	0.02879
3640.01155	0.02891
3638.72578	0.02919
3637.44001	0.02933
3636.15424	0.02912
3634.86847	0.02854
3633.58270	0.02777
3632.29694	0.02720
3631.01117	0.02717
3629.72540	0.02757
3628.43963	0.02792
3627.15386	0.02808
3625.86809	0.02839
3624.58232	0.02902
3623.29655	0.02973
3622.01079	0.03014
3620.72502	0.03010
3619.43925	0.02974
3618.15348	0.02930
3616.86771	0.02898
3615.58194	0.02878
3614.29617	0.02865
3613.01040	0.02861
3611.72463	0.02872
3610.43887	0.02895
3609.15310	0.02913
3607.86733	0.02921
3606.58156	0.02938
3605.29579	0.02974
3604.01002	0.03002
3602.72425	0.02994
3601.43848	0.02953
3600.15272	0.02910
3598.86695	0.02884
3597.58118	0.02869
3596.29541	0.02848
3595.00964	0.02813
3593.72387	0.02771
3592.43810	0.02742
3591.15233	0.02742
3589.86656	0.02772
3588.58080	0.02804
3587.29503	0.02806
3586.00926	0.02775
3584.72349	0.02736
3583.43772	0.02714
3582.15195	0.02714
3580.86618	0.02728
3579.58041	0.02748
3578.29464	0.02770
3577.00888	0.02794
3575.72311	0.02820
3574.43734	0.02850
3573.15157	0.02882
3571.86580	0.02913
3570.58003	0.02937
3569.29426	0.02961
3568.00849	0.02993
3566.72273	0.03033
3565.43696	0.03071
3564.15119	0.03094
3562.86542	0.03092
3561.57965	0.03060
3560.29388	0.03017
3559.00811	0.02991
3557.72234	0.02994
3556.43657	0.03009
3555.15081	0.03005
3553.86504	0.02977
3552.57927	0.02950
3551.29350	0.02952
3550.00773	0.02985
3548.72196	0.03025
3547.43619	0.03049
3546.15042	0.03052
3544.86466	0.03042
3543.57889	0.03033
3542.29312	0.03029
3541.00735	0.03028
3539.72158	0.03025
3538.43581	0.03011
3537.15004	0.02987
3535.86427	0.02963
3534.57850	0.02955
3533.29274	0.02965
3532.00697	0.02969
3530.72120	0.02944
3529.43543	0.02893
3528.14966	0.02858
3526.86389	0.02874
3525.57812	0.02939
3524.29235	0.03017
3523.00659	0.03074
3521.72082	0.03092
3520.43505	0.03070
3519.14928	0.03016
3517.86351	0.02958
3516.57774	0.02930
3515.29197	0.02956
3514.00620	0.03024
3512.72043	0.03092
3511.43467	0.03124
3510.14890	0.03109
3508.86313	0.03066
3507.57736	0.03028
3506.29159	0.03013
3505.00582	0.03011
3503.72005	0.03008
3502.43428	0.03009
3501.14852	0.03030
3499.86275	0.03071
3498.57698	0.03111
3497.29121	0.03121
3496.00544	0.03089
3494.71967	0.03030
3493.43390	0.02978
3492.14813	0.02964
3490.86236	0.02987
3489.57660	0.03023
3488.29083	0.03051
3487.00506	0.03064
3485.71929	0.03069
3484.43352	0.03072
3483.14775	0.03073
3481.86198	0.03070
3480.57621	0.03061
3479.29045	0.03049
3478.00468	0.03044
3476.71891	0.03052
3475.43314	0.03064
3474.14737	0.03062
3472.86160	0.03042
3471.57583	0.03021
3470.29006	0.03024
3469.00429	0.03059
3467.71853	0.03107
3466.43276	0.03144
3465.14699	0.03161
3463.86122	0.03172
3462.57545	0.03189
3461.28968	0.03204
3460.00391	0.03199
3458.71814	0.03170
3457.43238	0.03135
3456.14661	0.03114
3454.86084	0.03103
3453.57507	0.03087
3452.28930	0.03068
3451.00353	0.03065
3449.71776	0.03090
3448.43199	0.03134
3447.14622	0.03178
3445.86046	0.03214
3444.57469	0.03245
3443.28892	0.03266
3442.00315	0.03268
3440.71738	0.03257
3439.43161	0.03251
3438.14584	0.03263
3436.86007	0.03288
3435.57431	0.03312
3434.28854	0.03325
3433.00277	0.03320
3431.71700	0.03299
3430.43123	0.03266
3429.14546	0.03230
3427.85969	0.03199
3426.57392	0.03178
3425.28815	0.03167
3424.00239	0.03166
3422.71662	0.03172
3421.43085	0.03186
3420.14508	0.03201
3418.85931	0.03208
3417.57354	0.03203
3416.28777	0.03195
3415.00200	0.03198
3413.71624	0.03218
3412.43047	0.03242
3411.14470	0.03260
3409.85893	0.03277
3408.57316	0.03301
3407.28739	0.03334
3406.00162	0.03364
3404.71585	0.03377
3403.43008	0.03358
3402.14432	0.03315
3400.85855	0.03275
3399.57278	0.03267
3398.28701	0.03289
3397.00124	0.03313
3395.71547	0.03305
3394.42970	0.03257
3393.14393	0.03191
3391.85817	0.03141
3390.57240	0.03129
3389.28663	0.03153
3388.00086	0.03203
3386.71509	0.03263
3385.42932	0.03316
3384.14355	0.03351
3382.85778	0.03366
3381.57201	0.03369
3380.28625	0.03357
3379.00048	0.03321
3377.71471	0.03265
3376.42894	0.03216
3375.14317	0.03207
3373.85740	0.03249
3372.57163	0.03314
3371.28586	0.03366
3370.00010	0.03391
3368.71433	0.03403
3367.42856	0.03417
3366.14279	0.03428
3364.85702	0.03425
3363.57125	0.03405
3362.28548	0.03378
3360.99971	0.03357
3359.71394	0.03346
3358.42818	0.03341
3357.14241	0.03338
3355.85664	0.03335
3354.57087	0.03335
3353.28510	0.03342
3351.99933	0.03359
3350.71356	0.03384
3349.42779	0.03405
3348.14202	0.03410
3346.85626	0.03391
3345.57049	0.03356
3344.28472	0.03327
3342.99895	0.03325
3341.71318	0.03354
3340.42741	0.03393
3339.14164	0.03417
3337.85587	0.03418
3336.57011	0.03402
3335.28434	0.03380
3333.99857	0.03357
3332.71280	0.03338
3331.42703	0.03337
3330.14126	0.03354
3328.85549	0.03375
3327.56972	0.03382
3326.28395	0.03375
3324.99819	0.03369
3323.71242	0.03384
3322.42665	0.03422
3321.14088	0.03462
3319.85511	0.03471
3318.56934	0.03442
3317.28357	0.03397
3315.99780	0.03366
3314.71204	0.03356
3313.42627	0.03354
3312.14050	0.03348
3310.85473	0.03345
3309.56896	0.03361
3308.28319	0.03393
3306.99742	0.03424
3305.71165	0.03437
3304.42588	0.03428
3303.14012	0.03405
3301.85435	0.03374
3300.56858	0.03347
3299.28281	0.03334
3297.99704	0.03334
3296.71127	0.03334
3295.42550	0.03328
3294.13973	0.03322
3292.85397	0.03322
3291.56820	0.03322
3290.28243	0.03314
3288.99666	0.03303
3287.71089	0.03306
3286.42512	0.03329
3285.13935	0.03356
3283.85358	0.03361
3282.56781	0.03330
3281.28205	0.03280
3279.99628	0.03245
3278.71051	0.03248
3277.42474	0.03284
3276.13897	0.03332
3274.85320	0.03375
3273.56743	0.03407
3272.28166	0.03424
3270.99590	0.03414
3269.71013	0.03369
3268.42436	0.03305
3267.13859	0.03252
3265.85282	0.03232
3264.56705	0.03245
3263.28128	0.03273
3261.99551	0.03305
3260.70974	0.03335
3259.42398	0.03357
3258.13821	0.03366
3256.85244	0.03369
3255.56667	0.03381
3254.28090	0.03405
3252.99513	0.03421
3251.70936	0.03406
3250.42359	0.03362
3249.13783	0.03309
3247.85206	0.03272
3246.56629	0.03255
3245.28052	0.03247
3243.99475	0.03231
3242.70898	0.03200
3241.42321	0.03159
3240.13744	0.03117
3238.85167	0.03088
3237.56591	0.03085
3236.28014	0.03100
3234.99437	0.03110
3233.70860	0.03100
3232.42283	0.03080
3231.13706	0.03078
3229.85129	0.03109
3228.56552	0.03163
3227.27976	0.03215
3225.99399	0.03246
3224.70822	0.03261
3223.42245	0.03271
3222.13668	0.03284
3220.85091	0.03289
3219.56514	0.03267
3218.27937	0.03214
3216.99360	0.03147
3215.70784	0.03101
3214.42207	0.03099
3213.13630	0.03129
3211.85053	0.03153
3210.56476	0.03146
3209.27899	0.03116
3207.99322	0.03096
3206.70745	0.03111
3205.42169	0.03153
3204.13592	0.03191
3202.85015	0.03192
3201.56438	0.03150
3200.27861	0.03090
3198.99284	0.03050
3197.70707	0.03051
3196.42130	0.03081
3195.13553	0.03109
3193.84977	0.03119
3192.56400	0.03110
3191.27823	0.03086
3189.99246	0.03053
3188.70669	0.03018
3187.42092	0.02994
3186.13515	0.02989
3184.84938	0.02998
3183.56362	0.03012
3182.27785	0.03022
3180.99208	0.03022
3179.70631	0.03008
3178.42054	0.02976
3177.13477	0.02929
3175.84900	0.02881
3174.56323	0.02850
3173.27746	0.02846
3171.99170	0.02868
3170.70593	0.02910
3169.42016	0.02966
3168.13439	0.03027
3166.84862	0.03076
3165.56285	0.03097
3164.27708	0.03084
3162.99131	0.03049
3161.70555	0.03004
3160.41978	0.02953
3159.13401	0.02901
3157.84824	0.02855
3156.56247	0.02825
3155.27670	0.02806
3153.99093	0.02785
3152.70516	0.02769
3151.41939	0.02781
3150.13363	0.02826
3148.84786	0.02871
3147.56209	0.02873
3146.27632	0.02832
3144.99055	0.02783
3143.70478	0.02758
3142.41901	0.02755
3141.13324	0.02752
3139.84748	0.02739
3138.56171	0.02725
3137.27594	0.02723
3135.99017	0.02733
3134.70440	0.02747
3133.41863	0.02766
3132.13286	0.02792
3130.84709	0.02822
3129.56132	0.02847
3128.27556	0.02855
3126.98979	0.02840
3125.70402	0.02800
3124.41825	0.02742
3123.13248	0.02685
3121.84671	0.02647
3120.56094	0.02632
3119.27517	0.02631
3117.98940	0.02632
3116.70364	0.02634
3115.41787	0.02639
3114.13210	0.02638
3112.84633	0.02628
3111.56056	0.02622
3110.27479	0.02640
3108.98902	0.02684
3107.70325	0.02732
3106.41749	0.02749
3105.13172	0.02725
3103.84595	0.02672
3102.56018	0.02617
3101.27441	0.02585
3099.98864	0.02585
3098.70287	0.02607
3097.41710	0.02630
3096.13133	0.02639
3094.84557	0.02640
3093.55980	0.02643
3092.27403	0.02645
3090.98826	0.02636
3089.70249	0.02616
3088.41672	0.02595
3087.13095	0.02585
3085.84518	0.02590
3084.55942	0.02601
3083.27365	0.02609
3081.98788	0.02611
3080.70211	0.02614
3079.41634	0.02627
3078.13057	0.02645
3076.84480	0.02650
3075.55903	0.02629
3074.27326	0.02593
3072.98750	0.02563
3071.70173	0.02556
3070.41596	0.02569
3069.13019	0.02586
3067.84442	0.02589
3066.55865	0.02568
3065.27288	0.02528
3063.98711	0.02484
3062.70135	0.02456
3061.41558	0.02448
3060.12981	0.02451
3058.84404	0.02456
3057.55827	0.02463
3056.27250	0.02478
3054.98673	0.02500
3053.70096	0.02521
3052.41519	0.02536
3051.12943	0.02551
3049.84366	0.02575
3048.55789	0.02601
3047.27212	0.02605
3045.98635	0.02577
3044.70058	0.02532
3043.41481	0.02500
3042.12904	0.02495
3040.84328	0.02506
3039.55751	0.02510
3038.27174	0.02494
3036.98597	0.02461
3035.70020	0.02421
3034.41443	0.02382
3033.12866	0.02349
3031.84289	0.02325
3030.55712	0.02310
3029.27136	0.02300
3027.98559	0.02288
3026.69982	0.02270
3025.41405	0.02257
3024.12828	0.02264
3022.84251	0.02302
3021.55674	0.02355
3020.27097	0.02386
3018.98521	0.02373
3017.69944	0.02333
3016.41367	0.02303
3015.12790	0.02310
3013.84213	0.02343
3012.55636	0.02378
3011.27059	0.02394
3009.98482	0.02389
3008.69905	0.02374
3007.41329	0.02363
3006.12752	0.02362
3004.84175	0.02372
3003.55598	0.02388
3002.27021	0.02400
3000.98444	0.02403
2999.69867	0.02397
2998.41290	0.02386
2997.12714	0.02388
2995.84137	0.02412
2994.55560	0.02449
2993.26983	0.02475
2991.98406	0.02476
2990.69829	0.02460
2989.41252	0.02436
2988.12675	0.02408
2986.84098	0.02375
2985.55522	0.02342
2984.26945	0.02325
2982.98368	0.02331
2981.69791	0.02355
2980.41214	0.02388
2979.12637	0.02431
2977.84060	0.02487
2976.55483	0.02543
2975.26907	0.02581
2973.98330	0.02586
2972.69753	0.02565
2971.41176	0.02531
2970.12599	0.02496
2968.84022	0.02472
2967.55445	0.02470
2966.26868	0.02490
2964.98291	0.02526
2963.69715	0.02566
2962.41138	0.02609
2961.12561	0.02648
2959.83984	0.02668
2958.55407	0.02654
2957.26830	0.02607
2955.98253	0.02552
2954.69676	0.02523
2953.41100	0.02543
2952.12523	0.02599
2950.83946	0.02653
2949.55369	0.02679
2948.26792	0.02681
2946.98215	0.02679
2945.69638	0.02680
2944.41061	0.02676
2943.12484	0.02664
2941.83908	0.02654
2940.55331	0.02655
2939.26754	0.02661
2937.98177	0.02659
2936.69600	0.02650
2935.41023	0.02642
2934.12446	0.02648
2932.83869	0.02671
2931.55293	0.02701
2930.26716	0.02730
2928.98139	0.02752
2927.69562	0.02769
2926.40985	0.02781
2925.12408	0.02780
2923.83831	0.02756
2922.55254	0.02709
2921.26677	0.02657
2919.98101	0.02623
2918.69524	0.02614
2917.40947	0.02619
2916.12370	0.02623
2914.83793	0.02619
2913.55216	0.02609
2912.26639	0.02595
2910.98062	0.02576
2909.69486	0.02555
2908.40909	0.02535
2907.12332	0.02524
2905.83755	0.02519
2904.55178	0.02512
2903.26601	0.02494
2901.98024	0.02471
2900.69447	0.02452
2899.40870	0.02438
2898.12294	0.02424
2896.83717	0.02406
2895.55140	0.02385
2894.26563	0.02372
2892.97986	0.02373
2891.69409	0.02379
2890.40832	0.02373
2889.12255	0.02346
2887.83678	0.02318
2886.55102	0.02311
2885.26525	0.02329
2883.97948	0.02353
2882.69371	0.02371
2881.40794	0.02382
2880.12217	0.02387
2878.83640	0.02388
2877.55063	0.02392
2876.26487	0.02402
2874.97910	0.02416
2873.69333	0.02424
2872.40756	0.02424
2871.12179	0.02414
2869.83602	0.02397
2868.55025	0.02376
2867.26448	0.02354
2865.97871	0.02333
2864.69295	0.02316
2863.40718	0.02306
2862.12141	0.02305
2860.83564	0.02313
2859.54987	0.02322
2858.26410	0.02323
2856.97833	0.02308
2855.69256	0.02277
2854.40680	0.02245
2853.12103	0.02229
2851.83526	0.02231
2850.54949	0.02245
2849.26372	0.02261
2847.97795	0.02274
2846.69218	0.02278
2845.40641	0.02266
2844.12064	0.02242
2842.83488	0.02218
2841.54911	0.02208
2840.26334	0.02206
2838.97757	0.02197
2837.69180	0.02174
2836.40603	0.02145
2835.12026	0.02121
2833.83449	0.02107
2832.54873	0.02100
2831.26296	0.02097
2829.97719	0.02098
2828.69142	0.02100
2827.40565	0.02102
2826.11988	0.02102
2824.83411	0.02091
2823.54834	0.02069
2822.26257	0.02050
2820.97681	0.02046
2819.69104	0.02053
2818.40527	0.02045
2817.11950	0.02005
2815.83373	0.01944
2814.54796	0.01893
2813.26219	0.01874
2811.97642	0.01885
2810.69066	0.01909
2809.40489	0.01924
2808.11912	0.01921
2806.83335	0.01906
2805.54758	0.01890
2804.26181	0.01878
2802.97604	0.01867
2801.69027	0.01854
2800.40450	0.01840
2799.11874	0.01830
2797.83297	0.01826
2796.54720	0.01822
2795.26143	0.01816
2793.97566	0.01807
2792.68989	0.01801
2791.40412	0.01801
2790.11835	0.01810
2788.83259	0.01828
2787.54682	0.01855
2786.26105	0.01881
2784.97528	0.01895
2783.68951	0.01895
2782.40374	0.01881
2781.11797	0.01860
2779.83220	0.01841
2778.54643	0.01831
2777.26067	0.01830
2775.97490	0.01833
2774.68913	0.01835
2773.40336	0.01836
2772.11759	0.01834
2770.83182	0.01828
2769.54605	0.01821
2768.26028	0.01820
2766.97452	0.01825
2765.68875	0.01828
2764.40298	0.01817
2763.11721	0.01790
2761.83144	0.01761
2760.54567	0.01748
2759.25990	0.01759
2757.97413	0.01784
2756.68836	0.01805
2755.40260	0.01811
2754.11683	0.01801
2752.83106	0.01781
2751.54529	0.01760
2750.25952	0.01743
2748.97375	0.01733
2747.68798	0.01728
2746.40221	0.01728
2745.11645	0.01731
2743.83068	0.01733
2742.54491	0.01731
2741.25914	0.01729
2739.97337	0.01728
2738.68760	0.01723
2737.40183	0.01714
2736.11606	0.01704
2734.83029	0.01702
2733.54453	0.01709
2732.25876	0.01719
2730.97299	0.01726
2729.68722	0.01729
2728.40145	0.01727
2727.11568	0.01716
2725.82991	0.01702
2724.54414	0.01697
2723.25838	0.01707
2721.97261	0.01724
2720.68684	0.01732
2719.40107	0.01735
2718.11530	0.01741
2716.82953	0.01753
2715.54376	0.01758
2714.25799	0.01751
2712.97222	0.01738
2711.68646	0.01729
2710.40069	0.01722
2709.11492	0.01712
2707.82915	0.01698
2706.54338	0.01686
2705.25761	0.01679
2703.97184	0.01670
2702.68607	0.01655
2701.40031	0.01636
2700.11454	0.01624
2698.82877	0.01628
2697.54300	0.01643
2696.25723	0.01659
2694.97146	0.01669
2693.68569	0.01671
2692.39992	0.01669
2691.11415	0.01667
2689.82839	0.01668
2688.54262	0.01666
2687.25685	0.01650
2685.97108	0.01623
2684.68531	0.01595
2683.39954	0.01578
2682.11377	0.01578
2680.82800	0.01590
2679.54224	0.01610
2678.25647	0.01629
2676.97070	0.01639
2675.68493	0.01638
2674.39916	0.01634
2673.11339	0.01631
2671.82762	0.01626
2670.54185	0.01612
2669.25608	0.01592
2667.97032	0.01580
2666.68455	0.01586
2665.39878	0.01601
2664.11301	0.01605
2662.82724	0.01589
2661.54147	0.01566
2660.25570	0.01556
2658.96993	0.01565
2657.68417	0.01581
2656.39840	0.01593
2655.11263	0.01601
2653.82686	0.01603
2652.54109	0.01597
2651.25532	0.01580
2649.96955	0.01560
2648.68378	0.01551
2647.39801	0.01560
2646.11225	0.01575
2644.82648	0.01577
2643.54071	0.01559
2642.25494	0.01536
2640.96917	0.01524
2639.68340	0.01530
2638.39763	0.01548
2637.11186	0.01569
2635.82609	0.01587
2634.54033	0.01595
2633.25456	0.01587
2631.96879	0.01569
2630.68302	0.01548
2629.39725	0.01528
2628.11148	0.01507
2626.82571	0.01485
2625.53994	0.01470
2624.25418	0.01464
2622.96841	0.01466
2621.68264	0.01471
2620.39687	0.01478
2619.11110	0.01480
2617.82533	0.01468
2616.53956	0.01438
2615.25379	0.01402
2613.96802	0.01372
2612.68226	0.01358
2611.39649	0.01360
2610.11072	0.01376
2608.82495	0.01394
2607.53918	0.01404
2606.25341	0.01402
2604.96764	0.01395
2603.68187	0.01391
2602.39611	0.01394
2601.11034	0.01406
2599.82457	0.01427
2598.53880	0.01450
2597.25303	0.01467
2595.96726	0.01479
2594.68149	0.01491
2593.39572	0.01509
2592.10995	0.01525
2590.82419	0.01526
2589.53842	0.01505
2588.25265	0.01463
2586.96688	0.01411
2585.68111	0.01365
2584.39534	0.01337
2583.10957	0.01336
2581.82380	0.01356
2580.53804	0.01379
2579.25227	0.01391
2577.96650	0.01388
2576.68073	0.01376
2575.39496	0.01363
2574.10919	0.01347
2572.82342	0.01322
2571.53765	0.01291
2570.25188	0.01270
2568.96612	0.01269
2567.68035	0.01274
2566.39458	0.01266
2565.10881	0.01248
2563.82304	0.01238
2562.53727	0.01246
2561.25150	0.01261
2559.96573	0.01275
2558.67997	0.01287
2557.39420	0.01296
2556.10843	0.01294
2554.82266	0.01278
2553.53689	0.01268
2552.25112	0.01284
2550.96535	0.01319
2549.67958	0.01342
2548.39381	0.01326
2547.10805	0.01277
2545.82228	0.01229
2544.53651	0.01207
2543.25074	0.01209
2541.96497	0.01216
2540.67920	0.01212
2539.39343	0.01194
2538.10766	0.01169
2536.82190	0.01153
2535.53613	0.01156
2534.25036	0.01177
2532.96459	0.01206
2531.67882	0.01233
2530.39305	0.01249
2529.10728	0.01249
2527.82151	0.01235
2526.53574	0.01217
2525.24998	0.01207
2523.96421	0.01215
2522.67844	0.01232
2521.39267	0.01239
2520.10690	0.01229
2518.82113	0.01211
2517.53536	0.01200
2516.24959	0.01200
2514.96383	0.01203
2513.67806	0.01199
2512.39229	0.01184
2511.10652	0.01170
2509.82075	0.01177
2508.53498	0.01213
2507.24921	0.01262
2505.96344	0.01293
2504.67767	0.01291
2503.39191	0.01268
2502.10614	0.01247
2500.82037	0.01241
2499.53460	0.01254
2498.24883	0.01284
2496.96306	0.01315
2495.67729	0.01318
2494.39152	0.01279
2493.10576	0.01215
2491.81999	0.01163
2490.53422	0.01139
2489.24845	0.01139
2487.96268	0.01154
2486.67691	0.01181
2485.39114	0.01207
2484.10537	0.01208
2482.81960	0.01184
2481.53384	0.01157
2480.24807	0.01149
2478.96230	0.01157
2477.67653	0.01168
2476.39076	0.01181
2475.10499	0.01201
2473.81922	0.01218
2472.53345	0.01217
2471.24769	0.01195
2469.96192	0.01165
2468.67615	0.01147
2467.39038	0.01148
2466.10461	0.01166
2464.81884	0.01199
2463.53307	0.01241
2462.24730	0.01279
2460.96153	0.01298
2459.67577	0.01285
2458.39000	0.01239
2457.10423	0.01171
2455.81846	0.01099
2454.53269	0.01041
2453.24692	0.01013
2451.96115	0.01024
2450.67538	0.01066
2449.38962	0.01115
2448.10385	0.01152
2446.81808	0.01163
2445.53231	0.01152
2444.24654	0.01127
2442.96077	0.01099
2441.67500	0.01074
2440.38923	0.01058
2439.10346	0.01056
2437.81770	0.01077
2436.53193	0.01114
2435.24616	0.01152
2433.96039	0.01173
2432.67462	0.01177
2431.38885	0.01171
2430.10308	0.01161
2428.81731	0.01151
2427.53155	0.01149
2426.24578	0.01157
2424.96001	0.01171
2423.67424	0.01178
2422.38847	0.01180
2421.10270	0.01191
2419.81693	0.01212
2418.53116	0.01223
2417.24539	0.01208
2415.95963	0.01173
2414.67386	0.01148
2413.38809	0.01146
2412.10232	0.01155
2410.81655	0.01148
2409.53078	0.01117
2408.24501	0.01075
2406.95924	0.01047
2405.67347	0.01044
2404.38771	0.01060
2403.10194	0.01081
2401.81617	0.01098
2400.53040	0.01108
2399.24463	0.01108
2397.95886	0.01106
2396.67309	0.01106
2395.38732	0.01109
2394.10156	0.01112
2392.81579	0.01103
2391.53002	0.01082
2390.24425	0.01058
2388.95848	0.01044
2387.67271	0.01045
2386.38694	0.01052
2385.10117	0.01054
2383.81540	0.01047
2382.52964	0.01035
2381.24387	0.01030
2379.95810	0.01041
2378.67233	0.01062
2377.38656	0.01078
2376.10079	0.01078
2374.81502	0.01067
2373.52925	0.01057
2372.24349	0.01054
2370.95772	0.01056
2369.67195	0.01059
2368.38618	0.01066
2367.10041	0.01078
2365.81464	0.01087
2364.52887	0.01088
2363.24310	0.01075
2361.95733	0.01054
2360.67157	0.01037
2359.38580	0.01040
2358.10003	0.01060
2356.81426	0.01078
2355.52849	0.01079
2354.24272	0.01061
2352.95695	0.01037
2351.67118	0.01019
2350.38542	0.01017
2349.09965	0.01031
2347.81388	0.01052
2346.52811	0.01060
2345.24234	0.01058
2343.95657	0.01066
2342.67080	0.01085
2341.38503	0.01086
2340.09926	0.01068
2338.81350	0.01080
2337.52773	0.01124
2336.24196	0.01139
2334.95619	0.01122
2333.67042	0.01125
2332.38465	0.01138
2331.09888	0.01112
2329.81311	0.01100
2328.52735	0.01146
2327.24158	0.01170
2325.95581	0.01168
2324.67004	0.01183
2323.38427	0.01172
2322.09850	0.01142
2320.81273	0.01150
2319.52696	0.01156
2318.24119	0.01149
2316.95543	0.01153
2315.66966	0.01144
2314.38389	0.01128
2313.09812	0.01114
2311.81235	0.01080
2310.52658	0.01044
2309.24081	0.01020
2307.95504	0.01013
2306.66928	0.01026
2305.38351	0.01041
2304.09774	0.01052
2302.81197	0.01066
2301.52620	0.01085
2300.24043	0.01112
2298.95466	0.01134
2297.66889	0.01135
2296.38312	0.01109
2295.09736	0.01076
2293.81159	0.01057
2292.52582	0.01055
2291.24005	0.01049
2289.95428	0.01028
2288.66851	0.01004
2287.38274	0.01001
2286.09697	0.01026
2284.81121	0.01068
2283.52544	0.01111
2282.23967	0.01144
2280.95390	0.01164
2279.66813	0.01165
2278.38236	0.01134
2277.09659	0.01067
2275.81082	0.00982
2274.52505	0.00916
2273.23929	0.00896
2271.95352	0.00913
2270.66775	0.00931
2269.38198	0.00921
2268.09621	0.00885
2266.81044	0.00842
2265.52467	0.00813
2264.23890	0.00805
2262.95314	0.00804
2261.66737	0.00796
2260.38160	0.00771
2259.09583	0.00735
2257.81006	0.00697
2256.52429	0.00669
2255.23852	0.00669
2253.95275	0.00704
2252.66698	0.00761
2251.38122	0.00811
2250.09545	0.00841
2248.80968	0.00863
2247.52391	0.00877
2246.23814	0.00883
2244.95237	0.00857
2243.66660	0.00808
2242.38083	0.00778
2241.09507	0.00790
2239.80930	0.00825
2238.52353	0.00848
2237.23776	0.00862
2235.95199	0.00900
2234.66622	0.00973
2233.38045	0.01052
2232.09468	0.01095
2230.80891	0.01081
2229.52315	0.01022
2228.23738	0.00936
2226.95161	0.00840
2225.66584	0.00756
2224.38007	0.00699
2223.09430	0.00676
2221.80853	0.00687
2220.52276	0.00733
2219.23700	0.00799
2217.95123	0.00854
2216.66546	0.00869
2215.37969	0.00839
2214.09392	0.00784
2212.80815	0.00720
2211.52238	0.00664
2210.23661	0.00644
2208.95084	0.00689
2207.66508	0.00793
2206.37931	0.00898
2205.09354	0.00937
2203.80777	0.00885
2202.52200	0.00782
2201.23623	0.00689
2199.95046	0.00646
2198.66469	0.00645
2197.37893	0.00646
2196.09316	0.00621
2194.80739	0.00591
2193.52162	0.00603
2192.23585	0.00674
2190.95008	0.00752
2189.66431	0.00763
2188.37854	0.00694
2187.09277	0.00608
2185.80701	0.00572
2184.52124	0.00587
2183.23547	0.00595
2181.94970	0.00557
2180.66393	0.00499
2179.37816	0.00467
2178.09239	0.00471
2176.80662	0.00478
2175.52085	0.00466
2174.23509	0.00454
2172.94932	0.00464
2171.66355	0.00481
2170.37778	0.00470
2169.09201	0.00434
2167.80624	0.00425
2166.52047	0.00489
2165.23470	0.00606
2163.94894	0.00697
2162.66317	0.00691
2161.37740	0.00580
2160.09163	0.00432
2158.80586	0.00349
2157.52009	0.00381
2156.23432	0.00491
2154.94855	0.00607
2153.66278	0.00686
2152.37702	0.00726
2151.09125	0.00736
2149.80548	0.00727
2148.51971	0.00701
2147.23394	0.00650
2145.94817	0.00567
2144.66240	0.00461
2143.37663	0.00357
2142.09087	0.00274
2140.80510	0.00219
2139.51933	0.00204
2138.23356	0.00249
2136.94779	0.00351
2135.66202	0.00465
2134.37625	0.00541
2133.09048	0.00561
2131.80471	0.00553
2130.51895	0.00555
2129.23318	0.00581
2127.94741	0.00624
2126.66164	0.00670
2125.37587	0.00709
2124.09010	0.00732
2122.80433	0.00726
2121.51856	0.00693
2120.23280	0.00658
2118.94703	0.00653
2117.66126	0.00670
2116.37549	0.00664
2115.08972	0.00603
2113.80395	0.00509
2112.51818	0.00445
2111.23241	0.00455
2109.94664	0.00528
2108.66088	0.00621
2107.37511	0.00690
2106.08934	0.00713
2104.80357	0.00685
2103.51780	0.00620
2102.23203	0.00552
2100.94626	0.00517
2099.66049	0.00456
2098.37473	0.00445
2097.08896	0.00457
2095.80319	0.00470
2094.51742	0.00502
2093.23165	0.00567
2091.94588	0.00631
2090.66011	0.00651
2089.37434	0.00616
2088.08857	0.00574
2086.80281	0.00575
2085.51704	0.00620
2084.23127	0.00660
2082.94550	0.00649
2081.65973	0.00591
2080.37396	0.00530
2079.08819	0.00506
2077.80242	0.00529
2076.51666	0.00575
2075.23089	0.00614
2073.94512	0.00624
2072.65935	0.00604
2071.37358	0.00563
2070.08781	0.00511
2068.80204	0.00455
2067.51627	0.00400
2066.23050	0.00363
2064.94474	0.00357
2063.65897	0.00384
2062.37320	0.00428
2061.08743	0.00465
2059.80166	0.00477
2058.51589	0.00460
2057.23012	0.00416
2055.94435	0.00350
2054.65859	0.00267
2053.37282	0.00177
2052.08705	0.00096
2050.80128	0.00045
2049.51551	0.00030
2048.22974	0.00030
2046.94397	0.00032
2045.65820	0.00053
2044.37243	0.00121
2043.08667	0.00230
2041.80090	0.00332
2040.51513	0.00379
2039.22936	0.00363
2037.94359	0.00302
2036.65782	0.00213
2035.37205	0.00118
2034.08628	0.00062
2032.80052	0.00082
2031.51475	0.00168
2030.22898	0.00270
2028.94321	0.00345
2027.65744	0.00373
2026.37167	0.00344
2025.08590	0.00258
2023.80013	0.00142
2022.51436	0.00050
2021.22860	0.00022
2019.94283	0.00057
2018.65706	0.00126
2017.37129	0.00203
2016.08552	0.00280
2014.79975	0.00350
2013.51398	0.00385
2012.22821	0.00352
2010.94245	0.00248
2009.65668	0.00114
2008.37091	0.00016
2007.08514	-0.00002
2005.79937	0.00047
2004.51360	0.00107
2003.22783	0.00138
2001.94206	0.00153
2000.65629	0.00189
1999.37053	0.00254
1998.08476	0.00326
1996.79899	0.00388
1995.51322	0.00434
1994.22745	0.00457
1992.94168	0.00447
1991.65591	0.00417
1990.37014	0.00399
1989.08438	0.00421
1987.79861	0.00477
1986.51284	0.00533
1985.22707	0.00558
1983.94130	0.00546
1982.65553	0.00515
1981.36976	0.00478
1980.08399	0.00423
1978.79822	0.00334
1977.51246	0.00227
1976.22669	0.00159
1974.94092	0.00180
1973.65515	0.00271
1972.36938	0.00361
1971.08361	0.00397
1969.79784	0.00381
1968.51207	0.00340
1967.22631	0.00283
1965.94054	0.00210
1964.65477	0.00138
1963.36900	0.00099
1962.08323	0.00108
1960.79746	0.00166
1959.51169	0.00263
1958.22592	0.00375
1956.94015	0.00459
1955.65439	0.00485
1954.36862	0.00466
1953.08285	0.00455
1951.79708	0.00489
1950.51131	0.00545
1949.22554	0.00564
1947.93977	0.00516
1946.65400	0.00434
1945.36823	0.00372
1944.08247	0.00358
1942.79670	0.00374
1941.51093	0.00396
1940.22516	0.00413
1938.93939	0.00420
1937.65362	0.00408
1936.36785	0.00377
1935.08208	0.00349
1933.79632	0.00347
1932.51055	0.00372
1931.22478	0.00401
1929.93901	0.00415
1928.65324	0.00420
1927.36747	0.00434
1926.08170	0.00467
1924.79593	0.00512
1923.51016	0.00550
1922.22440	0.00565
1920.93863	0.00553
1919.65286	0.00524
1918.36709	0.00491
1917.08132	0.00465
1915.79555	0.00454
1914.50978	0.00461
1913.22401	0.00480
1911.93825	0.00498
1910.65248	0.00499
1909.36671	0.00486
1908.08094	0.00473
1906.79517	0.00477
1905.50940	0.00490
1904.22363	0.00498
1902.93786	0.00492
1901.65209	0.00477
1900.36633	0.00460
1899.08056	0.00448
1897.79479	0.00445
1896.50902	0.00459
1895.22325	0.00485
1893.93748	0.00506
1892.65171	0.00509
1891.36594	0.00496
1890.08018	0.00476
1888.79441	0.00460
1887.50864	0.00455
1886.22287	0.00470
1884.93710	0.00508
1883.65133	0.00558
1882.36556	0.00597
1881.07979	0.00608
1879.79402	0.00598
1878.50826	0.00583
1877.22249	0.00575
1875.93672	0.00570
1874.65095	0.00562
1873.36518	0.00550
1872.07941	0.00537
1870.79364	0.00517
1869.50787	0.00487
1868.22211	0.00459
1866.93634	0.00454
1865.65057	0.00482
1864.36480	0.00526
1863.07903	0.00559
1861.79326	0.00567
1860.50749	0.00561
1859.22172	0.00557
1857.93595	0.00562
1856.65019	0.00566
1855.36442	0.00563
1854.07865	0.00560
1852.79288	0.00568
1851.50711	0.00593
1850.22134	0.00621
1848.93557	0.00631
1847.64980	0.00614
1846.36404	0.00583
1845.07827	0.00554
1843.79250	0.00536
1842.50673	0.00526
1841.22096	0.00525
1839.93519	0.00530
1838.64942	0.00538
1837.36365	0.00547
1836.07788	0.00552
1834.79212	0.00549
1833.50635	0.00537
1832.22058	0.00522
1830.93481	0.00517
1829.64904	0.00523
1828.36327	0.00529
1827.07750	0.00529
1825.79173	0.00521
1824.50597	0.00509
1823.22020	0.00496
1821.93443	0.00483
1820.64866	0.00468
1819.36289	0.00456
1818.07712	0.00460
1816.79135	0.00486
1815.50558	0.00524
1814.21981	0.00561
1812.93405	0.00588
1811.64828	0.00605
1810.36251	0.00618
1809.07674	0.00627
1807.79097	0.00628
1806.50520	0.00619
1805.21943	0.00605
1803.93366	0.00595
1802.64790	0.00592
1801.36213	0.00593
1800.07636	0.00591
1798.79059	0.00587
1797.50482	0.00587
1796.21905	0.00594
1794.93328	0.00604
1793.64751	0.00613
1792.36174	0.00616
1791.07598	0.00612
1789.79021	0.00609
1788.50444	0.00616
1787.21867	0.00628
1785.93290	0.00635
1784.64713	0.00629
1783.36136	0.00612
1782.07559	0.00597
1780.78983	0.00593
1779.50406	0.00596
1778.21829	0.00603
1776.93252	0.00609
1775.64675	0.00614
1774.36098	0.00619
1773.07521	0.00627
1771.78944	0.00633
1770.50367	0.00636
1769.21791	0.00639
1767.93214	0.00639
1766.64637	0.00637
1765.36060	0.00639
1764.07483	0.00650
1762.78906	0.00664
1761.50329	0.00670
1760.21752	0.00670
1758.93176	0.00673
1757.64599	0.00682
1756.36022	0.00687
1755.07445	0.00686
1753.78868	0.00680
1752.50291	0.00674
1751.21714	0.00663
1749.93137	0.00652
1748.64560	0.00649
1747.35984	0.00656
1746.07407	0.00666
1744.78830	0.00671
1743.50253	0.00674
1742.21676	0.00678
1740.93099	0.00690
1739.64522	0.00702
1738.35945	0.00704
1737.07369	0.00698
1735.78792	0.00696
1734.50215	0.00697
1733.21638	0.00696
1731.93061	0.00699
1730.64484	0.00716
1729.35907	0.00742
1728.07330	0.00765
1726.78753	0.00780
1725.50177	0.00789
1724.21600	0.00795
1722.93023	0.00797
1721.64446	0.00798
1720.35869	0.00803
1719.07292	0.00816
1717.78715	0.00833
1716.50138	0.00847
1715.21561	0.00865
1713.92985	0.00894
1712.64408	0.00932
1711.35831	0.00968
1710.07254	0.00996
1708.78677	0.01011
1707.50100	0.01025
1706.21523	0.01045
1704.92946	0.01073
1703.64370	0.01107
1702.35793	0.01148
1701.07216	0.01191
1699.78639	0.01224
1698.50062	0.01259
1697.21485	0.01313
1695.92908	0.01380
1694.64331	0.01436
1693.35754	0.01484
1692.07178	0.01540
1690.78601	0.01602
1689.50024	0.01656
1688.21447	0.01695
1686.92870	0.01727
1685.64293	0.01761
1684.35716	0.01798
1683.07139	0.01841
1681.78563	0.01899
1680.49986	0.01966
1679.21409	0.02025
1677.92832	0.02073
1676.64255	0.02120
1675.35678	0.02168
1674.07101	0.02211
1672.78524	0.02252
1671.49947	0.02300
1670.21371	0.02354
1668.92794	0.02406
1667.64217	0.02448
1666.35640	0.02480
1665.07063	0.02511
1663.78486	0.02548
1662.49909	0.02592
1661.21332	0.02641
1659.92756	0.02692
1658.64179	0.02735
1657.35602	0.02756
1656.07025	0.02761
1654.78448	0.02771
1653.49871	0.02793
1652.21294	0.02817
1650.92717	0.02838
1649.64140	0.02865
1648.35564	0.02900
1647.06987	0.02929
1645.78410	0.02947
1644.49833	0.02959
1643.21256	0.02973
1641.92679	0.02983
1640.64102	0.02981
1639.35525	0.02961
1638.06949	0.02936
1636.78372	0.02919
1635.49795	0.02910
1634.21218	0.02899
1632.92641	0.02883
1631.64064	0.02865
1630.35487	0.02842
1629.06910	0.02811
1627.78333	0.02771
1626.49757	0.02724
1625.21180	0.02676
1623.92603	0.02632
1622.64026	0.02591
1621.35449	0.02550
1620.06872	0.02509
1618.78295	0.02468
1617.49718	0.02425
1616.21142	0.02381
1614.92565	0.02339
1613.63988	0.02308
1612.35411	0.02282
1611.06834	0.02254
1609.78257	0.02220
1608.49680	0.02187
1607.21103	0.02157
1605.92526	0.02130
1604.63950	0.02107
1603.35373	0.02089
1602.06796	0.02075
1600.78219	0.02065
1599.49642	0.02056
1598.21065	0.02047
1596.92488	0.02041
1595.63911	0.02039
1594.35335	0.02038
1593.06758	0.02038
1591.78181	0.02038
1590.49604	0.02040
1589.21027	0.02045
1587.92450	0.02055
1586.63873	0.02068
1585.35296	0.02083
1584.06719	0.02097
1582.78143	0.02110
1581.49566	0.02120
1580.20989	0.02126
1578.92412	0.02134
1577.63835	0.02151
1576.35258	0.02174
1575.06681	0.02197
1573.78104	0.02222
1572.49528	0.02253
1571.20951	0.02284
1569.92374	0.02307
1568.63797	0.02321
1567.35220	0.02336
1566.06643	0.02359
1564.78066	0.02380
1563.49489	0.02390
1562.20912	0.02393
1560.92336	0.02399
1559.63759	0.02411
1558.35182	0.02424
1557.06605	0.02444
1555.78028	0.02478
1554.49451	0.02516
1553.20874	0.02544
1551.92297	0.02561
1550.63721	0.02572
1549.35144	0.02579
1548.06567	0.02580
1546.77990	0.02577
1545.49413	0.02567
1544.20836	0.02548
1542.92259	0.02529
1541.63682	0.02520
1540.35105	0.02525
1539.06529	0.02531
1537.77952	0.02529
1536.49375	0.02523
1535.20798	0.02520
1533.92221	0.02518
1532.63644	0.02512
1531.35067	0.02502
1530.06490	0.02490
1528.77914	0.02478
1527.49337	0.02465
1526.20760	0.02450
1524.92183	0.02435
1523.63606	0.02423
1522.35029	0.02415
1521.06452	0.02407
1519.77875	0.02394
1518.49298	0.02386
1517.20722	0.02387
1515.92145	0.02392
1514.63568	0.02399
1513.34991	0.02405
1512.06414	0.02403
1510.77837	0.02388
1509.49260	0.02367
1508.20683	0.02351
1506.92107	0.02346
1505.63530	0.02348
1504.34953	0.02358
1503.06376	0.02374
1501.77799	0.02385
1500.49222	0.02383
1499.20645	0.02370
1497.92068	0.02356
1496.63491	0.02348
1495.34915	0.02345
1494.06338	0.02345
1492.77761	0.02346
1491.49184	0.02345
1490.20607	0.02342
1488.92030	0.02343
1487.63453	0.02356
1486.34876	0.02379
1485.06299	0.02404
1483.77723	0.02426
1482.49146	0.02446
1481.20569	0.02467
1479.91992	0.02487
1478.63415	0.02507
1477.34838	0.02524
1476.06261	0.02542
1474.77684	0.02572
1473.49108	0.02618
1472.20531	0.02673
1470.91954	0.02724
1469.63377	0.02765
1468.34800	0.02795
1467.06223	0.02818
1465.77646	0.02840
1464.49069	0.02865
1463.20492	0.02892
1461.91916	0.02919
1460.63339	0.02941
1459.34762	0.02961
1458.06185	0.02989
1456.77608	0.03022
1455.49031	0.03058
1454.20454	0.03096
1452.91877	0.03133
1451.63301	0.03159
1450.34724	0.03172
1449.06147	0.03174
1447.77570	0.03168
1446.48993	0.03159
1445.20416	0.03149
1443.91839	0.03141
1442.63262	0.03133
1441.34685	0.03118
1440.06109	0.03096
1438.77532	0.03075
1437.48955	0.03062
1436.20378	0.03056
1434.91801	0.03054
1433.63224	0.03056
1432.34647	0.03064
1431.06070	0.03076
1429.77494	0.03090
1428.48917	0.03107
1427.20340	0.03127
1425.91763	0.03150
1424.63186	0.03175
1423.34609	0.03200
1422.06032	0.03225
1420.77455	0.03253
1419.48878	0.03278
1418.20302	0.03298
1416.91725	0.03317
1415.63148	0.03339
1414.34571	0.03362
1413.05994	0.03376
1411.77417	0.03382
1410.48840	0.03380
1409.20263	0.03373
1407.91687	0.03360
1406.63110	0.03341
1405.34533	0.03312
1404.05956	0.03275
1402.77379	0.03232
1401.48802	0.03183
1400.20225	0.03129
1398.91648	0.03068
1397.63071	0.03007
1396.34495	0.02953
1395.05918	0.02906
1393.77341	0.02865
1392.48764	0.02824
1391.20187	0.02782
1389.91610	0.02736
1388.63033	0.02687
1387.34456	0.02638
1386.05880	0.02593
1384.77303	0.02553
1383.48726	0.02517
1382.20149	0.02479
1380.91572	0.02436
1379.62995	0.02389
1378.34418	0.02343
1377.05841	0.02298
1375.77264	0.02257
1374.48688	0.02215
1373.20111	0.02171
1371.91534	0.02124
1370.62957	0.02076
1369.34380	0.02029
1368.05803	0.01981
1366.77226	0.01934
1365.48649	0.01891
1364.20073	0.01852
1362.91496	0.01817
1361.62919	0.01784
1360.34342	0.01756
1359.05765	0.01734
1357.77188	0.01716
1356.48611	0.01701
1355.20034	0.01686
1353.91457	0.01672
1352.62881	0.01657
1351.34304	0.01641
1350.05727	0.01623
1348.77150	0.01606
1347.48573	0.01593
1346.19996	0.01584
1344.91419	0.01576
1343.62842	0.01573
1342.34266	0.01577
1341.05689	0.01587
1339.77112	0.01594
1338.48535	0.01593
1337.19958	0.01582
1335.91381	0.01566
1334.62804	0.01549
1333.34227	0.01533
1332.05650	0.01519
1330.77074	0.01508
1329.48497	0.01501
1328.19920	0.01496
1326.91343	0.01487
1325.62766	0.01474
1324.34189	0.01459
1323.05612	0.01446
1321.77035	0.01438
1320.48459	0.01434
1319.19882	0.01430
1317.91305	0.01424
1316.62728	0.01416
1315.34151	0.01406
1314.05574	0.01398
1312.76997	0.01392
1311.48420	0.01386
1310.19843	0.01378
1308.91267	0.01366
1307.62690	0.01351
1306.34113	0.01337
1305.05536	0.01327
1303.76959	0.01320
1302.48382	0.01312
1301.19805	0.01301
1299.91228	0.01290
1298.62652	0.01282
1297.34075	0.01279
1296.05498	0.01278
1294.76921	0.01277
1293.48344	0.01275
1292.19767	0.01271
1290.91190	0.01268
1289.62613	0.01266
1288.34036	0.01266
1287.05460	0.01267
1285.76883	0.01268
1284.48306	0.01267
1283.19729	0.01266
1281.91152	0.01266
1280.62575	0.01271
1279.33998	0.01280
1278.05421	0.01286
1276.76845	0.01286
1275.48268	0.01276
1274.19691	0.01263
1272.91114	0.01252
1271.62537	0.01245
1270.33960	0.01243
1269.05383	0.01240
1267.76806	0.01235
1266.48229	0.01231
1265.19653	0.01230
1263.91076	0.01232
1262.62499	0.01234
1261.33922	0.01236
1260.05345	0.01238
1258.76768	0.01240
1257.48191	0.01240
1256.19614	0.01237
1254.91037	0.01236
1253.62461	0.01239
1252.33884	0.01245
1251.05307	0.01249
1249.76730	0.01252
1248.48153	0.01253
1247.19576	0.01255
1245.90999	0.01255
1244.62422	0.01253
1243.33846	0.01250
1242.05269	0.01246
1240.76692	0.01243
1239.48115	0.01240
1238.19538	0.01238
1236.90961	0.01233
1235.62384	0.01227
1234.33807	0.01219
1233.05230	0.01211
1231.76654	0.01206
1230.48077	0.01202
1229.19500	0.01197
1227.90923	0.01186
1226.62346	0.01168
1225.33769	0.01146
1224.05192	0.01126
1222.76615	0.01113
1221.48039	0.01105
1220.19462	0.01097
1218.90885	0.01089
1217.62308	0.01081
1216.33731	0.01075
1215.05154	0.01070
1213.76577	0.01062
1212.48000	0.01053
1211.19423	0.01044
1209.90847	0.01039
1208.62270	0.01038
1207.33693	0.01037
1206.05116	0.01037
1204.76539	0.01038
1203.47962	0.01038
1202.19385	0.01037
1200.90808	0.01036
1199.62232	0.01039
1198.33655	0.01029
1197.05078	0.01019
1195.76501	0.01012
1194.47924	0.01006
1193.19347	0.00999
1191.90770	0.00990
1190.62193	0.00978
1189.33616	0.00966
1188.05040	0.00958
1186.76463	0.00953
1185.47886	0.00952
1184.19309	0.00953
1182.90732	0.00955
1181.62155	0.00957
1180.33578	0.00958
1179.05001	0.00957
1177.76425	0.00953
1176.47848	0.00947
1175.19271	0.00945
1173.90694	0.00949
1172.62117	0.00959
1171.33540	0.00968
1170.04963	0.00975
1168.76386	0.00980
1167.47809	0.00982
1166.19233	0.00981
1164.90656	0.00980
1163.62079	0.00982
1162.33502	0.00991
1161.04925	0.01004
1159.76348	0.01019
1158.47771	0.01028
1157.19194	0.01031
1155.90618	0.01029
1154.62041	0.01028
1153.33464	0.01032
1152.04887	0.01042
1150.76310	0.01058
1149.47733	0.01074
1148.19156	0.01087
1146.90579	0.01101
1145.62002	0.01121
1144.33426	0.01146
1143.04849	0.01171
1141.76272	0.01194
1140.47695	0.01214
1139.19118	0.01234
1137.90541	0.01257
1136.61964	0.01288
1135.33387	0.01328
1134.04811	0.01379
1132.76234	0.01435
1131.47657	0.01492
1130.19080	0.01551
1128.90503	0.01614
1127.61926	0.01683
1126.33349	0.01765
1125.04772	0.01859
1123.76195	0.01960
1122.47619	0.02061
1121.19042	0.02160
1119.90465	0.02267
1118.61888	0.02386
1117.33311	0.02514
1116.04734	0.02642
1114.76157	0.02761
1113.47580	0.02869
1112.19004	0.02968
1110.90427	0.03061
1109.61850	0.03155
1108.33273	0.03258
1107.04696	0.03368
1105.76119	0.03479
1104.47542	0.03581
1103.18965	0.03673
1101.90388	0.03760
1100.61812	0.03846
1099.33235	0.03931
1098.04658	0.04008
1096.76081	0.04079
1095.47504	0.04147
1094.18927	0.04215
1092.90350	0.04280
1091.61773	0.04340
1090.33197	0.04395
1089.04620	0.04447
1087.76043	0.04496
1086.47466	0.04536
1085.18889	0.04567
1083.90312	0.04595
1082.61735	0.04631
1081.33158	0.04679
1080.04581	0.04741
1078.76005	0.04811
1077.47428	0.04887
1076.18851	0.04964
1074.90274	0.05042
1073.61697	0.05124
1072.33120	0.05210
1071.04543	0.05300
1069.75966	0.05392
1068.47390	0.05487
1067.18813	0.05583
1065.90236	0.05680
1064.61659	0.05775
1063.33082	0.05867
1062.04505	0.05958
1060.75928	0.06048
1059.47351	0.06142
1058.18774	0.06242
1056.90198	0.06348
1055.61621	0.06453
1054.33044	0.06553
1053.04467	0.06645
1051.75890	0.06733
1050.47313	0.06821
1049.18736	0.06912
1047.90159	0.07004
1046.61583	0.07098
1045.33006	0.07190
1044.04429	0.07280
1042.75852	0.07366
1041.47275	0.07446
1040.18698	0.07525
1038.90121	0.07602
1037.61544	0.07682
1036.32967	0.07769
1035.04391	0.07860
1033.75814	0.07949
1032.47237	0.08023
1031.18660	0.08079
1029.90083	0.08118
1028.61506	0.08149
1027.32929	0.08173
1026.04352	0.08192
1024.75775	0.08203
1023.47199	0.08204
1022.18622	0.08196
1020.90045	0.08176
1019.61468	0.08145
1018.32891	0.08102
1017.04314	0.08048
1015.75737	0.07981
1014.47160	0.07902
1013.18584	0.07813
1011.90007	0.07719
1010.61430	0.07623
1009.32853	0.07528
1008.04276	0.07434
1006.75699	0.07336
1005.47122	0.07226
1004.18545	0.07102
1002.89968	0.06968
1001.61392	0.06834
1000.32815	0.06706
999.04238	0.06583
997.75661	0.06455
996.47084	0.06317
995.18507	0.06175
993.89930	0.06037
992.61353	0.05909
991.32777	0.05785
990.04200	0.05659
988.75623	0.05527
987.47046	0.05393
986.18469	0.05269
984.89892	0.05163
983.61315	0.05070
982.32738	0.04979
981.04161	0.04878
979.75585	0.04760
978.47008	0.04632
977.18431	0.04504
975.89854	0.04389
974.61277	0.04295
973.32700	0.04220
972.04123	0.04160
970.75546	0.04116
969.46970	0.04088
968.18393	0.04075
966.89816	0.04072
965.61239	0.04080
964.32662	0.04099
963.04085	0.04125
961.75508	0.04148
960.46931	0.04153
959.18354	0.04134
957.89778	0.04091
956.61201	0.04033
955.32624	0.03968
954.04047	0.03902
952.75470	0.03839
951.46893	0.03777
950.18316	0.03715
948.89739	0.03658
947.61163	0.03605
946.32586	0.03555
945.04009	0.03500
943.75432	0.03437
942.46855	0.03368
941.18278	0.03298
939.89701	0.03229
938.61124	0.03165
937.32547	0.03108
936.03971	0.03058
934.75394	0.03015
933.46817	0.02976
932.18240	0.02942
930.89663	0.02910
929.61086	0.02878
928.32509	0.02843
927.03932	0.02803
925.75356	0.02761
924.46779	0.02720
923.18202	0.02682
921.89625	0.02646
920.61048	0.02614
919.32471	0.02582
918.03894	0.02552
916.75317	0.02526
915.46740	0.02506
914.18164	0.02490
912.89587	0.02468
911.61010	0.02435
910.32433	0.02391
909.03856	0.02351
907.75279	0.02324
906.46702	0.02309
905.18125	0.02296
903.89549	0.02278
902.60972	0.02257
901.32395	0.02236
900.03818	0.02218
898.75241	0.02204
897.46664	0.02195
896.18087	0.02187
894.89510	0.02175
893.60933	0.02160
892.32357	0.02144
891.03780	0.02129
889.75203	0.02117
888.46626	0.02108
887.18049	0.02108
885.89472	0.02126
884.60895	0.02164
883.32318	0.02220
882.03742	0.02284
880.75165	0.02344
879.46588	0.02387
878.18011	0.02414
876.89434	0.02435
875.60857	0.02465
874.32280	0.02506
873.03703	0.02545
871.75126	0.02566
870.46550	0.02562
869.17973	0.02540
867.89396	0.02505
866.60819	0.02454
865.32242	0.02390
864.03665	0.02318
862.75088	0.02250
861.46511	0.02197
860.17935	0.02160
858.89358	0.02133
857.60781	0.02099
856.32204	0.02053
855.03627	0.02006
853.75050	0.01972
852.46473	0.01955
851.17896	0.01948
849.89319	0.01944
848.60743	0.01938
847.32166	0.01930
846.03589	0.01916
844.75012	0.01896
843.46435	0.01872
842.17858	0.01850
840.89281	0.01837
839.60704	0.01832
838.32128	0.01831
837.03551	0.01829
835.74974	0.01821
834.46397	0.01809
833.17820	0.01799
831.89243	0.01794
830.60666	0.01792
829.32089	0.01783
828.03512	0.01768
826.74936	0.01751
825.46359	0.01741
824.17782	0.01738
822.89205	0.01737
821.60628	0.01731
820.32051	0.01719
819.03474	0.01705
817.74897	0.01695
816.46321	0.01692
815.17744	0.01694
813.89167	0.01699
812.60590	0.01706
811.32013	0.01714
810.03436	0.01723
808.74859	0.01729
807.46282	0.01728
806.17705	0.01718
804.89129	0.01701
803.60552	0.01683
802.31975	0.01671
801.03398	0.01666
799.74821	0.01664
798.46244	0.01664
797.17667	0.01665
795.89090	0.01669
794.60513	0.01675
793.31937	0.01677
792.03360	0.01672
790.74783	0.01664
789.46206	0.01654
788.17629	0.01647
786.89052	0.01643
785.60475	0.01640
784.31898	0.01637
783.03322	0.01635
781.74745	0.01635
780.46168	0.01636
779.17591	0.01639
777.89014	0.01645
776.60437	0.01648
775.31860	0.01644
774.03283	0.01633
772.74706	0.01624
771.46130	0.01626
770.17553	0.01640
768.88976	0.01661
767.60399	0.01680
766.31822	0.01691
765.03245	0.01694
763.74668	0.01690
762.46091	0.01684
761.17515	0.01676
759.88938	0.01666
758.60361	0.01656
757.31784	0.01648
756.03207	0.01640
754.74630	0.01634
753.46053	0.01630
752.17476	0.01633
750.88899	0.01641
749.60323	0.01649
748.31746	0.01651
747.03169	0.01650
745.74592	0.01648
744.46015	0.01647
743.17438	0.01645
741.88861	0.01645
740.60284	0.01648
739.31708	0.01650
738.03131	0.01643
736.74554	0.01626
735.45977	0.01607
734.17400	0.01602
732.88823	0.01611
731.60246	0.01628
730.31669	0.01641
729.03092	0.01651
727.74516	0.01659
726.45939	0.01665
725.17362	0.01669
723.88785	0.01668
722.60208	0.01674
721.31631	0.01685
720.03054	0.01696
718.74477	0.01706
717.45901	0.01712
716.17324	0.01710
714.88747	0.01701
713.60170	0.01690
712.31593	0.01679
711.03016	0.01672
709.74439	0.01669
708.45862	0.01669
707.17285	0.01670
705.88709	0.01673
704.60132	0.01677
703.31555	0.01681
702.02978	0.01681
700.74401	0.01677
699.45824	0.01670
698.17247	0.01664
696.88670	0.01659
695.60094	0.01658
694.31517	0.01659
693.02940	0.01659
691.74363	0.01657
690.45786	0.01654
689.17209	0.01655
687.88632	0.01661
686.60055	0.01666
685.31478	0.01665
684.02902	0.01657
682.74325	0.01646
681.45748	0.01643
680.17171	0.01649
678.88594	0.01658
677.60017	0.01664
676.31440	0.01665
675.02863	0.01661
673.74287	0.01655
672.45710	0.01650
671.17133	0.01647
669.88556	0.01648
668.59979	0.01655
667.31402	0.01664
666.02825	0.01668
664.74248	0.01673
663.45671	0.01675
662.17095	0.01672
660.88518	0.01664
659.59941	0.01651
658.31364	0.01639
657.02787	0.01633
655.74210	0.01635
654.45633	0.01642
653.17056	0.01648
651.88480	0.01650
650.59903	0.01653
649.31326	0.01660
648.02749	0.01670
646.74172	0.01678
645.45595	0.01681
644.17018	0.01680
642.88441	0.01679
641.59864	0.01676
640.31288	0.01672
639.02711	0.01667
637.74134	0.01665
636.45557	0.01670
635.16980	0.01681
633.88403	0.01696
632.59826	0.01711
631.31249	0.01714
630.02673	0.01661
628.74096	0.01569
627.45519	0.01600
626.16942	0.01466
624.88365	0.01226
623.59788	0.01024
622.31211	0.00954
621.02634	0.01046
619.74057	0.01266
618.45481	0.01554
617.16904	0.01864
615.88327	0.02130
614.59750	0.02244
613.31173	0.02131
612.02596	0.01858
610.74019	0.01638
609.45442	0.01661
608.16866	0.01927
606.88289	0.02297
605.59712	0.02646
604.31135	0.02916
603.02558	0.03096
601.73981	0.03207
600.45404	0.03279
599.16827	0.03325
597.88250	0.03339
596.59674	0.03313
595.31097	0.03254
594.02520	0.03181
592.73943	0.03112
591.45366	0.03057
590.16789	0.03021
588.88212	0.03004
587.59635	0.03003
586.31059	0.03021
585.02482	0.03060
583.73905	0.03125
582.45328	0.03211
581.16751	0.03305
579.88174	0.03397
578.59597	0.03482
577.31020	0.03564
576.02443	0.03651
574.73867	0.03744
573.45290	0.03840
572.16713	0.03928
570.88136	0.04006
569.59559	0.04079
568.30982	0.04162
567.02405	0.04260
565.73828	0.04372
564.45251	0.04483
563.16675	0.04573
561.88098	0.04625
560.59521	0.04631
559.30944	0.04593
558.02367	0.04512
556.73790	0.04389
555.45213	0.04235
554.16636	0.04070
552.88060	0.03912
551.59483	0.03771
550.30906	0.03644
549.02329	0.03526
547.73752	0.03417
546.45175	0.03319
545.16598	0.03238
543.88021	0.03175
542.59444	0.03122
541.30868	0.03070
540.02291	0.03010
538.73714	0.02941
537.45137	0.02876
536.16560	0.02828
534.87983	0.02799
533.59406	0.02778
532.30829	0.02746
531.02253	0.02694
529.73676	0.02630
528.45099	0.02569
527.16522	0.02519
525.87945	0.02481
524.59368	0.02448
523.30791	0.02413
522.02214	0.02380
520.73637	0.02350
519.45061	0.02323
518.16484	0.02290
516.87907	0.02245
515.59330	0.02193
514.30753	0.02145
513.02176	0.02107
511.73599	0.02075
510.45022	0.02044
509.16446	0.02010
507.87869	0.01978
506.59292	0.01954
505.30715	0.01940
504.02138	0.01934
502.73561	0.01926
501.44984	0.01910
500.16407	0.01888
498.87830	0.01869
497.59254	0.01857
496.30677	0.01851
495.02100	0.01840
493.73523	0.01818
492.44946	0.01789
491.16369	0.01765
489.87792	0.01753
488.59215	0.01754
487.30639	0.01762
486.02062	0.01765
484.73485	0.01759
483.44908	0.01745
482.16331	0.01732
480.87754	0.01724
479.59177	0.01721
478.30600	0.01723
477.02023	0.01730
475.73447	0.01743
474.44870	0.01759
473.16293	0.01770
471.87716	0.01772
470.59139	0.01765
469.30562	0.01752
468.01985	0.01735
466.73408	0.01715
465.44832	0.01699
464.16255	0.01690
462.87678	0.01684
461.59101	0.01676
460.30524	0.01665
459.01947	0.01650
457.73370	0.01634
456.44793	0.01617
455.16216	0.01602
453.87640	0.01587
452.59063	0.01572
451.30486	0.01555
450.01909	0.01538
448.73332	0.01520
447.44755	0.01505
446.16178	0.01494
444.87601	0.01486
443.59025	0.01480
442.30448	0.01474
441.01871	0.01468
439.73294	0.01461
438.44717	0.01452
437.16140	0.01439
435.87563	0.01425
434.58986	0.01416
433.30409	0.01410
432.01833	0.01403
430.73256	0.01390
429.44679	0.01374
428.16102	0.01362
426.87525	0.01360
425.58948	0.01361
424.30371	0.01359
423.01794	0.01350
421.73218	0.01335
420.44641	0.01321
419.16064	0.01309
417.87487	0.01298
416.58910	0.01288
415.30333	0.01277
414.01756	0.01265
412.73179	0.01253
411.44602	0.01242
410.16026	0.01231
408.87449	0.01220
407.58872	0.01210
406.30295	0.01201
405.01718	0.01197
403.73141	0.01197
402.44564	0.01197
401.15987	0.01197
399.87411	0.01196
