3997.45528	0.04357
3996.16951	0.04330
3994.88374	0.04328
3993.59798	0.04351
3992.31221	0.04378
3991.02644	0.04380
3989.74067	0.04347
3988.45490	0.04300
3987.16913	0.04275
3985.88336	0.04289
3984.59759	0.04322
3983.31183	0.04336
3982.02606	0.04306
3980.74029	0.04232
3979.45452	0.04135
3978.16875	0.04039
3976.88298	0.03961
3975.59721	0.03913
3974.31144	0.03903
3973.02567	0.03938
3971.73991	0.04007
3970.45414	0.04085
3969.16837	0.04150
3967.88260	0.04178
3966.59683	0.04153
3965.31106	0.04073
3964.02529	0.03976
3962.73952	0.03918
3961.45376	0.03917
3960.16799	0.03939
3958.88222	0.03936
3957.59645	0.03902
3956.31068	0.03871
3955.02491	0.03870
3953.73914	0.03884
3952.45337	0.03878
3951.16760	0.03836
3949.88184	0.03788
3948.59607	0.03780
3947.31030	0.03836
3946.02453	0.03924
3944.73876	0.03973
3943.45299	0.03933
3942.16722	0.03818
3940.88145	0.03699
3939.59569	0.03643
3938.30992	0.03671
3937.02415	0.03756
3935.73838	0.03845
3934.45261	0.03893
3933.16684	0.03895
3931.88107	0.03876
3930.59530	0.03875
3929.30953	0.03908
3928.02377	0.03962
3926.73800	0.04003
3925.45223	0.04007
3924.16646	0.03983
3922.88069	0.03962
3921.59492	0.03972
3920.30915	0.04008
3919.02338	0.04041
3917.73762	0.04055
3916.45185	0.04059
3915.16608	0.04057
3913.88031	0.04037
3912.59454	0.03978
3911.30877	0.03883
3910.02300	0.03791
3908.73723	0.03746
3907.45146	0.03765
3906.16570	0.03824
3904.87993	0.03888
3903.59416	0.03930
3902.30839	0.03944
3901.02262	0.03929
3899.73685	0.03881
3898.45108	0.03795
3897.16531	0.03683
3895.87955	0.03579
3894.59378	0.03529
3893.30801	0.03552
3892.02224	0.03624
3890.73647	0.03694
3889.45070	0.03736
3888.16493	0.03762
3886.87916	0.03801
3885.59339	0.03859
3884.30763	0.03907
3883.02186	0.03906
3881.73609	0.03840
3880.45032	0.03734
3879.16455	0.03647
3877.87878	0.03632
3876.59301	0.03697
3875.30724	0.03801
3874.02148	0.03872
3872.73571	0.03862
3871.44994	0.03781
3870.16417	0.03689
3868.87840	0.03640
3867.59263	0.03640
3866.30686	0.03652
3865.02109	0.03641
3863.73532	0.03606
3862.44956	0.03576
3861.16379	0.03578
3859.87802	0.03617
3858.59225	0.03670
3857.30648	0.03703
3856.02071	0.03705
3854.73494	0.03694
3853.44917	0.03692
3852.16341	0.03703
3850.87764	0.03711
3849.59187	0.03703
3848.30610	0.03682
3847.02033	0.03655
3845.73456	0.03633
3844.44879	0.03625
3843.16302	0.03630
3841.87725	0.03624
3840.59149	0.03580
3839.30572	0.03506
3838.01995	0.03464
3836.73418	0.03503
3835.44841	0.03597
3834.16264	0.03658
3832.87687	0.03640
3831.59110	0.03585
3830.30534	0.03573
3829.01957	0.03631
3827.73380	0.03719
3826.44803	0.03786
3825.16226	0.03813
3823.87649	0.03797
3822.59072	0.03733
3821.30495	0.03636
3820.01918	0.03545
3818.73342	0.03496
3817.44765	0.03492
3816.16188	0.03505
3814.87611	0.03501
3813.59034	0.03471
3812.30457	0.03436
3811.01880	0.03426
3809.73303	0.03447
3808.44726	0.03467
3807.16150	0.03449
3805.87573	0.03394
3804.58996	0.03342
3803.30419	0.03337
3802.01842	0.03393
3800.73265	0.03485
3799.44688	0.03566
3798.16111	0.03597
3796.87535	0.03578
3795.58958	0.03538
3794.30381	0.03508
3793.01804	0.03503
3791.73227	0.03522
3790.44650	0.03551
3789.16073	0.03567
3787.87496	0.03554
3786.58919	0.03528
3785.30343	0.03521
3784.01766	0.03545
3782.73189	0.03568
3781.44612	0.03552
3780.16035	0.03497
3778.87458	0.03441
3777.58881	0.03416
3776.30304	0.03424
3775.01728	0.03453
3773.73151	0.03488
3772.44574	0.03513
3771.15997	0.03517
3769.87420	0.03507
3768.58843	0.03496
3767.30266	0.03496
3766.01689	0.03503
3764.73112	0.03508
3763.44536	0.03502
3762.15959	0.03483
3760.87382	0.03465
3759.58805	0.03457
3758.30228	0.03454
3757.01651	0.03437
3755.73074	0.03399
3754.44497	0.03350
3753.15921	0.03304
3751.87344	0.03271
3750.58767	0.03271
3749.30190	0.03321
3748.01613	0.03421
3746.73036	0.03543
3745.44459	0.03647
3744.15882	0.03699
3742.87305	0.03693
3741.58729	0.03650
3740.30152	0.03599
3739.01575	0.03561
3737.72998	0.03530
3736.44421	0.03496
3735.15844	0.03458
3733.87267	0.03426
3732.58690	0.03405
3731.30114	0.03383
3730.01537	0.03340
3728.72960	0.03272
3727.44383	0.03197
3726.15806	0.03141
3724.87229	0.03118
3723.58652	0.03122
3722.30075	0.03145
3721.01498	0.03185
3719.72922	0.03245
3718.44345	0.03320
3717.15768	0.03397
3715.87191	0.03456
3714.58614	0.03484
3713.30037	0.03464
3712.01460	0.03389
3710.72883	0.03273
3709.44307	0.03163
3708.15730	0.03119
3706.87153	0.03162
3705.58576	0.03246
3704.29999	0.03303
3703.01422	0.03309
3701.72845	0.03295
3700.44268	0.03300
3699.15691	0.03328
3697.87115	0.03353
3696.58538	0.03355
3695.29961	0.03335
3694.01384	0.03304
3692.72807	0.03268
3691.44230	0.03217
3690.15653	0.03140
3688.87076	0.03056
3687.58500	0.03005
3686.29923	0.03004
3685.01346	0.03024
3683.72769	0.03023
3682.44192	0.02993
3681.15615	0.02958
3679.87038	0.02938
3678.58461	0.02932
3677.29884	0.02937
3676.01308	0.02967
3674.72731	0.03042
3673.44154	0.03159
3672.15577	0.03272
3670.87000	0.03317
3669.58423	0.03265
3668.29846	0.03139
3667.01269	0.02992
3665.72693	0.02873
3664.44116	0.02820
3663.15539	0.02862
3661.86962	0.02988
3660.58385	0.03136
3659.29808	0.03237
3658.01231	0.03260
3656.72654	0.03235
3655.44077	0.03207
3654.15501	0.03200
3652.86924	0.03212
3651.58347	0.03228
3650.29770	0.03241
3649.01193	0.03247
3647.72616	0.03245
3646.44039	0.03246
3645.15462	0.03272
3643.86886	0.03326
3642.58309	0.03383
3641.29732	0.03414
3640.01155	0.03421
3638.72578	0.03420
3637.44001	0.03408
3636.15424	0.03372
3634.86847	0.03315
3633.58270	0.03260
3632.29694	0.03220
3631.01117	0.03195
3629.72540	0.03187
3628.43963	0.03206
3627.15386	0.03241
3625.86809	0.03259
3624.58232	0.03239
3623.29655	0.03204
3622.01079	0.03198
3620.72502	0.03239
3619.43925	0.03294
3618.15348	0.03317
3616.86771	0.03295
3615.58194	0.03247
3614.29617	0.03200
3613.01040	0.03165
3611.72463	0.03151
3610.43887	0.03165
3609.15310	0.03205
3607.86733	0.03256
3606.58156	0.03296
3605.29579	0.03308
3604.01002	0.03299
3602.72425	0.03294
3601.43848	0.03321
3600.15272	0.03384
3598.86695	0.03458
3597.58118	0.03506
3596.29541	0.03516
3595.00964	0.03510
3593.72387	0.03512
3592.43810	0.03517
3591.15233	0.03508
3589.86656	0.03487
3588.58080	0.03478
3587.29503	0.03495
3586.00926	0.03520
3584.72349	0.03524
3583.43772	0.03508
3582.15195	0.03503
3580.86618	0.03541
3579.58041	0.03615
3578.29464	0.03676
3577.00888	0.03684
3575.72311	0.03647
3574.43734	0.03607
3573.15157	0.03596
3571.86580	0.03612
3570.58003	0.03637
3569.29426	0.03647
3568.00849	0.03635
3566.72273	0.03613
3565.43696	0.03611
3564.15119	0.03645
3562.86542	0.03702
3561.57965	0.03744
3560.29388	0.03737
3559.00811	0.03674
3557.72234	0.03573
3556.43657	0.03470
3555.15081	0.03400
3553.86504	0.03383
3552.57927	0.03409
3551.29350	0.03444
3550.00773	0.03466
3548.72196	0.03484
3547.43619	0.03524
3546.15042	0.03585
3544.86466	0.03637
3543.57889	0.03647
3542.29312	0.03621
3541.00735	0.03595
3539.72158	0.03602
3538.43581	0.03644
3537.15004	0.03690
3535.86427	0.03696
3534.57850	0.03645
3533.29274	0.03563
3532.00697	0.03504
3530.72120	0.03502
3529.43543	0.03545
3528.14966	0.03596
3526.86389	0.03634
3525.57812	0.03657
3524.29235	0.03671
3523.00659	0.03676
3521.72082	0.03676
3520.43505	0.03677
3519.14928	0.03678
3517.86351	0.03670
3516.57774	0.03647
3515.29197	0.03614
3514.00620	0.03580
3512.72043	0.03559
3511.43467	0.03559
3510.14890	0.03574
3508.86313	0.03594
3507.57736	0.03616
3506.29159	0.03645
3505.00582	0.03688
3503.72005	0.03740
3502.43428	0.03793
3501.14852	0.03839
3499.86275	0.03866
3498.57698	0.03862
3497.29121	0.03824
3496.00544	0.03767
3494.71967	0.03721
3493.43390	0.03710
3492.14813	0.03740
3490.86236	0.03792
3489.57660	0.03838
3488.29083	0.03852
3487.00506	0.03833
3485.71929	0.03790
3484.43352	0.03740
3483.14775	0.03695
3481.86198	0.03673
3480.57621	0.03689
3479.29045	0.03735
3478.00468	0.03775
3476.71891	0.03776
3475.43314	0.03740
3474.14737	0.03702
3472.86160	0.03695
3471.57583	0.03726
3470.29006	0.03774
3469.00429	0.03822
3467.71853	0.03865
3466.43276	0.03904
3465.14699	0.03932
3463.86122	0.03932
3462.57545	0.03904
3461.28968	0.03870
3460.00391	0.03860
3458.71814	0.03881
3457.43238	0.03916
3456.14661	0.03949
3454.86084	0.03969
3453.57507	0.03975
3452.28930	0.03968
3451.00353	0.03953
3449.71776	0.03938
3448.43199	0.03928
3447.14622	0.03922
3445.86046	0.03916
3444.57469	0.03913
3443.28892	0.03921
3442.00315	0.03942
3440.71738	0.03962
3439.43161	0.03963
3438.14584	0.03941
3436.86007	0.03907
3435.57431	0.03879
3434.28854	0.03870
3433.00277	0.03884
3431.71700	0.03917
3430.43123	0.03963
3429.14546	0.04012
3427.85969	0.04059
3426.57392	0.04101
3425.28815	0.04140
3424.00239	0.04171
3422.71662	0.04182
3421.43085	0.04163
3420.14508	0.04118
3418.85931	0.04065
3417.57354	0.04022
3416.28777	0.03995
3415.00200	0.03976
3413.71624	0.03955
3412.43047	0.03931
3411.14470	0.03911
3409.85893	0.03911
3408.57316	0.03938
3407.28739	0.03983
3406.00162	0.04034
3404.71585	0.04084
3403.43008	0.04130
3402.14432	0.04159
3400.85855	0.04152
3399.57278	0.04107
3398.28701	0.04050
3397.00124	0.04021
3395.71547	0.04030
3394.42970	0.04061
3393.14393	0.04091
3391.85817	0.04118
3390.57240	0.04137
3389.28663	0.04130
3388.00086	0.04080
3386.71509	0.03994
3385.42932	0.03903
3384.14355	0.03839
3382.85778	0.03821
3381.57201	0.03844
3380.28625	0.03899
3379.00048	0.03974
3377.71471	0.04054
3376.42894	0.04119
3375.14317	0.04153
3373.85740	0.04150
3372.57163	0.04115
3371.28586	0.04060
3370.00010	0.03999
3368.71433	0.03959
3367.42856	0.03970
3366.14279	0.04032
3364.85702	0.04113
3363.57125	0.04166
3362.28548	0.04173
3360.99971	0.04149
3359.71394	0.04125
3358.42818	0.04123
3357.14241	0.04150
3355.85664	0.04188
3354.57087	0.04205
3353.28510	0.04184
3351.99933	0.04135
3350.71356	0.04084
3349.42779	0.04045
3348.14202	0.04011
3346.85626	0.03976
3345.57049	0.03943
3344.28472	0.03925
3342.99895	0.03931
3341.71318	0.03962
3340.42741	0.04017
3339.14164	0.04086
3337.85587	0.04142
3336.57011	0.04154
3335.28434	0.04115
3333.99857	0.04051
3332.71280	0.03996
3331.42703	0.03967
3330.14126	0.03960
3328.85549	0.03969
3327.56972	0.03987
3326.28395	0.04005
3324.99819	0.04009
3323.71242	0.03988
3322.42665	0.03945
3321.14088	0.03901
3319.85511	0.03884
3318.56934	0.03908
3317.28357	0.03962
3315.99780	0.04023
3314.71204	0.04070
3313.42627	0.04099
3312.14050	0.04111
3310.85473	0.04106
3309.56896	0.04085
3308.28319	0.04048
3306.99742	0.04005
3305.71165	0.03966
3304.42588	0.03934
3303.14012	0.03900
3301.85435	0.03858
3300.56858	0.03820
3299.28281	0.03804
3297.99704	0.03823
3296.71127	0.03866
3295.42550	0.03916
3294.13973	0.03962
3292.85397	0.04002
3291.56820	0.04034
3290.28243	0.04045
3288.99666	0.04020
3287.71089	0.03967
3286.42512	0.03914
3285.13935	0.03891
3283.85358	0.03906
3282.56781	0.03943
3281.28205	0.03981
3279.99628	0.03997
3278.71051	0.03981
3277.42474	0.03940
3276.13897	0.03895
3274.85320	0.03865
3273.56743	0.03852
3272.28166	0.03847
3270.99590	0.03844
3269.71013	0.03843
3268.42436	0.03840
3267.13859	0.03832
3265.85282	0.03815
3264.56705	0.03798
3263.28128	0.03794
3261.99551	0.03817
3260.70974	0.03868
3259.42398	0.03925
3258.13821	0.03958
3256.85244	0.03946
3255.56667	0.03899
3254.28090	0.03844
3252.99513	0.03803
3251.70936	0.03775
3250.42359	0.03755
3249.13783	0.03747
3247.85206	0.03767
3246.56629	0.03813
3245.28052	0.03867
3243.99475	0.03911
3242.70898	0.03936
3241.42321	0.03943
3240.13744	0.03932
3238.85167	0.03906
3237.56591	0.03867
3236.28014	0.03814
3234.99437	0.03755
3233.70860	0.03708
3232.42283	0.03692
3231.13706	0.03709
3229.85129	0.03742
3228.56552	0.03761
3227.27976	0.03755
3225.99399	0.03735
3224.70822	0.03722
3223.42245	0.03724
3222.13668	0.03740
3220.85091	0.03764
3219.56514	0.03796
3218.27937	0.03828
3216.99360	0.03846
3215.70784	0.03836
3214.42207	0.03798
3213.13630	0.03743
3211.85053	0.03686
3210.56476	0.03641
3209.27899	0.03616
3207.99322	0.03608
3206.70745	0.03606
3205.42169	0.03604
3204.13592	0.03612
3202.85015	0.03637
3201.56438	0.03671
3200.27861	0.03693
3198.99284	0.03695
3197.70707	0.03690
3196.42130	0.03695
3195.13553	0.03710
3193.84977	0.03714
3192.56400	0.03690
3191.27823	0.03643
3189.99246	0.03595
3188.70669	0.03567
3187.42092	0.03569
3186.13515	0.03588
3184.84938	0.03600
3183.56362	0.03589
3182.27785	0.03567
3180.99208	0.03558
3179.70631	0.03572
3178.42054	0.03592
3177.13477	0.03599
3175.84900	0.03585
3174.56323	0.03558
3173.27746	0.03535
3171.99170	0.03523
3170.70593	0.03524
3169.42016	0.03530
3168.13439	0.03534
3166.84862	0.03535
3165.56285	0.03544
3164.27708	0.03562
3162.99131	0.03570
3161.70555	0.03542
3160.41978	0.03479
3159.13401	0.03413
3157.84824	0.03382
3156.56247	0.03406
3155.27670	0.03467
3153.99093	0.03528
3152.70516	0.03561
3151.41939	0.03564
3150.13363	0.03549
3148.84786	0.03521
3147.56209	0.03480
3146.27632	0.03429
3144.99055	0.03384
3143.70478	0.03357
3142.41901	0.03354
3141.13324	0.03368
3139.84748	0.03387
3138.56171	0.03400
3137.27594	0.03407
3135.99017	0.03418
3134.70440	0.03434
3133.41863	0.03447
3132.13286	0.03451
3130.84709	0.03446
3129.56132	0.03441
3128.27556	0.03430
3126.98979	0.03403
3125.70402	0.03360
3124.41825	0.03318
3123.13248	0.03294
3121.84671	0.03292
3120.56094	0.03302
3119.27517	0.03317
3117.98940	0.03329
3116.70364	0.03332
3115.41787	0.03322
3114.13210	0.03300
3112.84633	0.03275
3111.56056	0.03258
3110.27479	0.03253
3108.98902	0.03255
3107.70325	0.03259
3106.41749	0.03259
3105.13172	0.03252
3103.84595	0.03236
3102.56018	0.03209
3101.27441	0.03182
3099.98864	0.03172
3098.70287	0.03190
3097.41710	0.03231
3096.13133	0.03271
3094.84557	0.03287
3093.55980	0.03273
3092.27403	0.03238
3090.98826	0.03207
3089.70249	0.03198
3088.41672	0.03213
3087.13095	0.03240
3085.84518	0.03267
3084.55942	0.03285
3083.27365	0.03284
3081.98788	0.03259
3080.70211	0.03221
3079.41634	0.03188
3078.13057	0.03173
3076.84480	0.03171
3075.55903	0.03174
3074.27326	0.03182
3072.98750	0.03203
3071.70173	0.03233
3070.41596	0.03260
3069.13019	0.03272
3067.84442	0.03262
3066.55865	0.03224
3065.27288	0.03161
3063.98711	0.03090
3062.70135	0.03037
3061.41558	0.03014
3060.12981	0.03012
3058.84404	0.03012
3057.55827	0.03007
3056.27250	0.03003
3054.98673	0.03011
3053.70096	0.03034
3052.41519	0.03071
3051.12943	0.03112
3049.84366	0.03143
3048.55789	0.03156
3047.27212	0.03150
3045.98635	0.03128
3044.70058	0.03098
3043.41481	0.03065
3042.12904	0.03038
3040.84328	0.03025
3039.55751	0.03029
3038.27174	0.03041
3036.98597	0.03041
3035.70020	0.03016
3034.41443	0.02969
3033.12866	0.02929
3031.84289	0.02919
3030.55712	0.02941
3029.27136	0.02976
3027.98559	0.03003
3026.69982	0.03020
3025.41405	0.03038
3024.12828	0.03065
3022.84251	0.03085
3021.55674	0.03076
3020.27097	0.03027
3018.98521	0.02954
3017.69944	0.02893
3016.41367	0.02870
3015.12790	0.02887
3013.84213	0.02923
3012.55636	0.02950
3011.27059	0.02951
3009.98482	0.02928
3008.69905	0.02896
3007.41329	0.02872
3006.12752	0.02867
3004.84175	0.02879
3003.55598	0.02893
3002.27021	0.02898
3000.98444	0.02892
2999.69867	0.02885
2998.41290	0.02883
2997.12714	0.02879
2995.84137	0.02868
2994.55560	0.02858
2993.26983	0.02863
2991.98406	0.02888
2990.69829	0.02918
2989.41252	0.02937
2988.12675	0.02949
2986.84098	0.02970
2985.55522	0.03002
2984.26945	0.03027
2982.98368	0.03030
2981.69791	0.03020
2980.41214	0.03018
2979.12637	0.03031
2977.84060	0.03044
2976.55483	0.03044
2975.26907	0.03026
2973.98330	0.03003
2972.69753	0.02990
2971.41176	0.03004
2970.12599	0.03048
2968.84022	0.03115
2967.55445	0.03182
2966.26868	0.03230
2964.98291	0.03254
2963.69715	0.03267
2962.41138	0.03286
2961.12561	0.03314
2959.83984	0.03335
2958.55407	0.03336
2957.26830	0.03324
2955.98253	0.03325
2954.69676	0.03356
2953.41100	0.03411
2952.12523	0.03467
2950.83946	0.03502
2949.55369	0.03510
2948.26792	0.03499
2946.98215	0.03490
2945.69638	0.03491
2944.41061	0.03499
2943.12484	0.03499
2941.83908	0.03485
2940.55331	0.03461
2939.26754	0.03438
2937.98177	0.03425
2936.69600	0.03431
2935.41023	0.03454
2934.12446	0.03483
2932.83869	0.03508
2931.55293	0.03532
2930.26716	0.03565
2928.98139	0.03611
2927.69562	0.03658
2926.40985	0.03688
2925.12408	0.03692
2923.83831	0.03677
2922.55254	0.03657
2921.26677	0.03642
2919.98101	0.03635
2918.69524	0.03630
2917.40947	0.03615
2916.12370	0.03584
2914.83793	0.03537
2913.55216	0.03490
2912.26639	0.03466
2910.98062	0.03477
2909.69486	0.03510
2908.40909	0.03537
2907.12332	0.03541
2905.83755	0.03524
2904.55178	0.03494
2903.26601	0.03454
2901.98024	0.03405
2900.69447	0.03355
2899.40870	0.03320
2898.12294	0.03302
2896.83717	0.03295
2895.55140	0.03287
2894.26563	0.03275
2892.97986	0.03259
2891.69409	0.03239
2890.40832	0.03223
2889.12255	0.03213
2887.83678	0.03207
2886.55102	0.03198
2885.26525	0.03184
2883.97948	0.03169
2882.69371	0.03159
2881.40794	0.03154
2880.12217	0.03157
2878.83640	0.03167
2877.55063	0.03175
2876.26487	0.03171
2874.97910	0.03156
2873.69333	0.03137
2872.40756	0.03129
2871.12179	0.03141
2869.83602	0.03165
2868.55025	0.03187
2867.26448	0.03196
2865.97871	0.03200
2864.69295	0.03218
2863.40718	0.03247
2862.12141	0.03268
2860.83564	0.03257
2859.54987	0.03221
2858.26410	0.03181
2856.97833	0.03156
2855.69256	0.03144
2854.40680	0.03134
2853.12103	0.03121
2851.83526	0.03107
2850.54949	0.03093
2849.26372	0.03075
2847.97795	0.03051
2846.69218	0.03023
2845.40641	0.02999
2844.12064	0.02989
2842.83488	0.02988
2841.54911	0.02977
2840.26334	0.02938
2838.97757	0.02875
2837.69180	0.02818
2836.40603	0.02793
2835.12026	0.02794
2833.83449	0.02796
2832.54873	0.02783
2831.26296	0.02759
2829.97719	0.02739
2828.69142	0.02730
2827.40565	0.02724
2826.11988	0.02716
2824.83411	0.02708
2823.54834	0.02704
2822.26257	0.02703
2820.97681	0.02696
2819.69104	0.02682
2818.40527	0.02673
2817.11950	0.02682
2815.83373	0.02704
2814.54796	0.02719
2813.26219	0.02711
2811.97642	0.02687
2810.69066	0.02665
2809.40489	0.02648
2808.11912	0.02623
2806.83335	0.02583
2805.54758	0.02540
2804.26181	0.02512
2802.97604	0.02507
2801.69027	0.02523
2800.40450	0.02544
2799.11874	0.02550
2797.83297	0.02535
2796.54720	0.02511
2795.26143	0.02490
2793.97566	0.02478
2792.68989	0.02471
2791.40412	0.02467
2790.11835	0.02469
2788.83259	0.02474
2787.54682	0.02475
2786.26105	0.02474
2784.97528	0.02480
2783.68951	0.02492
2782.40374	0.02500
2781.11797	0.02497
2779.83220	0.02490
2778.54643	0.02491
2777.26067	0.02504
2775.97490	0.02519
2774.68913	0.02521
2773.40336	0.02505
2772.11759	0.02482
2770.83182	0.02465
2769.54605	0.02458
2768.26028	0.02458
2766.97452	0.02458
2765.68875	0.02450
2764.40298	0.02434
2763.11721	0.02417
2761.83144	0.02405
2760.54567	0.02400
2759.25990	0.02397
2757.97413	0.02393
2756.68836	0.02395
2755.40260	0.02407
2754.11683	0.02423
2752.83106	0.02436
2751.54529	0.02439
2750.25952	0.02437
2748.97375	0.02431
2747.68798	0.02416
2746.40221	0.02389
2745.11645	0.02361
2743.83068	0.02349
2742.54491	0.02360
2741.25914	0.02381
2739.97337	0.02396
2738.68760	0.02394
2737.40183	0.02376
2736.11606	0.02353
2734.83029	0.02335
2733.54453	0.02329
2732.25876	0.02327
2730.97299	0.02328
2729.68722	0.02338
2728.40145	0.02364
2727.11568	0.02400
2725.82991	0.02434
2724.54414	0.02450
2723.25838	0.02444
2721.97261	0.02416
2720.68684	0.02379
2719.40107	0.02344
2718.11530	0.02319
2716.82953	0.02306
2715.54376	0.02302
2714.25799	0.02305
2712.97222	0.02311
2711.68646	0.02315
2710.40069	0.02316
2709.11492	0.02316
2707.82915	0.02318
2706.54338	0.02322
2705.25761	0.02324
2703.97184	0.02318
2702.68607	0.02304
2701.40031	0.02284
2700.11454	0.02272
2698.82877	0.02279
2697.54300	0.02301
2696.25723	0.02321
2694.97146	0.02323
2693.68569	0.02309
2692.39992	0.02298
2691.11415	0.02298
2689.82839	0.02304
2688.54262	0.02305
2687.25685	0.02304
2685.97108	0.02310
2684.68531	0.02318
2683.39954	0.02319
2682.11377	0.02307
2680.82800	0.02289
2679.54224	0.02271
2678.25647	0.02256
2676.97070	0.02249
2675.68493	0.02253
2674.39916	0.02261
2673.11339	0.02262
2671.82762	0.02253
2670.54185	0.02244
2669.25608	0.02246
2667.97032	0.02260
2666.68455	0.02279
2665.39878	0.02290
2664.11301	0.02288
2662.82724	0.02280
2661.54147	0.02274
2660.25570	0.02274
2658.96993	0.02272
2657.68417	0.02267
2656.39840	0.02260
2655.11263	0.02252
2653.82686	0.02246
2652.54109	0.02245
2651.25532	0.02249
2649.96955	0.02254
2648.68378	0.02248
2647.39801	0.02229
2646.11225	0.02202
2644.82648	0.02182
2643.54071	0.02181
2642.25494	0.02196
2640.96917	0.02210
2639.68340	0.02205
2638.39763	0.02183
2637.11186	0.02160
2635.82609	0.02146
2634.54033	0.02139
2633.25456	0.02132
2631.96879	0.02127
2630.68302	0.02129
2629.39725	0.02134
2628.11148	0.02130
2626.82571	0.02114
2625.53994	0.02089
2624.25418	0.02063
2622.96841	0.02037
2621.68264	0.02008
2620.39687	0.01982
2619.11110	0.01966
2617.82533	0.01966
2616.53956	0.01981
2615.25379	0.01996
2613.96802	0.01998
2612.68226	0.01984
2611.39649	0.01955
2610.11072	0.01919
2608.82495	0.01890
2607.53918	0.01887
2606.25341	0.01913
2604.96764	0.01946
2603.68187	0.01964
2602.39611	0.01956
2601.11034	0.01937
2599.82457	0.01929
2598.53880	0.01942
2597.25303	0.01963
2595.96726	0.01965
2594.68149	0.01938
2593.39572	0.01898
2592.10995	0.01870
2590.82419	0.01871
2589.53842	0.01896
2588.25265	0.01928
2586.96688	0.01952
2585.68111	0.01955
2584.39534	0.01939
2583.10957	0.01917
2581.82380	0.01909
2580.53804	0.01926
2579.25227	0.01955
2577.96650	0.01972
2576.68073	0.01956
2575.39496	0.01915
2574.10919	0.01872
2572.82342	0.01847
2571.53765	0.01844
2570.25188	0.01858
2568.96612	0.01888
2567.68035	0.01927
2566.39458	0.01956
2565.10881	0.01957
2563.82304	0.01931
2562.53727	0.01896
2561.25150	0.01875
2559.96573	0.01869
2558.67997	0.01865
2557.39420	0.01853
2556.10843	0.01842
2554.82266	0.01849
2553.53689	0.01873
2552.25112	0.01887
2550.96535	0.01868
2549.67958	0.01820
2548.39381	0.01771
2547.10805	0.01744
2545.82228	0.01738
2544.53651	0.01743
2543.25074	0.01759
2541.96497	0.01790
2540.67920	0.01829
2539.39343	0.01857
2538.10766	0.01860
2536.82190	0.01845
2535.53613	0.01824
2534.25036	0.01794
2532.96459	0.01747
2531.67882	0.01689
2530.39305	0.01644
2529.10728	0.01635
2527.82151	0.01664
2526.53574	0.01707
2525.24998	0.01733
2523.96421	0.01726
2522.67844	0.01697
2521.39267	0.01673
2520.10690	0.01678
2518.82113	0.01712
2517.53536	0.01751
2516.24959	0.01768
2514.96383	0.01764
2513.67806	0.01762
2512.39229	0.01779
2511.10652	0.01801
2509.82075	0.01797
2508.53498	0.01753
2507.24921	0.01683
2505.96344	0.01614
2504.67767	0.01566
2503.39191	0.01545
2502.10614	0.01547
2500.82037	0.01570
2499.53460	0.01612
2498.24883	0.01665
2496.96306	0.01720
2495.67729	0.01767
2494.39152	0.01798
2493.10576	0.01804
2491.81999	0.01785
2490.53422	0.01747
2489.24845	0.01706
2487.96268	0.01681
2486.67691	0.01684
2485.39114	0.01712
2484.10537	0.01743
2482.81960	0.01754
2481.53384	0.01742
2480.24807	0.01723
2478.96230	0.01719
2477.67653	0.01733
2476.39076	0.01754
2475.10499	0.01766
2473.81922	0.01754
2472.53345	0.01714
2471.24769	0.01657
2469.96192	0.01603
2468.67615	0.01567
2467.39038	0.01560
2466.10461	0.01585
2464.81884	0.01636
2463.53307	0.01693
2462.24730	0.01730
2460.96153	0.01735
2459.67577	0.01717
2458.39000	0.01695
2457.10423	0.01684
2455.81846	0.01686
2454.53269	0.01696
2453.24692	0.01698
2451.96115	0.01678
2450.67538	0.01636
2449.38962	0.01589
2448.10385	0.01559
2446.81808	0.01556
2445.53231	0.01570
2444.24654	0.01590
2442.96077	0.01608
2441.67500	0.01621
2440.38923	0.01621
2439.10346	0.01609
2437.81770	0.01593
2436.53193	0.01587
2435.24616	0.01586
2433.96039	0.01579
2432.67462	0.01562
2431.38885	0.01552
2430.10308	0.01565
2428.81731	0.01609
2427.53155	0.01662
2426.24578	0.01692
2424.96001	0.01678
2423.67424	0.01634
2422.38847	0.01590
2421.10270	0.01571
2419.81693	0.01582
2418.53116	0.01610
2417.24539	0.01640
2415.95963	0.01652
2414.67386	0.01634
2413.38809	0.01594
2412.10232	0.01557
2410.81655	0.01551
2409.53078	0.01583
2408.24501	0.01626
2406.95924	0.01646
2405.67347	0.01632
2404.38771	0.01607
2403.10194	0.01601
2401.81617	0.01615
2400.53040	0.01631
2399.24463	0.01626
2397.95886	0.01612
2396.67309	0.01599
2395.38732	0.01593
2394.10156	0.01592
2392.81579	0.01588
2391.53002	0.01573
2390.24425	0.01549
2388.95848	0.01523
2387.67271	0.01507
2386.38694	0.01508
2385.10117	0.01523
2383.81540	0.01541
2382.52964	0.01555
2381.24387	0.01563
2379.95810	0.01572
2378.67233	0.01578
2377.38656	0.01589
2376.10079	0.01612
2374.81502	0.01631
2373.52925	0.01608
2372.24349	0.01558
2370.95772	0.01519
2369.67195	0.01496
2368.38618	0.01491
2367.10041	0.01505
2365.81464	0.01539
2364.52887	0.01585
2363.24310	0.01629
2361.95733	0.01661
2360.67157	0.01680
2359.38580	0.01692
2358.10003	0.01690
2356.81426	0.01675
2355.52849	0.01666
2354.24272	0.01677
2352.95695	0.01696
2351.67118	0.01680
2350.38542	0.01649
2349.09965	0.01633
2347.81388	0.01619
2346.52811	0.01597
2345.24234	0.01581
2343.95657	0.01581
2342.67080	0.01614
2341.38503	0.01605
2340.09926	0.01581
2338.81350	0.01601
2337.52773	0.01641
2336.24196	0.01634
2334.95619	0.01628
2333.67042	0.01642
2332.38465	0.01665
2331.09888	0.01610
2329.81311	0.01596
2328.52735	0.01626
2327.24158	0.01657
2325.95581	0.01718
2324.67004	0.01776
2323.38427	0.01821
2322.09850	0.01806
2320.81273	0.01766
2319.52696	0.01733
2318.24119	0.01710
2316.95543	0.01685
2315.66966	0.01666
2314.38389	0.01665
2313.09812	0.01669
2311.81235	0.01666
2310.52658	0.01653
2309.24081	0.01626
2307.95504	0.01592
2306.66928	0.01571
2305.38351	0.01572
2304.09774	0.01589
2302.81197	0.01602
2301.52620	0.01595
2300.24043	0.01572
2298.95466	0.01551
2297.66889	0.01543
2296.38312	0.01546
2295.09736	0.01551
2293.81159	0.01554
2292.52582	0.01557
2291.24005	0.01567
2289.95428	0.01579
2288.66851	0.01584
2287.38274	0.01571
2286.09697	0.01537
2284.81121	0.01493
2283.52544	0.01454
2282.23967	0.01435
2280.95390	0.01435
2279.66813	0.01447
2278.38236	0.01459
2277.09659	0.01463
2275.81082	0.01447
2274.52505	0.01402
2273.23929	0.01330
2271.95352	0.01251
2270.66775	0.01190
2269.38198	0.01168
2268.09621	0.01192
2266.81044	0.01249
2265.52467	0.01306
2264.23890	0.01330
2262.95314	0.01312
2261.66737	0.01268
2260.38160	0.01225
2259.09583	0.01198
2257.81006	0.01200
2256.52429	0.01232
2255.23852	0.01278
2253.95275	0.01309
2252.66698	0.01308
2251.38122	0.01290
2250.09545	0.01289
2248.80968	0.01312
2247.52391	0.01312
2246.23814	0.01287
2244.95237	0.01262
2243.66660	0.01254
2242.38083	0.01245
2241.09507	0.01204
2239.80930	0.01131
2238.52353	0.01067
2237.23776	0.01053
2235.95199	0.01103
2234.66622	0.01193
2233.38045	0.01272
2232.09468	0.01301
2230.80891	0.01280
2229.52315	0.01253
2228.23738	0.01262
2226.95161	0.01309
2225.66584	0.01354
2224.38007	0.01347
2223.09430	0.01275
2221.80853	0.01173
2220.52276	0.01085
2219.23700	0.01029
2217.95123	0.00998
2216.66546	0.00985
2215.37969	0.00999
2214.09392	0.01048
2212.80815	0.01122
2211.52238	0.01184
2210.23661	0.01195
2208.95084	0.01155
2207.66508	0.01110
2206.37931	0.01115
2205.09354	0.01169
2203.80777	0.01218
2202.52200	0.01207
2201.23623	0.01130
2199.95046	0.01032
2198.66469	0.00973
2197.37893	0.00982
2196.09316	0.01034
2194.80739	0.01071
2193.52162	0.01060
2192.23585	0.01021
2190.95008	0.01000
2189.66431	0.01029
2188.37854	0.01090
2187.09277	0.01133
2185.80701	0.01118
2184.52124	0.01051
2183.23547	0.00969
2181.94970	0.00907
2180.66393	0.00865
2179.37816	0.00806
2178.09239	0.00707
2176.80662	0.00602
2175.52085	0.00569
2174.23509	0.00637
2172.94932	0.00744
2171.66355	0.00796
2170.37778	0.00772
2169.09201	0.00725
2167.80624	0.00709
2166.52047	0.00739
2165.23470	0.00811
2163.94894	0.00904
2162.66317	0.00961
2161.37740	0.00912
2160.09163	0.00742
2158.80586	0.00530
2157.52009	0.00376
2156.23432	0.00324
2154.94855	0.00358
2153.66278	0.00444
2152.37702	0.00537
2151.09125	0.00594
2149.80548	0.00607
2148.51971	0.00605
2147.23394	0.00614
2145.94817	0.00628
2144.66240	0.00630
2143.37663	0.00627
2142.09087	0.00630
2140.80510	0.00628
2139.51933	0.00616
2138.23356	0.00623
2136.94779	0.00685
2135.66202	0.00786
2134.37625	0.00867
2133.09048	0.00885
2131.80471	0.00854
2130.51895	0.00816
2129.23318	0.00798
2127.94741	0.00811
2126.66164	0.00858
2125.37587	0.00922
2124.09010	0.00966
2122.80433	0.00956
2121.51856	0.00904
2120.23280	0.00862
2118.94703	0.00869
2117.66126	0.00918
2116.37549	0.00973
2115.08972	0.01007
2113.80395	0.01015
2112.51818	0.00998
2111.23241	0.00968
2109.94664	0.00948
2108.66088	0.00964
2107.37511	0.01005
2106.08934	0.01035
2104.80357	0.01021
2103.51780	0.00959
2102.23203	0.00873
2100.94626	0.00790
2099.66049	0.00611
2098.37473	0.00539
2097.08896	0.00565
2095.80319	0.00619
2094.51742	0.00671
2093.23165	0.00712
2091.94588	0.00750
2090.66011	0.00801
2089.37434	0.00865
2088.08857	0.00921
2086.80281	0.00947
2085.51704	0.00937
2084.23127	0.00907
2082.94550	0.00879
2081.65973	0.00868
2080.37396	0.00865
2079.08819	0.00843
2077.80242	0.00777
2076.51666	0.00670
2075.23089	0.00561
2073.94512	0.00500
2072.65935	0.00510
2071.37358	0.00574
2070.08781	0.00645
2068.80204	0.00681
2067.51627	0.00676
2066.23050	0.00656
2064.94474	0.00654
2063.65897	0.00686
2062.37320	0.00749
2061.08743	0.00822
2059.80166	0.00880
2058.51589	0.00900
2057.23012	0.00878
2055.94435	0.00832
2054.65859	0.00782
2053.37282	0.00729
2052.08705	0.00655
2050.80128	0.00558
2049.51551	0.00457
2048.22974	0.00382
2046.94397	0.00338
2045.65820	0.00310
2044.37243	0.00286
2043.08667	0.00266
2041.80090	0.00240
2040.51513	0.00190
2039.22936	0.00103
2037.94359	-0.00003
2036.65782	-0.00083
2035.37205	-0.00098
2034.08628	-0.00047
2032.80052	0.00037
2031.51475	0.00109
2030.22898	0.00154
2028.94321	0.00184
2027.65744	0.00212
2026.37167	0.00233
2025.08590	0.00237
2023.80013	0.00234
2022.51436	0.00250
2021.22860	0.00294
2019.94283	0.00335
2018.65706	0.00327
2017.37129	0.00255
2016.08552	0.00157
2014.79975	0.00092
2013.51398	0.00082
2012.22821	0.00101
2010.94245	0.00103
2009.65668	0.00088
2008.37091	0.00119
2007.08514	0.00248
2005.79937	0.00432
2004.51360	0.00562
2003.22783	0.00581
2001.94206	0.00548
2000.65629	0.00561
1999.37053	0.00650
1998.08476	0.00765
1996.79899	0.00846
1995.51322	0.00865
1994.22745	0.00826
1992.94168	0.00746
1991.65591	0.00660
1990.37014	0.00603
1989.08438	0.00593
1987.79861	0.00618
1986.51284	0.00644
1985.22707	0.00639
1983.94130	0.00591
1982.65553	0.00505
1981.36976	0.00391
1980.08399	0.00260
1978.79822	0.00137
1977.51246	0.00059
1976.22669	0.00045
1974.94092	0.00080
1973.65515	0.00138
1972.36938	0.00199
1971.08361	0.00247
1969.79784	0.00266
1968.51207	0.00253
1967.22631	0.00225
1965.94054	0.00220
1964.65477	0.00271
1963.36900	0.00386
1962.08323	0.00532
1960.79746	0.00656
1959.51169	0.00712
1958.22592	0.00689
1956.94015	0.00609
1955.65439	0.00517
1954.36862	0.00455
1953.08285	0.00449
1951.79708	0.00500
1950.51131	0.00574
1949.22554	0.00626
1947.93977	0.00621
1946.65400	0.00565
1945.36823	0.00497
1944.08247	0.00466
1942.79670	0.00485
1941.51093	0.00523
1940.22516	0.00546
1938.93939	0.00546
1937.65362	0.00543
1936.36785	0.00549
1935.08208	0.00560
1933.79632	0.00578
1932.51055	0.00617
1931.22478	0.00683
1929.93901	0.00757
1928.65324	0.00813
1927.36747	0.00839
1926.08170	0.00839
1924.79593	0.00821
1923.51016	0.00787
1922.22440	0.00749
1920.93863	0.00729
1919.65286	0.00742
1918.36709	0.00784
1917.08132	0.00829
1915.79555	0.00847
1914.50978	0.00829
1913.22401	0.00787
1911.93825	0.00748
1910.65248	0.00726
1909.36671	0.00717
1908.08094	0.00712
1906.79517	0.00709
1905.50940	0.00719
1904.22363	0.00746
1902.93786	0.00776
1901.65209	0.00795
1900.36633	0.00799
1899.08056	0.00805
1897.79479	0.00820
1896.50902	0.00832
1895.22325	0.00821
1893.93748	0.00779
1892.65171	0.00721
1891.36594	0.00674
1890.08018	0.00654
1888.79441	0.00666
1887.50864	0.00704
1886.22287	0.00756
1884.93710	0.00801
1883.65133	0.00824
1882.36556	0.00823
1881.07979	0.00807
1879.79402	0.00791
1878.50826	0.00782
1877.22249	0.00778
1875.93672	0.00774
1874.65095	0.00770
1873.36518	0.00771
1872.07941	0.00784
1870.79364	0.00810
1869.50787	0.00835
1868.22211	0.00840
1866.93634	0.00820
1865.65057	0.00788
1864.36480	0.00765
1863.07903	0.00760
1861.79326	0.00773
1860.50749	0.00796
1859.22172	0.00818
1857.93595	0.00829
1856.65019	0.00830
1855.36442	0.00826
1854.07865	0.00823
1852.79288	0.00821
1851.50711	0.00817
1850.22134	0.00809
1848.93557	0.00795
1847.64980	0.00779
1846.36404	0.00765
1845.07827	0.00764
1843.79250	0.00780
1842.50673	0.00803
1841.22096	0.00817
1839.93519	0.00817
1838.64942	0.00815
1837.36365	0.00823
1836.07788	0.00843
1834.79212	0.00867
1833.50635	0.00887
1832.22058	0.00895
1830.93481	0.00890
1829.64904	0.00874
1828.36327	0.00853
1827.07750	0.00831
1825.79173	0.00809
1824.50597	0.00783
1823.22020	0.00758
1821.93443	0.00740
1820.64866	0.00731
1819.36289	0.00732
1818.07712	0.00747
1816.79135	0.00780
1815.50558	0.00829
1814.21981	0.00880
1812.93405	0.00919
1811.64828	0.00942
1810.36251	0.00951
1809.07674	0.00953
1807.79097	0.00949
1806.50520	0.00942
1805.21943	0.00934
1803.93366	0.00929
1802.64790	0.00925
1801.36213	0.00920
1800.07636	0.00915
1798.79059	0.00908
1797.50482	0.00899
1796.21905	0.00887
1794.93328	0.00873
1793.64751	0.00866
1792.36174	0.00870
1791.07598	0.00885
1789.79021	0.00902
1788.50444	0.00918
1787.21867	0.00928
1785.93290	0.00931
1784.64713	0.00927
1783.36136	0.00922
1782.07559	0.00922
1780.78983	0.00927
1779.50406	0.00932
1778.21829	0.00930
1776.93252	0.00926
1775.64675	0.00926
1774.36098	0.00932
1773.07521	0.00942
1771.78944	0.00952
1770.50367	0.00965
1769.21791	0.00983
1767.93214	0.01006
1766.64637	0.01024
1765.36060	0.01028
1764.07483	0.01018
1762.78906	0.01006
1761.50329	0.01002
1760.21752	0.01006
1758.93176	0.01008
1757.64599	0.01001
1756.36022	0.00985
1755.07445	0.00968
1753.78868	0.00958
1752.50291	0.00959
1751.21714	0.00969
1749.93137	0.00989
1748.64560	0.01013
1747.35984	0.01035
1746.07407	0.01048
1744.78830	0.01049
1743.50253	0.01043
1742.21676	0.01039
1740.93099	0.01041
1739.64522	0.01046
1738.35945	0.01047
1737.07369	0.01040
1735.78792	0.01031
1734.50215	0.01031
1733.21638	0.01045
1731.93061	0.01069
1730.64484	0.01090
1729.35907	0.01102
1728.07330	0.01107
1726.78753	0.01114
1725.50177	0.01127
1724.21600	0.01146
1722.93023	0.01165
1721.64446	0.01175
1720.35869	0.01176
1719.07292	0.01175
1717.78715	0.01183
1716.50138	0.01202
1715.21561	0.01229
1713.92985	0.01252
1712.64408	0.01268
1711.35831	0.01276
1710.07254	0.01282
1708.78677	0.01292
1707.50100	0.01306
1706.21523	0.01323
1704.92946	0.01342
1703.64370	0.01359
1702.35793	0.01374
1701.07216	0.01389
1699.78639	0.01404
1698.50062	0.01415
1697.21485	0.01423
1695.92908	0.01435
1694.64331	0.01458
1693.35754	0.01491
1692.07178	0.01526
1690.78601	0.01553
1689.50024	0.01568
1688.21447	0.01571
1686.92870	0.01565
1685.64293	0.01561
1684.35716	0.01575
1683.07139	0.01613
1681.78563	0.01663
1680.49986	0.01707
1679.21409	0.01734
1677.92832	0.01747
1676.64255	0.01756
1675.35678	0.01770
1674.07101	0.01787
1672.78524	0.01805
1671.49947	0.01823
1670.21371	0.01842
1668.92794	0.01867
1667.64217	0.01892
1666.35640	0.01913
1665.07063	0.01928
1663.78486	0.01941
1662.49909	0.01959
1661.21332	0.01983
1659.92756	0.02007
1658.64179	0.02022
1657.35602	0.02020
1656.07025	0.01998
1654.78448	0.01968
1653.49871	0.01950
1652.21294	0.01959
1650.92717	0.01990
1649.64140	0.02026
1648.35564	0.02057
1647.06987	0.02082
1645.78410	0.02106
1644.49833	0.02124
1643.21256	0.02131
1641.92679	0.02126
1640.64102	0.02116
1639.35525	0.02107
1638.06949	0.02100
1636.78372	0.02096
1635.49795	0.02097
1634.21218	0.02106
1632.92641	0.02119
1631.64064	0.02130
1630.35487	0.02135
1629.06910	0.02137
1627.78333	0.02141
1626.49757	0.02146
1625.21180	0.02148
1623.92603	0.02148
1622.64026	0.02150
1621.35449	0.02154
1620.06872	0.02157
1618.78295	0.02158
1617.49718	0.02158
1616.21142	0.02161
1614.92565	0.02169
1613.63988	0.02180
1612.35411	0.02189
1611.06834	0.02196
1609.78257	0.02201
1608.49680	0.02205
1607.21103	0.02211
1605.92526	0.02217
1604.63950	0.02224
1603.35373	0.02231
1602.06796	0.02240
1600.78219	0.02250
1599.49642	0.02259
1598.21065	0.02267
1596.92488	0.02276
1595.63911	0.02286
1594.35335	0.02295
1593.06758	0.02298
1591.78181	0.02297
1590.49604	0.02297
1589.21027	0.02303
1587.92450	0.02314
1586.63873	0.02326
1585.35296	0.02337
1584.06719	0.02349
1582.78143	0.02365
1581.49566	0.02381
1580.20989	0.02391
1578.92412	0.02391
1577.63835	0.02388
1576.35258	0.02390
1575.06681	0.02400
1573.78104	0.02411
1572.49528	0.02416
1571.20951	0.02416
1569.92374	0.02418
1568.63797	0.02425
1567.35220	0.02437
1566.06643	0.02450
1564.78066	0.02459
1563.49489	0.02459
1562.20912	0.02446
1560.92336	0.02424
1559.63759	0.02406
1558.35182	0.02403
1557.06605	0.02413
1555.78028	0.02428
1554.49451	0.02439
1553.20874	0.02447
1551.92297	0.02450
1550.63721	0.02449
1549.35144	0.02445
1548.06567	0.02436
1546.77990	0.02420
1545.49413	0.02396
1544.20836	0.02365
1542.92259	0.02332
1541.63682	0.02300
1540.35105	0.02278
1539.06529	0.02268
1537.77952	0.02268
1536.49375	0.02269
1535.20798	0.02266
1533.92221	0.02263
1532.63644	0.02264
1531.35067	0.02268
1530.06490	0.02271
1528.77914	0.02272
1527.49337	0.02274
1526.20760	0.02279
1524.92183	0.02287
1523.63606	0.02297
1522.35029	0.02311
1521.06452	0.02328
1519.77875	0.02354
1518.49298	0.02387
1517.20722	0.02428
1515.92145	0.02472
1514.63568	0.02513
1513.34991	0.02550
1512.06414	0.02584
1510.77837	0.02619
1509.49260	0.02660
1508.20683	0.02706
1506.92107	0.02760
1505.63530	0.02822
1504.34953	0.02886
1503.06376	0.02943
1501.77799	0.02986
1500.49222	0.03015
1499.20645	0.03039
1497.92068	0.03064
1496.63491	0.03093
1495.34915	0.03125
1494.06338	0.03157
1492.77761	0.03187
1491.49184	0.03216
1490.20607	0.03247
1488.92030	0.03283
1487.63453	0.03328
1486.34876	0.03380
1485.06299	0.03438
1483.77723	0.03496
1482.49146	0.03555
1481.20569	0.03615
1479.91992	0.03676
1478.63415	0.03736
1477.34838	0.03793
1476.06261	0.03845
1474.77684	0.03888
1473.49108	0.03926
1472.20531	0.03963
1470.91954	0.04003
1469.63377	0.04042
1468.34800	0.04076
1467.06223	0.04104
1465.77646	0.04124
1464.49069	0.04140
1463.20492	0.04152
1461.91916	0.04160
1460.63339	0.04168
1459.34762	0.04179
1458.06185	0.04196
1456.77608	0.04225
1455.49031	0.04264
1454.20454	0.04307
1452.91877	0.04346
1451.63301	0.04374
1450.34724	0.04392
1449.06147	0.04402
1447.77570	0.04407
1446.48993	0.04407
1445.20416	0.04400
1443.91839	0.04383
1442.63262	0.04357
1441.34685	0.04326
1440.06109	0.04291
1438.77532	0.04255
1437.48955	0.04222
1436.20378	0.04198
1434.91801	0.04186
1433.63224	0.04188
1432.34647	0.04205
1431.06070	0.04238
1429.77494	0.04284
1428.48917	0.04338
1427.20340	0.04398
1425.91763	0.04462
1424.63186	0.04528
1423.34609	0.04593
1422.06032	0.04655
1420.77455	0.04714
1419.48878	0.04769
1418.20302	0.04820
1416.91725	0.04863
1415.63148	0.04897
1414.34571	0.04922
1413.05994	0.04938
1411.77417	0.04947
1410.48840	0.04948
1409.20263	0.04937
1407.91687	0.04915
1406.63110	0.04883
1405.34533	0.04840
1404.05956	0.04785
1402.77379	0.04720
1401.48802	0.04646
1400.20225	0.04567
1398.91648	0.04488
1397.63071	0.04411
1396.34495	0.04333
1395.05918	0.04254
1393.77341	0.04173
1392.48764	0.04094
1391.20187	0.04016
1389.91610	0.03940
1388.63033	0.03867
1387.34456	0.03795
1386.05880	0.03723
1384.77303	0.03651
1383.48726	0.03582
1382.20149	0.03517
1380.91572	0.03454
1379.62995	0.03388
1378.34418	0.03315
1377.05841	0.03235
1375.77264	0.03150
1374.48688	0.03066
1373.20111	0.02986
1371.91534	0.02910
1370.62957	0.02837
1369.34380	0.02764
1368.05803	0.02695
1366.77226	0.02633
1365.48649	0.02578
1364.20073	0.02525
1362.91496	0.02469
1361.62919	0.02412
1360.34342	0.02358
1359.05765	0.02311
1357.77188	0.02267
1356.48611	0.02225
1355.20034	0.02184
1353.91457	0.02145
1352.62881	0.02109
1351.34304	0.02074
1350.05727	0.02041
1348.77150	0.02011
1347.48573	0.01986
1346.19996	0.01963
1344.91419	0.01940
1343.62842	0.01913
1342.34266	0.01885
1341.05689	0.01859
1339.77112	0.01836
1338.48535	0.01818
1337.19958	0.01803
1335.91381	0.01791
1334.62804	0.01780
1333.34227	0.01768
1332.05650	0.01756
1330.77074	0.01745
1329.48497	0.01733
1328.19920	0.01719
1326.91343	0.01701
1325.62766	0.01682
1324.34189	0.01665
1323.05612	0.01652
1321.77035	0.01638
1320.48459	0.01624
1319.19882	0.01610
1317.91305	0.01599
1316.62728	0.01592
1315.34151	0.01584
1314.05574	0.01575
1312.76997	0.01561
1311.48420	0.01546
1310.19843	0.01530
1308.91267	0.01514
1307.62690	0.01500
1306.34113	0.01487
1305.05536	0.01477
1303.76959	0.01469
1302.48382	0.01465
1301.19805	0.01463
1299.91228	0.01463
1298.62652	0.01462
1297.34075	0.01458
1296.05498	0.01453
1294.76921	0.01446
1293.48344	0.01441
1292.19767	0.01437
1290.91190	0.01434
1289.62613	0.01428
1288.34036	0.01418
1287.05460	0.01406
1285.76883	0.01397
1284.48306	0.01392
1283.19729	0.01393
1281.91152	0.01394
1280.62575	0.01392
1279.33998	0.01387
1278.05421	0.01377
1276.76845	0.01366
1275.48268	0.01357
1274.19691	0.01349
1272.91114	0.01344
1271.62537	0.01337
1270.33960	0.01327
1269.05383	0.01316
1267.76806	0.01305
1266.48229	0.01298
1265.19653	0.01297
1263.91076	0.01299
1262.62499	0.01300
1261.33922	0.01296
1260.05345	0.01289
1258.76768	0.01284
1257.48191	0.01282
1256.19614	0.01281
1254.91037	0.01276
1253.62461	0.01266
1252.33884	0.01253
1251.05307	0.01243
1249.76730	0.01239
1248.48153	0.01241
1247.19576	0.01245
1245.90999	0.01249
1244.62422	0.01250
1243.33846	0.01249
1242.05269	0.01244
1240.76692	0.01236
1239.48115	0.01226
1238.19538	0.01215
1236.90961	0.01207
1235.62384	0.01205
1234.33807	0.01207
1233.05230	0.01208
1231.76654	0.01205
1230.48077	0.01199
1229.19500	0.01191
1227.90923	0.01184
1226.62346	0.01180
1225.33769	0.01180
1224.05192	0.01180
1222.76615	0.01179
1221.48039	0.01177
1220.19462	0.01177
1218.90885	0.01178
1217.62308	0.01178
1216.33731	0.01176
1215.05154	0.01175
1213.76577	0.01177
1212.48000	0.01180
1211.19423	0.01181
1209.90847	0.01181
1208.62270	0.01180
1207.33693	0.01180
1206.05116	0.01179
1204.76539	0.01178
1203.47962	0.01177
1202.19385	0.01176
1200.90808	0.01183
1199.62232	0.01198
1198.33655	0.01193
1197.05078	0.01190
1195.76501	0.01193
1194.47924	0.01202
1193.19347	0.01213
1191.90770	0.01223
1190.62193	0.01230
1189.33616	0.01231
1188.05040	0.01228
1186.76463	0.01221
1185.47886	0.01215
1184.19309	0.01213
1182.90732	0.01213
1181.62155	0.01212
1180.33578	0.01209
1179.05001	0.01206
1177.76425	0.01204
1176.47848	0.01203
1175.19271	0.01204
1173.90694	0.01212
1172.62117	0.01222
1171.33540	0.01227
1170.04963	0.01224
1168.76386	0.01218
1167.47809	0.01220
1166.19233	0.01231
1164.90656	0.01244
1163.62079	0.01253
1162.33502	0.01258
1161.04925	0.01263
1159.76348	0.01274
1158.47771	0.01288
1157.19194	0.01303
1155.90618	0.01316
1154.62041	0.01325
1153.33464	0.01331
1152.04887	0.01340
1150.76310	0.01356
1149.47733	0.01379
1148.19156	0.01405
1146.90579	0.01431
1145.62002	0.01455
1144.33426	0.01478
1143.04849	0.01502
1141.76272	0.01529
1140.47695	0.01560
1139.19118	0.01597
1137.90541	0.01643
1136.61964	0.01696
1135.33387	0.01758
1134.04811	0.01826
1132.76234	0.01902
1131.47657	0.01986
1130.19080	0.02084
1128.90503	0.02197
1127.61926	0.02323
1126.33349	0.02459
1125.04772	0.02600
1123.76195	0.02747
1122.47619	0.02903
1121.19042	0.03067
1119.90465	0.03241
1118.61888	0.03424
1117.33311	0.03616
1116.04734	0.03813
1114.76157	0.04009
1113.47580	0.04200
1112.19004	0.04384
1110.90427	0.04562
1109.61850	0.04730
1108.33273	0.04883
1107.04696	0.05023
1105.76119	0.05154
1104.47542	0.05285
1103.18965	0.05420
1101.90388	0.05562
1100.61812	0.05706
1099.33235	0.05845
1098.04658	0.05976
1096.76081	0.06099
1095.47504	0.06213
1094.18927	0.06317
1092.90350	0.06410
1091.61773	0.06494
1090.33197	0.06573
1089.04620	0.06650
1087.76043	0.06720
1086.47466	0.06781
1085.18889	0.06833
1083.90312	0.06889
1082.61735	0.06959
1081.33158	0.07047
1080.04581	0.07149
1078.76005	0.07259
1077.47428	0.07372
1076.18851	0.07488
1074.90274	0.07612
1073.61697	0.07748
1072.33120	0.07897
1071.04543	0.08055
1069.75966	0.08215
1068.47390	0.08374
1067.18813	0.08536
1065.90236	0.08704
1064.61659	0.08879
1063.33082	0.09055
1062.04505	0.09230
1060.75928	0.09406
1059.47351	0.09578
1058.18774	0.09743
1056.90198	0.09899
1055.61621	0.10051
1054.33044	0.10205
1053.04467	0.10363
1051.75890	0.10523
1050.47313	0.10684
1049.18736	0.10846
1047.90159	0.11011
1046.61583	0.11181
1045.33006	0.11357
1044.04429	0.11537
1042.75852	0.11718
1041.47275	0.11896
1040.18698	0.12072
1038.90121	0.12244
1037.61544	0.12409
1036.32967	0.12569
1035.04391	0.12724
1033.75814	0.12877
1032.47237	0.13024
1031.18660	0.13164
1029.90083	0.13291
1028.61506	0.13398
1027.32929	0.13480
1026.04352	0.13535
1024.75775	0.13569
1023.47199	0.13589
1022.18622	0.13593
1020.90045	0.13572
1019.61468	0.13523
1018.32891	0.13451
1017.04314	0.13362
1015.75737	0.13257
1014.47160	0.13130
1013.18584	0.12975
1011.90007	0.12795
1010.61430	0.12596
1009.32853	0.12379
1008.04276	0.12143
1006.75699	0.11888
1005.47122	0.11612
1004.18545	0.11318
1002.89968	0.11008
1001.61392	0.10686
1000.32815	0.10354
999.04238	0.10016
997.75661	0.09679
996.47084	0.09346
995.18507	0.09016
993.89930	0.08692
992.61353	0.08374
991.32777	0.08066
990.04200	0.07772
988.75623	0.07493
987.47046	0.07229
986.18469	0.06976
984.89892	0.06732
983.61315	0.06497
982.32738	0.06273
981.04161	0.06065
979.75585	0.05873
978.47008	0.05700
977.18431	0.05545
975.89854	0.05403
974.61277	0.05272
973.32700	0.05156
972.04123	0.05063
970.75546	0.04999
969.46970	0.04965
968.18393	0.04964
966.89816	0.04991
965.61239	0.05040
964.32662	0.05103
963.04085	0.05171
961.75508	0.05229
960.46931	0.05259
959.18354	0.05246
957.89778	0.05186
956.61201	0.05090
955.32624	0.04970
954.04047	0.04843
952.75470	0.04720
951.46893	0.04605
950.18316	0.04495
948.89739	0.04386
947.61163	0.04277
946.32586	0.04170
945.04009	0.04062
943.75432	0.03953
942.46855	0.03846
941.18278	0.03745
939.89701	0.03653
938.61124	0.03571
937.32547	0.03497
936.03971	0.03433
934.75394	0.03378
933.46817	0.03329
932.18240	0.03277
930.89663	0.03218
929.61086	0.03156
928.32509	0.03101
927.03932	0.03055
925.75356	0.03016
924.46779	0.02982
923.18202	0.02950
921.89625	0.02923
920.61048	0.02897
919.32471	0.02869
918.03894	0.02834
916.75317	0.02790
915.46740	0.02745
914.18164	0.02704
912.89587	0.02672
911.61010	0.02648
910.32433	0.02634
909.03856	0.02633
907.75279	0.02634
906.46702	0.02625
905.18125	0.02600
903.89549	0.02570
902.60972	0.02549
901.32395	0.02537
900.03818	0.02528
898.75241	0.02515
897.46664	0.02497
896.18087	0.02474
894.89510	0.02447
893.60933	0.02418
892.32357	0.02390
891.03780	0.02365
889.75203	0.02353
888.46626	0.02359
887.18049	0.02389
885.89472	0.02443
884.60895	0.02527
883.32318	0.02642
882.03742	0.02778
880.75165	0.02909
879.46588	0.03010
878.18011	0.03072
876.89434	0.03116
875.60857	0.03165
874.32280	0.03233
873.03703	0.03303
871.75126	0.03352
870.46550	0.03362
869.17973	0.03334
867.89396	0.03274
866.60819	0.03186
865.32242	0.03075
864.03665	0.02946
862.75088	0.02818
861.46511	0.02706
860.17935	0.02618
858.89358	0.02550
857.60781	0.02495
856.32204	0.02450
855.03627	0.02415
853.75050	0.02388
852.46473	0.02361
851.17896	0.02332
849.89319	0.02304
848.60743	0.02282
847.32166	0.02265
846.03589	0.02249
844.75012	0.02232
843.46435	0.02215
842.17858	0.02202
840.89281	0.02190
839.60704	0.02177
838.32128	0.02161
837.03551	0.02142
835.74974	0.02124
834.46397	0.02108
833.17820	0.02093
831.89243	0.02078
830.60666	0.02067
829.32089	0.02062
828.03512	0.02064
826.74936	0.02071
825.46359	0.02076
824.17782	0.02076
822.89205	0.02071
821.60628	0.02065
820.32051	0.02060
819.03474	0.02058
817.74897	0.02054
816.46321	0.02044
815.17744	0.02028
813.89167	0.02014
812.60590	0.02008
811.32013	0.02013
810.03436	0.02023
808.74859	0.02029
807.46282	0.02024
806.17705	0.02007
804.89129	0.01985
803.60552	0.01967
802.31975	0.01955
801.03398	0.01947
799.74821	0.01941
798.46244	0.01936
797.17667	0.01933
795.89090	0.01934
794.60513	0.01936
793.31937	0.01934
792.03360	0.01932
790.74783	0.01933
789.46206	0.01942
788.17629	0.01955
786.89052	0.01965
785.60475	0.01968
784.31898	0.01962
783.03322	0.01952
781.74745	0.01941
780.46168	0.01935
779.17591	0.01933
777.89014	0.01933
776.60437	0.01932
775.31860	0.01929
774.03283	0.01923
772.74706	0.01912
771.46130	0.01893
770.17553	0.01872
768.88976	0.01857
767.60399	0.01855
766.31822	0.01861
765.03245	0.01865
763.74668	0.01860
762.46091	0.01850
761.17515	0.01845
759.88938	0.01854
758.60361	0.01879
757.31784	0.01913
756.03207	0.01936
754.74630	0.01939
753.46053	0.01924
752.17476	0.01904
750.88899	0.01887
749.60323	0.01876
748.31746	0.01868
747.03169	0.01862
745.74592	0.01855
744.46015	0.01847
743.17438	0.01836
741.88861	0.01823
740.60284	0.01809
739.31708	0.01804
738.03131	0.01814
736.74554	0.01834
735.45977	0.01853
734.17400	0.01861
732.88823	0.01856
731.60246	0.01838
730.31669	0.01813
729.03092	0.01798
727.74516	0.01804
726.45939	0.01822
725.17362	0.01837
723.88785	0.01831
722.60208	0.01826
721.31631	0.01826
720.03054	0.01831
718.74477	0.01837
717.45901	0.01840
716.17324	0.01840
714.88747	0.01837
713.60170	0.01833
712.31593	0.01825
711.03016	0.01817
709.74439	0.01811
708.45862	0.01808
707.17285	0.01805
705.88709	0.01803
704.60132	0.01801
703.31555	0.01802
702.02978	0.01806
700.74401	0.01811
699.45824	0.01813
698.17247	0.01811
696.88670	0.01808
695.60094	0.01805
694.31517	0.01804
693.02940	0.01804
691.74363	0.01808
690.45786	0.01813
689.17209	0.01816
687.88632	0.01817
686.60055	0.01813
685.31478	0.01806
684.02902	0.01797
682.74325	0.01788
681.45748	0.01782
680.17171	0.01780
678.88594	0.01781
677.60017	0.01782
676.31440	0.01779
675.02863	0.01774
673.74287	0.01768
672.45710	0.01768
671.17133	0.01777
669.88556	0.01794
668.59979	0.01811
667.31402	0.01822
666.02825	0.01819
664.74248	0.01806
663.45671	0.01793
662.17095	0.01787
660.88518	0.01788
659.59941	0.01794
658.31364	0.01799
657.02787	0.01801
655.74210	0.01798
654.45633	0.01794
653.17056	0.01794
651.88480	0.01800
650.59903	0.01809
649.31326	0.01817
648.02749	0.01822
646.74172	0.01824
645.45595	0.01828
644.17018	0.01838
642.88441	0.01853
641.59864	0.01874
640.31288	0.01897
639.02711	0.01917
637.74134	0.01932
636.45557	0.01943
635.16980	0.01955
633.88403	0.01972
632.59826	0.01998
631.31249	0.02013
630.02673	0.01947
628.74096	0.01837
627.45519	0.01973
626.16942	0.01816
624.88365	0.01435
623.59788	0.01060
622.31211	0.00851
621.02634	0.00888
619.74057	0.01141
618.45481	0.01517
617.16904	0.01941
615.88327	0.02379
614.59750	0.02819
613.31173	0.03270
612.02596	0.03727
610.74019	0.04126
609.45442	0.04368
608.16866	0.04431
606.88289	0.04417
605.59712	0.04458
604.31135	0.04599
603.02558	0.04787
601.73981	0.04939
600.45404	0.05000
599.16827	0.04972
597.88250	0.04883
596.59674	0.04762
595.31097	0.04624
594.02520	0.04473
592.73943	0.04321
591.45366	0.04197
590.16789	0.04130
588.88212	0.04127
587.59635	0.04168
586.31059	0.04230
585.02482	0.04303
583.73905	0.04395
582.45328	0.04514
581.16751	0.04665
579.88174	0.04837
578.59597	0.05016
577.31020	0.05187
576.02443	0.05343
574.73867	0.05486
573.45290	0.05622
572.16713	0.05756
570.88136	0.05891
569.59559	0.06031
568.30982	0.06184
567.02405	0.06356
565.73828	0.06541
564.45251	0.06726
563.16675	0.06886
561.88098	0.06996
560.59521	0.07024
559.30944	0.06946
558.02367	0.06755
556.73790	0.06472
555.45213	0.06133
554.16636	0.05774
552.88060	0.05419
551.59483	0.05087
550.30906	0.04787
549.02329	0.04524
547.73752	0.04294
546.45175	0.04089
545.16598	0.03902
543.88021	0.03736
542.59444	0.03594
541.30868	0.03476
540.02291	0.03372
538.73714	0.03270
537.45137	0.03164
536.16560	0.03062
534.87983	0.02969
533.59406	0.02889
532.30829	0.02824
531.02253	0.02769
529.73676	0.02722
528.45099	0.02676
527.16522	0.02627
525.87945	0.02576
524.59368	0.02528
523.30791	0.02488
522.02214	0.02450
520.73637	0.02408
519.45061	0.02356
518.16484	0.02298
516.87907	0.02242
515.59330	0.02198
514.30753	0.02171
513.02176	0.02161
511.73599	0.02161
510.45022	0.02160
509.16446	0.02150
507.87869	0.02125
506.59292	0.02089
505.30715	0.02050
504.02138	0.02012
502.73561	0.01977
501.44984	0.01943
500.16407	0.01908
498.87830	0.01876
497.59254	0.01853
496.30677	0.01841
495.02100	0.01837
493.73523	0.01830
492.44946	0.01817
491.16369	0.01798
489.87792	0.01779
488.59215	0.01762
487.30639	0.01749
486.02062	0.01744
484.73485	0.01751
483.44908	0.01767
482.16331	0.01782
480.87754	0.01790
479.59177	0.01791
478.30600	0.01789
477.02023	0.01790
475.73447	0.01795
474.44870	0.01805
473.16293	0.01817
471.87716	0.01829
470.59139	0.01837
469.30562	0.01839
468.01985	0.01834
466.73408	0.01821
465.44832	0.01799
464.16255	0.01773
462.87678	0.01744
461.59101	0.01715
460.30524	0.01685
459.01947	0.01656
457.73370	0.01630
456.44793	0.01611
455.16216	0.01599
453.87640	0.01591
452.59063	0.01584
451.30486	0.01577
450.01909	0.01572
448.73332	0.01570
447.44755	0.01571
446.16178	0.01569
444.87601	0.01559
443.59025	0.01541
442.30448	0.01521
441.01871	0.01502
439.73294	0.01485
438.44717	0.01474
437.16140	0.01467
435.87563	0.01465
434.58986	0.01466
433.30409	0.01465
432.01833	0.01458
430.73256	0.01447
429.44679	0.01437
428.16102	0.01431
426.87525	0.01427
425.58948	0.01426
424.30371	0.01425
423.01794	0.01421
421.73218	0.01411
420.44641	0.01396
419.16064	0.01382
417.87487	0.01372
416.58910	0.01365
415.30333	0.01355
414.01756	0.01341
412.73179	0.01327
411.44602	0.01320
410.16026	0.01323
408.87449	0.01335
407.58872	0.01352
406.30295	0.01368
405.01718	0.01377
403.73141	0.01377
402.44564	0.01374
401.15987	0.01368
399.87411	0.01361
