3997.45528	0.01257
3996.16951	0.01256
3994.88374	0.01253
3993.59798	0.01253
3992.31221	0.01265
3991.02644	0.01292
3989.74067	0.01327
3988.45490	0.01355
3987.16913	0.01365
3985.88336	0.01361
3984.59759	0.01357
3983.31183	0.01355
3982.02606	0.01342
3980.74029	0.01306
3979.45452	0.01263
3978.16875	0.01247
3976.88298	0.01276
3975.59721	0.01325
3974.31144	0.01355
3973.02567	0.01349
3971.73991	0.01332
3970.45414	0.01326
3969.16837	0.01328
3967.88260	0.01311
3966.59683	0.01262
3965.31106	0.01190
3964.02529	0.01122
3962.73952	0.01092
3961.45376	0.01125
3960.16799	0.01221
3958.88222	0.01341
3957.59645	0.01424
3956.31068	0.01427
3955.02491	0.01353
3953.73914	0.01248
3952.45337	0.01175
3951.16760	0.01179
3949.88184	0.01260
3948.59607	0.01375
3947.31030	0.01459
3946.02453	0.01464
3944.73876	0.01390
3943.45299	0.01292
3942.16722	0.01235
3940.88145	0.01243
3939.59569	0.01291
3938.30992	0.01333
3937.02415	0.01343
3935.73838	0.01319
3934.45261	0.01270
3933.16684	0.01202
3931.88107	0.01138
3930.59530	0.01112
3929.30953	0.01151
3928.02377	0.01249
3926.73800	0.01367
3925.45223	0.01465
3924.16646	0.01523
3922.88069	0.01535
3921.59492	0.01502
3920.30915	0.01431
3919.02338	0.01346
3917.73762	0.01279
3916.45185	0.01249
3915.16608	0.01242
3913.88031	0.01233
3912.59454	0.01210
3911.30877	0.01187
3910.02300	0.01186
3908.73723	0.01215
3907.45146	0.01257
3906.16570	0.01290
3904.87993	0.01304
3903.59416	0.01306
3902.30839	0.01310
3901.02262	0.01320
3899.73685	0.01322
3898.45108	0.01296
3897.16531	0.01245
3895.87955	0.01201
3894.59378	0.01193
3893.30801	0.01221
3892.02224	0.01270
3890.73647	0.01339
3889.45070	0.01430
3888.16493	0.01519
3886.87916	0.01561
3885.59339	0.01542
3884.30763	0.01497
3883.02186	0.01462
3881.73609	0.01437
3880.45032	0.01398
3879.16455	0.01347
3877.87878	0.01309
3876.59301	0.01304
3875.30724	0.01334
3874.02148	0.01387
3872.73571	0.01444
3871.44994	0.01486
3870.16417	0.01508
3868.87840	0.01523
3867.59263	0.01546
3866.30686	0.01561
3865.02109	0.01544
3863.73532	0.01491
3862.44956	0.01430
3861.16379	0.01396
3859.87802	0.01397
3858.59225	0.01418
3857.30648	0.01442
3856.02071	0.01463
3854.73494	0.01478
3853.44917	0.01486
3852.16341	0.01489
3850.87764	0.01492
3849.59187	0.01496
3848.30610	0.01501
3847.02033	0.01498
3845.73456	0.01478
3844.44879	0.01440
3843.16302	0.01401
3841.87725	0.01383
3840.59149	0.01389
3839.30572	0.01393
3838.01995	0.01374
3836.73418	0.01343
3835.44841	0.01335
3834.16264	0.01367
3832.87687	0.01423
3831.59110	0.01461
3830.30534	0.01460
3829.01957	0.01427
3827.73380	0.01392
3826.44803	0.01366
3825.16226	0.01336
3823.87649	0.01288
3822.59072	0.01228
3821.30495	0.01182
3820.01918	0.01173
3818.73342	0.01199
3817.44765	0.01227
3816.16188	0.01225
3814.87611	0.01193
3813.59034	0.01168
3812.30457	0.01190
3811.01880	0.01256
3809.73303	0.01326
3808.44726	0.01357
3807.16150	0.01337
3805.87573	0.01283
3804.58996	0.01228
3803.30419	0.01197
3802.01842	0.01201
3800.73265	0.01228
3799.44688	0.01258
3798.16111	0.01286
3796.87535	0.01322
3795.58958	0.01369
3794.30381	0.01416
3793.01804	0.01447
3791.73227	0.01457
3790.44650	0.01446
3789.16073	0.01419
3787.87496	0.01386
3786.58919	0.01361
3785.30343	0.01349
3784.01766	0.01343
3782.73189	0.01336
3781.44612	0.01333
3780.16035	0.01346
3778.87458	0.01379
3777.58881	0.01418
3776.30304	0.01435
3775.01728	0.01412
3773.73151	0.01363
3772.44574	0.01319
3771.15997	0.01300
3769.87420	0.01296
3768.58843	0.01292
3767.30266	0.01279
3766.01689	0.01258
3764.73112	0.01235
3763.44536	0.01231
3762.15959	0.01267
3760.87382	0.01341
3759.58805	0.01408
3758.30228	0.01414
3757.01651	0.01344
3755.73074	0.01239
3754.44497	0.01160
3753.15921	0.01130
3751.87344	0.01123
3750.58767	0.01110
3749.30190	0.01103
3748.01613	0.01131
3746.73036	0.01200
3745.44459	0.01278
3744.15882	0.01333
3742.87305	0.01361
3741.58729	0.01378
3740.30152	0.01394
3739.01575	0.01398
3737.72998	0.01376
3736.44421	0.01332
3735.15844	0.01293
3733.87267	0.01282
3732.58690	0.01308
3731.30114	0.01352
3730.01537	0.01389
3728.72960	0.01409
3727.44383	0.01416
3726.15806	0.01416
3724.87229	0.01403
3723.58652	0.01368
3722.30075	0.01321
3721.01498	0.01282
3719.72922	0.01259
3718.44345	0.01249
3717.15768	0.01241
3715.87191	0.01242
3714.58614	0.01263
3713.30037	0.01304
3712.01460	0.01337
3710.72883	0.01328
3709.44307	0.01274
3708.15730	0.01203
3706.87153	0.01154
3705.58576	0.01145
3704.29999	0.01165
3703.01422	0.01194
3701.72845	0.01211
3700.44268	0.01207
3699.15691	0.01187
3697.87115	0.01164
3696.58538	0.01153
3695.29961	0.01165
3694.01384	0.01194
3692.72807	0.01229
3691.44230	0.01264
3690.15653	0.01301
3688.87076	0.01339
3687.58500	0.01369
3686.29923	0.01381
3685.01346	0.01377
3683.72769	0.01364
3682.44192	0.01352
3681.15615	0.01352
3679.87038	0.01379
3678.58461	0.01438
3677.29884	0.01509
3676.01308	0.01546
3674.72731	0.01512
3673.44154	0.01422
3672.15577	0.01338
3670.87000	0.01307
3669.58423	0.01318
3668.29846	0.01329
3667.01269	0.01315
3665.72693	0.01296
3664.44116	0.01299
3663.15539	0.01319
3661.86962	0.01330
3660.58385	0.01334
3659.29808	0.01360
3658.01231	0.01420
3656.72654	0.01480
3655.44077	0.01490
3654.15501	0.01444
3652.86924	0.01383
3651.58347	0.01357
3650.29770	0.01381
3649.01193	0.01438
3647.72616	0.01494
3646.44039	0.01528
3645.15462	0.01536
3643.86886	0.01529
3642.58309	0.01510
3641.29732	0.01482
3640.01155	0.01450
3638.72578	0.01426
3637.44001	0.01418
3636.15424	0.01415
3634.86847	0.01406
3633.58270	0.01403
3632.29694	0.01442
3631.01117	0.01545
3629.72540	0.01684
3628.43963	0.01794
3627.15386	0.01829
3625.86809	0.01784
3624.58232	0.01695
3623.29655	0.01602
3622.01079	0.01543
3620.72502	0.01547
3619.43925	0.01614
3618.15348	0.01709
3616.86771	0.01784
3615.58194	0.01813
3614.29617	0.01816
3613.01040	0.01826
3611.72463	0.01851
3610.43887	0.01873
3609.15310	0.01877
3607.86733	0.01869
3606.58156	0.01862
3605.29579	0.01846
3604.01002	0.01806
3602.72425	0.01751
3601.43848	0.01719
3600.15272	0.01741
3598.86695	0.01804
3597.58118	0.01864
3596.29541	0.01894
3595.00964	0.01900
3593.72387	0.01904
3592.43810	0.01914
3591.15233	0.01923
3589.86656	0.01930
3588.58080	0.01938
3587.29503	0.01944
3586.00926	0.01946
3584.72349	0.01934
3583.43772	0.01904
3582.15195	0.01852
3580.86618	0.01799
3579.58041	0.01781
3578.29464	0.01821
3577.00888	0.01901
3575.72311	0.01976
3574.43734	0.02017
3573.15157	0.02028
3571.86580	0.02032
3570.58003	0.02052
3569.29426	0.02100
3568.00849	0.02164
3566.72273	0.02212
3565.43696	0.02216
3564.15119	0.02175
3562.86542	0.02117
3561.57965	0.02080
3560.29388	0.02091
3559.00811	0.02143
3557.72234	0.02198
3556.43657	0.02216
3555.15081	0.02195
3553.86504	0.02161
3552.57927	0.02142
3551.29350	0.02142
3550.00773	0.02160
3548.72196	0.02198
3547.43619	0.02258
3546.15042	0.02328
3544.86466	0.02382
3543.57889	0.02400
3542.29312	0.02373
3541.00735	0.02308
3539.72158	0.02224
3538.43581	0.02157
3537.15004	0.02144
3535.86427	0.02195
3534.57850	0.02283
3533.29274	0.02362
3532.00697	0.02407
3530.72120	0.02424
3529.43543	0.02429
3528.14966	0.02428
3526.86389	0.02416
3525.57812	0.02392
3524.29235	0.02374
3523.00659	0.02390
3521.72082	0.02452
3520.43505	0.02547
3519.14928	0.02647
3517.86351	0.02733
3516.57774	0.02793
3515.29197	0.02820
3514.00620	0.02810
3512.72043	0.02765
3511.43467	0.02704
3510.14890	0.02651
3508.86313	0.02618
3507.57736	0.02607
3506.29159	0.02606
3505.00582	0.02617
3503.72005	0.02647
3502.43428	0.02696
3501.14852	0.02758
3499.86275	0.02821
3498.57698	0.02871
3497.29121	0.02879
3496.00544	0.02826
3494.71967	0.02734
3493.43390	0.02661
3492.14813	0.02656
3490.86236	0.02716
3489.57660	0.02796
3488.29083	0.02855
3487.00506	0.02882
3485.71929	0.02883
3484.43352	0.02863
3483.14775	0.02827
3481.86198	0.02797
3480.57621	0.02785
3479.29045	0.02776
3478.00468	0.02741
3476.71891	0.02672
3475.43314	0.02602
3474.14737	0.02576
3472.86160	0.02618
3471.57583	0.02709
3470.29006	0.02808
3469.00429	0.02885
3467.71853	0.02931
3466.43276	0.02950
3465.14699	0.02952
3463.86122	0.02953
3462.57545	0.02972
3461.28968	0.03007
3460.00391	0.03041
3458.71814	0.03068
3457.43238	0.03095
3456.14661	0.03120
3454.86084	0.03111
3453.57507	0.03044
3452.28930	0.02943
3451.00353	0.02869
3449.71776	0.02870
3448.43199	0.02943
3447.14622	0.03033
3445.86046	0.03082
3444.57469	0.03070
3443.28892	0.03022
3442.00315	0.02983
3440.71738	0.02974
3439.43161	0.02981
3438.14584	0.02984
3436.86007	0.02981
3435.57431	0.02981
3434.28854	0.02987
3433.00277	0.02996
3431.71700	0.03010
3430.43123	0.03039
3429.14546	0.03079
3427.85969	0.03108
3426.57392	0.03101
3425.28815	0.03062
3424.00239	0.03020
3422.71662	0.03009
3421.43085	0.03037
3420.14508	0.03082
3418.85931	0.03114
3417.57354	0.03112
3416.28777	0.03077
3415.00200	0.03027
3413.71624	0.02989
3412.43047	0.02983
3411.14470	0.03021
3409.85893	0.03096
3408.57316	0.03178
3407.28739	0.03230
3406.00162	0.03233
3404.71585	0.03205
3403.43008	0.03185
3402.14432	0.03194
3400.85855	0.03225
3399.57278	0.03252
3398.28701	0.03254
3397.00124	0.03236
3395.71547	0.03219
3394.42970	0.03224
3393.14393	0.03253
3391.85817	0.03287
3390.57240	0.03305
3389.28663	0.03298
3388.00086	0.03274
3386.71509	0.03255
3385.42932	0.03258
3384.14355	0.03283
3382.85778	0.03317
3381.57201	0.03342
3380.28625	0.03346
3379.00048	0.03329
3377.71471	0.03302
3376.42894	0.03279
3375.14317	0.03267
3373.85740	0.03268
3372.57163	0.03278
3371.28586	0.03297
3370.00010	0.03321
3368.71433	0.03348
3367.42856	0.03374
3366.14279	0.03391
3364.85702	0.03393
3363.57125	0.03376
3362.28548	0.03347
3360.99971	0.03319
3359.71394	0.03302
3358.42818	0.03295
3357.14241	0.03286
3355.85664	0.03276
3354.57087	0.03283
3353.28510	0.03321
3351.99933	0.03387
3350.71356	0.03453
3349.42779	0.03491
3348.14202	0.03494
3346.85626	0.03470
3345.57049	0.03434
3344.28472	0.03394
3342.99895	0.03355
3341.71318	0.03334
3340.42741	0.03347
3339.14164	0.03388
3337.85587	0.03421
3336.57011	0.03416
3335.28434	0.03377
3333.99857	0.03345
3332.71280	0.03350
3331.42703	0.03396
3330.14126	0.03455
3328.85549	0.03490
3327.56972	0.03485
3326.28395	0.03446
3324.99819	0.03398
3323.71242	0.03364
3322.42665	0.03354
3321.14088	0.03358
3319.85511	0.03361
3318.56934	0.03359
3317.28357	0.03355
3315.99780	0.03353
3314.71204	0.03360
3313.42627	0.03382
3312.14050	0.03429
3310.85473	0.03491
3309.56896	0.03543
3308.28319	0.03557
3306.99742	0.03524
3305.71165	0.03461
3304.42588	0.03389
3303.14012	0.03325
3301.85435	0.03276
3300.56858	0.03247
3299.28281	0.03243
3297.99704	0.03267
3296.71127	0.03312
3295.42550	0.03356
3294.13973	0.03373
3292.85397	0.03360
3291.56820	0.03343
3290.28243	0.03350
3288.99666	0.03379
3287.71089	0.03398
3286.42512	0.03388
3285.13935	0.03356
3283.85358	0.03325
3282.56781	0.03302
3281.28205	0.03282
3279.99628	0.03260
3278.71051	0.03237
3277.42474	0.03220
3276.13897	0.03214
3274.85320	0.03225
3273.56743	0.03246
3272.28166	0.03267
3270.99590	0.03278
3269.71013	0.03277
3268.42436	0.03260
3267.13859	0.03234
3265.85282	0.03216
3264.56705	0.03227
3263.28128	0.03264
3261.99551	0.03309
3260.70974	0.03348
3259.42398	0.03376
3258.13821	0.03394
3256.85244	0.03392
3255.56667	0.03367
3254.28090	0.03332
3252.99513	0.03314
3251.70936	0.03330
3250.42359	0.03368
3249.13783	0.03393
3247.85206	0.03379
3246.56629	0.03335
3245.28052	0.03291
3243.99475	0.03265
3242.70898	0.03255
3241.42321	0.03249
3240.13744	0.03238
3238.85167	0.03222
3237.56591	0.03207
3236.28014	0.03199
3234.99437	0.03205
3233.70860	0.03221
3232.42283	0.03239
3231.13706	0.03247
3229.85129	0.03248
3228.56552	0.03256
3227.27976	0.03281
3225.99399	0.03317
3224.70822	0.03345
3223.42245	0.03348
3222.13668	0.03323
3220.85091	0.03279
3219.56514	0.03231
3218.27937	0.03190
3216.99360	0.03161
3215.70784	0.03151
3214.42207	0.03162
3213.13630	0.03184
3211.85053	0.03197
3210.56476	0.03183
3209.27899	0.03152
3207.99322	0.03131
3206.70745	0.03138
3205.42169	0.03168
3204.13592	0.03203
3202.85015	0.03227
3201.56438	0.03233
3200.27861	0.03218
3198.99284	0.03186
3197.70707	0.03148
3196.42130	0.03120
3195.13553	0.03112
3193.84977	0.03119
3192.56400	0.03123
3191.27823	0.03114
3189.99246	0.03099
3188.70669	0.03091
3187.42092	0.03093
3186.13515	0.03095
3184.84938	0.03086
3183.56362	0.03074
3182.27785	0.03074
3180.99208	0.03091
3179.70631	0.03108
3178.42054	0.03100
3177.13477	0.03065
3175.84900	0.03027
3174.56323	0.03013
3173.27746	0.03024
3171.99170	0.03042
3170.70593	0.03047
3169.42016	0.03040
3168.13439	0.03030
3166.84862	0.03025
3165.56285	0.03022
3164.27708	0.03013
3162.99131	0.03000
3161.70555	0.02992
3160.41978	0.02994
3159.13401	0.02995
3157.84824	0.02983
3156.56247	0.02962
3155.27670	0.02949
3153.99093	0.02955
3152.70516	0.02975
3151.41939	0.03001
3150.13363	0.03022
3148.84786	0.03034
3147.56209	0.03040
3146.27632	0.03045
3144.99055	0.03051
3143.70478	0.03043
3142.41901	0.03007
3141.13324	0.02949
3139.84748	0.02899
3138.56171	0.02882
3137.27594	0.02892
3135.99017	0.02913
3134.70440	0.02934
3133.41863	0.02950
3132.13286	0.02952
3130.84709	0.02937
3129.56132	0.02917
3128.27556	0.02904
3126.98979	0.02897
3125.70402	0.02890
3124.41825	0.02884
3123.13248	0.02889
3121.84671	0.02906
3120.56094	0.02922
3119.27517	0.02932
3117.98940	0.02939
3116.70364	0.02948
3115.41787	0.02951
3114.13210	0.02940
3112.84633	0.02923
3111.56056	0.02919
3110.27479	0.02935
3108.98902	0.02952
3107.70325	0.02949
3106.41749	0.02927
3105.13172	0.02907
3103.84595	0.02905
3102.56018	0.02924
3101.27441	0.02948
3099.98864	0.02960
3098.70287	0.02948
3097.41710	0.02920
3096.13133	0.02896
3094.84557	0.02892
3093.55980	0.02908
3092.27403	0.02925
3090.98826	0.02928
3089.70249	0.02922
3088.41672	0.02916
3087.13095	0.02906
3085.84518	0.02880
3084.55942	0.02840
3083.27365	0.02806
3081.98788	0.02798
3080.70211	0.02817
3079.41634	0.02846
3078.13057	0.02870
3076.84480	0.02885
3075.55903	0.02888
3074.27326	0.02881
3072.98750	0.02866
3071.70173	0.02848
3070.41596	0.02827
3069.13019	0.02807
3067.84442	0.02790
3066.55865	0.02783
3065.27288	0.02793
3063.98711	0.02822
3062.70135	0.02860
3061.41558	0.02892
3060.12981	0.02899
3058.84404	0.02874
3057.55827	0.02825
3056.27250	0.02771
3054.98673	0.02727
3053.70096	0.02702
3052.41519	0.02701
3051.12943	0.02727
3049.84366	0.02770
3048.55789	0.02806
3047.27212	0.02820
3045.98635	0.02818
3044.70058	0.02813
3043.41481	0.02805
3042.12904	0.02784
3040.84328	0.02750
3039.55751	0.02719
3038.27174	0.02707
3036.98597	0.02709
3035.70020	0.02707
3034.41443	0.02690
3033.12866	0.02668
3031.84289	0.02652
3030.55712	0.02647
3029.27136	0.02650
3027.98559	0.02660
3026.69982	0.02675
3025.41405	0.02694
3024.12828	0.02710
3022.84251	0.02719
3021.55674	0.02718
3020.27097	0.02702
3018.98521	0.02672
3017.69944	0.02638
3016.41367	0.02616
3015.12790	0.02617
3013.84213	0.02637
3012.55636	0.02658
3011.27059	0.02660
3009.98482	0.02636
3008.69905	0.02600
3007.41329	0.02572
3006.12752	0.02566
3004.84175	0.02578
3003.55598	0.02595
3002.27021	0.02602
3000.98444	0.02591
2999.69867	0.02566
2998.41290	0.02544
2997.12714	0.02537
2995.84137	0.02533
2994.55560	0.02514
2993.26983	0.02478
2991.98406	0.02446
2990.69829	0.02441
2989.41252	0.02465
2988.12675	0.02496
2986.84098	0.02514
2985.55522	0.02511
2984.26945	0.02504
2982.98368	0.02514
2981.69791	0.02545
2980.41214	0.02582
2979.12637	0.02609
2977.84060	0.02619
2976.55483	0.02618
2975.26907	0.02615
2973.98330	0.02620
2972.69753	0.02643
2971.41176	0.02672
2970.12599	0.02686
2968.84022	0.02677
2967.55445	0.02664
2966.26868	0.02675
2964.98291	0.02715
2963.69715	0.02763
2962.41138	0.02794
2961.12561	0.02802
2959.83984	0.02798
2958.55407	0.02803
2957.26830	0.02831
2955.98253	0.02881
2954.69676	0.02929
2953.41100	0.02953
2952.12523	0.02942
2950.83946	0.02906
2949.55369	0.02867
2948.26792	0.02847
2946.98215	0.02848
2945.69638	0.02852
2944.41061	0.02842
2943.12484	0.02819
2941.83908	0.02802
2940.55331	0.02809
2939.26754	0.02836
2937.98177	0.02862
2936.69600	0.02868
2935.41023	0.02852
2934.12446	0.02827
2932.83869	0.02803
2931.55293	0.02786
2930.26716	0.02785
2928.98139	0.02810
2927.69562	0.02857
2926.40985	0.02901
2925.12408	0.02918
2923.83831	0.02909
2922.55254	0.02893
2921.26677	0.02879
2919.98101	0.02868
2918.69524	0.02859
2917.40947	0.02857
2916.12370	0.02859
2914.83793	0.02855
2913.55216	0.02841
2912.26639	0.02823
2910.98062	0.02809
2909.69486	0.02802
2908.40909	0.02800
2907.12332	0.02798
2905.83755	0.02787
2904.55178	0.02762
2903.26601	0.02727
2901.98024	0.02697
2900.69447	0.02683
2899.40870	0.02681
2898.12294	0.02676
2896.83717	0.02662
2895.55140	0.02645
2894.26563	0.02634
2892.97986	0.02629
2891.69409	0.02619
2890.40832	0.02600
2889.12255	0.02579
2887.83678	0.02569
2886.55102	0.02570
2885.26525	0.02575
2883.97948	0.02574
2882.69371	0.02564
2881.40794	0.02551
2880.12217	0.02547
2878.83640	0.02559
2877.55063	0.02577
2876.26487	0.02579
2874.97910	0.02551
2873.69333	0.02509
2872.40756	0.02488
2871.12179	0.02510
2869.83602	0.02564
2868.55025	0.02614
2867.26448	0.02625
2865.97871	0.02596
2864.69295	0.02552
2863.40718	0.02516
2862.12141	0.02495
2860.83564	0.02482
2859.54987	0.02473
2858.26410	0.02469
2856.97833	0.02461
2855.69256	0.02441
2854.40680	0.02410
2853.12103	0.02384
2851.83526	0.02372
2850.54949	0.02375
2849.26372	0.02386
2847.97795	0.02404
2846.69218	0.02422
2845.40641	0.02430
2844.12064	0.02427
2842.83488	0.02421
2841.54911	0.02419
2840.26334	0.02414
2838.97757	0.02395
2837.69180	0.02364
2836.40603	0.02334
2835.12026	0.02307
2833.83449	0.02278
2832.54873	0.02245
2831.26296	0.02221
2829.97719	0.02213
2828.69142	0.02215
2827.40565	0.02217
2826.11988	0.02218
2824.83411	0.02219
2823.54834	0.02219
2822.26257	0.02211
2820.97681	0.02189
2819.69104	0.02163
2818.40527	0.02142
2817.11950	0.02127
2815.83373	0.02114
2814.54796	0.02102
2813.26219	0.02095
2811.97642	0.02098
2810.69066	0.02110
2809.40489	0.02121
2808.11912	0.02123
2806.83335	0.02114
2805.54758	0.02104
2804.26181	0.02101
2802.97604	0.02104
2801.69027	0.02103
2800.40450	0.02089
2799.11874	0.02065
2797.83297	0.02045
2796.54720	0.02043
2795.26143	0.02067
2793.97566	0.02102
2792.68989	0.02124
2791.40412	0.02119
2790.11835	0.02096
2788.83259	0.02079
2787.54682	0.02081
2786.26105	0.02092
2784.97528	0.02095
2783.68951	0.02086
2782.40374	0.02076
2781.11797	0.02073
2779.83220	0.02066
2778.54643	0.02046
2777.26067	0.02015
2775.97490	0.01990
2774.68913	0.01987
2773.40336	0.02006
2772.11759	0.02031
2770.83182	0.02043
2769.54605	0.02029
2768.26028	0.01996
2766.97452	0.01967
2765.68875	0.01960
2764.40298	0.01977
2763.11721	0.02007
2761.83144	0.02031
2760.54567	0.02045
2759.25990	0.02051
2757.97413	0.02053
2756.68836	0.02053
2755.40260	0.02047
2754.11683	0.02031
2752.83106	0.02002
2751.54529	0.01964
2750.25952	0.01934
2748.97375	0.01922
2747.68798	0.01929
2746.40221	0.01949
2745.11645	0.01974
2743.83068	0.01995
2742.54491	0.02003
2741.25914	0.01998
2739.97337	0.01987
2738.68760	0.01981
2737.40183	0.01985
2736.11606	0.01991
2734.83029	0.01992
2733.54453	0.01983
2732.25876	0.01967
2730.97299	0.01956
2729.68722	0.01956
2728.40145	0.01957
2727.11568	0.01944
2725.82991	0.01908
2724.54414	0.01859
2723.25838	0.01818
2721.97261	0.01796
2720.68684	0.01788
2719.40107	0.01784
2718.11530	0.01779
2716.82953	0.01778
2715.54376	0.01783
2714.25799	0.01793
2712.97222	0.01808
2711.68646	0.01826
2710.40069	0.01844
2709.11492	0.01856
2707.82915	0.01861
2706.54338	0.01862
2705.25761	0.01859
2703.97184	0.01857
2702.68607	0.01861
2701.40031	0.01872
2700.11454	0.01884
2698.82877	0.01884
2697.54300	0.01868
2696.25723	0.01841
2694.97146	0.01814
2693.68569	0.01796
2692.39992	0.01786
2691.11415	0.01783
2689.82839	0.01783
2688.54262	0.01781
2687.25685	0.01777
2685.97108	0.01773
2684.68531	0.01775
2683.39954	0.01788
2682.11377	0.01805
2680.82800	0.01817
2679.54224	0.01818
2678.25647	0.01808
2676.97070	0.01791
2675.68493	0.01774
2674.39916	0.01763
2673.11339	0.01762
2671.82762	0.01765
2670.54185	0.01763
2669.25608	0.01756
2667.97032	0.01756
2666.68455	0.01771
2665.39878	0.01793
2664.11301	0.01812
2662.82724	0.01821
2661.54147	0.01819
2660.25570	0.01804
2658.96993	0.01785
2657.68417	0.01771
2656.39840	0.01771
2655.11263	0.01782
2653.82686	0.01795
2652.54109	0.01799
2651.25532	0.01797
2649.96955	0.01792
2648.68378	0.01790
2647.39801	0.01789
2646.11225	0.01781
2644.82648	0.01756
2643.54071	0.01717
2642.25494	0.01675
2640.96917	0.01648
2639.68340	0.01646
2638.39763	0.01665
2637.11186	0.01686
2635.82609	0.01689
2634.54033	0.01668
2633.25456	0.01641
2631.96879	0.01627
2630.68302	0.01632
2629.39725	0.01640
2628.11148	0.01637
2626.82571	0.01623
2625.53994	0.01609
2624.25418	0.01600
2622.96841	0.01594
2621.68264	0.01590
2620.39687	0.01588
2619.11110	0.01592
2617.82533	0.01604
2616.53956	0.01621
2615.25379	0.01630
2613.96802	0.01611
2612.68226	0.01564
2611.39649	0.01519
2610.11072	0.01506
2608.82495	0.01524
2607.53918	0.01544
2606.25341	0.01548
2604.96764	0.01545
2603.68187	0.01549
2602.39611	0.01560
2601.11034	0.01561
2599.82457	0.01546
2598.53880	0.01517
2597.25303	0.01487
2595.96726	0.01467
2594.68149	0.01464
2593.39572	0.01468
2592.10995	0.01468
2590.82419	0.01465
2589.53842	0.01468
2588.25265	0.01474
2586.96688	0.01467
2585.68111	0.01434
2584.39534	0.01384
2583.10957	0.01332
2581.82380	0.01295
2580.53804	0.01280
2579.25227	0.01284
2577.96650	0.01302
2576.68073	0.01324
2575.39496	0.01346
2574.10919	0.01367
2572.82342	0.01382
2571.53765	0.01385
2570.25188	0.01373
2568.96612	0.01346
2567.68035	0.01312
2566.39458	0.01275
2565.10881	0.01244
2563.82304	0.01229
2562.53727	0.01236
2561.25150	0.01257
2559.96573	0.01268
2558.67997	0.01260
2557.39420	0.01251
2556.10843	0.01267
2554.82266	0.01312
2553.53689	0.01360
2552.25112	0.01381
2550.96535	0.01370
2549.67958	0.01346
2548.39381	0.01331
2547.10805	0.01321
2545.82228	0.01301
2544.53651	0.01272
2543.25074	0.01257
2541.96497	0.01269
2540.67920	0.01298
2539.39343	0.01322
2538.10766	0.01326
2536.82190	0.01312
2535.53613	0.01289
2534.25036	0.01269
2532.96459	0.01263
2531.67882	0.01275
2530.39305	0.01290
2529.10728	0.01282
2527.82151	0.01236
2526.53574	0.01180
2525.24998	0.01164
2523.96421	0.01208
2522.67844	0.01277
2521.39267	0.01313
2520.10690	0.01297
2518.82113	0.01260
2517.53536	0.01241
2516.24959	0.01248
2514.96383	0.01258
2513.67806	0.01252
2512.39229	0.01236
2511.10652	0.01220
2509.82075	0.01202
2508.53498	0.01178
2507.24921	0.01153
2505.96344	0.01145
2504.67767	0.01159
2503.39191	0.01188
2502.10614	0.01217
2500.82037	0.01235
2499.53460	0.01241
2498.24883	0.01230
2496.96306	0.01194
2495.67729	0.01139
2494.39152	0.01094
2493.10576	0.01092
2491.81999	0.01142
2490.53422	0.01215
2489.24845	0.01273
2487.96268	0.01292
2486.67691	0.01277
2485.39114	0.01248
2484.10537	0.01226
2482.81960	0.01219
2481.53384	0.01223
2480.24807	0.01231
2478.96230	0.01237
2477.67653	0.01237
2476.39076	0.01224
2475.10499	0.01192
2473.81922	0.01150
2472.53345	0.01118
2471.24769	0.01109
2469.96192	0.01122
2468.67615	0.01138
2467.39038	0.01145
2466.10461	0.01144
2464.81884	0.01139
2463.53307	0.01134
2462.24730	0.01136
2460.96153	0.01159
2459.67577	0.01201
2458.39000	0.01237
2457.10423	0.01240
2455.81846	0.01207
2454.53269	0.01167
2453.24692	0.01151
2451.96115	0.01162
2450.67538	0.01184
2449.38962	0.01208
2448.10385	0.01235
2446.81808	0.01258
2445.53231	0.01259
2444.24654	0.01235
2442.96077	0.01204
2441.67500	0.01187
2440.38923	0.01179
2439.10346	0.01164
2437.81770	0.01142
2436.53193	0.01133
2435.24616	0.01151
2433.96039	0.01186
2432.67462	0.01216
2431.38885	0.01234
2430.10308	0.01238
2428.81731	0.01223
2427.53155	0.01189
2426.24578	0.01149
2424.96001	0.01117
2423.67424	0.01098
2422.38847	0.01092
2421.10270	0.01095
2419.81693	0.01104
2418.53116	0.01112
2417.24539	0.01116
2415.95963	0.01109
2414.67386	0.01090
2413.38809	0.01061
2412.10232	0.01039
2410.81655	0.01036
2409.53078	0.01055
2408.24501	0.01086
2406.95924	0.01115
2405.67347	0.01136
2404.38771	0.01144
2403.10194	0.01143
2401.81617	0.01140
2400.53040	0.01146
2399.24463	0.01163
2397.95886	0.01185
2396.67309	0.01201
2395.38732	0.01202
2394.10156	0.01184
2392.81579	0.01157
2391.53002	0.01128
2390.24425	0.01104
2388.95848	0.01085
2387.67271	0.01072
2386.38694	0.01064
2385.10117	0.01057
2383.81540	0.01048
2382.52964	0.01037
2381.24387	0.01032
2379.95810	0.01040
2378.67233	0.01057
2377.38656	0.01073
2376.10079	0.01082
2374.81502	0.01084
2373.52925	0.01082
2372.24349	0.01075
2370.95772	0.01065
2369.67195	0.01051
2368.38618	0.01036
2367.10041	0.01019
2365.81464	0.01000
2364.52887	0.00981
2363.24310	0.00966
2361.95733	0.00963
2360.67157	0.00979
2359.38580	0.01012
2358.10003	0.01056
2356.81426	0.01103
2355.52849	0.01148
2354.24272	0.01184
2352.95695	0.01207
2351.67118	0.01216
2350.38542	0.01209
2349.09965	0.01191
2347.81388	0.01170
2346.52811	0.01161
2345.24234	0.01166
2343.95657	0.01176
2342.67080	0.01174
2341.38503	0.01156
2340.09926	0.01125
2338.81350	0.01092
2337.52773	0.01067
2336.24196	0.01058
2334.95619	0.01065
2333.67042	0.01088
2332.38465	0.01118
2331.09888	0.01149
2329.81311	0.01172
2328.52735	0.01192
2327.24158	0.01220
2325.95581	0.01257
2324.67004	0.01286
2323.38427	0.01292
2322.09850	0.01279
2320.81273	0.01259
2319.52696	0.01241
2318.24119	0.01223
2316.95543	0.01203
2315.66966	0.01189
2314.38389	0.01187
2313.09812	0.01197
2311.81235	0.01210
2310.52658	0.01214
2309.24081	0.01203
2307.95504	0.01181
2306.66928	0.01164
2305.38351	0.01160
2304.09774	0.01160
2302.81197	0.01154
2301.52620	0.01136
2300.24043	0.01117
2298.95466	0.01108
2297.66889	0.01111
2296.38312	0.01123
2295.09736	0.01139
2293.81159	0.01159
2292.52582	0.01174
2291.24005	0.01179
2289.95428	0.01179
2288.66851	0.01188
2287.38274	0.01206
2286.09697	0.01221
2284.81121	0.01220
2283.52544	0.01199
2282.23967	0.01167
2280.95390	0.01134
2279.66813	0.01105
2278.38236	0.01081
2277.09659	0.01062
2275.81082	0.01050
2274.52505	0.01045
2273.23929	0.01047
2271.95352	0.01051
2270.66775	0.01046
2269.38198	0.01029
2268.09621	0.00999
2266.81044	0.00957
2265.52467	0.00896
2264.23890	0.00826
2262.95314	0.00779
2261.66737	0.00788
2260.38160	0.00855
2259.09583	0.00942
2257.81006	0.01002
2256.52429	0.01010
2255.23852	0.00967
2253.95275	0.00902
2252.66698	0.00846
2251.38122	0.00808
2250.09545	0.00781
2248.80968	0.00760
2247.52391	0.00750
2246.23814	0.00775
2244.95237	0.00824
2243.66660	0.00867
2242.38083	0.00881
2241.09507	0.00866
2239.80930	0.00834
2238.52353	0.00793
2237.23776	0.00745
2235.95199	0.00688
2234.66622	0.00629
2233.38045	0.00591
2232.09468	0.00587
2230.80891	0.00607
2229.52315	0.00637
2228.23738	0.00675
2226.95161	0.00720
2225.66584	0.00757
2224.38007	0.00759
2223.09430	0.00714
2221.80853	0.00636
2220.52276	0.00555
2219.23700	0.00497
2217.95123	0.00470
2216.66546	0.00467
2215.37969	0.00487
2214.09392	0.00539
2212.80815	0.00605
2211.52238	0.00634
2210.23661	0.00585
2208.95084	0.00493
2207.66508	0.00449
2206.37931	0.00505
2205.09354	0.00598
2203.80777	0.00617
2202.52200	0.00521
2201.23623	0.00374
2199.95046	0.00272
2198.66469	0.00260
2197.37893	0.00321
2196.09316	0.00417
2194.80739	0.00521
2193.52162	0.00616
2192.23585	0.00685
2190.95008	0.00705
2189.66431	0.00667
2188.37854	0.00600
2187.09277	0.00562
2185.80701	0.00590
2184.52124	0.00662
2183.23547	0.00720
2181.94970	0.00720
2180.66393	0.00664
2179.37816	0.00575
2178.09239	0.00482
2176.80662	0.00404
2175.52085	0.00355
2174.23509	0.00346
2172.94932	0.00370
2171.66355	0.00392
2170.37778	0.00379
2169.09201	0.00320
2167.80624	0.00236
2166.52047	0.00162
2165.23470	0.00126
2163.94894	0.00116
2162.66317	0.00068
2161.37740	-0.00083
2160.09163	-0.00306
2158.80586	-0.00469
2157.52009	-0.00478
2156.23432	-0.00372
2154.94855	-0.00260
2153.66278	-0.00194
2152.37702	-0.00155
2151.09125	-0.00103
2149.80548	-0.00026
2148.51971	0.00065
2147.23394	0.00147
2145.94817	0.00195
2144.66240	0.00191
2143.37663	0.00145
2142.09087	0.00096
2140.80510	0.00086
2139.51933	0.00119
2138.23356	0.00159
2136.94779	0.00166
2135.66202	0.00144
2134.37625	0.00139
2133.09048	0.00174
2131.80471	0.00213
2130.51895	0.00208
2129.23318	0.00179
2127.94741	0.00195
2126.66164	0.00289
2125.37587	0.00417
2124.09010	0.00515
2122.80433	0.00549
2121.51856	0.00534
2120.23280	0.00498
2118.94703	0.00468
2117.66126	0.00460
2116.37549	0.00472
2115.08972	0.00489
2113.80395	0.00497
2112.51818	0.00492
2111.23241	0.00479
2109.94664	0.00471
2108.66088	0.00475
2107.37511	0.00487
2106.08934	0.00496
2104.80357	0.00487
2103.51780	0.00457
2102.23203	0.00414
2100.94626	0.00385
2099.66049	0.00513
2098.37473	0.00583
2097.08896	0.00576
2095.80319	0.00535
2094.51742	0.00483
2093.23165	0.00446
2091.94588	0.00441
2090.66011	0.00455
2089.37434	0.00459
2088.08857	0.00426
2086.80281	0.00363
2085.51704	0.00303
2084.23127	0.00277
2082.94550	0.00291
2081.65973	0.00325
2080.37396	0.00359
2079.08819	0.00389
2077.80242	0.00429
2076.51666	0.00488
2075.23089	0.00557
2073.94512	0.00606
2072.65935	0.00610
2071.37358	0.00570
2070.08781	0.00511
2068.80204	0.00457
2067.51627	0.00420
2066.23050	0.00389
2064.94474	0.00355
2063.65897	0.00322
2062.37320	0.00305
2061.08743	0.00317
2059.80166	0.00348
2058.51589	0.00368
2057.23012	0.00350
2055.94435	0.00292
2054.65859	0.00230
2053.37282	0.00206
2052.08705	0.00235
2050.80128	0.00297
2049.51551	0.00357
2048.22974	0.00397
2046.94397	0.00404
2045.65820	0.00360
2044.37243	0.00255
2043.08667	0.00118
2041.80090	-0.00001
2040.51513	-0.00068
2039.22936	-0.00089
2037.94359	-0.00084
2036.65782	-0.00055
2035.37205	0.00003
2034.08628	0.00077
2032.80052	0.00136
2031.51475	0.00159
2030.22898	0.00151
2028.94321	0.00142
2027.65744	0.00164
2026.37167	0.00228
2025.08590	0.00310
2023.80013	0.00366
2022.51436	0.00361
2021.22860	0.00292
2019.94283	0.00198
2018.65706	0.00138
2017.37129	0.00153
2016.08552	0.00236
2014.79975	0.00340
2013.51398	0.00426
2012.22821	0.00492
2010.94245	0.00553
2009.65668	0.00599
2008.37091	0.00595
2007.08514	0.00518
2005.79937	0.00387
2004.51360	0.00260
2003.22783	0.00193
2001.94206	0.00191
2000.65629	0.00209
1999.37053	0.00207
1998.08476	0.00190
1996.79899	0.00193
1995.51322	0.00230
1994.22745	0.00280
1992.94168	0.00310
1991.65591	0.00306
1990.37014	0.00274
1989.08438	0.00237
1987.79861	0.00226
1986.51284	0.00256
1985.22707	0.00319
1983.94130	0.00396
1982.65553	0.00486
1981.36976	0.00616
1980.08399	0.00789
1978.79822	0.00958
1977.51246	0.01049
1976.22669	0.01032
1974.94092	0.00945
1973.65515	0.00854
1972.36938	0.00804
1971.08361	0.00788
1969.79784	0.00771
1968.51207	0.00718
1967.22631	0.00622
1965.94054	0.00517
1964.65477	0.00453
1963.36900	0.00451
1962.08323	0.00486
1960.79746	0.00513
1959.51169	0.00509
1958.22592	0.00481
1956.94015	0.00453
1955.65439	0.00442
1954.36862	0.00458
1953.08285	0.00501
1951.79708	0.00556
1950.51131	0.00604
1949.22554	0.00632
1947.93977	0.00647
1946.65400	0.00660
1945.36823	0.00680
1944.08247	0.00704
1942.79670	0.00721
1941.51093	0.00711
1940.22516	0.00659
1938.93939	0.00574
1937.65362	0.00493
1936.36785	0.00463
1935.08208	0.00504
1933.79632	0.00590
1932.51055	0.00673
1931.22478	0.00718
1929.93901	0.00711
1928.65324	0.00659
1927.36747	0.00590
1926.08170	0.00542
1924.79593	0.00541
1923.51016	0.00582
1922.22440	0.00636
1920.93863	0.00675
1919.65286	0.00693
1918.36709	0.00699
1917.08132	0.00702
1915.79555	0.00703
1914.50978	0.00699
1913.22401	0.00692
1911.93825	0.00690
1910.65248	0.00696
1909.36671	0.00698
1908.08094	0.00682
1906.79517	0.00646
1905.50940	0.00607
1904.22363	0.00588
1902.93786	0.00606
1901.65209	0.00658
1900.36633	0.00722
1899.08056	0.00766
1897.79479	0.00770
1896.50902	0.00741
1895.22325	0.00709
1893.93748	0.00697
1892.65171	0.00703
1891.36594	0.00709
1890.08018	0.00698
1888.79441	0.00667
1887.50864	0.00631
1886.22287	0.00608
1884.93710	0.00611
1883.65133	0.00634
1882.36556	0.00664
1881.07979	0.00689
1879.79402	0.00708
1878.50826	0.00722
1877.22249	0.00718
1875.93672	0.00685
1874.65095	0.00626
1873.36518	0.00566
1872.07941	0.00533
1870.79364	0.00540
1869.50787	0.00574
1868.22211	0.00611
1866.93634	0.00639
1865.65057	0.00663
1864.36480	0.00693
1863.07903	0.00727
1861.79326	0.00748
1860.50749	0.00747
1859.22172	0.00730
1857.93595	0.00713
1856.65019	0.00705
1855.36442	0.00704
1854.07865	0.00706
1852.79288	0.00712
1851.50711	0.00725
1850.22134	0.00741
1848.93557	0.00757
1847.64980	0.00767
1846.36404	0.00774
1845.07827	0.00780
1843.79250	0.00787
1842.50673	0.00792
1841.22096	0.00791
1839.93519	0.00779
1838.64942	0.00754
1837.36365	0.00719
1836.07788	0.00686
1834.79212	0.00667
1833.50635	0.00667
1832.22058	0.00680
1830.93481	0.00697
1829.64904	0.00713
1828.36327	0.00731
1827.07750	0.00750
1825.79173	0.00769
1824.50597	0.00783
1823.22020	0.00792
1821.93443	0.00799
1820.64866	0.00802
1819.36289	0.00792
1818.07712	0.00766
1816.79135	0.00732
1815.50558	0.00706
1814.21981	0.00697
1812.93405	0.00705
1811.64828	0.00720
1810.36251	0.00738
1809.07674	0.00752
1807.79097	0.00759
1806.50520	0.00755
1805.21943	0.00743
1803.93366	0.00731
1802.64790	0.00726
1801.36213	0.00727
1800.07636	0.00731
1798.79059	0.00740
1797.50482	0.00755
1796.21905	0.00770
1794.93328	0.00780
1793.64751	0.00787
1792.36174	0.00796
1791.07598	0.00810
1789.79021	0.00820
1788.50444	0.00822
1787.21867	0.00818
1785.93290	0.00815
1784.64713	0.00818
1783.36136	0.00826
1782.07559	0.00836
1780.78983	0.00844
1779.50406	0.00847
1778.21829	0.00844
1776.93252	0.00837
1775.64675	0.00828
1774.36098	0.00822
1773.07521	0.00819
1771.78944	0.00817
1770.50367	0.00812
1769.21791	0.00805
1767.93214	0.00798
1766.64637	0.00798
1765.36060	0.00808
1764.07483	0.00827
1762.78906	0.00848
1761.50329	0.00865
1760.21752	0.00871
1758.93176	0.00868
1757.64599	0.00859
1756.36022	0.00847
1755.07445	0.00835
1753.78868	0.00826
1752.50291	0.00825
1751.21714	0.00831
1749.93137	0.00838
1748.64560	0.00842
1747.35984	0.00843
1746.07407	0.00842
1744.78830	0.00846
1743.50253	0.00853
1742.21676	0.00864
1740.93099	0.00874
1739.64522	0.00884
1738.35945	0.00893
1737.07369	0.00904
1735.78792	0.00915
1734.50215	0.00921
1733.21638	0.00920
1731.93061	0.00915
1730.64484	0.00909
1729.35907	0.00906
1728.07330	0.00906
1726.78753	0.00909
1725.50177	0.00920
1724.21600	0.00937
1722.93023	0.00958
1721.64446	0.00978
1720.35869	0.00997
1719.07292	0.01014
1717.78715	0.01029
1716.50138	0.01038
1715.21561	0.01044
1713.92985	0.01052
1712.64408	0.01064
1711.35831	0.01081
1710.07254	0.01097
1708.78677	0.01113
1707.50100	0.01131
1706.21523	0.01155
1704.92946	0.01185
1703.64370	0.01220
1702.35793	0.01254
1701.07216	0.01281
1699.78639	0.01298
1698.50062	0.01311
1697.21485	0.01325
1695.92908	0.01337
1694.64331	0.01344
1693.35754	0.01349
1692.07178	0.01361
1690.78601	0.01385
1689.50024	0.01419
1688.21447	0.01457
1686.92870	0.01493
1685.64293	0.01523
1684.35716	0.01544
1683.07139	0.01559
1681.78563	0.01571
1680.49986	0.01586
1679.21409	0.01605
1677.92832	0.01629
1676.64255	0.01655
1675.35678	0.01681
1674.07101	0.01705
1672.78524	0.01728
1671.49947	0.01751
1670.21371	0.01772
1668.92794	0.01788
1667.64217	0.01798
1666.35640	0.01810
1665.07063	0.01829
1663.78486	0.01852
1662.49909	0.01874
1661.21332	0.01890
1659.92756	0.01897
1658.64179	0.01900
1657.35602	0.01906
1656.07025	0.01926
1654.78448	0.01960
1653.49871	0.01995
1652.21294	0.02015
1650.92717	0.02016
1649.64140	0.02009
1648.35564	0.02008
1647.06987	0.02013
1645.78410	0.02017
1644.49833	0.02013
1643.21256	0.02003
1641.92679	0.01992
1640.64102	0.01986
1639.35525	0.01989
1638.06949	0.02001
1636.78372	0.02021
1635.49795	0.02039
1634.21218	0.02047
1632.92641	0.02043
1631.64064	0.02034
1630.35487	0.02028
1629.06910	0.02028
1627.78333	0.02033
1626.49757	0.02040
1625.21180	0.02042
1623.92603	0.02036
1622.64026	0.02022
1621.35449	0.02012
1620.06872	0.02012
1618.78295	0.02022
1617.49718	0.02033
1616.21142	0.02037
1614.92565	0.02033
1613.63988	0.02030
1612.35411	0.02034
1611.06834	0.02045
1609.78257	0.02058
1608.49680	0.02070
1607.21103	0.02078
1605.92526	0.02081
1604.63950	0.02082
1603.35373	0.02085
1602.06796	0.02091
1600.78219	0.02097
1599.49642	0.02101
1598.21065	0.02105
1596.92488	0.02112
1595.63911	0.02124
1594.35335	0.02137
1593.06758	0.02150
1591.78181	0.02163
1590.49604	0.02175
1589.21027	0.02184
1587.92450	0.02193
1586.63873	0.02202
1585.35296	0.02211
1584.06719	0.02219
1582.78143	0.02226
1581.49566	0.02233
1580.20989	0.02243
1578.92412	0.02261
1577.63835	0.02283
1576.35258	0.02305
1575.06681	0.02319
1573.78104	0.02326
1572.49528	0.02332
1571.20951	0.02343
1569.92374	0.02359
1568.63797	0.02378
1567.35220	0.02395
1566.06643	0.02407
1564.78066	0.02418
1563.49489	0.02434
1562.20912	0.02458
1560.92336	0.02488
1559.63759	0.02516
1558.35182	0.02532
1557.06605	0.02537
1555.78028	0.02537
1554.49451	0.02537
1553.20874	0.02541
1551.92297	0.02549
1550.63721	0.02563
1549.35144	0.02583
1548.06567	0.02606
1546.77990	0.02624
1545.49413	0.02636
1544.20836	0.02643
1542.92259	0.02648
1541.63682	0.02656
1540.35105	0.02666
1539.06529	0.02674
1537.77952	0.02680
1536.49375	0.02682
1535.20798	0.02684
1533.92221	0.02690
1532.63644	0.02702
1531.35067	0.02719
1530.06490	0.02742
1528.77914	0.02770
1527.49337	0.02799
1526.20760	0.02829
1524.92183	0.02865
1523.63606	0.02911
1522.35029	0.02967
1521.06452	0.03026
1519.77875	0.03082
1518.49298	0.03134
1517.20722	0.03184
1515.92145	0.03237
1514.63568	0.03293
1513.34991	0.03353
1512.06414	0.03414
1510.77837	0.03478
1509.49260	0.03550
1508.20683	0.03631
1506.92107	0.03713
1505.63530	0.03785
1504.34953	0.03843
1503.06376	0.03892
1501.77799	0.03943
1500.49222	0.04000
1499.20645	0.04060
1497.92068	0.04115
1496.63491	0.04158
1495.34915	0.04188
1494.06338	0.04213
1492.77761	0.04242
1491.49184	0.04281
1490.20607	0.04328
1488.92030	0.04379
1487.63453	0.04430
1486.34876	0.04482
1485.06299	0.04537
1483.77723	0.04594
1482.49146	0.04654
1481.20569	0.04719
1479.91992	0.04787
1478.63415	0.04853
1477.34838	0.04913
1476.06261	0.04968
1474.77684	0.05020
1473.49108	0.05071
1472.20531	0.05115
1470.91954	0.05147
1469.63377	0.05166
1468.34800	0.05178
1467.06223	0.05192
1465.77646	0.05211
1464.49069	0.05231
1463.20492	0.05250
1461.91916	0.05266
1460.63339	0.05285
1459.34762	0.05311
1458.06185	0.05346
1456.77608	0.05386
1455.49031	0.05424
1454.20454	0.05449
1452.91877	0.05461
1451.63301	0.05466
1450.34724	0.05474
1449.06147	0.05488
1447.77570	0.05502
1446.48993	0.05508
1445.20416	0.05503
1443.91839	0.05486
1442.63262	0.05461
1441.34685	0.05434
1440.06109	0.05415
1438.77532	0.05409
1437.48955	0.05414
1436.20378	0.05424
1434.91801	0.05437
1433.63224	0.05459
1432.34647	0.05495
1431.06070	0.05544
1429.77494	0.05601
1428.48917	0.05663
1427.20340	0.05731
1425.91763	0.05811
1424.63186	0.05903
1423.34609	0.05998
1422.06032	0.06086
1420.77455	0.06159
1419.48878	0.06216
1418.20302	0.06261
1416.91725	0.06297
1415.63148	0.06324
1414.34571	0.06339
1413.05994	0.06342
1411.77417	0.06333
1410.48840	0.06312
1409.20263	0.06278
1407.91687	0.06230
1406.63110	0.06170
1405.34533	0.06101
1404.05956	0.06024
1402.77379	0.05940
1401.48802	0.05847
1400.20225	0.05745
1398.91648	0.05633
1397.63071	0.05515
1396.34495	0.05393
1395.05918	0.05268
1393.77341	0.05139
1392.48764	0.05009
1391.20187	0.04880
1389.91610	0.04758
1388.63033	0.04640
1387.34456	0.04523
1386.05880	0.04403
1384.77303	0.04279
1383.48726	0.04157
1382.20149	0.04039
1380.91572	0.03926
1379.62995	0.03812
1378.34418	0.03693
1377.05841	0.03569
1375.77264	0.03446
1374.48688	0.03329
1373.20111	0.03216
1371.91534	0.03103
1370.62957	0.02991
1369.34380	0.02886
1368.05803	0.02792
1366.77226	0.02709
1365.48649	0.02631
1364.20073	0.02551
1362.91496	0.02471
1361.62919	0.02396
1360.34342	0.02327
1359.05765	0.02261
1357.77188	0.02197
1356.48611	0.02138
1355.20034	0.02084
1353.91457	0.02035
1352.62881	0.01989
1351.34304	0.01947
1350.05727	0.01907
1348.77150	0.01869
1347.48573	0.01833
1346.19996	0.01797
1344.91419	0.01763
1343.62842	0.01732
1342.34266	0.01704
1341.05689	0.01681
1339.77112	0.01658
1338.48535	0.01637
1337.19958	0.01618
1335.91381	0.01602
1334.62804	0.01586
1333.34227	0.01571
1332.05650	0.01555
1330.77074	0.01537
1329.48497	0.01520
1328.19920	0.01502
1326.91343	0.01486
1325.62766	0.01471
1324.34189	0.01459
1323.05612	0.01450
1321.77035	0.01442
1320.48459	0.01432
1319.19882	0.01416
1317.91305	0.01396
1316.62728	0.01377
1315.34151	0.01361
1314.05574	0.01351
1312.76997	0.01346
1311.48420	0.01345
1310.19843	0.01345
1308.91267	0.01343
1307.62690	0.01336
1306.34113	0.01326
1305.05536	0.01315
1303.76959	0.01304
1302.48382	0.01293
1301.19805	0.01282
1299.91228	0.01273
1298.62652	0.01265
1297.34075	0.01256
1296.05498	0.01245
1294.76921	0.01235
1293.48344	0.01228
1292.19767	0.01225
1290.91190	0.01221
1289.62613	0.01214
1288.34036	0.01206
1287.05460	0.01202
1285.76883	0.01201
1284.48306	0.01200
1283.19729	0.01195
1281.91152	0.01187
1280.62575	0.01177
1279.33998	0.01170
1278.05421	0.01168
1276.76845	0.01167
1275.48268	0.01164
1274.19691	0.01158
1272.91114	0.01151
1271.62537	0.01145
1270.33960	0.01139
1269.05383	0.01133
1267.76806	0.01129
1266.48229	0.01125
1265.19653	0.01121
1263.91076	0.01114
1262.62499	0.01108
1261.33922	0.01105
1260.05345	0.01106
1258.76768	0.01109
1257.48191	0.01111
1256.19614	0.01110
1254.91037	0.01107
1253.62461	0.01103
1252.33884	0.01099
1251.05307	0.01093
1249.76730	0.01088
1248.48153	0.01083
1247.19576	0.01075
1245.90999	0.01064
1244.62422	0.01052
1243.33846	0.01043
1242.05269	0.01039
1240.76692	0.01041
1239.48115	0.01046
1238.19538	0.01051
1236.90961	0.01053
1235.62384	0.01053
1234.33807	0.01051
1233.05230	0.01048
1231.76654	0.01042
1230.48077	0.01033
1229.19500	0.01021
1227.90923	0.01011
1226.62346	0.01005
1225.33769	0.01005
1224.05192	0.01007
1222.76615	0.01009
1221.48039	0.01007
1220.19462	0.01002
1218.90885	0.00993
1217.62308	0.00985
1216.33731	0.00982
1215.05154	0.00984
1213.76577	0.00988
1212.48000	0.00989
1211.19423	0.00986
1209.90847	0.00984
1208.62270	0.00984
1207.33693	0.00987
1206.05116	0.00991
1204.76539	0.00995
1203.47962	0.01000
1202.19385	0.01005
1200.90808	0.01002
1199.62232	0.00986
1198.33655	0.00984
1197.05078	0.00978
1195.76501	0.00971
1194.47924	0.00968
1193.19347	0.00971
1191.90770	0.00978
1190.62193	0.00984
1189.33616	0.00987
1188.05040	0.00990
1186.76463	0.00995
1185.47886	0.01002
1184.19309	0.01009
1182.90732	0.01013
1181.62155	0.01015
1180.33578	0.01017
1179.05001	0.01020
1177.76425	0.01026
1176.47848	0.01034
1175.19271	0.01044
1173.90694	0.01054
1172.62117	0.01063
1171.33540	0.01071
1170.04963	0.01082
1168.76386	0.01097
1167.47809	0.01117
1166.19233	0.01140
1164.90656	0.01163
1163.62079	0.01184
1162.33502	0.01202
1161.04925	0.01219
1159.76348	0.01238
1158.47771	0.01259
1157.19194	0.01283
1155.90618	0.01306
1154.62041	0.01330
1153.33464	0.01358
1152.04887	0.01394
1150.76310	0.01437
1149.47733	0.01485
1148.19156	0.01534
1146.90579	0.01585
1145.62002	0.01640
1144.33426	0.01700
1143.04849	0.01763
1141.76272	0.01829
1140.47695	0.01898
1139.19118	0.01975
1137.90541	0.02060
1136.61964	0.02155
1135.33387	0.02264
1134.04811	0.02389
1132.76234	0.02529
1131.47657	0.02681
1130.19080	0.02842
1128.90503	0.03009
1127.61926	0.03184
1126.33349	0.03370
1125.04772	0.03574
1123.76195	0.03794
1122.47619	0.04023
1121.19042	0.04253
1119.90465	0.04482
1118.61888	0.04714
1117.33311	0.04953
1116.04734	0.05199
1114.76157	0.05450
1113.47580	0.05701
1112.19004	0.05950
1110.90427	0.06193
1109.61850	0.06430
1108.33273	0.06660
1107.04696	0.06884
1105.76119	0.07106
1104.47542	0.07325
1103.18965	0.07537
1101.90388	0.07737
1100.61812	0.07925
1099.33235	0.08105
1098.04658	0.08280
1096.76081	0.08455
1095.47504	0.08628
1094.18927	0.08796
1092.90350	0.08959
1091.61773	0.09114
1090.33197	0.09261
1089.04620	0.09402
1087.76043	0.09541
1086.47466	0.09684
1085.18889	0.09831
1083.90312	0.09977
1082.61735	0.10123
1081.33158	0.10272
1080.04581	0.10434
1078.76005	0.10612
1077.47428	0.10806
1076.18851	0.11010
1074.90274	0.11222
1073.61697	0.11437
1072.33120	0.11653
1071.04543	0.11867
1069.75966	0.12080
1068.47390	0.12296
1067.18813	0.12517
1065.90236	0.12747
1064.61659	0.12983
1063.33082	0.13221
1062.04505	0.13456
1060.75928	0.13685
1059.47351	0.13910
1058.18774	0.14130
1056.90198	0.14343
1055.61621	0.14550
1054.33044	0.14749
1053.04467	0.14943
1051.75890	0.15139
1050.47313	0.15345
1049.18736	0.15564
1047.90159	0.15795
1046.61583	0.16033
1045.33006	0.16272
1044.04429	0.16506
1042.75852	0.16731
1041.47275	0.16945
1040.18698	0.17151
1038.90121	0.17357
1037.61544	0.17567
1036.32967	0.17781
1035.04391	0.17992
1033.75814	0.18185
1032.47237	0.18351
1031.18660	0.18486
1029.90083	0.18593
1028.61506	0.18678
1027.32929	0.18748
1026.04352	0.18797
1024.75775	0.18817
1023.47199	0.18801
1022.18622	0.18748
1020.90045	0.18664
1019.61468	0.18550
1018.32891	0.18406
1017.04314	0.18233
1015.75737	0.18030
1014.47160	0.17792
1013.18584	0.17514
1011.90007	0.17198
1010.61430	0.16846
1009.32853	0.16466
1008.04276	0.16065
1006.75699	0.15649
1005.47122	0.15221
1004.18545	0.14780
1002.89968	0.14322
1001.61392	0.13847
1000.32815	0.13361
999.04238	0.12871
997.75661	0.12384
996.47084	0.11901
995.18507	0.11420
993.89930	0.10945
992.61353	0.10485
991.32777	0.10044
990.04200	0.09622
988.75623	0.09218
987.47046	0.08831
986.18469	0.08461
984.89892	0.08112
983.61315	0.07790
982.32738	0.07494
981.04161	0.07221
979.75585	0.06965
978.47008	0.06726
977.18431	0.06505
975.89854	0.06308
974.61277	0.06141
973.32700	0.06009
972.04123	0.05916
970.75546	0.05860
969.46970	0.05833
968.18393	0.05827
966.89816	0.05840
965.61239	0.05875
964.32662	0.05930
963.04085	0.05991
961.75508	0.06038
960.46931	0.06050
959.18354	0.06018
957.89778	0.05945
956.61201	0.05839
955.32624	0.05710
954.04047	0.05566
952.75470	0.05410
951.46893	0.05248
950.18316	0.05087
948.89739	0.04934
947.61163	0.04793
946.32586	0.04664
945.04009	0.04543
943.75432	0.04427
942.46855	0.04314
941.18278	0.04201
939.89701	0.04087
938.61124	0.03973
937.32547	0.03864
936.03971	0.03766
934.75394	0.03684
933.46817	0.03614
932.18240	0.03549
930.89663	0.03485
929.61086	0.03420
928.32509	0.03360
927.03932	0.03307
925.75356	0.03259
924.46779	0.03212
923.18202	0.03167
921.89625	0.03124
920.61048	0.03081
919.32471	0.03039
918.03894	0.03001
916.75317	0.02969
915.46740	0.02940
914.18164	0.02908
912.89587	0.02875
911.61010	0.02846
910.32433	0.02820
909.03856	0.02794
907.75279	0.02761
906.46702	0.02722
905.18125	0.02683
903.89549	0.02653
902.60972	0.02638
901.32395	0.02633
900.03818	0.02630
898.75241	0.02625
897.46664	0.02616
896.18087	0.02602
894.89510	0.02587
893.60933	0.02579
892.32357	0.02582
891.03780	0.02598
889.75203	0.02620
888.46626	0.02646
887.18049	0.02683
885.89472	0.02746
884.60895	0.02854
883.32318	0.03017
882.03742	0.03223
880.75165	0.03436
879.46588	0.03613
878.18011	0.03737
876.89434	0.03821
875.60857	0.03893
874.32280	0.03966
873.03703	0.04026
871.75126	0.04050
870.46550	0.04024
869.17973	0.03955
867.89396	0.03857
866.60819	0.03743
865.32242	0.03616
864.03665	0.03478
862.75088	0.03334
861.46511	0.03197
860.17935	0.03074
858.89358	0.02973
857.60781	0.02894
856.32204	0.02832
855.03627	0.02777
853.75050	0.02720
852.46473	0.02660
851.17896	0.02605
849.89319	0.02566
848.60743	0.02543
847.32166	0.02527
846.03589	0.02504
844.75012	0.02474
843.46435	0.02445
842.17858	0.02426
840.89281	0.02416
839.60704	0.02408
838.32128	0.02396
837.03551	0.02378
835.74974	0.02356
834.46397	0.02338
833.17820	0.02327
831.89243	0.02321
830.60666	0.02310
829.32089	0.02294
828.03512	0.02277
826.74936	0.02265
825.46359	0.02257
824.17782	0.02251
822.89205	0.02247
821.60628	0.02247
820.32051	0.02247
819.03474	0.02241
817.74897	0.02229
816.46321	0.02217
815.17744	0.02214
813.89167	0.02220
812.60590	0.02230
811.32013	0.02233
810.03436	0.02228
808.74859	0.02218
807.46282	0.02205
806.17705	0.02197
804.89129	0.02196
803.60552	0.02199
802.31975	0.02202
801.03398	0.02202
799.74821	0.02200
798.46244	0.02198
797.17667	0.02198
795.89090	0.02196
794.60513	0.02187
793.31937	0.02171
792.03360	0.02155
790.74783	0.02149
789.46206	0.02156
788.17629	0.02169
786.89052	0.02178
785.60475	0.02179
784.31898	0.02170
783.03322	0.02154
781.74745	0.02139
780.46168	0.02135
779.17591	0.02143
777.89014	0.02154
776.60437	0.02155
775.31860	0.02145
774.03283	0.02136
772.74706	0.02135
771.46130	0.02140
770.17553	0.02143
768.88976	0.02140
767.60399	0.02138
766.31822	0.02143
765.03245	0.02155
763.74668	0.02167
762.46091	0.02173
761.17515	0.02176
759.88938	0.02185
758.60361	0.02199
757.31784	0.02208
756.03207	0.02207
754.74630	0.02198
753.46053	0.02190
752.17476	0.02193
750.88899	0.02204
749.60323	0.02217
748.31746	0.02226
747.03169	0.02231
745.74592	0.02232
744.46015	0.02227
743.17438	0.02209
741.88861	0.02177
740.60284	0.02144
739.31708	0.02122
738.03131	0.02122
736.74554	0.02142
735.45977	0.02171
734.17400	0.02189
732.88823	0.02180
731.60246	0.02148
730.31669	0.02114
729.03092	0.02097
727.74516	0.02098
726.45939	0.02111
725.17362	0.02129
723.88785	0.02150
722.60208	0.02170
721.31631	0.02182
720.03054	0.02184
718.74477	0.02181
717.45901	0.02177
716.17324	0.02174
714.88747	0.02173
713.60170	0.02178
712.31593	0.02189
711.03016	0.02200
709.74439	0.02207
708.45862	0.02206
707.17285	0.02199
705.88709	0.02191
704.60132	0.02188
703.31555	0.02190
702.02978	0.02195
700.74401	0.02200
699.45824	0.02202
698.17247	0.02202
696.88670	0.02199
695.60094	0.02195
694.31517	0.02189
693.02940	0.02185
691.74363	0.02183
690.45786	0.02186
689.17209	0.02190
687.88632	0.02193
686.60055	0.02190
685.31478	0.02183
684.02902	0.02173
682.74325	0.02163
681.45748	0.02155
680.17171	0.02149
678.88594	0.02143
677.60017	0.02139
676.31440	0.02138
675.02863	0.02142
673.74287	0.02151
672.45710	0.02161
671.17133	0.02170
669.88556	0.02177
668.59979	0.02182
667.31402	0.02182
666.02825	0.02173
664.74248	0.02156
663.45671	0.02137
662.17095	0.02124
660.88518	0.02122
659.59941	0.02131
658.31364	0.02142
657.02787	0.02152
655.74210	0.02157
654.45633	0.02158
653.17056	0.02159
651.88480	0.02160
650.59903	0.02162
649.31326	0.02167
648.02749	0.02174
646.74172	0.02181
645.45595	0.02186
644.17018	0.02192
642.88441	0.02202
641.59864	0.02219
640.31288	0.02243
639.02711	0.02272
637.74134	0.02303
636.45557	0.02337
635.16980	0.02371
633.88403	0.02403
632.59826	0.02429
631.31249	0.02470
630.02673	0.02609
628.74096	0.02817
627.45519	0.02789
626.16942	0.03042
624.88365	0.03471
623.59788	0.03859
622.31211	0.04124
621.02634	0.04262
619.74057	0.04331
618.45481	0.04422
617.16904	0.04568
615.88327	0.04727
614.59750	0.04849
613.31173	0.04963
612.02596	0.05166
610.74019	0.05535
609.45442	0.06042
608.16866	0.06558
606.88289	0.06950
605.59712	0.07172
604.31135	0.07273
603.02558	0.07329
601.73981	0.07356
600.45404	0.07313
599.16827	0.07175
597.88250	0.06964
596.59674	0.06730
595.31097	0.06517
594.02520	0.06350
592.73943	0.06236
591.45366	0.06172
590.16789	0.06147
588.88212	0.06157
587.59635	0.06201
586.31059	0.06280
585.02482	0.06391
583.73905	0.06527
582.45328	0.06684
581.16751	0.06863
579.88174	0.07063
578.59597	0.07274
577.31020	0.07482
576.02443	0.07679
574.73867	0.07869
573.45290	0.08067
572.16713	0.08282
570.88136	0.08511
569.59559	0.08745
568.30982	0.08984
567.02405	0.09221
565.73828	0.09436
564.45251	0.09594
563.16675	0.09664
561.88098	0.09632
560.59521	0.09493
559.30944	0.09244
558.02367	0.08887
556.73790	0.08440
555.45213	0.07942
554.16636	0.07442
552.88060	0.06974
551.59483	0.06552
550.30906	0.06173
549.02329	0.05833
547.73752	0.05528
546.45175	0.05254
545.16598	0.05007
543.88021	0.04785
542.59444	0.04585
541.30868	0.04407
540.02291	0.04247
538.73714	0.04099
537.45137	0.03958
536.16560	0.03821
534.87983	0.03695
533.59406	0.03583
532.30829	0.03487
531.02253	0.03400
529.73676	0.03318
528.45099	0.03235
527.16522	0.03152
525.87945	0.03075
524.59368	0.03008
523.30791	0.02947
522.02214	0.02882
520.73637	0.02810
519.45061	0.02737
518.16484	0.02675
516.87907	0.02628
515.59330	0.02586
514.30753	0.02543
513.02176	0.02498
511.73599	0.02458
510.45022	0.02426
509.16446	0.02403
507.87869	0.02380
506.59292	0.02349
505.30715	0.02307
504.02138	0.02257
502.73561	0.02205
501.44984	0.02157
500.16407	0.02118
498.87830	0.02091
497.59254	0.02076
496.30677	0.02069
495.02100	0.02064
493.73523	0.02056
492.44946	0.02049
491.16369	0.02045
489.87792	0.02042
488.59215	0.02038
487.30639	0.02032
486.02062	0.02025
484.73485	0.02018
483.44908	0.02011
482.16331	0.02005
480.87754	0.02000
479.59177	0.02000
478.30600	0.02012
477.02023	0.02033
475.73447	0.02058
474.44870	0.02077
473.16293	0.02089
471.87716	0.02099
470.59139	0.02111
469.30562	0.02124
468.01985	0.02132
466.73408	0.02131
465.44832	0.02120
464.16255	0.02103
462.87678	0.02076
461.59101	0.02043
460.30524	0.02007
459.01947	0.01980
457.73370	0.01965
456.44793	0.01959
455.16216	0.01954
453.87640	0.01942
452.59063	0.01919
451.30486	0.01892
450.01909	0.01867
448.73332	0.01853
447.44755	0.01850
446.16178	0.01852
444.87601	0.01849
443.59025	0.01836
442.30448	0.01817
441.01871	0.01800
439.73294	0.01792
438.44717	0.01792
437.16140	0.01797
435.87563	0.01802
434.58986	0.01804
433.30409	0.01805
432.01833	0.01805
430.73256	0.01807
429.44679	0.01810
428.16102	0.01813
426.87525	0.01811
425.58948	0.01805
424.30371	0.01798
423.01794	0.01792
421.73218	0.01787
420.44641	0.01781
419.16064	0.01775
417.87487	0.01767
416.58910	0.01760
415.30333	0.01753
414.01756	0.01748
412.73179	0.01747
411.44602	0.01753
410.16026	0.01763
408.87449	0.01777
407.58872	0.01793
406.30295	0.01811
405.01718	0.01825
403.73141	0.01835
402.44564	0.01842
401.15987	0.01848
399.87411	0.01858
