3997.45528	-0.00357
3996.16951	-0.00410
3994.88374	-0.00464
3993.59798	-0.00497
3992.31221	-0.00483
3991.02644	-0.00419
3989.74067	-0.00323
3988.45490	-0.00226
3987.16913	-0.00162
3985.88336	-0.00145
3984.59759	-0.00165
3983.31183	-0.00190
3982.02606	-0.00191
3980.74029	-0.00161
3979.45452	-0.00110
3978.16875	-0.00045
3976.88298	0.00032
3975.59721	0.00117
3974.31144	0.00196
3973.02567	0.00248
3971.73991	0.00261
3970.45414	0.00238
3969.16837	0.00199
3967.88260	0.00158
3966.59683	0.00114
3965.31106	0.00057
3964.02529	-0.00003
3962.73952	-0.00028
3961.45376	0.00010
3960.16799	0.00095
3958.88222	0.00182
3957.59645	0.00238
3956.31068	0.00262
3955.02491	0.00270
3953.73914	0.00282
3952.45337	0.00309
3951.16760	0.00345
3949.88184	0.00367
3948.59607	0.00357
3947.31030	0.00313
3946.02453	0.00251
3944.73876	0.00198
3943.45299	0.00179
3942.16722	0.00207
3940.88145	0.00270
3939.59569	0.00343
3938.30992	0.00413
3937.02415	0.00471
3935.73838	0.00509
3934.45261	0.00511
3933.16684	0.00476
3931.88107	0.00419
3930.59530	0.00371
3929.30953	0.00356
3928.02377	0.00374
3926.73800	0.00411
3925.45223	0.00459
3924.16646	0.00517
3922.88069	0.00570
3921.59492	0.00588
3920.30915	0.00557
3919.02338	0.00495
3917.73762	0.00434
3916.45185	0.00396
3915.16608	0.00375
3913.88031	0.00350
3912.59454	0.00329
3911.30877	0.00345
3910.02300	0.00415
3908.73723	0.00509
3907.45146	0.00569
3906.16570	0.00554
3904.87993	0.00472
3903.59416	0.00367
3902.30839	0.00273
3901.02262	0.00209
3899.73685	0.00187
3898.45108	0.00206
3897.16531	0.00244
3895.87955	0.00287
3894.59378	0.00347
3893.30801	0.00438
3892.02224	0.00546
3890.73647	0.00631
3889.45070	0.00644
3888.16493	0.00573
3886.87916	0.00482
3885.59339	0.00466
3884.30763	0.00538
3883.02186	0.00617
3881.73609	0.00634
3880.45032	0.00608
3879.16455	0.00592
3877.87878	0.00597
3876.59301	0.00610
3875.30724	0.00631
3874.02148	0.00661
3872.73571	0.00674
3871.44994	0.00648
3870.16417	0.00623
3868.87840	0.00644
3867.59263	0.00692
3866.30686	0.00721
3865.02109	0.00718
3863.73532	0.00693
3862.44956	0.00655
3861.16379	0.00631
3859.87802	0.00655
3858.59225	0.00716
3857.30648	0.00753
3856.02071	0.00728
3854.73494	0.00688
3853.44917	0.00720
3852.16341	0.00834
3850.87764	0.00945
3849.59187	0.00997
3848.30610	0.01000
3847.02033	0.00984
3845.73456	0.00957
3844.44879	0.00920
3843.16302	0.00868
3841.87725	0.00784
3840.59149	0.00658
3839.30572	0.00528
3838.01995	0.00469
3836.73418	0.00517
3835.44841	0.00623
3834.16264	0.00712
3832.87687	0.00755
3831.59110	0.00766
3830.30534	0.00764
3829.01957	0.00760
3827.73380	0.00771
3826.44803	0.00818
3825.16226	0.00886
3823.87649	0.00925
3822.59072	0.00923
3821.30495	0.00932
3820.01918	0.00975
3818.73342	0.00992
3817.44765	0.00942
3816.16188	0.00877
3814.87611	0.00850
3813.59034	0.00821
3812.30457	0.00746
3811.01880	0.00652
3809.73303	0.00584
3808.44726	0.00564
3807.16150	0.00615
3805.87573	0.00734
3804.58996	0.00842
3803.30419	0.00863
3802.01842	0.00827
3800.73265	0.00818
3799.44688	0.00843
3798.16111	0.00850
3796.87535	0.00834
3795.58958	0.00834
3794.30381	0.00851
3793.01804	0.00855
3791.73227	0.00837
3790.44650	0.00816
3789.16073	0.00808
3787.87496	0.00808
3786.58919	0.00810
3785.30343	0.00825
3784.01766	0.00868
3782.73189	0.00934
3781.44612	0.00995
3780.16035	0.01025
3778.87458	0.01017
3777.58881	0.00980
3776.30304	0.00943
3775.01728	0.00937
3773.73151	0.00959
3772.44574	0.00962
3771.15997	0.00917
3769.87420	0.00853
3768.58843	0.00817
3767.30266	0.00822
3766.01689	0.00849
3764.73112	0.00873
3763.44536	0.00861
3762.15959	0.00803
3760.87382	0.00745
3759.58805	0.00745
3758.30228	0.00818
3757.01651	0.00923
3755.73074	0.00997
3754.44497	0.01004
3753.15921	0.00976
3751.87344	0.00975
3750.58767	0.01020
3749.30190	0.01071
3748.01613	0.01075
3746.73036	0.01002
3745.44459	0.00908
3744.15882	0.00889
3742.87305	0.00933
3741.58729	0.00934
3740.30152	0.00874
3739.01575	0.00829
3737.72998	0.00839
3736.44421	0.00871
3735.15844	0.00870
3733.87267	0.00810
3732.58690	0.00711
3731.30114	0.00623
3730.01537	0.00568
3728.72960	0.00524
3727.44383	0.00483
3726.15806	0.00457
3724.87229	0.00447
3723.58652	0.00437
3722.30075	0.00406
3721.01498	0.00373
3719.72922	0.00382
3718.44345	0.00450
3717.15768	0.00543
3715.87191	0.00602
3714.58614	0.00604
3713.30037	0.00591
3712.01460	0.00590
3710.72883	0.00602
3709.44307	0.00613
3708.15730	0.00611
3706.87153	0.00607
3705.58576	0.00602
3704.29999	0.00594
3703.01422	0.00606
3701.72845	0.00654
3700.44268	0.00717
3699.15691	0.00746
3697.87115	0.00713
3696.58538	0.00645
3695.29961	0.00582
3694.01384	0.00550
3692.72807	0.00554
3691.44230	0.00601
3690.15653	0.00681
3688.87076	0.00775
3687.58500	0.00870
3686.29923	0.00952
3685.01346	0.00997
3683.72769	0.01014
3682.44192	0.01037
3681.15615	0.01078
3679.87038	0.01111
3678.58461	0.01089
3677.29884	0.01011
3676.01308	0.00974
3674.72731	0.01050
3673.44154	0.01166
3672.15577	0.01192
3670.87000	0.01132
3669.58423	0.01088
3668.29846	0.01103
3667.01269	0.01139
3665.72693	0.01160
3664.44116	0.01159
3663.15539	0.01132
3661.86962	0.01084
3660.58385	0.01040
3659.29808	0.01040
3658.01231	0.01110
3656.72654	0.01248
3655.44077	0.01414
3654.15501	0.01520
3652.86924	0.01501
3651.58347	0.01378
3650.29770	0.01251
3649.01193	0.01203
3647.72616	0.01247
3646.44039	0.01344
3645.15462	0.01439
3643.86886	0.01490
3642.58309	0.01486
3641.29732	0.01455
3640.01155	0.01441
3638.72578	0.01466
3637.44001	0.01512
3636.15424	0.01548
3634.86847	0.01576
3633.58270	0.01623
3632.29694	0.01682
3631.01117	0.01708
3629.72540	0.01687
3628.43963	0.01671
3627.15386	0.01698
3625.86809	0.01751
3624.58232	0.01797
3623.29655	0.01840
3622.01079	0.01875
3620.72502	0.01898
3619.43925	0.01913
3618.15348	0.01930
3616.86771	0.01949
3615.58194	0.01960
3614.29617	0.01976
3613.01040	0.02020
3611.72463	0.02087
3610.43887	0.02133
3609.15310	0.02136
3607.86733	0.02123
3606.58156	0.02127
3605.29579	0.02160
3604.01002	0.02222
3602.72425	0.02308
3601.43848	0.02387
3600.15272	0.02416
3598.86695	0.02377
3597.58118	0.02301
3596.29541	0.02239
3595.00964	0.02240
3593.72387	0.02302
3592.43810	0.02368
3591.15233	0.02399
3589.86656	0.02401
3588.58080	0.02409
3587.29503	0.02468
3586.00926	0.02570
3584.72349	0.02667
3583.43772	0.02734
3582.15195	0.02788
3580.86618	0.02848
3579.58041	0.02923
3578.29464	0.03000
3577.00888	0.03060
3575.72311	0.03080
3574.43734	0.03053
3573.15157	0.03006
3571.86580	0.02986
3570.58003	0.03015
3569.29426	0.03078
3568.00849	0.03154
3566.72273	0.03237
3565.43696	0.03326
3564.15119	0.03412
3562.86542	0.03466
3561.57965	0.03471
3560.29388	0.03439
3559.00811	0.03401
3557.72234	0.03386
3556.43657	0.03401
3555.15081	0.03435
3553.86504	0.03477
3552.57927	0.03530
3551.29350	0.03598
3550.00773	0.03673
3548.72196	0.03729
3547.43619	0.03746
3546.15042	0.03728
3544.86466	0.03702
3543.57889	0.03691
3542.29312	0.03701
3541.00735	0.03730
3539.72158	0.03773
3538.43581	0.03827
3537.15004	0.03890
3535.86427	0.03955
3534.57850	0.04011
3533.29274	0.04042
3532.00697	0.04056
3530.72120	0.04074
3529.43543	0.04118
3528.14966	0.04183
3526.86389	0.04241
3525.57812	0.04266
3524.29235	0.04256
3523.00659	0.04234
3521.72082	0.04217
3520.43505	0.04198
3519.14928	0.04167
3517.86351	0.04137
3516.57774	0.04149
3515.29197	0.04236
3514.00620	0.04378
3512.72043	0.04512
3511.43467	0.04585
3510.14890	0.04594
3508.86313	0.04576
3507.57736	0.04565
3506.29159	0.04574
3505.00582	0.04600
3503.72005	0.04640
3502.43428	0.04685
3501.14852	0.04721
3499.86275	0.04742
3498.57698	0.04753
3497.29121	0.04763
3496.00544	0.04779
3494.71967	0.04812
3493.43390	0.04864
3492.14813	0.04927
3490.86236	0.04979
3489.57660	0.05001
3488.29083	0.04997
3487.00506	0.04989
3485.71929	0.05008
3484.43352	0.05064
3483.14775	0.05134
3481.86198	0.05177
3480.57621	0.05163
3479.29045	0.05105
3478.00468	0.05054
3476.71891	0.05062
3475.43314	0.05134
3474.14737	0.05230
3472.86160	0.05303
3471.57583	0.05341
3470.29006	0.05358
3469.00429	0.05367
3467.71853	0.05359
3466.43276	0.05326
3465.14699	0.05278
3463.86122	0.05247
3462.57545	0.05256
3461.28968	0.05302
3460.00391	0.05360
3458.71814	0.05412
3457.43238	0.05459
3456.14661	0.05507
3454.86084	0.05545
3453.57507	0.05553
3452.28930	0.05532
3451.00353	0.05518
3449.71776	0.05542
3448.43199	0.05595
3447.14622	0.05636
3445.86046	0.05635
3444.57469	0.05607
3443.28892	0.05591
3442.00315	0.05615
3440.71738	0.05665
3439.43161	0.05702
3438.14584	0.05700
3436.86007	0.05670
3435.57431	0.05648
3434.28854	0.05664
3433.00277	0.05709
3431.71700	0.05752
3430.43123	0.05772
3429.14546	0.05783
3427.85969	0.05810
3426.57392	0.05864
3425.28815	0.05928
3424.00239	0.05981
3422.71662	0.06016
3421.43085	0.06051
3420.14508	0.06106
3418.85931	0.06176
3417.57354	0.06232
3416.28777	0.06246
3415.00200	0.06217
3413.71624	0.06170
3412.43047	0.06124
3411.14470	0.06082
3409.85893	0.06038
3408.57316	0.06000
3407.28739	0.06001
3406.00162	0.06062
3404.71585	0.06157
3403.43008	0.06231
3402.14432	0.06245
3400.85855	0.06215
3399.57278	0.06177
3398.28701	0.06160
3397.00124	0.06159
3395.71547	0.06174
3394.42970	0.06216
3393.14393	0.06291
3391.85817	0.06377
3390.57240	0.06440
3389.28663	0.06460
3388.00086	0.06452
3386.71509	0.06444
3385.42932	0.06449
3384.14355	0.06463
3382.85778	0.06475
3381.57201	0.06478
3380.28625	0.06477
3379.00048	0.06477
3377.71471	0.06478
3376.42894	0.06467
3375.14317	0.06433
3373.85740	0.06393
3372.57163	0.06386
3371.28586	0.06432
3370.00010	0.06506
3368.71433	0.06567
3367.42856	0.06592
3366.14279	0.06590
3364.85702	0.06575
3363.57125	0.06553
3362.28548	0.06525
3360.99971	0.06494
3359.71394	0.06468
3358.42818	0.06456
3357.14241	0.06462
3355.85664	0.06490
3354.57087	0.06540
3353.28510	0.06607
3351.99933	0.06672
3350.71356	0.06709
3349.42779	0.06711
3348.14202	0.06690
3346.85626	0.06658
3345.57049	0.06620
3344.28472	0.06583
3342.99895	0.06564
3341.71318	0.06578
3340.42741	0.06610
3339.14164	0.06625
3337.85587	0.06598
3336.57011	0.06542
3335.28434	0.06499
3333.99857	0.06497
3332.71280	0.06533
3331.42703	0.06578
3330.14126	0.06606
3328.85549	0.06606
3327.56972	0.06591
3326.28395	0.06583
3324.99819	0.06600
3323.71242	0.06647
3322.42665	0.06712
3321.14088	0.06780
3319.85511	0.06837
3318.56934	0.06869
3317.28357	0.06859
3315.99780	0.06800
3314.71204	0.06707
3313.42627	0.06625
3312.14050	0.06595
3310.85473	0.06623
3309.56896	0.06663
3308.28319	0.06665
3306.99742	0.06616
3305.71165	0.06545
3304.42588	0.06492
3303.14012	0.06475
3301.85435	0.06490
3300.56858	0.06525
3299.28281	0.06568
3297.99704	0.06605
3296.71127	0.06622
3295.42550	0.06616
3294.13973	0.06595
3292.85397	0.06568
3291.56820	0.06542
3290.28243	0.06521
3288.99666	0.06505
3287.71089	0.06495
3286.42512	0.06498
3285.13935	0.06522
3283.85358	0.06563
3282.56781	0.06599
3281.28205	0.06604
3279.99628	0.06580
3278.71051	0.06559
3277.42474	0.06566
3276.13897	0.06598
3274.85320	0.06628
3273.56743	0.06634
3272.28166	0.06620
3270.99590	0.06608
3269.71013	0.06610
3268.42436	0.06621
3267.13859	0.06627
3265.85282	0.06629
3264.56705	0.06636
3263.28128	0.06649
3261.99551	0.06656
3260.70974	0.06649
3259.42398	0.06642
3258.13821	0.06655
3256.85244	0.06689
3255.56667	0.06717
3254.28090	0.06705
3252.99513	0.06646
3251.70936	0.06568
3250.42359	0.06506
3249.13783	0.06476
3247.85206	0.06474
3246.56629	0.06487
3245.28052	0.06508
3243.99475	0.06531
3242.70898	0.06551
3241.42321	0.06555
3240.13744	0.06538
3238.85167	0.06507
3237.56591	0.06490
3236.28014	0.06507
3234.99437	0.06552
3233.70860	0.06586
3232.42283	0.06573
3231.13706	0.06518
3229.85129	0.06458
3228.56552	0.06433
3227.27976	0.06443
3225.99399	0.06463
3224.70822	0.06464
3223.42245	0.06443
3222.13668	0.06406
3220.85091	0.06369
3219.56514	0.06344
3218.27937	0.06341
3216.99360	0.06359
3215.70784	0.06393
3214.42207	0.06430
3213.13630	0.06453
3211.85053	0.06447
3210.56476	0.06414
3209.27899	0.06366
3207.99322	0.06322
3206.70745	0.06293
3205.42169	0.06283
3204.13592	0.06290
3202.85015	0.06305
3201.56438	0.06317
3200.27861	0.06322
3198.99284	0.06327
3197.70707	0.06340
3196.42130	0.06356
3195.13553	0.06371
3193.84977	0.06383
3192.56400	0.06393
3191.27823	0.06400
3189.99246	0.06400
3188.70669	0.06392
3187.42092	0.06371
3186.13515	0.06333
3184.84938	0.06279
3183.56362	0.06227
3182.27785	0.06202
3180.99208	0.06215
3179.70631	0.06248
3178.42054	0.06270
3177.13477	0.06265
3175.84900	0.06239
3174.56323	0.06210
3173.27746	0.06189
3171.99170	0.06178
3170.70593	0.06180
3169.42016	0.06195
3168.13439	0.06219
3166.84862	0.06246
3165.56285	0.06270
3164.27708	0.06283
3162.99131	0.06269
3161.70555	0.06227
3160.41978	0.06180
3159.13401	0.06157
3157.84824	0.06164
3156.56247	0.06177
3155.27670	0.06166
3153.99093	0.06121
3152.70516	0.06065
3151.41939	0.06026
3150.13363	0.06020
3148.84786	0.06046
3147.56209	0.06084
3146.27632	0.06118
3144.99055	0.06139
3143.70478	0.06151
3142.41901	0.06149
3141.13324	0.06125
3139.84748	0.06078
3138.56171	0.06025
3137.27594	0.05986
3135.99017	0.05964
3134.70440	0.05944
3133.41863	0.05915
3132.13286	0.05883
3130.84709	0.05856
3129.56132	0.05845
3128.27556	0.05852
3126.98979	0.05877
3125.70402	0.05912
3124.41825	0.05945
3123.13248	0.05967
3121.84671	0.05975
3120.56094	0.05969
3119.27517	0.05950
3117.98940	0.05926
3116.70364	0.05907
3115.41787	0.05902
3114.13210	0.05904
3112.84633	0.05907
3111.56056	0.05909
3110.27479	0.05914
3108.98902	0.05925
3107.70325	0.05930
3106.41749	0.05917
3105.13172	0.05879
3103.84595	0.05825
3102.56018	0.05774
3101.27441	0.05748
3099.98864	0.05752
3098.70287	0.05769
3097.41710	0.05777
3096.13133	0.05764
3094.84557	0.05743
3093.55980	0.05734
3092.27403	0.05748
3090.98826	0.05779
3089.70249	0.05810
3088.41672	0.05827
3087.13095	0.05821
3085.84518	0.05803
3084.55942	0.05795
3083.27365	0.05812
3081.98788	0.05842
3080.70211	0.05859
3079.41634	0.05848
3078.13057	0.05817
3076.84480	0.05782
3075.55903	0.05744
3074.27326	0.05701
3072.98750	0.05656
3071.70173	0.05618
3070.41596	0.05595
3069.13019	0.05583
3067.84442	0.05581
3066.55865	0.05587
3065.27288	0.05596
3063.98711	0.05600
3062.70135	0.05593
3061.41558	0.05576
3060.12981	0.05559
3058.84404	0.05551
3057.55827	0.05551
3056.27250	0.05550
3054.98673	0.05540
3053.70096	0.05521
3052.41519	0.05506
3051.12943	0.05506
3049.84366	0.05518
3048.55789	0.05527
3047.27212	0.05516
3045.98635	0.05484
3044.70058	0.05441
3043.41481	0.05402
3042.12904	0.05378
3040.84328	0.05376
3039.55751	0.05395
3038.27174	0.05421
3036.98597	0.05437
3035.70020	0.05433
3034.41443	0.05414
3033.12866	0.05393
3031.84289	0.05377
3030.55712	0.05368
3029.27136	0.05368
3027.98559	0.05373
3026.69982	0.05371
3025.41405	0.05355
3024.12828	0.05327
3022.84251	0.05305
3021.55674	0.05311
3020.27097	0.05350
3018.98521	0.05404
3017.69944	0.05441
3016.41367	0.05438
3015.12790	0.05396
3013.84213	0.05335
3012.55636	0.05279
3011.27059	0.05247
3009.98482	0.05245
3008.69905	0.05270
3007.41329	0.05311
3006.12752	0.05345
3004.84175	0.05350
3003.55598	0.05313
3002.27021	0.05243
3000.98444	0.05164
2999.69867	0.05101
2998.41290	0.05073
2997.12714	0.05075
2995.84137	0.05095
2994.55560	0.05124
2993.26983	0.05156
2991.98406	0.05184
2990.69829	0.05201
2989.41252	0.05203
2988.12675	0.05196
2986.84098	0.05192
2985.55522	0.05199
2984.26945	0.05212
2982.98368	0.05221
2981.69791	0.05230
2980.41214	0.05253
2979.12637	0.05297
2977.84060	0.05357
2976.55483	0.05419
2975.26907	0.05474
2973.98330	0.05516
2972.69753	0.05545
2971.41176	0.05571
2970.12599	0.05603
2968.84022	0.05647
2967.55445	0.05705
2966.26868	0.05772
2964.98291	0.05835
2963.69715	0.05884
2962.41138	0.05924
2961.12561	0.05974
2959.83984	0.06041
2958.55407	0.06110
2957.26830	0.06162
2955.98253	0.06193
2954.69676	0.06208
2953.41100	0.06208
2952.12523	0.06193
2950.83946	0.06178
2949.55369	0.06186
2948.26792	0.06222
2946.98215	0.06263
2945.69638	0.06273
2944.41061	0.06240
2943.12484	0.06189
2941.83908	0.06156
2940.55331	0.06158
2939.26754	0.06193
2937.98177	0.06244
2936.69600	0.06293
2935.41023	0.06327
2934.12446	0.06342
2932.83869	0.06348
2931.55293	0.06368
2930.26716	0.06417
2928.98139	0.06490
2927.69562	0.06566
2926.40985	0.06627
2925.12408	0.06662
2923.83831	0.06674
2922.55254	0.06673
2921.26677	0.06666
2919.98101	0.06651
2918.69524	0.06616
2917.40947	0.06557
2916.12370	0.06479
2914.83793	0.06391
2913.55216	0.06300
2912.26639	0.06224
2910.98062	0.06181
2909.69486	0.06173
2908.40909	0.06180
2907.12332	0.06170
2905.83755	0.06127
2904.55178	0.06057
2903.26601	0.05982
2901.98024	0.05921
2900.69447	0.05873
2899.40870	0.05828
2898.12294	0.05786
2896.83717	0.05760
2895.55140	0.05755
2894.26563	0.05751
2892.97986	0.05720
2891.69409	0.05650
2890.40832	0.05563
2889.12255	0.05494
2887.83678	0.05467
2886.55102	0.05473
2885.26525	0.05482
2883.97948	0.05475
2882.69371	0.05448
2881.40794	0.05413
2880.12217	0.05393
2878.83640	0.05406
2877.55063	0.05454
2876.26487	0.05513
2874.97910	0.05550
2873.69333	0.05553
2872.40756	0.05535
2871.12179	0.05518
2869.83602	0.05514
2868.55025	0.05519
2867.26448	0.05523
2865.97871	0.05522
2864.69295	0.05520
2863.40718	0.05527
2862.12141	0.05548
2860.83564	0.05574
2859.54987	0.05593
2858.26410	0.05592
2856.97833	0.05572
2855.69256	0.05538
2854.40680	0.05498
2853.12103	0.05462
2851.83526	0.05439
2850.54949	0.05423
2849.26372	0.05400
2847.97795	0.05362
2846.69218	0.05309
2845.40641	0.05244
2844.12064	0.05171
2842.83488	0.05097
2841.54911	0.05036
2840.26334	0.04990
2838.97757	0.04950
2837.69180	0.04905
2836.40603	0.04853
2835.12026	0.04800
2833.83449	0.04749
2832.54873	0.04702
2831.26296	0.04657
2829.97719	0.04620
2828.69142	0.04597
2827.40565	0.04587
2826.11988	0.04579
2824.83411	0.04560
2823.54834	0.04532
2822.26257	0.04513
2820.97681	0.04510
2819.69104	0.04515
2818.40527	0.04511
2817.11950	0.04494
2815.83373	0.04472
2814.54796	0.04457
2813.26219	0.04451
2811.97642	0.04445
2810.69066	0.04428
2809.40489	0.04400
2808.11912	0.04372
2806.83335	0.04355
2805.54758	0.04352
2804.26181	0.04352
2802.97604	0.04342
2801.69027	0.04314
2800.40450	0.04276
2799.11874	0.04246
2797.83297	0.04238
2796.54720	0.04247
2795.26143	0.04257
2793.97566	0.04257
2792.68989	0.04248
2791.40412	0.04241
2790.11835	0.04243
2788.83259	0.04250
2787.54682	0.04250
2786.26105	0.04233
2784.97528	0.04201
2783.68951	0.04169
2782.40374	0.04146
2781.11797	0.04128
2779.83220	0.04110
2778.54643	0.04090
2777.26067	0.04072
2775.97490	0.04061
2774.68913	0.04062
2773.40336	0.04076
2772.11759	0.04095
2770.83182	0.04105
2769.54605	0.04096
2768.26028	0.04071
2766.97452	0.04046
2765.68875	0.04032
2764.40298	0.04032
2763.11721	0.04038
2761.83144	0.04040
2760.54567	0.04031
2759.25990	0.04014
2757.97413	0.04001
2756.68836	0.03999
2755.40260	0.04003
2754.11683	0.04002
2752.83106	0.03986
2751.54529	0.03957
2750.25952	0.03934
2748.97375	0.03931
2747.68798	0.03947
2746.40221	0.03965
2745.11645	0.03973
2743.83068	0.03973
2742.54491	0.03970
2741.25914	0.03957
2739.97337	0.03928
2738.68760	0.03892
2737.40183	0.03867
2736.11606	0.03863
2734.83029	0.03876
2733.54453	0.03889
2732.25876	0.03889
2730.97299	0.03874
2729.68722	0.03856
2728.40145	0.03852
2727.11568	0.03864
2725.82991	0.03877
2724.54414	0.03874
2723.25838	0.03854
2721.97261	0.03832
2720.68684	0.03827
2719.40107	0.03844
2718.11530	0.03868
2716.82953	0.03881
2715.54376	0.03876
2714.25799	0.03856
2712.97222	0.03830
2711.68646	0.03804
2710.40069	0.03780
2709.11492	0.03763
2707.82915	0.03757
2706.54338	0.03761
2705.25761	0.03772
2703.97184	0.03782
2702.68607	0.03782
2701.40031	0.03770
2700.11454	0.03744
2698.82877	0.03712
2697.54300	0.03684
2696.25723	0.03673
2694.97146	0.03682
2693.68569	0.03705
2692.39992	0.03729
2691.11415	0.03743
2689.82839	0.03739
2688.54262	0.03719
2687.25685	0.03690
2685.97108	0.03661
2684.68531	0.03636
2683.39954	0.03620
2682.11377	0.03619
2680.82800	0.03627
2679.54224	0.03633
2678.25647	0.03627
2676.97070	0.03614
2675.68493	0.03605
2674.39916	0.03610
2673.11339	0.03624
2671.82762	0.03635
2670.54185	0.03636
2669.25608	0.03632
2667.97032	0.03627
2666.68455	0.03624
2665.39878	0.03627
2664.11301	0.03641
2662.82724	0.03657
2661.54147	0.03664
2660.25570	0.03656
2658.96993	0.03639
2657.68417	0.03622
2656.39840	0.03607
2655.11263	0.03595
2653.82686	0.03587
2652.54109	0.03585
2651.25532	0.03586
2649.96955	0.03583
2648.68378	0.03573
2647.39801	0.03558
2646.11225	0.03545
2644.82648	0.03531
2643.54071	0.03504
2642.25494	0.03463
2640.96917	0.03421
2639.68340	0.03398
2638.39763	0.03399
2637.11186	0.03407
2635.82609	0.03401
2634.54033	0.03372
2633.25456	0.03329
2631.96879	0.03293
2630.68302	0.03272
2629.39725	0.03262
2628.11148	0.03250
2626.82571	0.03228
2625.53994	0.03203
2624.25418	0.03184
2622.96841	0.03170
2621.68264	0.03157
2620.39687	0.03146
2619.11110	0.03141
2617.82533	0.03142
2616.53956	0.03145
2615.25379	0.03145
2613.96802	0.03139
2612.68226	0.03125
2611.39649	0.03110
2610.11072	0.03108
2608.82495	0.03120
2607.53918	0.03131
2606.25341	0.03123
2604.96764	0.03096
2603.68187	0.03063
2602.39611	0.03026
2601.11034	0.02982
2599.82457	0.02933
2598.53880	0.02894
2597.25303	0.02880
2595.96726	0.02890
2594.68149	0.02917
2593.39572	0.02943
2592.10995	0.02952
2590.82419	0.02941
2589.53842	0.02915
2588.25265	0.02886
2586.96688	0.02867
2585.68111	0.02872
2584.39534	0.02905
2583.10957	0.02952
2581.82380	0.02983
2580.53804	0.02974
2579.25227	0.02923
2577.96650	0.02859
2576.68073	0.02818
2575.39496	0.02816
2574.10919	0.02830
2572.82342	0.02828
2571.53765	0.02800
2570.25188	0.02769
2568.96612	0.02761
2567.68035	0.02779
2566.39458	0.02805
2565.10881	0.02823
2563.82304	0.02829
2562.53727	0.02832
2561.25150	0.02836
2559.96573	0.02839
2558.67997	0.02832
2557.39420	0.02818
2556.10843	0.02803
2554.82266	0.02790
2553.53689	0.02776
2552.25112	0.02759
2550.96535	0.02739
2549.67958	0.02705
2548.39381	0.02657
2547.10805	0.02615
2545.82228	0.02608
2544.53651	0.02632
2543.25074	0.02651
2541.96497	0.02640
2540.67920	0.02605
2539.39343	0.02579
2538.10766	0.02582
2536.82190	0.02606
2535.53613	0.02627
2534.25036	0.02632
2532.96459	0.02631
2531.67882	0.02642
2530.39305	0.02662
2529.10728	0.02672
2527.82151	0.02661
2526.53574	0.02636
2525.24998	0.02614
2523.96421	0.02601
2522.67844	0.02591
2521.39267	0.02573
2520.10690	0.02541
2518.82113	0.02505
2517.53536	0.02491
2516.24959	0.02512
2514.96383	0.02553
2513.67806	0.02591
2512.39229	0.02622
2511.10652	0.02655
2509.82075	0.02683
2508.53498	0.02682
2507.24921	0.02642
2505.96344	0.02591
2504.67767	0.02573
2503.39191	0.02597
2502.10614	0.02617
2500.82037	0.02587
2499.53460	0.02518
2498.24883	0.02466
2496.96306	0.02468
2495.67729	0.02505
2494.39152	0.02539
2493.10576	0.02552
2491.81999	0.02552
2490.53422	0.02547
2489.24845	0.02542
2487.96268	0.02540
2486.67691	0.02542
2485.39114	0.02542
2484.10537	0.02537
2482.81960	0.02532
2481.53384	0.02536
2480.24807	0.02551
2478.96230	0.02572
2477.67653	0.02588
2476.39076	0.02589
2475.10499	0.02571
2473.81922	0.02545
2472.53345	0.02528
2471.24769	0.02531
2469.96192	0.02544
2468.67615	0.02553
2467.39038	0.02556
2466.10461	0.02561
2464.81884	0.02572
2463.53307	0.02578
2462.24730	0.02565
2460.96153	0.02533
2459.67577	0.02499
2458.39000	0.02482
2457.10423	0.02495
2455.81846	0.02528
2454.53269	0.02559
2453.24692	0.02577
2451.96115	0.02586
2450.67538	0.02589
2449.38962	0.02577
2448.10385	0.02545
2446.81808	0.02500
2445.53231	0.02462
2444.24654	0.02443
2442.96077	0.02446
2441.67500	0.02464
2440.38923	0.02485
2439.10346	0.02493
2437.81770	0.02478
2436.53193	0.02444
2435.24616	0.02404
2433.96039	0.02370
2432.67462	0.02352
2431.38885	0.02348
2430.10308	0.02353
2428.81731	0.02359
2427.53155	0.02360
2426.24578	0.02357
2424.96001	0.02351
2423.67424	0.02345
2422.38847	0.02344
2421.10270	0.02355
2419.81693	0.02378
2418.53116	0.02406
2417.24539	0.02422
2415.95963	0.02414
2414.67386	0.02387
2413.38809	0.02360
2412.10232	0.02353
2410.81655	0.02376
2409.53078	0.02417
2408.24501	0.02460
2406.95924	0.02491
2405.67347	0.02505
2404.38771	0.02501
2403.10194	0.02475
2401.81617	0.02434
2400.53040	0.02401
2399.24463	0.02460
2397.95886	0.02511
2396.67309	0.02522
2395.38732	0.02507
2394.10156	0.02476
2392.81579	0.02436
2391.53002	0.02391
2390.24425	0.02346
2388.95848	0.02303
2387.67271	0.02263
2386.38694	0.02226
2385.10117	0.02194
2383.81540	0.02168
2382.52964	0.02148
2381.24387	0.02130
2379.95810	0.02109
2378.67233	0.02075
2377.38656	0.02018
2376.10079	0.01963
2374.81502	0.01918
2373.52925	0.01864
2372.24349	0.01795
2370.95772	0.01706
2369.67195	0.01649
2368.38618	0.01629
2367.10041	0.01595
2365.81464	0.01533
2364.52887	0.01483
2363.24310	0.01423
2361.95733	0.01330
2360.67157	0.01256
2359.38580	0.01275
2358.10003	0.01347
2356.81426	0.01414
2355.52849	0.01470
2354.24272	0.01515
2352.95695	0.01548
2351.67118	0.01521
2350.38542	0.01405
2349.09965	0.01333
2347.81388	0.01448
2346.52811	0.01633
2345.24234	0.01694
2343.95657	0.01643
2342.67080	0.01619
2341.38503	0.01655
2340.09926	0.01706
2338.81350	0.01755
2337.52773	0.01774
2336.24196	0.01777
2334.95619	0.01763
2333.67042	0.01740
2332.38465	0.01756
2331.09888	0.01786
2329.81311	0.01798
2328.52735	0.01829
2327.24158	0.01873
2325.95581	0.01924
2324.67004	0.02004
2323.38427	0.02080
2322.09850	0.02122
2320.81273	0.02129
2319.52696	0.02081
2318.24119	0.01999
2316.95543	0.01946
2315.66966	0.01951
2314.38389	0.01999
2313.09812	0.02049
2311.81235	0.02086
2310.52658	0.02117
2309.24081	0.02144
2307.95504	0.02173
2306.66928	0.02198
2305.38351	0.02197
2304.09774	0.02177
2302.81197	0.02157
2301.52620	0.02145
2300.24043	0.02134
2298.95466	0.02122
2297.66889	0.02111
2296.38312	0.02103
2295.09736	0.02104
2293.81159	0.02116
2292.52582	0.02136
2291.24005	0.02156
2289.95428	0.02162
2288.66851	0.02150
2287.38274	0.02131
2286.09697	0.02119
2284.81121	0.02120
2283.52544	0.02131
2282.23967	0.02143
2280.95390	0.02147
2279.66813	0.02148
2278.38236	0.02153
2277.09659	0.02168
2275.81082	0.02177
2274.52505	0.02158
2273.23929	0.02097
2271.95352	0.02004
2270.66775	0.01911
2269.38198	0.01852
2268.09621	0.01841
2266.81044	0.01856
2265.52467	0.01865
2264.23890	0.01853
2262.95314	0.01831
2261.66737	0.01823
2260.38160	0.01831
2259.09583	0.01840
2257.81006	0.01834
2256.52429	0.01811
2255.23852	0.01783
2253.95275	0.01770
2252.66698	0.01784
2251.38122	0.01815
2250.09545	0.01849
2248.80968	0.01860
2247.52391	0.01785
2246.23814	0.01688
2244.95237	0.01625
2243.66660	0.01640
2242.38083	0.01719
2241.09507	0.01793
2239.80930	0.01799
2238.52353	0.01727
2237.23776	0.01622
2235.95199	0.01534
2234.66622	0.01490
2233.38045	0.01489
2232.09468	0.01515
2230.80891	0.01539
2229.52315	0.01530
2228.23738	0.01483
2226.95161	0.01425
2225.66584	0.01394
2224.38007	0.01388
2223.09430	0.01362
2221.80853	0.01287
2220.52276	0.01202
2219.23700	0.01186
2217.95123	0.01274
2216.66546	0.01418
2215.37969	0.01542
2214.09392	0.01599
2212.80815	0.01586
2211.52238	0.01513
2210.23661	0.01403
2208.95084	0.01299
2207.66508	0.01247
2206.37931	0.01244
2205.09354	0.01237
2203.80777	0.01178
2202.52200	0.01080
2201.23623	0.00988
2199.95046	0.00929
2198.66469	0.00900
2197.37893	0.00890
2196.09316	0.00898
2194.80739	0.00929
2193.52162	0.00981
2192.23585	0.01043
2190.95008	0.01071
2189.66431	0.01016
2188.37854	0.00876
2187.09277	0.00725
2185.80701	0.00648
2184.52124	0.00661
2183.23547	0.00722
2181.94970	0.00793
2180.66393	0.00860
2179.37816	0.00898
2178.09239	0.00887
2176.80662	0.00842
2175.52085	0.00796
2174.23509	0.00743
2172.94932	0.00660
2171.66355	0.00565
2170.37778	0.00510
2169.09201	0.00512
2167.80624	0.00532
2166.52047	0.00547
2165.23470	0.00581
2163.94894	0.00647
2162.66317	0.00674
2161.37740	0.00568
2160.09163	0.00335
2158.80586	0.00101
2157.52009	-0.00014
2156.23432	-0.00002
2154.94855	0.00076
2153.66278	0.00176
2152.37702	0.00288
2151.09125	0.00418
2149.80548	0.00578
2148.51971	0.00760
2147.23394	0.00913
2145.94817	0.00970
2144.66240	0.00921
2143.37663	0.00844
2142.09087	0.00828
2140.80510	0.00896
2139.51933	0.01003
2138.23356	0.01080
2136.94779	0.01084
2135.66202	0.01014
2134.37625	0.00919
2133.09048	0.00861
2131.80471	0.00867
2130.51895	0.00920
2129.23318	0.00986
2127.94741	0.01040
2126.66164	0.01064
2125.37587	0.01048
2124.09010	0.01003
2122.80433	0.00979
2121.51856	0.01024
2120.23280	0.01143
2118.94703	0.01276
2117.66126	0.01351
2116.37549	0.01346
2115.08972	0.01307
2113.80395	0.01282
2112.51818	0.01267
2111.23241	0.01228
2109.94664	0.01165
2108.66088	0.01124
2107.37511	0.01143
2106.08934	0.01211
2104.80357	0.01285
2103.51780	0.01332
2102.23203	0.01347
2100.94626	0.01337
2099.66049	0.01325
2098.37473	0.01252
2097.08896	0.01139
2095.80319	0.01050
2094.51742	0.01039
2093.23165	0.01103
2091.94588	0.01190
2090.66011	0.01232
2089.37434	0.01210
2088.08857	0.01164
2086.80281	0.01143
2085.51704	0.01157
2084.23127	0.01182
2082.94550	0.01195
2081.65973	0.01195
2080.37396	0.01185
2079.08819	0.01159
2077.80242	0.01112
2076.51666	0.01055
2075.23089	0.01001
2073.94512	0.00962
2072.65935	0.00941
2071.37358	0.00937
2070.08781	0.00948
2068.80204	0.00964
2067.51627	0.00975
2066.23050	0.00969
2064.94474	0.00943
2063.65897	0.00906
2062.37320	0.00874
2061.08743	0.00853
2059.80166	0.00843
2058.51589	0.00833
2057.23012	0.00809
2055.94435	0.00770
2054.65859	0.00745
2053.37282	0.00775
2052.08705	0.00861
2050.80128	0.00944
2049.51551	0.00956
2048.22974	0.00865
2046.94397	0.00698
2045.65820	0.00518
2044.37243	0.00396
2043.08667	0.00380
2041.80090	0.00453
2040.51513	0.00545
2039.22936	0.00584
2037.94359	0.00561
2036.65782	0.00520
2035.37205	0.00509
2034.08628	0.00532
2032.80052	0.00556
2031.51475	0.00536
2030.22898	0.00446
2028.94321	0.00299
2027.65744	0.00148
2026.37167	0.00055
2025.08590	0.00046
2023.80013	0.00099
2022.51436	0.00175
2021.22860	0.00257
2019.94283	0.00344
2018.65706	0.00417
2017.37129	0.00442
2016.08552	0.00400
2014.79975	0.00313
2013.51398	0.00242
2012.22821	0.00254
2010.94245	0.00350
2009.65668	0.00455
2008.37091	0.00492
2007.08514	0.00470
2005.79937	0.00453
2004.51360	0.00467
2003.22783	0.00479
2001.94206	0.00457
2000.65629	0.00423
1999.37053	0.00427
1998.08476	0.00491
1996.79899	0.00587
1995.51322	0.00662
1994.22745	0.00688
1992.94168	0.00686
1991.65591	0.00690
1990.37014	0.00711
1989.08438	0.00734
1987.79861	0.00753
1986.51284	0.00773
1985.22707	0.00800
1983.94130	0.00831
1982.65553	0.00868
1981.36976	0.00907
1980.08399	0.00936
1978.79822	0.00932
1977.51246	0.00887
1976.22669	0.00812
1974.94092	0.00740
1973.65515	0.00702
1972.36938	0.00704
1971.08361	0.00728
1969.79784	0.00755
1968.51207	0.00780
1967.22631	0.00815
1965.94054	0.00850
1964.65477	0.00860
1963.36900	0.00830
1962.08323	0.00795
1960.79746	0.00809
1959.51169	0.00889
1958.22592	0.00989
1956.94015	0.01039
1955.65439	0.01016
1954.36862	0.00951
1953.08285	0.00901
1951.79708	0.00900
1950.51131	0.00951
1949.22554	0.01026
1947.93977	0.01094
1946.65400	0.01134
1945.36823	0.01146
1944.08247	0.01148
1942.79670	0.01155
1941.51093	0.01170
1940.22516	0.01185
1938.93939	0.01194
1937.65362	0.01208
1936.36785	0.01238
1935.08208	0.01282
1933.79632	0.01325
1932.51055	0.01341
1931.22478	0.01318
1929.93901	0.01263
1928.65324	0.01200
1927.36747	0.01153
1926.08170	0.01132
1924.79593	0.01136
1923.51016	0.01159
1922.22440	0.01195
1920.93863	0.01233
1919.65286	0.01258
1918.36709	0.01265
1917.08132	0.01259
1915.79555	0.01259
1914.50978	0.01277
1913.22401	0.01307
1911.93825	0.01323
1910.65248	0.01311
1909.36671	0.01280
1908.08094	0.01259
1906.79517	0.01261
1905.50940	0.01277
1904.22363	0.01296
1902.93786	0.01312
1901.65209	0.01331
1900.36633	0.01362
1899.08056	0.01403
1897.79479	0.01440
1896.50902	0.01455
1895.22325	0.01448
1893.93748	0.01436
1892.65171	0.01435
1891.36594	0.01446
1890.08018	0.01457
1888.79441	0.01463
1887.50864	0.01465
1886.22287	0.01468
1884.93710	0.01470
1883.65133	0.01468
1882.36556	0.01453
1881.07979	0.01420
1879.79402	0.01377
1878.50826	0.01349
1877.22249	0.01360
1875.93672	0.01410
1874.65095	0.01474
1873.36518	0.01523
1872.07941	0.01545
1870.79364	0.01542
1869.50787	0.01517
1868.22211	0.01476
1866.93634	0.01434
1865.65057	0.01410
1864.36480	0.01414
1863.07903	0.01436
1861.79326	0.01455
1860.50749	0.01458
1859.22172	0.01450
1857.93595	0.01447
1856.65019	0.01451
1855.36442	0.01457
1854.07865	0.01457
1852.79288	0.01450
1851.50711	0.01442
1850.22134	0.01439
1848.93557	0.01449
1847.64980	0.01470
1846.36404	0.01489
1845.07827	0.01497
1843.79250	0.01501
1842.50673	0.01501
1841.22096	0.01492
1839.93519	0.01472
1838.64942	0.01453
1837.36365	0.01444
1836.07788	0.01439
1834.79212	0.01436
1833.50635	0.01438
1832.22058	0.01443
1830.93481	0.01450
1829.64904	0.01458
1828.36327	0.01462
1827.07750	0.01458
1825.79173	0.01451
1824.50597	0.01456
1823.22020	0.01472
1821.93443	0.01484
1820.64866	0.01481
1819.36289	0.01459
1818.07712	0.01429
1816.79135	0.01407
1815.50558	0.01408
1814.21981	0.01432
1812.93405	0.01464
1811.64828	0.01490
1810.36251	0.01504
1809.07674	0.01511
1807.79097	0.01514
1806.50520	0.01514
1805.21943	0.01510
1803.93366	0.01502
1802.64790	0.01492
1801.36213	0.01487
1800.07636	0.01489
1798.79059	0.01497
1797.50482	0.01510
1796.21905	0.01528
1794.93328	0.01546
1793.64751	0.01559
1792.36174	0.01571
1791.07598	0.01583
1789.79021	0.01587
1788.50444	0.01573
1787.21867	0.01549
1785.93290	0.01533
1784.64713	0.01538
1783.36136	0.01558
1782.07559	0.01578
1780.78983	0.01586
1779.50406	0.01590
1778.21829	0.01596
1776.93252	0.01605
1775.64675	0.01614
1774.36098	0.01616
1773.07521	0.01616
1771.78944	0.01628
1770.50367	0.01643
1769.21791	0.01647
1767.93214	0.01640
1766.64637	0.01637
1765.36060	0.01642
1764.07483	0.01647
1762.78906	0.01652
1761.50329	0.01666
1760.21752	0.01683
1758.93176	0.01691
1757.64599	0.01688
1756.36022	0.01686
1755.07445	0.01694
1753.78868	0.01698
1752.50291	0.01690
1751.21714	0.01676
1749.93137	0.01667
1748.64560	0.01663
1747.35984	0.01661
1746.07407	0.01661
1744.78830	0.01666
1743.50253	0.01673
1742.21676	0.01678
1740.93099	0.01680
1739.64522	0.01693
1738.35945	0.01722
1737.07369	0.01751
1735.78792	0.01760
1734.50215	0.01763
1733.21638	0.01777
1731.93061	0.01797
1730.64484	0.01800
1729.35907	0.01787
1728.07330	0.01775
1726.78753	0.01773
1725.50177	0.01776
1724.21600	0.01784
1722.93023	0.01804
1721.64446	0.01838
1720.35869	0.01872
1719.07292	0.01893
1717.78715	0.01909
1716.50138	0.01929
1715.21561	0.01953
1713.92985	0.01977
1712.64408	0.01999
1711.35831	0.02026
1710.07254	0.02055
1708.78677	0.02084
1707.50100	0.02111
1706.21523	0.02149
1704.92946	0.02209
1703.64370	0.02283
1702.35793	0.02339
1701.07216	0.02377
1699.78639	0.02422
1698.50062	0.02465
1697.21485	0.02480
1695.92908	0.02477
1694.64331	0.02494
1693.35754	0.02532
1692.07178	0.02569
1690.78601	0.02605
1689.50024	0.02658
1688.21447	0.02723
1686.92870	0.02774
1685.64293	0.02806
1684.35716	0.02840
1683.07139	0.02889
1681.78563	0.02933
1680.49986	0.02964
1679.21409	0.02996
1677.92832	0.03037
1676.64255	0.03079
1675.35678	0.03127
1674.07101	0.03186
1672.78524	0.03247
1671.49947	0.03291
1670.21371	0.03321
1668.92794	0.03351
1667.64217	0.03389
1666.35640	0.03428
1665.07063	0.03460
1663.78486	0.03489
1662.49909	0.03522
1661.21332	0.03556
1659.92756	0.03588
1658.64179	0.03625
1657.35602	0.03679
1656.07025	0.03736
1654.78448	0.03772
1653.49871	0.03797
1652.21294	0.03833
1650.92717	0.03871
1649.64140	0.03876
1648.35564	0.03846
1647.06987	0.03811
1645.78410	0.03795
1644.49833	0.03792
1643.21256	0.03786
1641.92679	0.03779
1640.64102	0.03781
1639.35525	0.03794
1638.06949	0.03806
1636.78372	0.03805
1635.49795	0.03801
1634.21218	0.03800
1632.92641	0.03794
1631.64064	0.03774
1630.35487	0.03748
1629.06910	0.03726
1627.78333	0.03715
1626.49757	0.03707
1625.21180	0.03693
1623.92603	0.03673
1622.64026	0.03660
1621.35449	0.03659
1620.06872	0.03661
1618.78295	0.03650
1617.49718	0.03631
1616.21142	0.03620
1614.92565	0.03614
1613.63988	0.03600
1612.35411	0.03579
1611.06834	0.03565
1609.78257	0.03568
1608.49680	0.03581
1607.21103	0.03597
1605.92526	0.03611
1604.63950	0.03621
1603.35373	0.03622
1602.06796	0.03616
1600.78219	0.03610
1599.49642	0.03612
1598.21065	0.03624
1596.92488	0.03639
1595.63911	0.03651
1594.35335	0.03659
1593.06758	0.03666
1591.78181	0.03677
1590.49604	0.03693
1589.21027	0.03715
1587.92450	0.03742
1586.63873	0.03774
1585.35296	0.03803
1584.06719	0.03826
1582.78143	0.03846
1581.49566	0.03872
1580.20989	0.03910
1578.92412	0.03949
1577.63835	0.03976
1576.35258	0.04001
1575.06681	0.04036
1573.78104	0.04077
1572.49528	0.04105
1571.20951	0.04123
1569.92374	0.04149
1568.63797	0.04187
1567.35220	0.04224
1566.06643	0.04252
1564.78066	0.04288
1563.49489	0.04344
1562.20912	0.04410
1560.92336	0.04463
1559.63759	0.04504
1558.35182	0.04549
1557.06605	0.04584
1555.78028	0.04591
1554.49451	0.04580
1553.20874	0.04577
1551.92297	0.04588
1550.63721	0.04604
1549.35144	0.04624
1548.06567	0.04650
1546.77990	0.04683
1545.49413	0.04721
1544.20836	0.04762
1542.92259	0.04796
1541.63682	0.04811
1540.35105	0.04807
1539.06529	0.04800
1537.77952	0.04796
1536.49375	0.04782
1535.20798	0.04755
1533.92221	0.04736
1532.63644	0.04742
1531.35067	0.04769
1530.06490	0.04801
1528.77914	0.04837
1527.49337	0.04882
1526.20760	0.04941
1524.92183	0.05008
1523.63606	0.05075
1522.35029	0.05139
1521.06452	0.05212
1519.77875	0.05295
1518.49298	0.05374
1517.20722	0.05449
1515.92145	0.05532
1514.63568	0.05630
1513.34991	0.05737
1512.06414	0.05855
1510.77837	0.05988
1509.49260	0.06125
1508.20683	0.06254
1506.92107	0.06375
1505.63530	0.06495
1504.34953	0.06606
1503.06376	0.06698
1501.77799	0.06777
1500.49222	0.06860
1499.20645	0.06951
1497.92068	0.07036
1496.63491	0.07113
1495.34915	0.07189
1494.06338	0.07264
1492.77761	0.07335
1491.49184	0.07405
1490.20607	0.07483
1488.92030	0.07569
1487.63453	0.07656
1486.34876	0.07749
1485.06299	0.07856
1483.77723	0.07977
1482.49146	0.08107
1481.20569	0.08243
1479.91992	0.08378
1478.63415	0.08510
1477.34838	0.08639
1476.06261	0.08766
1474.77684	0.08887
1473.49108	0.08998
1472.20531	0.09098
1470.91954	0.09184
1469.63377	0.09252
1468.34800	0.09301
1467.06223	0.09339
1465.77646	0.09371
1464.49069	0.09403
1463.20492	0.09439
1461.91916	0.09483
1460.63339	0.09538
1459.34762	0.09598
1458.06185	0.09656
1456.77608	0.09718
1455.49031	0.09783
1454.20454	0.09833
1452.91877	0.09859
1451.63301	0.09874
1450.34724	0.09888
1449.06147	0.09896
1447.77570	0.09889
1446.48993	0.09863
1445.20416	0.09818
1443.91839	0.09762
1442.63262	0.09705
1441.34685	0.09657
1440.06109	0.09618
1438.77532	0.09581
1437.48955	0.09552
1436.20378	0.09546
1434.91801	0.09569
1433.63224	0.09610
1432.34647	0.09666
1431.06070	0.09744
1429.77494	0.09850
1428.48917	0.09983
1427.20340	0.10132
1425.91763	0.10292
1424.63186	0.10460
1423.34609	0.10632
1422.06032	0.10797
1420.77455	0.10942
1419.48878	0.11072
1418.20302	0.11191
1416.91725	0.11289
1415.63148	0.11356
1414.34571	0.11395
1413.05994	0.11415
1411.77417	0.11416
1410.48840	0.11392
1409.20263	0.11342
1407.91687	0.11263
1406.63110	0.11158
1405.34533	0.11031
1404.05956	0.10886
1402.77379	0.10722
1401.48802	0.10536
1400.20225	0.10332
1398.91648	0.10118
1397.63071	0.09898
1396.34495	0.09668
1395.05918	0.09426
1393.77341	0.09178
1392.48764	0.08929
1391.20187	0.08681
1389.91610	0.08436
1388.63033	0.08196
1387.34456	0.07965
1386.05880	0.07742
1384.77303	0.07524
1383.48726	0.07307
1382.20149	0.07095
1380.91572	0.06890
1379.62995	0.06690
1378.34418	0.06490
1377.05841	0.06286
1375.77264	0.06074
1374.48688	0.05857
1373.20111	0.05638
1371.91534	0.05420
1370.62957	0.05208
1369.34380	0.05012
1368.05803	0.04838
1366.77226	0.04685
1365.48649	0.04543
1364.20073	0.04405
1362.91496	0.04268
1361.62919	0.04138
1360.34342	0.04017
1359.05765	0.03903
1357.77188	0.03796
1356.48611	0.03695
1355.20034	0.03603
1353.91457	0.03519
1352.62881	0.03443
1351.34304	0.03374
1350.05727	0.03311
1348.77150	0.03250
1347.48573	0.03191
1346.19996	0.03133
1344.91419	0.03080
1343.62842	0.03030
1342.34266	0.02984
1341.05689	0.02938
1339.77112	0.02893
1338.48535	0.02852
1337.19958	0.02818
1335.91381	0.02788
1334.62804	0.02758
1333.34227	0.02727
1332.05650	0.02694
1330.77074	0.02662
1329.48497	0.02633
1328.19920	0.02605
1326.91343	0.02576
1325.62766	0.02549
1324.34189	0.02523
1323.05612	0.02500
1321.77035	0.02481
1320.48459	0.02463
1319.19882	0.02444
1317.91305	0.02420
1316.62728	0.02390
1315.34151	0.02360
1314.05574	0.02334
1312.76997	0.02319
1311.48420	0.02312
1310.19843	0.02308
1308.91267	0.02301
1307.62690	0.02288
1306.34113	0.02270
1305.05536	0.02248
1303.76959	0.02227
1302.48382	0.02206
1301.19805	0.02188
1299.91228	0.02169
1298.62652	0.02150
1297.34075	0.02132
1296.05498	0.02115
1294.76921	0.02104
1293.48344	0.02097
1292.19767	0.02093
1290.91190	0.02088
1289.62613	0.02079
1288.34036	0.02070
1287.05460	0.02063
1285.76883	0.02058
1284.48306	0.02053
1283.19729	0.02044
1281.91152	0.02034
1280.62575	0.02023
1279.33998	0.02011
1278.05421	0.01998
1276.76845	0.01983
1275.48268	0.01967
1274.19691	0.01951
1272.91114	0.01937
1271.62537	0.01930
1270.33960	0.01926
1269.05383	0.01923
1267.76806	0.01917
1266.48229	0.01907
1265.19653	0.01896
1263.91076	0.01887
1262.62499	0.01881
1261.33922	0.01876
1260.05345	0.01868
1258.76768	0.01857
1257.48191	0.01844
1256.19614	0.01835
1254.91037	0.01834
1253.62461	0.01840
1252.33884	0.01846
1251.05307	0.01850
1249.76730	0.01848
1248.48153	0.01839
1247.19576	0.01826
1245.90999	0.01811
1244.62422	0.01798
1243.33846	0.01789
1242.05269	0.01783
1240.76692	0.01778
1239.48115	0.01770
1238.19538	0.01759
1236.90961	0.01747
1235.62384	0.01737
1234.33807	0.01729
1233.05230	0.01722
1231.76654	0.01716
1230.48077	0.01710
1229.19500	0.01704
1227.90923	0.01698
1226.62346	0.01693
1225.33769	0.01687
1224.05192	0.01681
1222.76615	0.01673
1221.48039	0.01662
1220.19462	0.01649
1218.90885	0.01634
1217.62308	0.01619
1216.33731	0.01606
1215.05154	0.01598
1213.76577	0.01598
1212.48000	0.01605
1211.19423	0.01617
1209.90847	0.01628
1208.62270	0.01636
1207.33693	0.01639
1206.05116	0.01640
1204.76539	0.01640
1203.47962	0.01640
1202.19385	0.01636
1200.90808	0.01626
1199.62232	0.01611
1198.33655	0.01604
1197.05078	0.01599
1195.76501	0.01596
1194.47924	0.01593
1193.19347	0.01593
1191.90770	0.01594
1190.62193	0.01595
1189.33616	0.01594
1188.05040	0.01593
1186.76463	0.01597
1185.47886	0.01607
1184.19309	0.01616
1182.90732	0.01621
1181.62155	0.01623
1180.33578	0.01625
1179.05001	0.01631
1177.76425	0.01644
1176.47848	0.01664
1175.19271	0.01685
1173.90694	0.01704
1172.62117	0.01718
1171.33540	0.01729
1170.04963	0.01741
1168.76386	0.01757
1167.47809	0.01779
1166.19233	0.01808
1164.90656	0.01840
1163.62079	0.01870
1162.33502	0.01897
1161.04925	0.01925
1159.76348	0.01957
1158.47771	0.01995
1157.19194	0.02036
1155.90618	0.02073
1154.62041	0.02107
1153.33464	0.02144
1152.04887	0.02190
1150.76310	0.02247
1149.47733	0.02311
1148.19156	0.02379
1146.90579	0.02452
1145.62002	0.02532
1144.33426	0.02624
1143.04849	0.02726
1141.76272	0.02838
1140.47695	0.02957
1139.19118	0.03080
1137.90541	0.03210
1136.61964	0.03351
1135.33387	0.03508
1134.04811	0.03685
1132.76234	0.03880
1131.47657	0.04095
1130.19080	0.04328
1128.90503	0.04579
1127.61926	0.04848
1126.33349	0.05138
1125.04772	0.05453
1123.76195	0.05794
1122.47619	0.06157
1121.19042	0.06532
1119.90465	0.06916
1118.61888	0.07304
1117.33311	0.07696
1116.04734	0.08087
1114.76157	0.08474
1113.47580	0.08855
1112.19004	0.09238
1110.90427	0.09622
1109.61850	0.10004
1108.33273	0.10374
1107.04696	0.10728
1105.76119	0.11071
1104.47542	0.11407
1103.18965	0.11738
1101.90388	0.12065
1100.61812	0.12389
1099.33235	0.12708
1098.04658	0.13022
1096.76081	0.13328
1095.47504	0.13623
1094.18927	0.13907
1092.90350	0.14177
1091.61773	0.14439
1090.33197	0.14693
1089.04620	0.14941
1087.76043	0.15179
1086.47466	0.15410
1085.18889	0.15641
1083.90312	0.15879
1082.61735	0.16129
1081.33158	0.16393
1080.04581	0.16673
1078.76005	0.16968
1077.47428	0.17275
1076.18851	0.17592
1074.90274	0.17920
1073.61697	0.18266
1072.33120	0.18634
1071.04543	0.19018
1069.75966	0.19411
1068.47390	0.19808
1067.18813	0.20211
1065.90236	0.20623
1064.61659	0.21043
1063.33082	0.21465
1062.04505	0.21888
1060.75928	0.22313
1059.47351	0.22742
1058.18774	0.23173
1056.90198	0.23602
1055.61621	0.24026
1054.33044	0.24445
1053.04467	0.24860
1051.75890	0.25270
1050.47313	0.25681
1049.18736	0.26100
1047.90159	0.26536
1046.61583	0.26996
1045.33006	0.27474
1044.04429	0.27961
1042.75852	0.28446
1041.47275	0.28932
1040.18698	0.29426
1038.90121	0.29936
1037.61544	0.30457
1036.32967	0.30983
1035.04391	0.31502
1033.75814	0.32004
1032.47237	0.32474
1031.18660	0.32908
1029.90083	0.33308
1028.61506	0.33678
1027.32929	0.34015
1026.04352	0.34308
1024.75775	0.34552
1023.47199	0.34751
1022.18622	0.34910
1020.90045	0.35026
1019.61468	0.35089
1018.32891	0.35084
1017.04314	0.35003
1015.75737	0.34848
1014.47160	0.34624
1013.18584	0.34335
1011.90007	0.33980
1010.61430	0.33556
1009.32853	0.33064
1008.04276	0.32500
1006.75699	0.31862
1005.47122	0.31153
1004.18545	0.30386
1002.89968	0.29578
1001.61392	0.28732
1000.32815	0.27845
999.04238	0.26915
997.75661	0.25952
996.47084	0.24966
995.18507	0.23966
993.89930	0.22964
992.61353	0.21976
991.32777	0.21022
990.04200	0.20109
988.75623	0.19231
987.47046	0.18382
986.18469	0.17560
984.89892	0.16776
983.61315	0.16034
982.32738	0.15336
981.04161	0.14684
979.75585	0.14080
978.47008	0.13527
977.18431	0.13029
975.89854	0.12588
974.61277	0.12207
973.32700	0.11884
972.04123	0.11622
970.75546	0.11428
969.46970	0.11315
968.18393	0.11288
966.89816	0.11336
965.61239	0.11439
964.32662	0.11567
963.04085	0.11689
961.75508	0.11770
960.46931	0.11780
959.18354	0.11704
957.89778	0.11542
956.61201	0.11306
955.32624	0.11016
954.04047	0.10696
952.75470	0.10369
951.46893	0.10047
950.18316	0.09731
948.89739	0.09421
947.61163	0.09120
946.32586	0.08832
945.04009	0.08554
943.75432	0.08280
942.46855	0.08009
941.18278	0.07751
939.89701	0.07514
938.61124	0.07299
937.32547	0.07102
936.03971	0.06921
934.75394	0.06755
933.46817	0.06600
932.18240	0.06451
930.89663	0.06305
929.61086	0.06166
928.32509	0.06041
927.03932	0.05931
925.75356	0.05832
924.46779	0.05735
923.18202	0.05642
921.89625	0.05557
920.61048	0.05481
919.32471	0.05410
918.03894	0.05341
916.75317	0.05276
915.46740	0.05217
914.18164	0.05165
912.89587	0.05116
911.61010	0.05061
910.32433	0.04995
909.03856	0.04922
907.75279	0.04855
906.46702	0.04805
905.18125	0.04772
903.89549	0.04747
902.60972	0.04718
901.32395	0.04682
900.03818	0.04646
898.75241	0.04615
897.46664	0.04591
896.18087	0.04567
894.89510	0.04545
893.60933	0.04529
892.32357	0.04529
891.03780	0.04548
889.75203	0.04586
888.46626	0.04643
887.18049	0.04729
885.89472	0.04861
884.60895	0.05063
883.32318	0.05347
882.03742	0.05695
880.75165	0.06055
879.46588	0.06359
878.18011	0.06579
876.89434	0.06742
875.60857	0.06903
874.32280	0.07076
873.03703	0.07220
871.75126	0.07276
870.46550	0.07218
869.17973	0.07061
867.89396	0.06838
866.60819	0.06576
865.32242	0.06295
864.03665	0.06015
862.75088	0.05753
861.46511	0.05521
860.17935	0.05322
858.89358	0.05153
857.60781	0.05008
856.32204	0.04884
855.03627	0.04776
853.75050	0.04681
852.46473	0.04598
851.17896	0.04524
849.89319	0.04458
848.60743	0.04399
847.32166	0.04345
846.03589	0.04297
844.75012	0.04252
843.46435	0.04211
842.17858	0.04174
840.89281	0.04138
839.60704	0.04106
838.32128	0.04076
837.03551	0.04048
835.74974	0.04019
834.46397	0.03991
833.17820	0.03966
831.89243	0.03944
830.60666	0.03926
829.32089	0.03911
828.03512	0.03896
826.74936	0.03878
825.46359	0.03858
824.17782	0.03838
822.89205	0.03822
821.60628	0.03812
820.32051	0.03808
819.03474	0.03813
817.74897	0.03822
816.46321	0.03827
815.17744	0.03822
813.89167	0.03805
812.60590	0.03785
811.32013	0.03768
810.03436	0.03756
808.74859	0.03747
807.46282	0.03739
806.17705	0.03732
804.89129	0.03729
803.60552	0.03732
802.31975	0.03736
801.03398	0.03734
799.74821	0.03726
798.46244	0.03713
797.17667	0.03698
795.89090	0.03684
794.60513	0.03674
793.31937	0.03672
792.03360	0.03677
790.74783	0.03678
789.46206	0.03670
788.17629	0.03656
786.89052	0.03648
785.60475	0.03649
784.31898	0.03652
783.03322	0.03648
781.74745	0.03635
780.46168	0.03616
779.17591	0.03595
777.89014	0.03576
776.60437	0.03565
775.31860	0.03569
774.03283	0.03585
772.74706	0.03608
771.46130	0.03629
770.17553	0.03641
768.88976	0.03646
767.60399	0.03646
766.31822	0.03645
765.03245	0.03645
763.74668	0.03648
762.46091	0.03654
761.17515	0.03662
759.88938	0.03667
758.60361	0.03667
757.31784	0.03663
756.03207	0.03658
754.74630	0.03652
753.46053	0.03645
752.17476	0.03637
750.88899	0.03633
749.60323	0.03636
748.31746	0.03643
747.03169	0.03647
745.74592	0.03644
744.46015	0.03635
743.17438	0.03622
741.88861	0.03603
740.60284	0.03584
739.31708	0.03573
738.03131	0.03571
736.74554	0.03571
735.45977	0.03567
734.17400	0.03561
732.88823	0.03558
731.60246	0.03566
730.31669	0.03583
729.03092	0.03604
727.74516	0.03623
726.45939	0.03634
725.17362	0.03632
723.88785	0.03605
722.60208	0.03592
721.31631	0.03604
720.03054	0.03624
718.74477	0.03639
717.45901	0.03653
716.17324	0.03660
714.88747	0.03651
713.60170	0.03633
712.31593	0.03612
711.03016	0.03596
709.74439	0.03583
708.45862	0.03572
707.17285	0.03561
705.88709	0.03552
704.60132	0.03548
703.31555	0.03549
702.02978	0.03552
700.74401	0.03553
699.45824	0.03549
698.17247	0.03541
696.88670	0.03534
695.60094	0.03531
694.31517	0.03535
693.02940	0.03541
691.74363	0.03544
690.45786	0.03542
689.17209	0.03534
687.88632	0.03524
686.60055	0.03514
685.31478	0.03502
684.02902	0.03488
682.74325	0.03471
681.45748	0.03454
680.17171	0.03440
678.88594	0.03431
677.60017	0.03428
676.31440	0.03427
675.02863	0.03426
673.74287	0.03426
672.45710	0.03426
671.17133	0.03450
669.88556	0.03542
668.59979	0.03669
667.31402	0.03632
666.02825	0.03504
664.74248	0.03458
663.45671	0.03454
662.17095	0.03445
660.88518	0.03431
659.59941	0.03419
658.31364	0.03412
657.02787	0.03408
655.74210	0.03407
654.45633	0.03405
653.17056	0.03405
651.88480	0.03408
650.59903	0.03416
649.31326	0.03429
648.02749	0.03444
646.74172	0.03458
645.45595	0.03474
644.17018	0.03491
642.88441	0.03512
641.59864	0.03540
640.31288	0.03575
639.02711	0.03614
637.74134	0.03655
636.45557	0.03699
635.16980	0.03746
633.88403	0.03800
632.59826	0.03863
631.31249	0.03944
630.02673	0.04053
628.74096	0.04162
627.45519	0.04236
626.16942	0.04428
624.88365	0.04694
623.59788	0.04966
622.31211	0.05239
621.02634	0.05521
619.74057	0.05790
618.45481	0.06035
617.16904	0.06292
615.88327	0.06602
614.59750	0.06970
613.31173	0.07404
612.02596	0.07939
610.74019	0.08596
609.45442	0.09317
608.16866	0.10017
606.88289	0.10665
605.59712	0.11262
604.31135	0.11774
603.02558	0.12147
601.73981	0.12339
600.45404	0.12328
599.16827	0.12116
597.88250	0.11753
596.59674	0.11325
595.31097	0.10925
594.02520	0.10601
592.73943	0.10355
591.45366	0.10167
590.16789	0.10030
588.88212	0.09954
587.59635	0.09956
586.31059	0.10040
585.02482	0.10197
583.73905	0.10419
582.45328	0.10701
581.16751	0.11031
579.88174	0.11391
578.59597	0.11764
577.31020	0.12142
576.02443	0.12517
574.73867	0.12880
573.45290	0.13222
572.16713	0.13553
570.88136	0.13910
569.59559	0.14329
568.30982	0.14821
567.02405	0.15363
565.73828	0.15910
564.45251	0.16404
563.16675	0.16780
561.88098	0.16979
560.59521	0.16960
559.30944	0.16712
558.02367	0.16245
556.73790	0.15591
555.45213	0.14800
554.16636	0.13939
552.88060	0.13076
551.59483	0.12257
550.30906	0.11499
549.02329	0.10802
547.73752	0.10172
546.45175	0.09611
545.16598	0.09110
543.88021	0.08655
542.59444	0.08235
541.30868	0.07855
540.02291	0.07519
538.73714	0.07223
537.45137	0.06956
536.16560	0.06709
534.87983	0.06476
533.59406	0.06251
532.30829	0.06032
531.02253	0.05828
529.73676	0.05651
528.45099	0.05504
527.16522	0.05375
525.87945	0.05246
524.59368	0.05106
523.30791	0.04961
522.02214	0.04822
520.73637	0.04695
519.45061	0.04583
518.16484	0.04484
516.87907	0.04392
515.59330	0.04306
514.30753	0.04225
513.02176	0.04149
511.73599	0.04080
510.45022	0.04016
509.16446	0.03952
507.87869	0.03891
506.59292	0.03834
505.30715	0.03779
504.02138	0.03723
502.73561	0.03663
501.44984	0.03600
500.16407	0.03540
498.87830	0.03487
497.59254	0.03447
496.30677	0.03421
495.02100	0.03402
493.73523	0.03381
492.44946	0.03357
491.16369	0.03335
489.87792	0.03314
488.59215	0.03292
487.30639	0.03265
486.02062	0.03237
484.73485	0.03214
483.44908	0.03203
482.16331	0.03209
480.87754	0.03230
479.59177	0.03261
478.30600	0.03296
477.02023	0.03330
475.73447	0.03361
474.44870	0.03387
473.16293	0.03409
471.87716	0.03426
470.59139	0.03433
469.30562	0.03428
468.01985	0.03412
466.73408	0.03387
465.44832	0.03357
464.16255	0.03326
462.87678	0.03295
461.59101	0.03264
460.30524	0.03234
459.01947	0.03203
457.73370	0.03174
456.44793	0.03149
455.16216	0.03122
453.87640	0.03093
452.59063	0.03061
451.30486	0.03029
450.01909	0.02998
448.73332	0.02970
447.44755	0.02944
446.16178	0.02921
444.87601	0.02901
443.59025	0.02887
442.30448	0.02881
441.01871	0.02877
439.73294	0.02870
438.44717	0.02858
437.16140	0.02845
435.87563	0.02833
434.58986	0.02823
433.30409	0.02814
432.01833	0.02809
430.73256	0.02808
429.44679	0.02811
428.16102	0.02812
426.87525	0.02806
425.58948	0.02797
424.30371	0.02788
423.01794	0.02780
421.73218	0.02769
420.44641	0.02752
419.16064	0.02734
417.87487	0.02722
416.58910	0.02716
415.30333	0.02712
414.01756	0.02710
412.73179	0.02709
411.44602	0.02711
410.16026	0.02715
408.87449	0.02722
407.58872	0.02732
406.30295	0.02745
405.01718	0.02758
403.73141	0.02770
402.44564	0.02780
401.15987	0.02791
399.87411	0.02804
