3997.45528	0.04282
3996.16951	0.04183
3994.88374	0.04082
3993.59798	0.04016
3992.31221	0.04010
3991.02644	0.04024
3989.74067	0.03993
3988.45490	0.03903
3987.16913	0.03808
3985.88336	0.03773
3984.59759	0.03818
3983.31183	0.03915
3982.02606	0.04014
3980.74029	0.04076
3979.45452	0.04078
3978.16875	0.04018
3976.88298	0.03919
3975.59721	0.03831
3974.31144	0.03806
3973.02567	0.03863
3971.73991	0.03977
3970.45414	0.04096
3969.16837	0.04176
3967.88260	0.04200
3966.59683	0.04171
3965.31106	0.04104
3964.02529	0.04027
3962.73952	0.03976
3961.45376	0.03969
3960.16799	0.03992
3958.88222	0.04017
3957.59645	0.04035
3956.31068	0.04058
3955.02491	0.04095
3953.73914	0.04134
3952.45337	0.04142
3951.16760	0.04096
3949.88184	0.04011
3948.59607	0.03936
3947.31030	0.03907
3946.02453	0.03914
3944.73876	0.03925
3943.45299	0.03929
3942.16722	0.03940
3940.88145	0.03969
3939.59569	0.04015
3938.30992	0.04071
3937.02415	0.04124
3935.73838	0.04159
3934.45261	0.04162
3933.16684	0.04143
3931.88107	0.04114
3930.59530	0.04080
3929.30953	0.04030
3928.02377	0.03970
3926.73800	0.03927
3925.45223	0.03931
3924.16646	0.03983
3922.88069	0.04040
3921.59492	0.04049
3920.30915	0.03993
3919.02338	0.03909
3917.73762	0.03852
3916.45185	0.03862
3915.16608	0.03920
3913.88031	0.03976
3912.59454	0.03997
3911.30877	0.03983
3910.02300	0.03949
3908.73723	0.03909
3907.45146	0.03881
3906.16570	0.03873
3904.87993	0.03878
3903.59416	0.03878
3902.30839	0.03861
3901.02262	0.03839
3899.73685	0.03842
3898.45108	0.03887
3897.16531	0.03950
3895.87955	0.03986
3894.59378	0.03967
3893.30801	0.03910
3892.02224	0.03866
3890.73647	0.03880
3889.45070	0.03927
3888.16493	0.03924
3886.87916	0.03845
3885.59339	0.03759
3884.30763	0.03731
3883.02186	0.03741
3881.73609	0.03733
3880.45032	0.03704
3879.16455	0.03694
3877.87878	0.03724
3876.59301	0.03784
3875.30724	0.03869
3874.02148	0.03979
3872.73571	0.04067
3871.44994	0.04073
3870.16417	0.04011
3868.87840	0.03949
3867.59263	0.03916
3866.30686	0.03897
3865.02109	0.03881
3863.73532	0.03864
3862.44956	0.03834
3861.16379	0.03803
3859.87802	0.03822
3858.59225	0.03922
3857.30648	0.04050
3856.02071	0.04095
3854.73494	0.04004
3853.44917	0.03866
3852.16341	0.03804
3850.87764	0.03847
3849.59187	0.03939
3848.30610	0.04017
3847.02033	0.04045
3845.73456	0.04025
3844.44879	0.03999
3843.16302	0.04013
3841.87725	0.04062
3840.59149	0.04077
3839.30572	0.04009
3838.01995	0.03897
3836.73418	0.03824
3835.44841	0.03818
3834.16264	0.03840
3832.87687	0.03849
3831.59110	0.03831
3830.30534	0.03793
3829.01957	0.03750
3827.73380	0.03728
3826.44803	0.03758
3825.16226	0.03840
3823.87649	0.03919
3822.59072	0.03944
3821.30495	0.03934
3820.01918	0.03934
3818.73342	0.03926
3817.44765	0.03863
3816.16188	0.03759
3814.87611	0.03666
3813.59034	0.03612
3812.30457	0.03620
3811.01880	0.03699
3809.73303	0.03794
3808.44726	0.03820
3807.16150	0.03793
3805.87573	0.03812
3804.58996	0.03909
3803.30419	0.04007
3802.01842	0.04040
3800.73265	0.04015
3799.44688	0.03952
3798.16111	0.03855
3796.87535	0.03750
3795.58958	0.03681
3794.30381	0.03655
3793.01804	0.03649
3791.73227	0.03640
3790.44650	0.03625
3789.16073	0.03610
3787.87496	0.03598
3786.58919	0.03585
3785.30343	0.03569
3784.01766	0.03559
3782.73189	0.03562
3781.44612	0.03566
3780.16035	0.03562
3778.87458	0.03551
3777.58881	0.03535
3776.30304	0.03520
3775.01728	0.03525
3773.73151	0.03560
3772.44574	0.03605
3771.15997	0.03632
3769.87420	0.03640
3768.58843	0.03634
3767.30266	0.03610
3766.01689	0.03576
3764.73112	0.03559
3763.44536	0.03565
3762.15959	0.03563
3760.87382	0.03532
3759.58805	0.03493
3758.30228	0.03480
3757.01651	0.03514
3755.73074	0.03571
3754.44497	0.03602
3753.15921	0.03590
3751.87344	0.03564
3750.58767	0.03564
3749.30190	0.03634
3748.01613	0.03769
3746.73036	0.03873
3745.44459	0.03859
3744.15882	0.03766
3742.87305	0.03674
3741.58729	0.03621
3740.30152	0.03623
3739.01575	0.03682
3737.72998	0.03763
3736.44421	0.03817
3735.15844	0.03821
3733.87267	0.03774
3732.58690	0.03711
3731.30114	0.03673
3730.01537	0.03648
3728.72960	0.03594
3727.44383	0.03514
3726.15806	0.03460
3724.87229	0.03458
3723.58652	0.03487
3722.30075	0.03510
3721.01498	0.03488
3719.72922	0.03416
3718.44345	0.03346
3717.15768	0.03352
3715.87191	0.03450
3714.58614	0.03567
3713.30037	0.03626
3712.01460	0.03617
3710.72883	0.03579
3709.44307	0.03546
3708.15730	0.03540
3706.87153	0.03579
3705.58576	0.03655
3704.29999	0.03726
3703.01422	0.03740
3701.72845	0.03679
3700.44268	0.03575
3699.15691	0.03477
3697.87115	0.03422
3696.58538	0.03420
3695.29961	0.03458
3694.01384	0.03513
3692.72807	0.03575
3691.44230	0.03624
3690.15653	0.03639
3688.87076	0.03630
3687.58500	0.03634
3686.29923	0.03651
3685.01346	0.03652
3683.72769	0.03634
3682.44192	0.03629
3681.15615	0.03663
3679.87038	0.03726
3678.58461	0.03755
3677.29884	0.03697
3676.01308	0.03606
3674.72731	0.03586
3673.44154	0.03636
3672.15577	0.03660
3670.87000	0.03626
3669.58423	0.03601
3668.29846	0.03632
3667.01269	0.03698
3665.72693	0.03750
3664.44116	0.03753
3663.15539	0.03707
3661.86962	0.03656
3660.58385	0.03647
3659.29808	0.03679
3658.01231	0.03708
3656.72654	0.03719
3655.44077	0.03749
3654.15501	0.03814
3652.86924	0.03869
3651.58347	0.03859
3650.29770	0.03780
3649.01193	0.03683
3647.72616	0.03629
3646.44039	0.03652
3645.15462	0.03733
3643.86886	0.03826
3642.58309	0.03889
3641.29732	0.03911
3640.01155	0.03909
3638.72578	0.03917
3637.44001	0.03960
3636.15424	0.04035
3634.86847	0.04120
3633.58270	0.04194
3632.29694	0.04228
3631.01117	0.04196
3629.72540	0.04120
3628.43963	0.04064
3627.15386	0.04063
3625.86809	0.04104
3624.58232	0.04181
3623.29655	0.04286
3622.01079	0.04380
3620.72502	0.04414
3619.43925	0.04388
3618.15348	0.04345
3616.86771	0.04319
3615.58194	0.04311
3614.29617	0.04307
3613.01040	0.04298
3611.72463	0.04278
3610.43887	0.04249
3609.15310	0.04229
3607.86733	0.04240
3606.58156	0.04286
3605.29579	0.04347
3604.01002	0.04398
3602.72425	0.04424
3601.43848	0.04448
3600.15272	0.04505
3598.86695	0.04593
3597.58118	0.04656
3596.29541	0.04655
3595.00964	0.04611
3593.72387	0.04597
3592.43810	0.04664
3591.15233	0.04794
3589.86656	0.04927
3588.58080	0.05013
3587.29503	0.05030
3586.00926	0.04985
3584.72349	0.04914
3583.43772	0.04857
3582.15195	0.04838
3580.86618	0.04848
3579.58041	0.04861
3578.29464	0.04865
3577.00888	0.04875
3575.72311	0.04916
3574.43734	0.04992
3573.15157	0.05093
3571.86580	0.05194
3570.58003	0.05265
3569.29426	0.05281
3568.00849	0.05240
3566.72273	0.05176
3565.43696	0.05133
3564.15119	0.05133
3562.86542	0.05168
3561.57965	0.05204
3560.29388	0.05219
3559.00811	0.05216
3557.72234	0.05220
3556.43657	0.05253
3555.15081	0.05312
3553.86504	0.05382
3552.57927	0.05449
3551.29350	0.05508
3550.00773	0.05556
3548.72196	0.05591
3547.43619	0.05622
3546.15042	0.05657
3544.86466	0.05689
3543.57889	0.05707
3542.29312	0.05708
3541.00735	0.05702
3539.72158	0.05703
3538.43581	0.05710
3537.15004	0.05717
3535.86427	0.05717
3534.57850	0.05716
3533.29274	0.05722
3532.00697	0.05743
3530.72120	0.05776
3529.43543	0.05814
3528.14966	0.05849
3526.86389	0.05876
3525.57812	0.05895
3524.29235	0.05913
3523.00659	0.05950
3521.72082	0.06018
3520.43505	0.06111
3519.14928	0.06205
3517.86351	0.06276
3516.57774	0.06306
3515.29197	0.06296
3514.00620	0.06269
3512.72043	0.06258
3511.43467	0.06279
3510.14890	0.06316
3508.86313	0.06350
3507.57736	0.06370
3506.29159	0.06384
3505.00582	0.06399
3503.72005	0.06420
3502.43428	0.06446
3501.14852	0.06470
3499.86275	0.06476
3498.57698	0.06452
3497.29121	0.06411
3496.00544	0.06383
3494.71967	0.06398
3493.43390	0.06462
3492.14813	0.06549
3490.86236	0.06624
3489.57660	0.06665
3488.29083	0.06677
3487.00506	0.06689
3485.71929	0.06721
3484.43352	0.06763
3483.14775	0.06788
3481.86198	0.06773
3480.57621	0.06728
3479.29045	0.06695
3478.00468	0.06710
3476.71891	0.06768
3475.43314	0.06829
3474.14737	0.06869
3472.86160	0.06897
3471.57583	0.06926
3470.29006	0.06945
3469.00429	0.06936
3467.71853	0.06902
3466.43276	0.06865
3465.14699	0.06841
3463.86122	0.06836
3462.57545	0.06852
3461.28968	0.06889
3460.00391	0.06944
3458.71814	0.07002
3457.43238	0.07048
3456.14661	0.07080
3454.86084	0.07114
3453.57507	0.07166
3452.28930	0.07226
3451.00353	0.07265
3449.71776	0.07262
3448.43199	0.07221
3447.14622	0.07173
3445.86046	0.07152
3444.57469	0.07168
3443.28892	0.07206
3442.00315	0.07232
3440.71738	0.07219
3439.43161	0.07171
3438.14584	0.07116
3436.86007	0.07094
3435.57431	0.07123
3434.28854	0.07186
3433.00277	0.07251
3431.71700	0.07303
3430.43123	0.07348
3429.14546	0.07384
3427.85969	0.07387
3426.57392	0.07342
3425.28815	0.07276
3424.00239	0.07244
3422.71662	0.07274
3421.43085	0.07343
3420.14508	0.07413
3418.85931	0.07465
3417.57354	0.07492
3416.28777	0.07492
3415.00200	0.07471
3413.71624	0.07444
3412.43047	0.07427
3411.14470	0.07424
3409.85893	0.07438
3408.57316	0.07470
3407.28739	0.07510
3406.00162	0.07539
3404.71585	0.07548
3403.43008	0.07553
3402.14432	0.07570
3400.85855	0.07604
3399.57278	0.07655
3398.28701	0.07698
3397.00124	0.07712
3395.71547	0.07709
3394.42970	0.07707
3393.14393	0.07714
3391.85817	0.07720
3390.57240	0.07720
3389.28663	0.07721
3388.00086	0.07740
3386.71509	0.07772
3385.42932	0.07797
3384.14355	0.07800
3382.85778	0.07795
3381.57201	0.07803
3380.28625	0.07825
3379.00048	0.07833
3377.71471	0.07802
3376.42894	0.07739
3375.14317	0.07674
3373.85740	0.07638
3372.57163	0.07638
3371.28586	0.07662
3370.00010	0.07695
3368.71433	0.07727
3367.42856	0.07758
3366.14279	0.07790
3364.85702	0.07823
3363.57125	0.07851
3362.28548	0.07866
3360.99971	0.07864
3359.71394	0.07847
3358.42818	0.07819
3357.14241	0.07789
3355.85664	0.07765
3354.57087	0.07750
3353.28510	0.07739
3351.99933	0.07738
3350.71356	0.07764
3349.42779	0.07823
3348.14202	0.07897
3346.85626	0.07954
3345.57049	0.07976
3344.28472	0.07966
3342.99895	0.07934
3341.71318	0.07898
3340.42741	0.07871
3339.14164	0.07859
3337.85587	0.07853
3336.57011	0.07847
3335.28434	0.07839
3333.99857	0.07832
3332.71280	0.07825
3331.42703	0.07817
3330.14126	0.07809
3328.85549	0.07809
3327.56972	0.07821
3326.28395	0.07843
3324.99819	0.07863
3323.71242	0.07868
3322.42665	0.07853
3321.14088	0.07826
3319.85511	0.07809
3318.56934	0.07818
3317.28357	0.07853
3315.99780	0.07896
3314.71204	0.07923
3313.42627	0.07916
3312.14050	0.07880
3310.85473	0.07830
3309.56896	0.07787
3308.28319	0.07761
3306.99742	0.07751
3305.71165	0.07750
3304.42588	0.07759
3303.14012	0.07775
3301.85435	0.07787
3300.56858	0.07785
3299.28281	0.07774
3297.99704	0.07771
3296.71127	0.07777
3295.42550	0.07775
3294.13973	0.07747
3292.85397	0.07705
3291.56820	0.07676
3290.28243	0.07672
3288.99666	0.07677
3287.71089	0.07673
3286.42512	0.07654
3285.13935	0.07626
3283.85358	0.07606
3282.56781	0.07609
3281.28205	0.07638
3279.99628	0.07681
3278.71051	0.07722
3277.42474	0.07750
3276.13897	0.07757
3274.85320	0.07736
3273.56743	0.07687
3272.28166	0.07632
3270.99590	0.07603
3269.71013	0.07617
3268.42436	0.07658
3267.13859	0.07686
3265.85282	0.07673
3264.56705	0.07628
3263.28128	0.07588
3261.99551	0.07583
3260.70974	0.07611
3259.42398	0.07644
3258.13821	0.07651
3256.85244	0.07620
3255.56667	0.07569
3254.28090	0.07530
3252.99513	0.07525
3251.70936	0.07546
3250.42359	0.07568
3249.13783	0.07572
3247.85206	0.07558
3246.56629	0.07537
3245.28052	0.07517
3243.99475	0.07498
3242.70898	0.07480
3241.42321	0.07477
3240.13744	0.07502
3238.85167	0.07549
3237.56591	0.07597
3236.28014	0.07625
3234.99437	0.07620
3233.70860	0.07579
3232.42283	0.07507
3231.13706	0.07429
3229.85129	0.07371
3228.56552	0.07343
3227.27976	0.07336
3225.99399	0.07341
3224.70822	0.07355
3223.42245	0.07375
3222.13668	0.07390
3220.85091	0.07391
3219.56514	0.07377
3218.27937	0.07353
3216.99360	0.07326
3215.70784	0.07305
3214.42207	0.07301
3213.13630	0.07313
3211.85053	0.07323
3210.56476	0.07311
3209.27899	0.07283
3207.99322	0.07263
3206.70745	0.07277
3205.42169	0.07320
3204.13592	0.07360
3202.85015	0.07364
3201.56438	0.07322
3200.27861	0.07256
3198.99284	0.07198
3197.70707	0.07166
3196.42130	0.07158
3195.13553	0.07170
3193.84977	0.07204
3192.56400	0.07253
3191.27823	0.07292
3189.99246	0.07295
3188.70669	0.07268
3187.42092	0.07237
3186.13515	0.07222
3184.84938	0.07216
3183.56362	0.07195
3182.27785	0.07148
3180.99208	0.07083
3179.70631	0.07027
3178.42054	0.07000
3177.13477	0.07006
3175.84900	0.07026
3174.56323	0.07040
3173.27746	0.07039
3171.99170	0.07027
3170.70593	0.07006
3169.42016	0.06974
3168.13439	0.06934
3166.84862	0.06893
3165.56285	0.06860
3164.27708	0.06847
3162.99131	0.06855
3161.70555	0.06870
3160.41978	0.06871
3159.13401	0.06843
3157.84824	0.06789
3156.56247	0.06730
3155.27670	0.06690
3153.99093	0.06686
3152.70516	0.06712
3151.41939	0.06746
3150.13363	0.06767
3148.84786	0.06768
3147.56209	0.06758
3146.27632	0.06748
3144.99055	0.06742
3143.70478	0.06737
3142.41901	0.06734
3141.13324	0.06733
3139.84748	0.06735
3138.56171	0.06736
3137.27594	0.06730
3135.99017	0.06716
3134.70440	0.06695
3133.41863	0.06670
3132.13286	0.06649
3130.84709	0.06638
3129.56132	0.06636
3128.27556	0.06631
3126.98979	0.06612
3125.70402	0.06584
3124.41825	0.06559
3123.13248	0.06547
3121.84671	0.06544
3120.56094	0.06547
3119.27517	0.06553
3117.98940	0.06561
3116.70364	0.06569
3115.41787	0.06578
3114.13210	0.06590
3112.84633	0.06602
3111.56056	0.06598
3110.27479	0.06572
3108.98902	0.06537
3107.70325	0.06517
3106.41749	0.06520
3105.13172	0.06529
3103.84595	0.06520
3102.56018	0.06484
3101.27441	0.06432
3099.98864	0.06380
3098.70287	0.06336
3097.41710	0.06301
3096.13133	0.06281
3094.84557	0.06277
3093.55980	0.06285
3092.27403	0.06294
3090.98826	0.06298
3089.70249	0.06302
3088.41672	0.06306
3087.13095	0.06302
3085.84518	0.06280
3084.55942	0.06242
3083.27365	0.06206
3081.98788	0.06193
3080.70211	0.06203
3079.41634	0.06217
3078.13057	0.06212
3076.84480	0.06178
3075.55903	0.06133
3074.27326	0.06102
3072.98750	0.06103
3071.70173	0.06127
3070.41596	0.06149
3069.13019	0.06150
3067.84442	0.06133
3066.55865	0.06113
3065.27288	0.06102
3063.98711	0.06101
3062.70135	0.06103
3061.41558	0.06100
3060.12981	0.06083
3058.84404	0.06050
3057.55827	0.06008
3056.27250	0.05974
3054.98673	0.05967
3053.70096	0.05982
3052.41519	0.06003
3051.12943	0.06010
3049.84366	0.06000
3048.55789	0.05978
3047.27212	0.05953
3045.98635	0.05933
3044.70058	0.05925
3043.41481	0.05933
3042.12904	0.05953
3040.84328	0.05971
3039.55751	0.05970
3038.27174	0.05938
3036.98597	0.05882
3035.70020	0.05828
3034.41443	0.05802
3033.12866	0.05809
3031.84289	0.05825
3030.55712	0.05826
3029.27136	0.05810
3027.98559	0.05798
3026.69982	0.05802
3025.41405	0.05809
3024.12828	0.05795
3022.84251	0.05754
3021.55674	0.05703
3020.27097	0.05666
3018.98521	0.05657
3017.69944	0.05671
3016.41367	0.05688
3015.12790	0.05692
3013.84213	0.05681
3012.55636	0.05663
3011.27059	0.05642
3009.98482	0.05622
3008.69905	0.05602
3007.41329	0.05584
3006.12752	0.05569
3004.84175	0.05562
3003.55598	0.05566
3002.27021	0.05583
3000.98444	0.05606
2999.69867	0.05633
2998.41290	0.05636
2997.12714	0.05624
2995.84137	0.05606
2994.55560	0.05587
2993.26983	0.05570
2991.98406	0.05557
2990.69829	0.05543
2989.41252	0.05525
2988.12675	0.05504
2986.84098	0.05490
2985.55522	0.05500
2984.26945	0.05535
2982.98368	0.05579
2981.69791	0.05607
2980.41214	0.05611
2979.12637	0.05606
2977.84060	0.05611
2976.55483	0.05635
2975.26907	0.05676
2973.98330	0.05734
2972.69753	0.05809
2971.41176	0.05892
2970.12599	0.05974
2968.84022	0.06054
2967.55445	0.06135
2966.26868	0.06217
2964.98291	0.06294
2963.69715	0.06362
2962.41138	0.06416
2961.12561	0.06455
2959.83984	0.06470
2958.55407	0.06457
2957.26830	0.06428
2955.98253	0.06406
2954.69676	0.06405
2953.41100	0.06415
2952.12523	0.06414
2950.83946	0.06387
2949.55369	0.06336
2948.26792	0.06270
2946.98215	0.06204
2945.69638	0.06157
2944.41061	0.06144
2943.12484	0.06161
2941.83908	0.06186
2940.55331	0.06198
2939.26754	0.06189
2937.98177	0.06180
2936.69600	0.06193
2935.41023	0.06232
2934.12446	0.06273
2932.83869	0.06297
2931.55293	0.06306
2930.26716	0.06317
2928.98139	0.06336
2927.69562	0.06354
2926.40985	0.06355
2925.12408	0.06333
2923.83831	0.06294
2922.55254	0.06250
2921.26677	0.06209
2919.98101	0.06175
2918.69524	0.06152
2917.40947	0.06138
2916.12370	0.06119
2914.83793	0.06090
2913.55216	0.06064
2912.26639	0.06052
2910.98062	0.06054
2909.69486	0.06052
2908.40909	0.06033
2907.12332	0.05996
2905.83755	0.05948
2904.55178	0.05894
2903.26601	0.05834
2901.98024	0.05781
2900.69447	0.05751
2899.40870	0.05744
2898.12294	0.05739
2896.83717	0.05714
2895.55140	0.05658
2894.26563	0.05581
2892.97986	0.05509
2891.69409	0.05459
2890.40832	0.05432
2889.12255	0.05415
2887.83678	0.05397
2886.55102	0.05377
2885.26525	0.05353
2883.97948	0.05321
2882.69371	0.05288
2881.40794	0.05272
2880.12217	0.05279
2878.83640	0.05298
2877.55063	0.05313
2876.26487	0.05320
2874.97910	0.05326
2873.69333	0.05334
2872.40756	0.05342
2871.12179	0.05348
2869.83602	0.05352
2868.55025	0.05356
2867.26448	0.05359
2865.97871	0.05358
2864.69295	0.05344
2863.40718	0.05319
2862.12141	0.05288
2860.83564	0.05263
2859.54987	0.05249
2858.26410	0.05246
2856.97833	0.05245
2855.69256	0.05232
2854.40680	0.05203
2853.12103	0.05172
2851.83526	0.05161
2850.54949	0.05170
2849.26372	0.05175
2847.97795	0.05159
2846.69218	0.05127
2845.40641	0.05088
2844.12064	0.05042
2842.83488	0.04983
2841.54911	0.04917
2840.26334	0.04860
2838.97757	0.04817
2837.69180	0.04783
2836.40603	0.04744
2835.12026	0.04694
2833.83449	0.04631
2832.54873	0.04569
2831.26296	0.04526
2829.97719	0.04508
2828.69142	0.04505
2827.40565	0.04498
2826.11988	0.04478
2824.83411	0.04447
2823.54834	0.04417
2822.26257	0.04395
2820.97681	0.04381
2819.69104	0.04370
2818.40527	0.04359
2817.11950	0.04350
2815.83373	0.04339
2814.54796	0.04327
2813.26219	0.04322
2811.97642	0.04332
2810.69066	0.04351
2809.40489	0.04364
2808.11912	0.04359
2806.83335	0.04338
2805.54758	0.04309
2804.26181	0.04275
2802.97604	0.04238
2801.69027	0.04206
2800.40450	0.04186
2799.11874	0.04176
2797.83297	0.04165
2796.54720	0.04148
2795.26143	0.04128
2793.97566	0.04115
2792.68989	0.04114
2791.40412	0.04118
2790.11835	0.04112
2788.83259	0.04086
2787.54682	0.04052
2786.26105	0.04031
2784.97528	0.04032
2783.68951	0.04046
2782.40374	0.04056
2781.11797	0.04054
2779.83220	0.04045
2778.54643	0.04038
2777.26067	0.04032
2775.97490	0.04017
2774.68913	0.03996
2773.40336	0.03985
2772.11759	0.03994
2770.83182	0.04012
2769.54605	0.04023
2768.26028	0.04019
2766.97452	0.04008
2765.68875	0.03996
2764.40298	0.03982
2763.11721	0.03958
2761.83144	0.03927
2760.54567	0.03901
2759.25990	0.03895
2757.97413	0.03910
2756.68836	0.03932
2755.40260	0.03946
2754.11683	0.03945
2752.83106	0.03931
2751.54529	0.03907
2750.25952	0.03874
2748.97375	0.03844
2747.68798	0.03826
2746.40221	0.03826
2745.11645	0.03834
2743.83068	0.03841
2742.54491	0.03839
2741.25914	0.03831
2739.97337	0.03826
2738.68760	0.03825
2737.40183	0.03819
2736.11606	0.03799
2734.83029	0.03774
2733.54453	0.03763
2732.25876	0.03775
2730.97299	0.03796
2729.68722	0.03805
2728.40145	0.03792
2727.11568	0.03765
2725.82991	0.03737
2724.54414	0.03721
2723.25838	0.03723
2721.97261	0.03731
2720.68684	0.03731
2719.40107	0.03720
2718.11530	0.03708
2716.82953	0.03702
2715.54376	0.03701
2714.25799	0.03694
2712.97222	0.03677
2711.68646	0.03659
2710.40069	0.03652
2709.11492	0.03652
2707.82915	0.03647
2706.54338	0.03631
2705.25761	0.03610
2703.97184	0.03600
2702.68607	0.03603
2701.40031	0.03609
2700.11454	0.03606
2698.82877	0.03592
2697.54300	0.03576
2696.25723	0.03571
2694.97146	0.03578
2693.68569	0.03591
2692.39992	0.03595
2691.11415	0.03581
2689.82839	0.03548
2688.54262	0.03511
2687.25685	0.03496
2685.97108	0.03514
2684.68531	0.03547
2683.39954	0.03563
2682.11377	0.03544
2680.82800	0.03501
2679.54224	0.03459
2678.25647	0.03433
2676.97070	0.03421
2675.68493	0.03412
2674.39916	0.03407
2673.11339	0.03415
2671.82762	0.03441
2670.54185	0.03475
2669.25608	0.03504
2667.97032	0.03518
2666.68455	0.03517
2665.39878	0.03505
2664.11301	0.03488
2662.82724	0.03475
2661.54147	0.03473
2660.25570	0.03479
2658.96993	0.03479
2657.68417	0.03469
2656.39840	0.03454
2655.11263	0.03444
2653.82686	0.03441
2652.54109	0.03439
2651.25532	0.03432
2649.96955	0.03423
2648.68378	0.03416
2647.39801	0.03405
2646.11225	0.03382
2644.82648	0.03347
2643.54071	0.03314
2642.25494	0.03301
2640.96917	0.03306
2639.68340	0.03308
2638.39763	0.03295
2637.11186	0.03276
2635.82609	0.03262
2634.54033	0.03252
2633.25456	0.03238
2631.96879	0.03217
2630.68302	0.03197
2629.39725	0.03183
2628.11148	0.03172
2626.82571	0.03155
2625.53994	0.03130
2624.25418	0.03103
2622.96841	0.03079
2621.68264	0.03055
2620.39687	0.03023
2619.11110	0.02994
2617.82533	0.02992
2616.53956	0.03024
2615.25379	0.03060
2613.96802	0.03068
2612.68226	0.03048
2611.39649	0.03029
2610.11072	0.03025
2608.82495	0.03026
2607.53918	0.03014
2606.25341	0.02988
2604.96764	0.02957
2603.68187	0.02925
2602.39611	0.02892
2601.11034	0.02866
2599.82457	0.02858
2598.53880	0.02878
2597.25303	0.02913
2595.96726	0.02946
2594.68149	0.02963
2593.39572	0.02960
2592.10995	0.02937
2590.82419	0.02894
2589.53842	0.02833
2588.25265	0.02761
2586.96688	0.02696
2585.68111	0.02668
2584.39534	0.02697
2583.10957	0.02772
2581.82380	0.02850
2580.53804	0.02893
2579.25227	0.02896
2577.96650	0.02870
2576.68073	0.02824
2575.39496	0.02759
2574.10919	0.02698
2572.82342	0.02670
2571.53765	0.02682
2570.25188	0.02708
2568.96612	0.02724
2567.68035	0.02726
2566.39458	0.02719
2565.10881	0.02703
2563.82304	0.02683
2562.53727	0.02666
2561.25150	0.02657
2559.96573	0.02647
2558.67997	0.02635
2557.39420	0.02627
2556.10843	0.02629
2554.82266	0.02635
2553.53689	0.02637
2552.25112	0.02643
2550.96535	0.02664
2549.67958	0.02688
2548.39381	0.02686
2547.10805	0.02645
2545.82228	0.02587
2544.53651	0.02551
2543.25074	0.02550
2541.96497	0.02566
2540.67920	0.02576
2539.39343	0.02575
2538.10766	0.02569
2536.82190	0.02555
2535.53613	0.02527
2534.25036	0.02492
2532.96459	0.02469
2531.67882	0.02471
2530.39305	0.02489
2529.10728	0.02507
2527.82151	0.02513
2526.53574	0.02517
2525.24998	0.02533
2523.96421	0.02555
2522.67844	0.02561
2521.39267	0.02532
2520.10690	0.02475
2518.82113	0.02420
2517.53536	0.02389
2516.24959	0.02383
2514.96383	0.02394
2513.67806	0.02414
2512.39229	0.02433
2511.10652	0.02444
2509.82075	0.02446
2508.53498	0.02445
2507.24921	0.02448
2505.96344	0.02446
2504.67767	0.02429
2503.39191	0.02402
2502.10614	0.02383
2500.82037	0.02381
2499.53460	0.02388
2498.24883	0.02385
2496.96306	0.02363
2495.67729	0.02334
2494.39152	0.02320
2493.10576	0.02333
2491.81999	0.02361
2490.53422	0.02382
2489.24845	0.02392
2487.96268	0.02406
2486.67691	0.02430
2485.39114	0.02452
2484.10537	0.02453
2482.81960	0.02436
2481.53384	0.02419
2480.24807	0.02414
2478.96230	0.02418
2477.67653	0.02418
2476.39076	0.02410
2475.10499	0.02400
2473.81922	0.02394
2472.53345	0.02392
2471.24769	0.02380
2469.96192	0.02353
2468.67615	0.02319
2467.39038	0.02301
2466.10461	0.02315
2464.81884	0.02358
2463.53307	0.02414
2462.24730	0.02469
2460.96153	0.02509
2459.67577	0.02525
2458.39000	0.02516
2457.10423	0.02490
2455.81846	0.02458
2454.53269	0.02428
2453.24692	0.02407
2451.96115	0.02393
2450.67538	0.02375
2449.38962	0.02348
2448.10385	0.02325
2446.81808	0.02319
2445.53231	0.02327
2444.24654	0.02332
2442.96077	0.02323
2441.67500	0.02299
2440.38923	0.02271
2439.10346	0.02251
2437.81770	0.02247
2436.53193	0.02250
2435.24616	0.02248
2433.96039	0.02236
2432.67462	0.02225
2431.38885	0.02221
2430.10308	0.02218
2428.81731	0.02211
2427.53155	0.02203
2426.24578	0.02205
2424.96001	0.02220
2423.67424	0.02230
2422.38847	0.02217
2421.10270	0.02195
2419.81693	0.02189
2418.53116	0.02208
2417.24539	0.02228
2415.95963	0.02229
2414.67386	0.02215
2413.38809	0.02204
2412.10232	0.02201
2410.81655	0.02198
2409.53078	0.02184
2408.24501	0.02163
2406.95924	0.02141
2405.67347	0.02129
2404.38771	0.02135
2403.10194	0.02163
2401.81617	0.02209
2400.53040	0.02252
2399.24463	0.02260
2397.95886	0.02246
2396.67309	0.02214
2395.38732	0.02180
2394.10156	0.02152
2392.81579	0.02131
2391.53002	0.02116
2390.24425	0.02111
2388.95848	0.02125
2387.67271	0.02164
2386.38694	0.02221
2385.10117	0.02290
2383.81540	0.02364
2382.52964	0.02443
2381.24387	0.02527
2379.95810	0.02613
2378.67233	0.02703
2377.38656	0.02794
2376.10079	0.02879
2374.81502	0.02935
2373.52925	0.02938
2372.24349	0.02874
2370.95772	0.02748
2369.67195	0.02580
2368.38618	0.02395
2367.10041	0.02228
2365.81464	0.02115
2364.52887	0.02075
2363.24310	0.02091
2361.95733	0.02118
2360.67157	0.02108
2359.38580	0.02037
2358.10003	0.01909
2356.81426	0.01760
2355.52849	0.01649
2354.24272	0.01622
2352.95695	0.01697
2351.67118	0.01864
2350.38542	0.02096
2349.09965	0.02352
2347.81388	0.02580
2346.52811	0.02718
2345.24234	0.02728
2343.95657	0.02624
2342.67080	0.02469
2341.38503	0.02322
2340.09926	0.02209
2338.81350	0.02126
2337.52773	0.02064
2336.24196	0.02018
2334.95619	0.01994
2333.67042	0.01990
2332.38465	0.01995
2331.09888	0.01997
2329.81311	0.02000
2328.52735	0.02022
2327.24158	0.02076
2325.95581	0.02148
2324.67004	0.02204
2323.38427	0.02219
2322.09850	0.02197
2320.81273	0.02161
2319.52696	0.02133
2318.24119	0.02118
2316.95543	0.02112
2315.66966	0.02109
2314.38389	0.02107
2313.09812	0.02106
2311.81235	0.02110
2310.52658	0.02126
2309.24081	0.02161
2307.95504	0.02207
2306.66928	0.02245
2305.38351	0.02258
2304.09774	0.02245
2302.81197	0.02219
2301.52620	0.02196
2300.24043	0.02180
2298.95466	0.02170
2297.66889	0.02160
2296.38312	0.02154
2295.09736	0.02162
2293.81159	0.02189
2292.52582	0.02225
2291.24005	0.02253
2289.95428	0.02261
2288.66851	0.02253
2287.38274	0.02243
2286.09697	0.02237
2284.81121	0.02233
2283.52544	0.02219
2282.23967	0.02189
2280.95390	0.02143
2279.66813	0.02090
2278.38236	0.02037
2277.09659	0.01990
2275.81082	0.01951
2274.52505	0.01924
2273.23929	0.01910
2271.95352	0.01900
2270.66775	0.01872
2269.38198	0.01813
2268.09621	0.01728
2266.81044	0.01646
2265.52467	0.01603
2264.23890	0.01613
2262.95314	0.01664
2261.66737	0.01728
2260.38160	0.01791
2259.09583	0.01852
2257.81006	0.01908
2256.52429	0.01940
2255.23852	0.01927
2253.95275	0.01872
2252.66698	0.01803
2251.38122	0.01764
2250.09545	0.01766
2248.80968	0.01781
2247.52391	0.01807
2246.23814	0.01813
2244.95237	0.01785
2243.66660	0.01721
2242.38083	0.01645
2241.09507	0.01598
2239.80930	0.01609
2238.52353	0.01659
2237.23776	0.01696
2235.95199	0.01680
2234.66622	0.01611
2233.38045	0.01518
2232.09468	0.01434
2230.80891	0.01370
2229.52315	0.01322
2228.23738	0.01289
2226.95161	0.01290
2225.66584	0.01356
2224.38007	0.01486
2223.09430	0.01634
2221.80853	0.01726
2220.52276	0.01719
2219.23700	0.01635
2217.95123	0.01539
2216.66546	0.01479
2215.37969	0.01444
2214.09392	0.01392
2212.80815	0.01314
2211.52238	0.01248
2210.23661	0.01225
2208.95084	0.01240
2207.66508	0.01275
2206.37931	0.01331
2205.09354	0.01406
2203.80777	0.01454
2202.52200	0.01422
2201.23623	0.01309
2199.95046	0.01188
2198.66469	0.01135
2197.37893	0.01157
2196.09316	0.01187
2194.80739	0.01157
2193.52162	0.01071
2192.23585	0.00996
2190.95008	0.00983
2189.66431	0.01026
2188.37854	0.01078
2187.09277	0.01106
2185.80701	0.01108
2184.52124	0.01108
2183.23547	0.01121
2181.94970	0.01129
2180.66393	0.01101
2179.37816	0.01022
2178.09239	0.00920
2176.80662	0.00855
2175.52085	0.00884
2174.23509	0.01011
2172.94932	0.01161
2171.66355	0.01237
2170.37778	0.01199
2169.09201	0.01090
2167.80624	0.00978
2166.52047	0.00889
2165.23470	0.00810
2163.94894	0.00724
2162.66317	0.00621
2161.37740	0.00481
2160.09163	0.00299
2158.80586	0.00125
2157.52009	0.00035
2156.23432	0.00057
2154.94855	0.00154
2153.66278	0.00271
2152.37702	0.00377
2151.09125	0.00449
2149.80548	0.00474
2148.51971	0.00462
2147.23394	0.00435
2145.94817	0.00406
2144.66240	0.00387
2143.37663	0.00410
2142.09087	0.00494
2140.80510	0.00612
2139.51933	0.00699
2138.23356	0.00718
2136.94779	0.00682
2135.66202	0.00644
2134.37625	0.00651
2133.09048	0.00718
2131.80471	0.00827
2130.51895	0.00945
2129.23318	0.01040
2127.94741	0.01099
2126.66164	0.01120
2125.37587	0.01105
2124.09010	0.01063
2122.80433	0.01011
2121.51856	0.00964
2120.23280	0.00928
2118.94703	0.00901
2117.66126	0.00889
2116.37549	0.00908
2115.08972	0.00955
2113.80395	0.01020
2112.51818	0.01095
2111.23241	0.01170
2109.94664	0.01207
2108.66088	0.01172
2107.37511	0.01077
2106.08934	0.00987
2104.80357	0.00961
2103.51780	0.01007
2102.23203	0.01087
2100.94626	0.01160
2099.66049	0.01265
2098.37473	0.01285
2097.08896	0.01226
2095.80319	0.01124
2094.51742	0.01019
2093.23165	0.00958
2091.94588	0.00964
2090.66011	0.01013
2089.37434	0.01065
2088.08857	0.01091
2086.80281	0.01089
2085.51704	0.01072
2084.23127	0.01066
2082.94550	0.01091
2081.65973	0.01154
2080.37396	0.01232
2079.08819	0.01281
2077.80242	0.01267
2076.51666	0.01199
2075.23089	0.01123
2073.94512	0.01080
2072.65935	0.01062
2071.37358	0.01035
2070.08781	0.00982
2068.80204	0.00928
2067.51627	0.00904
2066.23050	0.00910
2064.94474	0.00915
2063.65897	0.00898
2062.37320	0.00879
2061.08743	0.00888
2059.80166	0.00925
2058.51589	0.00959
2057.23012	0.00962
2055.94435	0.00948
2054.65859	0.00949
2053.37282	0.00979
2052.08705	0.01007
2050.80128	0.00977
2049.51551	0.00867
2048.22974	0.00715
2046.94397	0.00569
2045.65820	0.00446
2044.37243	0.00345
2043.08667	0.00280
2041.80090	0.00269
2040.51513	0.00299
2039.22936	0.00331
2037.94359	0.00345
2036.65782	0.00342
2035.37205	0.00326
2034.08628	0.00296
2032.80052	0.00262
2031.51475	0.00243
2030.22898	0.00244
2028.94321	0.00251
2027.65744	0.00249
2026.37167	0.00225
2025.08590	0.00179
2023.80013	0.00126
2022.51436	0.00097
2021.22860	0.00115
2019.94283	0.00175
2018.65706	0.00253
2017.37129	0.00332
2016.08552	0.00420
2014.79975	0.00530
2013.51398	0.00649
2012.22821	0.00733
2010.94245	0.00741
2009.65668	0.00677
2008.37091	0.00572
2007.08514	0.00449
2005.79937	0.00324
2004.51360	0.00236
2003.22783	0.00235
2001.94206	0.00323
2000.65629	0.00449
1999.37053	0.00561
1998.08476	0.00656
1996.79899	0.00753
1995.51322	0.00833
1994.22745	0.00852
1992.94168	0.00804
1991.65591	0.00746
1990.37014	0.00736
1989.08438	0.00777
1987.79861	0.00831
1986.51284	0.00870
1985.22707	0.00894
1983.94130	0.00922
1982.65553	0.00970
1981.36976	0.01028
1980.08399	0.01053
1978.79822	0.01011
1977.51246	0.00927
1976.22669	0.00856
1974.94092	0.00818
1973.65515	0.00794
1972.36938	0.00770
1971.08361	0.00754
1969.79784	0.00749
1968.51207	0.00744
1967.22631	0.00743
1965.94054	0.00771
1964.65477	0.00830
1963.36900	0.00884
1962.08323	0.00900
1960.79746	0.00885
1959.51169	0.00873
1958.22592	0.00888
1956.94015	0.00926
1955.65439	0.00974
1954.36862	0.01021
1953.08285	0.01052
1951.79708	0.01051
1950.51131	0.01011
1949.22554	0.00957
1947.93977	0.00920
1946.65400	0.00914
1945.36823	0.00925
1944.08247	0.00931
1942.79670	0.00933
1941.51093	0.00943
1940.22516	0.00974
1938.93939	0.01019
1937.65362	0.01062
1936.36785	0.01083
1935.08208	0.01069
1933.79632	0.01033
1932.51055	0.01006
1931.22478	0.01008
1929.93901	0.01030
1928.65324	0.01046
1927.36747	0.01046
1926.08170	0.01048
1924.79593	0.01071
1923.51016	0.01113
1922.22440	0.01158
1920.93863	0.01191
1919.65286	0.01212
1918.36709	0.01229
1917.08132	0.01242
1915.79555	0.01239
1914.50978	0.01221
1913.22401	0.01202
1911.93825	0.01193
1910.65248	0.01189
1909.36671	0.01185
1908.08094	0.01179
1906.79517	0.01174
1905.50940	0.01171
1904.22363	0.01168
1902.93786	0.01170
1901.65209	0.01184
1900.36633	0.01207
1899.08056	0.01226
1897.79479	0.01232
1896.50902	0.01223
1895.22325	0.01204
1893.93748	0.01180
1892.65171	0.01153
1891.36594	0.01125
1890.08018	0.01109
1888.79441	0.01119
1887.50864	0.01152
1886.22287	0.01187
1884.93710	0.01201
1883.65133	0.01190
1882.36556	0.01169
1881.07979	0.01160
1879.79402	0.01173
1878.50826	0.01203
1877.22249	0.01230
1875.93672	0.01238
1874.65095	0.01223
1873.36518	0.01198
1872.07941	0.01175
1870.79364	0.01163
1869.50787	0.01168
1868.22211	0.01184
1866.93634	0.01197
1865.65057	0.01192
1864.36480	0.01170
1863.07903	0.01149
1861.79326	0.01144
1860.50749	0.01158
1859.22172	0.01179
1857.93595	0.01194
1856.65019	0.01195
1855.36442	0.01190
1854.07865	0.01194
1852.79288	0.01212
1851.50711	0.01237
1850.22134	0.01256
1848.93557	0.01263
1847.64980	0.01261
1846.36404	0.01252
1845.07827	0.01236
1843.79250	0.01225
1842.50673	0.01230
1841.22096	0.01246
1839.93519	0.01262
1838.64942	0.01271
1837.36365	0.01273
1836.07788	0.01273
1834.79212	0.01279
1833.50635	0.01293
1832.22058	0.01308
1830.93481	0.01318
1829.64904	0.01325
1828.36327	0.01326
1827.07750	0.01318
1825.79173	0.01303
1824.50597	0.01294
1823.22020	0.01294
1821.93443	0.01296
1820.64866	0.01289
1819.36289	0.01274
1818.07712	0.01255
1816.79135	0.01243
1815.50558	0.01244
1814.21981	0.01256
1812.93405	0.01270
1811.64828	0.01281
1810.36251	0.01289
1809.07674	0.01295
1807.79097	0.01298
1806.50520	0.01302
1805.21943	0.01308
1803.93366	0.01318
1802.64790	0.01325
1801.36213	0.01325
1800.07636	0.01321
1798.79059	0.01323
1797.50482	0.01341
1796.21905	0.01370
1794.93328	0.01391
1793.64751	0.01387
1792.36174	0.01361
1791.07598	0.01334
1789.79021	0.01323
1788.50444	0.01331
1787.21867	0.01348
1785.93290	0.01361
1784.64713	0.01366
1783.36136	0.01367
1782.07559	0.01370
1780.78983	0.01378
1779.50406	0.01393
1778.21829	0.01412
1776.93252	0.01431
1775.64675	0.01444
1774.36098	0.01442
1773.07521	0.01431
1771.78944	0.01429
1770.50367	0.01434
1769.21791	0.01436
1767.93214	0.01432
1766.64637	0.01431
1765.36060	0.01434
1764.07483	0.01433
1762.78906	0.01429
1761.50329	0.01433
1760.21752	0.01441
1758.93176	0.01444
1757.64599	0.01440
1756.36022	0.01445
1755.07445	0.01467
1753.78868	0.01489
1752.50291	0.01498
1751.21714	0.01498
1749.93137	0.01502
1748.64560	0.01510
1747.35984	0.01520
1746.07407	0.01530
1744.78830	0.01538
1743.50253	0.01542
1742.21676	0.01537
1740.93099	0.01529
1739.64522	0.01537
1738.35945	0.01576
1737.07369	0.01625
1735.78792	0.01648
1734.50215	0.01639
1733.21638	0.01624
1731.93061	0.01615
1730.64484	0.01606
1729.35907	0.01601
1728.07330	0.01610
1726.78753	0.01633
1725.50177	0.01660
1724.21600	0.01690
1722.93023	0.01726
1721.64446	0.01768
1720.35869	0.01801
1719.07292	0.01816
1717.78715	0.01824
1716.50138	0.01838
1715.21561	0.01855
1713.92985	0.01869
1712.64408	0.01884
1711.35831	0.01906
1710.07254	0.01934
1708.78677	0.01963
1707.50100	0.01991
1706.21523	0.02027
1704.92946	0.02090
1703.64370	0.02173
1702.35793	0.02243
1701.07216	0.02289
1699.78639	0.02335
1698.50062	0.02376
1697.21485	0.02385
1695.92908	0.02369
1694.64331	0.02369
1693.35754	0.02389
1692.07178	0.02411
1690.78601	0.02439
1689.50024	0.02494
1688.21447	0.02570
1686.92870	0.02635
1685.64293	0.02664
1684.35716	0.02678
1683.07139	0.02704
1681.78563	0.02740
1680.49986	0.02781
1679.21409	0.02834
1677.92832	0.02887
1676.64255	0.02925
1675.35678	0.02951
1674.07101	0.02985
1672.78524	0.03027
1671.49947	0.03060
1670.21371	0.03081
1668.92794	0.03101
1667.64217	0.03133
1666.35640	0.03177
1665.07063	0.03221
1663.78486	0.03259
1662.49909	0.03294
1661.21332	0.03328
1659.92756	0.03367
1658.64179	0.03420
1657.35602	0.03490
1656.07025	0.03550
1654.78448	0.03567
1653.49871	0.03550
1652.21294	0.03543
1650.92717	0.03561
1649.64140	0.03573
1648.35564	0.03560
1647.06987	0.03535
1645.78410	0.03517
1644.49833	0.03510
1643.21256	0.03508
1641.92679	0.03512
1640.64102	0.03530
1639.35525	0.03558
1638.06949	0.03572
1636.78372	0.03554
1635.49795	0.03520
1634.21218	0.03496
1632.92641	0.03490
1631.64064	0.03490
1630.35487	0.03489
1629.06910	0.03485
1627.78333	0.03478
1626.49757	0.03468
1625.21180	0.03451
1623.92603	0.03431
1622.64026	0.03422
1621.35449	0.03428
1620.06872	0.03436
1618.78295	0.03427
1617.49718	0.03399
1616.21142	0.03374
1614.92565	0.03361
1613.63988	0.03350
1612.35411	0.03332
1611.06834	0.03313
1609.78257	0.03303
1608.49680	0.03304
1607.21103	0.03314
1605.92526	0.03326
1604.63950	0.03332
1603.35373	0.03328
1602.06796	0.03317
1600.78219	0.03307
1599.49642	0.03301
1598.21065	0.03302
1596.92488	0.03311
1595.63911	0.03325
1594.35335	0.03343
1593.06758	0.03359
1591.78181	0.03371
1590.49604	0.03381
1589.21027	0.03395
1587.92450	0.03412
1586.63873	0.03433
1585.35296	0.03453
1584.06719	0.03469
1582.78143	0.03482
1581.49566	0.03501
1580.20989	0.03534
1578.92412	0.03569
1577.63835	0.03588
1576.35258	0.03597
1575.06681	0.03616
1573.78104	0.03647
1572.49528	0.03675
1571.20951	0.03693
1569.92374	0.03712
1568.63797	0.03736
1567.35220	0.03758
1566.06643	0.03775
1564.78066	0.03800
1563.49489	0.03847
1562.20912	0.03902
1560.92336	0.03938
1559.63759	0.03955
1558.35182	0.03976
1557.06605	0.04002
1555.78028	0.04017
1554.49451	0.04023
1553.20874	0.04036
1551.92297	0.04058
1550.63721	0.04082
1549.35144	0.04110
1548.06567	0.04141
1546.77990	0.04174
1545.49413	0.04206
1544.20836	0.04239
1542.92259	0.04261
1541.63682	0.04254
1540.35105	0.04220
1539.06529	0.04190
1537.77952	0.04184
1536.49375	0.04189
1535.20798	0.04192
1533.92221	0.04197
1532.63644	0.04218
1531.35067	0.04255
1530.06490	0.04299
1528.77914	0.04344
1527.49337	0.04395
1526.20760	0.04459
1524.92183	0.04535
1523.63606	0.04611
1522.35029	0.04679
1521.06452	0.04754
1519.77875	0.04842
1518.49298	0.04933
1517.20722	0.05022
1515.92145	0.05117
1514.63568	0.05223
1513.34991	0.05339
1512.06414	0.05469
1510.77837	0.05618
1509.49260	0.05768
1508.20683	0.05896
1506.92107	0.05998
1505.63530	0.06097
1504.34953	0.06199
1503.06376	0.06297
1501.77799	0.06390
1500.49222	0.06484
1499.20645	0.06577
1497.92068	0.06657
1496.63491	0.06725
1495.34915	0.06793
1494.06338	0.06867
1492.77761	0.06941
1491.49184	0.07014
1490.20607	0.07091
1488.92030	0.07175
1487.63453	0.07265
1486.34876	0.07362
1485.06299	0.07470
1483.77723	0.07585
1482.49146	0.07707
1481.20569	0.07836
1479.91992	0.07970
1478.63415	0.08104
1477.34838	0.08233
1476.06261	0.08349
1474.77684	0.08446
1473.49108	0.08525
1472.20531	0.08596
1470.91954	0.08662
1469.63377	0.08718
1468.34800	0.08757
1467.06223	0.08776
1465.77646	0.08784
1464.49069	0.08793
1463.20492	0.08816
1461.91916	0.08859
1460.63339	0.08913
1459.34762	0.08959
1458.06185	0.08986
1456.77608	0.09005
1455.49031	0.09029
1454.20454	0.09052
1452.91877	0.09065
1451.63301	0.09069
1450.34724	0.09068
1449.06147	0.09056
1447.77570	0.09031
1446.48993	0.08993
1445.20416	0.08945
1443.91839	0.08888
1442.63262	0.08823
1441.34685	0.08759
1440.06109	0.08697
1438.77532	0.08636
1437.48955	0.08582
1436.20378	0.08550
1434.91801	0.08549
1433.63224	0.08575
1432.34647	0.08624
1431.06070	0.08706
1429.77494	0.08821
1428.48917	0.08963
1427.20340	0.09118
1425.91763	0.09278
1424.63186	0.09442
1423.34609	0.09617
1422.06032	0.09794
1420.77455	0.09953
1419.48878	0.10088
1418.20302	0.10202
1416.91725	0.10292
1415.63148	0.10356
1414.34571	0.10392
1413.05994	0.10403
1411.77417	0.10388
1410.48840	0.10354
1409.20263	0.10299
1407.91687	0.10218
1406.63110	0.10104
1405.34533	0.09957
1404.05956	0.09786
1402.77379	0.09599
1401.48802	0.09399
1400.20225	0.09186
1398.91648	0.08965
1397.63071	0.08738
1396.34495	0.08502
1395.05918	0.08259
1393.77341	0.08019
1392.48764	0.07789
1391.20187	0.07566
1389.91610	0.07348
1388.63033	0.07130
1387.34456	0.06917
1386.05880	0.06709
1384.77303	0.06507
1383.48726	0.06310
1382.20149	0.06117
1380.91572	0.05926
1379.62995	0.05735
1378.34418	0.05539
1377.05841	0.05340
1375.77264	0.05136
1374.48688	0.04932
1373.20111	0.04735
1371.91534	0.04549
1370.62957	0.04377
1369.34380	0.04218
1368.05803	0.04073
1366.77226	0.03939
1365.48649	0.03813
1364.20073	0.03690
1362.91496	0.03571
1361.62919	0.03457
1360.34342	0.03350
1359.05765	0.03253
1357.77188	0.03166
1356.48611	0.03087
1355.20034	0.03017
1353.91457	0.02954
1352.62881	0.02896
1351.34304	0.02839
1350.05727	0.02781
1348.77150	0.02725
1347.48573	0.02673
1346.19996	0.02628
1344.91419	0.02588
1343.62842	0.02553
1342.34266	0.02519
1341.05689	0.02485
1339.77112	0.02450
1338.48535	0.02416
1337.19958	0.02382
1335.91381	0.02349
1334.62804	0.02319
1333.34227	0.02295
1332.05650	0.02275
1330.77074	0.02256
1329.48497	0.02237
1328.19920	0.02216
1326.91343	0.02194
1325.62766	0.02172
1324.34189	0.02152
1323.05612	0.02135
1321.77035	0.02119
1320.48459	0.02104
1319.19882	0.02090
1317.91305	0.02076
1316.62728	0.02063
1315.34151	0.02048
1314.05574	0.02031
1312.76997	0.02011
1311.48420	0.01990
1310.19843	0.01975
1308.91267	0.01967
1307.62690	0.01962
1306.34113	0.01955
1305.05536	0.01942
1303.76959	0.01922
1302.48382	0.01898
1301.19805	0.01876
1299.91228	0.01859
1298.62652	0.01851
1297.34075	0.01848
1296.05498	0.01849
1294.76921	0.01848
1293.48344	0.01845
1292.19767	0.01839
1290.91190	0.01831
1289.62613	0.01821
1288.34036	0.01811
1287.05460	0.01802
1285.76883	0.01796
1284.48306	0.01796
1283.19729	0.01801
1281.91152	0.01808
1280.62575	0.01814
1279.33998	0.01817
1278.05421	0.01818
1276.76845	0.01821
1275.48268	0.01828
1274.19691	0.01843
1272.91114	0.01872
1271.62537	0.01921
1270.33960	0.01998
1269.05383	0.02109
1267.76806	0.02252
1266.48229	0.02417
1265.19653	0.02584
1263.91076	0.02726
1262.62499	0.02816
1261.33922	0.02837
1260.05345	0.02786
1258.76768	0.02677
1257.48191	0.02529
1256.19614	0.02368
1254.91037	0.02215
1253.62461	0.02084
1252.33884	0.01979
1251.05307	0.01900
1249.76730	0.01839
1248.48153	0.01792
1247.19576	0.01758
1245.90999	0.01735
1244.62422	0.01718
1243.33846	0.01700
1242.05269	0.01681
1240.76692	0.01661
1239.48115	0.01645
1238.19538	0.01636
1236.90961	0.01635
1235.62384	0.01636
1234.33807	0.01635
1233.05230	0.01629
1231.76654	0.01618
1230.48077	0.01606
1229.19500	0.01595
1227.90923	0.01586
1226.62346	0.01578
1225.33769	0.01570
1224.05192	0.01564
1222.76615	0.01558
1221.48039	0.01552
1220.19462	0.01547
1218.90885	0.01543
1217.62308	0.01539
1216.33731	0.01534
1215.05154	0.01530
1213.76577	0.01527
1212.48000	0.01527
1211.19423	0.01528
1209.90847	0.01529
1208.62270	0.01529
1207.33693	0.01531
1206.05116	0.01536
1204.76539	0.01545
1203.47962	0.01555
1202.19385	0.01562
1200.90808	0.01558
1199.62232	0.01537
1198.33655	0.01527
1197.05078	0.01522
1195.76501	0.01524
1194.47924	0.01533
1193.19347	0.01539
1191.90770	0.01540
1190.62193	0.01538
1189.33616	0.01536
1188.05040	0.01538
1186.76463	0.01543
1185.47886	0.01551
1184.19309	0.01564
1182.90732	0.01580
1181.62155	0.01593
1180.33578	0.01598
1179.05001	0.01597
1177.76425	0.01600
1176.47848	0.01613
1175.19271	0.01630
1173.90694	0.01645
1172.62117	0.01658
1171.33540	0.01672
1170.04963	0.01691
1168.76386	0.01713
1167.47809	0.01736
1166.19233	0.01762
1164.90656	0.01796
1163.62079	0.01837
1162.33502	0.01882
1161.04925	0.01927
1159.76348	0.01969
1158.47771	0.02008
1157.19194	0.02045
1155.90618	0.02082
1154.62041	0.02121
1153.33464	0.02166
1152.04887	0.02215
1150.76310	0.02266
1149.47733	0.02319
1148.19156	0.02382
1146.90579	0.02462
1145.62002	0.02556
1144.33426	0.02660
1143.04849	0.02768
1141.76272	0.02879
1140.47695	0.02998
1139.19118	0.03131
1137.90541	0.03279
1136.61964	0.03440
1135.33387	0.03611
1134.04811	0.03791
1132.76234	0.03984
1131.47657	0.04195
1130.19080	0.04434
1128.90503	0.04705
1127.61926	0.05010
1126.33349	0.05342
1125.04772	0.05693
1123.76195	0.06058
1122.47619	0.06437
1121.19042	0.06834
1119.90465	0.07247
1118.61888	0.07672
1117.33311	0.08098
1116.04734	0.08516
1114.76157	0.08925
1113.47580	0.09329
1112.19004	0.09734
1110.90427	0.10140
1109.61850	0.10548
1108.33273	0.10957
1107.04696	0.11364
1105.76119	0.11764
1104.47542	0.12156
1103.18965	0.12544
1101.90388	0.12929
1100.61812	0.13306
1099.33235	0.13669
1098.04658	0.14015
1096.76081	0.14346
1095.47504	0.14663
1094.18927	0.14966
1092.90350	0.15256
1091.61773	0.15528
1090.33197	0.15780
1089.04620	0.16011
1087.76043	0.16226
1086.47466	0.16431
1085.18889	0.16636
1083.90312	0.16851
1082.61735	0.17083
1081.33158	0.17339
1080.04581	0.17619
1078.76005	0.17925
1077.47428	0.18252
1076.18851	0.18595
1074.90274	0.18951
1073.61697	0.19321
1072.33120	0.19709
1071.04543	0.20118
1069.75966	0.20542
1068.47390	0.20975
1067.18813	0.21413
1065.90236	0.21863
1064.61659	0.22327
1063.33082	0.22804
1062.04505	0.23283
1060.75928	0.23756
1059.47351	0.24217
1058.18774	0.24668
1056.90198	0.25115
1055.61621	0.25564
1054.33044	0.26015
1053.04467	0.26473
1051.75890	0.26941
1050.47313	0.27419
1049.18736	0.27905
1047.90159	0.28404
1046.61583	0.28926
1045.33006	0.29477
1044.04429	0.30047
1042.75852	0.30628
1041.47275	0.31217
1040.18698	0.31817
1038.90121	0.32431
1037.61544	0.33057
1036.32967	0.33688
1035.04391	0.34312
1033.75814	0.34919
1032.47237	0.35499
1031.18660	0.36044
1029.90083	0.36542
1028.61506	0.36974
1027.32929	0.37331
1026.04352	0.37623
1024.75775	0.37862
1023.47199	0.38056
1022.18622	0.38202
1020.90045	0.38287
1019.61468	0.38303
1018.32891	0.38242
1017.04314	0.38101
1015.75737	0.37881
1014.47160	0.37582
1013.18584	0.37205
1011.90007	0.36744
1010.61430	0.36195
1009.32853	0.35556
1008.04276	0.34835
1006.75699	0.34037
1005.47122	0.33163
1004.18545	0.32216
1002.89968	0.31208
1001.61392	0.30153
1000.32815	0.29060
999.04238	0.27934
997.75661	0.26778
996.47084	0.25603
995.18507	0.24427
993.89930	0.23267
992.61353	0.22135
991.32777	0.21034
990.04200	0.19971
988.75623	0.18955
987.47046	0.17996
986.18469	0.17098
984.89892	0.16259
983.61315	0.15475
982.32738	0.14739
981.04161	0.14048
979.75585	0.13406
978.47008	0.12823
977.18431	0.12307
975.89854	0.11859
974.61277	0.11476
973.32700	0.11160
972.04123	0.10922
970.75546	0.10769
969.46970	0.10706
968.18393	0.10727
966.89816	0.10819
965.61239	0.10962
964.32662	0.11125
963.04085	0.11270
961.75508	0.11355
960.46931	0.11345
959.18354	0.11223
957.89778	0.10991
956.61201	0.10671
955.32624	0.10297
954.04047	0.09902
952.75470	0.09512
951.46893	0.09141
950.18316	0.08790
948.89739	0.08457
947.61163	0.08134
946.32586	0.07822
945.04009	0.07523
943.75432	0.07244
942.46855	0.06993
941.18278	0.06768
939.89701	0.06564
938.61124	0.06375
937.32547	0.06203
936.03971	0.06044
934.75394	0.05894
933.46817	0.05749
932.18240	0.05612
930.89663	0.05491
929.61086	0.05394
928.32509	0.05319
927.03932	0.05255
925.75356	0.05196
924.46779	0.05134
923.18202	0.05069
921.89625	0.05002
920.61048	0.04935
919.32471	0.04877
918.03894	0.04831
916.75317	0.04796
915.46740	0.04765
914.18164	0.04734
912.89587	0.04700
911.61010	0.04664
910.32433	0.04625
909.03856	0.04582
907.75279	0.04536
906.46702	0.04491
905.18125	0.04450
903.89549	0.04412
902.60972	0.04375
901.32395	0.04340
900.03818	0.04308
898.75241	0.04288
897.46664	0.04281
896.18087	0.04282
894.89510	0.04284
893.60933	0.04286
892.32357	0.04289
891.03780	0.04301
889.75203	0.04331
888.46626	0.04390
887.18049	0.04489
885.89472	0.04641
884.60895	0.04864
883.32318	0.05163
882.03742	0.05511
880.75165	0.05846
879.46588	0.06105
878.18011	0.06274
876.89434	0.06398
875.60857	0.06535
874.32280	0.06697
873.03703	0.06842
871.75126	0.06907
870.46550	0.06863
869.17973	0.06719
867.89396	0.06508
866.60819	0.06265
865.32242	0.06013
864.03665	0.05762
862.75088	0.05516
861.46511	0.05286
860.17935	0.05086
858.89358	0.04923
857.60781	0.04794
856.32204	0.04689
855.03627	0.04597
853.75050	0.04517
852.46473	0.04450
851.17896	0.04392
849.89319	0.04337
848.60743	0.04286
847.32166	0.04243
846.03589	0.04212
844.75012	0.04191
843.46435	0.04175
842.17858	0.04162
840.89281	0.04146
839.60704	0.04128
838.32128	0.04107
837.03551	0.04089
835.74974	0.04079
834.46397	0.04079
833.17820	0.04086
831.89243	0.04100
830.60666	0.04123
829.32089	0.04158
828.03512	0.04210
826.74936	0.04278
825.46359	0.04357
824.17782	0.04439
822.89205	0.04521
821.60628	0.04603
820.32051	0.04679
819.03474	0.04742
817.74897	0.04793
816.46321	0.04834
815.17744	0.04871
813.89167	0.04911
812.60590	0.04960
811.32013	0.05023
810.03436	0.05096
808.74859	0.05175
807.46282	0.05253
806.17705	0.05328
804.89129	0.05394
803.60552	0.05440
802.31975	0.05459
801.03398	0.05451
799.74821	0.05425
798.46244	0.05384
797.17667	0.05328
795.89090	0.05257
794.60513	0.05173
793.31937	0.05081
792.03360	0.04983
790.74783	0.04879
789.46206	0.04774
788.17629	0.04669
786.89052	0.04562
785.60475	0.04449
784.31898	0.04339
783.03322	0.04241
781.74745	0.04164
780.46168	0.04105
779.17591	0.04058
777.89014	0.04018
776.60437	0.03986
775.31860	0.03961
774.03283	0.03934
772.74706	0.03902
771.46130	0.03866
770.17553	0.03842
768.88976	0.03836
767.60399	0.03844
766.31822	0.03851
765.03245	0.03845
763.74668	0.03828
762.46091	0.03807
761.17515	0.03793
759.88938	0.03794
758.60361	0.03809
757.31784	0.03831
756.03207	0.03850
754.74630	0.03858
753.46053	0.03855
752.17476	0.03843
750.88899	0.03826
749.60323	0.03806
748.31746	0.03785
747.03169	0.03765
745.74592	0.03748
744.46015	0.03735
743.17438	0.03722
741.88861	0.03711
740.60284	0.03705
739.31708	0.03704
738.03131	0.03704
736.74554	0.03698
735.45977	0.03691
734.17400	0.03694
732.88823	0.03711
731.60246	0.03734
730.31669	0.03754
729.03092	0.03765
727.74516	0.03766
726.45939	0.03756
725.17362	0.03738
723.88785	0.03720
722.60208	0.03718
721.31631	0.03726
720.03054	0.03735
718.74477	0.03740
717.45901	0.03743
716.17324	0.03747
714.88747	0.03755
713.60170	0.03764
712.31593	0.03772
711.03016	0.03779
709.74439	0.03786
708.45862	0.03796
707.17285	0.03806
705.88709	0.03816
704.60132	0.03823
703.31555	0.03827
702.02978	0.03828
700.74401	0.03829
699.45824	0.03828
698.17247	0.03826
696.88670	0.03823
695.60094	0.03820
694.31517	0.03819
693.02940	0.03820
691.74363	0.03821
690.45786	0.03822
689.17209	0.03818
687.88632	0.03811
686.60055	0.03802
685.31478	0.03793
684.02902	0.03784
682.74325	0.03776
681.45748	0.03767
680.17171	0.03757
678.88594	0.03749
677.60017	0.03746
676.31440	0.03750
675.02863	0.03762
673.74287	0.03783
672.45710	0.03806
671.17133	0.03825
669.88556	0.03830
668.59979	0.03820
667.31402	0.03808
666.02825	0.03807
664.74248	0.03808
663.45671	0.03801
662.17095	0.03787
660.88518	0.03770
659.59941	0.03758
658.31364	0.03750
657.02787	0.03746
655.74210	0.03745
654.45633	0.03746
653.17056	0.03749
651.88480	0.03753
650.59903	0.03761
649.31326	0.03774
648.02749	0.03790
646.74172	0.03807
645.45595	0.03826
644.17018	0.03850
642.88441	0.03885
641.59864	0.03930
640.31288	0.03979
639.02711	0.04023
637.74134	0.04061
636.45557	0.04098
635.16980	0.04145
633.88403	0.04210
632.59826	0.04307
631.31249	0.04451
630.02673	0.04642
628.74096	0.04775
627.45519	0.04753
626.16942	0.04883
624.88365	0.05128
623.59788	0.05405
622.31211	0.05695
621.02634	0.05979
619.74057	0.06252
618.45481	0.06526
617.16904	0.06817
615.88327	0.07157
614.59750	0.07603
613.31173	0.08200
612.02596	0.08932
610.74019	0.09722
609.45442	0.10488
608.16866	0.11202
606.88289	0.11889
605.59712	0.12536
604.31135	0.13047
603.02558	0.13312
601.73981	0.13300
600.45404	0.13070
599.16827	0.12710
597.88250	0.12287
596.59674	0.11839
595.31097	0.11393
594.02520	0.10976
592.73943	0.10622
591.45366	0.10357
590.16789	0.10192
588.88212	0.10123
587.59635	0.10144
586.31059	0.10244
585.02482	0.10414
583.73905	0.10645
582.45328	0.10933
581.16751	0.11268
579.88174	0.11639
578.59597	0.12034
577.31020	0.12444
576.02443	0.12864
574.73867	0.13284
573.45290	0.13697
572.16713	0.14105
570.88136	0.14526
569.59559	0.14992
568.30982	0.15522
567.02405	0.16106
565.73828	0.16703
564.45251	0.17243
563.16675	0.17643
561.88098	0.17831
560.59521	0.17762
559.30944	0.17422
558.02367	0.16831
556.73790	0.16044
555.45213	0.15136
554.16636	0.14188
552.88060	0.13268
551.59483	0.12411
550.30906	0.11623
549.02329	0.10902
547.73752	0.10244
546.45175	0.09642
545.16598	0.09095
543.88021	0.08610
542.59444	0.08196
541.30868	0.07847
540.02291	0.07545
538.73714	0.07265
537.45137	0.06990
536.16560	0.06724
534.87983	0.06478
533.59406	0.06259
532.30829	0.06064
531.02253	0.05882
529.73676	0.05701
528.45099	0.05519
527.16522	0.05347
525.87945	0.05197
524.59368	0.05077
523.30791	0.04977
522.02214	0.04877
520.73637	0.04768
519.45061	0.04654
518.16484	0.04543
516.87907	0.04438
515.59330	0.04339
514.30753	0.04248
513.02176	0.04165
511.73599	0.04086
510.45022	0.04007
509.16446	0.03925
507.87869	0.03847
506.59292	0.03781
505.30715	0.03731
504.02138	0.03692
502.73561	0.03659
501.44984	0.03624
500.16407	0.03588
498.87830	0.03551
497.59254	0.03516
496.30677	0.03484
495.02100	0.03455
493.73523	0.03430
492.44946	0.03410
491.16369	0.03391
489.87792	0.03368
488.59215	0.03342
487.30639	0.03316
486.02062	0.03294
484.73485	0.03280
483.44908	0.03274
482.16331	0.03274
480.87754	0.03279
479.59177	0.03292
478.30600	0.03316
477.02023	0.03348
475.73447	0.03379
474.44870	0.03409
473.16293	0.03441
471.87716	0.03472
470.59139	0.03490
469.30562	0.03482
468.01985	0.03454
466.73408	0.03419
465.44832	0.03385
464.16255	0.03350
462.87678	0.03309
461.59101	0.03267
460.30524	0.03228
459.01947	0.03191
457.73370	0.03153
456.44793	0.03116
455.16216	0.03083
453.87640	0.03059
452.59063	0.03043
451.30486	0.03030
450.01909	0.03012
448.73332	0.02985
447.44755	0.02956
446.16178	0.02930
444.87601	0.02914
443.59025	0.02906
442.30448	0.02901
441.01871	0.02895
439.73294	0.02888
438.44717	0.02877
437.16140	0.02865
435.87563	0.02853
434.58986	0.02842
433.30409	0.02835
432.01833	0.02833
430.73256	0.02836
429.44679	0.02842
428.16102	0.02845
426.87525	0.02846
425.58948	0.02842
424.30371	0.02838
423.01794	0.02835
421.73218	0.02831
420.44641	0.02825
419.16064	0.02819
417.87487	0.02815
416.58910	0.02813
415.30333	0.02813
414.01756	0.02817
412.73179	0.02827
411.44602	0.02841
410.16026	0.02858
408.87449	0.02880
407.58872	0.02908
406.30295	0.02936
405.01718	0.02960
403.73141	0.02980
402.44564	0.02997
401.15987	0.03013
399.87411	0.03026
