3997.45528	0.06140
3996.16951	0.06239
3994.88374	0.06284
3993.59798	0.06249
3992.31221	0.06148
3991.02644	0.06027
3989.74067	0.05940
3988.45490	0.05923
3987.16913	0.05981
3985.88336	0.06080
3984.59759	0.06151
3983.31183	0.06127
3982.02606	0.05994
3980.74029	0.05809
3979.45452	0.05656
3978.16875	0.05579
3976.88298	0.05576
3975.59721	0.05625
3974.31144	0.05703
3973.02567	0.05778
3971.73991	0.05817
3970.45414	0.05818
3969.16837	0.05815
3967.88260	0.05838
3966.59683	0.05883
3965.31106	0.05924
3964.02529	0.05942
3962.73952	0.05933
3961.45376	0.05903
3960.16799	0.05866
3958.88222	0.05837
3957.59645	0.05827
3956.31068	0.05827
3955.02491	0.05827
3953.73914	0.05828
3952.45337	0.05836
3951.16760	0.05841
3949.88184	0.05844
3948.59607	0.05867
3947.31030	0.05919
3946.02453	0.05962
3944.73876	0.05945
3943.45299	0.05873
3942.16722	0.05800
3940.88145	0.05764
3939.59569	0.05775
3938.30992	0.05829
3937.02415	0.05900
3935.73838	0.05933
3934.45261	0.05903
3933.16684	0.05858
3931.88107	0.05859
3930.59530	0.05898
3929.30953	0.05911
3928.02377	0.05865
3926.73800	0.05781
3925.45223	0.05704
3924.16646	0.05661
3922.88069	0.05645
3921.59492	0.05648
3920.30915	0.05676
3919.02338	0.05714
3917.73762	0.05727
3916.45185	0.05703
3915.16608	0.05655
3913.88031	0.05600
3912.59454	0.05553
3911.30877	0.05521
3910.02300	0.05510
3908.73723	0.05531
3907.45146	0.05584
3906.16570	0.05641
3904.87993	0.05671
3903.59416	0.05659
3902.30839	0.05596
3901.02262	0.05502
3899.73685	0.05434
3898.45108	0.05441
3897.16531	0.05495
3895.87955	0.05519
3894.59378	0.05472
3893.30801	0.05385
3892.02224	0.05343
3890.73647	0.05410
3889.45070	0.05516
3888.16493	0.05522
3886.87916	0.05421
3885.59339	0.05361
3884.30763	0.05413
3883.02186	0.05484
3881.73609	0.05494
3880.45032	0.05499
3879.16455	0.05564
3877.87878	0.05634
3876.59301	0.05622
3875.30724	0.05546
3874.02148	0.05485
3872.73571	0.05453
3871.44994	0.05415
3870.16417	0.05409
3868.87840	0.05475
3867.59263	0.05521
3866.30686	0.05466
3865.02109	0.05369
3863.73532	0.05312
3862.44956	0.05288
3861.16379	0.05280
3859.87802	0.05317
3858.59225	0.05410
3857.30648	0.05490
3856.02071	0.05469
3854.73494	0.05388
3853.44917	0.05403
3852.16341	0.05550
3850.87764	0.05681
3849.59187	0.05684
3848.30610	0.05585
3847.02033	0.05447
3845.73456	0.05316
3844.44879	0.05232
3843.16302	0.05229
3841.87725	0.05293
3840.59149	0.05340
3839.30572	0.05319
3838.01995	0.05285
3836.73418	0.05314
3835.44841	0.05372
3834.16264	0.05374
3832.87687	0.05311
3831.59110	0.05256
3830.30534	0.05265
3829.01957	0.05326
3827.73380	0.05391
3826.44803	0.05433
3825.16226	0.05424
3823.87649	0.05315
3822.59072	0.05141
3821.30495	0.05050
3820.01918	0.05106
3818.73342	0.05172
3817.44765	0.05131
3816.16188	0.05097
3814.87611	0.05201
3813.59034	0.05368
3812.30457	0.05459
3811.01880	0.05451
3809.73303	0.05356
3808.44726	0.05199
3807.16150	0.05090
3805.87573	0.05126
3804.58996	0.05224
3803.30419	0.05247
3802.01842	0.05222
3800.73265	0.05263
3799.44688	0.05327
3798.16111	0.05300
3796.87535	0.05217
3795.58958	0.05188
3794.30381	0.05218
3793.01804	0.05235
3791.73227	0.05209
3790.44650	0.05161
3789.16073	0.05110
3787.87496	0.05054
3786.58919	0.04993
3785.30343	0.04936
3784.01766	0.04897
3782.73189	0.04876
3781.44612	0.04862
3780.16035	0.04872
3778.87458	0.04930
3777.58881	0.05014
3776.30304	0.05072
3775.01728	0.05092
3773.73151	0.05100
3772.44574	0.05111
3771.15997	0.05138
3769.87420	0.05198
3768.58843	0.05262
3767.30266	0.05260
3766.01689	0.05179
3764.73112	0.05075
3763.44536	0.04981
3762.15959	0.04892
3760.87382	0.04836
3759.58805	0.04848
3758.30228	0.04908
3757.01651	0.04970
3755.73074	0.04998
3754.44497	0.04976
3753.15921	0.04938
3751.87344	0.04946
3750.58767	0.05034
3749.30190	0.05193
3748.01613	0.05348
3746.73036	0.05347
3745.44459	0.05200
3744.15882	0.05133
3742.87305	0.05244
3741.58729	0.05385
3740.30152	0.05454
3739.01575	0.05468
3737.72998	0.05444
3736.44421	0.05405
3735.15844	0.05383
3733.87267	0.05372
3732.58690	0.05380
3731.30114	0.05432
3730.01537	0.05478
3728.72960	0.05423
3727.44383	0.05284
3726.15806	0.05175
3724.87229	0.05149
3723.58652	0.05171
3722.30075	0.05215
3721.01498	0.05280
3719.72922	0.05331
3718.44345	0.05333
3717.15768	0.05298
3715.87191	0.05247
3714.58614	0.05173
3713.30037	0.05108
3712.01460	0.05115
3710.72883	0.05203
3709.44307	0.05290
3708.15730	0.05303
3706.87153	0.05243
3705.58576	0.05156
3704.29999	0.05084
3703.01422	0.05053
3701.72845	0.05069
3700.44268	0.05113
3699.15691	0.05142
3697.87115	0.05153
3696.58538	0.05189
3695.29961	0.05253
3694.01384	0.05295
3692.72807	0.05288
3691.44230	0.05222
3690.15653	0.05095
3688.87076	0.04969
3687.58500	0.04928
3686.29923	0.04958
3685.01346	0.04985
3683.72769	0.04998
3682.44192	0.05030
3681.15615	0.05077
3679.87038	0.05097
3678.58461	0.05023
3677.29884	0.04859
3676.01308	0.04754
3674.72731	0.04834
3673.44154	0.04980
3672.15577	0.04973
3670.87000	0.04837
3669.58423	0.04765
3668.29846	0.04808
3667.01269	0.04871
3665.72693	0.04905
3664.44116	0.04922
3663.15539	0.04934
3661.86962	0.04938
3660.58385	0.04937
3659.29808	0.04922
3658.01231	0.04887
3656.72654	0.04877
3655.44077	0.04947
3654.15501	0.05049
3652.86924	0.05062
3651.58347	0.04964
3650.29770	0.04868
3649.01193	0.04885
3647.72616	0.05016
3646.44039	0.05179
3645.15462	0.05294
3643.86886	0.05339
3642.58309	0.05335
3641.29732	0.05310
3640.01155	0.05265
3638.72578	0.05206
3637.44001	0.05163
3636.15424	0.05168
3634.86847	0.05235
3633.58270	0.05355
3632.29694	0.05461
3631.01117	0.05482
3629.72540	0.05448
3628.43963	0.05453
3627.15386	0.05499
3625.86809	0.05514
3624.58232	0.05504
3623.29655	0.05524
3622.01079	0.05558
3620.72502	0.05568
3619.43925	0.05570
3618.15348	0.05596
3616.86771	0.05631
3615.58194	0.05645
3614.29617	0.05651
3613.01040	0.05685
3611.72463	0.05751
3610.43887	0.05821
3609.15310	0.05883
3607.86733	0.05929
3606.58156	0.05941
3605.29579	0.05926
3604.01002	0.05931
3602.72425	0.05988
3601.43848	0.06079
3600.15272	0.06153
3598.86695	0.06165
3597.58118	0.06115
3596.29541	0.06051
3595.00964	0.06016
3593.72387	0.06034
3592.43810	0.06103
3591.15233	0.06183
3589.86656	0.06233
3588.58080	0.06258
3587.29503	0.06284
3586.00926	0.06306
3584.72349	0.06298
3583.43772	0.06254
3582.15195	0.06205
3580.86618	0.06187
3579.58041	0.06206
3578.29464	0.06250
3577.00888	0.06306
3575.72311	0.06365
3574.43734	0.06415
3573.15157	0.06449
3571.86580	0.06475
3570.58003	0.06494
3569.29426	0.06491
3568.00849	0.06459
3566.72273	0.06409
3565.43696	0.06360
3564.15119	0.06315
3562.86542	0.06285
3561.57965	0.06284
3560.29388	0.06308
3559.00811	0.06345
3557.72234	0.06388
3556.43657	0.06448
3555.15081	0.06536
3553.86504	0.06647
3552.57927	0.06761
3551.29350	0.06848
3550.00773	0.06882
3548.72196	0.06855
3547.43619	0.06803
3546.15042	0.06775
3544.86466	0.06790
3543.57889	0.06824
3542.29312	0.06845
3541.00735	0.06847
3539.72158	0.06847
3538.43581	0.06867
3537.15004	0.06907
3535.86427	0.06951
3534.57850	0.06980
3533.29274	0.06985
3532.00697	0.06971
3530.72120	0.06947
3529.43543	0.06922
3528.14966	0.06900
3526.86389	0.06895
3525.57812	0.06921
3524.29235	0.06983
3523.00659	0.07069
3521.72082	0.07145
3520.43505	0.07183
3519.14928	0.07190
3517.86351	0.07197
3516.57774	0.07219
3515.29197	0.07244
3514.00620	0.07253
3512.72043	0.07242
3511.43467	0.07216
3510.14890	0.07181
3508.86313	0.07146
3507.57736	0.07125
3506.29159	0.07127
3505.00582	0.07154
3503.72005	0.07202
3502.43428	0.07260
3501.14852	0.07313
3499.86275	0.07355
3498.57698	0.07402
3497.29121	0.07467
3496.00544	0.07533
3494.71967	0.07564
3493.43390	0.07545
3492.14813	0.07496
3490.86236	0.07461
3489.57660	0.07462
3488.29083	0.07491
3487.00506	0.07528
3485.71929	0.07560
3484.43352	0.07584
3483.14775	0.07607
3481.86198	0.07635
3480.57621	0.07663
3479.29045	0.07677
3478.00468	0.07673
3476.71891	0.07663
3475.43314	0.07669
3474.14737	0.07702
3472.86160	0.07750
3471.57583	0.07779
3470.29006	0.07768
3469.00429	0.07723
3467.71853	0.07669
3466.43276	0.07635
3465.14699	0.07631
3463.86122	0.07661
3462.57545	0.07721
3461.28968	0.07803
3460.00391	0.07886
3458.71814	0.07944
3457.43238	0.07963
3456.14661	0.07947
3454.86084	0.07915
3453.57507	0.07888
3452.28930	0.07876
3451.00353	0.07882
3449.71776	0.07894
3448.43199	0.07900
3447.14622	0.07902
3445.86046	0.07916
3444.57469	0.07951
3443.28892	0.07996
3442.00315	0.08034
3440.71738	0.08051
3439.43161	0.08050
3438.14584	0.08050
3436.86007	0.08063
3435.57431	0.08086
3434.28854	0.08109
3433.00277	0.08126
3431.71700	0.08133
3430.43123	0.08124
3429.14546	0.08104
3427.85969	0.08100
3426.57392	0.08136
3425.28815	0.08207
3424.00239	0.08270
3422.71662	0.08294
3421.43085	0.08284
3420.14508	0.08270
3418.85931	0.08276
3417.57354	0.08295
3416.28777	0.08298
3415.00200	0.08266
3413.71624	0.08210
3412.43047	0.08166
3411.14470	0.08164
3409.85893	0.08201
3408.57316	0.08252
3407.28739	0.08297
3406.00162	0.08331
3404.71585	0.08353
3403.43008	0.08372
3402.14432	0.08402
3400.85855	0.08447
3399.57278	0.08487
3398.28701	0.08488
3397.00124	0.08443
3395.71547	0.08381
3394.42970	0.08332
3393.14393	0.08300
3391.85817	0.08279
3390.57240	0.08273
3389.28663	0.08297
3388.00086	0.08350
3386.71509	0.08406
3385.42932	0.08448
3384.14355	0.08481
3382.85778	0.08516
3381.57201	0.08538
3380.28625	0.08524
3379.00048	0.08474
3377.71471	0.08413
3376.42894	0.08359
3375.14317	0.08317
3373.85740	0.08296
3372.57163	0.08321
3371.28586	0.08393
3370.00010	0.08465
3368.71433	0.08474
3367.42856	0.08412
3366.14279	0.08328
3364.85702	0.08278
3363.57125	0.08276
3362.28548	0.08296
3360.99971	0.08310
3359.71394	0.08309
3358.42818	0.08300
3357.14241	0.08292
3355.85664	0.08286
3354.57087	0.08274
3353.28510	0.08257
3351.99933	0.08245
3350.71356	0.08249
3349.42779	0.08273
3348.14202	0.08303
3346.85626	0.08326
3345.57049	0.08333
3344.28472	0.08331
3342.99895	0.08337
3341.71318	0.08355
3340.42741	0.08373
3339.14164	0.08363
3337.85587	0.08320
3336.57011	0.08262
3335.28434	0.08219
3333.99857	0.08206
3332.71280	0.08213
3331.42703	0.08218
3330.14126	0.08204
3328.85549	0.08175
3327.56972	0.08149
3326.28395	0.08152
3324.99819	0.08182
3323.71242	0.08214
3322.42665	0.08223
3321.14088	0.08217
3319.85511	0.08224
3318.56934	0.08253
3317.28357	0.08278
3315.99780	0.08270
3314.71204	0.08222
3313.42627	0.08158
3312.14050	0.08106
3310.85473	0.08076
3309.56896	0.08063
3308.28319	0.08070
3306.99742	0.08104
3305.71165	0.08159
3304.42588	0.08204
3303.14012	0.08211
3301.85435	0.08184
3300.56858	0.08152
3299.28281	0.08132
3297.99704	0.08117
3296.71127	0.08090
3295.42550	0.08055
3294.13973	0.08027
3292.85397	0.08009
3291.56820	0.07995
3290.28243	0.07985
3288.99666	0.07986
3287.71089	0.07998
3286.42512	0.08002
3285.13935	0.07984
3283.85358	0.07948
3282.56781	0.07908
3281.28205	0.07877
3279.99628	0.07863
3278.71051	0.07868
3277.42474	0.07886
3276.13897	0.07897
3274.85320	0.07888
3273.56743	0.07869
3272.28166	0.07863
3270.99590	0.07885
3269.71013	0.07926
3268.42436	0.07967
3267.13859	0.07990
3265.85282	0.07996
3264.56705	0.07994
3263.28128	0.07994
3261.99551	0.07991
3260.70974	0.07978
3259.42398	0.07954
3258.13821	0.07921
3256.85244	0.07882
3255.56667	0.07841
3254.28090	0.07809
3252.99513	0.07800
3251.70936	0.07815
3250.42359	0.07848
3249.13783	0.07887
3247.85206	0.07919
3246.56629	0.07925
3245.28052	0.07897
3243.99475	0.07850
3242.70898	0.07809
3241.42321	0.07785
3240.13744	0.07761
3238.85167	0.07714
3237.56591	0.07643
3236.28014	0.07572
3234.99437	0.07531
3233.70860	0.07532
3232.42283	0.07558
3231.13706	0.07582
3229.85129	0.07586
3228.56552	0.07583
3227.27976	0.07598
3225.99399	0.07637
3224.70822	0.07670
3223.42245	0.07668
3222.13668	0.07632
3220.85091	0.07592
3219.56514	0.07569
3218.27937	0.07553
3216.99360	0.07529
3215.70784	0.07493
3214.42207	0.07465
3213.13630	0.07460
3211.85053	0.07473
3210.56476	0.07479
3209.27899	0.07455
3207.99322	0.07395
3206.70745	0.07318
3205.42169	0.07256
3204.13592	0.07228
3202.85015	0.07236
3201.56438	0.07268
3200.27861	0.07309
3198.99284	0.07348
3197.70707	0.07381
3196.42130	0.07402
3195.13553	0.07402
3193.84977	0.07380
3192.56400	0.07351
3191.27823	0.07330
3189.99246	0.07321
3188.70669	0.07318
3187.42092	0.07314
3186.13515	0.07303
3184.84938	0.07279
3183.56362	0.07243
3182.27785	0.07210
3180.99208	0.07195
3179.70631	0.07194
3178.42054	0.07187
3177.13477	0.07162
3175.84900	0.07131
3174.56323	0.07114
3173.27746	0.07120
3171.99170	0.07137
3170.70593	0.07145
3169.42016	0.07139
3168.13439	0.07123
3166.84862	0.07107
3165.56285	0.07083
3164.27708	0.07043
3162.99131	0.06991
3161.70555	0.06949
3160.41978	0.06934
3159.13401	0.06950
3157.84824	0.06982
3156.56247	0.07007
3155.27670	0.07002
3153.99093	0.06961
3152.70516	0.06910
3151.41939	0.06888
3150.13363	0.06903
3148.84786	0.06925
3147.56209	0.06919
3146.27632	0.06882
3144.99055	0.06843
3143.70478	0.06820
3142.41901	0.06806
3141.13324	0.06788
3139.84748	0.06767
3138.56171	0.06755
3137.27594	0.06761
3135.99017	0.06779
3134.70440	0.06792
3133.41863	0.06791
3132.13286	0.06772
3130.84709	0.06740
3129.56132	0.06700
3128.27556	0.06660
3126.98979	0.06632
3125.70402	0.06625
3124.41825	0.06633
3123.13248	0.06641
3121.84671	0.06633
3120.56094	0.06598
3119.27517	0.06544
3117.98940	0.06497
3116.70364	0.06475
3115.41787	0.06476
3114.13210	0.06482
3112.84633	0.06484
3111.56056	0.06489
3110.27479	0.06501
3108.98902	0.06509
3107.70325	0.06508
3106.41749	0.06509
3105.13172	0.06524
3103.84595	0.06547
3102.56018	0.06555
3101.27441	0.06535
3099.98864	0.06501
3098.70287	0.06471
3097.41710	0.06453
3096.13133	0.06436
3094.84557	0.06408
3093.55980	0.06365
3092.27403	0.06317
3090.98826	0.06279
3089.70249	0.06255
3088.41672	0.06242
3087.13095	0.06234
3085.84518	0.06236
3084.55942	0.06253
3083.27365	0.06280
3081.98788	0.06300
3080.70211	0.06296
3079.41634	0.06269
3078.13057	0.06229
3076.84480	0.06184
3075.55903	0.06142
3074.27326	0.06105
3072.98750	0.06083
3071.70173	0.06075
3070.41596	0.06075
3069.13019	0.06074
3067.84442	0.06074
3066.55865	0.06083
3065.27288	0.06109
3063.98711	0.06147
3062.70135	0.06174
3061.41558	0.06173
3060.12981	0.06148
3058.84404	0.06118
3057.55827	0.06097
3056.27250	0.06078
3054.98673	0.06056
3053.70096	0.06030
3052.41519	0.06004
3051.12943	0.05979
3049.84366	0.05954
3048.55789	0.05921
3047.27212	0.05877
3045.98635	0.05827
3044.70058	0.05789
3043.41481	0.05781
3042.12904	0.05801
3040.84328	0.05832
3039.55751	0.05854
3038.27174	0.05864
3036.98597	0.05865
3035.70020	0.05859
3034.41443	0.05850
3033.12866	0.05845
3031.84289	0.05846
3030.55712	0.05841
3029.27136	0.05816
3027.98559	0.05773
3026.69982	0.05734
3025.41405	0.05717
3024.12828	0.05719
3022.84251	0.05722
3021.55674	0.05712
3020.27097	0.05685
3018.98521	0.05649
3017.69944	0.05619
3016.41367	0.05601
3015.12790	0.05592
3013.84213	0.05577
3012.55636	0.05554
3011.27059	0.05536
3009.98482	0.05534
3008.69905	0.05541
3007.41329	0.05545
3006.12752	0.05549
3004.84175	0.05561
3003.55598	0.05579
3002.27021	0.05590
3000.98444	0.05582
2999.69867	0.05557
2998.41290	0.05521
2997.12714	0.05482
2995.84137	0.05452
2994.55560	0.05450
2993.26983	0.05479
2991.98406	0.05533
2990.69829	0.05599
2989.41252	0.05661
2988.12675	0.05699
2986.84098	0.05697
2985.55522	0.05651
2984.26945	0.05585
2982.98368	0.05539
2981.69791	0.05543
2980.41214	0.05600
2979.12637	0.05688
2977.84060	0.05785
2976.55483	0.05879
2975.26907	0.05971
2973.98330	0.06060
2972.69753	0.06145
2971.41176	0.06228
2970.12599	0.06310
2968.84022	0.06390
2967.55445	0.06469
2966.26868	0.06551
2964.98291	0.06639
2963.69715	0.06737
2962.41138	0.06844
2961.12561	0.06949
2959.83984	0.07047
2958.55407	0.07145
2957.26830	0.07254
2955.98253	0.07370
2954.69676	0.07470
2953.41100	0.07530
2952.12523	0.07544
2950.83946	0.07532
2949.55369	0.07513
2948.26792	0.07491
2946.98215	0.07455
2945.69638	0.07404
2944.41061	0.07354
2943.12484	0.07330
2941.83908	0.07344
2940.55331	0.07393
2939.26754	0.07471
2937.98177	0.07570
2936.69600	0.07683
2935.41023	0.07792
2934.12446	0.07887
2932.83869	0.07967
2931.55293	0.08030
2930.26716	0.08078
2928.98139	0.08116
2927.69562	0.08156
2926.40985	0.08198
2925.12408	0.08232
2923.83831	0.08252
2922.55254	0.08254
2921.26677	0.08232
2919.98101	0.08174
2918.69524	0.08080
2917.40947	0.07971
2916.12370	0.07874
2914.83793	0.07801
2913.55216	0.07743
2912.26639	0.07679
2910.98062	0.07605
2909.69486	0.07523
2908.40909	0.07435
2907.12332	0.07340
2905.83755	0.07243
2904.55178	0.07157
2903.26601	0.07092
2901.98024	0.07042
2900.69447	0.06996
2899.40870	0.06949
2898.12294	0.06899
2896.83717	0.06842
2895.55140	0.06774
2894.26563	0.06700
2892.97986	0.06633
2891.69409	0.06579
2890.40832	0.06535
2889.12255	0.06488
2887.83678	0.06427
2886.55102	0.06351
2885.26525	0.06277
2883.97948	0.06225
2882.69371	0.06203
2881.40794	0.06206
2880.12217	0.06226
2878.83640	0.06265
2877.55063	0.06330
2876.26487	0.06413
2874.97910	0.06484
2873.69333	0.06517
2872.40756	0.06507
2871.12179	0.06478
2869.83602	0.06460
2868.55025	0.06467
2867.26448	0.06494
2865.97871	0.06521
2864.69295	0.06530
2863.40718	0.06517
2862.12141	0.06490
2860.83564	0.06461
2859.54987	0.06436
2858.26410	0.06417
2856.97833	0.06402
2855.69256	0.06387
2854.40680	0.06371
2853.12103	0.06362
2851.83526	0.06361
2850.54949	0.06347
2849.26372	0.06295
2847.97795	0.06195
2846.69218	0.06065
2845.40641	0.05931
2844.12064	0.05810
2842.83488	0.05705
2841.54911	0.05620
2840.26334	0.05551
2838.97757	0.05488
2837.69180	0.05418
2836.40603	0.05330
2835.12026	0.05231
2833.83449	0.05141
2832.54873	0.05077
2831.26296	0.05039
2829.97719	0.05019
2828.69142	0.05005
2827.40565	0.04986
2826.11988	0.04950
2824.83411	0.04897
2823.54834	0.04839
2822.26257	0.04792
2820.97681	0.04755
2819.69104	0.04718
2818.40527	0.04676
2817.11950	0.04643
2815.83373	0.04627
2814.54796	0.04626
2813.26219	0.04634
2811.97642	0.04649
2810.69066	0.04665
2809.40489	0.04668
2808.11912	0.04648
2806.83335	0.04608
2805.54758	0.04559
2804.26181	0.04512
2802.97604	0.04475
2801.69027	0.04455
2800.40450	0.04454
2799.11874	0.04461
2797.83297	0.04463
2796.54720	0.04458
2795.26143	0.04452
2793.97566	0.04448
2792.68989	0.04443
2791.40412	0.04434
2790.11835	0.04417
2788.83259	0.04393
2787.54682	0.04368
2786.26105	0.04350
2784.97528	0.04344
2783.68951	0.04343
2782.40374	0.04337
2781.11797	0.04322
2779.83220	0.04299
2778.54643	0.04278
2777.26067	0.04264
2775.97490	0.04257
2774.68913	0.04254
2773.40336	0.04254
2772.11759	0.04259
2770.83182	0.04266
2769.54605	0.04270
2768.26028	0.04273
2766.97452	0.04281
2765.68875	0.04294
2764.40298	0.04303
2763.11721	0.04295
2761.83144	0.04263
2760.54567	0.04215
2759.25990	0.04163
2757.97413	0.04125
2756.68836	0.04111
2755.40260	0.04120
2754.11683	0.04140
2752.83106	0.04157
2751.54529	0.04159
2750.25952	0.04145
2748.97375	0.04122
2747.68798	0.04099
2746.40221	0.04088
2745.11645	0.04091
2743.83068	0.04108
2742.54491	0.04137
2741.25914	0.04168
2739.97337	0.04185
2738.68760	0.04175
2737.40183	0.04145
2736.11606	0.04113
2734.83029	0.04091
2733.54453	0.04079
2732.25876	0.04071
2730.97299	0.04063
2729.68722	0.04054
2728.40145	0.04044
2727.11568	0.04034
2725.82991	0.04027
2724.54414	0.04023
2723.25838	0.04021
2721.97261	0.04019
2720.68684	0.04019
2719.40107	0.04018
2718.11530	0.04013
2716.82953	0.04002
2715.54376	0.03988
2714.25799	0.03974
2712.97222	0.03962
2711.68646	0.03951
2710.40069	0.03943
2709.11492	0.03940
2707.82915	0.03941
2706.54338	0.03940
2705.25761	0.03933
2703.97184	0.03920
2702.68607	0.03906
2701.40031	0.03893
2700.11454	0.03884
2698.82877	0.03877
2697.54300	0.03876
2696.25723	0.03881
2694.97146	0.03889
2693.68569	0.03890
2692.39992	0.03875
2691.11415	0.03849
2689.82839	0.03825
2688.54262	0.03813
2687.25685	0.03815
2685.97108	0.03818
2684.68531	0.03814
2683.39954	0.03805
2682.11377	0.03797
2680.82800	0.03797
2679.54224	0.03806
2678.25647	0.03820
2676.97070	0.03826
2675.68493	0.03815
2674.39916	0.03785
2673.11339	0.03754
2671.82762	0.03737
2670.54185	0.03737
2669.25608	0.03744
2667.97032	0.03748
2666.68455	0.03744
2665.39878	0.03739
2664.11301	0.03743
2662.82724	0.03762
2661.54147	0.03785
2660.25570	0.03796
2658.96993	0.03782
2657.68417	0.03752
2656.39840	0.03723
2655.11263	0.03706
2653.82686	0.03699
2652.54109	0.03695
2651.25532	0.03690
2649.96955	0.03684
2648.68378	0.03675
2647.39801	0.03660
2646.11225	0.03639
2644.82648	0.03618
2643.54071	0.03608
2642.25494	0.03610
2640.96917	0.03620
2639.68340	0.03627
2638.39763	0.03621
2637.11186	0.03599
2635.82609	0.03564
2634.54033	0.03527
2633.25456	0.03497
2631.96879	0.03477
2630.68302	0.03459
2629.39725	0.03438
2628.11148	0.03420
2626.82571	0.03408
2625.53994	0.03391
2624.25418	0.03354
2622.96841	0.03302
2621.68264	0.03268
2620.39687	0.03279
2619.11110	0.03321
2617.82533	0.03348
2616.53956	0.03332
2615.25379	0.03283
2613.96802	0.03232
2612.68226	0.03198
2611.39649	0.03177
2610.11072	0.03165
2608.82495	0.03169
2607.53918	0.03195
2606.25341	0.03234
2604.96764	0.03260
2603.68187	0.03255
2602.39611	0.03224
2601.11034	0.03189
2599.82457	0.03167
2598.53880	0.03158
2597.25303	0.03154
2595.96726	0.03146
2594.68149	0.03138
2593.39572	0.03140
2592.10995	0.03156
2590.82419	0.03180
2589.53842	0.03201
2588.25265	0.03205
2586.96688	0.03183
2585.68111	0.03145
2584.39534	0.03113
2583.10957	0.03108
2581.82380	0.03128
2580.53804	0.03145
2579.25227	0.03128
2577.96650	0.03077
2576.68073	0.03017
2575.39496	0.02976
2574.10919	0.02962
2572.82342	0.02962
2571.53765	0.02969
2570.25188	0.02986
2568.96612	0.03015
2567.68035	0.03051
2566.39458	0.03073
2565.10881	0.03070
2563.82304	0.03043
2562.53727	0.03007
2561.25150	0.02974
2559.96573	0.02953
2558.67997	0.02949
2557.39420	0.02970
2556.10843	0.03014
2554.82266	0.03061
2553.53689	0.03093
2552.25112	0.03104
2550.96535	0.03096
2549.67958	0.03073
2548.39381	0.03049
2547.10805	0.03038
2545.82228	0.03039
2544.53651	0.03041
2543.25074	0.03037
2541.96497	0.03037
2540.67920	0.03045
2539.39343	0.03046
2538.10766	0.03013
2536.82190	0.02945
2535.53613	0.02866
2534.25036	0.02809
2532.96459	0.02786
2531.67882	0.02784
2530.39305	0.02786
2529.10728	0.02790
2527.82151	0.02798
2526.53574	0.02798
2525.24998	0.02783
2523.96421	0.02769
2522.67844	0.02783
2521.39267	0.02829
2520.10690	0.02883
2518.82113	0.02914
2517.53536	0.02911
2516.24959	0.02880
2514.96383	0.02838
2513.67806	0.02799
2512.39229	0.02772
2511.10652	0.02759
2509.82075	0.02764
2508.53498	0.02781
2507.24921	0.02792
2505.96344	0.02790
2504.67767	0.02786
2503.39191	0.02798
2502.10614	0.02818
2500.82037	0.02821
2499.53460	0.02800
2498.24883	0.02775
2496.96306	0.02774
2495.67729	0.02808
2494.39152	0.02854
2493.10576	0.02886
2491.81999	0.02890
2490.53422	0.02870
2489.24845	0.02834
2487.96268	0.02794
2486.67691	0.02759
2485.39114	0.02737
2484.10537	0.02722
2482.81960	0.02709
2481.53384	0.02702
2480.24807	0.02702
2478.96230	0.02694
2477.67653	0.02665
2476.39076	0.02630
2475.10499	0.02627
2473.81922	0.02665
2472.53345	0.02711
2471.24769	0.02725
2469.96192	0.02705
2468.67615	0.02683
2467.39038	0.02682
2466.10461	0.02697
2464.81884	0.02708
2463.53307	0.02709
2462.24730	0.02701
2460.96153	0.02686
2459.67577	0.02670
2458.39000	0.02669
2457.10423	0.02692
2455.81846	0.02726
2454.53269	0.02742
2453.24692	0.02726
2451.96115	0.02691
2450.67538	0.02660
2449.38962	0.02648
2448.10385	0.02654
2446.81808	0.02665
2445.53231	0.02668
2444.24654	0.02658
2442.96077	0.02645
2441.67500	0.02634
2440.38923	0.02629
2439.10346	0.02624
2437.81770	0.02619
2436.53193	0.02617
2435.24616	0.02624
2433.96039	0.02638
2432.67462	0.02651
2431.38885	0.02649
2430.10308	0.02627
2428.81731	0.02594
2427.53155	0.02560
2426.24578	0.02530
2424.96001	0.02498
2423.67424	0.02467
2422.38847	0.02454
2421.10270	0.02475
2419.81693	0.02522
2418.53116	0.02563
2417.24539	0.02570
2415.95963	0.02553
2414.67386	0.02541
2413.38809	0.02551
2412.10232	0.02574
2410.81655	0.02594
2409.53078	0.02598
2408.24501	0.02590
2406.95924	0.02579
2405.67347	0.02573
2404.38771	0.02567
2403.10194	0.02550
2401.81617	0.02519
2400.53040	0.02467
2399.24463	0.02094
2397.95886	0.01868
2396.67309	0.01900
2395.38732	0.02064
2394.10156	0.02258
2392.81579	0.02444
2391.53002	0.02615
2390.24425	0.02774
2388.95848	0.02933
2387.67271	0.03096
2386.38694	0.03260
2385.10117	0.03405
2383.81540	0.03502
2382.52964	0.03537
2381.24387	0.03510
2379.95810	0.03447
2378.67233	0.03378
2377.38656	0.03332
2376.10079	0.03353
2374.81502	0.03457
2373.52925	0.03615
2372.24349	0.03780
2370.95772	0.03909
2369.67195	0.04039
2368.38618	0.04194
2367.10041	0.04357
2365.81464	0.04543
2364.52887	0.04780
2363.24310	0.05013
2361.95733	0.05150
2360.67157	0.05168
2359.38580	0.05144
2358.10003	0.05124
2356.81426	0.05184
2355.52849	0.05368
2354.24272	0.05592
2352.95695	0.05806
2351.67118	0.05949
2350.38542	0.05949
2349.09965	0.05882
2347.81388	0.05802
2346.52811	0.05617
2345.24234	0.05349
2343.95657	0.05164
2342.67080	0.05144
2341.38503	0.05207
2340.09926	0.05257
2338.81350	0.05268
2337.52773	0.05249
2336.24196	0.05266
2334.95619	0.05292
2333.67042	0.05258
2332.38465	0.05215
2331.09888	0.05218
2329.81311	0.05302
2328.52735	0.05468
2327.24158	0.05574
2325.95581	0.05492
2324.67004	0.05203
2323.38427	0.04742
2322.09850	0.04247
2320.81273	0.03889
2319.52696	0.03702
2318.24119	0.03635
2316.95543	0.03624
2315.66966	0.03597
2314.38389	0.03517
2313.09812	0.03403
2311.81235	0.03314
2310.52658	0.03282
2309.24081	0.03298
2307.95504	0.03338
2306.66928	0.03379
2305.38351	0.03406
2304.09774	0.03403
2302.81197	0.03363
2301.52620	0.03303
2300.24043	0.03251
2298.95466	0.03228
2297.66889	0.03227
2296.38312	0.03229
2295.09736	0.03219
2293.81159	0.03192
2292.52582	0.03145
2291.24005	0.03080
2289.95428	0.02998
2288.66851	0.02899
2287.38274	0.02781
2286.09697	0.02646
2284.81121	0.02510
2283.52544	0.02397
2282.23967	0.02320
2280.95390	0.02276
2279.66813	0.02247
2278.38236	0.02223
2277.09659	0.02206
2275.81082	0.02195
2274.52505	0.02182
2273.23929	0.02153
2271.95352	0.02111
2270.66775	0.02080
2269.38198	0.02090
2268.09621	0.02144
2266.81044	0.02214
2265.52467	0.02262
2264.23890	0.02269
2262.95314	0.02248
2261.66737	0.02228
2260.38160	0.02227
2259.09583	0.02234
2257.81006	0.02231
2256.52429	0.02207
2255.23852	0.02179
2253.95275	0.02171
2252.66698	0.02192
2251.38122	0.02210
2250.09545	0.02120
2248.80968	0.01894
2247.52391	0.01838
2246.23814	0.01868
2244.95237	0.01968
2243.66660	0.02080
2242.38083	0.02141
2241.09507	0.02127
2239.80930	0.02054
2238.52353	0.01953
2237.23776	0.01859
2235.95199	0.01791
2234.66622	0.01755
2233.38045	0.01747
2232.09468	0.01750
2230.80891	0.01741
2229.52315	0.01709
2228.23738	0.01668
2226.95161	0.01649
2225.66584	0.01658
2224.38007	0.01656
2223.09430	0.01596
2221.80853	0.01477
2220.52276	0.01370
2219.23700	0.01352
2217.95123	0.01430
2216.66546	0.01537
2215.37969	0.01600
2214.09392	0.01608
2212.80815	0.01595
2211.52238	0.01583
2210.23661	0.01568
2208.95084	0.01541
2207.66508	0.01512
2206.37931	0.01502
2205.09354	0.01509
2203.80777	0.01513
2202.52200	0.01503
2201.23623	0.01483
2199.95046	0.01452
2198.66469	0.01393
2197.37893	0.01302
2196.09316	0.01214
2194.80739	0.01169
2193.52162	0.01177
2192.23585	0.01207
2190.95008	0.01220
2189.66431	0.01198
2188.37854	0.01163
2187.09277	0.01162
2185.80701	0.01229
2184.52124	0.01344
2183.23547	0.01445
2181.94970	0.01470
2180.66393	0.01409
2179.37816	0.01298
2178.09239	0.01184
2176.80662	0.01099
2175.52085	0.01061
2174.23509	0.01063
2172.94932	0.01082
2171.66355	0.01091
2170.37778	0.01088
2169.09201	0.01082
2167.80624	0.01062
2166.52047	0.01002
2165.23470	0.00911
2163.94894	0.00849
2162.66317	0.00865
2161.37740	0.00930
2160.09163	0.00958
2158.80586	0.00902
2157.52009	0.00792
2156.23432	0.00689
2154.94855	0.00618
2153.66278	0.00579
2152.37702	0.00569
2151.09125	0.00591
2149.80548	0.00646
2148.51971	0.00735
2147.23394	0.00849
2145.94817	0.00964
2144.66240	0.01061
2143.37663	0.01127
2142.09087	0.01157
2140.80510	0.01152
2139.51933	0.01132
2138.23356	0.01123
2136.94779	0.01124
2135.66202	0.01118
2134.37625	0.01098
2133.09048	0.01078
2131.80471	0.01068
2130.51895	0.01078
2129.23318	0.01116
2127.94741	0.01180
2126.66164	0.01242
2125.37587	0.01274
2124.09010	0.01276
2122.80433	0.01277
2121.51856	0.01300
2120.23280	0.01337
2118.94703	0.01358
2117.66126	0.01351
2116.37549	0.01330
2115.08972	0.01317
2113.80395	0.01316
2112.51818	0.01310
2111.23241	0.01288
2109.94664	0.01260
2108.66088	0.01238
2107.37511	0.01226
2106.08934	0.01217
2104.80357	0.01195
2103.51780	0.01154
2102.23203	0.01106
2100.94626	0.01085
2099.66049	0.01123
2098.37473	0.01188
2097.08896	0.01235
2095.80319	0.01237
2094.51742	0.01209
2093.23165	0.01194
2091.94588	0.01214
2090.66011	0.01253
2089.37434	0.01281
2088.08857	0.01284
2086.80281	0.01267
2085.51704	0.01243
2084.23127	0.01215
2082.94550	0.01180
2081.65973	0.01141
2080.37396	0.01112
2079.08819	0.01098
2077.80242	0.01096
2076.51666	0.01090
2075.23089	0.01072
2073.94512	0.01038
2072.65935	0.00998
2071.37358	0.00970
2070.08781	0.00960
2068.80204	0.00955
2067.51627	0.00937
2066.23050	0.00909
2064.94474	0.00894
2063.65897	0.00906
2062.37320	0.00938
2061.08743	0.00975
2059.80166	0.01005
2058.51589	0.01015
2057.23012	0.00990
2055.94435	0.00929
2054.65859	0.00858
2053.37282	0.00805
2052.08705	0.00774
2050.80128	0.00745
2049.51551	0.00696
2048.22974	0.00632
2046.94397	0.00585
2045.65820	0.00580
2044.37243	0.00608
2043.08667	0.00639
2041.80090	0.00658
2040.51513	0.00681
2039.22936	0.00707
2037.94359	0.00700
2036.65782	0.00626
2035.37205	0.00500
2034.08628	0.00371
2032.80052	0.00269
2031.51475	0.00195
2030.22898	0.00156
2028.94321	0.00183
2027.65744	0.00300
2026.37167	0.00489
2025.08590	0.00682
2023.80013	0.00798
2022.51436	0.00797
2021.22860	0.00708
2019.94283	0.00593
2018.65706	0.00497
2017.37129	0.00441
2016.08552	0.00444
2014.79975	0.00515
2013.51398	0.00625
2012.22821	0.00717
2010.94245	0.00747
2009.65668	0.00711
2008.37091	0.00640
2007.08514	0.00574
2005.79937	0.00546
2004.51360	0.00556
2003.22783	0.00588
2001.94206	0.00628
2000.65629	0.00679
1999.37053	0.00754
1998.08476	0.00839
1996.79899	0.00892
1995.51322	0.00880
1994.22745	0.00824
1992.94168	0.00772
1991.65591	0.00752
1990.37014	0.00755
1989.08438	0.00771
1987.79861	0.00814
1986.51284	0.00898
1985.22707	0.01008
1983.94130	0.01099
1982.65553	0.01141
1981.36976	0.01127
1980.08399	0.01074
1978.79822	0.01002
1977.51246	0.00928
1976.22669	0.00869
1974.94092	0.00838
1973.65515	0.00824
1972.36938	0.00796
1971.08361	0.00740
1969.79784	0.00680
1968.51207	0.00660
1967.22631	0.00700
1965.94054	0.00776
1964.65477	0.00842
1963.36900	0.00870
1962.08323	0.00869
1960.79746	0.00868
1959.51169	0.00888
1958.22592	0.00931
1956.94015	0.00987
1955.65439	0.01044
1954.36862	0.01098
1953.08285	0.01149
1951.79708	0.01195
1950.51131	0.01220
1949.22554	0.01211
1947.93977	0.01179
1946.65400	0.01160
1945.36823	0.01178
1944.08247	0.01221
1942.79670	0.01255
1941.51093	0.01261
1940.22516	0.01239
1938.93939	0.01203
1937.65362	0.01163
1936.36785	0.01125
1935.08208	0.01097
1933.79632	0.01093
1932.51055	0.01123
1931.22478	0.01179
1929.93901	0.01244
1928.65324	0.01303
1927.36747	0.01342
1926.08170	0.01347
1924.79593	0.01314
1923.51016	0.01268
1922.22440	0.01237
1920.93863	0.01222
1919.65286	0.01207
1918.36709	0.01193
1917.08132	0.01199
1915.79555	0.01228
1914.50978	0.01266
1913.22401	0.01300
1911.93825	0.01322
1910.65248	0.01327
1909.36671	0.01322
1908.08094	0.01325
1906.79517	0.01341
1905.50940	0.01355
1904.22363	0.01346
1902.93786	0.01313
1901.65209	0.01274
1900.36633	0.01256
1899.08056	0.01272
1897.79479	0.01314
1896.50902	0.01359
1895.22325	0.01386
1893.93748	0.01386
1892.65171	0.01364
1891.36594	0.01332
1890.08018	0.01306
1888.79441	0.01296
1887.50864	0.01302
1886.22287	0.01318
1884.93710	0.01338
1883.65133	0.01350
1882.36556	0.01342
1881.07979	0.01319
1879.79402	0.01300
1878.50826	0.01303
1877.22249	0.01332
1875.93672	0.01374
1874.65095	0.01415
1873.36518	0.01440
1872.07941	0.01430
1870.79364	0.01386
1869.50787	0.01337
1868.22211	0.01313
1866.93634	0.01318
1865.65057	0.01332
1864.36480	0.01344
1863.07903	0.01357
1861.79326	0.01374
1860.50749	0.01389
1859.22172	0.01396
1857.93595	0.01392
1856.65019	0.01380
1855.36442	0.01365
1854.07865	0.01358
1852.79288	0.01361
1851.50711	0.01371
1850.22134	0.01382
1848.93557	0.01390
1847.64980	0.01392
1846.36404	0.01375
1845.07827	0.01347
1843.79250	0.01343
1842.50673	0.01369
1841.22096	0.01393
1839.93519	0.01392
1838.64942	0.01378
1837.36365	0.01371
1836.07788	0.01379
1834.79212	0.01397
1833.50635	0.01420
1832.22058	0.01439
1830.93481	0.01457
1829.64904	0.01484
1828.36327	0.01511
1827.07750	0.01508
1825.79173	0.01477
1824.50597	0.01453
1823.22020	0.01454
1821.93443	0.01468
1820.64866	0.01474
1819.36289	0.01471
1818.07712	0.01468
1816.79135	0.01475
1815.50558	0.01493
1814.21981	0.01509
1812.93405	0.01517
1811.64828	0.01520
1810.36251	0.01525
1809.07674	0.01530
1807.79097	0.01524
1806.50520	0.01511
1805.21943	0.01504
1803.93366	0.01510
1802.64790	0.01526
1801.36213	0.01548
1800.07636	0.01569
1798.79059	0.01579
1797.50482	0.01576
1796.21905	0.01568
1794.93328	0.01557
1793.64751	0.01545
1792.36174	0.01547
1791.07598	0.01570
1789.79021	0.01595
1788.50444	0.01596
1787.21867	0.01575
1785.93290	0.01553
1784.64713	0.01550
1783.36136	0.01566
1782.07559	0.01581
1780.78983	0.01587
1779.50406	0.01592
1778.21829	0.01604
1776.93252	0.01620
1775.64675	0.01632
1774.36098	0.01629
1773.07521	0.01626
1771.78944	0.01653
1770.50367	0.01691
1769.21791	0.01705
1767.93214	0.01703
1766.64637	0.01720
1765.36060	0.01746
1764.07483	0.01750
1762.78906	0.01733
1761.50329	0.01727
1760.21752	0.01741
1758.93176	0.01753
1757.64599	0.01755
1756.36022	0.01772
1755.07445	0.01803
1753.78868	0.01813
1752.50291	0.01793
1751.21714	0.01778
1749.93137	0.01797
1748.64560	0.01832
1747.35984	0.01856
1746.07407	0.01864
1744.78830	0.01864
1743.50253	0.01863
1742.21676	0.01858
1740.93099	0.01851
1739.64522	0.01867
1738.35945	0.01913
1737.07369	0.01942
1735.78792	0.01912
1734.50215	0.01871
1733.21638	0.01890
1731.93061	0.01956
1730.64484	0.02000
1729.35907	0.02007
1728.07330	0.02012
1726.78753	0.02027
1725.50177	0.02048
1724.21600	0.02075
1722.93023	0.02118
1721.64446	0.02167
1720.35869	0.02188
1719.07292	0.02176
1717.78715	0.02180
1716.50138	0.02235
1715.21561	0.02316
1713.92985	0.02383
1712.64408	0.02428
1711.35831	0.02462
1710.07254	0.02495
1708.78677	0.02525
1707.50100	0.02549
1706.21523	0.02578
1704.92946	0.02634
1703.64370	0.02692
1702.35793	0.02701
1701.07216	0.02687
1699.78639	0.02735
1698.50062	0.02823
1697.21485	0.02858
1695.92908	0.02853
1694.64331	0.02888
1693.35754	0.02949
1692.07178	0.02972
1690.78601	0.02971
1689.50024	0.02998
1688.21447	0.03048
1686.92870	0.03059
1685.64293	0.03020
1684.35716	0.03012
1683.07139	0.03083
1681.78563	0.03173
1680.49986	0.03224
1679.21409	0.03250
1677.92832	0.03266
1676.64255	0.03273
1675.35678	0.03295
1674.07101	0.03353
1672.78524	0.03412
1671.49947	0.03433
1670.21371	0.03434
1668.92794	0.03460
1667.64217	0.03521
1666.35640	0.03584
1665.07063	0.03620
1663.78486	0.03637
1662.49909	0.03663
1661.21332	0.03703
1659.92756	0.03745
1658.64179	0.03791
1657.35602	0.03840
1656.07025	0.03853
1654.78448	0.03798
1653.49871	0.03747
1652.21294	0.03803
1650.92717	0.03933
1649.64140	0.04006
1648.35564	0.03981
1647.06987	0.03937
1645.78410	0.03944
1644.49833	0.03991
1643.21256	0.04031
1641.92679	0.04047
1640.64102	0.04061
1639.35525	0.04083
1638.06949	0.04087
1636.78372	0.04069
1635.49795	0.04076
1634.21218	0.04136
1632.92641	0.04211
1631.64064	0.04256
1630.35487	0.04267
1629.06910	0.04275
1627.78333	0.04294
1626.49757	0.04319
1625.21180	0.04335
1623.92603	0.04347
1622.64026	0.04382
1621.35449	0.04444
1620.06872	0.04495
1618.78295	0.04502
1617.49718	0.04492
1616.21142	0.04525
1614.92565	0.04604
1613.63988	0.04677
1612.35411	0.04717
1611.06834	0.04748
1609.78257	0.04787
1608.49680	0.04833
1607.21103	0.04877
1605.92526	0.04920
1604.63950	0.04961
1603.35373	0.05000
1602.06796	0.05038
1600.78219	0.05073
1599.49642	0.05108
1598.21065	0.05143
1596.92488	0.05176
1595.63911	0.05205
1594.35335	0.05228
1593.06758	0.05247
1591.78181	0.05266
1590.49604	0.05288
1589.21027	0.05316
1587.92450	0.05349
1586.63873	0.05384
1585.35296	0.05416
1584.06719	0.05441
1582.78143	0.05459
1581.49566	0.05477
1580.20989	0.05499
1578.92412	0.05510
1577.63835	0.05498
1576.35258	0.05506
1575.06681	0.05574
1573.78104	0.05662
1572.49528	0.05700
1571.20951	0.05683
1569.92374	0.05665
1568.63797	0.05680
1567.35220	0.05710
1566.06643	0.05728
1564.78066	0.05751
1563.49489	0.05787
1562.20912	0.05800
1560.92336	0.05760
1559.63759	0.05722
1558.35182	0.05756
1557.06605	0.05837
1555.78028	0.05876
1554.49451	0.05863
1553.20874	0.05848
1551.92297	0.05845
1550.63721	0.05837
1549.35144	0.05824
1548.06567	0.05816
1546.77990	0.05804
1545.49413	0.05791
1544.20836	0.05781
1542.92259	0.05761
1541.63682	0.05711
1540.35105	0.05656
1539.06529	0.05651
1537.77952	0.05695
1536.49375	0.05718
1535.20798	0.05683
1533.92221	0.05635
1532.63644	0.05634
1531.35067	0.05676
1530.06490	0.05722
1528.77914	0.05761
1527.49337	0.05806
1526.20760	0.05873
1524.92183	0.05955
1523.63606	0.06026
1522.35029	0.06085
1521.06452	0.06178
1519.77875	0.06316
1518.49298	0.06453
1517.20722	0.06570
1515.92145	0.06694
1514.63568	0.06842
1513.34991	0.07001
1512.06414	0.07170
1510.77837	0.07351
1509.49260	0.07513
1508.20683	0.07638
1506.92107	0.07766
1505.63530	0.07951
1504.34953	0.08171
1503.06376	0.08358
1501.77799	0.08494
1500.49222	0.08610
1499.20645	0.08725
1497.92068	0.08832
1496.63491	0.08939
1495.34915	0.09061
1494.06338	0.09190
1492.77761	0.09299
1491.49184	0.09393
1490.20607	0.09504
1488.92030	0.09646
1487.63453	0.09809
1486.34876	0.09984
1485.06299	0.10166
1483.77723	0.10347
1482.49146	0.10522
1481.20569	0.10699
1479.91992	0.10884
1478.63415	0.11070
1477.34838	0.11251
1476.06261	0.11421
1474.77684	0.11567
1473.49108	0.11688
1472.20531	0.11807
1470.91954	0.11934
1469.63377	0.12048
1468.34800	0.12124
1467.06223	0.12165
1465.77646	0.12193
1464.49069	0.12233
1463.20492	0.12293
1461.91916	0.12358
1460.63339	0.12407
1459.34762	0.12431
1458.06185	0.12454
1456.77608	0.12527
1455.49031	0.12656
1454.20454	0.12779
1452.91877	0.12853
1451.63301	0.12902
1450.34724	0.12954
1449.06147	0.13009
1447.77570	0.13059
1446.48993	0.13094
1445.20416	0.13101
1443.91839	0.13071
1442.63262	0.13016
1441.34685	0.12952
1440.06109	0.12879
1438.77532	0.12789
1437.48955	0.12703
1436.20378	0.12667
1434.91801	0.12689
1433.63224	0.12735
1432.34647	0.12790
1431.06070	0.12873
1429.77494	0.13001
1428.48917	0.13168
1427.20340	0.13354
1425.91763	0.13547
1424.63186	0.13750
1423.34609	0.13966
1422.06032	0.14166
1420.77455	0.14331
1419.48878	0.14481
1418.20302	0.14638
1416.91725	0.14782
1415.63148	0.14878
1414.34571	0.14930
1413.05994	0.14957
1411.77417	0.14962
1410.48840	0.14939
1409.20263	0.14877
1407.91687	0.14771
1406.63110	0.14623
1405.34533	0.14449
1404.05956	0.14263
1402.77379	0.14062
1401.48802	0.13830
1400.20225	0.13566
1398.91648	0.13288
1397.63071	0.13007
1396.34495	0.12718
1395.05918	0.12424
1393.77341	0.12142
1392.48764	0.11878
1391.20187	0.11618
1389.91610	0.11349
1388.63033	0.11078
1387.34456	0.10821
1386.05880	0.10587
1384.77303	0.10362
1383.48726	0.10129
1382.20149	0.09888
1380.91572	0.09644
1379.62995	0.09403
1378.34418	0.09166
1377.05841	0.08923
1375.77264	0.08663
1374.48688	0.08385
1373.20111	0.08100
1371.91534	0.07819
1370.62957	0.07549
1369.34380	0.07299
1368.05803	0.07076
1366.77226	0.06872
1365.48649	0.06670
1364.20073	0.06463
1362.91496	0.06262
1361.62919	0.06076
1360.34342	0.05907
1359.05765	0.05751
1357.77188	0.05607
1356.48611	0.05474
1355.20034	0.05352
1353.91457	0.05237
1352.62881	0.05130
1351.34304	0.05028
1350.05727	0.04932
1348.77150	0.04839
1347.48573	0.04749
1346.19996	0.04661
1344.91419	0.04579
1343.62842	0.04503
1342.34266	0.04432
1341.05689	0.04363
1339.77112	0.04296
1338.48535	0.04231
1337.19958	0.04169
1335.91381	0.04107
1334.62804	0.04047
1333.34227	0.03992
1332.05650	0.03943
1330.77074	0.03898
1329.48497	0.03856
1328.19920	0.03814
1326.91343	0.03775
1325.62766	0.03739
1324.34189	0.03709
1323.05612	0.03682
1321.77035	0.03655
1320.48459	0.03625
1319.19882	0.03591
1317.91305	0.03553
1316.62728	0.03511
1315.34151	0.03466
1314.05574	0.03423
1312.76997	0.03385
1311.48420	0.03355
1310.19843	0.03330
1308.91267	0.03307
1307.62690	0.03286
1306.34113	0.03264
1305.05536	0.03240
1303.76959	0.03215
1302.48382	0.03194
1301.19805	0.03178
1299.91228	0.03161
1298.62652	0.03140
1297.34075	0.03114
1296.05498	0.03089
1294.76921	0.03071
1293.48344	0.03059
1292.19767	0.03047
1290.91190	0.03029
1289.62613	0.03006
1288.34036	0.02984
1287.05460	0.02965
1285.76883	0.02950
1284.48306	0.02934
1283.19729	0.02914
1281.91152	0.02890
1280.62575	0.02866
1279.33998	0.02846
1278.05421	0.02831
1276.76845	0.02820
1275.48268	0.02808
1274.19691	0.02794
1272.91114	0.02776
1271.62537	0.02757
1270.33960	0.02740
1269.05383	0.02728
1267.76806	0.02717
1266.48229	0.02706
1265.19653	0.02694
1263.91076	0.02680
1262.62499	0.02665
1261.33922	0.02648
1260.05345	0.02630
1258.76768	0.02613
1257.48191	0.02595
1256.19614	0.02577
1254.91037	0.02562
1253.62461	0.02553
1252.33884	0.02549
1251.05307	0.02548
1249.76730	0.02549
1248.48153	0.02549
1247.19576	0.02549
1245.90999	0.02544
1244.62422	0.02534
1243.33846	0.02520
1242.05269	0.02503
1240.76692	0.02486
1239.48115	0.02473
1238.19538	0.02463
1236.90961	0.02456
1235.62384	0.02450
1234.33807	0.02446
1233.05230	0.02443
1231.76654	0.02439
1230.48077	0.02430
1229.19500	0.02416
1227.90923	0.02400
1226.62346	0.02386
1225.33769	0.02375
1224.05192	0.02366
1222.76615	0.02359
1221.48039	0.02354
1220.19462	0.02353
1218.90885	0.02354
1217.62308	0.02357
1216.33731	0.02359
1215.05154	0.02359
1213.76577	0.02358
1212.48000	0.02357
1211.19423	0.02354
1209.90847	0.02349
1208.62270	0.02341
1207.33693	0.02333
1206.05116	0.02328
1204.76539	0.02327
1203.47962	0.02330
1202.19385	0.02335
1200.90808	0.02343
1199.62232	0.02350
1198.33655	0.02354
1197.05078	0.02354
1195.76501	0.02353
1194.47924	0.02352
1193.19347	0.02347
1191.90770	0.02337
1190.62193	0.02326
1189.33616	0.02320
1188.05040	0.02322
1186.76463	0.02329
1185.47886	0.02337
1184.19309	0.02347
1182.90732	0.02358
1181.62155	0.02365
1180.33578	0.02369
1179.05001	0.02373
1177.76425	0.02383
1176.47848	0.02395
1175.19271	0.02407
1173.90694	0.02415
1172.62117	0.02420
1171.33540	0.02425
1170.04963	0.02430
1168.76386	0.02434
1167.47809	0.02436
1166.19233	0.02441
1164.90656	0.02454
1163.62079	0.02476
1162.33502	0.02502
1161.04925	0.02521
1159.76348	0.02535
1158.47771	0.02546
1157.19194	0.02561
1155.90618	0.02581
1154.62041	0.02607
1153.33464	0.02639
1152.04887	0.02674
1150.76310	0.02707
1149.47733	0.02740
1148.19156	0.02780
1146.90579	0.02832
1145.62002	0.02895
1144.33426	0.02966
1143.04849	0.03046
1141.76272	0.03135
1140.47695	0.03232
1139.19118	0.03342
1137.90541	0.03471
1136.61964	0.03622
1135.33387	0.03791
1134.04811	0.03973
1132.76234	0.04172
1131.47657	0.04399
1130.19080	0.04665
1128.90503	0.04972
1127.61926	0.05316
1126.33349	0.05690
1125.04772	0.06087
1123.76195	0.06500
1122.47619	0.06921
1121.19042	0.07348
1119.90465	0.07788
1118.61888	0.08248
1117.33311	0.08721
1116.04734	0.09195
1114.76157	0.09655
1113.47580	0.10098
1112.19004	0.10526
1110.90427	0.10946
1109.61850	0.11354
1108.33273	0.11744
1107.04696	0.12112
1105.76119	0.12460
1104.47542	0.12798
1103.18965	0.13132
1101.90388	0.13461
1100.61812	0.13783
1099.33235	0.14093
1098.04658	0.14390
1096.76081	0.14668
1095.47504	0.14921
1094.18927	0.15153
1092.90350	0.15369
1091.61773	0.15576
1090.33197	0.15777
1089.04620	0.15972
1087.76043	0.16163
1086.47466	0.16352
1085.18889	0.16541
1083.90312	0.16735
1082.61735	0.16937
1081.33158	0.17154
1080.04581	0.17391
1078.76005	0.17654
1077.47428	0.17947
1076.18851	0.18267
1074.90274	0.18608
1073.61697	0.18966
1072.33120	0.19337
1071.04543	0.19718
1069.75966	0.20111
1068.47390	0.20525
1067.18813	0.20966
1065.90236	0.21430
1064.61659	0.21906
1063.33082	0.22386
1062.04505	0.22866
1060.75928	0.23347
1059.47351	0.23829
1058.18774	0.24312
1056.90198	0.24788
1055.61621	0.25254
1054.33044	0.25709
1053.04467	0.26163
1051.75890	0.26625
1050.47313	0.27107
1049.18736	0.27612
1047.90159	0.28141
1046.61583	0.28690
1045.33006	0.29258
1044.04429	0.29843
1042.75852	0.30443
1041.47275	0.31053
1040.18698	0.31666
1038.90121	0.32282
1037.61544	0.32901
1036.32967	0.33523
1035.04391	0.34146
1033.75814	0.34764
1032.47237	0.35366
1031.18660	0.35938
1029.90083	0.36460
1028.61506	0.36918
1027.32929	0.37308
1026.04352	0.37638
1024.75775	0.37912
1023.47199	0.38130
1022.18622	0.38279
1020.90045	0.38352
1019.61468	0.38343
1018.32891	0.38249
1017.04314	0.38055
1015.75737	0.37745
1014.47160	0.37318
1013.18584	0.36785
1011.90007	0.36160
1010.61430	0.35448
1009.32853	0.34646
1008.04276	0.33750
1006.75699	0.32755
1005.47122	0.31667
1004.18545	0.30498
1002.89968	0.29270
1001.61392	0.28005
1000.32815	0.26724
999.04238	0.25438
997.75661	0.24155
996.47084	0.22889
995.18507	0.21655
993.89930	0.20461
992.61353	0.19312
991.32777	0.18215
990.04200	0.17187
988.75623	0.16239
987.47046	0.15369
986.18469	0.14568
984.89892	0.13828
983.61315	0.13143
982.32738	0.12518
981.04161	0.11956
979.75585	0.11453
978.47008	0.11001
977.18431	0.10600
975.89854	0.10255
974.61277	0.09975
973.32700	0.09768
972.04123	0.09635
970.75546	0.09581
969.46970	0.09609
968.18393	0.09709
966.89816	0.09867
965.61239	0.10061
964.32662	0.10268
963.04085	0.10455
961.75508	0.10580
960.46931	0.10613
959.18354	0.10541
957.89778	0.10370
956.61201	0.10114
955.32624	0.09790
954.04047	0.09427
952.75470	0.09055
951.46893	0.08696
950.18316	0.08360
948.89739	0.08046
947.61163	0.07752
946.32586	0.07475
945.04009	0.07213
943.75432	0.06961
942.46855	0.06718
941.18278	0.06489
939.89701	0.06280
938.61124	0.06095
937.32547	0.05933
936.03971	0.05792
934.75394	0.05665
933.46817	0.05548
932.18240	0.05435
930.89663	0.05327
929.61086	0.05228
928.32509	0.05142
927.03932	0.05070
925.75356	0.05006
924.46779	0.04943
923.18202	0.04877
921.89625	0.04808
920.61048	0.04739
919.32471	0.04675
918.03894	0.04615
916.75317	0.04559
915.46740	0.04504
914.18164	0.04449
912.89587	0.04399
911.61010	0.04359
910.32433	0.04330
909.03856	0.04311
907.75279	0.04297
906.46702	0.04282
905.18125	0.04257
903.89549	0.04221
902.60972	0.04180
901.32395	0.04138
900.03818	0.04102
898.75241	0.04078
897.46664	0.04065
896.18087	0.04059
894.89510	0.04055
893.60933	0.04056
892.32357	0.04070
891.03780	0.04108
889.75203	0.04182
888.46626	0.04301
887.18049	0.04475
885.89472	0.04718
884.60895	0.05047
883.32318	0.05468
882.03742	0.05947
880.75165	0.06412
879.46588	0.06788
878.18011	0.07056
876.89434	0.07267
875.60857	0.07486
874.32280	0.07719
873.03703	0.07900
871.75126	0.07952
870.46550	0.07837
869.17973	0.07575
867.89396	0.07207
866.60819	0.06776
865.32242	0.06324
864.03665	0.05892
862.75088	0.05515
861.46511	0.05206
860.17935	0.04960
858.89358	0.04763
857.60781	0.04602
856.32204	0.04474
855.03627	0.04374
853.75050	0.04295
852.46473	0.04229
851.17896	0.04169
849.89319	0.04114
848.60743	0.04066
847.32166	0.04029
846.03589	0.04002
844.75012	0.03980
843.46435	0.03959
842.17858	0.03935
840.89281	0.03910
839.60704	0.03884
838.32128	0.03856
837.03551	0.03830
835.74974	0.03809
834.46397	0.03795
833.17820	0.03783
831.89243	0.03768
830.60666	0.03748
829.32089	0.03729
828.03512	0.03715
826.74936	0.03708
825.46359	0.03702
824.17782	0.03689
822.89205	0.03671
821.60628	0.03657
820.32051	0.03653
819.03474	0.03657
817.74897	0.03659
816.46321	0.03655
815.17744	0.03647
813.89167	0.03639
812.60590	0.03634
811.32013	0.03633
810.03436	0.03633
808.74859	0.03633
807.46282	0.03629
806.17705	0.03624
804.89129	0.03620
803.60552	0.03616
802.31975	0.03612
801.03398	0.03610
799.74821	0.03608
798.46244	0.03601
797.17667	0.03587
795.89090	0.03569
794.60513	0.03556
793.31937	0.03554
792.03360	0.03559
790.74783	0.03565
789.46206	0.03569
788.17629	0.03574
786.89052	0.03581
785.60475	0.03589
784.31898	0.03590
783.03322	0.03582
781.74745	0.03570
780.46168	0.03560
779.17591	0.03554
777.89014	0.03551
776.60437	0.03552
775.31860	0.03557
774.03283	0.03563
772.74706	0.03565
771.46130	0.03560
770.17553	0.03550
768.88976	0.03544
767.60399	0.03551
766.31822	0.03566
765.03245	0.03578
763.74668	0.03576
762.46091	0.03567
761.17515	0.03563
759.88938	0.03569
758.60361	0.03585
757.31784	0.03605
756.03207	0.03625
754.74630	0.03637
753.46053	0.03641
752.17476	0.03634
750.88899	0.03620
749.60323	0.03602
748.31746	0.03587
747.03169	0.03575
745.74592	0.03564
744.46015	0.03550
743.17438	0.03531
741.88861	0.03514
740.60284	0.03503
739.31708	0.03500
738.03131	0.03505
736.74554	0.03515
735.45977	0.03528
734.17400	0.03540
732.88823	0.03554
731.60246	0.03573
730.31669	0.03591
729.03092	0.03600
727.74516	0.03602
726.45939	0.03602
725.17362	0.03612
723.88785	0.03685
722.60208	0.03660
721.31631	0.03563
720.03054	0.03474
718.74477	0.03420
717.45901	0.03399
716.17324	0.03405
714.88747	0.03438
713.60170	0.03491
712.31593	0.03547
711.03016	0.03588
709.74439	0.03608
708.45862	0.03611
707.17285	0.03607
705.88709	0.03601
704.60132	0.03598
703.31555	0.03598
702.02978	0.03599
700.74401	0.03599
699.45824	0.03591
698.17247	0.03571
696.88670	0.03541
695.60094	0.03507
694.31517	0.03478
693.02940	0.03460
691.74363	0.03453
690.45786	0.03452
689.17209	0.03453
687.88632	0.03456
686.60055	0.03461
685.31478	0.03469
684.02902	0.03481
682.74325	0.03497
681.45748	0.03515
680.17171	0.03535
678.88594	0.03558
677.60017	0.03585
676.31440	0.03615
675.02863	0.03633
673.74287	0.03593
672.45710	0.03434
671.17133	0.03184
669.88556	0.03047
668.59979	0.03177
667.31402	0.03335
666.02825	0.03378
664.74248	0.03483
663.45671	0.03618
662.17095	0.03673
660.88518	0.03654
659.59941	0.03615
658.31364	0.03588
657.02787	0.03574
655.74210	0.03566
654.45633	0.03561
653.17056	0.03557
651.88480	0.03556
650.59903	0.03559
649.31326	0.03569
648.02749	0.03585
646.74172	0.03603
645.45595	0.03618
644.17018	0.03632
642.88441	0.03651
641.59864	0.03680
640.31288	0.03718
639.02711	0.03762
637.74134	0.03808
636.45557	0.03856
635.16980	0.03903
633.88403	0.03950
632.59826	0.04002
631.31249	0.04060
630.02673	0.04124
628.74096	0.04180
627.45519	0.04224
626.16942	0.04292
624.88365	0.04404
623.59788	0.04598
622.31211	0.04920
621.02634	0.05370
619.74057	0.05882
618.45481	0.06363
617.16904	0.06747
615.88327	0.07038
614.59750	0.07300
613.31173	0.07596
612.02596	0.07972
610.74019	0.08475
609.45442	0.09128
608.16866	0.09893
606.88289	0.10686
605.59712	0.11418
604.31135	0.11993
603.02558	0.12325
601.73981	0.12392
600.45404	0.12238
599.16827	0.11925
597.88250	0.11509
596.59674	0.11041
595.31097	0.10577
594.02520	0.10170
592.73943	0.09862
591.45366	0.09663
590.16789	0.09554
588.88212	0.09514
587.59635	0.09533
586.31059	0.09617
585.02482	0.09775
583.73905	0.10006
582.45328	0.10300
581.16751	0.10644
579.88174	0.11023
578.59597	0.11418
577.31020	0.11805
576.02443	0.12162
574.73867	0.12487
573.45290	0.12791
572.16713	0.13103
570.88136	0.13461
569.59559	0.13894
568.30982	0.14411
567.02405	0.14997
565.73828	0.15616
564.45251	0.16196
563.16675	0.16643
561.88098	0.16856
560.59521	0.16770
559.30944	0.16375
558.02367	0.15713
556.73790	0.14853
555.45213	0.13879
554.16636	0.12872
552.88060	0.11900
551.59483	0.11004
550.30906	0.10193
549.02329	0.09465
547.73752	0.08820
546.45175	0.08266
545.16598	0.07805
543.88021	0.07421
542.59444	0.07089
541.30868	0.06784
540.02291	0.06500
538.73714	0.06244
537.45137	0.06021
536.16560	0.05829
534.87983	0.05655
533.59406	0.05489
532.30829	0.05328
531.02253	0.05180
529.73676	0.05054
528.45099	0.04947
527.16522	0.04849
525.87945	0.04750
524.59368	0.04649
523.30791	0.04553
522.02214	0.04466
520.73637	0.04387
519.45061	0.04310
518.16484	0.04232
516.87907	0.04161
515.59330	0.04103
514.30753	0.04056
513.02176	0.04006
511.73599	0.03948
510.45022	0.03889
509.16446	0.03839
507.87869	0.03799
506.59292	0.03762
505.30715	0.03716
504.02138	0.03660
502.73561	0.03601
501.44984	0.03546
500.16407	0.03500
498.87830	0.03461
497.59254	0.03433
496.30677	0.03418
495.02100	0.03409
493.73523	0.03397
492.44946	0.03379
491.16369	0.03356
489.87792	0.03334
488.59215	0.03319
487.30639	0.03310
486.02062	0.03306
484.73485	0.03305
483.44908	0.03309
482.16331	0.03320
480.87754	0.03336
479.59177	0.03354
478.30600	0.03378
477.02023	0.03412
475.73447	0.03459
474.44870	0.03509
473.16293	0.03549
471.87716	0.03571
470.59139	0.03573
469.30562	0.03558
468.01985	0.03533
466.73408	0.03502
465.44832	0.03465
464.16255	0.03422
462.87678	0.03379
461.59101	0.03342
460.30524	0.03307
459.01947	0.03268
457.73370	0.03223
456.44793	0.03175
455.16216	0.03123
453.87640	0.03069
452.59063	0.03023
451.30486	0.02994
450.01909	0.02980
448.73332	0.02977
447.44755	0.02976
446.16178	0.02972
444.87601	0.02962
443.59025	0.02942
442.30448	0.02918
441.01871	0.02896
439.73294	0.02880
438.44717	0.02872
437.16140	0.02871
435.87563	0.02873
434.58986	0.02873
433.30409	0.02867
432.01833	0.02855
430.73256	0.02844
429.44679	0.02839
428.16102	0.02837
426.87525	0.02833
425.58948	0.02826
424.30371	0.02814
423.01794	0.02801
421.73218	0.02787
420.44641	0.02776
419.16064	0.02774
417.87487	0.02782
416.58910	0.02787
415.30333	0.02782
414.01756	0.02776
412.73179	0.02777
411.44602	0.02781
410.16026	0.02784
408.87449	0.02784
407.58872	0.02786
406.30295	0.02792
405.01718	0.02805
403.73141	0.02825
402.44564	0.02847
401.15987	0.02867
399.87411	0.02883
