3997.45528	0.05804
3996.16951	0.05787
3994.88374	0.05820
3993.59798	0.05876
3992.31221	0.05899
3991.02644	0.05874
3989.74067	0.05837
3988.45490	0.05817
3987.16913	0.05814
3985.88336	0.05817
3984.59759	0.05824
3983.31183	0.05837
3982.02606	0.05847
3980.74029	0.05840
3979.45452	0.05806
3978.16875	0.05758
3976.88298	0.05726
3975.59721	0.05733
3974.31144	0.05768
3973.02567	0.05801
3971.73991	0.05811
3970.45414	0.05807
3969.16837	0.05803
3967.88260	0.05800
3966.59683	0.05785
3965.31106	0.05755
3964.02529	0.05719
3962.73952	0.05681
3961.45376	0.05640
3960.16799	0.05600
3958.88222	0.05582
3957.59645	0.05604
3956.31068	0.05654
3955.02491	0.05695
3953.73914	0.05701
3952.45337	0.05677
3951.16760	0.05643
3949.88184	0.05613
3948.59607	0.05602
3947.31030	0.05615
3946.02453	0.05636
3944.73876	0.05623
3943.45299	0.05565
3942.16722	0.05501
3940.88145	0.05487
3939.59569	0.05539
3938.30992	0.05629
3937.02415	0.05714
3935.73838	0.05767
3934.45261	0.05784
3933.16684	0.05772
3931.88107	0.05735
3930.59530	0.05669
3929.30953	0.05588
3928.02377	0.05523
3926.73800	0.05492
3925.45223	0.05482
3924.16646	0.05469
3922.88069	0.05443
3921.59492	0.05410
3920.30915	0.05385
3919.02338	0.05377
3917.73762	0.05388
3916.45185	0.05414
3915.16608	0.05444
3913.88031	0.05474
3912.59454	0.05523
3911.30877	0.05608
3910.02300	0.05714
3908.73723	0.05791
3907.45146	0.05789
3906.16570	0.05704
3904.87993	0.05594
3903.59416	0.05533
3902.30839	0.05547
3901.02262	0.05606
3899.73685	0.05668
3898.45108	0.05719
3897.16531	0.05750
3895.87955	0.05752
3894.59378	0.05714
3893.30801	0.05640
3892.02224	0.05569
3890.73647	0.05557
3889.45070	0.05602
3888.16493	0.05639
3886.87916	0.05634
3885.59339	0.05620
3884.30763	0.05628
3883.02186	0.05634
3881.73609	0.05617
3880.45032	0.05593
3879.16455	0.05578
3877.87878	0.05554
3876.59301	0.05510
3875.30724	0.05481
3874.02148	0.05496
3872.73571	0.05527
3871.44994	0.05521
3870.16417	0.05477
3868.87840	0.05430
3867.59263	0.05377
3866.30686	0.05311
3865.02109	0.05264
3863.73532	0.05265
3862.44956	0.05290
3861.16379	0.05310
3859.87802	0.05344
3858.59225	0.05411
3857.30648	0.05476
3856.02071	0.05473
3854.73494	0.05398
3853.44917	0.05323
3852.16341	0.05297
3850.87764	0.05297
3849.59187	0.05300
3848.30610	0.05316
3847.02033	0.05339
3845.73456	0.05350
3844.44879	0.05346
3843.16302	0.05350
3841.87725	0.05373
3840.59149	0.05392
3839.30572	0.05395
3838.01995	0.05409
3836.73418	0.05456
3835.44841	0.05500
3834.16264	0.05497
3832.87687	0.05454
3831.59110	0.05414
3830.30534	0.05393
3829.01957	0.05374
3827.73380	0.05353
3826.44803	0.05356
3825.16226	0.05385
3823.87649	0.05401
3822.59072	0.05397
3821.30495	0.05424
3820.01918	0.05508
3818.73342	0.05583
3817.44765	0.05585
3816.16188	0.05533
3814.87611	0.05470
3813.59034	0.05389
3812.30457	0.05286
3811.01880	0.05202
3809.73303	0.05153
3808.44726	0.05126
3807.16150	0.05133
3805.87573	0.05192
3804.58996	0.05262
3803.30419	0.05294
3802.01842	0.05303
3800.73265	0.05327
3799.44688	0.05340
3798.16111	0.05305
3796.87535	0.05268
3795.58958	0.05291
3794.30381	0.05348
3793.01804	0.05359
3791.73227	0.05293
3790.44650	0.05192
3789.16073	0.05107
3787.87496	0.05065
3786.58919	0.05062
3785.30343	0.05087
3784.01766	0.05130
3782.73189	0.05179
3781.44612	0.05222
3780.16035	0.05241
3778.87458	0.05224
3777.58881	0.05170
3776.30304	0.05114
3775.01728	0.05104
3773.73151	0.05145
3772.44574	0.05185
3771.15997	0.05179
3769.87420	0.05135
3768.58843	0.05086
3767.30266	0.05046
3766.01689	0.05030
3764.73112	0.05054
3763.44536	0.05109
3762.15959	0.05157
3760.87382	0.05177
3759.58805	0.05180
3758.30228	0.05177
3757.01651	0.05170
3755.73074	0.05155
3754.44497	0.05118
3753.15921	0.05060
3751.87344	0.05001
3750.58767	0.04966
3749.30190	0.04979
3748.01613	0.05021
3746.73036	0.05024
3745.44459	0.04980
3744.15882	0.04978
3742.87305	0.05052
3741.58729	0.05127
3740.30152	0.05142
3739.01575	0.05106
3737.72998	0.05044
3736.44421	0.04970
3735.15844	0.04894
3733.87267	0.04822
3732.58690	0.04773
3731.30114	0.04774
3730.01537	0.04801
3728.72960	0.04797
3727.44383	0.04757
3726.15806	0.04734
3724.87229	0.04762
3723.58652	0.04810
3722.30075	0.04829
3721.01498	0.04807
3719.72922	0.04770
3718.44345	0.04757
3717.15768	0.04789
3715.87191	0.04849
3714.58614	0.04901
3713.30037	0.04931
3712.01460	0.04953
3710.72883	0.04978
3709.44307	0.04988
3708.15730	0.04976
3706.87153	0.04965
3705.58576	0.04986
3704.29999	0.05029
3703.01422	0.05051
3701.72845	0.05015
3700.44268	0.04929
3699.15691	0.04834
3697.87115	0.04775
3696.58538	0.04773
3695.29961	0.04814
3694.01384	0.04860
3692.72807	0.04877
3691.44230	0.04843
3690.15653	0.04764
3688.87076	0.04687
3687.58500	0.04664
3686.29923	0.04688
3685.01346	0.04711
3683.72769	0.04713
3682.44192	0.04707
3681.15615	0.04707
3679.87038	0.04721
3678.58461	0.04742
3677.29884	0.04760
3676.01308	0.04794
3674.72731	0.04858
3673.44154	0.04904
3672.15577	0.04872
3670.87000	0.04801
3669.58423	0.04773
3668.29846	0.04807
3667.01269	0.04868
3665.72693	0.04946
3664.44116	0.05047
3663.15539	0.05149
3661.86962	0.05215
3660.58385	0.05239
3659.29808	0.05234
3658.01231	0.05217
3656.72654	0.05193
3655.44077	0.05164
3654.15501	0.05129
3652.86924	0.05094
3651.58347	0.05088
3650.29770	0.05131
3649.01193	0.05202
3647.72616	0.05262
3646.44039	0.05293
3645.15462	0.05306
3643.86886	0.05316
3642.58309	0.05328
3641.29732	0.05340
3640.01155	0.05358
3638.72578	0.05397
3637.44001	0.05456
3636.15424	0.05514
3634.86847	0.05541
3633.58270	0.05527
3632.29694	0.05476
3631.01117	0.05400
3629.72540	0.05341
3628.43963	0.05347
3627.15386	0.05410
3625.86809	0.05478
3624.58232	0.05529
3623.29655	0.05570
3622.01079	0.05593
3620.72502	0.05584
3619.43925	0.05556
3618.15348	0.05544
3616.86771	0.05563
3615.58194	0.05609
3614.29617	0.05664
3613.01040	0.05698
3611.72463	0.05678
3610.43887	0.05609
3609.15310	0.05554
3607.86733	0.05585
3606.58156	0.05705
3605.29579	0.05850
3604.01002	0.05961
3602.72425	0.06034
3601.43848	0.06104
3600.15272	0.06194
3598.86695	0.06283
3597.58118	0.06323
3596.29541	0.06290
3595.00964	0.06206
3593.72387	0.06115
3592.43810	0.06055
3591.15233	0.06026
3589.86656	0.06005
3588.58080	0.05981
3587.29503	0.05979
3586.00926	0.06038
3584.72349	0.06173
3583.43772	0.06352
3582.15195	0.06510
3580.86618	0.06592
3579.58041	0.06591
3578.29464	0.06551
3577.00888	0.06521
3575.72311	0.06518
3574.43734	0.06525
3573.15157	0.06523
3571.86580	0.06513
3570.58003	0.06505
3569.29426	0.06509
3568.00849	0.06535
3566.72273	0.06585
3565.43696	0.06650
3564.15119	0.06709
3562.86542	0.06748
3561.57965	0.06764
3560.29388	0.06760
3559.00811	0.06750
3557.72234	0.06748
3556.43657	0.06753
3555.15081	0.06754
3553.86504	0.06753
3552.57927	0.06776
3551.29350	0.06845
3550.00773	0.06952
3548.72196	0.07061
3547.43619	0.07140
3546.15042	0.07171
3544.86466	0.07160
3543.57889	0.07124
3542.29312	0.07088
3541.00735	0.07068
3539.72158	0.07072
3538.43581	0.07100
3537.15004	0.07139
3535.86427	0.07176
3534.57850	0.07203
3533.29274	0.07221
3532.00697	0.07230
3530.72120	0.07222
3529.43543	0.07204
3528.14966	0.07204
3526.86389	0.07251
3525.57812	0.07341
3524.29235	0.07442
3523.00659	0.07530
3521.72082	0.07593
3520.43505	0.07627
3519.14928	0.07618
3517.86351	0.07563
3516.57774	0.07480
3515.29197	0.07413
3514.00620	0.07398
3512.72043	0.07437
3511.43467	0.07509
3510.14890	0.07594
3508.86313	0.07681
3507.57736	0.07751
3506.29159	0.07777
3505.00582	0.07745
3503.72005	0.07679
3502.43428	0.07626
3501.14852	0.07614
3499.86275	0.07633
3498.57698	0.07657
3497.29121	0.07681
3496.00544	0.07717
3494.71967	0.07769
3493.43390	0.07818
3492.14813	0.07837
3490.86236	0.07827
3489.57660	0.07813
3488.29083	0.07821
3487.00506	0.07861
3485.71929	0.07926
3484.43352	0.08002
3483.14775	0.08075
3481.86198	0.08130
3480.57621	0.08157
3479.29045	0.08156
3478.00468	0.08132
3476.71891	0.08098
3475.43314	0.08079
3474.14737	0.08100
3472.86160	0.08158
3471.57583	0.08222
3470.29006	0.08259
3469.00429	0.08262
3467.71853	0.08248
3466.43276	0.08238
3465.14699	0.08247
3463.86122	0.08287
3462.57545	0.08357
3461.28968	0.08436
3460.00391	0.08499
3458.71814	0.08539
3457.43238	0.08573
3456.14661	0.08610
3454.86084	0.08637
3453.57507	0.08635
3452.28930	0.08598
3451.00353	0.08542
3449.71776	0.08499
3448.43199	0.08503
3447.14622	0.08572
3445.86046	0.08685
3444.57469	0.08800
3443.28892	0.08880
3442.00315	0.08912
3440.71738	0.08903
3439.43161	0.08864
3438.14584	0.08811
3436.86007	0.08771
3435.57431	0.08757
3434.28854	0.08760
3433.00277	0.08757
3431.71700	0.08737
3430.43123	0.08714
3429.14546	0.08715
3427.85969	0.08747
3426.57392	0.08798
3425.28815	0.08847
3424.00239	0.08896
3422.71662	0.08954
3421.43085	0.09019
3420.14508	0.09061
3418.85931	0.09052
3417.57354	0.08996
3416.28777	0.08935
3415.00200	0.08907
3413.71624	0.08916
3412.43047	0.08944
3411.14470	0.08982
3409.85893	0.09030
3408.57316	0.09087
3407.28739	0.09137
3406.00162	0.09171
3404.71585	0.09184
3403.43008	0.09179
3402.14432	0.09162
3400.85855	0.09144
3399.57278	0.09133
3398.28701	0.09122
3397.00124	0.09106
3395.71547	0.09090
3394.42970	0.09091
3393.14393	0.09109
3391.85817	0.09122
3390.57240	0.09113
3389.28663	0.09097
3388.00086	0.09106
3386.71509	0.09155
3385.42932	0.09222
3384.14355	0.09272
3382.85778	0.09294
3381.57201	0.09294
3380.28625	0.09280
3379.00048	0.09252
3377.71471	0.09214
3376.42894	0.09184
3375.14317	0.09178
3373.85740	0.09191
3372.57163	0.09201
3371.28586	0.09201
3370.00010	0.09206
3368.71433	0.09229
3367.42856	0.09268
3366.14279	0.09312
3364.85702	0.09350
3363.57125	0.09372
3362.28548	0.09375
3360.99971	0.09366
3359.71394	0.09363
3358.42818	0.09377
3357.14241	0.09400
3355.85664	0.09415
3354.57087	0.09409
3353.28510	0.09379
3351.99933	0.09330
3350.71356	0.09275
3349.42779	0.09236
3348.14202	0.09231
3346.85626	0.09265
3345.57049	0.09319
3344.28472	0.09364
3342.99895	0.09380
3341.71318	0.09361
3340.42741	0.09315
3339.14164	0.09263
3337.85587	0.09232
3336.57011	0.09240
3335.28434	0.09279
3333.99857	0.09323
3332.71280	0.09353
3331.42703	0.09363
3330.14126	0.09361
3328.85549	0.09359
3327.56972	0.09357
3326.28395	0.09348
3324.99819	0.09324
3323.71242	0.09292
3322.42665	0.09274
3321.14088	0.09284
3319.85511	0.09313
3318.56934	0.09337
3317.28357	0.09341
3315.99780	0.09333
3314.71204	0.09331
3313.42627	0.09339
3312.14050	0.09352
3310.85473	0.09366
3309.56896	0.09381
3308.28319	0.09388
3306.99742	0.09372
3305.71165	0.09337
3304.42588	0.09302
3303.14012	0.09286
3301.85435	0.09283
3300.56858	0.09276
3299.28281	0.09256
3297.99704	0.09238
3296.71127	0.09243
3295.42550	0.09280
3294.13973	0.09336
3292.85397	0.09381
3291.56820	0.09392
3290.28243	0.09378
3288.99666	0.09361
3287.71089	0.09354
3286.42512	0.09340
3285.13935	0.09307
3283.85358	0.09266
3282.56781	0.09243
3281.28205	0.09253
3279.99628	0.09282
3278.71051	0.09302
3277.42474	0.09297
3276.13897	0.09274
3274.85320	0.09259
3273.56743	0.09267
3272.28166	0.09289
3270.99590	0.09300
3269.71013	0.09287
3268.42436	0.09261
3267.13859	0.09241
3265.85282	0.09224
3264.56705	0.09198
3263.28128	0.09165
3261.99551	0.09146
3260.70974	0.09154
3259.42398	0.09181
3258.13821	0.09214
3256.85244	0.09248
3255.56667	0.09285
3254.28090	0.09314
3252.99513	0.09321
3251.70936	0.09300
3250.42359	0.09265
3249.13783	0.09242
3247.85206	0.09240
3246.56629	0.09247
3245.28052	0.09242
3243.99475	0.09222
3242.70898	0.09200
3241.42321	0.09184
3240.13744	0.09158
3238.85167	0.09105
3237.56591	0.09029
3236.28014	0.08968
3234.99437	0.08961
3233.70860	0.09011
3232.42283	0.09080
3231.13706	0.09131
3229.85129	0.09155
3228.56552	0.09167
3227.27976	0.09178
3225.99399	0.09186
3224.70822	0.09181
3223.42245	0.09154
3222.13668	0.09109
3220.85091	0.09056
3219.56514	0.09006
3218.27937	0.08968
3216.99360	0.08949
3215.70784	0.08950
3214.42207	0.08964
3213.13630	0.08971
3211.85053	0.08956
3210.56476	0.08923
3209.27899	0.08893
3207.99322	0.08880
3206.70745	0.08877
3205.42169	0.08871
3204.13592	0.08859
3202.85015	0.08850
3201.56438	0.08851
3200.27861	0.08863
3198.99284	0.08876
3197.70707	0.08882
3196.42130	0.08872
3195.13553	0.08849
3193.84977	0.08813
3192.56400	0.08770
3191.27823	0.08724
3189.99246	0.08685
3188.70669	0.08667
3187.42092	0.08682
3186.13515	0.08724
3184.84938	0.08776
3183.56362	0.08820
3182.27785	0.08850
3180.99208	0.08873
3179.70631	0.08888
3178.42054	0.08885
3177.13477	0.08850
3175.84900	0.08787
3174.56323	0.08714
3173.27746	0.08657
3171.99170	0.08632
3170.70593	0.08636
3169.42016	0.08647
3168.13439	0.08645
3166.84862	0.08630
3165.56285	0.08615
3164.27708	0.08608
3162.99131	0.08605
3161.70555	0.08603
3160.41978	0.08601
3159.13401	0.08595
3157.84824	0.08572
3156.56247	0.08528
3155.27670	0.08478
3153.99093	0.08443
3152.70516	0.08426
3151.41939	0.08411
3150.13363	0.08379
3148.84786	0.08331
3147.56209	0.08290
3146.27632	0.08279
3144.99055	0.08300
3143.70478	0.08334
3142.41901	0.08357
3141.13324	0.08361
3139.84748	0.08357
3138.56171	0.08356
3137.27594	0.08354
3135.99017	0.08344
3134.70440	0.08329
3133.41863	0.08323
3132.13286	0.08335
3130.84709	0.08358
3129.56132	0.08375
3128.27556	0.08379
3126.98979	0.08372
3125.70402	0.08366
3124.41825	0.08362
3123.13248	0.08352
3121.84671	0.08334
3120.56094	0.08312
3119.27517	0.08291
3117.98940	0.08271
3116.70364	0.08248
3115.41787	0.08227
3114.13210	0.08210
3112.84633	0.08196
3111.56056	0.08178
3110.27479	0.08152
3108.98902	0.08118
3107.70325	0.08082
3106.41749	0.08052
3105.13172	0.08032
3103.84595	0.08015
3102.56018	0.07992
3101.27441	0.07972
3099.98864	0.07968
3098.70287	0.07976
3097.41710	0.07970
3096.13133	0.07933
3094.84557	0.07882
3093.55980	0.07853
3092.27403	0.07855
3090.98826	0.07867
3089.70249	0.07865
3088.41672	0.07851
3087.13095	0.07846
3085.84518	0.07859
3084.55942	0.07879
3083.27365	0.07887
3081.98788	0.07877
3080.70211	0.07857
3079.41634	0.07835
3078.13057	0.07811
3076.84480	0.07792
3075.55903	0.07788
3074.27326	0.07804
3072.98750	0.07832
3071.70173	0.07854
3070.41596	0.07863
3069.13019	0.07856
3067.84442	0.07840
3066.55865	0.07818
3065.27288	0.07790
3063.98711	0.07751
3062.70135	0.07702
3061.41558	0.07655
3060.12981	0.07632
3058.84404	0.07640
3057.55827	0.07668
3056.27250	0.07696
3054.98673	0.07712
3053.70096	0.07718
3052.41519	0.07719
3051.12943	0.07709
3049.84366	0.07677
3048.55789	0.07623
3047.27212	0.07559
3045.98635	0.07507
3044.70058	0.07482
3043.41481	0.07487
3042.12904	0.07511
3040.84328	0.07531
3039.55751	0.07523
3038.27174	0.07485
3036.98597	0.07437
3035.70020	0.07407
3034.41443	0.07397
3033.12866	0.07392
3031.84289	0.07380
3030.55712	0.07365
3029.27136	0.07349
3027.98559	0.07329
3026.69982	0.07302
3025.41405	0.07278
3024.12828	0.07267
3022.84251	0.07271
3021.55674	0.07287
3020.27097	0.07307
3018.98521	0.07322
3017.69944	0.07322
3016.41367	0.07305
3015.12790	0.07272
3013.84213	0.07226
3012.55636	0.07171
3011.27059	0.07111
3009.98482	0.07056
3008.69905	0.07021
3007.41329	0.07018
3006.12752	0.07043
3004.84175	0.07081
3003.55598	0.07113
3002.27021	0.07132
3000.98444	0.07140
2999.69867	0.07143
2998.41290	0.07145
2997.12714	0.07149
2995.84137	0.07155
2994.55560	0.07155
2993.26983	0.07140
2991.98406	0.07113
2990.69829	0.07094
2989.41252	0.07102
2988.12675	0.07137
2986.84098	0.07184
2985.55522	0.07226
2984.26945	0.07253
2982.98368	0.07265
2981.69791	0.07268
2980.41214	0.07281
2979.12637	0.07317
2977.84060	0.07375
2976.55483	0.07441
2975.26907	0.07507
2973.98330	0.07574
2972.69753	0.07655
2971.41176	0.07764
2970.12599	0.07905
2968.84022	0.08062
2967.55445	0.08212
2966.26868	0.08345
2964.98291	0.08460
2963.69715	0.08560
2962.41138	0.08644
2961.12561	0.08715
2959.83984	0.08788
2958.55407	0.08877
2957.26830	0.08985
2955.98253	0.09097
2954.69676	0.09195
2953.41100	0.09268
2952.12523	0.09317
2950.83946	0.09343
2949.55369	0.09345
2948.26792	0.09323
2946.98215	0.09275
2945.69638	0.09211
2944.41061	0.09151
2943.12484	0.09113
2941.83908	0.09098
2940.55331	0.09106
2939.26754	0.09140
2937.98177	0.09207
2936.69600	0.09300
2935.41023	0.09406
2934.12446	0.09520
2932.83869	0.09634
2931.55293	0.09738
2930.26716	0.09823
2928.98139	0.09888
2927.69562	0.09939
2926.40985	0.09978
2925.12408	0.09999
2923.83831	0.09999
2922.55254	0.09981
2921.26677	0.09948
2919.98101	0.09901
2918.69524	0.09837
2917.40947	0.09759
2916.12370	0.09679
2914.83793	0.09607
2913.55216	0.09545
2912.26639	0.09488
2910.98062	0.09424
2909.69486	0.09350
2908.40909	0.09268
2907.12332	0.09181
2905.83755	0.09087
2904.55178	0.08996
2903.26601	0.08919
2901.98024	0.08864
2900.69447	0.08817
2899.40870	0.08760
2898.12294	0.08690
2896.83717	0.08618
2895.55140	0.08546
2894.26563	0.08471
2892.97986	0.08384
2891.69409	0.08290
2890.40832	0.08202
2889.12255	0.08130
2887.83678	0.08071
2886.55102	0.08020
2885.26525	0.07976
2883.97948	0.07946
2882.69371	0.07932
2881.40794	0.07930
2880.12217	0.07935
2878.83640	0.07942
2877.55063	0.07957
2876.26487	0.07987
2874.97910	0.08037
2873.69333	0.08099
2872.40756	0.08157
2871.12179	0.08200
2869.83602	0.08222
2868.55025	0.08229
2867.26448	0.08231
2865.97871	0.08234
2864.69295	0.08235
2863.40718	0.08227
2862.12141	0.08203
2860.83564	0.08167
2859.54987	0.08125
2858.26410	0.08089
2856.97833	0.08067
2855.69256	0.08058
2854.40680	0.08042
2853.12103	0.07994
2851.83526	0.07912
2850.54949	0.07816
2849.26372	0.07733
2847.97795	0.07666
2846.69218	0.07602
2845.40641	0.07534
2844.12064	0.07469
2842.83488	0.07407
2841.54911	0.07336
2840.26334	0.07239
2838.97757	0.07124
2837.69180	0.07018
2836.40603	0.06938
2835.12026	0.06875
2833.83449	0.06809
2832.54873	0.06732
2831.26296	0.06649
2829.97719	0.06567
2828.69142	0.06491
2827.40565	0.06430
2826.11988	0.06389
2824.83411	0.06363
2823.54834	0.06337
2822.26257	0.06302
2820.97681	0.06267
2819.69104	0.06244
2818.40527	0.06234
2817.11950	0.06230
2815.83373	0.06219
2814.54796	0.06195
2813.26219	0.06157
2811.97642	0.06105
2810.69066	0.06048
2809.40489	0.05999
2808.11912	0.05967
2806.83335	0.05954
2805.54758	0.05950
2804.26181	0.05942
2802.97604	0.05924
2801.69027	0.05902
2800.40450	0.05886
2799.11874	0.05879
2797.83297	0.05875
2796.54720	0.05867
2795.26143	0.05852
2793.97566	0.05831
2792.68989	0.05806
2791.40412	0.05782
2790.11835	0.05758
2788.83259	0.05733
2787.54682	0.05708
2786.26105	0.05692
2784.97528	0.05695
2783.68951	0.05718
2782.40374	0.05745
2781.11797	0.05756
2779.83220	0.05739
2778.54643	0.05702
2777.26067	0.05660
2775.97490	0.05628
2774.68913	0.05610
2773.40336	0.05595
2772.11759	0.05570
2770.83182	0.05542
2769.54605	0.05531
2768.26028	0.05542
2766.97452	0.05554
2765.68875	0.05545
2764.40298	0.05523
2763.11721	0.05510
2761.83144	0.05511
2760.54567	0.05510
2759.25990	0.05496
2757.97413	0.05476
2756.68836	0.05465
2755.40260	0.05469
2754.11683	0.05478
2752.83106	0.05476
2751.54529	0.05454
2750.25952	0.05420
2748.97375	0.05389
2747.68798	0.05377
2746.40221	0.05376
2745.11645	0.05371
2743.83068	0.05356
2742.54491	0.05341
2741.25914	0.05341
2739.97337	0.05353
2738.68760	0.05360
2737.40183	0.05351
2736.11606	0.05328
2734.83029	0.05304
2733.54453	0.05293
2732.25876	0.05294
2730.97299	0.05300
2729.68722	0.05301
2728.40145	0.05290
2727.11568	0.05268
2725.82991	0.05243
2724.54414	0.05223
2723.25838	0.05219
2721.97261	0.05235
2720.68684	0.05264
2719.40107	0.05290
2718.11530	0.05299
2716.82953	0.05290
2715.54376	0.05269
2714.25799	0.05242
2712.97222	0.05210
2711.68646	0.05175
2710.40069	0.05145
2709.11492	0.05129
2707.82915	0.05127
2706.54338	0.05128
2705.25761	0.05120
2703.97184	0.05098
2702.68607	0.05074
2701.40031	0.05062
2700.11454	0.05065
2698.82877	0.05075
2697.54300	0.05082
2696.25723	0.05087
2694.97146	0.05094
2693.68569	0.05100
2692.39992	0.05100
2691.11415	0.05087
2689.82839	0.05066
2688.54262	0.05047
2687.25685	0.05039
2685.97108	0.05040
2684.68531	0.05042
2683.39954	0.05038
2682.11377	0.05030
2680.82800	0.05022
2679.54224	0.05017
2678.25647	0.05010
2676.97070	0.04994
2675.68493	0.04971
2674.39916	0.04945
2673.11339	0.04925
2671.82762	0.04913
2670.54185	0.04909
2669.25608	0.04911
2667.97032	0.04913
2666.68455	0.04914
2665.39878	0.04915
2664.11301	0.04920
2662.82724	0.04926
2661.54147	0.04928
2660.25570	0.04917
2658.96993	0.04891
2657.68417	0.04856
2656.39840	0.04828
2655.11263	0.04810
2653.82686	0.04796
2652.54109	0.04775
2651.25532	0.04747
2649.96955	0.04718
2648.68378	0.04694
2647.39801	0.04680
2646.11225	0.04681
2644.82648	0.04691
2643.54071	0.04699
2642.25494	0.04695
2640.96917	0.04674
2639.68340	0.04641
2638.39763	0.04601
2637.11186	0.04564
2635.82609	0.04534
2634.54033	0.04508
2633.25456	0.04487
2631.96879	0.04482
2630.68302	0.04502
2629.39725	0.04536
2628.11148	0.04550
2626.82571	0.04516
2625.53994	0.04442
2624.25418	0.04367
2622.96841	0.04322
2621.68264	0.04313
2620.39687	0.04326
2619.11110	0.04344
2617.82533	0.04360
2616.53956	0.04368
2615.25379	0.04365
2613.96802	0.04342
2612.68226	0.04304
2611.39649	0.04272
2610.11072	0.04264
2608.82495	0.04280
2607.53918	0.04303
2606.25341	0.04319
2604.96764	0.04323
2603.68187	0.04316
2602.39611	0.04300
2601.11034	0.04281
2599.82457	0.04261
2598.53880	0.04233
2597.25303	0.04192
2595.96726	0.04138
2594.68149	0.04087
2593.39572	0.04056
2592.10995	0.04047
2590.82419	0.04053
2589.53842	0.04071
2588.25265	0.04106
2586.96688	0.04148
2585.68111	0.04174
2584.39534	0.04166
2583.10957	0.04135
2581.82380	0.04095
2580.53804	0.04055
2579.25227	0.04023
2577.96650	0.04005
2576.68073	0.03999
2575.39496	0.03987
2574.10919	0.03954
2572.82342	0.03902
2571.53765	0.03854
2570.25188	0.03831
2568.96612	0.03840
2567.68035	0.03868
2566.39458	0.03892
2565.10881	0.03898
2563.82304	0.03889
2562.53727	0.03876
2561.25150	0.03866
2559.96573	0.03858
2558.67997	0.03849
2557.39420	0.03839
2556.10843	0.03836
2554.82266	0.03838
2553.53689	0.03838
2552.25112	0.03827
2550.96535	0.03807
2549.67958	0.03780
2548.39381	0.03753
2547.10805	0.03731
2545.82228	0.03721
2544.53651	0.03722
2543.25074	0.03732
2541.96497	0.03753
2540.67920	0.03788
2539.39343	0.03824
2538.10766	0.03833
2536.82190	0.03799
2535.53613	0.03735
2534.25036	0.03676
2532.96459	0.03644
2531.67882	0.03629
2530.39305	0.03611
2529.10728	0.03587
2527.82151	0.03575
2526.53574	0.03593
2525.24998	0.03639
2523.96421	0.03692
2522.67844	0.03729
2521.39267	0.03736
2520.10690	0.03716
2518.82113	0.03683
2517.53536	0.03650
2516.24959	0.03621
2514.96383	0.03592
2513.67806	0.03563
2512.39229	0.03545
2511.10652	0.03551
2509.82075	0.03584
2508.53498	0.03628
2507.24921	0.03661
2505.96344	0.03669
2504.67767	0.03662
2503.39191	0.03659
2502.10614	0.03672
2500.82037	0.03689
2499.53460	0.03690
2498.24883	0.03665
2496.96306	0.03621
2495.67729	0.03565
2494.39152	0.03500
2493.10576	0.03433
2491.81999	0.03386
2490.53422	0.03374
2489.24845	0.03395
2487.96268	0.03432
2486.67691	0.03473
2485.39114	0.03513
2484.10537	0.03548
2482.81960	0.03570
2481.53384	0.03580
2480.24807	0.03592
2478.96230	0.03616
2477.67653	0.03644
2476.39076	0.03653
2475.10499	0.03628
2473.81922	0.03581
2472.53345	0.03536
2471.24769	0.03513
2469.96192	0.03510
2468.67615	0.03514
2467.39038	0.03515
2466.10461	0.03516
2464.81884	0.03519
2463.53307	0.03517
2462.24730	0.03502
2460.96153	0.03478
2459.67577	0.03463
2458.39000	0.03474
2457.10423	0.03511
2455.81846	0.03552
2454.53269	0.03566
2453.24692	0.03539
2451.96115	0.03494
2450.67538	0.03464
2449.38962	0.03461
2448.10385	0.03467
2446.81808	0.03468
2445.53231	0.03464
2444.24654	0.03462
2442.96077	0.03457
2441.67500	0.03441
2440.38923	0.03410
2439.10346	0.03371
2437.81770	0.03341
2436.53193	0.03337
2435.24616	0.03354
2433.96039	0.03369
2432.67462	0.03359
2431.38885	0.03329
2430.10308	0.03298
2428.81731	0.03288
2427.53155	0.03295
2426.24578	0.03303
2424.96001	0.03301
2423.67424	0.03298
2422.38847	0.03307
2421.10270	0.03333
2419.81693	0.03363
2418.53116	0.03376
2417.24539	0.03359
2415.95963	0.03321
2414.67386	0.03285
2413.38809	0.03264
2412.10232	0.03257
2410.81655	0.03255
2409.53078	0.03259
2408.24501	0.03273
2406.95924	0.03293
2405.67347	0.03312
2404.38771	0.03323
2403.10194	0.03320
2401.81617	0.03297
2400.53040	0.03264
2399.24463	0.03238
2397.95886	0.03225
2396.67309	0.03230
2395.38732	0.03250
2394.10156	0.03280
2392.81579	0.03310
2391.53002	0.03332
2390.24425	0.03339
2388.95848	0.03333
2387.67271	0.03320
2386.38694	0.03306
2385.10117	0.03295
2383.81540	0.03291
2382.52964	0.03291
2381.24387	0.03291
2379.95810	0.03285
2378.67233	0.03269
2377.38656	0.03247
2376.10079	0.03227
2374.81502	0.03215
2373.52925	0.03213
2372.24349	0.03216
2370.95772	0.03212
2369.67195	0.03191
2368.38618	0.03152
2367.10041	0.03109
2365.81464	0.03080
2364.52887	0.03076
2363.24310	0.03089
2361.95733	0.03109
2360.67157	0.03130
2359.38580	0.03150
2358.10003	0.03166
2356.81426	0.03184
2355.52849	0.03215
2354.24272	0.03259
2352.95695	0.03299
2351.67118	0.03314
2350.38542	0.03300
2349.09965	0.03271
2347.81388	0.03246
2346.52811	0.03236
2345.24234	0.03242
2343.95657	0.03254
2342.67080	0.03266
2341.38503	0.03273
2340.09926	0.03278
2338.81350	0.03280
2337.52773	0.03277
2336.24196	0.03265
2334.95619	0.03244
2333.67042	0.03221
2332.38465	0.03200
2331.09888	0.03185
2329.81311	0.03179
2328.52735	0.03191
2327.24158	0.03227
2325.95581	0.03279
2324.67004	0.03325
2323.38427	0.03346
2322.09850	0.03338
2320.81273	0.03313
2319.52696	0.03284
2318.24119	0.03258
2316.95543	0.03242
2315.66966	0.03243
2314.38389	0.03264
2313.09812	0.03294
2311.81235	0.03320
2310.52658	0.03330
2309.24081	0.03318
2307.95504	0.03277
2306.66928	0.03212
2305.38351	0.03136
2304.09774	0.03075
2302.81197	0.03049
2301.52620	0.03060
2300.24043	0.03094
2298.95466	0.03129
2297.66889	0.03143
2296.38312	0.03129
2295.09736	0.03101
2293.81159	0.03084
2292.52582	0.03092
2291.24005	0.03120
2289.95428	0.03145
2288.66851	0.03149
2287.38274	0.03126
2286.09697	0.03077
2284.81121	0.03015
2283.52544	0.02966
2282.23967	0.02955
2280.95390	0.02973
2279.66813	0.02979
2278.38236	0.02937
2277.09659	0.02853
2275.81082	0.02767
2274.52505	0.02711
2273.23929	0.02690
2271.95352	0.02692
2270.66775	0.02700
2269.38198	0.02706
2268.09621	0.02709
2266.81044	0.02707
2265.52467	0.02705
2264.23890	0.02704
2262.95314	0.02700
2261.66737	0.02689
2260.38160	0.02676
2259.09583	0.02675
2257.81006	0.02684
2256.52429	0.02683
2255.23852	0.02654
2253.95275	0.02612
2252.66698	0.02593
2251.38122	0.02608
2250.09545	0.02646
2248.80968	0.02685
2247.52391	0.02683
2246.23814	0.02673
2244.95237	0.02654
2243.66660	0.02605
2242.38083	0.02523
2241.09507	0.02436
2239.80930	0.02393
2238.52353	0.02408
2237.23776	0.02446
2235.95199	0.02456
2234.66622	0.02418
2233.38045	0.02360
2232.09468	0.02308
2230.80891	0.02259
2229.52315	0.02197
2228.23738	0.02128
2226.95161	0.02086
2225.66584	0.02092
2224.38007	0.02137
2223.09430	0.02198
2221.80853	0.02255
2220.52276	0.02296
2219.23700	0.02303
2217.95123	0.02267
2216.66546	0.02192
2215.37969	0.02101
2214.09392	0.02017
2212.80815	0.01949
2211.52238	0.01891
2210.23661	0.01850
2208.95084	0.01844
2207.66508	0.01876
2206.37931	0.01923
2205.09354	0.01958
2203.80777	0.01974
2202.52200	0.01993
2201.23623	0.02034
2199.95046	0.02085
2198.66469	0.02099
2197.37893	0.02036
2196.09316	0.01918
2194.80739	0.01831
2193.52162	0.01834
2192.23585	0.01897
2190.95008	0.01954
2189.66431	0.01980
2188.37854	0.01990
2187.09277	0.01994
2185.80701	0.01988
2184.52124	0.01975
2183.23547	0.01953
2181.94970	0.01891
2180.66393	0.01756
2179.37816	0.01560
2178.09239	0.01362
2176.80662	0.01223
2175.52085	0.01169
2174.23509	0.01190
2172.94932	0.01259
2171.66355	0.01330
2170.37778	0.01353
2169.09201	0.01297
2167.80624	0.01196
2166.52047	0.01129
2165.23470	0.01141
2163.94894	0.01183
2162.66317	0.01161
2161.37740	0.01027
2160.09163	0.00828
2158.80586	0.00670
2157.52009	0.00636
2156.23432	0.00721
2154.94855	0.00852
2153.66278	0.00973
2152.37702	0.01079
2151.09125	0.01179
2149.80548	0.01280
2148.51971	0.01398
2147.23394	0.01555
2145.94817	0.01730
2144.66240	0.01831
2143.37663	0.01786
2142.09087	0.01620
2140.80510	0.01443
2139.51933	0.01346
2138.23356	0.01338
2136.94779	0.01382
2135.66202	0.01458
2134.37625	0.01572
2133.09048	0.01707
2131.80471	0.01818
2130.51895	0.01870
2129.23318	0.01869
2127.94741	0.01842
2126.66164	0.01805
2125.37587	0.01767
2124.09010	0.01739
2122.80433	0.01736
2121.51856	0.01758
2120.23280	0.01797
2118.94703	0.01840
2117.66126	0.01876
2116.37549	0.01895
2115.08972	0.01892
2113.80395	0.01880
2112.51818	0.01879
2111.23241	0.01889
2109.94664	0.01896
2108.66088	0.01895
2107.37511	0.01896
2106.08934	0.01900
2104.80357	0.01894
2103.51780	0.01863
2102.23203	0.01811
2100.94626	0.01753
2099.66049	0.01743
2098.37473	0.01727
2097.08896	0.01709
2095.80319	0.01699
2094.51742	0.01700
2093.23165	0.01713
2091.94588	0.01743
2090.66011	0.01782
2089.37434	0.01816
2088.08857	0.01834
2086.80281	0.01834
2085.51704	0.01826
2084.23127	0.01812
2082.94550	0.01792
2081.65973	0.01758
2080.37396	0.01705
2079.08819	0.01634
2077.80242	0.01557
2076.51666	0.01497
2075.23089	0.01473
2073.94512	0.01486
2072.65935	0.01522
2071.37358	0.01559
2070.08781	0.01573
2068.80204	0.01550
2067.51627	0.01493
2066.23050	0.01426
2064.94474	0.01375
2063.65897	0.01362
2062.37320	0.01385
2061.08743	0.01424
2059.80166	0.01451
2058.51589	0.01449
2057.23012	0.01416
2055.94435	0.01367
2054.65859	0.01328
2053.37282	0.01320
2052.08705	0.01346
2050.80128	0.01381
2049.51551	0.01411
2048.22974	0.01436
2046.94397	0.01452
2045.65820	0.01435
2044.37243	0.01365
2043.08667	0.01263
2041.80090	0.01163
2040.51513	0.01075
2039.22936	0.00968
2037.94359	0.00826
2036.65782	0.00683
2035.37205	0.00608
2034.08628	0.00637
2032.80052	0.00749
2031.51475	0.00893
2030.22898	0.01032
2028.94321	0.01150
2027.65744	0.01237
2026.37167	0.01274
2025.08590	0.01242
2023.80013	0.01140
2022.51436	0.01007
2021.22860	0.00898
2019.94283	0.00846
2018.65706	0.00832
2017.37129	0.00820
2016.08552	0.00797
2014.79975	0.00777
2013.51398	0.00775
2012.22821	0.00785
2010.94245	0.00795
2009.65668	0.00809
2008.37091	0.00846
2007.08514	0.00924
2005.79937	0.01039
2004.51360	0.01169
2003.22783	0.01278
2001.94206	0.01336
2000.65629	0.01339
1999.37053	0.01329
1998.08476	0.01357
1996.79899	0.01427
1995.51322	0.01488
1994.22745	0.01502
1992.94168	0.01482
1991.65591	0.01470
1990.37014	0.01475
1989.08438	0.01473
1987.79861	0.01456
1986.51284	0.01454
1985.22707	0.01490
1983.94130	0.01546
1982.65553	0.01590
1981.36976	0.01604
1980.08399	0.01591
1978.79822	0.01544
1977.51246	0.01454
1976.22669	0.01324
1974.94092	0.01181
1973.65515	0.01073
1972.36938	0.01048
1971.08361	0.01111
1969.79784	0.01215
1968.51207	0.01299
1967.22631	0.01332
1965.94054	0.01320
1964.65477	0.01284
1963.36900	0.01236
1962.08323	0.01196
1960.79746	0.01185
1959.51169	0.01213
1958.22592	0.01258
1956.94015	0.01292
1955.65439	0.01312
1954.36862	0.01343
1953.08285	0.01401
1951.79708	0.01467
1950.51131	0.01517
1949.22554	0.01549
1947.93977	0.01582
1946.65400	0.01625
1945.36823	0.01669
1944.08247	0.01701
1942.79670	0.01716
1941.51093	0.01713
1940.22516	0.01685
1938.93939	0.01630
1937.65362	0.01560
1936.36785	0.01507
1935.08208	0.01500
1933.79632	0.01546
1932.51055	0.01623
1931.22478	0.01700
1929.93901	0.01749
1928.65324	0.01758
1927.36747	0.01741
1926.08170	0.01725
1924.79593	0.01729
1923.51016	0.01749
1922.22440	0.01770
1920.93863	0.01779
1919.65286	0.01771
1918.36709	0.01749
1917.08132	0.01722
1915.79555	0.01704
1914.50978	0.01709
1913.22401	0.01742
1911.93825	0.01795
1910.65248	0.01851
1909.36671	0.01895
1908.08094	0.01928
1906.79517	0.01959
1905.50940	0.01989
1904.22363	0.02004
1902.93786	0.01988
1901.65209	0.01954
1900.36633	0.01931
1899.08056	0.01937
1897.79479	0.01956
1896.50902	0.01961
1895.22325	0.01943
1893.93748	0.01917
1892.65171	0.01906
1891.36594	0.01917
1890.08018	0.01942
1888.79441	0.01967
1887.50864	0.01981
1886.22287	0.01978
1884.93710	0.01957
1883.65133	0.01921
1882.36556	0.01878
1881.07979	0.01839
1879.79402	0.01820
1878.50826	0.01826
1877.22249	0.01849
1875.93672	0.01876
1874.65095	0.01896
1873.36518	0.01909
1872.07941	0.01914
1870.79364	0.01913
1869.50787	0.01909
1868.22211	0.01905
1866.93634	0.01903
1865.65057	0.01902
1864.36480	0.01899
1863.07903	0.01899
1861.79326	0.01905
1860.50749	0.01916
1859.22172	0.01927
1857.93595	0.01930
1856.65019	0.01920
1855.36442	0.01903
1854.07865	0.01890
1852.79288	0.01889
1851.50711	0.01899
1850.22134	0.01913
1848.93557	0.01925
1847.64980	0.01932
1846.36404	0.01929
1845.07827	0.01925
1843.79250	0.01931
1842.50673	0.01942
1841.22096	0.01940
1839.93519	0.01913
1838.64942	0.01880
1837.36365	0.01859
1836.07788	0.01857
1834.79212	0.01871
1833.50635	0.01894
1832.22058	0.01916
1830.93481	0.01933
1829.64904	0.01943
1828.36327	0.01950
1827.07750	0.01951
1825.79173	0.01955
1824.50597	0.01970
1823.22020	0.01991
1821.93443	0.02004
1820.64866	0.02000
1819.36289	0.01984
1818.07712	0.01967
1816.79135	0.01955
1815.50558	0.01948
1814.21981	0.01943
1812.93405	0.01939
1811.64828	0.01942
1810.36251	0.01954
1809.07674	0.01973
1807.79097	0.01990
1806.50520	0.02003
1805.21943	0.02013
1803.93366	0.02020
1802.64790	0.02026
1801.36213	0.02031
1800.07636	0.02032
1798.79059	0.02031
1797.50482	0.02029
1796.21905	0.02031
1794.93328	0.02036
1793.64751	0.02040
1792.36174	0.02046
1791.07598	0.02053
1789.79021	0.02059
1788.50444	0.02059
1787.21867	0.02056
1785.93290	0.02054
1784.64713	0.02055
1783.36136	0.02055
1782.07559	0.02051
1780.78983	0.02044
1779.50406	0.02042
1778.21829	0.02049
1776.93252	0.02060
1775.64675	0.02065
1774.36098	0.02061
1773.07521	0.02058
1771.78944	0.02070
1770.50367	0.02092
1769.21791	0.02108
1767.93214	0.02116
1766.64637	0.02127
1765.36060	0.02138
1764.07483	0.02141
1762.78906	0.02137
1761.50329	0.02139
1760.21752	0.02147
1758.93176	0.02153
1757.64599	0.02156
1756.36022	0.02168
1755.07445	0.02188
1753.78868	0.02197
1752.50291	0.02184
1751.21714	0.02161
1749.93137	0.02150
1748.64560	0.02156
1747.35984	0.02170
1746.07407	0.02185
1744.78830	0.02197
1743.50253	0.02207
1742.21676	0.02216
1740.93099	0.02227
1739.64522	0.02246
1738.35945	0.02273
1737.07369	0.02287
1735.78792	0.02276
1734.50215	0.02262
1733.21638	0.02271
1731.93061	0.02295
1730.64484	0.02308
1729.35907	0.02308
1728.07330	0.02311
1726.78753	0.02323
1725.50177	0.02335
1724.21600	0.02348
1722.93023	0.02370
1721.64446	0.02398
1720.35869	0.02420
1719.07292	0.02428
1717.78715	0.02437
1716.50138	0.02463
1715.21561	0.02501
1713.92985	0.02536
1712.64408	0.02563
1711.35831	0.02589
1710.07254	0.02618
1708.78677	0.02651
1707.50100	0.02684
1706.21523	0.02719
1704.92946	0.02761
1703.64370	0.02803
1702.35793	0.02828
1701.07216	0.02849
1699.78639	0.02897
1698.50062	0.02956
1697.21485	0.02991
1695.92908	0.03007
1694.64331	0.03039
1693.35754	0.03081
1692.07178	0.03101
1690.78601	0.03107
1689.50024	0.03127
1688.21447	0.03167
1686.92870	0.03204
1685.64293	0.03225
1684.35716	0.03254
1683.07139	0.03302
1681.78563	0.03348
1680.49986	0.03380
1679.21409	0.03410
1677.92832	0.03446
1676.64255	0.03481
1675.35678	0.03515
1674.07101	0.03551
1672.78524	0.03577
1671.49947	0.03585
1670.21371	0.03591
1668.92794	0.03615
1667.64217	0.03660
1666.35640	0.03706
1665.07063	0.03740
1663.78486	0.03766
1662.49909	0.03800
1661.21332	0.03839
1659.92756	0.03876
1658.64179	0.03911
1657.35602	0.03951
1656.07025	0.03980
1654.78448	0.03982
1653.49871	0.03983
1652.21294	0.04019
1650.92717	0.04080
1649.64140	0.04113
1648.35564	0.04104
1647.06987	0.04084
1645.78410	0.04084
1644.49833	0.04102
1643.21256	0.04120
1641.92679	0.04131
1640.64102	0.04144
1639.35525	0.04161
1638.06949	0.04169
1636.78372	0.04165
1635.49795	0.04170
1634.21218	0.04192
1632.92641	0.04217
1631.64064	0.04228
1630.35487	0.04231
1629.06910	0.04239
1627.78333	0.04255
1626.49757	0.04271
1625.21180	0.04279
1623.92603	0.04286
1622.64026	0.04305
1621.35449	0.04335
1620.06872	0.04357
1618.78295	0.04358
1617.49718	0.04355
1616.21142	0.04376
1614.92565	0.04420
1613.63988	0.04462
1612.35411	0.04486
1611.06834	0.04501
1609.78257	0.04518
1608.49680	0.04539
1607.21103	0.04564
1605.92526	0.04593
1604.63950	0.04625
1603.35373	0.04659
1602.06796	0.04693
1600.78219	0.04728
1599.49642	0.04760
1598.21065	0.04791
1596.92488	0.04821
1595.63911	0.04849
1594.35335	0.04876
1593.06758	0.04903
1591.78181	0.04932
1590.49604	0.04963
1589.21027	0.04997
1587.92450	0.05033
1586.63873	0.05069
1585.35296	0.05106
1584.06719	0.05146
1582.78143	0.05191
1581.49566	0.05242
1580.20989	0.05296
1578.92412	0.05340
1577.63835	0.05373
1576.35258	0.05418
1575.06681	0.05491
1573.78104	0.05576
1572.49528	0.05642
1571.20951	0.05687
1569.92374	0.05731
1568.63797	0.05790
1567.35220	0.05852
1566.06643	0.05909
1564.78066	0.05966
1563.49489	0.06032
1562.20912	0.06087
1560.92336	0.06118
1559.63759	0.06145
1558.35182	0.06200
1557.06605	0.06273
1555.78028	0.06330
1554.49451	0.06368
1553.20874	0.06407
1551.92297	0.06451
1550.63721	0.06488
1549.35144	0.06516
1548.06567	0.06535
1546.77990	0.06543
1545.49413	0.06541
1544.20836	0.06536
1542.92259	0.06523
1541.63682	0.06498
1540.35105	0.06471
1539.06529	0.06463
1537.77952	0.06473
1536.49375	0.06476
1535.20798	0.06460
1533.92221	0.06447
1532.63644	0.06460
1531.35067	0.06491
1530.06490	0.06523
1528.77914	0.06552
1527.49337	0.06588
1526.20760	0.06639
1524.92183	0.06704
1523.63606	0.06772
1522.35029	0.06846
1521.06452	0.06942
1519.77875	0.07057
1518.49298	0.07173
1517.20722	0.07284
1515.92145	0.07406
1514.63568	0.07545
1513.34991	0.07695
1512.06414	0.07853
1510.77837	0.08017
1509.49260	0.08175
1508.20683	0.08319
1506.92107	0.08466
1505.63530	0.08638
1504.34953	0.08822
1503.06376	0.08985
1501.77799	0.09118
1500.49222	0.09235
1499.20645	0.09348
1497.92068	0.09459
1496.63491	0.09571
1495.34915	0.09688
1494.06338	0.09803
1492.77761	0.09903
1491.49184	0.09996
1490.20607	0.10099
1488.92030	0.10224
1487.63453	0.10362
1486.34876	0.10507
1485.06299	0.10656
1483.77723	0.10807
1482.49146	0.10961
1481.20569	0.11118
1479.91992	0.11274
1478.63415	0.11424
1477.34838	0.11565
1476.06261	0.11699
1474.77684	0.11824
1473.49108	0.11943
1472.20531	0.12064
1470.91954	0.12188
1469.63377	0.12299
1468.34800	0.12387
1467.06223	0.12455
1465.77646	0.12516
1464.49069	0.12586
1463.20492	0.12669
1461.91916	0.12758
1460.63339	0.12838
1459.34762	0.12901
1458.06185	0.12954
1456.77608	0.13017
1455.49031	0.13095
1454.20454	0.13165
1452.91877	0.13213
1451.63301	0.13250
1450.34724	0.13288
1449.06147	0.13325
1447.77570	0.13349
1446.48993	0.13356
1445.20416	0.13341
1443.91839	0.13307
1442.63262	0.13263
1441.34685	0.13220
1440.06109	0.13182
1438.77532	0.13149
1437.48955	0.13134
1436.20378	0.13154
1434.91801	0.13211
1433.63224	0.13289
1432.34647	0.13381
1431.06070	0.13494
1429.77494	0.13639
1428.48917	0.13814
1427.20340	0.14009
1425.91763	0.14212
1424.63186	0.14415
1423.34609	0.14614
1422.06032	0.14800
1420.77455	0.14971
1419.48878	0.15133
1418.20302	0.15291
1416.91725	0.15428
1415.63148	0.15529
1414.34571	0.15594
1413.05994	0.15633
1411.77417	0.15646
1410.48840	0.15629
1409.20263	0.15577
1407.91687	0.15487
1406.63110	0.15358
1405.34533	0.15198
1404.05956	0.15014
1402.77379	0.14806
1401.48802	0.14569
1400.20225	0.14306
1398.91648	0.14027
1397.63071	0.13738
1396.34495	0.13435
1395.05918	0.13118
1393.77341	0.12797
1392.48764	0.12481
1391.20187	0.12166
1389.91610	0.11852
1388.63033	0.11546
1387.34456	0.11254
1386.05880	0.10976
1384.77303	0.10699
1383.48726	0.10418
1382.20149	0.10143
1380.91572	0.09881
1379.62995	0.09629
1378.34418	0.09376
1377.05841	0.09105
1375.77264	0.08813
1374.48688	0.08505
1373.20111	0.08194
1371.91534	0.07893
1370.62957	0.07605
1369.34380	0.07334
1368.05803	0.07085
1366.77226	0.06856
1365.48649	0.06637
1364.20073	0.06424
1362.91496	0.06217
1361.62919	0.06021
1360.34342	0.05838
1359.05765	0.05668
1357.77188	0.05510
1356.48611	0.05366
1355.20034	0.05238
1353.91457	0.05121
1352.62881	0.05013
1351.34304	0.04910
1350.05727	0.04811
1348.77150	0.04716
1347.48573	0.04625
1346.19996	0.04539
1344.91419	0.04457
1343.62842	0.04380
1342.34266	0.04304
1341.05689	0.04232
1339.77112	0.04165
1338.48535	0.04106
1337.19958	0.04053
1335.91381	0.04002
1334.62804	0.03950
1333.34227	0.03898
1332.05650	0.03848
1330.77074	0.03802
1329.48497	0.03761
1328.19920	0.03724
1326.91343	0.03689
1325.62766	0.03658
1324.34189	0.03632
1323.05612	0.03611
1321.77035	0.03588
1320.48459	0.03559
1319.19882	0.03524
1317.91305	0.03489
1316.62728	0.03457
1315.34151	0.03428
1314.05574	0.03398
1312.76997	0.03368
1311.48420	0.03338
1310.19843	0.03310
1308.91267	0.03286
1307.62690	0.03267
1306.34113	0.03251
1305.05536	0.03233
1303.76959	0.03209
1302.48382	0.03181
1301.19805	0.03155
1299.91228	0.03134
1298.62652	0.03117
1297.34075	0.03100
1296.05498	0.03078
1294.76921	0.03054
1293.48344	0.03028
1292.19767	0.03004
1290.91190	0.02982
1289.62613	0.02964
1288.34036	0.02947
1287.05460	0.02932
1285.76883	0.02915
1284.48306	0.02894
1283.19729	0.02869
1281.91152	0.02843
1280.62575	0.02820
1279.33998	0.02799
1278.05421	0.02781
1276.76845	0.02764
1275.48268	0.02747
1274.19691	0.02729
1272.91114	0.02710
1271.62537	0.02687
1270.33960	0.02665
1269.05383	0.02650
1267.76806	0.02643
1266.48229	0.02641
1265.19653	0.02636
1263.91076	0.02623
1262.62499	0.02602
1261.33922	0.02575
1260.05345	0.02547
1258.76768	0.02524
1257.48191	0.02507
1256.19614	0.02498
1254.91037	0.02495
1253.62461	0.02494
1252.33884	0.02487
1251.05307	0.02472
1249.76730	0.02448
1248.48153	0.02424
1247.19576	0.02405
1245.90999	0.02393
1244.62422	0.02387
1243.33846	0.02383
1242.05269	0.02378
1240.76692	0.02367
1239.48115	0.02350
1238.19538	0.02327
1236.90961	0.02305
1235.62384	0.02291
1234.33807	0.02287
1233.05230	0.02287
1231.76654	0.02283
1230.48077	0.02270
1229.19500	0.02251
1227.90923	0.02231
1226.62346	0.02212
1225.33769	0.02197
1224.05192	0.02184
1222.76615	0.02172
1221.48039	0.02162
1220.19462	0.02150
1218.90885	0.02136
1217.62308	0.02124
1216.33731	0.02114
1215.05154	0.02108
1213.76577	0.02103
1212.48000	0.02097
1211.19423	0.02090
1209.90847	0.02083
1208.62270	0.02076
1207.33693	0.02070
1206.05116	0.02062
1204.76539	0.02055
1203.47962	0.02050
1202.19385	0.02047
1200.90808	0.02042
1199.62232	0.02035
1198.33655	0.02035
1197.05078	0.02034
1195.76501	0.02031
1194.47924	0.02025
1193.19347	0.02019
1191.90770	0.02016
1190.62193	0.02018
1189.33616	0.02023
1188.05040	0.02027
1186.76463	0.02030
1185.47886	0.02035
1184.19309	0.02042
1182.90732	0.02052
1181.62155	0.02063
1180.33578	0.02075
1179.05001	0.02086
1177.76425	0.02097
1176.47848	0.02107
1175.19271	0.02119
1173.90694	0.02135
1172.62117	0.02152
1171.33540	0.02168
1170.04963	0.02185
1168.76386	0.02204
1167.47809	0.02229
1166.19233	0.02259
1164.90656	0.02289
1163.62079	0.02315
1162.33502	0.02341
1161.04925	0.02370
1159.76348	0.02410
1158.47771	0.02458
1157.19194	0.02509
1155.90618	0.02558
1154.62041	0.02607
1153.33464	0.02663
1152.04887	0.02730
1150.76310	0.02805
1149.47733	0.02881
1148.19156	0.02957
1146.90579	0.03035
1145.62002	0.03122
1144.33426	0.03219
1143.04849	0.03327
1141.76272	0.03443
1140.47695	0.03571
1139.19118	0.03713
1137.90541	0.03868
1136.61964	0.04035
1135.33387	0.04211
1134.04811	0.04400
1132.76234	0.04609
1131.47657	0.04844
1130.19080	0.05107
1128.90503	0.05399
1127.61926	0.05717
1126.33349	0.06056
1125.04772	0.06412
1123.76195	0.06784
1122.47619	0.07174
1121.19042	0.07585
1119.90465	0.08012
1118.61888	0.08453
1117.33311	0.08905
1116.04734	0.09361
1114.76157	0.09811
1113.47580	0.10255
1112.19004	0.10698
1110.90427	0.11148
1109.61850	0.11600
1108.33273	0.12044
1107.04696	0.12472
1105.76119	0.12883
1104.47542	0.13282
1103.18965	0.13675
1101.90388	0.14069
1100.61812	0.14461
1099.33235	0.14847
1098.04658	0.15217
1096.76081	0.15564
1095.47504	0.15884
1094.18927	0.16181
1092.90350	0.16466
1091.61773	0.16748
1090.33197	0.17025
1089.04620	0.17294
1087.76043	0.17556
1086.47466	0.17817
1085.18889	0.18082
1083.90312	0.18351
1082.61735	0.18624
1081.33158	0.18907
1080.04581	0.19211
1078.76005	0.19540
1077.47428	0.19887
1076.18851	0.20246
1074.90274	0.20616
1073.61697	0.20999
1072.33120	0.21401
1071.04543	0.21821
1069.75966	0.22257
1068.47390	0.22703
1067.18813	0.23156
1065.90236	0.23615
1064.61659	0.24081
1063.33082	0.24555
1062.04505	0.25035
1060.75928	0.25513
1059.47351	0.25984
1058.18774	0.26446
1056.90198	0.26898
1055.61621	0.27345
1054.33044	0.27793
1053.04467	0.28243
1051.75890	0.28696
1050.47313	0.29158
1049.18736	0.29637
1047.90159	0.30139
1046.61583	0.30658
1045.33006	0.31187
1044.04429	0.31724
1042.75852	0.32266
1041.47275	0.32816
1040.18698	0.33377
1038.90121	0.33953
1037.61544	0.34542
1036.32967	0.35130
1035.04391	0.35702
1033.75814	0.36249
1032.47237	0.36770
1031.18660	0.37270
1029.90083	0.37738
1028.61506	0.38161
1027.32929	0.38527
1026.04352	0.38839
1024.75775	0.39102
1023.47199	0.39315
1022.18622	0.39470
1020.90045	0.39561
1019.61468	0.39587
1018.32891	0.39550
1017.04314	0.39448
1015.75737	0.39277
1014.47160	0.39037
1013.18584	0.38728
1011.90007	0.38351
1010.61430	0.37903
1009.32853	0.37381
1008.04276	0.36787
1006.75699	0.36128
1005.47122	0.35413
1004.18545	0.34651
1002.89968	0.33837
1001.61392	0.32968
1000.32815	0.32048
999.04238	0.31090
997.75661	0.30108
996.47084	0.29115
995.18507	0.28120
993.89930	0.27134
992.61353	0.26159
991.32777	0.25193
990.04200	0.24235
988.75623	0.23293
987.47046	0.22378
986.18469	0.21500
984.89892	0.20658
983.61315	0.19848
982.32738	0.19072
981.04161	0.18338
979.75585	0.17653
978.47008	0.17018
977.18431	0.16438
975.89854	0.15921
974.61277	0.15472
973.32700	0.15092
972.04123	0.14785
970.75546	0.14557
969.46970	0.14418
968.18393	0.14371
966.89816	0.14410
965.61239	0.14511
964.32662	0.14640
963.04085	0.14754
961.75508	0.14818
960.46931	0.14811
959.18354	0.14723
957.89778	0.14550
956.61201	0.14298
955.32624	0.13983
954.04047	0.13628
952.75470	0.13259
951.46893	0.12892
950.18316	0.12536
948.89739	0.12186
947.61163	0.11840
946.32586	0.11500
945.04009	0.11171
943.75432	0.10856
942.46855	0.10554
941.18278	0.10258
939.89701	0.09968
938.61124	0.09689
937.32547	0.09427
936.03971	0.09182
934.75394	0.08952
933.46817	0.08735
932.18240	0.08533
930.89663	0.08345
929.61086	0.08170
928.32509	0.08005
927.03932	0.07849
925.75356	0.07702
924.46779	0.07566
923.18202	0.07441
921.89625	0.07328
920.61048	0.07228
919.32471	0.07139
918.03894	0.07058
916.75317	0.06978
915.46740	0.06896
914.18164	0.06812
912.89587	0.06732
911.61010	0.06660
910.32433	0.06597
909.03856	0.06538
907.75279	0.06478
906.46702	0.06414
905.18125	0.06347
903.89549	0.06285
902.60972	0.06233
901.32395	0.06192
900.03818	0.06154
898.75241	0.06119
897.46664	0.06083
896.18087	0.06045
894.89510	0.06006
893.60933	0.05973
892.32357	0.05958
891.03780	0.05969
889.75203	0.06015
888.46626	0.06100
887.18049	0.06235
885.89472	0.06440
884.60895	0.06742
883.32318	0.07146
882.03742	0.07612
880.75165	0.08061
879.46588	0.08419
878.18011	0.08668
876.89434	0.08851
875.60857	0.09035
874.32280	0.09240
873.03703	0.09423
871.75126	0.09518
870.46550	0.09482
869.17973	0.09312
867.89396	0.09035
866.60819	0.08693
865.32242	0.08325
864.03665	0.07964
862.75088	0.07629
861.46511	0.07327
860.17935	0.07058
858.89358	0.06820
857.60781	0.06611
856.32204	0.06436
855.03627	0.06300
853.75050	0.06193
852.46473	0.06099
851.17896	0.06000
849.89319	0.05898
848.60743	0.05803
847.32166	0.05723
846.03589	0.05656
844.75012	0.05599
843.46435	0.05551
842.17858	0.05508
840.89281	0.05463
839.60704	0.05411
838.32128	0.05356
837.03551	0.05307
835.74974	0.05269
834.46397	0.05241
833.17820	0.05213
831.89243	0.05180
830.60666	0.05146
829.32089	0.05117
828.03512	0.05099
826.74936	0.05087
825.46359	0.05073
824.17782	0.05051
822.89205	0.05022
821.60628	0.04996
820.32051	0.04980
819.03474	0.04972
817.74897	0.04970
816.46321	0.04967
815.17744	0.04957
813.89167	0.04942
812.60590	0.04924
811.32013	0.04906
810.03436	0.04885
808.74859	0.04862
807.46282	0.04841
806.17705	0.04828
804.89129	0.04822
803.60552	0.04814
802.31975	0.04800
801.03398	0.04780
799.74821	0.04761
798.46244	0.04750
797.17667	0.04747
795.89090	0.04743
794.60513	0.04725
793.31937	0.04694
792.03360	0.04660
790.74783	0.04635
789.46206	0.04627
788.17629	0.04627
786.89052	0.04630
785.60475	0.04634
784.31898	0.04636
783.03322	0.04632
781.74745	0.04615
780.46168	0.04586
779.17591	0.04557
777.89014	0.04537
776.60437	0.04527
775.31860	0.04521
774.03283	0.04517
772.74706	0.04518
771.46130	0.04527
770.17553	0.04540
768.88976	0.04551
767.60399	0.04557
766.31822	0.04560
765.03245	0.04563
763.74668	0.04564
762.46091	0.04565
761.17515	0.04568
759.88938	0.04570
758.60361	0.04565
757.31784	0.04552
756.03207	0.04539
754.74630	0.04535
753.46053	0.04538
752.17476	0.04543
750.88899	0.04550
749.60323	0.04557
748.31746	0.04564
747.03169	0.04567
745.74592	0.04561
744.46015	0.04547
743.17438	0.04525
741.88861	0.04499
740.60284	0.04475
739.31708	0.04454
738.03131	0.04440
736.74554	0.04431
735.45977	0.04423
734.17400	0.04413
732.88823	0.04405
731.60246	0.04410
730.31669	0.04427
729.03092	0.04449
727.74516	0.04464
726.45939	0.04469
725.17362	0.04467
723.88785	0.04459
722.60208	0.04459
721.31631	0.04461
720.03054	0.04460
718.74477	0.04458
717.45901	0.04457
716.17324	0.04454
714.88747	0.04446
713.60170	0.04432
712.31593	0.04411
711.03016	0.04387
709.74439	0.04366
708.45862	0.04352
707.17285	0.04343
705.88709	0.04338
704.60132	0.04333
703.31555	0.04325
702.02978	0.04317
700.74401	0.04311
699.45824	0.04307
698.17247	0.04307
696.88670	0.04308
695.60094	0.04307
694.31517	0.04301
693.02940	0.04288
691.74363	0.04274
690.45786	0.04263
689.17209	0.04258
687.88632	0.04256
686.60055	0.04252
685.31478	0.04243
684.02902	0.04232
682.74325	0.04221
681.45748	0.04208
680.17171	0.04188
678.88594	0.04163
677.60017	0.04136
676.31440	0.04115
675.02863	0.04106
673.74287	0.04109
672.45710	0.04122
671.17133	0.04139
669.88556	0.04154
668.59979	0.04164
667.31402	0.04165
666.02825	0.04152
664.74248	0.04126
663.45671	0.04095
662.17095	0.04067
660.88518	0.04046
659.59941	0.04030
658.31364	0.04016
657.02787	0.04003
655.74210	0.03993
654.45633	0.03985
653.17056	0.03980
651.88480	0.03978
650.59903	0.03978
649.31326	0.03979
648.02749	0.03981
646.74172	0.03986
645.45595	0.03996
644.17018	0.04010
642.88441	0.04027
641.59864	0.04046
640.31288	0.04070
639.02711	0.04098
637.74134	0.04131
636.45557	0.04169
635.16980	0.04215
633.88403	0.04274
632.59826	0.04340
631.31249	0.04414
630.02673	0.04516
628.74096	0.04639
627.45519	0.04692
626.16942	0.04826
624.88365	0.04991
623.59788	0.05132
622.31211	0.05304
621.02634	0.05585
619.74057	0.05965
618.45481	0.06362
617.16904	0.06734
615.88327	0.07094
614.59750	0.07465
613.31173	0.07865
612.02596	0.08340
610.74019	0.08969
609.45442	0.09793
608.16866	0.10739
606.88289	0.11650
605.59712	0.12397
604.31135	0.12936
603.02558	0.13276
601.73981	0.13428
600.45404	0.13403
599.16827	0.13226
597.88250	0.12939
596.59674	0.12588
595.31097	0.12212
594.02520	0.11850
592.73943	0.11539
591.45366	0.11313
590.16789	0.11192
588.88212	0.11176
587.59635	0.11249
586.31059	0.11394
585.02482	0.11597
583.73905	0.11844
582.45328	0.12124
581.16751	0.12435
579.88174	0.12779
578.59597	0.13153
577.31020	0.13544
576.02443	0.13936
574.73867	0.14316
573.45290	0.14679
572.16713	0.15031
570.88136	0.15393
569.59559	0.15798
568.30982	0.16267
567.02405	0.16786
565.73828	0.17316
564.45251	0.17809
563.16675	0.18213
561.88098	0.18466
560.59521	0.18504
559.30944	0.18286
558.02367	0.17815
556.73790	0.17140
555.45213	0.16346
554.16636	0.15517
552.88060	0.14702
551.59483	0.13917
550.30906	0.13162
549.02329	0.12440
547.73752	0.11768
546.45175	0.11160
545.16598	0.10622
543.88021	0.10149
542.59444	0.09726
541.30868	0.09339
540.02291	0.08984
538.73714	0.08657
537.45137	0.08359
536.16560	0.08083
534.87983	0.07823
533.59406	0.07571
532.30829	0.07326
531.02253	0.07092
529.73676	0.06874
528.45099	0.06676
527.16522	0.06494
525.87945	0.06322
524.59368	0.06156
523.30791	0.06001
522.02214	0.05858
520.73637	0.05727
519.45061	0.05601
518.16484	0.05477
516.87907	0.05352
515.59330	0.05233
514.30753	0.05122
513.02176	0.05021
511.73599	0.04929
510.45022	0.04842
509.16446	0.04754
507.87869	0.04666
506.59292	0.04584
505.30715	0.04519
504.02138	0.04467
502.73561	0.04413
501.44984	0.04346
500.16407	0.04270
498.87830	0.04197
497.59254	0.04139
496.30677	0.04094
495.02100	0.04057
493.73523	0.04021
492.44946	0.03983
491.16369	0.03944
489.87792	0.03909
488.59215	0.03878
487.30639	0.03852
486.02062	0.03828
484.73485	0.03810
483.44908	0.03805
482.16331	0.03811
480.87754	0.03824
479.59177	0.03841
478.30600	0.03865
477.02023	0.03902
475.73447	0.03948
474.44870	0.03988
473.16293	0.04008
471.87716	0.04002
470.59139	0.03975
469.30562	0.03942
468.01985	0.03915
466.73408	0.03898
465.44832	0.03885
464.16255	0.03865
462.87678	0.03831
461.59101	0.03784
460.30524	0.03731
459.01947	0.03683
457.73370	0.03647
456.44793	0.03621
455.16216	0.03598
453.87640	0.03574
452.59063	0.03547
451.30486	0.03514
450.01909	0.03475
448.73332	0.03437
447.44755	0.03406
446.16178	0.03384
444.87601	0.03366
443.59025	0.03348
442.30448	0.03332
441.01871	0.03321
439.73294	0.03314
438.44717	0.03310
437.16140	0.03307
435.87563	0.03303
434.58986	0.03299
433.30409	0.03290
432.01833	0.03280
430.73256	0.03270
429.44679	0.03264
428.16102	0.03262
426.87525	0.03263
425.58948	0.03261
424.30371	0.03256
423.01794	0.03248
421.73218	0.03238
420.44641	0.03227
419.16064	0.03221
417.87487	0.03219
416.58910	0.03215
415.30333	0.03208
414.01756	0.03202
412.73179	0.03207
411.44602	0.03223
410.16026	0.03243
408.87449	0.03260
407.58872	0.03272
406.30295	0.03279
405.01718	0.03286
403.73141	0.03293
402.44564	0.03301
401.15987	0.03312
399.87411	0.03327
