3997.45528	0.01159
3996.16951	0.01149
3994.88374	0.01111
3993.59798	0.01056
3992.31221	0.01008
3991.02644	0.00980
3989.74067	0.00983
3988.45490	0.01025
3987.16913	0.01099
3985.88336	0.01165
3984.59759	0.01175
3983.31183	0.01129
3982.02606	0.01083
3980.74029	0.01088
3979.45452	0.01139
3978.16875	0.01189
3976.88298	0.01209
3975.59721	0.01211
3974.31144	0.01214
3973.02567	0.01211
3971.73991	0.01177
3970.45414	0.01102
3969.16837	0.01012
3967.88260	0.00947
3966.59683	0.00929
3965.31106	0.00956
3964.02529	0.01010
3962.73952	0.01075
3961.45376	0.01133
3960.16799	0.01166
3958.88222	0.01158
3957.59645	0.01112
3956.31068	0.01044
3955.02491	0.00982
3953.73914	0.00947
3952.45337	0.00947
3951.16760	0.00975
3949.88184	0.01020
3948.59607	0.01064
3947.31030	0.01093
3946.02453	0.01115
3944.73876	0.01152
3943.45299	0.01212
3942.16722	0.01270
3940.88145	0.01283
3939.59569	0.01227
3938.30992	0.01119
3937.02415	0.01007
3935.73838	0.00947
3934.45261	0.00958
3933.16684	0.01003
3931.88107	0.01027
3930.59530	0.01018
3929.30953	0.01008
3928.02377	0.01021
3926.73800	0.01034
3925.45223	0.01004
3924.16646	0.00936
3922.88069	0.00887
3921.59492	0.00909
3920.30915	0.00991
3919.02338	0.01072
3917.73762	0.01102
3916.45185	0.01071
3915.16608	0.01015
3913.88031	0.00969
3912.59454	0.00947
3911.30877	0.00949
3910.02300	0.00978
3908.73723	0.01031
3907.45146	0.01085
3906.16570	0.01109
3904.87993	0.01082
3903.59416	0.01018
3902.30839	0.00966
3901.02262	0.00969
3899.73685	0.01023
3898.45108	0.01081
3897.16531	0.01103
3895.87955	0.01100
3894.59378	0.01102
3893.30801	0.01109
3892.02224	0.01097
3890.73647	0.01054
3889.45070	0.01010
3888.16493	0.00999
3886.87916	0.01012
3885.59339	0.01009
3884.30763	0.00982
3883.02186	0.00962
3881.73609	0.00975
3880.45032	0.01008
3879.16455	0.01031
3877.87878	0.01037
3876.59301	0.01034
3875.30724	0.01031
3874.02148	0.01029
3872.73571	0.01030
3871.44994	0.01036
3870.16417	0.01050
3868.87840	0.01088
3867.59263	0.01167
3866.30686	0.01274
3865.02109	0.01356
3863.73532	0.01375
3862.44956	0.01344
3861.16379	0.01296
3859.87802	0.01240
3858.59225	0.01164
3857.30648	0.01061
3856.02071	0.00965
3854.73494	0.00914
3853.44917	0.00903
3852.16341	0.00902
3850.87764	0.00900
3849.59187	0.00900
3848.30610	0.00905
3847.02033	0.00917
3845.73456	0.00939
3844.44879	0.00974
3843.16302	0.01001
3841.87725	0.00992
3840.59149	0.00938
3839.30572	0.00867
3838.01995	0.00819
3836.73418	0.00820
3835.44841	0.00868
3834.16264	0.00939
3832.87687	0.01002
3831.59110	0.01039
3830.30534	0.01056
3829.01957	0.01074
3827.73380	0.01113
3826.44803	0.01171
3825.16226	0.01222
3823.87649	0.01239
3822.59072	0.01207
3821.30495	0.01142
3820.01918	0.01083
3818.73342	0.01068
3817.44765	0.01081
3816.16188	0.01064
3814.87611	0.00983
3813.59034	0.00876
3812.30457	0.00805
3811.01880	0.00798
3809.73303	0.00846
3808.44726	0.00917
3807.16150	0.00966
3805.87573	0.00974
3804.58996	0.00972
3803.30419	0.01000
3802.01842	0.01043
3800.73265	0.01050
3799.44688	0.01005
3798.16111	0.00952
3796.87535	0.00928
3795.58958	0.00943
3794.30381	0.00992
3793.01804	0.01065
3791.73227	0.01126
3790.44650	0.01128
3789.16073	0.01057
3787.87496	0.00963
3786.58919	0.00908
3785.30343	0.00908
3784.01766	0.00924
3782.73189	0.00927
3781.44612	0.00929
3780.16035	0.00950
3778.87458	0.00982
3777.58881	0.00999
3776.30304	0.00992
3775.01728	0.00984
3773.73151	0.01003
3772.44574	0.01043
3771.15997	0.01064
3769.87420	0.01025
3768.58843	0.00936
3767.30266	0.00853
3766.01689	0.00825
3764.73112	0.00858
3763.44536	0.00934
3762.15959	0.01026
3760.87382	0.01108
3759.58805	0.01162
3758.30228	0.01175
3757.01651	0.01150
3755.73074	0.01103
3754.44497	0.01072
3753.15921	0.01078
3751.87344	0.01114
3750.58767	0.01145
3749.30190	0.01136
3748.01613	0.01081
3746.73036	0.01031
3745.44459	0.01031
3744.15882	0.01067
3742.87305	0.01100
3741.58729	0.01109
3740.30152	0.01093
3739.01575	0.01068
3737.72998	0.01067
3736.44421	0.01091
3735.15844	0.01113
3733.87267	0.01111
3732.58690	0.01082
3731.30114	0.01038
3730.01537	0.01008
3728.72960	0.01015
3727.44383	0.01048
3726.15806	0.01071
3724.87229	0.01063
3723.58652	0.01029
3722.30075	0.00986
3721.01498	0.00958
3719.72922	0.00972
3718.44345	0.01027
3717.15768	0.01093
3715.87191	0.01135
3714.58614	0.01144
3713.30037	0.01125
3712.01460	0.01085
3710.72883	0.01039
3709.44307	0.01008
3708.15730	0.00997
3706.87153	0.00990
3705.58576	0.00980
3704.29999	0.00982
3703.01422	0.00997
3701.72845	0.00990
3700.44268	0.00939
3699.15691	0.00880
3697.87115	0.00870
3696.58538	0.00919
3695.29961	0.00981
3694.01384	0.00996
3692.72807	0.00949
3691.44230	0.00887
3690.15653	0.00865
3688.87076	0.00881
3687.58500	0.00899
3686.29923	0.00911
3685.01346	0.00934
3683.72769	0.00974
3682.44192	0.01009
3681.15615	0.01024
3679.87038	0.01015
3678.58461	0.00996
3677.29884	0.00977
3676.01308	0.00960
3674.72731	0.00954
3673.44154	0.00978
3672.15577	0.01032
3670.87000	0.01079
3669.58423	0.01095
3668.29846	0.01098
3667.01269	0.01102
3665.72693	0.01080
3664.44116	0.01018
3663.15539	0.00958
3661.86962	0.00946
3660.58385	0.00972
3659.29808	0.00983
3658.01231	0.00954
3656.72654	0.00910
3655.44077	0.00894
3654.15501	0.00929
3652.86924	0.01012
3651.58347	0.01108
3650.29770	0.01160
3649.01193	0.01137
3647.72616	0.01064
3646.44039	0.00997
3645.15462	0.00973
3643.86886	0.00989
3642.58309	0.01027
3641.29732	0.01087
3640.01155	0.01174
3638.72578	0.01264
3637.44001	0.01300
3636.15424	0.01245
3634.86847	0.01126
3633.58270	0.01025
3632.29694	0.01020
3631.01117	0.01123
3629.72540	0.01263
3628.43963	0.01329
3627.15386	0.01279
3625.86809	0.01171
3624.58232	0.01081
3623.29655	0.01031
3622.01079	0.00995
3620.72502	0.00952
3619.43925	0.00922
3618.15348	0.00925
3616.86771	0.00955
3615.58194	0.00992
3614.29617	0.01032
3613.01040	0.01084
3611.72463	0.01147
3610.43887	0.01205
3609.15310	0.01250
3607.86733	0.01279
3606.58156	0.01286
3605.29579	0.01256
3604.01002	0.01184
3602.72425	0.01094
3601.43848	0.01025
3600.15272	0.01008
3598.86695	0.01049
3597.58118	0.01137
3596.29541	0.01242
3595.00964	0.01332
3593.72387	0.01384
3592.43810	0.01385
3591.15233	0.01339
3589.86656	0.01275
3588.58080	0.01229
3587.29503	0.01213
3586.00926	0.01222
3584.72349	0.01249
3583.43772	0.01291
3582.15195	0.01348
3580.86618	0.01407
3579.58041	0.01443
3578.29464	0.01442
3577.00888	0.01422
3575.72311	0.01416
3574.43734	0.01448
3573.15157	0.01507
3571.86580	0.01561
3570.58003	0.01578
3569.29426	0.01548
3568.00849	0.01487
3566.72273	0.01426
3565.43696	0.01389
3564.15119	0.01379
3562.86542	0.01377
3561.57965	0.01368
3560.29388	0.01348
3559.00811	0.01322
3557.72234	0.01296
3556.43657	0.01275
3555.15081	0.01261
3553.86504	0.01253
3552.57927	0.01248
3551.29350	0.01243
3550.00773	0.01239
3548.72196	0.01247
3547.43619	0.01277
3546.15042	0.01321
3544.86466	0.01363
3543.57889	0.01398
3542.29312	0.01441
3541.00735	0.01501
3539.72158	0.01558
3538.43581	0.01583
3537.15004	0.01568
3535.86427	0.01530
3534.57850	0.01490
3533.29274	0.01452
3532.00697	0.01414
3530.72120	0.01384
3529.43543	0.01372
3528.14966	0.01380
3526.86389	0.01402
3525.57812	0.01429
3524.29235	0.01442
3523.00659	0.01420
3521.72082	0.01361
3520.43505	0.01303
3519.14928	0.01290
3517.86351	0.01319
3516.57774	0.01350
3515.29197	0.01357
3514.00620	0.01353
3512.72043	0.01373
3511.43467	0.01425
3510.14890	0.01484
3508.86313	0.01513
3507.57736	0.01503
3506.29159	0.01476
3505.00582	0.01460
3503.72005	0.01464
3502.43428	0.01476
3501.14852	0.01483
3499.86275	0.01486
3498.57698	0.01491
3497.29121	0.01503
3496.00544	0.01519
3494.71967	0.01539
3493.43390	0.01564
3492.14813	0.01595
3490.86236	0.01623
3489.57660	0.01634
3488.29083	0.01618
3487.00506	0.01585
3485.71929	0.01564
3484.43352	0.01579
3483.14775	0.01626
3481.86198	0.01671
3480.57621	0.01686
3479.29045	0.01669
3478.00468	0.01641
3476.71891	0.01617
3475.43314	0.01603
3474.14737	0.01601
3472.86160	0.01615
3471.57583	0.01641
3470.29006	0.01666
3469.00429	0.01677
3467.71853	0.01667
3466.43276	0.01641
3465.14699	0.01617
3463.86122	0.01614
3462.57545	0.01634
3461.28968	0.01658
3460.00391	0.01665
3458.71814	0.01649
3457.43238	0.01620
3456.14661	0.01603
3454.86084	0.01616
3453.57507	0.01653
3452.28930	0.01686
3451.00353	0.01696
3449.71776	0.01691
3448.43199	0.01690
3447.14622	0.01689
3445.86046	0.01666
3444.57469	0.01612
3443.28892	0.01545
3442.00315	0.01492
3440.71738	0.01468
3439.43161	0.01476
3438.14584	0.01521
3436.86007	0.01601
3435.57431	0.01695
3434.28854	0.01770
3433.00277	0.01804
3431.71700	0.01802
3430.43123	0.01790
3429.14546	0.01788
3427.85969	0.01797
3426.57392	0.01794
3425.28815	0.01761
3424.00239	0.01710
3422.71662	0.01670
3421.43085	0.01666
3420.14508	0.01692
3418.85931	0.01728
3417.57354	0.01756
3416.28777	0.01766
3415.00200	0.01751
3413.71624	0.01716
3412.43047	0.01678
3411.14470	0.01650
3409.85893	0.01631
3408.57316	0.01615
3407.28739	0.01608
3406.00162	0.01623
3404.71585	0.01655
3403.43008	0.01681
3402.14432	0.01681
3400.85855	0.01661
3399.57278	0.01640
3398.28701	0.01639
3397.00124	0.01666
3395.71547	0.01712
3394.42970	0.01754
3393.14393	0.01770
3391.85817	0.01763
3390.57240	0.01760
3389.28663	0.01788
3388.00086	0.01841
3386.71509	0.01885
3385.42932	0.01888
3384.14355	0.01847
3382.85778	0.01787
3381.57201	0.01736
3380.28625	0.01709
3379.00048	0.01705
3377.71471	0.01718
3376.42894	0.01734
3375.14317	0.01748
3373.85740	0.01762
3372.57163	0.01782
3371.28586	0.01801
3370.00010	0.01805
3368.71433	0.01788
3367.42856	0.01765
3366.14279	0.01754
3364.85702	0.01765
3363.57125	0.01793
3362.28548	0.01824
3360.99971	0.01841
3359.71394	0.01835
3358.42818	0.01816
3357.14241	0.01797
3355.85664	0.01788
3354.57087	0.01786
3353.28510	0.01784
3351.99933	0.01779
3350.71356	0.01771
3349.42779	0.01766
3348.14202	0.01766
3346.85626	0.01771
3345.57049	0.01781
3344.28472	0.01795
3342.99895	0.01814
3341.71318	0.01835
3340.42741	0.01849
3339.14164	0.01842
3337.85587	0.01810
3336.57011	0.01767
3335.28434	0.01743
3333.99857	0.01760
3332.71280	0.01818
3331.42703	0.01887
3330.14126	0.01931
3328.85549	0.01923
3327.56972	0.01869
3326.28395	0.01807
3324.99819	0.01782
3323.71242	0.01812
3322.42665	0.01872
3321.14088	0.01909
3319.85511	0.01888
3318.56934	0.01817
3317.28357	0.01743
3315.99780	0.01706
3314.71204	0.01705
3313.42627	0.01715
3312.14050	0.01722
3310.85473	0.01740
3309.56896	0.01784
3308.28319	0.01850
3306.99742	0.01918
3305.71165	0.01968
3304.42588	0.01987
3303.14012	0.01965
3301.85435	0.01912
3300.56858	0.01852
3299.28281	0.01811
3297.99704	0.01790
3296.71127	0.01782
3295.42550	0.01788
3294.13973	0.01816
3292.85397	0.01862
3291.56820	0.01906
3290.28243	0.01919
3288.99666	0.01900
3287.71089	0.01866
3286.42512	0.01843
3285.13935	0.01837
3283.85358	0.01839
3282.56781	0.01840
3281.28205	0.01842
3279.99628	0.01849
3278.71051	0.01858
3277.42474	0.01861
3276.13897	0.01854
3274.85320	0.01842
3273.56743	0.01828
3272.28166	0.01816
3270.99590	0.01805
3269.71013	0.01796
3268.42436	0.01783
3267.13859	0.01749
3265.85282	0.01694
3264.56705	0.01640
3263.28128	0.01617
3261.99551	0.01634
3260.70974	0.01678
3259.42398	0.01731
3258.13821	0.01779
3256.85244	0.01813
3255.56667	0.01822
3254.28090	0.01806
3252.99513	0.01780
3251.70936	0.01760
3250.42359	0.01756
3249.13783	0.01767
3247.85206	0.01780
3246.56629	0.01782
3245.28052	0.01766
3243.99475	0.01744
3242.70898	0.01738
3241.42321	0.01754
3240.13744	0.01780
3238.85167	0.01798
3237.56591	0.01796
3236.28014	0.01777
3234.99437	0.01750
3233.70860	0.01724
3232.42283	0.01711
3231.13706	0.01717
3229.85129	0.01744
3228.56552	0.01779
3227.27976	0.01802
3225.99399	0.01800
3224.70822	0.01771
3223.42245	0.01724
3222.13668	0.01670
3220.85091	0.01624
3219.56514	0.01605
3218.27937	0.01629
3216.99360	0.01689
3215.70784	0.01753
3214.42207	0.01784
3213.13630	0.01768
3211.85053	0.01721
3210.56476	0.01669
3209.27899	0.01631
3207.99322	0.01615
3206.70745	0.01622
3205.42169	0.01653
3204.13592	0.01699
3202.85015	0.01738
3201.56438	0.01751
3200.27861	0.01742
3198.99284	0.01732
3197.70707	0.01738
3196.42130	0.01751
3195.13553	0.01742
3193.84977	0.01702
3192.56400	0.01655
3191.27823	0.01635
3189.99246	0.01653
3188.70669	0.01688
3187.42092	0.01714
3186.13515	0.01719
3184.84938	0.01704
3183.56362	0.01677
3182.27785	0.01651
3180.99208	0.01634
3179.70631	0.01626
3178.42054	0.01629
3177.13477	0.01647
3175.84900	0.01678
3174.56323	0.01711
3173.27746	0.01726
3171.99170	0.01712
3170.70593	0.01680
3169.42016	0.01654
3168.13439	0.01652
3166.84862	0.01669
3165.56285	0.01681
3164.27708	0.01665
3162.99131	0.01624
3161.70555	0.01583
3160.41978	0.01570
3159.13401	0.01589
3157.84824	0.01624
3156.56247	0.01654
3155.27670	0.01676
3153.99093	0.01697
3152.70516	0.01709
3151.41939	0.01695
3150.13363	0.01650
3148.84786	0.01600
3147.56209	0.01578
3146.27632	0.01589
3144.99055	0.01618
3143.70478	0.01645
3142.41901	0.01662
3141.13324	0.01665
3139.84748	0.01654
3138.56171	0.01640
3137.27594	0.01638
3135.99017	0.01654
3134.70440	0.01681
3133.41863	0.01703
3132.13286	0.01710
3130.84709	0.01701
3129.56132	0.01677
3128.27556	0.01639
3126.98979	0.01591
3125.70402	0.01543
3124.41825	0.01507
3123.13248	0.01490
3121.84671	0.01486
3120.56094	0.01484
3119.27517	0.01484
3117.98940	0.01494
3116.70364	0.01524
3115.41787	0.01566
3114.13210	0.01593
3112.84633	0.01580
3111.56056	0.01527
3110.27479	0.01467
3108.98902	0.01436
3107.70325	0.01437
3106.41749	0.01452
3105.13172	0.01466
3103.84595	0.01479
3102.56018	0.01496
3101.27441	0.01512
3099.98864	0.01515
3098.70287	0.01502
3097.41710	0.01484
3096.13133	0.01476
3094.84557	0.01485
3093.55980	0.01507
3092.27403	0.01536
3090.98826	0.01566
3089.70249	0.01598
3088.41672	0.01632
3087.13095	0.01670
3085.84518	0.01709
3084.55942	0.01735
3083.27365	0.01726
3081.98788	0.01678
3080.70211	0.01610
3079.41634	0.01557
3078.13057	0.01535
3076.84480	0.01534
3075.55903	0.01528
3074.27326	0.01506
3072.98750	0.01477
3071.70173	0.01464
3070.41596	0.01485
3069.13019	0.01542
3067.84442	0.01616
3066.55865	0.01671
3065.27288	0.01676
3063.98711	0.01632
3062.70135	0.01575
3061.41558	0.01542
3060.12981	0.01536
3058.84404	0.01530
3057.55827	0.01508
3056.27250	0.01475
3054.98673	0.01455
3053.70096	0.01459
3052.41519	0.01485
3051.12943	0.01514
3049.84366	0.01525
3048.55789	0.01508
3047.27212	0.01477
3045.98635	0.01456
3044.70058	0.01462
3043.41481	0.01485
3042.12904	0.01503
3040.84328	0.01503
3039.55751	0.01494
3038.27174	0.01494
3036.98597	0.01513
3035.70020	0.01543
3034.41443	0.01566
3033.12866	0.01567
3031.84289	0.01543
3030.55712	0.01507
3029.27136	0.01473
3027.98559	0.01449
3026.69982	0.01435
3025.41405	0.01430
3024.12828	0.01436
3022.84251	0.01450
3021.55674	0.01463
3020.27097	0.01464
3018.98521	0.01453
3017.69944	0.01435
3016.41367	0.01424
3015.12790	0.01421
3013.84213	0.01417
3012.55636	0.01405
3011.27059	0.01397
3009.98482	0.01409
3008.69905	0.01438
3007.41329	0.01463
3006.12752	0.01468
3004.84175	0.01460
3003.55598	0.01455
3002.27021	0.01467
3000.98444	0.01494
2999.69867	0.01526
2998.41290	0.01546
2997.12714	0.01544
2995.84137	0.01527
2994.55560	0.01510
2993.26983	0.01503
2991.98406	0.01496
2990.69829	0.01482
2989.41252	0.01468
2988.12675	0.01469
2986.84098	0.01485
2985.55522	0.01503
2984.26945	0.01510
2982.98368	0.01508
2981.69791	0.01510
2980.41214	0.01522
2979.12637	0.01537
2977.84060	0.01535
2976.55483	0.01515
2975.26907	0.01493
2973.98330	0.01496
2972.69753	0.01529
2971.41176	0.01574
2970.12599	0.01601
2968.84022	0.01599
2967.55445	0.01582
2966.26868	0.01576
2964.98291	0.01587
2963.69715	0.01596
2962.41138	0.01585
2961.12561	0.01567
2959.83984	0.01562
2958.55407	0.01578
2957.26830	0.01607
2955.98253	0.01638
2954.69676	0.01672
2953.41100	0.01706
2952.12523	0.01730
2950.83946	0.01733
2949.55369	0.01719
2948.26792	0.01707
2946.98215	0.01710
2945.69638	0.01722
2944.41061	0.01717
2943.12484	0.01682
2941.83908	0.01630
2940.55331	0.01588
2939.26754	0.01573
2937.98177	0.01591
2936.69600	0.01636
2935.41023	0.01693
2934.12446	0.01731
2932.83869	0.01724
2931.55293	0.01680
2930.26716	0.01635
2928.98139	0.01621
2927.69562	0.01642
2926.40985	0.01676
2925.12408	0.01701
2923.83831	0.01712
2922.55254	0.01718
2921.26677	0.01735
2919.98101	0.01763
2918.69524	0.01781
2917.40947	0.01770
2916.12370	0.01731
2914.83793	0.01687
2913.55216	0.01662
2912.26639	0.01664
2910.98062	0.01677
2909.69486	0.01679
2908.40909	0.01658
2907.12332	0.01622
2905.83755	0.01584
2904.55178	0.01558
2903.26601	0.01552
2901.98024	0.01567
2900.69447	0.01593
2899.40870	0.01617
2898.12294	0.01628
2896.83717	0.01621
2895.55140	0.01601
2894.26563	0.01582
2892.97986	0.01572
2891.69409	0.01563
2890.40832	0.01543
2889.12255	0.01516
2887.83678	0.01497
2886.55102	0.01489
2885.26525	0.01485
2883.97948	0.01474
2882.69371	0.01454
2881.40794	0.01435
2880.12217	0.01427
2878.83640	0.01440
2877.55063	0.01470
2876.26487	0.01504
2874.97910	0.01528
2873.69333	0.01530
2872.40756	0.01514
2871.12179	0.01495
2869.83602	0.01485
2868.55025	0.01483
2867.26448	0.01475
2865.97871	0.01464
2864.69295	0.01461
2863.40718	0.01469
2862.12141	0.01471
2860.83564	0.01453
2859.54987	0.01424
2858.26410	0.01410
2856.97833	0.01420
2855.69256	0.01445
2854.40680	0.01464
2853.12103	0.01465
2851.83526	0.01452
2850.54949	0.01446
2849.26372	0.01460
2847.97795	0.01484
2846.69218	0.01500
2845.40641	0.01497
2844.12064	0.01483
2842.83488	0.01464
2841.54911	0.01440
2840.26334	0.01413
2838.97757	0.01386
2837.69180	0.01363
2836.40603	0.01346
2835.12026	0.01339
2833.83449	0.01338
2832.54873	0.01338
2831.26296	0.01336
2829.97719	0.01330
2828.69142	0.01320
2827.40565	0.01309
2826.11988	0.01302
2824.83411	0.01303
2823.54834	0.01309
2822.26257	0.01308
2820.97681	0.01292
2819.69104	0.01265
2818.40527	0.01242
2817.11950	0.01237
2815.83373	0.01245
2814.54796	0.01253
2813.26219	0.01253
2811.97642	0.01254
2810.69066	0.01260
2809.40489	0.01269
2808.11912	0.01277
2806.83335	0.01284
2805.54758	0.01288
2804.26181	0.01281
2802.97604	0.01266
2801.69027	0.01251
2800.40450	0.01237
2799.11874	0.01219
2797.83297	0.01198
2796.54720	0.01179
2795.26143	0.01165
2793.97566	0.01160
2792.68989	0.01165
2791.40412	0.01183
2790.11835	0.01205
2788.83259	0.01215
2787.54682	0.01205
2786.26105	0.01185
2784.97528	0.01170
2783.68951	0.01168
2782.40374	0.01170
2781.11797	0.01169
2779.83220	0.01169
2778.54643	0.01174
2777.26067	0.01185
2775.97490	0.01194
2774.68913	0.01199
2773.40336	0.01206
2772.11759	0.01217
2770.83182	0.01228
2769.54605	0.01228
2768.26028	0.01211
2766.97452	0.01184
2765.68875	0.01163
2764.40298	0.01158
2763.11721	0.01166
2761.83144	0.01175
2760.54567	0.01173
2759.25990	0.01158
2757.97413	0.01138
2756.68836	0.01125
2755.40260	0.01118
2754.11683	0.01113
2752.83106	0.01110
2751.54529	0.01114
2750.25952	0.01127
2748.97375	0.01145
2747.68798	0.01159
2746.40221	0.01165
2745.11645	0.01168
2743.83068	0.01172
2742.54491	0.01177
2741.25914	0.01179
2739.97337	0.01172
2738.68760	0.01160
2737.40183	0.01144
2736.11606	0.01128
2734.83029	0.01118
2733.54453	0.01124
2732.25876	0.01144
2730.97299	0.01168
2729.68722	0.01181
2728.40145	0.01175
2727.11568	0.01146
2725.82991	0.01101
2724.54414	0.01059
2723.25838	0.01037
2721.97261	0.01041
2720.68684	0.01064
2719.40107	0.01093
2718.11530	0.01119
2716.82953	0.01140
2715.54376	0.01153
2714.25799	0.01159
2712.97222	0.01156
2711.68646	0.01148
2710.40069	0.01136
2709.11492	0.01127
2707.82915	0.01121
2706.54338	0.01118
2705.25761	0.01110
2703.97184	0.01098
2702.68607	0.01091
2701.40031	0.01101
2700.11454	0.01131
2698.82877	0.01167
2697.54300	0.01192
2696.25723	0.01192
2694.97146	0.01166
2693.68569	0.01125
2692.39992	0.01090
2691.11415	0.01075
2689.82839	0.01078
2688.54262	0.01085
2687.25685	0.01087
2685.97108	0.01084
2684.68531	0.01080
2683.39954	0.01076
2682.11377	0.01073
2680.82800	0.01070
2679.54224	0.01071
2678.25647	0.01075
2676.97070	0.01086
2675.68493	0.01100
2674.39916	0.01109
2673.11339	0.01099
2671.82762	0.01070
2670.54185	0.01042
2669.25608	0.01037
2667.97032	0.01060
2666.68455	0.01095
2665.39878	0.01116
2664.11301	0.01114
2662.82724	0.01094
2661.54147	0.01071
2660.25570	0.01053
2658.96993	0.01043
2657.68417	0.01042
2656.39840	0.01049
2655.11263	0.01060
2653.82686	0.01073
2652.54109	0.01088
2651.25532	0.01100
2649.96955	0.01106
2648.68378	0.01102
2647.39801	0.01094
2646.11225	0.01091
2644.82648	0.01097
2643.54071	0.01109
2642.25494	0.01121
2640.96917	0.01127
2639.68340	0.01126
2638.39763	0.01117
2637.11186	0.01101
2635.82609	0.01083
2634.54033	0.01064
2633.25456	0.01037
2631.96879	0.01001
2630.68302	0.00961
2629.39725	0.00938
2628.11148	0.00942
2626.82571	0.00971
2625.53994	0.01007
2624.25418	0.01035
2622.96841	0.01047
2621.68264	0.01042
2620.39687	0.01027
2619.11110	0.01006
2617.82533	0.00982
2616.53956	0.00958
2615.25379	0.00935
2613.96802	0.00914
2612.68226	0.00904
2611.39649	0.00911
2610.11072	0.00933
2608.82495	0.00962
2607.53918	0.00983
2606.25341	0.00990
2604.96764	0.00981
2603.68187	0.00961
2602.39611	0.00937
2601.11034	0.00916
2599.82457	0.00898
2598.53880	0.00890
2597.25303	0.00894
2595.96726	0.00914
2594.68149	0.00947
2593.39572	0.00984
2592.10995	0.01006
2590.82419	0.00996
2589.53842	0.00952
2588.25265	0.00899
2586.96688	0.00868
2585.68111	0.00875
2584.39534	0.00917
2583.10957	0.00974
2581.82380	0.01017
2580.53804	0.01028
2579.25227	0.01014
2577.96650	0.00993
2576.68073	0.00975
2575.39496	0.00955
2574.10919	0.00924
2572.82342	0.00883
2571.53765	0.00845
2570.25188	0.00818
2568.96612	0.00802
2567.68035	0.00797
2566.39458	0.00801
2565.10881	0.00814
2563.82304	0.00834
2562.53727	0.00864
2561.25150	0.00901
2559.96573	0.00936
2558.67997	0.00958
2557.39420	0.00960
2556.10843	0.00946
2554.82266	0.00922
2553.53689	0.00897
2552.25112	0.00875
2550.96535	0.00854
2549.67958	0.00830
2548.39381	0.00808
2547.10805	0.00804
2545.82228	0.00824
2544.53651	0.00857
2543.25074	0.00887
2541.96497	0.00910
2540.67920	0.00924
2539.39343	0.00927
2538.10766	0.00925
2536.82190	0.00928
2535.53613	0.00939
2534.25036	0.00943
2532.96459	0.00925
2531.67882	0.00884
2530.39305	0.00834
2529.10728	0.00789
2527.82151	0.00759
2526.53574	0.00742
2525.24998	0.00739
2523.96421	0.00755
2522.67844	0.00789
2521.39267	0.00821
2520.10690	0.00827
2518.82113	0.00807
2517.53536	0.00784
2516.24959	0.00775
2514.96383	0.00778
2513.67806	0.00787
2512.39229	0.00798
2511.10652	0.00807
2509.82075	0.00805
2508.53498	0.00793
2507.24921	0.00783
2505.96344	0.00794
2504.67767	0.00827
2503.39191	0.00869
2502.10614	0.00902
2500.82037	0.00914
2499.53460	0.00905
2498.24883	0.00887
2496.96306	0.00878
2495.67729	0.00885
2494.39152	0.00894
2493.10576	0.00876
2491.81999	0.00823
2490.53422	0.00758
2489.24845	0.00722
2487.96268	0.00737
2486.67691	0.00785
2485.39114	0.00823
2484.10537	0.00826
2482.81960	0.00800
2481.53384	0.00777
2480.24807	0.00772
2478.96230	0.00779
2477.67653	0.00784
2476.39076	0.00782
2475.10499	0.00779
2473.81922	0.00784
2472.53345	0.00795
2471.24769	0.00803
2469.96192	0.00800
2468.67615	0.00789
2467.39038	0.00781
2466.10461	0.00778
2464.81884	0.00781
2463.53307	0.00790
2462.24730	0.00810
2460.96153	0.00843
2459.67577	0.00877
2458.39000	0.00896
2457.10423	0.00887
2455.81846	0.00855
2454.53269	0.00814
2453.24692	0.00775
2451.96115	0.00737
2450.67538	0.00705
2449.38962	0.00691
2448.10385	0.00704
2446.81808	0.00742
2445.53231	0.00788
2444.24654	0.00824
2442.96077	0.00833
2441.67500	0.00814
2440.38923	0.00783
2439.10346	0.00760
2437.81770	0.00753
2436.53193	0.00761
2435.24616	0.00785
2433.96039	0.00818
2432.67462	0.00841
2431.38885	0.00840
2430.10308	0.00820
2428.81731	0.00803
2427.53155	0.00799
2426.24578	0.00798
2424.96001	0.00784
2423.67424	0.00757
2422.38847	0.00727
2421.10270	0.00711
2419.81693	0.00714
2418.53116	0.00738
2417.24539	0.00769
2415.95963	0.00789
2414.67386	0.00777
2413.38809	0.00738
2412.10232	0.00702
2410.81655	0.00699
2409.53078	0.00730
2408.24501	0.00762
2406.95924	0.00766
2405.67347	0.00748
2404.38771	0.00731
2403.10194	0.00722
2401.81617	0.00711
2400.53040	0.00696
2399.24463	0.00689
2397.95886	0.00693
2396.67309	0.00703
2395.38732	0.00713
2394.10156	0.00728
2392.81579	0.00745
2391.53002	0.00753
2390.24425	0.00739
2388.95848	0.00706
2387.67271	0.00671
2386.38694	0.00652
2385.10117	0.00653
2383.81540	0.00669
2382.52964	0.00690
2381.24387	0.00706
2379.95810	0.00709
2378.67233	0.00699
2377.38656	0.00693
2376.10079	0.00706
2374.81502	0.00728
2373.52925	0.00718
2372.24349	0.00674
2370.95772	0.00632
2369.67195	0.00620
2368.38618	0.00634
2367.10041	0.00652
2365.81464	0.00678
2364.52887	0.00702
2363.24310	0.00716
2361.95733	0.00714
2360.67157	0.00686
2359.38580	0.00661
2358.10003	0.00666
2356.81426	0.00696
2355.52849	0.00736
2354.24272	0.00780
2352.95695	0.00814
2351.67118	0.00810
2350.38542	0.00786
2349.09965	0.00777
2347.81388	0.00771
2346.52811	0.00733
2345.24234	0.00703
2343.95657	0.00749
2342.67080	0.00842
2341.38503	0.00843
2340.09926	0.00764
2338.81350	0.00778
2337.52773	0.00870
2336.24196	0.00842
2334.95619	0.00745
2333.67042	0.00769
2332.38465	0.00871
2331.09888	0.00839
2329.81311	0.00810
2328.52735	0.00865
2327.24158	0.00849
2325.95581	0.00817
2324.67004	0.00867
2323.38427	0.00918
2322.09850	0.00895
2320.81273	0.00886
2319.52696	0.00856
2318.24119	0.00811
2316.95543	0.00791
2315.66966	0.00767
2314.38389	0.00762
2313.09812	0.00790
2311.81235	0.00816
2310.52658	0.00847
2309.24081	0.00863
2307.95504	0.00842
2306.66928	0.00803
2305.38351	0.00759
2304.09774	0.00733
2302.81197	0.00730
2301.52620	0.00734
2300.24043	0.00742
2298.95466	0.00752
2297.66889	0.00764
2296.38312	0.00773
2295.09736	0.00767
2293.81159	0.00742
2292.52582	0.00709
2291.24005	0.00685
2289.95428	0.00687
2288.66851	0.00718
2287.38274	0.00767
2286.09697	0.00813
2284.81121	0.00831
2283.52544	0.00807
2282.23967	0.00756
2280.95390	0.00709
2279.66813	0.00693
2278.38236	0.00714
2277.09659	0.00752
2275.81082	0.00778
2274.52505	0.00778
2273.23929	0.00757
2271.95352	0.00724
2270.66775	0.00678
2269.38198	0.00629
2268.09621	0.00604
2266.81044	0.00629
2265.52467	0.00694
2264.23890	0.00749
2262.95314	0.00750
2261.66737	0.00696
2260.38160	0.00632
2259.09583	0.00591
2257.81006	0.00575
2256.52429	0.00567
2255.23852	0.00553
2253.95275	0.00531
2252.66698	0.00510
2251.38122	0.00500
2250.09545	0.00509
2248.80968	0.00541
2247.52391	0.00587
2246.23814	0.00640
2244.95237	0.00679
2243.66660	0.00671
2242.38083	0.00601
2241.09507	0.00501
2239.80930	0.00437
2238.52353	0.00456
2237.23776	0.00553
2235.95199	0.00677
2234.66622	0.00771
2233.38045	0.00800
2232.09468	0.00761
2230.80891	0.00684
2229.52315	0.00614
2228.23738	0.00575
2226.95161	0.00554
2225.66584	0.00527
2224.38007	0.00497
2223.09430	0.00492
2221.80853	0.00522
2220.52276	0.00562
2219.23700	0.00584
2217.95123	0.00582
2216.66546	0.00569
2215.37969	0.00556
2214.09392	0.00544
2212.80815	0.00525
2211.52238	0.00509
2210.23661	0.00523
2208.95084	0.00568
2207.66508	0.00608
2206.37931	0.00609
2205.09354	0.00592
2203.80777	0.00599
2202.52200	0.00629
2201.23623	0.00643
2199.95046	0.00620
2198.66469	0.00573
2197.37893	0.00512
2196.09316	0.00438
2194.80739	0.00364
2193.52162	0.00308
2192.23585	0.00278
2190.95008	0.00266
2189.66431	0.00274
2188.37854	0.00311
2187.09277	0.00382
2185.80701	0.00469
2184.52124	0.00534
2183.23547	0.00534
2181.94970	0.00469
2180.66393	0.00385
2179.37816	0.00338
2178.09239	0.00328
2176.80662	0.00304
2175.52085	0.00241
2174.23509	0.00177
2172.94932	0.00160
2171.66355	0.00183
2170.37778	0.00217
2169.09201	0.00268
2167.80624	0.00361
2166.52047	0.00478
2165.23470	0.00552
2163.94894	0.00527
2162.66317	0.00390
2161.37740	0.00175
2160.09163	-0.00039
2158.80586	-0.00154
2157.52009	-0.00123
2156.23432	0.00003
2154.94855	0.00131
2153.66278	0.00197
2152.37702	0.00191
2151.09125	0.00143
2149.80548	0.00091
2148.51971	0.00053
2147.23394	0.00022
2145.94817	0.00001
2144.66240	0.00009
2143.37663	0.00056
2142.09087	0.00116
2140.80510	0.00156
2139.51933	0.00176
2138.23356	0.00204
2136.94779	0.00262
2135.66202	0.00338
2134.37625	0.00398
2133.09048	0.00416
2131.80471	0.00386
2130.51895	0.00330
2129.23318	0.00282
2127.94741	0.00271
2126.66164	0.00306
2125.37587	0.00369
2124.09010	0.00421
2122.80433	0.00435
2121.51856	0.00416
2120.23280	0.00400
2118.94703	0.00413
2117.66126	0.00451
2116.37549	0.00486
2115.08972	0.00497
2113.80395	0.00480
2112.51818	0.00449
2111.23241	0.00411
2109.94664	0.00367
2108.66088	0.00311
2107.37511	0.00256
2106.08934	0.00228
2104.80357	0.00244
2103.51780	0.00298
2102.23203	0.00371
2100.94626	0.00436
2099.66049	0.00453
2098.37473	0.00446
2097.08896	0.00426
2095.80319	0.00395
2094.51742	0.00357
2093.23165	0.00309
2091.94588	0.00257
2090.66011	0.00223
2089.37434	0.00227
2088.08857	0.00261
2086.80281	0.00295
2085.51704	0.00302
2084.23127	0.00288
2082.94550	0.00276
2081.65973	0.00277
2080.37396	0.00280
2079.08819	0.00275
2077.80242	0.00260
2076.51666	0.00248
2075.23089	0.00251
2073.94512	0.00275
2072.65935	0.00307
2071.37358	0.00315
2070.08781	0.00277
2068.80204	0.00199
2067.51627	0.00109
2066.23050	0.00033
2064.94474	-0.00015
2063.65897	-0.00025
2062.37320	0.00009
2061.08743	0.00086
2059.80166	0.00181
2058.51589	0.00261
2057.23012	0.00305
2055.94435	0.00330
2054.65859	0.00359
2053.37282	0.00389
2052.08705	0.00390
2050.80128	0.00342
2049.51551	0.00259
2048.22974	0.00166
2046.94397	0.00071
2045.65820	-0.00021
2044.37243	-0.00096
2043.08667	-0.00138
2041.80090	-0.00146
2040.51513	-0.00140
2039.22936	-0.00130
2037.94359	-0.00100
2036.65782	-0.00037
2035.37205	0.00039
2034.08628	0.00082
2032.80052	0.00056
2031.51475	-0.00032
2030.22898	-0.00121
2028.94321	-0.00126
2027.65744	-0.00012
2026.37167	0.00170
2025.08590	0.00331
2023.80013	0.00414
2022.51436	0.00427
2021.22860	0.00392
2019.94283	0.00312
2018.65706	0.00196
2017.37129	0.00090
2016.08552	0.00049
2014.79975	0.00084
2013.51398	0.00145
2012.22821	0.00162
2010.94245	0.00094
2009.65668	-0.00030
2008.37091	-0.00125
2007.08514	-0.00116
2005.79937	-0.00005
2004.51360	0.00132
2003.22783	0.00220
2001.94206	0.00246
2000.65629	0.00246
1999.37053	0.00259
1998.08476	0.00304
1996.79899	0.00369
1995.51322	0.00413
1994.22745	0.00397
1992.94168	0.00319
1991.65591	0.00221
1990.37014	0.00162
1989.08438	0.00174
1987.79861	0.00235
1986.51284	0.00295
1985.22707	0.00339
1983.94130	0.00389
1982.65553	0.00459
1981.36976	0.00515
1980.08399	0.00504
1978.79822	0.00412
1977.51246	0.00283
1976.22669	0.00181
1974.94092	0.00144
1973.65515	0.00155
1972.36938	0.00164
1971.08361	0.00144
1969.79784	0.00124
1968.51207	0.00147
1967.22631	0.00215
1965.94054	0.00278
1964.65477	0.00291
1963.36900	0.00258
1962.08323	0.00218
1960.79746	0.00207
1959.51169	0.00237
1958.22592	0.00302
1956.94015	0.00375
1955.65439	0.00420
1954.36862	0.00417
1953.08285	0.00376
1951.79708	0.00326
1950.51131	0.00287
1949.22554	0.00263
1947.93977	0.00262
1946.65400	0.00296
1945.36823	0.00356
1944.08247	0.00416
1942.79670	0.00460
1941.51093	0.00489
1940.22516	0.00508
1938.93939	0.00504
1937.65362	0.00466
1936.36785	0.00411
1935.08208	0.00370
1933.79632	0.00354
1932.51055	0.00346
1931.22478	0.00327
1929.93901	0.00296
1928.65324	0.00268
1927.36747	0.00257
1926.08170	0.00277
1924.79593	0.00329
1923.51016	0.00388
1922.22440	0.00417
1920.93863	0.00397
1919.65286	0.00349
1918.36709	0.00312
1917.08132	0.00312
1915.79555	0.00350
1914.50978	0.00405
1913.22401	0.00452
1911.93825	0.00477
1910.65248	0.00481
1909.36671	0.00471
1908.08094	0.00450
1906.79517	0.00417
1905.50940	0.00384
1904.22363	0.00371
1902.93786	0.00386
1901.65209	0.00415
1900.36633	0.00433
1899.08056	0.00429
1897.79479	0.00415
1896.50902	0.00409
1895.22325	0.00419
1893.93748	0.00436
1892.65171	0.00446
1891.36594	0.00440
1890.08018	0.00418
1888.79441	0.00388
1887.50864	0.00362
1886.22287	0.00350
1884.93710	0.00349
1883.65133	0.00350
1882.36556	0.00344
1881.07979	0.00338
1879.79402	0.00337
1878.50826	0.00346
1877.22249	0.00364
1875.93672	0.00389
1874.65095	0.00417
1873.36518	0.00437
1872.07941	0.00445
1870.79364	0.00441
1869.50787	0.00435
1868.22211	0.00436
1866.93634	0.00446
1865.65057	0.00460
1864.36480	0.00471
1863.07903	0.00473
1861.79326	0.00467
1860.50749	0.00459
1859.22172	0.00450
1857.93595	0.00441
1856.65019	0.00434
1855.36442	0.00428
1854.07865	0.00424
1852.79288	0.00419
1851.50711	0.00418
1850.22134	0.00424
1848.93557	0.00436
1847.64980	0.00449
1846.36404	0.00455
1845.07827	0.00453
1843.79250	0.00443
1842.50673	0.00438
1841.22096	0.00443
1839.93519	0.00455
1838.64942	0.00458
1837.36365	0.00450
1836.07788	0.00438
1834.79212	0.00434
1833.50635	0.00441
1832.22058	0.00451
1830.93481	0.00456
1829.64904	0.00456
1828.36327	0.00460
1827.07750	0.00473
1825.79173	0.00486
1824.50597	0.00484
1823.22020	0.00461
1821.93443	0.00433
1820.64866	0.00417
1819.36289	0.00418
1818.07712	0.00429
1816.79135	0.00446
1815.50558	0.00466
1814.21981	0.00482
1812.93405	0.00489
1811.64828	0.00482
1810.36251	0.00469
1809.07674	0.00460
1807.79097	0.00460
1806.50520	0.00464
1805.21943	0.00465
1803.93366	0.00463
1802.64790	0.00459
1801.36213	0.00458
1800.07636	0.00461
1798.79059	0.00468
1797.50482	0.00475
1796.21905	0.00479
1794.93328	0.00479
1793.64751	0.00474
1792.36174	0.00465
1791.07598	0.00457
1789.79021	0.00455
1788.50444	0.00459
1787.21867	0.00460
1785.93290	0.00455
1784.64713	0.00447
1783.36136	0.00443
1782.07559	0.00449
1780.78983	0.00456
1779.50406	0.00461
1778.21829	0.00463
1776.93252	0.00469
1775.64675	0.00478
1774.36098	0.00486
1773.07521	0.00486
1771.78944	0.00478
1770.50367	0.00473
1769.21791	0.00479
1767.93214	0.00490
1766.64637	0.00494
1765.36060	0.00491
1764.07483	0.00489
1762.78906	0.00493
1761.50329	0.00499
1760.21752	0.00503
1758.93176	0.00503
1757.64599	0.00505
1756.36022	0.00509
1755.07445	0.00516
1753.78868	0.00528
1752.50291	0.00538
1751.21714	0.00542
1749.93137	0.00537
1748.64560	0.00530
1747.35984	0.00529
1746.07407	0.00536
1744.78830	0.00551
1743.50253	0.00569
1742.21676	0.00585
1740.93099	0.00596
1739.64522	0.00598
1738.35945	0.00595
1737.07369	0.00596
1735.78792	0.00609
1734.50215	0.00625
1733.21638	0.00629
1731.93061	0.00623
1730.64484	0.00620
1729.35907	0.00627
1728.07330	0.00641
1726.78753	0.00654
1725.50177	0.00659
1724.21600	0.00656
1722.93023	0.00646
1721.64446	0.00638
1720.35869	0.00639
1719.07292	0.00651
1717.78715	0.00662
1716.50138	0.00666
1715.21561	0.00669
1713.92985	0.00680
1712.64408	0.00700
1711.35831	0.00720
1710.07254	0.00736
1708.78677	0.00747
1707.50100	0.00757
1706.21523	0.00765
1704.92946	0.00770
1703.64370	0.00774
1702.35793	0.00789
1701.07216	0.00811
1699.78639	0.00826
1698.50062	0.00836
1697.21485	0.00854
1695.92908	0.00879
1694.64331	0.00899
1693.35754	0.00916
1692.07178	0.00937
1690.78601	0.00957
1689.50024	0.00966
1688.21447	0.00971
1686.92870	0.00983
1685.64293	0.01009
1684.35716	0.01037
1683.07139	0.01060
1681.78563	0.01082
1680.49986	0.01108
1679.21409	0.01131
1677.92832	0.01150
1676.64255	0.01168
1675.35678	0.01186
1674.07101	0.01201
1672.78524	0.01216
1671.49947	0.01238
1670.21371	0.01265
1668.92794	0.01290
1667.64217	0.01312
1666.35640	0.01331
1665.07063	0.01352
1663.78486	0.01377
1662.49909	0.01402
1661.21332	0.01423
1659.92756	0.01440
1658.64179	0.01448
1657.35602	0.01449
1656.07025	0.01450
1654.78448	0.01461
1653.49871	0.01474
1652.21294	0.01474
1650.92717	0.01464
1649.64140	0.01462
1648.35564	0.01475
1647.06987	0.01496
1645.78410	0.01512
1644.49833	0.01519
1643.21256	0.01519
1641.92679	0.01513
1640.64102	0.01504
1639.35525	0.01494
1638.06949	0.01488
1636.78372	0.01485
1635.49795	0.01476
1634.21218	0.01459
1632.92641	0.01442
1631.64064	0.01436
1630.35487	0.01437
1629.06910	0.01436
1627.78333	0.01427
1626.49757	0.01417
1625.21180	0.01409
1623.92603	0.01401
1622.64026	0.01384
1621.35449	0.01358
1620.06872	0.01331
1618.78295	0.01315
1617.49718	0.01309
1616.21142	0.01303
1614.92565	0.01291
1613.63988	0.01280
1612.35411	0.01273
1611.06834	0.01265
1609.78257	0.01255
1608.49680	0.01243
1607.21103	0.01235
1605.92526	0.01234
1604.63950	0.01241
1603.35373	0.01250
1602.06796	0.01256
1600.78219	0.01256
1599.49642	0.01250
1598.21065	0.01241
1596.92488	0.01233
1595.63911	0.01231
1594.35335	0.01234
1593.06758	0.01239
1591.78181	0.01246
1590.49604	0.01254
1589.21027	0.01264
1587.92450	0.01273
1586.63873	0.01279
1585.35296	0.01281
1584.06719	0.01285
1582.78143	0.01293
1581.49566	0.01304
1580.20989	0.01313
1578.92412	0.01319
1577.63835	0.01321
1576.35258	0.01317
1575.06681	0.01310
1573.78104	0.01310
1572.49528	0.01326
1571.20951	0.01350
1569.92374	0.01371
1568.63797	0.01384
1567.35220	0.01395
1566.06643	0.01409
1564.78066	0.01419
1563.49489	0.01420
1562.20912	0.01420
1560.92336	0.01429
1559.63759	0.01443
1558.35182	0.01451
1557.06605	0.01455
1555.78028	0.01463
1554.49451	0.01479
1553.20874	0.01492
1551.92297	0.01500
1550.63721	0.01505
1549.35144	0.01506
1548.06567	0.01502
1546.77990	0.01495
1545.49413	0.01486
1544.20836	0.01477
1542.92259	0.01473
1541.63682	0.01478
1540.35105	0.01487
1539.06529	0.01491
1537.77952	0.01487
1536.49375	0.01486
1535.20798	0.01493
1533.92221	0.01501
1532.63644	0.01505
1531.35067	0.01507
1530.06490	0.01514
1528.77914	0.01526
1527.49337	0.01539
1526.20760	0.01551
1524.92183	0.01560
1523.63606	0.01575
1522.35029	0.01594
1521.06452	0.01611
1519.77875	0.01624
1518.49298	0.01638
1517.20722	0.01656
1515.92145	0.01675
1514.63568	0.01694
1513.34991	0.01715
1512.06414	0.01739
1510.77837	0.01765
1509.49260	0.01795
1508.20683	0.01832
1506.92107	0.01867
1505.63530	0.01892
1504.34953	0.01909
1503.06376	0.01929
1501.77799	0.01952
1500.49222	0.01972
1499.20645	0.01986
1497.92068	0.01998
1496.63491	0.02011
1495.34915	0.02026
1494.06338	0.02042
1492.77761	0.02063
1491.49184	0.02086
1490.20607	0.02103
1488.92030	0.02116
1487.63453	0.02129
1486.34876	0.02151
1485.06299	0.02182
1483.77723	0.02220
1482.49146	0.02258
1481.20569	0.02292
1479.91992	0.02322
1478.63415	0.02352
1477.34838	0.02383
1476.06261	0.02413
1474.77684	0.02441
1473.49108	0.02469
1472.20531	0.02494
1470.91954	0.02515
1469.63377	0.02532
1468.34800	0.02548
1467.06223	0.02563
1465.77646	0.02575
1464.49069	0.02579
1463.20492	0.02576
1461.91916	0.02571
1460.63339	0.02572
1459.34762	0.02582
1458.06185	0.02601
1456.77608	0.02622
1455.49031	0.02641
1454.20454	0.02663
1452.91877	0.02690
1451.63301	0.02713
1450.34724	0.02722
1449.06147	0.02719
1447.77570	0.02712
1446.48993	0.02707
1445.20416	0.02704
1443.91839	0.02699
1442.63262	0.02685
1441.34685	0.02665
1440.06109	0.02642
1438.77532	0.02625
1437.48955	0.02612
1436.20378	0.02604
1434.91801	0.02603
1433.63224	0.02613
1432.34647	0.02636
1431.06070	0.02666
1429.77494	0.02698
1428.48917	0.02730
1427.20340	0.02764
1425.91763	0.02800
1424.63186	0.02839
1423.34609	0.02880
1422.06032	0.02924
1420.77455	0.02968
1419.48878	0.03007
1418.20302	0.03033
1416.91725	0.03050
1415.63148	0.03061
1414.34571	0.03069
1413.05994	0.03076
1411.77417	0.03082
1410.48840	0.03084
1409.20263	0.03077
1407.91687	0.03059
1406.63110	0.03031
1405.34533	0.02999
1404.05956	0.02965
1402.77379	0.02930
1401.48802	0.02895
1400.20225	0.02856
1398.91648	0.02810
1397.63071	0.02758
1396.34495	0.02707
1395.05918	0.02658
1393.77341	0.02607
1392.48764	0.02551
1391.20187	0.02493
1389.91610	0.02436
1388.63033	0.02385
1387.34456	0.02340
1386.05880	0.02299
1384.77303	0.02260
1383.48726	0.02221
1382.20149	0.02181
1380.91572	0.02137
1379.62995	0.02088
1378.34418	0.02034
1377.05841	0.01977
1375.77264	0.01924
1374.48688	0.01877
1373.20111	0.01832
1371.91534	0.01785
1370.62957	0.01733
1369.34380	0.01677
1368.05803	0.01621
1366.77226	0.01569
1365.48649	0.01523
1364.20073	0.01486
1362.91496	0.01454
1361.62919	0.01426
1360.34342	0.01400
1359.05765	0.01376
1357.77188	0.01355
1356.48611	0.01339
1355.20034	0.01325
1353.91457	0.01313
1352.62881	0.01298
1351.34304	0.01279
1350.05727	0.01258
1348.77150	0.01238
1347.48573	0.01220
1346.19996	0.01204
1344.91419	0.01187
1343.62842	0.01168
1342.34266	0.01148
1341.05689	0.01130
1339.77112	0.01115
1338.48535	0.01106
1337.19958	0.01100
1335.91381	0.01092
1334.62804	0.01081
1333.34227	0.01066
1332.05650	0.01052
1330.77074	0.01040
1329.48497	0.01031
1328.19920	0.01027
1326.91343	0.01027
1325.62766	0.01029
1324.34189	0.01029
1323.05612	0.01022
1321.77035	0.01010
1320.48459	0.00996
1319.19882	0.00984
1317.91305	0.00974
1316.62728	0.00964
1315.34151	0.00953
1314.05574	0.00939
1312.76997	0.00926
1311.48420	0.00917
1310.19843	0.00912
1308.91267	0.00910
1307.62690	0.00909
1306.34113	0.00906
1305.05536	0.00900
1303.76959	0.00894
1302.48382	0.00887
1301.19805	0.00880
1299.91228	0.00873
1298.62652	0.00865
1297.34075	0.00856
1296.05498	0.00847
1294.76921	0.00841
1293.48344	0.00840
1292.19767	0.00843
1290.91190	0.00848
1289.62613	0.00850
1288.34036	0.00846
1287.05460	0.00837
1285.76883	0.00827
1284.48306	0.00821
1283.19729	0.00821
1281.91152	0.00825
1280.62575	0.00830
1279.33998	0.00833
1278.05421	0.00834
1276.76845	0.00833
1275.48268	0.00830
1274.19691	0.00826
1272.91114	0.00820
1271.62537	0.00815
1270.33960	0.00814
1269.05383	0.00816
1267.76806	0.00818
1266.48229	0.00820
1265.19653	0.00822
1263.91076	0.00824
1262.62499	0.00826
1261.33922	0.00827
1260.05345	0.00825
1258.76768	0.00824
1257.48191	0.00825
1256.19614	0.00829
1254.91037	0.00835
1253.62461	0.00840
1252.33884	0.00843
1251.05307	0.00842
1249.76730	0.00841
1248.48153	0.00838
1247.19576	0.00836
1245.90999	0.00833
1244.62422	0.00833
1243.33846	0.00835
1242.05269	0.00838
1240.76692	0.00840
1239.48115	0.00839
1238.19538	0.00833
1236.90961	0.00826
1235.62384	0.00822
1234.33807	0.00824
1233.05230	0.00827
1231.76654	0.00828
1230.48077	0.00823
1229.19500	0.00812
1227.90923	0.00798
1226.62346	0.00784
1225.33769	0.00771
1224.05192	0.00761
1222.76615	0.00755
1221.48039	0.00751
1220.19462	0.00748
1218.90885	0.00741
1217.62308	0.00730
1216.33731	0.00721
1215.05154	0.00718
1213.76577	0.00722
1212.48000	0.00727
1211.19423	0.00729
1209.90847	0.00726
1208.62270	0.00724
1207.33693	0.00722
1206.05116	0.00719
1204.76539	0.00713
1203.47962	0.00708
1202.19385	0.00706
1200.90808	0.00714
1199.62232	0.00726
1198.33655	0.00735
1197.05078	0.00737
1195.76501	0.00734
1194.47924	0.00730
1193.19347	0.00727
1191.90770	0.00726
1190.62193	0.00724
1189.33616	0.00717
1188.05040	0.00705
1186.76463	0.00696
1185.47886	0.00695
1184.19309	0.00702
1182.90732	0.00710
1181.62155	0.00711
1180.33578	0.00704
1179.05001	0.00696
1177.76425	0.00694
1176.47848	0.00700
1175.19271	0.00711
1173.90694	0.00721
1172.62117	0.00726
1171.33540	0.00728
1170.04963	0.00729
1168.76386	0.00730
1167.47809	0.00733
1166.19233	0.00738
1164.90656	0.00742
1163.62079	0.00745
1162.33502	0.00747
1161.04925	0.00750
1159.76348	0.00754
1158.47771	0.00759
1157.19194	0.00766
1155.90618	0.00773
1154.62041	0.00780
1153.33464	0.00784
1152.04887	0.00787
1150.76310	0.00790
1149.47733	0.00792
1148.19156	0.00794
1146.90579	0.00800
1145.62002	0.00813
1144.33426	0.00834
1143.04849	0.00858
1141.76272	0.00881
1140.47695	0.00902
1139.19118	0.00927
1137.90541	0.00960
1136.61964	0.00999
1135.33387	0.01040
1134.04811	0.01084
1132.76234	0.01136
1131.47657	0.01197
1130.19080	0.01265
1128.90503	0.01334
1127.61926	0.01408
1126.33349	0.01489
1125.04772	0.01579
1123.76195	0.01679
1122.47619	0.01783
1121.19042	0.01887
1119.90465	0.01989
1118.61888	0.02092
1117.33311	0.02198
1116.04734	0.02309
1114.76157	0.02418
1113.47580	0.02522
1112.19004	0.02619
1110.90427	0.02715
1109.61850	0.02813
1108.33273	0.02912
1107.04696	0.03008
1105.76119	0.03098
1104.47542	0.03180
1103.18965	0.03257
1101.90388	0.03331
1100.61812	0.03407
1099.33235	0.03484
1098.04658	0.03561
1096.76081	0.03636
1095.47504	0.03707
1094.18927	0.03775
1092.90350	0.03842
1091.61773	0.03904
1090.33197	0.03961
1089.04620	0.04015
1087.76043	0.04066
1086.47466	0.04114
1085.18889	0.04158
1083.90312	0.04202
1082.61735	0.04252
1081.33158	0.04314
1080.04581	0.04386
1078.76005	0.04465
1077.47428	0.04547
1076.18851	0.04631
1074.90274	0.04718
1073.61697	0.04812
1072.33120	0.04913
1071.04543	0.05016
1069.75966	0.05111
1068.47390	0.05199
1067.18813	0.05284
1065.90236	0.05376
1064.61659	0.05476
1063.33082	0.05580
1062.04505	0.05683
1060.75928	0.05780
1059.47351	0.05873
1058.18774	0.05965
1056.90198	0.06058
1055.61621	0.06150
1054.33044	0.06237
1053.04467	0.06320
1051.75890	0.06402
1050.47313	0.06485
1049.18736	0.06564
1047.90159	0.06639
1046.61583	0.06711
1045.33006	0.06784
1044.04429	0.06864
1042.75852	0.06953
1041.47275	0.07048
1040.18698	0.07139
1038.90121	0.07224
1037.61544	0.07304
1036.32967	0.07389
1035.04391	0.07482
1033.75814	0.07575
1032.47237	0.07654
1031.18660	0.07708
1029.90083	0.07742
1028.61506	0.07769
1027.32929	0.07794
1026.04352	0.07815
1024.75775	0.07829
1023.47199	0.07833
1022.18622	0.07827
1020.90045	0.07811
1019.61468	0.07785
1018.32891	0.07746
1017.04314	0.07693
1015.75737	0.07623
1014.47160	0.07539
1013.18584	0.07443
1011.90007	0.07335
1010.61430	0.07217
1009.32853	0.07085
1008.04276	0.06938
1006.75699	0.06779
1005.47122	0.06611
1004.18545	0.06438
1002.89968	0.06262
1001.61392	0.06083
1000.32815	0.05904
999.04238	0.05726
997.75661	0.05549
996.47084	0.05366
995.18507	0.05177
993.89930	0.04985
992.61353	0.04798
991.32777	0.04621
990.04200	0.04454
988.75623	0.04292
987.47046	0.04133
986.18469	0.03978
984.89892	0.03833
983.61315	0.03705
982.32738	0.03592
981.04161	0.03485
979.75585	0.03379
978.47008	0.03276
977.18431	0.03182
975.89854	0.03102
974.61277	0.03037
973.32700	0.02987
972.04123	0.02946
970.75546	0.02911
969.46970	0.02881
968.18393	0.02862
966.89816	0.02862
965.61239	0.02879
964.32662	0.02905
963.04085	0.02934
961.75508	0.02959
960.46931	0.02976
959.18354	0.02974
957.89778	0.02945
956.61201	0.02889
955.32624	0.02817
954.04047	0.02743
952.75470	0.02676
951.46893	0.02617
950.18316	0.02559
948.89739	0.02498
947.61163	0.02433
946.32586	0.02370
945.04009	0.02313
943.75432	0.02260
942.46855	0.02207
941.18278	0.02155
939.89701	0.02104
938.61124	0.02056
937.32547	0.02014
936.03971	0.01976
934.75394	0.01943
933.46817	0.01915
932.18240	0.01892
930.89663	0.01869
929.61086	0.01842
928.32509	0.01811
927.03932	0.01779
925.75356	0.01751
924.46779	0.01729
923.18202	0.01712
921.89625	0.01697
920.61048	0.01683
919.32471	0.01669
918.03894	0.01650
916.75317	0.01625
915.46740	0.01598
914.18164	0.01574
912.89587	0.01553
911.61010	0.01532
910.32433	0.01511
909.03856	0.01499
907.75279	0.01502
906.46702	0.01515
905.18125	0.01526
903.89549	0.01522
902.60972	0.01504
901.32395	0.01482
900.03818	0.01466
898.75241	0.01457
897.46664	0.01451
896.18087	0.01448
894.89510	0.01448
893.60933	0.01451
892.32357	0.01452
891.03780	0.01442
889.75203	0.01423
888.46626	0.01404
887.18049	0.01401
885.89472	0.01427
884.60895	0.01490
883.32318	0.01582
882.03742	0.01683
880.75165	0.01770
879.46588	0.01827
878.18011	0.01861
876.89434	0.01886
875.60857	0.01919
874.32280	0.01964
873.03703	0.02011
871.75126	0.02046
870.46550	0.02058
869.17973	0.02041
867.89396	0.01995
866.60819	0.01923
865.32242	0.01837
864.03665	0.01752
862.75088	0.01678
861.46511	0.01616
860.17935	0.01561
858.89358	0.01514
857.60781	0.01477
856.32204	0.01448
855.03627	0.01426
853.75050	0.01409
852.46473	0.01396
851.17896	0.01384
849.89319	0.01370
848.60743	0.01355
847.32166	0.01342
846.03589	0.01334
844.75012	0.01332
843.46435	0.01332
842.17858	0.01329
840.89281	0.01320
839.60704	0.01308
838.32128	0.01296
837.03551	0.01285
835.74974	0.01274
834.46397	0.01266
833.17820	0.01261
831.89243	0.01258
830.60666	0.01256
829.32089	0.01252
828.03512	0.01245
826.74936	0.01234
825.46359	0.01223
824.17782	0.01214
822.89205	0.01206
821.60628	0.01198
820.32051	0.01191
819.03474	0.01194
817.74897	0.01210
816.46321	0.01228
815.17744	0.01234
813.89167	0.01220
812.60590	0.01196
811.32013	0.01175
810.03436	0.01167
808.74859	0.01171
807.46282	0.01182
806.17705	0.01194
804.89129	0.01199
803.60552	0.01195
802.31975	0.01186
801.03398	0.01178
799.74821	0.01173
798.46244	0.01172
797.17667	0.01176
795.89090	0.01185
794.60513	0.01193
793.31937	0.01195
792.03360	0.01194
790.74783	0.01192
789.46206	0.01190
788.17629	0.01184
786.89052	0.01173
785.60475	0.01163
784.31898	0.01162
783.03322	0.01170
781.74745	0.01182
780.46168	0.01189
779.17591	0.01188
777.89014	0.01180
776.60437	0.01171
775.31860	0.01168
774.03283	0.01172
772.74706	0.01176
771.46130	0.01175
770.17553	0.01167
768.88976	0.01153
767.60399	0.01137
766.31822	0.01124
765.03245	0.01116
763.74668	0.01115
762.46091	0.01120
761.17515	0.01132
759.88938	0.01147
758.60361	0.01156
757.31784	0.01153
756.03207	0.01143
754.74630	0.01137
753.46053	0.01143
752.17476	0.01158
750.88899	0.01172
749.60323	0.01176
748.31746	0.01174
747.03169	0.01171
745.74592	0.01173
744.46015	0.01178
743.17438	0.01182
741.88861	0.01180
740.60284	0.01170
739.31708	0.01153
738.03131	0.01136
736.74554	0.01126
735.45977	0.01125
734.17400	0.01131
732.88823	0.01143
731.60246	0.01161
730.31669	0.01177
729.03092	0.01187
727.74516	0.01192
726.45939	0.01195
725.17362	0.01197
723.88785	0.01193
722.60208	0.01186
721.31631	0.01179
720.03054	0.01177
718.74477	0.01177
717.45901	0.01175
716.17324	0.01167
714.88747	0.01158
713.60170	0.01155
712.31593	0.01156
711.03016	0.01160
709.74439	0.01163
708.45862	0.01164
707.17285	0.01162
705.88709	0.01158
704.60132	0.01152
703.31555	0.01145
702.02978	0.01142
700.74401	0.01144
699.45824	0.01151
698.17247	0.01161
696.88670	0.01169
695.60094	0.01173
694.31517	0.01174
693.02940	0.01172
691.74363	0.01166
690.45786	0.01158
689.17209	0.01151
687.88632	0.01151
686.60055	0.01159
685.31478	0.01172
684.02902	0.01182
682.74325	0.01182
681.45748	0.01174
680.17171	0.01166
678.88594	0.01163
677.60017	0.01164
676.31440	0.01164
675.02863	0.01164
673.74287	0.01165
672.45710	0.01166
671.17133	0.01165
669.88556	0.01161
668.59979	0.01160
667.31402	0.01170
666.02825	0.01179
664.74248	0.01185
663.45671	0.01184
662.17095	0.01177
660.88518	0.01165
659.59941	0.01154
658.31364	0.01143
657.02787	0.01133
655.74210	0.01126
654.45633	0.01124
653.17056	0.01129
651.88480	0.01137
650.59903	0.01144
649.31326	0.01145
648.02749	0.01142
646.74172	0.01137
645.45595	0.01135
644.17018	0.01138
642.88441	0.01145
641.59864	0.01154
640.31288	0.01164
639.02711	0.01178
637.74134	0.01194
636.45557	0.01207
635.16980	0.01215
633.88403	0.01220
632.59826	0.01229
631.31249	0.01237
630.02673	0.01233
628.74096	0.01218
627.45519	0.01240
626.16942	0.01232
624.88365	0.01207
623.59788	0.01191
622.31211	0.01215
621.02634	0.01334
619.74057	0.01557
618.45481	0.01805
617.16904	0.01975
615.88327	0.02033
614.59750	0.02028
613.31173	0.02051
612.02596	0.02196
610.74019	0.02497
609.45442	0.02884
608.16866	0.03217
606.88289	0.03400
605.59712	0.03439
604.31135	0.03399
603.02558	0.03333
601.73981	0.03265
600.45404	0.03190
599.16827	0.03106
597.88250	0.03018
596.59674	0.02932
595.31097	0.02850
594.02520	0.02773
592.73943	0.02711
591.45366	0.02674
590.16789	0.02659
588.88212	0.02661
587.59635	0.02675
586.31059	0.02707
585.02482	0.02763
583.73905	0.02839
582.45328	0.02926
581.16751	0.03014
579.88174	0.03100
578.59597	0.03188
577.31020	0.03277
576.02443	0.03357
574.73867	0.03421
573.45290	0.03471
572.16713	0.03524
570.88136	0.03592
569.59559	0.03681
568.30982	0.03791
567.02405	0.03917
565.73828	0.04042
564.45251	0.04143
563.16675	0.04198
561.88098	0.04196
560.59521	0.04141
559.30944	0.04043
558.02367	0.03916
556.73790	0.03771
555.45213	0.03615
554.16636	0.03453
552.88060	0.03286
551.59483	0.03117
550.30906	0.02951
549.02329	0.02788
547.73752	0.02632
546.45175	0.02488
545.16598	0.02363
543.88021	0.02262
542.59444	0.02184
541.30868	0.02122
540.02291	0.02067
538.73714	0.02017
537.45137	0.01969
536.16560	0.01922
534.87983	0.01872
533.59406	0.01820
532.30829	0.01767
531.02253	0.01716
529.73676	0.01669
528.45099	0.01629
527.16522	0.01600
525.87945	0.01587
524.59368	0.01584
523.30791	0.01578
522.02214	0.01559
520.73637	0.01529
519.45061	0.01497
518.16484	0.01469
516.87907	0.01447
515.59330	0.01426
514.30753	0.01404
513.02176	0.01380
511.73599	0.01357
510.45022	0.01342
509.16446	0.01336
507.87869	0.01335
506.59292	0.01332
505.30715	0.01322
504.02138	0.01307
502.73561	0.01293
501.44984	0.01287
500.16407	0.01290
498.87830	0.01291
497.59254	0.01282
496.30677	0.01260
495.02100	0.01233
493.73523	0.01205
492.44946	0.01178
491.16369	0.01151
489.87792	0.01126
488.59215	0.01112
487.30639	0.01113
486.02062	0.01126
484.73485	0.01143
483.44908	0.01154
482.16331	0.01157
480.87754	0.01153
479.59177	0.01149
478.30600	0.01149
477.02023	0.01155
475.73447	0.01163
474.44870	0.01172
473.16293	0.01185
471.87716	0.01204
470.59139	0.01225
469.30562	0.01239
468.01985	0.01238
466.73408	0.01221
465.44832	0.01198
464.16255	0.01180
462.87678	0.01171
461.59101	0.01167
460.30524	0.01165
459.01947	0.01157
457.73370	0.01141
456.44793	0.01116
455.16216	0.01088
453.87640	0.01061
452.59063	0.01037
451.30486	0.01021
450.01909	0.01016
448.73332	0.01019
447.44755	0.01029
446.16178	0.01038
444.87601	0.01043
443.59025	0.01041
442.30448	0.01032
441.01871	0.01020
439.73294	0.01010
438.44717	0.01004
437.16140	0.00999
435.87563	0.00992
434.58986	0.00981
433.30409	0.00971
432.01833	0.00963
430.73256	0.00961
429.44679	0.00964
428.16102	0.00968
426.87525	0.00966
425.58948	0.00958
424.30371	0.00945
423.01794	0.00932
421.73218	0.00923
420.44641	0.00920
419.16064	0.00919
417.87487	0.00921
416.58910	0.00925
415.30333	0.00929
414.01756	0.00929
412.73179	0.00922
411.44602	0.00914
410.16026	0.00911
408.87449	0.00912
407.58872	0.00911
406.30295	0.00904
405.01718	0.00892
403.73141	0.00885
402.44564	0.00887
401.15987	0.00900
399.87411	0.00915
