3997.45528	0.05775
3996.16951	0.05707
3994.88374	0.05670
3993.59798	0.05675
3992.31221	0.05717
3991.02644	0.05775
3989.74067	0.05837
3988.45490	0.05901
3987.16913	0.05963
3985.88336	0.06002
3984.59759	0.05987
3983.31183	0.05922
3982.02606	0.05848
3980.74029	0.05812
3979.45452	0.05834
3978.16875	0.05887
3976.88298	0.05938
3975.59721	0.05967
3974.31144	0.05977
3973.02567	0.05971
3971.73991	0.05941
3970.45414	0.05885
3969.16837	0.05821
3967.88260	0.05772
3966.59683	0.05746
3965.31106	0.05731
3964.02529	0.05714
3962.73952	0.05699
3961.45376	0.05703
3960.16799	0.05741
3958.88222	0.05818
3957.59645	0.05911
3956.31068	0.05982
3955.02491	0.05999
3953.73914	0.05965
3952.45337	0.05913
3951.16760	0.05868
3949.88184	0.05840
3948.59607	0.05829
3947.31030	0.05827
3946.02453	0.05810
3944.73876	0.05756
3943.45299	0.05689
3942.16722	0.05658
3940.88145	0.05690
3939.59569	0.05754
3938.30992	0.05799
3937.02415	0.05799
3935.73838	0.05760
3934.45261	0.05709
3933.16684	0.05672
3931.88107	0.05670
3930.59530	0.05707
3929.30953	0.05770
3928.02377	0.05833
3926.73800	0.05863
3925.45223	0.05855
3924.16646	0.05846
3922.88069	0.05874
3921.59492	0.05938
3920.30915	0.05995
3919.02338	0.05986
3917.73762	0.05899
3916.45185	0.05775
3915.16608	0.05667
3913.88031	0.05588
3912.59454	0.05526
3911.30877	0.05481
3910.02300	0.05472
3908.73723	0.05502
3907.45146	0.05541
3906.16570	0.05567
3904.87993	0.05598
3903.59416	0.05657
3902.30839	0.05722
3901.02262	0.05739
3899.73685	0.05684
3898.45108	0.05594
3897.16531	0.05528
3895.87955	0.05522
3894.59378	0.05570
3893.30801	0.05646
3892.02224	0.05731
3890.73647	0.05821
3889.45070	0.05889
3888.16493	0.05888
3886.87916	0.05822
3885.59339	0.05747
3884.30763	0.05701
3883.02186	0.05661
3881.73609	0.05606
3880.45032	0.05560
3879.16455	0.05540
3877.87878	0.05518
3876.59301	0.05471
3875.30724	0.05422
3874.02148	0.05406
3872.73571	0.05415
3871.44994	0.05430
3870.16417	0.05474
3868.87840	0.05561
3867.59263	0.05634
3866.30686	0.05628
3865.02109	0.05565
3863.73532	0.05502
3862.44956	0.05460
3861.16379	0.05427
3859.87802	0.05404
3858.59225	0.05409
3857.30648	0.05440
3856.02071	0.05485
3854.73494	0.05552
3853.44917	0.05666
3852.16341	0.05802
3850.87764	0.05872
3849.59187	0.05833
3848.30610	0.05723
3847.02033	0.05606
3845.73456	0.05513
3844.44879	0.05451
3843.16302	0.05427
3841.87725	0.05450
3840.59149	0.05508
3839.30572	0.05567
3838.01995	0.05602
3836.73418	0.05609
3835.44841	0.05594
3834.16264	0.05573
3832.87687	0.05576
3831.59110	0.05617
3830.30534	0.05671
3829.01957	0.05686
3827.73380	0.05629
3826.44803	0.05526
3825.16226	0.05437
3823.87649	0.05394
3822.59072	0.05407
3821.30495	0.05468
3820.01918	0.05526
3818.73342	0.05505
3817.44765	0.05407
3816.16188	0.05341
3814.87611	0.05383
3813.59034	0.05472
3812.30457	0.05517
3811.01880	0.05499
3809.73303	0.05434
3808.44726	0.05347
3807.16150	0.05294
3805.87573	0.05316
3804.58996	0.05372
3803.30419	0.05402
3802.01842	0.05427
3800.73265	0.05497
3799.44688	0.05571
3798.16111	0.05555
3796.87535	0.05448
3795.58958	0.05337
3794.30381	0.05290
3793.01804	0.05305
3791.73227	0.05339
3790.44650	0.05357
3789.16073	0.05342
3787.87496	0.05300
3786.58919	0.05259
3785.30343	0.05254
3784.01766	0.05300
3782.73189	0.05363
3781.44612	0.05385
3780.16035	0.05342
3778.87458	0.05267
3777.58881	0.05204
3776.30304	0.05175
3775.01728	0.05174
3773.73151	0.05179
3772.44574	0.05170
3771.15997	0.05153
3769.87420	0.05162
3768.58843	0.05199
3767.30266	0.05217
3766.01689	0.05188
3764.73112	0.05141
3763.44536	0.05126
3762.15959	0.05154
3760.87382	0.05200
3759.58805	0.05226
3758.30228	0.05219
3757.01651	0.05192
3755.73074	0.05159
3754.44497	0.05114
3753.15921	0.05064
3751.87344	0.05030
3750.58767	0.05036
3749.30190	0.05090
3748.01613	0.05168
3746.73036	0.05215
3745.44459	0.05223
3744.15882	0.05247
3742.87305	0.05278
3741.58729	0.05231
3740.30152	0.05093
3739.01575	0.04956
3737.72998	0.04897
3736.44421	0.04927
3735.15844	0.04995
3733.87267	0.05039
3732.58690	0.05029
3731.30114	0.04998
3730.01537	0.04986
3728.72960	0.04999
3727.44383	0.05036
3726.15806	0.05091
3724.87229	0.05149
3723.58652	0.05199
3722.30075	0.05227
3721.01498	0.05225
3719.72922	0.05197
3718.44345	0.05162
3717.15768	0.05141
3715.87191	0.05130
3714.58614	0.05106
3713.30037	0.05071
3712.01460	0.05042
3710.72883	0.05028
3709.44307	0.05009
3708.15730	0.04958
3706.87153	0.04893
3705.58576	0.04856
3704.29999	0.04861
3703.01422	0.04897
3701.72845	0.04942
3700.44268	0.04982
3699.15691	0.05009
3697.87115	0.05025
3696.58538	0.05047
3695.29961	0.05089
3694.01384	0.05138
3692.72807	0.05170
3691.44230	0.05173
3690.15653	0.05139
3688.87076	0.05071
3687.58500	0.04996
3686.29923	0.04932
3685.01346	0.04884
3683.72769	0.04871
3682.44192	0.04909
3681.15615	0.04984
3679.87038	0.05066
3678.58461	0.05113
3677.29884	0.05098
3676.01308	0.05060
3674.72731	0.05064
3673.44154	0.05104
3672.15577	0.05124
3670.87000	0.05115
3669.58423	0.05109
3668.29846	0.05113
3667.01269	0.05114
3665.72693	0.05117
3664.44116	0.05133
3663.15539	0.05156
3661.86962	0.05179
3660.58385	0.05193
3659.29808	0.05190
3658.01231	0.05171
3656.72654	0.05170
3655.44077	0.05222
3654.15501	0.05298
3652.86924	0.05317
3651.58347	0.05239
3650.29770	0.05106
3649.01193	0.05001
3647.72616	0.04978
3646.44039	0.05025
3645.15462	0.05086
3643.86886	0.05112
3642.58309	0.05108
3641.29732	0.05116
3640.01155	0.05166
3638.72578	0.05241
3637.44001	0.05305
3636.15424	0.05335
3634.86847	0.05346
3633.58270	0.05357
3632.29694	0.05357
3631.01117	0.05324
3629.72540	0.05270
3628.43963	0.05245
3627.15386	0.05265
3625.86809	0.05296
3624.58232	0.05316
3623.29655	0.05331
3622.01079	0.05335
3620.72502	0.05324
3619.43925	0.05311
3618.15348	0.05320
3616.86771	0.05344
3615.58194	0.05352
3614.29617	0.05345
3613.01040	0.05362
3611.72463	0.05420
3610.43887	0.05494
3609.15310	0.05559
3607.86733	0.05616
3606.58156	0.05657
3605.29579	0.05658
3604.01002	0.05612
3602.72425	0.05547
3601.43848	0.05498
3600.15272	0.05491
3598.86695	0.05543
3597.58118	0.05645
3596.29541	0.05759
3595.00964	0.05851
3593.72387	0.05902
3592.43810	0.05897
3591.15233	0.05849
3589.86656	0.05790
3588.58080	0.05753
3587.29503	0.05767
3586.00926	0.05817
3584.72349	0.05851
3583.43772	0.05832
3582.15195	0.05762
3580.86618	0.05682
3579.58041	0.05642
3578.29464	0.05671
3577.00888	0.05752
3575.72311	0.05842
3574.43734	0.05894
3573.15157	0.05893
3571.86580	0.05864
3570.58003	0.05854
3569.29426	0.05896
3568.00849	0.05987
3566.72273	0.06087
3565.43696	0.06145
3564.15119	0.06154
3562.86542	0.06155
3561.57965	0.06195
3560.29388	0.06271
3559.00811	0.06331
3557.72234	0.06334
3556.43657	0.06292
3555.15081	0.06247
3553.86504	0.06229
3552.57927	0.06239
3551.29350	0.06270
3550.00773	0.06311
3548.72196	0.06347
3547.43619	0.06364
3546.15042	0.06355
3544.86466	0.06334
3543.57889	0.06326
3542.29312	0.06341
3541.00735	0.06361
3539.72158	0.06356
3538.43581	0.06323
3537.15004	0.06298
3535.86427	0.06313
3534.57850	0.06358
3533.29274	0.06391
3532.00697	0.06395
3530.72120	0.06395
3529.43543	0.06420
3528.14966	0.06464
3526.86389	0.06496
3525.57812	0.06502
3524.29235	0.06501
3523.00659	0.06520
3521.72082	0.06553
3520.43505	0.06571
3519.14928	0.06559
3517.86351	0.06534
3516.57774	0.06534
3515.29197	0.06588
3514.00620	0.06695
3512.72043	0.06825
3511.43467	0.06925
3510.14890	0.06958
3508.86313	0.06925
3507.57736	0.06857
3506.29159	0.06783
3505.00582	0.06721
3503.72005	0.06680
3502.43428	0.06668
3501.14852	0.06689
3499.86275	0.06729
3498.57698	0.06771
3497.29121	0.06802
3496.00544	0.06819
3494.71967	0.06831
3493.43390	0.06849
3492.14813	0.06878
3490.86236	0.06903
3489.57660	0.06901
3488.29083	0.06862
3487.00506	0.06809
3485.71929	0.06770
3484.43352	0.06760
3483.14775	0.06779
3481.86198	0.06826
3480.57621	0.06885
3479.29045	0.06931
3478.00468	0.06954
3476.71891	0.06971
3475.43314	0.07010
3474.14737	0.07068
3472.86160	0.07119
3471.57583	0.07145
3470.29006	0.07155
3469.00429	0.07169
3467.71853	0.07189
3466.43276	0.07197
3465.14699	0.07173
3463.86122	0.07113
3462.57545	0.07043
3461.28968	0.07004
3460.00391	0.07016
3458.71814	0.07059
3457.43238	0.07091
3456.14661	0.07085
3454.86084	0.07055
3453.57507	0.07032
3452.28930	0.07038
3451.00353	0.07073
3449.71776	0.07128
3448.43199	0.07198
3447.14622	0.07281
3445.86046	0.07365
3444.57469	0.07424
3443.28892	0.07442
3442.00315	0.07432
3440.71738	0.07419
3439.43161	0.07408
3438.14584	0.07384
3436.86007	0.07343
3435.57431	0.07304
3434.28854	0.07294
3433.00277	0.07317
3431.71700	0.07362
3430.43123	0.07418
3429.14546	0.07487
3427.85969	0.07564
3426.57392	0.07627
3425.28815	0.07648
3424.00239	0.07616
3422.71662	0.07555
3421.43085	0.07506
3420.14508	0.07495
3418.85931	0.07513
3417.57354	0.07529
3416.28777	0.07525
3415.00200	0.07509
3413.71624	0.07500
3412.43047	0.07505
3411.14470	0.07524
3409.85893	0.07554
3408.57316	0.07587
3407.28739	0.07601
3406.00162	0.07583
3404.71585	0.07552
3403.43008	0.07546
3402.14432	0.07578
3400.85855	0.07624
3399.57278	0.07657
3398.28701	0.07678
3397.00124	0.07704
3395.71547	0.07741
3394.42970	0.07772
3393.14393	0.07775
3391.85817	0.07734
3390.57240	0.07658
3389.28663	0.07579
3388.00086	0.07527
3386.71509	0.07514
3385.42932	0.07528
3384.14355	0.07553
3382.85778	0.07581
3381.57201	0.07617
3380.28625	0.07661
3379.00048	0.07707
3377.71471	0.07740
3376.42894	0.07753
3375.14317	0.07754
3373.85740	0.07752
3372.57163	0.07748
3371.28586	0.07742
3370.00010	0.07734
3368.71433	0.07722
3367.42856	0.07698
3366.14279	0.07659
3364.85702	0.07623
3363.57125	0.07616
3362.28548	0.07644
3360.99971	0.07686
3359.71394	0.07718
3358.42818	0.07741
3357.14241	0.07771
3355.85664	0.07806
3354.57087	0.07829
3353.28510	0.07829
3351.99933	0.07819
3350.71356	0.07809
3349.42779	0.07791
3348.14202	0.07757
3346.85626	0.07719
3345.57049	0.07700
3344.28472	0.07717
3342.99895	0.07760
3341.71318	0.07809
3340.42741	0.07841
3339.14164	0.07849
3337.85587	0.07841
3336.57011	0.07823
3335.28434	0.07798
3333.99857	0.07774
3332.71280	0.07767
3331.42703	0.07785
3330.14126	0.07816
3328.85549	0.07837
3327.56972	0.07831
3326.28395	0.07799
3324.99819	0.07762
3323.71242	0.07742
3322.42665	0.07746
3321.14088	0.07763
3319.85511	0.07772
3318.56934	0.07763
3317.28357	0.07742
3315.99780	0.07725
3314.71204	0.07719
3313.42627	0.07717
3312.14050	0.07710
3310.85473	0.07695
3309.56896	0.07671
3308.28319	0.07639
3306.99742	0.07616
3305.71165	0.07622
3304.42588	0.07656
3303.14012	0.07687
3301.85435	0.07688
3300.56858	0.07664
3299.28281	0.07648
3297.99704	0.07656
3296.71127	0.07682
3295.42550	0.07702
3294.13973	0.07706
3292.85397	0.07692
3291.56820	0.07665
3290.28243	0.07636
3288.99666	0.07622
3287.71089	0.07638
3286.42512	0.07673
3285.13935	0.07691
3283.85358	0.07669
3282.56781	0.07619
3281.28205	0.07572
3279.99628	0.07551
3278.71051	0.07555
3277.42474	0.07575
3276.13897	0.07603
3274.85320	0.07635
3273.56743	0.07675
3272.28166	0.07724
3270.99590	0.07764
3269.71013	0.07775
3268.42436	0.07758
3267.13859	0.07738
3265.85282	0.07737
3264.56705	0.07750
3263.28128	0.07761
3261.99551	0.07757
3260.70974	0.07734
3259.42398	0.07699
3258.13821	0.07663
3256.85244	0.07639
3255.56667	0.07636
3254.28090	0.07646
3252.99513	0.07652
3251.70936	0.07642
3250.42359	0.07610
3249.13783	0.07555
3247.85206	0.07488
3246.56629	0.07439
3245.28052	0.07438
3243.99475	0.07495
3242.70898	0.07582
3241.42321	0.07657
3240.13744	0.07696
3238.85167	0.07704
3237.56591	0.07696
3236.28014	0.07688
3234.99437	0.07684
3233.70860	0.07680
3232.42283	0.07665
3231.13706	0.07631
3229.85129	0.07583
3228.56552	0.07538
3227.27976	0.07506
3225.99399	0.07483
3224.70822	0.07466
3223.42245	0.07457
3222.13668	0.07459
3220.85091	0.07463
3219.56514	0.07459
3218.27937	0.07446
3216.99360	0.07436
3215.70784	0.07443
3214.42207	0.07470
3213.13630	0.07505
3211.85053	0.07525
3210.56476	0.07515
3209.27899	0.07481
3207.99322	0.07439
3206.70745	0.07404
3205.42169	0.07379
3204.13592	0.07369
3202.85015	0.07374
3201.56438	0.07387
3200.27861	0.07397
3198.99284	0.07394
3197.70707	0.07378
3196.42130	0.07359
3195.13553	0.07351
3193.84977	0.07366
3192.56400	0.07400
3191.27823	0.07434
3189.99246	0.07449
3188.70669	0.07440
3187.42092	0.07423
3186.13515	0.07418
3184.84938	0.07419
3183.56362	0.07398
3182.27785	0.07344
3180.99208	0.07282
3179.70631	0.07253
3178.42054	0.07274
3177.13477	0.07322
3175.84900	0.07361
3174.56323	0.07371
3173.27746	0.07355
3171.99170	0.07330
3170.70593	0.07312
3169.42016	0.07307
3168.13439	0.07318
3166.84862	0.07338
3165.56285	0.07346
3164.27708	0.07323
3162.99131	0.07271
3161.70555	0.07219
3160.41978	0.07195
3159.13401	0.07200
3157.84824	0.07216
3156.56247	0.07224
3155.27670	0.07223
3153.99093	0.07218
3152.70516	0.07209
3151.41939	0.07188
3150.13363	0.07155
3148.84786	0.07122
3147.56209	0.07107
3146.27632	0.07116
3144.99055	0.07136
3143.70478	0.07147
3142.41901	0.07136
3141.13324	0.07106
3139.84748	0.07080
3138.56171	0.07076
3137.27594	0.07090
3135.99017	0.07108
3134.70440	0.07114
3133.41863	0.07100
3132.13286	0.07068
3130.84709	0.07024
3129.56132	0.06986
3128.27556	0.06969
3126.98979	0.06982
3125.70402	0.07016
3124.41825	0.07049
3123.13248	0.07065
3121.84671	0.07060
3120.56094	0.07038
3119.27517	0.07006
3117.98940	0.06970
3116.70364	0.06941
3115.41787	0.06930
3114.13210	0.06929
3112.84633	0.06916
3111.56056	0.06878
3110.27479	0.06824
3108.98902	0.06775
3107.70325	0.06748
3106.41749	0.06744
3105.13172	0.06760
3103.84595	0.06785
3102.56018	0.06810
3101.27441	0.06832
3099.98864	0.06858
3098.70287	0.06891
3097.41710	0.06919
3096.13133	0.06924
3094.84557	0.06900
3093.55980	0.06861
3092.27403	0.06825
3090.98826	0.06799
3089.70249	0.06777
3088.41672	0.06757
3087.13095	0.06741
3085.84518	0.06733
3084.55942	0.06735
3083.27365	0.06738
3081.98788	0.06729
3080.70211	0.06702
3079.41634	0.06666
3078.13057	0.06638
3076.84480	0.06636
3075.55903	0.06663
3074.27326	0.06704
3072.98750	0.06741
3071.70173	0.06757
3070.41596	0.06748
3069.13019	0.06723
3067.84442	0.06691
3066.55865	0.06659
3065.27288	0.06636
3063.98711	0.06631
3062.70135	0.06650
3061.41558	0.06685
3060.12981	0.06715
3058.84404	0.06727
3057.55827	0.06723
3056.27250	0.06716
3054.98673	0.06713
3053.70096	0.06707
3052.41519	0.06677
3051.12943	0.06614
3049.84366	0.06535
3048.55789	0.06476
3047.27212	0.06467
3045.98635	0.06502
3044.70058	0.06543
3043.41481	0.06557
3042.12904	0.06535
3040.84328	0.06497
3039.55751	0.06473
3038.27174	0.06478
3036.98597	0.06506
3035.70020	0.06531
3034.41443	0.06527
3033.12866	0.06492
3031.84289	0.06444
3030.55712	0.06405
3029.27136	0.06384
3027.98559	0.06371
3026.69982	0.06359
3025.41405	0.06353
3024.12828	0.06355
3022.84251	0.06357
3021.55674	0.06350
3020.27097	0.06334
3018.98521	0.06320
3017.69944	0.06309
3016.41367	0.06294
3015.12790	0.06274
3013.84213	0.06263
3012.55636	0.06271
3011.27059	0.06292
3009.98482	0.06307
3008.69905	0.06310
3007.41329	0.06303
3006.12752	0.06293
3004.84175	0.06279
3003.55598	0.06253
3002.27021	0.06217
3000.98444	0.06178
2999.69867	0.06152
2998.41290	0.06151
2997.12714	0.06167
2995.84137	0.06182
2994.55560	0.06183
2993.26983	0.06166
2991.98406	0.06140
2990.69829	0.06118
2989.41252	0.06117
2988.12675	0.06145
2986.84098	0.06187
2985.55522	0.06222
2984.26945	0.06237
2982.98368	0.06243
2981.69791	0.06257
2980.41214	0.06292
2979.12637	0.06354
2977.84060	0.06441
2976.55483	0.06540
2975.26907	0.06635
2973.98330	0.06716
2972.69753	0.06791
2971.41176	0.06870
2970.12599	0.06959
2968.84022	0.07056
2967.55445	0.07161
2966.26868	0.07273
2964.98291	0.07395
2963.69715	0.07531
2962.41138	0.07685
2961.12561	0.07846
2959.83984	0.08007
2958.55407	0.08165
2957.26830	0.08325
2955.98253	0.08479
2954.69676	0.08609
2953.41100	0.08698
2952.12523	0.08749
2950.83946	0.08777
2949.55369	0.08788
2948.26792	0.08780
2946.98215	0.08754
2945.69638	0.08726
2944.41061	0.08709
2943.12484	0.08710
2941.83908	0.08728
2940.55331	0.08763
2939.26754	0.08815
2937.98177	0.08879
2936.69600	0.08950
2935.41023	0.09030
2934.12446	0.09132
2932.83869	0.09270
2931.55293	0.09435
2930.26716	0.09604
2928.98139	0.09755
2927.69562	0.09877
2926.40985	0.09969
2925.12408	0.10032
2923.83831	0.10065
2922.55254	0.10080
2921.26677	0.10092
2919.98101	0.10105
2918.69524	0.10097
2917.40947	0.10036
2916.12370	0.09920
2914.83793	0.09788
2913.55216	0.09677
2912.26639	0.09594
2910.98062	0.09521
2909.69486	0.09444
2908.40909	0.09364
2907.12332	0.09285
2905.83755	0.09202
2904.55178	0.09109
2903.26601	0.09010
2901.98024	0.08921
2900.69447	0.08847
2899.40870	0.08772
2898.12294	0.08678
2896.83717	0.08568
2895.55140	0.08471
2894.26563	0.08407
2892.97986	0.08377
2891.69409	0.08361
2890.40832	0.08341
2889.12255	0.08301
2887.83678	0.08229
2886.55102	0.08132
2885.26525	0.08034
2883.97948	0.07962
2882.69371	0.07925
2881.40794	0.07913
2880.12217	0.07912
2878.83640	0.07917
2877.55063	0.07937
2876.26487	0.07983
2874.97910	0.08051
2873.69333	0.08124
2872.40756	0.08182
2871.12179	0.08220
2869.83602	0.08246
2868.55025	0.08264
2867.26448	0.08267
2865.97871	0.08258
2864.69295	0.08253
2863.40718	0.08273
2862.12141	0.08312
2860.83564	0.08344
2859.54987	0.08357
2858.26410	0.08357
2856.97833	0.08353
2855.69256	0.08344
2854.40680	0.08328
2853.12103	0.08309
2851.83526	0.08293
2850.54949	0.08270
2849.26372	0.08224
2847.97795	0.08150
2846.69218	0.08054
2845.40641	0.07953
2844.12064	0.07859
2842.83488	0.07768
2841.54911	0.07671
2840.26334	0.07563
2838.97757	0.07453
2837.69180	0.07350
2836.40603	0.07255
2835.12026	0.07163
2833.83449	0.07071
2832.54873	0.06982
2831.26296	0.06899
2829.97719	0.06820
2828.69142	0.06743
2827.40565	0.06664
2826.11988	0.06584
2824.83411	0.06510
2823.54834	0.06451
2822.26257	0.06411
2820.97681	0.06385
2819.69104	0.06361
2818.40527	0.06331
2817.11950	0.06297
2815.83373	0.06272
2814.54796	0.06260
2813.26219	0.06253
2811.97642	0.06234
2810.69066	0.06200
2809.40489	0.06161
2808.11912	0.06126
2806.83335	0.06096
2805.54758	0.06067
2804.26181	0.06044
2802.97604	0.06027
2801.69027	0.06010
2800.40450	0.05986
2799.11874	0.05952
2797.83297	0.05916
2796.54720	0.05885
2795.26143	0.05867
2793.97566	0.05866
2792.68989	0.05876
2791.40412	0.05881
2790.11835	0.05872
2788.83259	0.05849
2787.54682	0.05819
2786.26105	0.05792
2784.97528	0.05774
2783.68951	0.05764
2782.40374	0.05757
2781.11797	0.05747
2779.83220	0.05734
2778.54643	0.05717
2777.26067	0.05702
2775.97490	0.05688
2774.68913	0.05683
2773.40336	0.05691
2772.11759	0.05712
2770.83182	0.05728
2769.54605	0.05718
2768.26028	0.05678
2766.97452	0.05627
2765.68875	0.05585
2764.40298	0.05560
2763.11721	0.05546
2761.83144	0.05536
2760.54567	0.05529
2759.25990	0.05525
2757.97413	0.05520
2756.68836	0.05507
2755.40260	0.05489
2754.11683	0.05476
2752.83106	0.05470
2751.54529	0.05470
2750.25952	0.05474
2748.97375	0.05480
2747.68798	0.05482
2746.40221	0.05470
2745.11645	0.05447
2743.83068	0.05428
2742.54491	0.05431
2741.25914	0.05452
2739.97337	0.05473
2738.68760	0.05471
2737.40183	0.05445
2736.11606	0.05411
2734.83029	0.05387
2733.54453	0.05375
2732.25876	0.05373
2730.97299	0.05378
2729.68722	0.05390
2728.40145	0.05404
2727.11568	0.05410
2725.82991	0.05409
2724.54414	0.05405
2723.25838	0.05397
2721.97261	0.05378
2720.68684	0.05349
2719.40107	0.05324
2718.11530	0.05310
2716.82953	0.05304
2715.54376	0.05294
2714.25799	0.05280
2712.97222	0.05272
2711.68646	0.05276
2710.40069	0.05284
2709.11492	0.05278
2707.82915	0.05247
2706.54338	0.05200
2705.25761	0.05160
2703.97184	0.05145
2702.68607	0.05149
2701.40031	0.05159
2700.11454	0.05166
2698.82877	0.05174
2697.54300	0.05191
2696.25723	0.05213
2694.97146	0.05233
2693.68569	0.05241
2692.39992	0.05232
2691.11415	0.05208
2689.82839	0.05179
2688.54262	0.05153
2687.25685	0.05138
2685.97108	0.05137
2684.68531	0.05143
2683.39954	0.05148
2682.11377	0.05146
2680.82800	0.05142
2679.54224	0.05141
2678.25647	0.05144
2676.97070	0.05145
2675.68493	0.05134
2674.39916	0.05114
2673.11339	0.05095
2671.82762	0.05086
2670.54185	0.05087
2669.25608	0.05084
2667.97032	0.05073
2666.68455	0.05055
2665.39878	0.05035
2664.11301	0.05014
2662.82724	0.04996
2661.54147	0.04986
2660.25570	0.04990
2658.96993	0.05007
2657.68417	0.05028
2656.39840	0.05042
2655.11263	0.05040
2653.82686	0.05016
2652.54109	0.04980
2651.25532	0.04945
2649.96955	0.04923
2648.68378	0.04912
2647.39801	0.04906
2646.11225	0.04895
2644.82648	0.04876
2643.54071	0.04847
2642.25494	0.04811
2640.96917	0.04777
2639.68340	0.04752
2638.39763	0.04734
2637.11186	0.04717
2635.82609	0.04694
2634.54033	0.04666
2633.25456	0.04639
2631.96879	0.04625
2630.68302	0.04629
2629.39725	0.04637
2628.11148	0.04632
2626.82571	0.04608
2625.53994	0.04577
2624.25418	0.04557
2622.96841	0.04554
2621.68264	0.04566
2620.39687	0.04578
2619.11110	0.04576
2617.82533	0.04557
2616.53956	0.04528
2615.25379	0.04489
2613.96802	0.04442
2612.68226	0.04396
2611.39649	0.04365
2610.11072	0.04352
2608.82495	0.04353
2607.53918	0.04367
2606.25341	0.04398
2604.96764	0.04431
2603.68187	0.04442
2602.39611	0.04420
2601.11034	0.04374
2599.82457	0.04322
2598.53880	0.04269
2597.25303	0.04221
2595.96726	0.04191
2594.68149	0.04187
2593.39572	0.04196
2592.10995	0.04201
2590.82419	0.04203
2589.53842	0.04215
2588.25265	0.04234
2586.96688	0.04240
2585.68111	0.04227
2584.39534	0.04207
2583.10957	0.04195
2581.82380	0.04195
2580.53804	0.04201
2579.25227	0.04199
2577.96650	0.04182
2576.68073	0.04159
2575.39496	0.04148
2574.10919	0.04149
2572.82342	0.04141
2571.53765	0.04104
2570.25188	0.04051
2568.96612	0.04006
2567.68035	0.03984
2566.39458	0.03982
2565.10881	0.03991
2563.82304	0.04007
2562.53727	0.04021
2561.25150	0.04028
2559.96573	0.04031
2558.67997	0.04037
2557.39420	0.04044
2556.10843	0.04043
2554.82266	0.04031
2553.53689	0.04012
2552.25112	0.03992
2550.96535	0.03975
2549.67958	0.03967
2548.39381	0.03977
2547.10805	0.04014
2545.82228	0.04062
2544.53651	0.04093
2543.25074	0.04082
2541.96497	0.04033
2540.67920	0.03979
2539.39343	0.03948
2538.10766	0.03941
2536.82190	0.03936
2535.53613	0.03921
2534.25036	0.03903
2532.96459	0.03900
2531.67882	0.03920
2530.39305	0.03952
2529.10728	0.03971
2527.82151	0.03958
2526.53574	0.03922
2525.24998	0.03892
2523.96421	0.03892
2522.67844	0.03913
2521.39267	0.03927
2520.10690	0.03916
2518.82113	0.03887
2517.53536	0.03854
2516.24959	0.03835
2514.96383	0.03838
2513.67806	0.03860
2512.39229	0.03882
2511.10652	0.03887
2509.82075	0.03873
2508.53498	0.03851
2507.24921	0.03842
2505.96344	0.03863
2504.67767	0.03907
2503.39191	0.03944
2502.10614	0.03942
2500.82037	0.03903
2499.53460	0.03853
2498.24883	0.03814
2496.96306	0.03782
2495.67729	0.03745
2494.39152	0.03702
2493.10576	0.03663
2491.81999	0.03642
2490.53422	0.03644
2489.24845	0.03657
2487.96268	0.03659
2486.67691	0.03642
2485.39114	0.03621
2484.10537	0.03617
2482.81960	0.03633
2481.53384	0.03656
2480.24807	0.03666
2478.96230	0.03658
2477.67653	0.03648
2476.39076	0.03657
2475.10499	0.03694
2473.81922	0.03746
2472.53345	0.03792
2471.24769	0.03811
2469.96192	0.03796
2468.67615	0.03760
2467.39038	0.03724
2466.10461	0.03704
2464.81884	0.03699
2463.53307	0.03706
2462.24730	0.03720
2460.96153	0.03740
2459.67577	0.03758
2458.39000	0.03768
2457.10423	0.03776
2455.81846	0.03792
2454.53269	0.03811
2453.24692	0.03815
2451.96115	0.03790
2450.67538	0.03746
2449.38962	0.03706
2448.10385	0.03687
2446.81808	0.03686
2445.53231	0.03691
2444.24654	0.03695
2442.96077	0.03693
2441.67500	0.03686
2440.38923	0.03678
2439.10346	0.03674
2437.81770	0.03673
2436.53193	0.03671
2435.24616	0.03667
2433.96039	0.03663
2432.67462	0.03653
2431.38885	0.03628
2430.10308	0.03586
2428.81731	0.03535
2427.53155	0.03483
2426.24578	0.03442
2424.96001	0.03425
2423.67424	0.03438
2422.38847	0.03480
2421.10270	0.03538
2419.81693	0.03595
2418.53116	0.03633
2417.24539	0.03650
2415.95963	0.03664
2414.67386	0.03682
2413.38809	0.03692
2412.10232	0.03678
2410.81655	0.03643
2409.53078	0.03606
2408.24501	0.03579
2406.95924	0.03555
2405.67347	0.03530
2404.38771	0.03512
2403.10194	0.03508
2401.81617	0.03515
2400.53040	0.03527
2399.24463	0.03554
2397.95886	0.03581
2396.67309	0.03606
2395.38732	0.03628
2394.10156	0.03640
2392.81579	0.03636
2391.53002	0.03612
2390.24425	0.03569
2388.95848	0.03520
2387.67271	0.03480
2386.38694	0.03462
2385.10117	0.03463
2383.81540	0.03464
2382.52964	0.03452
2381.24387	0.03427
2379.95810	0.03413
2378.67233	0.03426
2377.38656	0.03455
2376.10079	0.03503
2374.81502	0.03548
2373.52925	0.03560
2372.24349	0.03531
2370.95772	0.03462
2369.67195	0.03409
2368.38618	0.03394
2367.10041	0.03382
2365.81464	0.03368
2364.52887	0.03383
2363.24310	0.03393
2361.95733	0.03354
2360.67157	0.03295
2359.38580	0.03286
2358.10003	0.03312
2356.81426	0.03344
2355.52849	0.03377
2354.24272	0.03396
2352.95695	0.03401
2351.67118	0.03352
2350.38542	0.03219
2349.09965	0.03126
2347.81388	0.03199
2346.52811	0.03338
2345.24234	0.03396
2343.95657	0.03404
2342.67080	0.03461
2341.38503	0.03537
2340.09926	0.03559
2338.81350	0.03532
2337.52773	0.03478
2336.24196	0.03445
2334.95619	0.03435
2333.67042	0.03444
2332.38465	0.03494
2331.09888	0.03544
2329.81311	0.03564
2328.52735	0.03579
2327.24158	0.03571
2325.95581	0.03542
2324.67004	0.03530
2323.38427	0.03519
2322.09850	0.03509
2320.81273	0.03516
2319.52696	0.03516
2318.24119	0.03492
2316.95543	0.03465
2315.66966	0.03445
2314.38389	0.03424
2313.09812	0.03394
2311.81235	0.03369
2310.52658	0.03356
2309.24081	0.03352
2307.95504	0.03349
2306.66928	0.03342
2305.38351	0.03328
2304.09774	0.03316
2302.81197	0.03319
2301.52620	0.03335
2300.24043	0.03351
2298.95466	0.03361
2297.66889	0.03366
2296.38312	0.03367
2295.09736	0.03361
2293.81159	0.03337
2292.52582	0.03294
2291.24005	0.03240
2289.95428	0.03186
2288.66851	0.03142
2287.38274	0.03115
2286.09697	0.03111
2284.81121	0.03121
2283.52544	0.03131
2282.23967	0.03131
2280.95390	0.03125
2279.66813	0.03118
2278.38236	0.03106
2277.09659	0.03078
2275.81082	0.03027
2274.52505	0.02964
2273.23929	0.02908
2271.95352	0.02871
2270.66775	0.02851
2269.38198	0.02844
2268.09621	0.02846
2266.81044	0.02851
2265.52467	0.02848
2264.23890	0.02821
2262.95314	0.02774
2261.66737	0.02733
2260.38160	0.02727
2259.09583	0.02759
2257.81006	0.02799
2256.52429	0.02813
2255.23852	0.02793
2253.95275	0.02752
2252.66698	0.02709
2251.38122	0.02668
2250.09545	0.02636
2248.80968	0.02628
2247.52391	0.02654
2246.23814	0.02707
2244.95237	0.02749
2243.66660	0.02748
2242.38083	0.02699
2241.09507	0.02630
2239.80930	0.02575
2238.52353	0.02540
2237.23776	0.02517
2235.95199	0.02506
2234.66622	0.02519
2233.38045	0.02547
2232.09468	0.02568
2230.80891	0.02568
2229.52315	0.02545
2228.23738	0.02502
2226.95161	0.02454
2225.66584	0.02420
2224.38007	0.02402
2223.09430	0.02393
2221.80853	0.02388
2220.52276	0.02386
2219.23700	0.02387
2217.95123	0.02396
2216.66546	0.02427
2215.37969	0.02462
2214.09392	0.02450
2212.80815	0.02364
2211.52238	0.02244
2210.23661	0.02156
2208.95084	0.02119
2207.66508	0.02105
2206.37931	0.02094
2205.09354	0.02105
2203.80777	0.02151
2202.52200	0.02197
2201.23623	0.02187
2199.95046	0.02104
2198.66469	0.01993
2197.37893	0.01912
2196.09316	0.01893
2194.80739	0.01915
2193.52162	0.01924
2192.23585	0.01882
2190.95008	0.01820
2189.66431	0.01810
2188.37854	0.01870
2187.09277	0.01949
2185.80701	0.02016
2184.52124	0.02082
2183.23547	0.02139
2181.94970	0.02126
2180.66393	0.02009
2179.37816	0.01856
2178.09239	0.01773
2176.80662	0.01792
2175.52085	0.01847
2174.23509	0.01866
2172.94932	0.01845
2171.66355	0.01819
2170.37778	0.01791
2169.09201	0.01731
2167.80624	0.01634
2166.52047	0.01534
2165.23470	0.01456
2163.94894	0.01393
2162.66317	0.01338
2161.37740	0.01300
2160.09163	0.01287
2158.80586	0.01299
2157.52009	0.01336
2156.23432	0.01389
2154.94855	0.01438
2153.66278	0.01468
2152.37702	0.01494
2151.09125	0.01545
2149.80548	0.01626
2148.51971	0.01694
2147.23394	0.01703
2145.94817	0.01672
2144.66240	0.01669
2143.37663	0.01731
2142.09087	0.01810
2140.80510	0.01835
2139.51933	0.01791
2138.23356	0.01725
2136.94779	0.01692
2135.66202	0.01719
2134.37625	0.01800
2133.09048	0.01899
2131.80471	0.01978
2130.51895	0.02025
2129.23318	0.02058
2127.94741	0.02094
2126.66164	0.02129
2125.37587	0.02152
2124.09010	0.02160
2122.80433	0.02163
2121.51856	0.02174
2120.23280	0.02191
2118.94703	0.02196
2117.66126	0.02174
2116.37549	0.02129
2115.08972	0.02093
2113.80395	0.02097
2112.51818	0.02140
2111.23241	0.02179
2109.94664	0.02179
2108.66088	0.02161
2107.37511	0.02176
2106.08934	0.02241
2104.80357	0.02306
2103.51780	0.02303
2102.23203	0.02216
2100.94626	0.02103
2099.66049	0.02057
2098.37473	0.02082
2097.08896	0.02138
2095.80319	0.02168
2094.51742	0.02155
2093.23165	0.02136
2091.94588	0.02148
2090.66011	0.02189
2089.37434	0.02223
2088.08857	0.02229
2086.80281	0.02215
2085.51704	0.02208
2084.23127	0.02219
2082.94550	0.02242
2081.65973	0.02266
2080.37396	0.02274
2079.08819	0.02242
2077.80242	0.02152
2076.51666	0.02025
2075.23089	0.01913
2073.94512	0.01854
2072.65935	0.01833
2071.37358	0.01805
2070.08781	0.01749
2068.80204	0.01694
2067.51627	0.01675
2066.23050	0.01696
2064.94474	0.01735
2063.65897	0.01772
2062.37320	0.01803
2061.08743	0.01827
2059.80166	0.01832
2058.51589	0.01802
2057.23012	0.01738
2055.94435	0.01659
2054.65859	0.01597
2053.37282	0.01569
2052.08705	0.01558
2050.80128	0.01524
2049.51551	0.01449
2048.22974	0.01350
2046.94397	0.01257
2045.65820	0.01187
2044.37243	0.01141
2043.08667	0.01116
2041.80090	0.01110
2040.51513	0.01120
2039.22936	0.01141
2037.94359	0.01153
2036.65782	0.01125
2035.37205	0.01028
2034.08628	0.00876
2032.80052	0.00748
2031.51475	0.00729
2030.22898	0.00833
2028.94321	0.00994
2027.65744	0.01143
2026.37167	0.01247
2025.08590	0.01291
2023.80013	0.01254
2022.51436	0.01146
2021.22860	0.01033
2019.94283	0.00987
2018.65706	0.01028
2017.37129	0.01115
2016.08552	0.01203
2014.79975	0.01284
2013.51398	0.01372
2012.22821	0.01457
2010.94245	0.01501
2009.65668	0.01483
2008.37091	0.01439
2007.08514	0.01422
2005.79937	0.01442
2004.51360	0.01467
2003.22783	0.01487
2001.94206	0.01523
2000.65629	0.01590
1999.37053	0.01658
1998.08476	0.01679
1996.79899	0.01632
1995.51322	0.01548
1994.22745	0.01478
1992.94168	0.01460
1991.65591	0.01498
1990.37014	0.01566
1989.08438	0.01627
1987.79861	0.01649
1986.51284	0.01632
1985.22707	0.01604
1983.94130	0.01588
1982.65553	0.01575
1981.36976	0.01525
1980.08399	0.01414
1978.79822	0.01263
1977.51246	0.01131
1976.22669	0.01069
1974.94092	0.01083
1973.65515	0.01144
1972.36938	0.01220
1971.08361	0.01299
1969.79784	0.01377
1968.51207	0.01446
1967.22631	0.01495
1965.94054	0.01528
1964.65477	0.01554
1963.36900	0.01568
1962.08323	0.01567
1960.79746	0.01556
1959.51169	0.01560
1958.22592	0.01597
1956.94015	0.01669
1955.65439	0.01751
1954.36862	0.01812
1953.08285	0.01829
1951.79708	0.01804
1950.51131	0.01763
1949.22554	0.01727
1947.93977	0.01702
1946.65400	0.01692
1945.36823	0.01706
1944.08247	0.01752
1942.79670	0.01817
1941.51093	0.01874
1940.22516	0.01896
1938.93939	0.01884
1937.65362	0.01864
1936.36785	0.01862
1935.08208	0.01877
1933.79632	0.01885
1932.51055	0.01870
1931.22478	0.01851
1929.93901	0.01853
1928.65324	0.01878
1927.36747	0.01897
1926.08170	0.01894
1924.79593	0.01885
1923.51016	0.01908
1922.22440	0.01965
1920.93863	0.02017
1919.65286	0.02024
1918.36709	0.01994
1917.08132	0.01971
1915.79555	0.01982
1914.50978	0.02019
1913.22401	0.02061
1911.93825	0.02092
1910.65248	0.02107
1909.36671	0.02105
1908.08094	0.02094
1906.79517	0.02084
1905.50940	0.02083
1904.22363	0.02095
1902.93786	0.02118
1901.65209	0.02144
1900.36633	0.02162
1899.08056	0.02162
1897.79479	0.02142
1896.50902	0.02112
1895.22325	0.02086
1893.93748	0.02074
1892.65171	0.02075
1891.36594	0.02084
1890.08018	0.02097
1888.79441	0.02114
1887.50864	0.02133
1886.22287	0.02154
1884.93710	0.02175
1883.65133	0.02193
1882.36556	0.02198
1881.07979	0.02189
1879.79402	0.02171
1878.50826	0.02151
1877.22249	0.02134
1875.93672	0.02125
1874.65095	0.02128
1873.36518	0.02141
1872.07941	0.02153
1870.79364	0.02153
1869.50787	0.02149
1868.22211	0.02154
1866.93634	0.02168
1865.65057	0.02183
1864.36480	0.02190
1863.07903	0.02191
1861.79326	0.02191
1860.50749	0.02186
1859.22172	0.02169
1857.93595	0.02141
1856.65019	0.02118
1855.36442	0.02115
1854.07865	0.02130
1852.79288	0.02151
1851.50711	0.02166
1850.22134	0.02174
1848.93557	0.02186
1847.64980	0.02201
1846.36404	0.02209
1845.07827	0.02203
1843.79250	0.02191
1842.50673	0.02184
1841.22096	0.02183
1839.93519	0.02186
1838.64942	0.02196
1837.36365	0.02207
1836.07788	0.02207
1834.79212	0.02197
1833.50635	0.02183
1832.22058	0.02168
1830.93481	0.02153
1829.64904	0.02145
1828.36327	0.02147
1827.07750	0.02155
1825.79173	0.02166
1824.50597	0.02184
1823.22020	0.02202
1821.93443	0.02209
1820.64866	0.02199
1819.36289	0.02181
1818.07712	0.02170
1816.79135	0.02176
1815.50558	0.02196
1814.21981	0.02216
1812.93405	0.02227
1811.64828	0.02228
1810.36251	0.02231
1809.07674	0.02238
1807.79097	0.02248
1806.50520	0.02257
1805.21943	0.02264
1803.93366	0.02264
1802.64790	0.02251
1801.36213	0.02227
1800.07636	0.02210
1798.79059	0.02211
1797.50482	0.02235
1796.21905	0.02266
1794.93328	0.02283
1793.64751	0.02276
1792.36174	0.02260
1791.07598	0.02253
1789.79021	0.02256
1788.50444	0.02260
1787.21867	0.02256
1785.93290	0.02250
1784.64713	0.02249
1783.36136	0.02258
1782.07559	0.02272
1780.78983	0.02285
1779.50406	0.02296
1778.21829	0.02303
1776.93252	0.02301
1775.64675	0.02288
1774.36098	0.02265
1773.07521	0.02250
1771.78944	0.02259
1770.50367	0.02282
1769.21791	0.02298
1767.93214	0.02305
1766.64637	0.02312
1765.36060	0.02317
1764.07483	0.02311
1762.78906	0.02301
1761.50329	0.02301
1760.21752	0.02314
1758.93176	0.02325
1757.64599	0.02326
1756.36022	0.02327
1755.07445	0.02330
1753.78868	0.02325
1752.50291	0.02309
1751.21714	0.02296
1749.93137	0.02295
1748.64560	0.02300
1747.35984	0.02305
1746.07407	0.02311
1744.78830	0.02320
1743.50253	0.02330
1742.21676	0.02334
1740.93099	0.02334
1739.64522	0.02343
1738.35945	0.02363
1737.07369	0.02375
1735.78792	0.02363
1734.50215	0.02351
1733.21638	0.02366
1731.93061	0.02395
1730.64484	0.02408
1729.35907	0.02401
1728.07330	0.02393
1726.78753	0.02393
1725.50177	0.02397
1724.21600	0.02403
1722.93023	0.02414
1721.64446	0.02427
1720.35869	0.02430
1719.07292	0.02426
1717.78715	0.02433
1716.50138	0.02462
1715.21561	0.02502
1713.92985	0.02536
1712.64408	0.02565
1711.35831	0.02593
1710.07254	0.02620
1708.78677	0.02640
1707.50100	0.02651
1706.21523	0.02662
1704.92946	0.02689
1703.64370	0.02722
1702.35793	0.02738
1701.07216	0.02744
1699.78639	0.02767
1698.50062	0.02797
1697.21485	0.02802
1695.92908	0.02791
1694.64331	0.02803
1693.35754	0.02836
1692.07178	0.02860
1690.78601	0.02876
1689.50024	0.02902
1688.21447	0.02929
1686.92870	0.02931
1685.64293	0.02907
1684.35716	0.02899
1683.07139	0.02932
1681.78563	0.02982
1680.49986	0.03017
1679.21409	0.03034
1677.92832	0.03039
1676.64255	0.03038
1675.35678	0.03051
1674.07101	0.03086
1672.78524	0.03124
1671.49947	0.03141
1670.21371	0.03144
1668.92794	0.03152
1667.64217	0.03174
1666.35640	0.03194
1665.07063	0.03200
1663.78486	0.03201
1662.49909	0.03213
1661.21332	0.03243
1659.92756	0.03280
1658.64179	0.03315
1657.35602	0.03341
1656.07025	0.03343
1654.78448	0.03317
1653.49871	0.03303
1652.21294	0.03339
1650.92717	0.03401
1649.64140	0.03430
1648.35564	0.03411
1647.06987	0.03384
1645.78410	0.03382
1644.49833	0.03397
1643.21256	0.03409
1641.92679	0.03411
1640.64102	0.03415
1639.35525	0.03423
1638.06949	0.03422
1636.78372	0.03413
1635.49795	0.03417
1634.21218	0.03442
1632.92641	0.03468
1631.64064	0.03473
1630.35487	0.03459
1629.06910	0.03445
1627.78333	0.03441
1626.49757	0.03445
1625.21180	0.03448
1623.92603	0.03451
1622.64026	0.03462
1621.35449	0.03483
1620.06872	0.03496
1618.78295	0.03487
1617.49718	0.03473
1616.21142	0.03481
1614.92565	0.03510
1613.63988	0.03534
1612.35411	0.03541
1611.06834	0.03540
1609.78257	0.03544
1608.49680	0.03553
1607.21103	0.03565
1605.92526	0.03578
1604.63950	0.03592
1603.35373	0.03608
1602.06796	0.03624
1600.78219	0.03637
1599.49642	0.03647
1598.21065	0.03658
1596.92488	0.03671
1595.63911	0.03686
1594.35335	0.03703
1593.06758	0.03719
1591.78181	0.03733
1590.49604	0.03745
1589.21027	0.03758
1587.92450	0.03776
1586.63873	0.03797
1585.35296	0.03819
1584.06719	0.03840
1582.78143	0.03862
1581.49566	0.03889
1580.20989	0.03921
1578.92412	0.03947
1577.63835	0.03964
1576.35258	0.03993
1575.06681	0.04050
1573.78104	0.04117
1572.49528	0.04161
1571.20951	0.04179
1569.92374	0.04195
1568.63797	0.04226
1567.35220	0.04265
1566.06643	0.04299
1564.78066	0.04333
1563.49489	0.04370
1562.20912	0.04398
1560.92336	0.04403
1559.63759	0.04409
1558.35182	0.04449
1557.06605	0.04510
1555.78028	0.04558
1554.49451	0.04587
1553.20874	0.04616
1551.92297	0.04650
1550.63721	0.04682
1549.35144	0.04711
1548.06567	0.04736
1546.77990	0.04754
1545.49413	0.04764
1544.20836	0.04769
1542.92259	0.04761
1541.63682	0.04733
1540.35105	0.04698
1539.06529	0.04683
1537.77952	0.04690
1536.49375	0.04689
1535.20798	0.04664
1533.92221	0.04635
1532.63644	0.04628
1531.35067	0.04638
1530.06490	0.04646
1528.77914	0.04645
1527.49337	0.04644
1526.20760	0.04654
1524.92183	0.04677
1523.63606	0.04701
1522.35029	0.04725
1521.06452	0.04762
1519.77875	0.04819
1518.49298	0.04879
1517.20722	0.04935
1515.92145	0.04995
1514.63568	0.05067
1513.34991	0.05146
1512.06414	0.05236
1510.77837	0.05337
1509.49260	0.05434
1508.20683	0.05517
1506.92107	0.05602
1505.63530	0.05706
1504.34953	0.05818
1503.06376	0.05910
1501.77799	0.05977
1500.49222	0.06033
1499.20645	0.06086
1497.92068	0.06131
1496.63491	0.06178
1495.34915	0.06235
1494.06338	0.06295
1492.77761	0.06341
1491.49184	0.06376
1490.20607	0.06419
1488.92030	0.06481
1487.63453	0.06555
1486.34876	0.06635
1485.06299	0.06718
1483.77723	0.06806
1482.49146	0.06902
1481.20569	0.07006
1479.91992	0.07113
1478.63415	0.07220
1477.34838	0.07326
1476.06261	0.07429
1474.77684	0.07526
1473.49108	0.07619
1472.20531	0.07719
1470.91954	0.07829
1469.63377	0.07937
1468.34800	0.08027
1467.06223	0.08098
1465.77646	0.08158
1464.49069	0.08222
1463.20492	0.08293
1461.91916	0.08367
1460.63339	0.08436
1459.34762	0.08494
1458.06185	0.08548
1456.77608	0.08615
1455.49031	0.08692
1454.20454	0.08753
1452.91877	0.08783
1451.63301	0.08795
1450.34724	0.08804
1449.06147	0.08814
1447.77570	0.08823
1446.48993	0.08828
1445.20416	0.08824
1443.91839	0.08805
1442.63262	0.08774
1441.34685	0.08736
1440.06109	0.08692
1438.77532	0.08639
1437.48955	0.08588
1436.20378	0.08559
1434.91801	0.08558
1433.63224	0.08573
1432.34647	0.08599
1431.06070	0.08644
1429.77494	0.08716
1428.48917	0.08809
1427.20340	0.08913
1425.91763	0.09027
1424.63186	0.09155
1423.34609	0.09296
1422.06032	0.09435
1420.77455	0.09556
1419.48878	0.09668
1418.20302	0.09780
1416.91725	0.09884
1415.63148	0.09964
1414.34571	0.10016
1413.05994	0.10048
1411.77417	0.10067
1410.48840	0.10076
1409.20263	0.10075
1407.91687	0.10056
1406.63110	0.10018
1405.34533	0.09959
1404.05956	0.09882
1402.77379	0.09783
1401.48802	0.09655
1400.20225	0.09502
1398.91648	0.09335
1397.63071	0.09159
1396.34495	0.08974
1395.05918	0.08787
1393.77341	0.08610
1392.48764	0.08442
1391.20187	0.08275
1389.91610	0.08099
1388.63033	0.07921
1387.34456	0.07758
1386.05880	0.07618
1384.77303	0.07495
1383.48726	0.07377
1382.20149	0.07262
1380.91572	0.07149
1379.62995	0.07037
1378.34418	0.06919
1377.05841	0.06789
1375.77264	0.06640
1374.48688	0.06470
1373.20111	0.06285
1371.91534	0.06093
1370.62957	0.05901
1369.34380	0.05720
1368.05803	0.05555
1366.77226	0.05404
1365.48649	0.05256
1364.20073	0.05107
1362.91496	0.04961
1361.62919	0.04826
1360.34342	0.04705
1359.05765	0.04592
1357.77188	0.04486
1356.48611	0.04388
1355.20034	0.04301
1353.91457	0.04225
1352.62881	0.04159
1351.34304	0.04097
1350.05727	0.04036
1348.77150	0.03974
1347.48573	0.03912
1346.19996	0.03851
1344.91419	0.03792
1343.62842	0.03739
1342.34266	0.03690
1341.05689	0.03647
1339.77112	0.03607
1338.48535	0.03570
1337.19958	0.03532
1335.91381	0.03492
1334.62804	0.03450
1333.34227	0.03408
1332.05650	0.03369
1330.77074	0.03333
1329.48497	0.03301
1328.19920	0.03272
1326.91343	0.03245
1325.62766	0.03221
1324.34189	0.03201
1323.05612	0.03183
1321.77035	0.03165
1320.48459	0.03146
1319.19882	0.03122
1317.91305	0.03096
1316.62728	0.03072
1315.34151	0.03052
1314.05574	0.03035
1312.76997	0.03018
1311.48420	0.02999
1310.19843	0.02980
1308.91267	0.02965
1307.62690	0.02954
1306.34113	0.02942
1305.05536	0.02925
1303.76959	0.02905
1302.48382	0.02885
1301.19805	0.02867
1299.91228	0.02852
1298.62652	0.02836
1297.34075	0.02818
1296.05498	0.02799
1294.76921	0.02778
1293.48344	0.02755
1292.19767	0.02731
1290.91190	0.02709
1289.62613	0.02690
1288.34036	0.02673
1287.05460	0.02657
1285.76883	0.02642
1284.48306	0.02627
1283.19729	0.02611
1281.91152	0.02596
1280.62575	0.02581
1279.33998	0.02565
1278.05421	0.02547
1276.76845	0.02526
1275.48268	0.02504
1274.19691	0.02484
1272.91114	0.02469
1271.62537	0.02457
1270.33960	0.02445
1269.05383	0.02431
1267.76806	0.02413
1266.48229	0.02394
1265.19653	0.02377
1263.91076	0.02365
1262.62499	0.02354
1261.33922	0.02341
1260.05345	0.02325
1258.76768	0.02309
1257.48191	0.02294
1256.19614	0.02282
1254.91037	0.02272
1253.62461	0.02262
1252.33884	0.02250
1251.05307	0.02237
1249.76730	0.02223
1248.48153	0.02210
1247.19576	0.02198
1245.90999	0.02186
1244.62422	0.02174
1243.33846	0.02161
1242.05269	0.02151
1240.76692	0.02144
1239.48115	0.02138
1238.19538	0.02133
1236.90961	0.02129
1235.62384	0.02124
1234.33807	0.02118
1233.05230	0.02105
1231.76654	0.02088
1230.48077	0.02069
1229.19500	0.02050
1227.90923	0.02032
1226.62346	0.02016
1225.33769	0.02005
1224.05192	0.01997
1222.76615	0.01991
1221.48039	0.01984
1220.19462	0.01976
1218.90885	0.01967
1217.62308	0.01958
1216.33731	0.01951
1215.05154	0.01945
1213.76577	0.01939
1212.48000	0.01928
1211.19423	0.01913
1209.90847	0.01897
1208.62270	0.01884
1207.33693	0.01874
1206.05116	0.01864
1204.76539	0.01853
1203.47962	0.01843
1202.19385	0.01835
1200.90808	0.01830
1199.62232	0.01825
1198.33655	0.01818
1197.05078	0.01811
1195.76501	0.01805
1194.47924	0.01799
1193.19347	0.01790
1191.90770	0.01779
1190.62193	0.01765
1189.33616	0.01750
1188.05040	0.01736
1186.76463	0.01722
1185.47886	0.01710
1184.19309	0.01701
1182.90732	0.01701
1181.62155	0.01709
1180.33578	0.01716
1179.05001	0.01717
1177.76425	0.01709
1176.47848	0.01700
1175.19271	0.01698
1173.90694	0.01703
1172.62117	0.01709
1171.33540	0.01713
1170.04963	0.01715
1168.76386	0.01720
1167.47809	0.01734
1166.19233	0.01750
1164.90656	0.01759
1163.62079	0.01760
1162.33502	0.01759
1161.04925	0.01762
1159.76348	0.01770
1158.47771	0.01782
1157.19194	0.01798
1155.90618	0.01821
1154.62041	0.01850
1153.33464	0.01885
1152.04887	0.01925
1150.76310	0.01969
1149.47733	0.02013
1148.19156	0.02056
1146.90579	0.02097
1145.62002	0.02139
1144.33426	0.02187
1143.04849	0.02244
1141.76272	0.02310
1140.47695	0.02384
1139.19118	0.02466
1137.90541	0.02558
1136.61964	0.02664
1135.33387	0.02786
1134.04811	0.02924
1132.76234	0.03072
1131.47657	0.03229
1130.19080	0.03398
1128.90503	0.03588
1127.61926	0.03807
1126.33349	0.04055
1125.04772	0.04326
1123.76195	0.04614
1122.47619	0.04916
1121.19042	0.05227
1119.90465	0.05542
1118.61888	0.05857
1117.33311	0.06173
1116.04734	0.06494
1114.76157	0.06818
1113.47580	0.07139
1112.19004	0.07452
1110.90427	0.07752
1109.61850	0.08035
1108.33273	0.08301
1107.04696	0.08554
1105.76119	0.08799
1104.47542	0.09039
1103.18965	0.09270
1101.90388	0.09491
1100.61812	0.09701
1099.33235	0.09901
1098.04658	0.10093
1096.76081	0.10280
1095.47504	0.10457
1094.18927	0.10621
1092.90350	0.10772
1091.61773	0.10912
1090.33197	0.11043
1089.04620	0.11170
1087.76043	0.11296
1086.47466	0.11427
1085.18889	0.11566
1083.90312	0.11718
1082.61735	0.11881
1081.33158	0.12050
1080.04581	0.12218
1078.76005	0.12387
1077.47428	0.12569
1076.18851	0.12769
1074.90274	0.12986
1073.61697	0.13210
1072.33120	0.13433
1071.04543	0.13655
1069.75966	0.13884
1068.47390	0.14126
1067.18813	0.14383
1065.90236	0.14655
1064.61659	0.14935
1063.33082	0.15218
1062.04505	0.15500
1060.75928	0.15777
1059.47351	0.16041
1058.18774	0.16291
1056.90198	0.16530
1055.61621	0.16766
1054.33044	0.17007
1053.04467	0.17261
1051.75890	0.17530
1050.47313	0.17810
1049.18736	0.18093
1047.90159	0.18380
1046.61583	0.18675
1045.33006	0.18983
1044.04429	0.19306
1042.75852	0.19639
1041.47275	0.19977
1040.18698	0.20311
1038.90121	0.20638
1037.61544	0.20962
1036.32967	0.21288
1035.04391	0.21618
1033.75814	0.21946
1032.47237	0.22262
1031.18660	0.22558
1029.90083	0.22828
1028.61506	0.23070
1027.32929	0.23285
1026.04352	0.23474
1024.75775	0.23637
1023.47199	0.23774
1022.18622	0.23881
1020.90045	0.23956
1019.61468	0.24002
1018.32891	0.24021
1017.04314	0.24014
1015.75737	0.23976
1014.47160	0.23899
1013.18584	0.23782
1011.90007	0.23627
1010.61430	0.23438
1009.32853	0.23211
1008.04276	0.22947
1006.75699	0.22646
1005.47122	0.22310
1004.18545	0.21945
1002.89968	0.21553
1001.61392	0.21131
1000.32815	0.20677
999.04238	0.20195
997.75661	0.19695
996.47084	0.19186
995.18507	0.18665
993.89930	0.18129
992.61353	0.17581
991.32777	0.17029
990.04200	0.16485
988.75623	0.15954
987.47046	0.15444
986.18469	0.14953
984.89892	0.14477
983.61315	0.14015
982.32738	0.13570
981.04161	0.13144
979.75585	0.12737
978.47008	0.12350
977.18431	0.11990
975.89854	0.11663
974.61277	0.11371
973.32700	0.11111
972.04123	0.10890
970.75546	0.10722
969.46970	0.10613
968.18393	0.10560
966.89816	0.10553
965.61239	0.10584
964.32662	0.10647
963.04085	0.10731
961.75508	0.10812
960.46931	0.10863
959.18354	0.10856
957.89778	0.10782
956.61201	0.10651
955.32624	0.10479
954.04047	0.10280
952.75470	0.10064
951.46893	0.09837
950.18316	0.09611
948.89739	0.09391
947.61163	0.09176
946.32586	0.08961
945.04009	0.08748
943.75432	0.08539
942.46855	0.08339
941.18278	0.08149
939.89701	0.07967
938.61124	0.07794
937.32547	0.07627
936.03971	0.07469
934.75394	0.07320
933.46817	0.07180
932.18240	0.07051
930.89663	0.06932
929.61086	0.06825
928.32509	0.06730
927.03932	0.06640
925.75356	0.06546
924.46779	0.06445
923.18202	0.06345
921.89625	0.06260
920.61048	0.06192
919.32471	0.06131
918.03894	0.06065
916.75317	0.05993
915.46740	0.05921
914.18164	0.05858
912.89587	0.05803
911.61010	0.05754
910.32433	0.05703
909.03856	0.05645
907.75279	0.05577
906.46702	0.05505
905.18125	0.05440
903.89549	0.05392
902.60972	0.05358
901.32395	0.05331
900.03818	0.05305
898.75241	0.05277
897.46664	0.05243
896.18087	0.05201
894.89510	0.05158
893.60933	0.05126
892.32357	0.05107
891.03780	0.05094
889.75203	0.05081
888.46626	0.05070
887.18049	0.05079
885.89472	0.05137
884.60895	0.05267
883.32318	0.05477
882.03742	0.05747
880.75165	0.06024
879.46588	0.06254
878.18011	0.06411
876.89434	0.06514
875.60857	0.06610
874.32280	0.06724
873.03703	0.06840
871.75126	0.06914
870.46550	0.06916
869.17973	0.06846
867.89396	0.06722
866.60819	0.06563
865.32242	0.06386
864.03665	0.06205
862.75088	0.06030
861.46511	0.05861
860.17935	0.05700
858.89358	0.05553
857.60781	0.05430
856.32204	0.05331
855.03627	0.05246
853.75050	0.05165
852.46473	0.05085
851.17896	0.05013
849.89319	0.04953
848.60743	0.04904
847.32166	0.04860
846.03589	0.04818
844.75012	0.04777
843.46435	0.04735
842.17858	0.04694
840.89281	0.04655
839.60704	0.04619
838.32128	0.04586
837.03551	0.04554
835.74974	0.04523
834.46397	0.04498
833.17820	0.04480
831.89243	0.04467
830.60666	0.04451
829.32089	0.04429
828.03512	0.04402
826.74936	0.04375
825.46359	0.04353
824.17782	0.04337
822.89205	0.04327
821.60628	0.04322
820.32051	0.04319
819.03474	0.04315
817.74897	0.04307
816.46321	0.04296
815.17744	0.04284
813.89167	0.04277
812.60590	0.04273
811.32013	0.04268
810.03436	0.04253
808.74859	0.04226
807.46282	0.04192
806.17705	0.04160
804.89129	0.04137
803.60552	0.04127
802.31975	0.04125
801.03398	0.04121
799.74821	0.04109
798.46244	0.04089
797.17667	0.04070
795.89090	0.04052
794.60513	0.04037
793.31937	0.04023
792.03360	0.04009
790.74783	0.03993
789.46206	0.03974
788.17629	0.03954
786.89052	0.03941
785.60475	0.03935
784.31898	0.03928
783.03322	0.03913
781.74745	0.03893
780.46168	0.03879
779.17591	0.03879
777.89014	0.03890
776.60437	0.03905
775.31860	0.03912
774.03283	0.03907
772.74706	0.03896
771.46130	0.03888
770.17553	0.03881
768.88976	0.03873
767.60399	0.03861
766.31822	0.03848
765.03245	0.03835
763.74668	0.03826
762.46091	0.03824
761.17515	0.03829
759.88938	0.03840
758.60361	0.03850
757.31784	0.03855
756.03207	0.03858
754.74630	0.03860
753.46053	0.03859
752.17476	0.03854
750.88899	0.03845
749.60323	0.03838
748.31746	0.03837
747.03169	0.03839
745.74592	0.03835
744.46015	0.03819
743.17438	0.03797
741.88861	0.03777
740.60284	0.03763
739.31708	0.03751
738.03131	0.03740
736.74554	0.03734
735.45977	0.03734
734.17400	0.03732
732.88823	0.03718
731.60246	0.03690
730.31669	0.03657
729.03092	0.03629
727.74516	0.03610
726.45939	0.03604
725.17362	0.03609
723.88785	0.03613
722.60208	0.03617
721.31631	0.03621
720.03054	0.03615
718.74477	0.03600
717.45901	0.03589
716.17324	0.03581
714.88747	0.03571
713.60170	0.03560
712.31593	0.03549
711.03016	0.03539
709.74439	0.03528
708.45862	0.03513
707.17285	0.03497
705.88709	0.03481
704.60132	0.03466
703.31555	0.03452
702.02978	0.03436
700.74401	0.03421
699.45824	0.03407
698.17247	0.03395
696.88670	0.03385
695.60094	0.03379
694.31517	0.03372
693.02940	0.03364
691.74363	0.03352
690.45786	0.03338
689.17209	0.03325
687.88632	0.03312
686.60055	0.03298
685.31478	0.03281
684.02902	0.03262
682.74325	0.03245
681.45748	0.03230
680.17171	0.03215
678.88594	0.03197
677.60017	0.03180
676.31440	0.03170
675.02863	0.03169
673.74287	0.03165
672.45710	0.03145
671.17133	0.03125
669.88556	0.03175
668.59979	0.03287
667.31402	0.03265
666.02825	0.03156
664.74248	0.03129
663.45671	0.03149
662.17095	0.03150
660.88518	0.03130
659.59941	0.03105
658.31364	0.03085
657.02787	0.03072
655.74210	0.03063
654.45633	0.03055
653.17056	0.03048
651.88480	0.03043
650.59903	0.03041
649.31326	0.03043
648.02749	0.03045
646.74172	0.03050
645.45595	0.03059
644.17018	0.03066
642.88441	0.03072
641.59864	0.03080
640.31288	0.03094
639.02711	0.03115
637.74134	0.03143
636.45557	0.03172
635.16980	0.03201
633.88403	0.03231
632.59826	0.03268
631.31249	0.03314
630.02673	0.03371
628.74096	0.03428
627.45519	0.03478
626.16942	0.03563
624.88365	0.03685
623.59788	0.03829
622.31211	0.03981
621.02634	0.04146
619.74057	0.04349
618.45481	0.04606
617.16904	0.04890
615.88327	0.05162
614.59750	0.05432
613.31173	0.05773
612.02596	0.06244
610.74019	0.06815
609.45442	0.07388
608.16866	0.07907
606.88289	0.08384
605.59712	0.08828
604.31135	0.09182
603.02558	0.09377
601.73981	0.09401
600.45404	0.09299
599.16827	0.09128
597.88250	0.08919
596.59674	0.08683
595.31097	0.08430
594.02520	0.08178
592.73943	0.07955
591.45366	0.07779
590.16789	0.07661
588.88212	0.07605
587.59635	0.07612
586.31059	0.07673
585.02482	0.07774
583.73905	0.07906
582.45328	0.08068
581.16751	0.08260
579.88174	0.08479
578.59597	0.08712
577.31020	0.08944
576.02443	0.09166
574.73867	0.09376
573.45290	0.09581
572.16713	0.09795
570.88136	0.10042
569.59559	0.10342
568.30982	0.10703
567.02405	0.11112
565.73828	0.11542
564.45251	0.11954
563.16675	0.12301
561.88098	0.12531
560.59521	0.12603
559.30944	0.12501
558.02367	0.12242
556.73790	0.11862
555.45213	0.11398
554.16636	0.10885
552.88060	0.10352
551.59483	0.09821
550.30906	0.09306
549.02329	0.08819
547.73752	0.08369
546.45175	0.07961
545.16598	0.07598
543.88021	0.07279
542.59444	0.06999
541.30868	0.06754
540.02291	0.06533
538.73714	0.06325
537.45137	0.06121
536.16560	0.05918
534.87983	0.05725
533.59406	0.05555
532.30829	0.05410
531.02253	0.05280
529.73676	0.05156
528.45099	0.05032
527.16522	0.04910
525.87945	0.04795
524.59368	0.04688
523.30791	0.04585
522.02214	0.04483
520.73637	0.04380
519.45061	0.04274
518.16484	0.04171
516.87907	0.04075
515.59330	0.03994
514.30753	0.03926
513.02176	0.03866
511.73599	0.03807
510.45022	0.03749
509.16446	0.03691
507.87869	0.03636
506.59292	0.03581
505.30715	0.03526
504.02138	0.03471
502.73561	0.03418
501.44984	0.03366
500.16407	0.03317
498.87830	0.03274
497.59254	0.03239
496.30677	0.03211
495.02100	0.03185
493.73523	0.03157
492.44946	0.03122
491.16369	0.03081
489.87792	0.03037
488.59215	0.02999
487.30639	0.02973
486.02062	0.02960
484.73485	0.02957
483.44908	0.02959
482.16331	0.02963
480.87754	0.02967
479.59177	0.02973
478.30600	0.02981
477.02023	0.02992
475.73447	0.03003
474.44870	0.03011
473.16293	0.03017
471.87716	0.03026
470.59139	0.03036
469.30562	0.03041
468.01985	0.03038
466.73408	0.03024
465.44832	0.03001
464.16255	0.02968
462.87678	0.02924
461.59101	0.02873
460.30524	0.02825
459.01947	0.02792
457.73370	0.02776
456.44793	0.02766
455.16216	0.02747
453.87640	0.02717
452.59063	0.02684
451.30486	0.02657
450.01909	0.02636
448.73332	0.02618
447.44755	0.02599
446.16178	0.02578
444.87601	0.02557
443.59025	0.02537
442.30448	0.02523
441.01871	0.02517
439.73294	0.02514
438.44717	0.02506
437.16140	0.02491
435.87563	0.02473
434.58986	0.02458
433.30409	0.02449
432.01833	0.02448
430.73256	0.02449
429.44679	0.02449
428.16102	0.02446
426.87525	0.02441
425.58948	0.02436
424.30371	0.02430
423.01794	0.02418
421.73218	0.02398
420.44641	0.02374
419.16064	0.02358
417.87487	0.02352
416.58910	0.02348
415.30333	0.02337
414.01756	0.02318
412.73179	0.02300
411.44602	0.02290
410.16026	0.02293
408.87449	0.02302
407.58872	0.02312
406.30295	0.02318
405.01718	0.02323
403.73141	0.02330
402.44564	0.02338
401.15987	0.02343
399.87411	0.02344
