3997.45528	0.04099
3996.16951	0.04046
3994.88374	0.03962
3993.59798	0.03890
3992.31221	0.03883
3991.02644	0.03949
3989.74067	0.04051
3988.45490	0.04149
3987.16913	0.04218
3985.88336	0.04235
3984.59759	0.04187
3983.31183	0.04092
3982.02606	0.04003
3980.74029	0.03978
3979.45452	0.04037
3978.16875	0.04147
3976.88298	0.04250
3975.59721	0.04306
3974.31144	0.04309
3973.02567	0.04281
3971.73991	0.04247
3970.45414	0.04217
3969.16837	0.04197
3967.88260	0.04190
3966.59683	0.04191
3965.31106	0.04189
3964.02529	0.04176
3962.73952	0.04159
3961.45376	0.04145
3960.16799	0.04127
3958.88222	0.04090
3957.59645	0.04030
3956.31068	0.03959
3955.02491	0.03913
3953.73914	0.03921
3952.45337	0.03986
3951.16760	0.04064
3949.88184	0.04104
3948.59607	0.04096
3947.31030	0.04069
3946.02453	0.04053
3944.73876	0.04049
3943.45299	0.04045
3942.16722	0.04033
3940.88145	0.04009
3939.59569	0.03968
3938.30992	0.03918
3937.02415	0.03882
3935.73838	0.03885
3934.45261	0.03929
3933.16684	0.03986
3931.88107	0.04008
3930.59530	0.03978
3929.30953	0.03935
3928.02377	0.03937
3926.73800	0.03989
3925.45223	0.04047
3924.16646	0.04071
3922.88069	0.04056
3921.59492	0.04017
3920.30915	0.03963
3919.02338	0.03903
3917.73762	0.03851
3916.45185	0.03828
3915.16608	0.03839
3913.88031	0.03864
3912.59454	0.03873
3911.30877	0.03850
3910.02300	0.03812
3908.73723	0.03798
3907.45146	0.03836
3906.16570	0.03912
3904.87993	0.03995
3903.59416	0.04063
3902.30839	0.04106
3901.02262	0.04108
3899.73685	0.04065
3898.45108	0.03994
3897.16531	0.03924
3895.87955	0.03885
3894.59378	0.03887
3893.30801	0.03913
3892.02224	0.03937
3890.73647	0.03952
3889.45070	0.03957
3888.16493	0.03935
3886.87916	0.03889
3885.59339	0.03847
3884.30763	0.03827
3883.02186	0.03826
3881.73609	0.03845
3880.45032	0.03889
3879.16455	0.03936
3877.87878	0.03939
3876.59301	0.03895
3875.30724	0.03854
3874.02148	0.03853
3872.73571	0.03870
3871.44994	0.03862
3870.16417	0.03850
3868.87840	0.03875
3867.59263	0.03914
3866.30686	0.03929
3865.02109	0.03928
3863.73532	0.03930
3862.44956	0.03925
3861.16379	0.03904
3859.87802	0.03880
3858.59225	0.03872
3857.30648	0.03883
3856.02071	0.03905
3854.73494	0.03934
3853.44917	0.03975
3852.16341	0.04006
3850.87764	0.04001
3849.59187	0.03974
3848.30610	0.03966
3847.02033	0.03986
3845.73456	0.04014
3844.44879	0.04025
3843.16302	0.04001
3841.87725	0.03939
3840.59149	0.03852
3839.30572	0.03782
3838.01995	0.03777
3836.73418	0.03843
3835.44841	0.03918
3834.16264	0.03948
3832.87687	0.03941
3831.59110	0.03930
3830.30534	0.03923
3829.01957	0.03901
3827.73380	0.03852
3826.44803	0.03801
3825.16226	0.03779
3823.87649	0.03790
3822.59072	0.03828
3821.30495	0.03903
3820.01918	0.04001
3818.73342	0.04056
3817.44765	0.04031
3816.16188	0.03977
3814.87611	0.03961
3813.59034	0.03974
3812.30457	0.03974
3811.01880	0.03948
3809.73303	0.03888
3808.44726	0.03802
3807.16150	0.03744
3805.87573	0.03759
3804.58996	0.03806
3803.30419	0.03817
3802.01842	0.03796
3800.73265	0.03798
3799.44688	0.03819
3798.16111	0.03812
3796.87535	0.03780
3795.58958	0.03763
3794.30381	0.03764
3793.01804	0.03762
3791.73227	0.03746
3790.44650	0.03723
3789.16073	0.03706
3787.87496	0.03694
3786.58919	0.03679
3785.30343	0.03667
3784.01766	0.03686
3782.73189	0.03758
3781.44612	0.03863
3780.16035	0.03948
3778.87458	0.03976
3777.58881	0.03953
3776.30304	0.03909
3775.01728	0.03867
3773.73151	0.03823
3772.44574	0.03759
3771.15997	0.03682
3769.87420	0.03635
3768.58843	0.03648
3767.30266	0.03696
3766.01689	0.03733
3764.73112	0.03731
3763.44536	0.03696
3762.15959	0.03661
3760.87382	0.03658
3759.58805	0.03681
3758.30228	0.03692
3757.01651	0.03676
3755.73074	0.03653
3754.44497	0.03635
3753.15921	0.03635
3751.87344	0.03659
3750.58767	0.03693
3749.30190	0.03718
3748.01613	0.03703
3746.73036	0.03606
3745.44459	0.03461
3744.15882	0.03392
3742.87305	0.03443
3741.58729	0.03527
3740.30152	0.03572
3739.01575	0.03585
3737.72998	0.03598
3736.44421	0.03645
3735.15844	0.03725
3733.87267	0.03783
3732.58690	0.03779
3731.30114	0.03725
3730.01537	0.03650
3728.72960	0.03565
3727.44383	0.03489
3726.15806	0.03445
3724.87229	0.03436
3723.58652	0.03446
3722.30075	0.03464
3721.01498	0.03475
3719.72922	0.03462
3718.44345	0.03431
3717.15768	0.03417
3715.87191	0.03440
3714.58614	0.03475
3713.30037	0.03487
3712.01460	0.03474
3710.72883	0.03458
3709.44307	0.03459
3708.15730	0.03482
3706.87153	0.03510
3705.58576	0.03515
3704.29999	0.03487
3703.01422	0.03448
3701.72845	0.03423
3700.44268	0.03407
3699.15691	0.03375
3697.87115	0.03327
3696.58538	0.03296
3695.29961	0.03308
3694.01384	0.03350
3692.72807	0.03397
3691.44230	0.03422
3690.15653	0.03410
3688.87076	0.03388
3687.58500	0.03392
3686.29923	0.03411
3685.01346	0.03405
3683.72769	0.03383
3682.44192	0.03391
3681.15615	0.03449
3679.87038	0.03537
3678.58461	0.03606
3677.29884	0.03620
3676.01308	0.03600
3674.72731	0.03589
3673.44154	0.03583
3672.15577	0.03569
3670.87000	0.03588
3669.58423	0.03669
3668.29846	0.03752
3667.01269	0.03764
3665.72693	0.03718
3664.44116	0.03686
3663.15539	0.03709
3661.86962	0.03767
3660.58385	0.03815
3659.29808	0.03823
3658.01231	0.03799
3656.72654	0.03784
3655.44077	0.03808
3654.15501	0.03856
3652.86924	0.03885
3651.58347	0.03880
3650.29770	0.03850
3649.01193	0.03812
3647.72616	0.03776
3646.44039	0.03749
3645.15462	0.03731
3643.86886	0.03716
3642.58309	0.03707
3641.29732	0.03710
3640.01155	0.03729
3638.72578	0.03764
3637.44001	0.03812
3636.15424	0.03858
3634.86847	0.03889
3633.58270	0.03909
3632.29694	0.03919
3631.01117	0.03917
3629.72540	0.03921
3628.43963	0.03961
3627.15386	0.04028
3625.86809	0.04082
3624.58232	0.04115
3623.29655	0.04135
3622.01079	0.04136
3620.72502	0.04112
3619.43925	0.04089
3618.15348	0.04093
3616.86771	0.04116
3615.58194	0.04136
3614.29617	0.04158
3613.01040	0.04209
3611.72463	0.04292
3610.43887	0.04366
3609.15310	0.04393
3607.86733	0.04379
3606.58156	0.04360
3605.29579	0.04371
3604.01002	0.04423
3602.72425	0.04496
3601.43848	0.04552
3600.15272	0.04564
3598.86695	0.04533
3597.58118	0.04479
3596.29541	0.04434
3595.00964	0.04423
3593.72387	0.04457
3592.43810	0.04531
3591.15233	0.04628
3589.86656	0.04723
3588.58080	0.04785
3587.29503	0.04794
3586.00926	0.04752
3584.72349	0.04700
3583.43772	0.04696
3582.15195	0.04776
3580.86618	0.04915
3579.58041	0.05057
3578.29464	0.05154
3577.00888	0.05188
3575.72311	0.05170
3574.43734	0.05128
3573.15157	0.05104
3571.86580	0.05124
3570.58003	0.05185
3569.29426	0.05260
3568.00849	0.05325
3566.72273	0.05367
3565.43696	0.05372
3564.15119	0.05334
3562.86542	0.05274
3561.57965	0.05237
3560.29388	0.05255
3559.00811	0.05324
3557.72234	0.05403
3556.43657	0.05443
3555.15081	0.05420
3553.86504	0.05353
3552.57927	0.05286
3551.29350	0.05253
3550.00773	0.05256
3548.72196	0.05289
3547.43619	0.05361
3546.15042	0.05483
3544.86466	0.05635
3543.57889	0.05767
3542.29312	0.05842
3541.00735	0.05869
3539.72158	0.05883
3538.43581	0.05907
3537.15004	0.05933
3535.86427	0.05948
3534.57850	0.05950
3533.29274	0.05944
3532.00697	0.05924
3530.72120	0.05885
3529.43543	0.05844
3528.14966	0.05831
3526.86389	0.05855
3525.57812	0.05890
3524.29235	0.05913
3523.00659	0.05928
3521.72082	0.05955
3520.43505	0.05998
3519.14928	0.06040
3517.86351	0.06067
3516.57774	0.06076
3515.29197	0.06078
3514.00620	0.06083
3512.72043	0.06090
3511.43467	0.06083
3510.14890	0.06056
3508.86313	0.06025
3507.57736	0.06029
3506.29159	0.06091
3505.00582	0.06196
3503.72005	0.06302
3502.43428	0.06372
3501.14852	0.06399
3499.86275	0.06397
3498.57698	0.06388
3497.29121	0.06390
3496.00544	0.06408
3494.71967	0.06427
3493.43390	0.06426
3492.14813	0.06397
3490.86236	0.06360
3489.57660	0.06345
3488.29083	0.06361
3487.00506	0.06401
3485.71929	0.06448
3484.43352	0.06497
3483.14775	0.06546
3481.86198	0.06591
3480.57621	0.06624
3479.29045	0.06644
3478.00468	0.06659
3476.71891	0.06683
3475.43314	0.06712
3474.14737	0.06735
3472.86160	0.06746
3471.57583	0.06754
3470.29006	0.06771
3469.00429	0.06805
3467.71853	0.06856
3466.43276	0.06920
3465.14699	0.06979
3463.86122	0.07004
3462.57545	0.06984
3461.28968	0.06946
3460.00391	0.06929
3458.71814	0.06939
3457.43238	0.06949
3456.14661	0.06930
3454.86084	0.06889
3453.57507	0.06858
3452.28930	0.06867
3451.00353	0.06916
3449.71776	0.06980
3448.43199	0.07030
3447.14622	0.07055
3445.86046	0.07064
3444.57469	0.07068
3443.28892	0.07071
3442.00315	0.07073
3440.71738	0.07077
3439.43161	0.07089
3438.14584	0.07110
3436.86007	0.07131
3435.57431	0.07139
3434.28854	0.07121
3433.00277	0.07074
3431.71700	0.07009
3430.43123	0.06956
3429.14546	0.06951
3427.85969	0.07014
3426.57392	0.07127
3425.28815	0.07244
3424.00239	0.07324
3422.71662	0.07354
3421.43085	0.07348
3420.14508	0.07329
3418.85931	0.07317
3417.57354	0.07321
3416.28777	0.07337
3415.00200	0.07356
3413.71624	0.07366
3412.43047	0.07360
3411.14470	0.07338
3409.85893	0.07307
3408.57316	0.07277
3407.28739	0.07269
3406.00162	0.07302
3404.71585	0.07383
3403.43008	0.07488
3402.14432	0.07572
3400.85855	0.07608
3399.57278	0.07604
3398.28701	0.07586
3397.00124	0.07573
3395.71547	0.07565
3394.42970	0.07560
3393.14393	0.07565
3391.85817	0.07586
3390.57240	0.07614
3389.28663	0.07626
3388.00086	0.07608
3386.71509	0.07576
3385.42932	0.07562
3384.14355	0.07581
3382.85778	0.07624
3381.57201	0.07669
3380.28625	0.07699
3379.00048	0.07714
3377.71471	0.07713
3376.42894	0.07695
3375.14317	0.07662
3373.85740	0.07624
3372.57163	0.07598
3371.28586	0.07606
3370.00010	0.07655
3368.71433	0.07728
3367.42856	0.07791
3366.14279	0.07816
3364.85702	0.07807
3363.57125	0.07790
3362.28548	0.07779
3360.99971	0.07769
3359.71394	0.07741
3358.42818	0.07691
3357.14241	0.07647
3355.85664	0.07645
3354.57087	0.07695
3353.28510	0.07770
3351.99933	0.07830
3350.71356	0.07854
3349.42779	0.07847
3348.14202	0.07826
3346.85626	0.07799
3345.57049	0.07768
3344.28472	0.07733
3342.99895	0.07701
3341.71318	0.07683
3340.42741	0.07687
3339.14164	0.07713
3337.85587	0.07753
3336.57011	0.07796
3335.28434	0.07831
3333.99857	0.07844
3332.71280	0.07834
3331.42703	0.07811
3330.14126	0.07790
3328.85549	0.07768
3327.56972	0.07735
3326.28395	0.07694
3324.99819	0.07661
3323.71242	0.07650
3322.42665	0.07655
3321.14088	0.07660
3319.85511	0.07659
3318.56934	0.07659
3317.28357	0.07676
3315.99780	0.07708
3314.71204	0.07740
3313.42627	0.07752
3312.14050	0.07741
3310.85473	0.07725
3309.56896	0.07720
3308.28319	0.07721
3306.99742	0.07719
3305.71165	0.07713
3304.42588	0.07715
3303.14012	0.07735
3301.85435	0.07767
3300.56858	0.07790
3299.28281	0.07791
3297.99704	0.07771
3296.71127	0.07747
3295.42550	0.07737
3294.13973	0.07751
3292.85397	0.07781
3291.56820	0.07808
3290.28243	0.07819
3288.99666	0.07814
3287.71089	0.07804
3286.42512	0.07792
3285.13935	0.07772
3283.85358	0.07741
3282.56781	0.07708
3281.28205	0.07688
3279.99628	0.07688
3278.71051	0.07708
3277.42474	0.07735
3276.13897	0.07752
3274.85320	0.07744
3273.56743	0.07705
3272.28166	0.07644
3270.99590	0.07581
3269.71013	0.07536
3268.42436	0.07519
3267.13859	0.07525
3265.85282	0.07535
3264.56705	0.07539
3263.28128	0.07538
3261.99551	0.07540
3260.70974	0.07538
3259.42398	0.07525
3258.13821	0.07508
3256.85244	0.07513
3255.56667	0.07549
3254.28090	0.07595
3252.99513	0.07621
3251.70936	0.07615
3250.42359	0.07588
3249.13783	0.07553
3247.85206	0.07511
3246.56629	0.07467
3245.28052	0.07426
3243.99475	0.07395
3242.70898	0.07372
3241.42321	0.07353
3240.13744	0.07339
3238.85167	0.07334
3237.56591	0.07344
3236.28014	0.07362
3234.99437	0.07370
3233.70860	0.07351
3232.42283	0.07302
3231.13706	0.07247
3229.85129	0.07214
3228.56552	0.07210
3227.27976	0.07221
3225.99399	0.07227
3224.70822	0.07220
3223.42245	0.07207
3222.13668	0.07202
3220.85091	0.07207
3219.56514	0.07212
3218.27937	0.07207
3216.99360	0.07197
3215.70784	0.07197
3214.42207	0.07203
3213.13630	0.07193
3211.85053	0.07154
3210.56476	0.07105
3209.27899	0.07083
3207.99322	0.07107
3206.70745	0.07157
3205.42169	0.07200
3204.13592	0.07210
3202.85015	0.07188
3201.56438	0.07156
3200.27861	0.07132
3198.99284	0.07123
3197.70707	0.07119
3196.42130	0.07107
3195.13553	0.07082
3193.84977	0.07048
3192.56400	0.07010
3191.27823	0.06972
3189.99246	0.06947
3188.70669	0.06940
3187.42092	0.06939
3186.13515	0.06917
3184.84938	0.06861
3183.56362	0.06792
3182.27785	0.06751
3180.99208	0.06749
3179.70631	0.06762
3178.42054	0.06757
3177.13477	0.06723
3175.84900	0.06678
3174.56323	0.06653
3173.27746	0.06667
3171.99170	0.06707
3170.70593	0.06742
3169.42016	0.06745
3168.13439	0.06720
3166.84862	0.06686
3165.56285	0.06659
3164.27708	0.06634
3162.99131	0.06601
3161.70555	0.06553
3160.41978	0.06499
3159.13401	0.06452
3157.84824	0.06420
3156.56247	0.06402
3155.27670	0.06399
3153.99093	0.06412
3152.70516	0.06437
3151.41939	0.06462
3150.13363	0.06469
3148.84786	0.06451
3147.56209	0.06417
3146.27632	0.06384
3144.99055	0.06369
3143.70478	0.06378
3142.41901	0.06403
3141.13324	0.06422
3139.84748	0.06410
3138.56171	0.06358
3137.27594	0.06280
3135.99017	0.06205
3134.70440	0.06161
3133.41863	0.06159
3132.13286	0.06188
3130.84709	0.06225
3129.56132	0.06250
3128.27556	0.06257
3126.98979	0.06251
3125.70402	0.06239
3124.41825	0.06228
3123.13248	0.06224
3121.84671	0.06231
3120.56094	0.06242
3119.27517	0.06248
3117.98940	0.06242
3116.70364	0.06223
3115.41787	0.06195
3114.13210	0.06173
3112.84633	0.06166
3111.56056	0.06172
3110.27479	0.06170
3108.98902	0.06137
3107.70325	0.06077
3106.41749	0.06020
3105.13172	0.06002
3103.84595	0.06025
3102.56018	0.06068
3101.27441	0.06108
3099.98864	0.06141
3098.70287	0.06170
3097.41710	0.06192
3096.13133	0.06200
3094.84557	0.06188
3093.55980	0.06156
3092.27403	0.06106
3090.98826	0.06047
3089.70249	0.05993
3088.41672	0.05953
3087.13095	0.05929
3085.84518	0.05919
3084.55942	0.05924
3083.27365	0.05946
3081.98788	0.05980
3080.70211	0.06003
3079.41634	0.05998
3078.13057	0.05973
3076.84480	0.05952
3075.55903	0.05951
3074.27326	0.05957
3072.98750	0.05942
3071.70173	0.05898
3070.41596	0.05847
3069.13019	0.05819
3067.84442	0.05824
3066.55865	0.05840
3065.27288	0.05845
3063.98711	0.05839
3062.70135	0.05836
3061.41558	0.05843
3060.12981	0.05847
3058.84404	0.05827
3057.55827	0.05779
3056.27250	0.05714
3054.98673	0.05658
3053.70096	0.05635
3052.41519	0.05654
3051.12943	0.05701
3049.84366	0.05749
3048.55789	0.05772
3047.27212	0.05767
3045.98635	0.05744
3044.70058	0.05719
3043.41481	0.05701
3042.12904	0.05685
3040.84328	0.05668
3039.55751	0.05649
3038.27174	0.05627
3036.98597	0.05598
3035.70020	0.05561
3034.41443	0.05529
3033.12866	0.05515
3031.84289	0.05520
3030.55712	0.05533
3029.27136	0.05530
3027.98559	0.05502
3026.69982	0.05458
3025.41405	0.05419
3024.12828	0.05399
3022.84251	0.05400
3021.55674	0.05415
3020.27097	0.05436
3018.98521	0.05449
3017.69944	0.05450
3016.41367	0.05441
3015.12790	0.05422
3013.84213	0.05396
3012.55636	0.05365
3011.27059	0.05338
3009.98482	0.05323
3008.69905	0.05318
3007.41329	0.05313
3006.12752	0.05298
3004.84175	0.05272
3003.55598	0.05242
3002.27021	0.05213
3000.98444	0.05196
2999.69867	0.05200
2998.41290	0.05226
2997.12714	0.05260
2995.84137	0.05281
2994.55560	0.05288
2993.26983	0.05296
2991.98406	0.05313
2990.69829	0.05332
2989.41252	0.05341
2988.12675	0.05328
2986.84098	0.05297
2985.55522	0.05265
2984.26945	0.05252
2982.98368	0.05269
2981.69791	0.05306
2980.41214	0.05345
2979.12637	0.05366
2977.84060	0.05361
2976.55483	0.05343
2975.26907	0.05338
2973.98330	0.05361
2972.69753	0.05402
2971.41176	0.05442
2970.12599	0.05474
2968.84022	0.05504
2967.55445	0.05540
2966.26868	0.05584
2964.98291	0.05630
2963.69715	0.05672
2962.41138	0.05707
2961.12561	0.05734
2959.83984	0.05755
2958.55407	0.05775
2957.26830	0.05796
2955.98253	0.05810
2954.69676	0.05811
2953.41100	0.05808
2952.12523	0.05820
2950.83946	0.05846
2949.55369	0.05860
2948.26792	0.05846
2946.98215	0.05816
2945.69638	0.05790
2944.41061	0.05773
2943.12484	0.05753
2941.83908	0.05720
2940.55331	0.05681
2939.26754	0.05652
2937.98177	0.05650
2936.69600	0.05676
2935.41023	0.05719
2934.12446	0.05764
2932.83869	0.05802
2931.55293	0.05830
2930.26716	0.05848
2928.98139	0.05854
2927.69562	0.05848
2926.40985	0.05830
2925.12408	0.05804
2923.83831	0.05779
2922.55254	0.05760
2921.26677	0.05748
2919.98101	0.05732
2918.69524	0.05703
2917.40947	0.05663
2916.12370	0.05625
2914.83793	0.05602
2913.55216	0.05593
2912.26639	0.05589
2910.98062	0.05586
2909.69486	0.05581
2908.40909	0.05563
2907.12332	0.05521
2905.83755	0.05455
2904.55178	0.05388
2903.26601	0.05340
2901.98024	0.05309
2900.69447	0.05279
2899.40870	0.05247
2898.12294	0.05222
2896.83717	0.05200
2895.55140	0.05170
2894.26563	0.05137
2892.97986	0.05119
2891.69409	0.05124
2890.40832	0.05141
2889.12255	0.05153
2887.83678	0.05148
2886.55102	0.05131
2885.26525	0.05113
2883.97948	0.05101
2882.69371	0.05092
2881.40794	0.05078
2880.12217	0.05062
2878.83640	0.05055
2877.55063	0.05065
2876.26487	0.05082
2874.97910	0.05091
2873.69333	0.05087
2872.40756	0.05076
2871.12179	0.05067
2869.83602	0.05060
2868.55025	0.05048
2867.26448	0.05021
2865.97871	0.04984
2864.69295	0.04948
2863.40718	0.04925
2862.12141	0.04914
2860.83564	0.04902
2859.54987	0.04876
2858.26410	0.04840
2856.97833	0.04811
2855.69256	0.04804
2854.40680	0.04815
2853.12103	0.04822
2851.83526	0.04809
2850.54949	0.04771
2849.26372	0.04724
2847.97795	0.04681
2846.69218	0.04650
2845.40641	0.04631
2844.12064	0.04623
2842.83488	0.04621
2841.54911	0.04617
2840.26334	0.04600
2838.97757	0.04568
2837.69180	0.04524
2836.40603	0.04475
2835.12026	0.04422
2833.83449	0.04371
2832.54873	0.04334
2831.26296	0.04318
2829.97719	0.04318
2828.69142	0.04315
2827.40565	0.04293
2826.11988	0.04257
2824.83411	0.04226
2823.54834	0.04215
2822.26257	0.04221
2820.97681	0.04234
2819.69104	0.04245
2818.40527	0.04253
2817.11950	0.04251
2815.83373	0.04233
2814.54796	0.04192
2813.26219	0.04136
2811.97642	0.04086
2810.69066	0.04062
2809.40489	0.04073
2808.11912	0.04104
2806.83335	0.04129
2805.54758	0.04123
2804.26181	0.04086
2802.97604	0.04036
2801.69027	0.03996
2800.40450	0.03974
2799.11874	0.03966
2797.83297	0.03962
2796.54720	0.03958
2795.26143	0.03954
2793.97566	0.03952
2792.68989	0.03944
2791.40412	0.03926
2790.11835	0.03905
2788.83259	0.03895
2787.54682	0.03898
2786.26105	0.03904
2784.97528	0.03902
2783.68951	0.03891
2782.40374	0.03879
2781.11797	0.03869
2779.83220	0.03858
2778.54643	0.03844
2777.26067	0.03832
2775.97490	0.03826
2774.68913	0.03822
2773.40336	0.03811
2772.11759	0.03791
2770.83182	0.03771
2769.54605	0.03767
2768.26028	0.03781
2766.97452	0.03801
2765.68875	0.03813
2764.40298	0.03809
2763.11721	0.03797
2761.83144	0.03782
2760.54567	0.03766
2759.25990	0.03750
2757.97413	0.03740
2756.68836	0.03743
2755.40260	0.03752
2754.11683	0.03751
2752.83106	0.03735
2751.54529	0.03711
2750.25952	0.03695
2748.97375	0.03694
2747.68798	0.03698
2746.40221	0.03695
2745.11645	0.03685
2743.83068	0.03681
2742.54491	0.03690
2741.25914	0.03707
2739.97337	0.03719
2738.68760	0.03711
2737.40183	0.03684
2736.11606	0.03654
2734.83029	0.03642
2733.54453	0.03652
2732.25876	0.03671
2730.97299	0.03684
2729.68722	0.03682
2728.40145	0.03666
2727.11568	0.03636
2725.82991	0.03601
2724.54414	0.03577
2723.25838	0.03571
2721.97261	0.03579
2720.68684	0.03584
2719.40107	0.03571
2718.11530	0.03538
2716.82953	0.03501
2715.54376	0.03479
2714.25799	0.03483
2712.97222	0.03505
2711.68646	0.03520
2710.40069	0.03514
2709.11492	0.03491
2707.82915	0.03468
2706.54338	0.03462
2705.25761	0.03470
2703.97184	0.03479
2702.68607	0.03477
2701.40031	0.03466
2700.11454	0.03458
2698.82877	0.03459
2697.54300	0.03463
2696.25723	0.03465
2694.97146	0.03467
2693.68569	0.03469
2692.39992	0.03466
2691.11415	0.03452
2689.82839	0.03430
2688.54262	0.03416
2687.25685	0.03418
2685.97108	0.03426
2684.68531	0.03428
2683.39954	0.03420
2682.11377	0.03408
2680.82800	0.03398
2679.54224	0.03392
2678.25647	0.03391
2676.97070	0.03391
2675.68493	0.03389
2674.39916	0.03382
2673.11339	0.03373
2671.82762	0.03366
2670.54185	0.03359
2669.25608	0.03348
2667.97032	0.03334
2666.68455	0.03325
2665.39878	0.03329
2664.11301	0.03348
2662.82724	0.03374
2661.54147	0.03393
2660.25570	0.03396
2658.96993	0.03380
2657.68417	0.03350
2656.39840	0.03316
2655.11263	0.03290
2653.82686	0.03279
2652.54109	0.03281
2651.25532	0.03288
2649.96955	0.03292
2648.68378	0.03290
2647.39801	0.03281
2646.11225	0.03270
2644.82648	0.03262
2643.54071	0.03258
2642.25494	0.03245
2640.96917	0.03214
2639.68340	0.03170
2638.39763	0.03135
2637.11186	0.03123
2635.82609	0.03134
2634.54033	0.03154
2633.25456	0.03171
2631.96879	0.03177
2630.68302	0.03174
2629.39725	0.03166
2628.11148	0.03151
2626.82571	0.03126
2625.53994	0.03090
2624.25418	0.03049
2622.96841	0.03016
2621.68264	0.02998
2620.39687	0.02992
2619.11110	0.02985
2617.82533	0.02970
2616.53956	0.02959
2615.25379	0.02963
2613.96802	0.02975
2612.68226	0.02974
2611.39649	0.02952
2610.11072	0.02917
2608.82495	0.02892
2607.53918	0.02887
2606.25341	0.02898
2604.96764	0.02908
2603.68187	0.02906
2602.39611	0.02895
2601.11034	0.02894
2599.82457	0.02905
2598.53880	0.02912
2597.25303	0.02899
2595.96726	0.02873
2594.68149	0.02856
2593.39572	0.02850
2592.10995	0.02850
2590.82419	0.02852
2589.53842	0.02859
2588.25265	0.02868
2586.96688	0.02871
2585.68111	0.02874
2584.39534	0.02878
2583.10957	0.02874
2581.82380	0.02842
2580.53804	0.02783
2579.25227	0.02717
2577.96650	0.02677
2576.68073	0.02683
2575.39496	0.02727
2574.10919	0.02774
2572.82342	0.02787
2571.53765	0.02763
2570.25188	0.02728
2568.96612	0.02708
2567.68035	0.02700
2566.39458	0.02696
2565.10881	0.02695
2563.82304	0.02700
2562.53727	0.02704
2561.25150	0.02691
2559.96573	0.02661
2558.67997	0.02627
2557.39420	0.02605
2556.10843	0.02605
2554.82266	0.02622
2553.53689	0.02643
2552.25112	0.02652
2550.96535	0.02639
2549.67958	0.02615
2548.39381	0.02597
2547.10805	0.02597
2545.82228	0.02618
2544.53651	0.02655
2543.25074	0.02691
2541.96497	0.02709
2540.67920	0.02705
2539.39343	0.02693
2538.10766	0.02677
2536.82190	0.02649
2535.53613	0.02609
2534.25036	0.02579
2532.96459	0.02577
2531.67882	0.02590
2530.39305	0.02594
2529.10728	0.02579
2527.82151	0.02559
2526.53574	0.02554
2525.24998	0.02569
2523.96421	0.02597
2522.67844	0.02627
2521.39267	0.02639
2520.10690	0.02614
2518.82113	0.02557
2517.53536	0.02494
2516.24959	0.02453
2514.96383	0.02435
2513.67806	0.02435
2512.39229	0.02457
2511.10652	0.02504
2509.82075	0.02555
2508.53498	0.02573
2507.24921	0.02546
2505.96344	0.02502
2504.67767	0.02477
2503.39191	0.02481
2502.10614	0.02494
2500.82037	0.02492
2499.53460	0.02476
2498.24883	0.02462
2496.96306	0.02467
2495.67729	0.02487
2494.39152	0.02504
2493.10576	0.02502
2491.81999	0.02481
2490.53422	0.02451
2489.24845	0.02421
2487.96268	0.02400
2486.67691	0.02393
2485.39114	0.02399
2484.10537	0.02407
2482.81960	0.02410
2481.53384	0.02409
2480.24807	0.02410
2478.96230	0.02412
2477.67653	0.02410
2476.39076	0.02404
2475.10499	0.02400
2473.81922	0.02402
2472.53345	0.02404
2471.24769	0.02403
2469.96192	0.02408
2468.67615	0.02433
2467.39038	0.02468
2466.10461	0.02485
2464.81884	0.02468
2463.53307	0.02429
2462.24730	0.02391
2460.96153	0.02368
2459.67577	0.02357
2458.39000	0.02350
2457.10423	0.02340
2455.81846	0.02328
2454.53269	0.02322
2453.24692	0.02327
2451.96115	0.02341
2450.67538	0.02356
2449.38962	0.02366
2448.10385	0.02366
2446.81808	0.02358
2445.53231	0.02354
2444.24654	0.02361
2442.96077	0.02369
2441.67500	0.02361
2440.38923	0.02332
2439.10346	0.02299
2437.81770	0.02280
2436.53193	0.02278
2435.24616	0.02279
2433.96039	0.02268
2432.67462	0.02244
2431.38885	0.02219
2430.10308	0.02207
2428.81731	0.02211
2427.53155	0.02224
2426.24578	0.02235
2424.96001	0.02235
2423.67424	0.02217
2422.38847	0.02183
2421.10270	0.02145
2419.81693	0.02119
2418.53116	0.02113
2417.24539	0.02122
2415.95963	0.02137
2414.67386	0.02155
2413.38809	0.02180
2412.10232	0.02210
2410.81655	0.02232
2409.53078	0.02238
2408.24501	0.02234
2406.95924	0.02239
2405.67347	0.02261
2404.38771	0.02295
2403.10194	0.02327
2401.81617	0.02342
2400.53040	0.02324
2399.24463	0.02280
2397.95886	0.02223
2396.67309	0.02191
2395.38732	0.02201
2394.10156	0.02240
2392.81579	0.02272
2391.53002	0.02273
2390.24425	0.02246
2388.95848	0.02210
2387.67271	0.02192
2386.38694	0.02199
2385.10117	0.02217
2383.81540	0.02224
2382.52964	0.02214
2381.24387	0.02196
2379.95810	0.02185
2378.67233	0.02180
2377.38656	0.02176
2376.10079	0.02177
2374.81502	0.02187
2373.52925	0.02165
2372.24349	0.02164
2370.95772	0.02170
2369.67195	0.02169
2368.38618	0.02171
2367.10041	0.02184
2365.81464	0.02206
2364.52887	0.02228
2363.24310	0.02244
2361.95733	0.02255
2360.67157	0.02265
2359.38580	0.02270
2358.10003	0.02273
2356.81426	0.02278
2355.52849	0.02293
2354.24272	0.02317
2352.95695	0.02346
2351.67118	0.02360
2350.38542	0.02359
2349.09965	0.02346
2347.81388	0.02329
2346.52811	0.02324
2345.24234	0.02325
2343.95657	0.02322
2342.67080	0.02312
2341.38503	0.02293
2340.09926	0.02298
2338.81350	0.02303
2337.52773	0.02308
2336.24196	0.02339
2334.95619	0.02366
2333.67042	0.02371
2332.38465	0.02369
2331.09888	0.02374
2329.81311	0.02391
2328.52735	0.02423
2327.24158	0.02487
2325.95581	0.02546
2324.67004	0.02562
2323.38427	0.02531
2322.09850	0.02480
2320.81273	0.02413
2319.52696	0.02349
2318.24119	0.02296
2316.95543	0.02253
2315.66966	0.02225
2314.38389	0.02206
2313.09812	0.02195
2311.81235	0.02206
2310.52658	0.02225
2309.24081	0.02230
2307.95504	0.02225
2306.66928	0.02218
2305.38351	0.02222
2304.09774	0.02237
2302.81197	0.02244
2301.52620	0.02223
2300.24043	0.02170
2298.95466	0.02105
2297.66889	0.02053
2296.38312	0.02037
2295.09736	0.02063
2293.81159	0.02119
2292.52582	0.02178
2291.24005	0.02217
2289.95428	0.02218
2288.66851	0.02178
2287.38274	0.02112
2286.09697	0.02056
2284.81121	0.02033
2283.52544	0.02037
2282.23967	0.02043
2280.95390	0.02043
2279.66813	0.02053
2278.38236	0.02090
2277.09659	0.02140
2275.81082	0.02175
2274.52505	0.02176
2273.23929	0.02147
2271.95352	0.02100
2270.66775	0.02042
2269.38198	0.01978
2268.09621	0.01917
2266.81044	0.01871
2265.52467	0.01847
2264.23890	0.01838
2262.95314	0.01828
2261.66737	0.01809
2260.38160	0.01787
2259.09583	0.01777
2257.81006	0.01779
2256.52429	0.01776
2255.23852	0.01751
2253.95275	0.01711
2252.66698	0.01672
2251.38122	0.01645
2250.09545	0.01623
2248.80968	0.01603
2247.52391	0.01621
2246.23814	0.01651
2244.95237	0.01688
2243.66660	0.01732
2242.38083	0.01768
2241.09507	0.01770
2239.80930	0.01724
2238.52353	0.01653
2237.23776	0.01597
2235.95199	0.01576
2234.66622	0.01584
2233.38045	0.01602
2232.09468	0.01605
2230.80891	0.01574
2229.52315	0.01515
2228.23738	0.01455
2226.95161	0.01421
2225.66584	0.01419
2224.38007	0.01434
2223.09430	0.01442
2221.80853	0.01433
2220.52276	0.01414
2219.23700	0.01403
2217.95123	0.01410
2216.66546	0.01431
2215.37969	0.01445
2214.09392	0.01422
2212.80815	0.01361
2211.52238	0.01312
2210.23661	0.01327
2208.95084	0.01381
2207.66508	0.01389
2206.37931	0.01307
2205.09354	0.01188
2203.80777	0.01130
2202.52200	0.01177
2201.23623	0.01284
2199.95046	0.01378
2198.66469	0.01415
2197.37893	0.01388
2196.09316	0.01298
2194.80739	0.01158
2193.52162	0.01005
2192.23585	0.00896
2190.95008	0.00874
2189.66431	0.00941
2188.37854	0.01058
2187.09277	0.01161
2185.80701	0.01190
2184.52124	0.01137
2183.23547	0.01054
2181.94970	0.01006
2180.66393	0.01019
2179.37816	0.01084
2178.09239	0.01167
2176.80662	0.01228
2175.52085	0.01225
2174.23509	0.01152
2172.94932	0.01037
2171.66355	0.00924
2170.37778	0.00848
2169.09201	0.00822
2167.80624	0.00830
2166.52047	0.00839
2165.23470	0.00826
2163.94894	0.00794
2162.66317	0.00768
2161.37740	0.00773
2160.09163	0.00802
2158.80586	0.00810
2157.52009	0.00761
2156.23432	0.00692
2154.94855	0.00677
2153.66278	0.00736
2152.37702	0.00807
2151.09125	0.00825
2149.80548	0.00784
2148.51971	0.00725
2147.23394	0.00686
2145.94817	0.00683
2144.66240	0.00721
2143.37663	0.00788
2142.09087	0.00850
2140.80510	0.00883
2139.51933	0.00904
2138.23356	0.00948
2136.94779	0.01018
2135.66202	0.01071
2134.37625	0.01069
2133.09048	0.01022
2131.80471	0.00973
2130.51895	0.00945
2129.23318	0.00936
2127.94741	0.00939
2126.66164	0.00967
2125.37587	0.01023
2124.09010	0.01097
2122.80433	0.01171
2121.51856	0.01236
2120.23280	0.01285
2118.94703	0.01315
2117.66126	0.01322
2116.37549	0.01309
2115.08972	0.01280
2113.80395	0.01242
2112.51818	0.01219
2111.23241	0.01233
2109.94664	0.01273
2108.66088	0.01288
2107.37511	0.01238
2106.08934	0.01141
2104.80357	0.01054
2103.51780	0.01025
2102.23203	0.01048
2100.94626	0.01089
2099.66049	0.01136
2098.37473	0.01146
2097.08896	0.01129
2095.80319	0.01114
2094.51742	0.01113
2093.23165	0.01122
2091.94588	0.01134
2090.66011	0.01142
2089.37434	0.01149
2088.08857	0.01153
2086.80281	0.01155
2085.51704	0.01164
2084.23127	0.01191
2082.94550	0.01235
2081.65973	0.01274
2080.37396	0.01278
2079.08819	0.01245
2077.80242	0.01203
2076.51666	0.01176
2075.23089	0.01154
2073.94512	0.01121
2072.65935	0.01080
2071.37358	0.01048
2070.08781	0.01028
2068.80204	0.01007
2067.51627	0.00979
2066.23050	0.00946
2064.94474	0.00916
2063.65897	0.00887
2062.37320	0.00854
2061.08743	0.00813
2059.80166	0.00772
2058.51589	0.00749
2057.23012	0.00758
2055.94435	0.00795
2054.65859	0.00845
2053.37282	0.00891
2052.08705	0.00918
2050.80128	0.00920
2049.51551	0.00900
2048.22974	0.00879
2046.94397	0.00877
2045.65820	0.00891
2044.37243	0.00896
2043.08667	0.00849
2041.80090	0.00733
2040.51513	0.00582
2039.22936	0.00465
2037.94359	0.00421
2036.65782	0.00431
2035.37205	0.00447
2034.08628	0.00447
2032.80052	0.00455
2031.51475	0.00506
2030.22898	0.00605
2028.94321	0.00698
2027.65744	0.00722
2026.37167	0.00660
2025.08590	0.00563
2023.80013	0.00492
2022.51436	0.00466
2021.22860	0.00455
2019.94283	0.00425
2018.65706	0.00373
2017.37129	0.00331
2016.08552	0.00335
2014.79975	0.00394
2013.51398	0.00480
2012.22821	0.00545
2010.94245	0.00545
2009.65668	0.00469
2008.37091	0.00359
2007.08514	0.00288
2005.79937	0.00297
2004.51360	0.00372
2003.22783	0.00474
2001.94206	0.00578
2000.65629	0.00675
1999.37053	0.00745
1998.08476	0.00777
1996.79899	0.00790
1995.51322	0.00808
1994.22745	0.00817
1992.94168	0.00773
1991.65591	0.00667
1990.37014	0.00559
1989.08438	0.00525
1987.79861	0.00589
1986.51284	0.00702
1985.22707	0.00794
1983.94130	0.00842
1982.65553	0.00863
1981.36976	0.00878
1980.08399	0.00879
1978.79822	0.00858
1977.51246	0.00835
1976.22669	0.00828
1974.94092	0.00821
1973.65515	0.00783
1972.36938	0.00721
1971.08361	0.00687
1969.79784	0.00716
1968.51207	0.00783
1967.22631	0.00841
1965.94054	0.00869
1964.65477	0.00881
1963.36900	0.00892
1962.08323	0.00894
1960.79746	0.00880
1959.51169	0.00866
1958.22592	0.00869
1956.94015	0.00885
1955.65439	0.00900
1954.36862	0.00907
1953.08285	0.00919
1951.79708	0.00950
1950.51131	0.01000
1949.22554	0.01053
1947.93977	0.01092
1946.65400	0.01114
1945.36823	0.01127
1944.08247	0.01133
1942.79670	0.01127
1941.51093	0.01110
1940.22516	0.01093
1938.93939	0.01085
1937.65362	0.01077
1936.36785	0.01055
1935.08208	0.01019
1933.79632	0.00984
1932.51055	0.00965
1931.22478	0.00966
1929.93901	0.00982
1928.65324	0.01009
1927.36747	0.01046
1926.08170	0.01088
1924.79593	0.01124
1923.51016	0.01146
1922.22440	0.01160
1920.93863	0.01164
1919.65286	0.01151
1918.36709	0.01125
1917.08132	0.01105
1915.79555	0.01111
1914.50978	0.01139
1913.22401	0.01174
1911.93825	0.01200
1910.65248	0.01201
1909.36671	0.01174
1908.08094	0.01134
1906.79517	0.01110
1905.50940	0.01118
1904.22363	0.01152
1902.93786	0.01184
1901.65209	0.01195
1900.36633	0.01186
1899.08056	0.01168
1897.79479	0.01146
1896.50902	0.01121
1895.22325	0.01096
1893.93748	0.01090
1892.65171	0.01113
1891.36594	0.01154
1890.08018	0.01181
1888.79441	0.01175
1887.50864	0.01140
1886.22287	0.01107
1884.93710	0.01100
1883.65133	0.01117
1882.36556	0.01142
1881.07979	0.01164
1879.79402	0.01184
1878.50826	0.01201
1877.22249	0.01211
1875.93672	0.01211
1874.65095	0.01205
1873.36518	0.01197
1872.07941	0.01187
1870.79364	0.01175
1869.50787	0.01165
1868.22211	0.01165
1866.93634	0.01176
1865.65057	0.01192
1864.36480	0.01208
1863.07903	0.01212
1861.79326	0.01199
1860.50749	0.01174
1859.22172	0.01154
1857.93595	0.01149
1856.65019	0.01156
1855.36442	0.01171
1854.07865	0.01184
1852.79288	0.01188
1851.50711	0.01186
1850.22134	0.01187
1848.93557	0.01199
1847.64980	0.01217
1846.36404	0.01229
1845.07827	0.01234
1843.79250	0.01245
1842.50673	0.01261
1841.22096	0.01263
1839.93519	0.01238
1838.64942	0.01198
1837.36365	0.01163
1836.07788	0.01145
1834.79212	0.01144
1833.50635	0.01157
1832.22058	0.01178
1830.93481	0.01206
1829.64904	0.01243
1828.36327	0.01284
1827.07750	0.01316
1825.79173	0.01329
1824.50597	0.01327
1823.22020	0.01314
1821.93443	0.01292
1820.64866	0.01268
1819.36289	0.01251
1818.07712	0.01238
1816.79135	0.01226
1815.50558	0.01215
1814.21981	0.01212
1812.93405	0.01221
1811.64828	0.01242
1810.36251	0.01267
1809.07674	0.01287
1807.79097	0.01296
1806.50520	0.01293
1805.21943	0.01282
1803.93366	0.01269
1802.64790	0.01261
1801.36213	0.01259
1800.07636	0.01264
1798.79059	0.01272
1797.50482	0.01285
1796.21905	0.01301
1794.93328	0.01316
1793.64751	0.01323
1792.36174	0.01327
1791.07598	0.01332
1789.79021	0.01335
1788.50444	0.01335
1787.21867	0.01335
1785.93290	0.01338
1784.64713	0.01345
1783.36136	0.01353
1782.07559	0.01355
1780.78983	0.01353
1779.50406	0.01350
1778.21829	0.01348
1776.93252	0.01349
1775.64675	0.01350
1774.36098	0.01348
1773.07521	0.01352
1771.78944	0.01374
1770.50367	0.01406
1769.21791	0.01428
1767.93214	0.01435
1766.64637	0.01437
1765.36060	0.01433
1764.07483	0.01422
1762.78906	0.01409
1761.50329	0.01406
1760.21752	0.01411
1758.93176	0.01413
1757.64599	0.01410
1756.36022	0.01416
1755.07445	0.01431
1753.78868	0.01440
1752.50291	0.01435
1751.21714	0.01429
1749.93137	0.01434
1748.64560	0.01447
1747.35984	0.01459
1746.07407	0.01467
1744.78830	0.01471
1743.50253	0.01474
1742.21676	0.01475
1740.93099	0.01476
1739.64522	0.01482
1738.35945	0.01499
1737.07369	0.01513
1735.78792	0.01506
1734.50215	0.01493
1733.21638	0.01498
1731.93061	0.01517
1730.64484	0.01530
1729.35907	0.01536
1728.07330	0.01546
1726.78753	0.01562
1725.50177	0.01578
1724.21600	0.01598
1722.93023	0.01626
1721.64446	0.01662
1720.35869	0.01691
1719.07292	0.01709
1717.78715	0.01732
1716.50138	0.01770
1715.21561	0.01813
1713.92985	0.01846
1712.64408	0.01868
1711.35831	0.01891
1710.07254	0.01924
1708.78677	0.01971
1707.50100	0.02026
1706.21523	0.02088
1704.92946	0.02161
1703.64370	0.02236
1702.35793	0.02296
1701.07216	0.02349
1699.78639	0.02427
1698.50062	0.02517
1697.21485	0.02582
1695.92908	0.02631
1694.64331	0.02706
1693.35754	0.02804
1692.07178	0.02894
1690.78601	0.02974
1689.50024	0.03059
1688.21447	0.03147
1686.92870	0.03223
1685.64293	0.03286
1684.35716	0.03360
1683.07139	0.03457
1681.78563	0.03552
1680.49986	0.03632
1679.21409	0.03709
1677.92832	0.03785
1676.64255	0.03855
1675.35678	0.03925
1674.07101	0.04008
1672.78524	0.04096
1671.49947	0.04178
1670.21371	0.04255
1668.92794	0.04336
1667.64217	0.04422
1666.35640	0.04506
1665.07063	0.04580
1663.78486	0.04649
1662.49909	0.04715
1661.21332	0.04777
1659.92756	0.04833
1658.64179	0.04890
1657.35602	0.04957
1656.07025	0.05022
1654.78448	0.05060
1653.49871	0.05086
1652.21294	0.05130
1650.92717	0.05183
1649.64140	0.05209
1648.35564	0.05201
1647.06987	0.05191
1645.78410	0.05198
1644.49833	0.05211
1643.21256	0.05212
1641.92679	0.05197
1640.64102	0.05178
1639.35525	0.05163
1638.06949	0.05140
1636.78372	0.05104
1635.49795	0.05062
1634.21218	0.05025
1632.92641	0.04984
1631.64064	0.04935
1630.35487	0.04881
1629.06910	0.04828
1627.78333	0.04775
1626.49757	0.04718
1625.21180	0.04655
1623.92603	0.04590
1622.64026	0.04535
1621.35449	0.04492
1620.06872	0.04447
1618.78295	0.04388
1617.49718	0.04322
1616.21142	0.04271
1614.92565	0.04239
1613.63988	0.04211
1612.35411	0.04179
1611.06834	0.04146
1609.78257	0.04116
1608.49680	0.04087
1607.21103	0.04062
1605.92526	0.04042
1604.63950	0.04027
1603.35373	0.04017
1602.06796	0.04012
1600.78219	0.04011
1599.49642	0.04011
1598.21065	0.04012
1596.92488	0.04010
1595.63911	0.04010
1594.35335	0.04012
1593.06758	0.04019
1591.78181	0.04032
1590.49604	0.04052
1589.21027	0.04078
1587.92450	0.04106
1586.63873	0.04136
1585.35296	0.04162
1584.06719	0.04185
1582.78143	0.04204
1581.49566	0.04224
1580.20989	0.04252
1578.92412	0.04284
1577.63835	0.04312
1576.35258	0.04345
1575.06681	0.04398
1573.78104	0.04457
1572.49528	0.04498
1571.20951	0.04524
1569.92374	0.04553
1568.63797	0.04594
1567.35220	0.04635
1566.06643	0.04669
1564.78066	0.04702
1563.49489	0.04743
1562.20912	0.04781
1560.92336	0.04804
1559.63759	0.04825
1558.35182	0.04864
1557.06605	0.04911
1555.78028	0.04939
1554.49451	0.04950
1553.20874	0.04966
1551.92297	0.04987
1550.63721	0.05005
1549.35144	0.05020
1548.06567	0.05033
1546.77990	0.05043
1545.49413	0.05053
1544.20836	0.05069
1542.92259	0.05083
1541.63682	0.05088
1540.35105	0.05087
1539.06529	0.05098
1537.77952	0.05122
1536.49375	0.05139
1535.20798	0.05143
1533.92221	0.05150
1532.63644	0.05175
1531.35067	0.05211
1530.06490	0.05244
1528.77914	0.05276
1527.49337	0.05317
1526.20760	0.05374
1524.92183	0.05444
1523.63606	0.05516
1522.35029	0.05584
1521.06452	0.05663
1519.77875	0.05756
1518.49298	0.05847
1517.20722	0.05930
1515.92145	0.06015
1514.63568	0.06109
1513.34991	0.06208
1512.06414	0.06317
1510.77837	0.06438
1509.49260	0.06560
1508.20683	0.06668
1506.92107	0.06769
1505.63530	0.06881
1504.34953	0.06997
1503.06376	0.07097
1501.77799	0.07176
1500.49222	0.07245
1499.20645	0.07309
1497.92068	0.07365
1496.63491	0.07423
1495.34915	0.07494
1494.06338	0.07577
1492.77761	0.07659
1491.49184	0.07738
1490.20607	0.07825
1488.92030	0.07920
1487.63453	0.08017
1486.34876	0.08115
1485.06299	0.08217
1483.77723	0.08324
1482.49146	0.08433
1481.20569	0.08543
1479.91992	0.08650
1478.63415	0.08754
1477.34838	0.08858
1476.06261	0.08962
1474.77684	0.09058
1473.49108	0.09138
1472.20531	0.09209
1470.91954	0.09276
1469.63377	0.09335
1468.34800	0.09379
1467.06223	0.09407
1465.77646	0.09423
1464.49069	0.09436
1463.20492	0.09454
1461.91916	0.09483
1460.63339	0.09524
1459.34762	0.09572
1458.06185	0.09620
1456.77608	0.09676
1455.49031	0.09742
1454.20454	0.09803
1452.91877	0.09849
1451.63301	0.09891
1450.34724	0.09933
1449.06147	0.09971
1447.77570	0.09997
1446.48993	0.10008
1445.20416	0.10004
1443.91839	0.09985
1442.63262	0.09956
1441.34685	0.09926
1440.06109	0.09899
1438.77532	0.09878
1437.48955	0.09865
1436.20378	0.09870
1434.91801	0.09894
1433.63224	0.09928
1432.34647	0.09975
1431.06070	0.10046
1429.77494	0.10146
1428.48917	0.10269
1427.20340	0.10404
1425.91763	0.10544
1424.63186	0.10692
1423.34609	0.10849
1422.06032	0.11002
1420.77455	0.11141
1419.48878	0.11264
1418.20302	0.11379
1416.91725	0.11478
1415.63148	0.11553
1414.34571	0.11604
1413.05994	0.11635
1411.77417	0.11647
1410.48840	0.11641
1409.20263	0.11618
1407.91687	0.11573
1406.63110	0.11507
1405.34533	0.11423
1404.05956	0.11323
1402.77379	0.11207
1401.48802	0.11069
1400.20225	0.10910
1398.91648	0.10738
1397.63071	0.10556
1396.34495	0.10363
1395.05918	0.10158
1393.77341	0.09949
1392.48764	0.09743
1391.20187	0.09537
1389.91610	0.09328
1388.63033	0.09114
1387.34456	0.08899
1386.05880	0.08684
1384.77303	0.08465
1383.48726	0.08239
1382.20149	0.08010
1380.91572	0.07784
1379.62995	0.07563
1378.34418	0.07340
1377.05841	0.07110
1375.77264	0.06872
1374.48688	0.06633
1373.20111	0.06407
1371.91534	0.06199
1370.62957	0.06001
1369.34380	0.05804
1368.05803	0.05608
1366.77226	0.05416
1365.48649	0.05235
1364.20073	0.05067
1362.91496	0.04911
1361.62919	0.04767
1360.34342	0.04633
1359.05765	0.04507
1357.77188	0.04390
1356.48611	0.04280
1355.20034	0.04178
1353.91457	0.04084
1352.62881	0.03996
1351.34304	0.03914
1350.05727	0.03838
1348.77150	0.03768
1347.48573	0.03704
1346.19996	0.03646
1344.91419	0.03592
1343.62842	0.03541
1342.34266	0.03492
1341.05689	0.03444
1339.77112	0.03397
1338.48535	0.03354
1337.19958	0.03314
1335.91381	0.03276
1334.62804	0.03237
1333.34227	0.03197
1332.05650	0.03157
1330.77074	0.03118
1329.48497	0.03080
1328.19920	0.03042
1326.91343	0.03003
1325.62766	0.02964
1324.34189	0.02932
1323.05612	0.02909
1321.77035	0.02893
1320.48459	0.02876
1319.19882	0.02853
1317.91305	0.02821
1316.62728	0.02787
1315.34151	0.02757
1314.05574	0.02732
1312.76997	0.02706
1311.48420	0.02678
1310.19843	0.02646
1308.91267	0.02615
1307.62690	0.02589
1306.34113	0.02565
1305.05536	0.02542
1303.76959	0.02517
1302.48382	0.02492
1301.19805	0.02467
1299.91228	0.02443
1298.62652	0.02421
1297.34075	0.02400
1296.05498	0.02380
1294.76921	0.02364
1293.48344	0.02353
1292.19767	0.02344
1290.91190	0.02335
1289.62613	0.02325
1288.34036	0.02312
1287.05460	0.02299
1285.76883	0.02290
1284.48306	0.02285
1283.19729	0.02283
1281.91152	0.02278
1280.62575	0.02266
1279.33998	0.02249
1278.05421	0.02230
1276.76845	0.02215
1275.48268	0.02206
1274.19691	0.02200
1272.91114	0.02192
1271.62537	0.02183
1270.33960	0.02174
1269.05383	0.02169
1267.76806	0.02170
1266.48229	0.02174
1265.19653	0.02178
1263.91076	0.02179
1262.62499	0.02178
1261.33922	0.02171
1260.05345	0.02161
1258.76768	0.02150
1257.48191	0.02144
1256.19614	0.02143
1254.91037	0.02144
1253.62461	0.02143
1252.33884	0.02139
1251.05307	0.02135
1249.76730	0.02137
1248.48153	0.02142
1247.19576	0.02145
1245.90999	0.02141
1244.62422	0.02131
1243.33846	0.02117
1242.05269	0.02105
1240.76692	0.02095
1239.48115	0.02089
1238.19538	0.02083
1236.90961	0.02076
1235.62384	0.02067
1234.33807	0.02055
1233.05230	0.02043
1231.76654	0.02029
1230.48077	0.02014
1229.19500	0.01997
1227.90923	0.01981
1226.62346	0.01966
1225.33769	0.01950
1224.05192	0.01932
1222.76615	0.01911
1221.48039	0.01892
1220.19462	0.01876
1218.90885	0.01863
1217.62308	0.01849
1216.33731	0.01835
1215.05154	0.01821
1213.76577	0.01810
1212.48000	0.01805
1211.19423	0.01804
1209.90847	0.01808
1208.62270	0.01809
1207.33693	0.01806
1206.05116	0.01798
1204.76539	0.01790
1203.47962	0.01786
1202.19385	0.01785
1200.90808	0.01782
1199.62232	0.01778
1198.33655	0.01778
1197.05078	0.01776
1195.76501	0.01765
1194.47924	0.01747
1193.19347	0.01725
1191.90770	0.01706
1190.62193	0.01693
1189.33616	0.01687
1188.05040	0.01687
1186.76463	0.01690
1185.47886	0.01693
1184.19309	0.01693
1182.90732	0.01689
1181.62155	0.01680
1180.33578	0.01669
1179.05001	0.01660
1177.76425	0.01656
1176.47848	0.01655
1175.19271	0.01657
1173.90694	0.01667
1172.62117	0.01687
1171.33540	0.01711
1170.04963	0.01729
1168.76386	0.01738
1167.47809	0.01743
1166.19233	0.01754
1164.90656	0.01773
1163.62079	0.01796
1162.33502	0.01813
1161.04925	0.01823
1159.76348	0.01828
1158.47771	0.01838
1157.19194	0.01856
1155.90618	0.01882
1154.62041	0.01910
1153.33464	0.01936
1152.04887	0.01957
1150.76310	0.01976
1149.47733	0.02001
1148.19156	0.02039
1146.90579	0.02092
1145.62002	0.02154
1144.33426	0.02222
1143.04849	0.02294
1141.76272	0.02370
1140.47695	0.02453
1139.19118	0.02545
1137.90541	0.02647
1136.61964	0.02763
1135.33387	0.02891
1134.04811	0.03027
1132.76234	0.03171
1131.47657	0.03328
1130.19080	0.03503
1128.90503	0.03702
1127.61926	0.03926
1126.33349	0.04171
1125.04772	0.04433
1123.76195	0.04705
1122.47619	0.04984
1121.19042	0.05270
1119.90465	0.05563
1118.61888	0.05865
1117.33311	0.06173
1116.04734	0.06481
1114.76157	0.06788
1113.47580	0.07098
1112.19004	0.07407
1110.90427	0.07711
1109.61850	0.08005
1108.33273	0.08294
1107.04696	0.08586
1105.76119	0.08883
1104.47542	0.09177
1103.18965	0.09458
1101.90388	0.09725
1100.61812	0.09986
1099.33235	0.10246
1098.04658	0.10504
1096.76081	0.10751
1095.47504	0.10983
1094.18927	0.11198
1092.90350	0.11405
1091.61773	0.11612
1090.33197	0.11820
1089.04620	0.12027
1087.76043	0.12232
1086.47466	0.12437
1085.18889	0.12644
1083.90312	0.12851
1082.61735	0.13057
1081.33158	0.13259
1080.04581	0.13462
1078.76005	0.13671
1077.47428	0.13898
1076.18851	0.14147
1074.90274	0.14418
1073.61697	0.14701
1072.33120	0.14986
1071.04543	0.15274
1069.75966	0.15566
1068.47390	0.15866
1067.18813	0.16173
1065.90236	0.16484
1064.61659	0.16802
1063.33082	0.17128
1062.04505	0.17458
1060.75928	0.17785
1059.47351	0.18103
1058.18774	0.18413
1056.90198	0.18716
1055.61621	0.19017
1054.33044	0.19319
1053.04467	0.19624
1051.75890	0.19933
1050.47313	0.20241
1049.18736	0.20548
1047.90159	0.20856
1046.61583	0.21169
1045.33006	0.21485
1044.04429	0.21803
1042.75852	0.22123
1041.47275	0.22445
1040.18698	0.22768
1038.90121	0.23093
1037.61544	0.23419
1036.32967	0.23748
1035.04391	0.24080
1033.75814	0.24409
1032.47237	0.24722
1031.18660	0.25010
1029.90083	0.25269
1028.61506	0.25501
1027.32929	0.25714
1026.04352	0.25908
1024.75775	0.26083
1023.47199	0.26232
1022.18622	0.26350
1020.90045	0.26430
1019.61468	0.26463
1018.32891	0.26447
1017.04314	0.26390
1015.75737	0.26298
1014.47160	0.26175
1013.18584	0.26014
1011.90007	0.25805
1010.61430	0.25542
1009.32853	0.25225
1008.04276	0.24856
1006.75699	0.24435
1005.47122	0.23966
1004.18545	0.23451
1002.89968	0.22897
1001.61392	0.22313
1000.32815	0.21703
999.04238	0.21071
997.75661	0.20421
996.47084	0.19757
995.18507	0.19087
993.89930	0.18417
992.61353	0.17753
991.32777	0.17096
990.04200	0.16451
988.75623	0.15826
987.47046	0.15225
986.18469	0.14649
984.89892	0.14092
983.61315	0.13555
982.32738	0.13044
981.04161	0.12567
979.75585	0.12129
978.47008	0.11727
977.18431	0.11356
975.89854	0.11014
974.61277	0.10703
973.32700	0.10432
972.04123	0.10212
970.75546	0.10053
969.46970	0.09961
968.18393	0.09935
966.89816	0.09963
965.61239	0.10032
964.32662	0.10127
963.04085	0.10222
961.75508	0.10289
960.46931	0.10307
959.18354	0.10265
957.89778	0.10162
956.61201	0.09997
955.32624	0.09782
954.04047	0.09536
952.75470	0.09279
951.46893	0.09022
950.18316	0.08770
948.89739	0.08528
947.61163	0.08293
946.32586	0.08059
945.04009	0.07823
943.75432	0.07592
942.46855	0.07379
941.18278	0.07185
939.89701	0.07005
938.61124	0.06829
937.32547	0.06657
936.03971	0.06491
934.75394	0.06336
933.46817	0.06192
932.18240	0.06059
930.89663	0.05938
929.61086	0.05832
928.32509	0.05737
927.03932	0.05645
925.75356	0.05546
924.46779	0.05441
923.18202	0.05340
921.89625	0.05251
920.61048	0.05178
919.32471	0.05115
918.03894	0.05055
916.75317	0.04993
915.46740	0.04931
914.18164	0.04870
912.89587	0.04810
911.61010	0.04753
910.32433	0.04698
909.03856	0.04647
907.75279	0.04599
906.46702	0.04552
905.18125	0.04505
903.89549	0.04461
902.60972	0.04422
901.32395	0.04383
900.03818	0.04337
898.75241	0.04283
897.46664	0.04228
896.18087	0.04179
894.89510	0.04141
893.60933	0.04118
892.32357	0.04110
891.03780	0.04116
889.75203	0.04138
888.46626	0.04181
887.18049	0.04254
885.89472	0.04375
884.60895	0.04566
883.32318	0.04839
882.03742	0.05169
880.75165	0.05499
879.46588	0.05773
878.18011	0.05977
876.89434	0.06144
875.60857	0.06319
874.32280	0.06519
873.03703	0.06714
871.75126	0.06850
870.46550	0.06883
869.17973	0.06800
867.89396	0.06616
866.60819	0.06359
865.32242	0.06063
864.03665	0.05757
862.75088	0.05467
861.46511	0.05210
860.17935	0.04996
858.89358	0.04825
857.60781	0.04684
856.32204	0.04560
855.03627	0.04444
853.75050	0.04336
852.46473	0.04240
851.17896	0.04157
849.89319	0.04085
848.60743	0.04025
847.32166	0.03978
846.03589	0.03942
844.75012	0.03912
843.46435	0.03882
842.17858	0.03851
840.89281	0.03822
839.60704	0.03797
838.32128	0.03774
837.03551	0.03748
835.74974	0.03718
834.46397	0.03685
833.17820	0.03653
831.89243	0.03622
830.60666	0.03596
829.32089	0.03577
828.03512	0.03566
826.74936	0.03564
825.46359	0.03566
824.17782	0.03564
822.89205	0.03555
821.60628	0.03541
820.32051	0.03520
819.03474	0.03488
817.74897	0.03449
816.46321	0.03412
815.17744	0.03392
813.89167	0.03393
812.60590	0.03410
811.32013	0.03430
810.03436	0.03437
808.74859	0.03426
807.46282	0.03404
806.17705	0.03384
804.89129	0.03376
803.60552	0.03378
802.31975	0.03382
801.03398	0.03382
799.74821	0.03375
798.46244	0.03363
797.17667	0.03352
795.89090	0.03346
794.60513	0.03342
793.31937	0.03335
792.03360	0.03327
790.74783	0.03322
789.46206	0.03321
788.17629	0.03323
786.89052	0.03319
785.60475	0.03308
784.31898	0.03291
783.03322	0.03276
781.74745	0.03270
780.46168	0.03276
779.17591	0.03288
777.89014	0.03301
776.60437	0.03311
775.31860	0.03317
774.03283	0.03316
772.74706	0.03310
771.46130	0.03299
770.17553	0.03290
768.88976	0.03285
767.60399	0.03281
766.31822	0.03278
765.03245	0.03279
763.74668	0.03285
762.46091	0.03294
761.17515	0.03305
759.88938	0.03317
758.60361	0.03331
757.31784	0.03339
756.03207	0.03334
754.74630	0.03319
753.46053	0.03304
752.17476	0.03298
750.88899	0.03296
749.60323	0.03289
748.31746	0.03275
747.03169	0.03263
745.74592	0.03263
744.46015	0.03276
743.17438	0.03291
741.88861	0.03297
740.60284	0.03293
739.31708	0.03284
738.03131	0.03278
736.74554	0.03276
735.45977	0.03271
734.17400	0.03265
732.88823	0.03262
731.60246	0.03265
730.31669	0.03267
729.03092	0.03262
727.74516	0.03251
726.45939	0.03239
725.17362	0.03234
723.88785	0.03244
722.60208	0.03250
721.31631	0.03254
720.03054	0.03259
718.74477	0.03264
717.45901	0.03270
716.17324	0.03278
714.88747	0.03285
713.60170	0.03292
712.31593	0.03296
711.03016	0.03301
709.74439	0.03308
708.45862	0.03315
707.17285	0.03318
705.88709	0.03315
704.60132	0.03309
703.31555	0.03301
702.02978	0.03297
700.74401	0.03300
699.45824	0.03306
698.17247	0.03314
696.88670	0.03318
695.60094	0.03316
694.31517	0.03311
693.02940	0.03309
691.74363	0.03310
690.45786	0.03315
689.17209	0.03317
687.88632	0.03318
686.60055	0.03317
685.31478	0.03315
684.02902	0.03310
682.74325	0.03296
681.45748	0.03279
680.17171	0.03264
678.88594	0.03257
677.60017	0.03259
676.31440	0.03264
675.02863	0.03269
673.74287	0.03273
672.45710	0.03277
671.17133	0.03284
669.88556	0.03296
668.59979	0.03307
667.31402	0.03312
666.02825	0.03307
664.74248	0.03290
663.45671	0.03265
662.17095	0.03234
660.88518	0.03204
659.59941	0.03179
658.31364	0.03165
657.02787	0.03158
655.74210	0.03155
654.45633	0.03149
653.17056	0.03140
651.88480	0.03133
650.59903	0.03134
649.31326	0.03143
648.02749	0.03154
646.74172	0.03158
645.45595	0.03153
644.17018	0.03146
642.88441	0.03143
641.59864	0.03148
640.31288	0.03160
639.02711	0.03177
637.74134	0.03194
636.45557	0.03214
635.16980	0.03240
633.88403	0.03274
632.59826	0.03312
631.31249	0.03355
630.02673	0.03418
628.74096	0.03496
627.45519	0.03536
626.16942	0.03653
624.88365	0.03848
623.59788	0.04094
622.31211	0.04374
621.02634	0.04654
619.74057	0.04892
618.45481	0.05082
617.16904	0.05263
615.88327	0.05483
614.59750	0.05754
613.31173	0.06050
612.02596	0.06364
610.74019	0.06746
609.45442	0.07255
608.16866	0.07866
606.88289	0.08470
605.59712	0.08974
604.31135	0.09347
603.02558	0.09588
601.73981	0.09687
600.45404	0.09645
599.16827	0.09486
597.88250	0.09256
596.59674	0.09004
595.31097	0.08768
594.02520	0.08567
592.73943	0.08407
591.45366	0.08285
590.16789	0.08207
588.88212	0.08183
587.59635	0.08225
586.31059	0.08331
585.02482	0.08488
583.73905	0.08681
582.45328	0.08896
581.16751	0.09122
579.88174	0.09354
578.59597	0.09594
577.31020	0.09843
576.02443	0.10099
574.73867	0.10347
573.45290	0.10575
572.16713	0.10785
570.88136	0.11003
569.59559	0.11267
568.30982	0.11596
567.02405	0.11978
565.73828	0.12367
564.45251	0.12710
563.16675	0.12964
561.88098	0.13100
560.59521	0.13096
559.30944	0.12938
558.02367	0.12628
556.73790	0.12189
555.45213	0.11654
554.16636	0.11065
552.88060	0.10467
551.59483	0.09893
550.30906	0.09361
549.02329	0.08874
547.73752	0.08433
546.45175	0.08040
545.16598	0.07695
543.88021	0.07392
542.59444	0.07125
541.30868	0.06888
540.02291	0.06676
538.73714	0.06481
537.45137	0.06291
536.16560	0.06102
534.87983	0.05915
533.59406	0.05738
532.30829	0.05574
531.02253	0.05427
529.73676	0.05296
528.45099	0.05177
527.16522	0.05065
525.87945	0.04952
524.59368	0.04840
523.30791	0.04738
522.02214	0.04651
520.73637	0.04578
519.45061	0.04511
518.16484	0.04439
516.87907	0.04359
515.59330	0.04271
514.30753	0.04181
513.02176	0.04094
511.73599	0.04018
510.45022	0.03956
509.16446	0.03902
507.87869	0.03849
506.59292	0.03792
505.30715	0.03732
504.02138	0.03672
502.73561	0.03617
501.44984	0.03572
500.16407	0.03539
498.87830	0.03513
497.59254	0.03485
496.30677	0.03447
495.02100	0.03402
493.73523	0.03361
492.44946	0.03333
491.16369	0.03317
489.87792	0.03302
488.59215	0.03281
487.30639	0.03252
486.02062	0.03217
484.73485	0.03184
483.44908	0.03157
482.16331	0.03142
480.87754	0.03137
479.59177	0.03142
478.30600	0.03157
477.02023	0.03185
475.73447	0.03227
474.44870	0.03276
473.16293	0.03319
471.87716	0.03344
470.59139	0.03346
469.30562	0.03328
468.01985	0.03298
466.73408	0.03262
465.44832	0.03221
464.16255	0.03179
462.87678	0.03140
461.59101	0.03103
460.30524	0.03064
459.01947	0.03020
457.73370	0.02978
456.44793	0.02942
455.16216	0.02912
453.87640	0.02883
452.59063	0.02854
451.30486	0.02826
450.01909	0.02798
448.73332	0.02768
447.44755	0.02735
446.16178	0.02702
444.87601	0.02672
443.59025	0.02647
442.30448	0.02627
441.01871	0.02608
439.73294	0.02590
438.44717	0.02571
437.16140	0.02556
435.87563	0.02546
434.58986	0.02539
433.30409	0.02531
432.01833	0.02519
430.73256	0.02501
429.44679	0.02482
428.16102	0.02465
426.87525	0.02451
425.58948	0.02437
424.30371	0.02417
423.01794	0.02391
421.73218	0.02361
420.44641	0.02331
419.16064	0.02308
417.87487	0.02292
416.58910	0.02279
415.30333	0.02269
414.01756	0.02261
412.73179	0.02255
411.44602	0.02248
410.16026	0.02241
408.87449	0.02235
407.58872	0.02230
406.30295	0.02225
405.01718	0.02217
403.73141	0.02207
402.44564	0.02198
401.15987	0.02194
399.87411	0.02193
