3997.45528	0.02007
3996.16951	0.01914
3994.88374	0.01846
3993.59798	0.01834
3992.31221	0.01881
3991.02644	0.01952
3989.74067	0.01999
3988.45490	0.02007
3987.16913	0.02005
3985.88336	0.02024
3984.59759	0.02047
3983.31183	0.02029
3982.02606	0.01954
3980.74029	0.01870
3979.45452	0.01842
3978.16875	0.01891
3976.88298	0.01986
3975.59721	0.02079
3974.31144	0.02132
3973.02567	0.02120
3971.73991	0.02046
3970.45414	0.01947
3969.16837	0.01886
3967.88260	0.01900
3966.59683	0.01969
3965.31106	0.02031
3964.02529	0.02037
3962.73952	0.01988
3961.45376	0.01927
3960.16799	0.01903
3958.88222	0.01936
3957.59645	0.02012
3956.31068	0.02092
3955.02491	0.02141
3953.73914	0.02148
3952.45337	0.02129
3951.16760	0.02100
3949.88184	0.02077
3948.59607	0.02067
3947.31030	0.02066
3946.02453	0.02050
3944.73876	0.01998
3943.45299	0.01935
3942.16722	0.01911
3940.88145	0.01943
3939.59569	0.02001
3938.30992	0.02052
3937.02415	0.02085
3935.73838	0.02098
3934.45261	0.02092
3933.16684	0.02082
3931.88107	0.02092
3930.59530	0.02125
3929.30953	0.02166
3928.02377	0.02188
3926.73800	0.02171
3925.45223	0.02123
3924.16646	0.02072
3922.88069	0.02038
3921.59492	0.02013
3920.30915	0.01988
3919.02338	0.01953
3917.73762	0.01921
3916.45185	0.01913
3915.16608	0.01928
3913.88031	0.01928
3912.59454	0.01892
3911.30877	0.01842
3910.02300	0.01819
3908.73723	0.01845
3907.45146	0.01894
3906.16570	0.01935
3904.87993	0.01964
3903.59416	0.02002
3902.30839	0.02043
3901.02262	0.02057
3899.73685	0.02036
3898.45108	0.01995
3897.16531	0.01955
3895.87955	0.01923
3894.59378	0.01898
3893.30801	0.01877
3892.02224	0.01881
3890.73647	0.01946
3889.45070	0.02046
3888.16493	0.02084
3886.87916	0.02041
3885.59339	0.02011
3884.30763	0.02044
3883.02186	0.02081
3881.73609	0.02064
3880.45032	0.02014
3879.16455	0.01960
3877.87878	0.01874
3876.59301	0.01754
3875.30724	0.01682
3874.02148	0.01723
3872.73571	0.01817
3871.44994	0.01859
3870.16417	0.01872
3868.87840	0.01933
3867.59263	0.02013
3866.30686	0.02039
3865.02109	0.02022
3863.73532	0.02002
3862.44956	0.01964
3861.16379	0.01889
3859.87802	0.01816
3858.59225	0.01791
3857.30648	0.01796
3856.02071	0.01784
3854.73494	0.01784
3853.44917	0.01889
3852.16341	0.02085
3850.87764	0.02221
3849.59187	0.02212
3848.30610	0.02114
3847.02033	0.02008
3845.73456	0.01921
3844.44879	0.01859
3843.16302	0.01844
3841.87725	0.01882
3840.59149	0.01922
3839.30572	0.01916
3838.01995	0.01887
3836.73418	0.01891
3835.44841	0.01927
3834.16264	0.01956
3832.87687	0.01975
3831.59110	0.02005
3830.30534	0.02028
3829.01957	0.02003
3827.73380	0.01932
3826.44803	0.01883
3825.16226	0.01901
3823.87649	0.01942
3822.59072	0.01958
3821.30495	0.01981
3820.01918	0.02016
3818.73342	0.01977
3817.44765	0.01840
3816.16188	0.01753
3814.87611	0.01835
3813.59034	0.01996
3812.30457	0.02094
3811.01880	0.02097
3809.73303	0.02014
3808.44726	0.01867
3807.16150	0.01758
3805.87573	0.01786
3804.58996	0.01883
3803.30419	0.01921
3802.01842	0.01912
3800.73265	0.01961
3799.44688	0.02047
3798.16111	0.02057
3796.87535	0.01986
3795.58958	0.01917
3794.30381	0.01880
3793.01804	0.01851
3791.73227	0.01837
3790.44650	0.01864
3789.16073	0.01920
3787.87496	0.01958
3786.58919	0.01935
3785.30343	0.01867
3784.01766	0.01816
3782.73189	0.01813
3781.44612	0.01833
3780.16035	0.01846
3778.87458	0.01843
3777.58881	0.01827
3776.30304	0.01804
3775.01728	0.01803
3773.73151	0.01835
3772.44574	0.01860
3771.15997	0.01843
3769.87420	0.01816
3768.58843	0.01812
3767.30266	0.01810
3766.01689	0.01783
3764.73112	0.01756
3763.44536	0.01758
3762.15959	0.01781
3760.87382	0.01814
3759.58805	0.01857
3758.30228	0.01911
3757.01651	0.01977
3755.73074	0.02042
3754.44497	0.02078
3753.15921	0.02082
3751.87344	0.02079
3750.58767	0.02099
3749.30190	0.02168
3748.01613	0.02250
3746.73036	0.02217
3745.44459	0.02045
3744.15882	0.01906
3742.87305	0.01889
3741.58729	0.01881
3740.30152	0.01804
3739.01575	0.01701
3737.72998	0.01616
3736.44421	0.01567
3735.15844	0.01557
3733.87267	0.01572
3732.58690	0.01592
3731.30114	0.01631
3730.01537	0.01684
3728.72960	0.01702
3727.44383	0.01691
3726.15806	0.01689
3724.87229	0.01702
3723.58652	0.01717
3722.30075	0.01725
3721.01498	0.01730
3719.72922	0.01733
3718.44345	0.01727
3717.15768	0.01723
3715.87191	0.01723
3714.58614	0.01722
3713.30037	0.01738
3712.01460	0.01781
3710.72883	0.01843
3709.44307	0.01884
3708.15730	0.01857
3706.87153	0.01792
3705.58576	0.01742
3704.29999	0.01716
3703.01422	0.01706
3701.72845	0.01705
3700.44268	0.01715
3699.15691	0.01723
3697.87115	0.01715
3696.58538	0.01719
3695.29961	0.01768
3694.01384	0.01864
3692.72807	0.01956
3691.44230	0.01997
3690.15653	0.01964
3688.87076	0.01887
3687.58500	0.01833
3686.29923	0.01809
3685.01346	0.01759
3683.72769	0.01691
3682.44192	0.01649
3681.15615	0.01655
3679.87038	0.01697
3678.58461	0.01731
3677.29884	0.01721
3676.01308	0.01734
3674.72731	0.01850
3673.44154	0.01991
3672.15577	0.02009
3670.87000	0.01923
3669.58423	0.01866
3668.29846	0.01874
3667.01269	0.01884
3665.72693	0.01878
3664.44116	0.01886
3663.15539	0.01922
3661.86962	0.01947
3660.58385	0.01919
3659.29808	0.01827
3658.01231	0.01726
3656.72654	0.01717
3655.44077	0.01843
3654.15501	0.01999
3652.86924	0.02022
3651.58347	0.01879
3650.29770	0.01694
3649.01193	0.01601
3647.72616	0.01633
3646.44039	0.01735
3645.15462	0.01829
3643.86886	0.01865
3642.58309	0.01850
3641.29732	0.01821
3640.01155	0.01807
3638.72578	0.01809
3637.44001	0.01818
3636.15424	0.01835
3634.86847	0.01874
3633.58270	0.01927
3632.29694	0.01933
3631.01117	0.01839
3629.72540	0.01696
3628.43963	0.01631
3627.15386	0.01659
3625.86809	0.01678
3624.58232	0.01635
3623.29655	0.01596
3622.01079	0.01604
3620.72502	0.01655
3619.43925	0.01722
3618.15348	0.01794
3616.86771	0.01845
3615.58194	0.01835
3614.29617	0.01785
3613.01040	0.01762
3611.72463	0.01799
3610.43887	0.01848
3609.15310	0.01868
3607.86733	0.01870
3606.58156	0.01880
3605.29579	0.01885
3604.01002	0.01874
3602.72425	0.01855
3601.43848	0.01825
3600.15272	0.01788
3598.86695	0.01756
3597.58118	0.01743
3596.29541	0.01744
3595.00964	0.01783
3593.72387	0.01860
3592.43810	0.01919
3591.15233	0.01921
3589.86656	0.01871
3588.58080	0.01817
3587.29503	0.01827
3586.00926	0.01897
3584.72349	0.01960
3583.43772	0.01965
3582.15195	0.01923
3580.86618	0.01884
3579.58041	0.01895
3578.29464	0.01956
3577.00888	0.02027
3575.72311	0.02062
3574.43734	0.02040
3573.15157	0.01974
3571.86580	0.01901
3570.58003	0.01854
3569.29426	0.01854
3568.00849	0.01915
3566.72273	0.02018
3565.43696	0.02111
3564.15119	0.02154
3562.86542	0.02161
3561.57965	0.02175
3560.29388	0.02211
3559.00811	0.02247
3557.72234	0.02267
3556.43657	0.02272
3555.15081	0.02272
3553.86504	0.02269
3552.57927	0.02266
3551.29350	0.02270
3550.00773	0.02275
3548.72196	0.02272
3547.43619	0.02264
3546.15042	0.02259
3544.86466	0.02251
3543.57889	0.02229
3542.29312	0.02195
3541.00735	0.02164
3539.72158	0.02146
3538.43581	0.02137
3537.15004	0.02136
3535.86427	0.02142
3534.57850	0.02149
3533.29274	0.02143
3532.00697	0.02113
3530.72120	0.02074
3529.43543	0.02056
3528.14966	0.02080
3526.86389	0.02141
3525.57812	0.02208
3524.29235	0.02254
3523.00659	0.02271
3521.72082	0.02262
3520.43505	0.02230
3519.14928	0.02187
3517.86351	0.02160
3516.57774	0.02177
3515.29197	0.02247
3514.00620	0.02347
3512.72043	0.02435
3511.43467	0.02476
3510.14890	0.02460
3508.86313	0.02407
3507.57736	0.02342
3506.29159	0.02283
3505.00582	0.02235
3503.72005	0.02203
3502.43428	0.02192
3501.14852	0.02211
3499.86275	0.02261
3498.57698	0.02333
3497.29121	0.02402
3496.00544	0.02441
3494.71967	0.02435
3493.43390	0.02390
3492.14813	0.02333
3490.86236	0.02290
3489.57660	0.02267
3488.29083	0.02253
3487.00506	0.02244
3485.71929	0.02247
3484.43352	0.02269
3483.14775	0.02309
3481.86198	0.02358
3480.57621	0.02406
3479.29045	0.02443
3478.00468	0.02462
3476.71891	0.02469
3475.43314	0.02469
3474.14737	0.02462
3472.86160	0.02448
3471.57583	0.02426
3470.29006	0.02401
3469.00429	0.02382
3467.71853	0.02379
3466.43276	0.02396
3465.14699	0.02413
3463.86122	0.02413
3462.57545	0.02402
3461.28968	0.02407
3460.00391	0.02443
3458.71814	0.02485
3457.43238	0.02491
3456.14661	0.02443
3454.86084	0.02357
3453.57507	0.02279
3452.28930	0.02245
3451.00353	0.02265
3449.71776	0.02320
3448.43199	0.02384
3447.14622	0.02440
3445.86046	0.02478
3444.57469	0.02487
3443.28892	0.02468
3442.00315	0.02441
3440.71738	0.02431
3439.43161	0.02439
3438.14584	0.02444
3436.86007	0.02428
3435.57431	0.02392
3434.28854	0.02350
3433.00277	0.02321
3431.71700	0.02312
3430.43123	0.02329
3429.14546	0.02366
3427.85969	0.02416
3426.57392	0.02464
3425.28815	0.02491
3424.00239	0.02483
3422.71662	0.02448
3421.43085	0.02411
3420.14508	0.02395
3418.85931	0.02404
3417.57354	0.02422
3416.28777	0.02440
3415.00200	0.02462
3413.71624	0.02494
3412.43047	0.02531
3411.14470	0.02554
3409.85893	0.02553
3408.57316	0.02531
3407.28739	0.02501
3406.00162	0.02473
3404.71585	0.02456
3403.43008	0.02459
3402.14432	0.02483
3400.85855	0.02516
3399.57278	0.02542
3398.28701	0.02559
3397.00124	0.02580
3395.71547	0.02609
3394.42970	0.02639
3393.14393	0.02655
3391.85817	0.02655
3390.57240	0.02647
3389.28663	0.02636
3388.00086	0.02619
3386.71509	0.02589
3385.42932	0.02546
3384.14355	0.02509
3382.85778	0.02502
3381.57201	0.02531
3380.28625	0.02574
3379.00048	0.02596
3377.71471	0.02586
3376.42894	0.02561
3375.14317	0.02546
3373.85740	0.02548
3372.57163	0.02555
3371.28586	0.02563
3370.00010	0.02580
3368.71433	0.02603
3367.42856	0.02611
3366.14279	0.02586
3364.85702	0.02541
3363.57125	0.02504
3362.28548	0.02491
3360.99971	0.02497
3359.71394	0.02517
3358.42818	0.02558
3357.14241	0.02614
3355.85664	0.02660
3354.57087	0.02678
3353.28510	0.02680
3351.99933	0.02686
3350.71356	0.02690
3349.42779	0.02673
3348.14202	0.02639
3346.85626	0.02616
3345.57049	0.02619
3344.28472	0.02637
3342.99895	0.02657
3341.71318	0.02683
3340.42741	0.02720
3339.14164	0.02762
3337.85587	0.02787
3336.57011	0.02776
3335.28434	0.02728
3333.99857	0.02670
3332.71280	0.02639
3331.42703	0.02658
3330.14126	0.02714
3328.85549	0.02770
3327.56972	0.02796
3326.28395	0.02787
3324.99819	0.02761
3323.71242	0.02736
3322.42665	0.02720
3321.14088	0.02714
3319.85511	0.02720
3318.56934	0.02735
3317.28357	0.02741
3315.99780	0.02721
3314.71204	0.02679
3313.42627	0.02635
3312.14050	0.02612
3310.85473	0.02611
3309.56896	0.02613
3308.28319	0.02608
3306.99742	0.02612
3305.71165	0.02650
3304.42588	0.02717
3303.14012	0.02771
3301.85435	0.02778
3300.56858	0.02746
3299.28281	0.02713
3297.99704	0.02703
3296.71127	0.02710
3295.42550	0.02714
3294.13973	0.02704
3292.85397	0.02691
3291.56820	0.02688
3290.28243	0.02695
3288.99666	0.02704
3287.71089	0.02713
3286.42512	0.02731
3285.13935	0.02761
3283.85358	0.02793
3282.56781	0.02810
3281.28205	0.02806
3279.99628	0.02784
3278.71051	0.02753
3277.42474	0.02726
3276.13897	0.02714
3274.85320	0.02724
3273.56743	0.02756
3272.28166	0.02804
3270.99590	0.02854
3269.71013	0.02885
3268.42436	0.02894
3267.13859	0.02895
3265.85282	0.02901
3264.56705	0.02905
3263.28128	0.02888
3261.99551	0.02843
3260.70974	0.02787
3259.42398	0.02742
3258.13821	0.02721
3256.85244	0.02719
3255.56667	0.02729
3254.28090	0.02743
3252.99513	0.02757
3251.70936	0.02766
3250.42359	0.02758
3249.13783	0.02729
3247.85206	0.02688
3246.56629	0.02659
3245.28052	0.02670
3243.99475	0.02721
3242.70898	0.02785
3241.42321	0.02826
3240.13744	0.02833
3238.85167	0.02822
3237.56591	0.02818
3236.28014	0.02829
3234.99437	0.02839
3233.70860	0.02830
3232.42283	0.02799
3231.13706	0.02757
3229.85129	0.02722
3228.56552	0.02705
3227.27976	0.02705
3225.99399	0.02714
3224.70822	0.02723
3223.42245	0.02727
3222.13668	0.02729
3220.85091	0.02733
3219.56514	0.02735
3218.27937	0.02731
3216.99360	0.02727
3215.70784	0.02736
3214.42207	0.02764
3213.13630	0.02798
3211.85053	0.02818
3210.56476	0.02810
3209.27899	0.02780
3207.99322	0.02748
3206.70745	0.02734
3205.42169	0.02746
3204.13592	0.02775
3202.85015	0.02804
3201.56438	0.02821
3200.27861	0.02816
3198.99284	0.02791
3197.70707	0.02754
3196.42130	0.02728
3195.13553	0.02737
3193.84977	0.02785
3192.56400	0.02850
3191.27823	0.02895
3189.99246	0.02894
3188.70669	0.02848
3187.42092	0.02781
3186.13515	0.02722
3184.84938	0.02682
3183.56362	0.02652
3182.27785	0.02617
3180.99208	0.02577
3179.70631	0.02557
3178.42054	0.02580
3177.13477	0.02637
3175.84900	0.02691
3174.56323	0.02714
3173.27746	0.02716
3171.99170	0.02720
3170.70593	0.02737
3169.42016	0.02752
3168.13439	0.02755
3166.84862	0.02745
3165.56285	0.02725
3164.27708	0.02691
3162.99131	0.02648
3161.70555	0.02613
3160.41978	0.02607
3159.13401	0.02626
3157.84824	0.02649
3156.56247	0.02653
3155.27670	0.02635
3153.99093	0.02602
3152.70516	0.02567
3151.41939	0.02541
3150.13363	0.02520
3148.84786	0.02501
3147.56209	0.02484
3146.27632	0.02478
3144.99055	0.02486
3143.70478	0.02499
3142.41901	0.02507
3141.13324	0.02513
3139.84748	0.02525
3138.56171	0.02546
3137.27594	0.02564
3135.99017	0.02575
3134.70440	0.02583
3133.41863	0.02590
3132.13286	0.02588
3130.84709	0.02571
3129.56132	0.02546
3128.27556	0.02537
3126.98979	0.02558
3125.70402	0.02602
3124.41825	0.02639
3123.13248	0.02638
3121.84671	0.02597
3120.56094	0.02543
3119.27517	0.02501
3117.98940	0.02482
3116.70364	0.02481
3115.41787	0.02492
3114.13210	0.02509
3112.84633	0.02521
3111.56056	0.02523
3110.27479	0.02521
3108.98902	0.02526
3107.70325	0.02543
3106.41749	0.02569
3105.13172	0.02600
3103.84595	0.02624
3102.56018	0.02629
3101.27441	0.02611
3099.98864	0.02587
3098.70287	0.02575
3097.41710	0.02579
3096.13133	0.02591
3094.84557	0.02599
3093.55980	0.02597
3092.27403	0.02579
3090.98826	0.02545
3089.70249	0.02508
3088.41672	0.02484
3087.13095	0.02483
3085.84518	0.02499
3084.55942	0.02519
3083.27365	0.02535
3081.98788	0.02539
3080.70211	0.02524
3079.41634	0.02496
3078.13057	0.02479
3076.84480	0.02489
3075.55903	0.02521
3074.27326	0.02553
3072.98750	0.02570
3071.70173	0.02566
3070.41596	0.02545
3069.13019	0.02520
3067.84442	0.02503
3066.55865	0.02505
3065.27288	0.02515
3063.98711	0.02518
3062.70135	0.02510
3061.41558	0.02502
3060.12981	0.02504
3058.84404	0.02515
3057.55827	0.02527
3056.27250	0.02539
3054.98673	0.02550
3053.70096	0.02545
3052.41519	0.02512
3051.12943	0.02454
3049.84366	0.02395
3048.55789	0.02363
3047.27212	0.02373
3045.98635	0.02413
3044.70058	0.02458
3043.41481	0.02480
3042.12904	0.02470
3040.84328	0.02441
3039.55751	0.02417
3038.27174	0.02412
3036.98597	0.02425
3035.70020	0.02446
3034.41443	0.02467
3033.12866	0.02481
3031.84289	0.02486
3030.55712	0.02477
3029.27136	0.02453
3027.98559	0.02423
3026.69982	0.02407
3025.41405	0.02414
3024.12828	0.02430
3022.84251	0.02432
3021.55674	0.02412
3020.27097	0.02383
3018.98521	0.02357
3017.69944	0.02335
3016.41367	0.02315
3015.12790	0.02302
3013.84213	0.02305
3012.55636	0.02324
3011.27059	0.02347
3009.98482	0.02363
3008.69905	0.02373
3007.41329	0.02383
3006.12752	0.02391
3004.84175	0.02391
3003.55598	0.02376
3002.27021	0.02346
3000.98444	0.02313
2999.69867	0.02293
2998.41290	0.02301
2997.12714	0.02334
2995.84137	0.02371
2994.55560	0.02389
2993.26983	0.02386
2991.98406	0.02373
2990.69829	0.02364
2989.41252	0.02369
2988.12675	0.02388
2986.84098	0.02409
2985.55522	0.02417
2984.26945	0.02399
2982.98368	0.02358
2981.69791	0.02315
2980.41214	0.02289
2979.12637	0.02289
2977.84060	0.02307
2976.55483	0.02329
2975.26907	0.02346
2973.98330	0.02355
2972.69753	0.02353
2971.41176	0.02341
2970.12599	0.02326
2968.84022	0.02320
2967.55445	0.02324
2966.26868	0.02331
2964.98291	0.02329
2963.69715	0.02312
2962.41138	0.02287
2961.12561	0.02270
2959.83984	0.02275
2958.55407	0.02295
2957.26830	0.02317
2955.98253	0.02329
2954.69676	0.02332
2953.41100	0.02336
2952.12523	0.02348
2950.83946	0.02370
2949.55369	0.02396
2948.26792	0.02415
2946.98215	0.02423
2945.69638	0.02423
2944.41061	0.02413
2943.12484	0.02381
2941.83908	0.02326
2940.55331	0.02263
2939.26754	0.02210
2937.98177	0.02172
2936.69600	0.02139
2935.41023	0.02109
2934.12446	0.02090
2932.83869	0.02087
2931.55293	0.02091
2930.26716	0.02087
2928.98139	0.02066
2927.69562	0.02029
2926.40985	0.01989
2925.12408	0.01956
2923.83831	0.01934
2922.55254	0.01921
2921.26677	0.01918
2919.98101	0.01923
2918.69524	0.01931
2917.40947	0.01937
2916.12370	0.01949
2914.83793	0.01980
2913.55216	0.02033
2912.26639	0.02099
2910.98062	0.02157
2909.69486	0.02190
2908.40909	0.02198
2907.12332	0.02188
2905.83755	0.02166
2904.55178	0.02141
2903.26601	0.02127
2901.98024	0.02142
2900.69447	0.02183
2899.40870	0.02219
2898.12294	0.02224
2896.83717	0.02208
2895.55140	0.02201
2894.26563	0.02221
2892.97986	0.02253
2891.69409	0.02278
2890.40832	0.02287
2889.12255	0.02283
2887.83678	0.02268
2886.55102	0.02243
2885.26525	0.02220
2883.97948	0.02213
2882.69371	0.02225
2881.40794	0.02247
2880.12217	0.02267
2878.83640	0.02281
2877.55063	0.02285
2876.26487	0.02278
2874.97910	0.02261
2873.69333	0.02237
2872.40756	0.02212
2871.12179	0.02192
2869.83602	0.02177
2868.55025	0.02160
2867.26448	0.02137
2865.97871	0.02109
2864.69295	0.02087
2863.40718	0.02077
2862.12141	0.02071
2860.83564	0.02055
2859.54987	0.02020
2858.26410	0.01976
2856.97833	0.01935
2855.69256	0.01901
2854.40680	0.01869
2853.12103	0.01838
2851.83526	0.01819
2850.54949	0.01822
2849.26372	0.01856
2847.97795	0.01911
2846.69218	0.01974
2845.40641	0.02033
2844.12064	0.02086
2842.83488	0.02128
2841.54911	0.02148
2840.26334	0.02142
2838.97757	0.02125
2837.69180	0.02115
2836.40603	0.02115
2835.12026	0.02116
2833.83449	0.02112
2832.54873	0.02110
2831.26296	0.02119
2829.97719	0.02139
2828.69142	0.02150
2827.40565	0.02136
2826.11988	0.02099
2824.83411	0.02054
2823.54834	0.02022
2822.26257	0.02010
2820.97681	0.02018
2819.69104	0.02040
2818.40527	0.02067
2817.11950	0.02082
2815.83373	0.02080
2814.54796	0.02069
2813.26219	0.02063
2811.97642	0.02065
2810.69066	0.02064
2809.40489	0.02053
2808.11912	0.02037
2806.83335	0.02027
2805.54758	0.02026
2804.26181	0.02034
2802.97604	0.02046
2801.69027	0.02058
2800.40450	0.02063
2799.11874	0.02054
2797.83297	0.02032
2796.54720	0.02002
2795.26143	0.01981
2793.97566	0.01981
2792.68989	0.02000
2791.40412	0.02022
2790.11835	0.02027
2788.83259	0.02009
2787.54682	0.01979
2786.26105	0.01954
2784.97528	0.01946
2783.68951	0.01956
2782.40374	0.01973
2781.11797	0.01989
2779.83220	0.01999
2778.54643	0.02007
2777.26067	0.02015
2775.97490	0.02024
2774.68913	0.02033
2773.40336	0.02037
2772.11759	0.02033
2770.83182	0.02023
2769.54605	0.02016
2768.26028	0.02016
2766.97452	0.02018
2765.68875	0.02014
2764.40298	0.01998
2763.11721	0.01976
2761.83144	0.01960
2760.54567	0.01953
2759.25990	0.01945
2757.97413	0.01927
2756.68836	0.01902
2755.40260	0.01887
2754.11683	0.01896
2752.83106	0.01922
2751.54529	0.01946
2750.25952	0.01955
2748.97375	0.01947
2747.68798	0.01931
2746.40221	0.01913
2745.11645	0.01900
2743.83068	0.01896
2742.54491	0.01900
2741.25914	0.01907
2739.97337	0.01911
2738.68760	0.01904
2737.40183	0.01882
2736.11606	0.01851
2734.83029	0.01828
2733.54453	0.01827
2732.25876	0.01849
2730.97299	0.01877
2729.68722	0.01897
2728.40145	0.01902
2727.11568	0.01896
2725.82991	0.01884
2724.54414	0.01874
2723.25838	0.01867
2721.97261	0.01866
2720.68684	0.01870
2719.40107	0.01883
2718.11530	0.01900
2716.82953	0.01909
2715.54376	0.01902
2714.25799	0.01882
2712.97222	0.01864
2711.68646	0.01863
2710.40069	0.01877
2709.11492	0.01891
2707.82915	0.01887
2706.54338	0.01867
2705.25761	0.01843
2703.97184	0.01831
2702.68607	0.01832
2701.40031	0.01839
2700.11454	0.01844
2698.82877	0.01848
2697.54300	0.01852
2696.25723	0.01857
2694.97146	0.01864
2693.68569	0.01866
2692.39992	0.01855
2691.11415	0.01834
2689.82839	0.01815
2688.54262	0.01810
2687.25685	0.01819
2685.97108	0.01832
2684.68531	0.01839
2683.39954	0.01836
2682.11377	0.01830
2680.82800	0.01830
2679.54224	0.01842
2678.25647	0.01860
2676.97070	0.01873
2675.68493	0.01873
2674.39916	0.01856
2673.11339	0.01831
2671.82762	0.01810
2670.54185	0.01804
2669.25608	0.01810
2667.97032	0.01815
2666.68455	0.01814
2665.39878	0.01810
2664.11301	0.01808
2662.82724	0.01808
2661.54147	0.01809
2660.25570	0.01814
2658.96993	0.01828
2657.68417	0.01847
2656.39840	0.01858
2655.11263	0.01854
2653.82686	0.01838
2652.54109	0.01823
2651.25532	0.01820
2649.96955	0.01826
2648.68378	0.01829
2647.39801	0.01820
2646.11225	0.01799
2644.82648	0.01775
2643.54071	0.01756
2642.25494	0.01750
2640.96917	0.01754
2639.68340	0.01757
2638.39763	0.01751
2637.11186	0.01737
2635.82609	0.01720
2634.54033	0.01703
2633.25456	0.01691
2631.96879	0.01689
2630.68302	0.01699
2629.39725	0.01710
2628.11148	0.01709
2626.82571	0.01691
2625.53994	0.01667
2624.25418	0.01655
2622.96841	0.01665
2621.68264	0.01687
2620.39687	0.01696
2619.11110	0.01674
2617.82533	0.01632
2616.53956	0.01598
2615.25379	0.01593
2613.96802	0.01618
2612.68226	0.01653
2611.39649	0.01679
2610.11072	0.01686
2608.82495	0.01682
2607.53918	0.01683
2606.25341	0.01697
2604.96764	0.01710
2603.68187	0.01700
2602.39611	0.01661
2601.11034	0.01610
2599.82457	0.01572
2598.53880	0.01558
2597.25303	0.01556
2595.96726	0.01546
2594.68149	0.01518
2593.39572	0.01476
2592.10995	0.01441
2590.82419	0.01434
2589.53842	0.01460
2588.25265	0.01498
2586.96688	0.01522
2585.68111	0.01522
2584.39534	0.01510
2583.10957	0.01502
2581.82380	0.01503
2580.53804	0.01506
2579.25227	0.01505
2577.96650	0.01503
2576.68073	0.01510
2575.39496	0.01525
2574.10919	0.01527
2572.82342	0.01494
2571.53765	0.01425
2570.25188	0.01349
2568.96612	0.01297
2567.68035	0.01290
2566.39458	0.01321
2565.10881	0.01372
2563.82304	0.01422
2562.53727	0.01459
2561.25150	0.01485
2559.96573	0.01504
2558.67997	0.01512
2557.39420	0.01498
2556.10843	0.01460
2554.82266	0.01412
2553.53689	0.01376
2552.25112	0.01367
2550.96535	0.01376
2549.67958	0.01385
2548.39381	0.01386
2547.10805	0.01386
2545.82228	0.01395
2544.53651	0.01405
2543.25074	0.01406
2541.96497	0.01400
2540.67920	0.01404
2539.39343	0.01428
2538.10766	0.01460
2536.82190	0.01473
2535.53613	0.01452
2534.25036	0.01409
2532.96459	0.01377
2531.67882	0.01376
2530.39305	0.01402
2529.10728	0.01436
2527.82151	0.01465
2526.53574	0.01480
2525.24998	0.01475
2523.96421	0.01446
2522.67844	0.01405
2521.39267	0.01371
2520.10690	0.01364
2518.82113	0.01376
2517.53536	0.01383
2516.24959	0.01369
2514.96383	0.01345
2513.67806	0.01339
2512.39229	0.01359
2511.10652	0.01389
2509.82075	0.01406
2508.53498	0.01403
2507.24921	0.01389
2505.96344	0.01383
2504.67767	0.01392
2503.39191	0.01405
2502.10614	0.01404
2500.82037	0.01385
2499.53460	0.01359
2498.24883	0.01342
2496.96306	0.01340
2495.67729	0.01350
2494.39152	0.01360
2493.10576	0.01356
2491.81999	0.01336
2490.53422	0.01305
2489.24845	0.01279
2487.96268	0.01270
2486.67691	0.01283
2485.39114	0.01312
2484.10537	0.01349
2482.81960	0.01378
2481.53384	0.01383
2480.24807	0.01363
2478.96230	0.01335
2477.67653	0.01323
2476.39076	0.01337
2475.10499	0.01371
2473.81922	0.01421
2472.53345	0.01476
2471.24769	0.01517
2469.96192	0.01524
2468.67615	0.01496
2467.39038	0.01457
2466.10461	0.01426
2464.81884	0.01408
2463.53307	0.01396
2462.24730	0.01390
2460.96153	0.01394
2459.67577	0.01405
2458.39000	0.01415
2457.10423	0.01423
2455.81846	0.01429
2454.53269	0.01431
2453.24692	0.01415
2451.96115	0.01377
2450.67538	0.01330
2449.38962	0.01295
2448.10385	0.01280
2446.81808	0.01287
2445.53231	0.01313
2444.24654	0.01352
2442.96077	0.01384
2441.67500	0.01388
2440.38923	0.01364
2439.10346	0.01333
2437.81770	0.01309
2436.53193	0.01295
2435.24616	0.01290
2433.96039	0.01300
2432.67462	0.01322
2431.38885	0.01342
2430.10308	0.01349
2428.81731	0.01336
2427.53155	0.01308
2426.24578	0.01276
2424.96001	0.01254
2423.67424	0.01251
2422.38847	0.01266
2421.10270	0.01288
2419.81693	0.01312
2418.53116	0.01337
2417.24539	0.01367
2415.95963	0.01399
2414.67386	0.01417
2413.38809	0.01402
2412.10232	0.01357
2410.81655	0.01310
2409.53078	0.01288
2408.24501	0.01290
2406.95924	0.01299
2405.67347	0.01300
2404.38771	0.01290
2403.10194	0.01272
2401.81617	0.01249
2400.53040	0.01229
2399.24463	0.01277
2397.95886	0.01315
2396.67309	0.01319
2395.38732	0.01302
2394.10156	0.01268
2392.81579	0.01219
2391.53002	0.01164
2390.24425	0.01115
2388.95848	0.01078
2387.67271	0.01046
2386.38694	0.01017
2385.10117	0.00994
2383.81540	0.00988
2382.52964	0.00998
2381.24387	0.01012
2379.95810	0.01024
2378.67233	0.01021
2377.38656	0.00987
2376.10079	0.00961
2374.81502	0.00956
2373.52925	0.00957
2372.24349	0.00968
2370.95772	0.00962
2369.67195	0.00973
2368.38618	0.00979
2367.10041	0.00901
2365.81464	0.00783
2364.52887	0.00732
2363.24310	0.00695
2361.95733	0.00591
2360.67157	0.00489
2359.38580	0.00517
2358.10003	0.00611
2356.81426	0.00682
2355.52849	0.00726
2354.24272	0.00741
2352.95695	0.00733
2351.67118	0.00615
2350.38542	0.00332
2349.09965	0.00155
2347.81388	0.00355
2346.52811	0.00722
2345.24234	0.00902
2343.95657	0.00894
2342.67080	0.00896
2341.38503	0.00896
2340.09926	0.00820
2338.81350	0.00717
2337.52773	0.00617
2336.24196	0.00582
2334.95619	0.00587
2333.67042	0.00618
2332.38465	0.00729
2331.09888	0.00851
2329.81311	0.00916
2328.52735	0.00975
2327.24158	0.00998
2325.95581	0.00998
2324.67004	0.01046
2323.38427	0.01102
2322.09850	0.01138
2320.81273	0.01179
2319.52696	0.01186
2318.24119	0.01153
2316.95543	0.01141
2315.66966	0.01169
2314.38389	0.01209
2313.09812	0.01217
2311.81235	0.01203
2310.52658	0.01186
2309.24081	0.01172
2307.95504	0.01175
2306.66928	0.01188
2305.38351	0.01187
2304.09774	0.01176
2302.81197	0.01167
2301.52620	0.01163
2300.24043	0.01150
2298.95466	0.01134
2297.66889	0.01124
2296.38312	0.01126
2295.09736	0.01133
2293.81159	0.01132
2292.52582	0.01121
2291.24005	0.01115
2289.95428	0.01123
2288.66851	0.01143
2287.38274	0.01167
2286.09697	0.01186
2284.81121	0.01197
2283.52544	0.01211
2282.23967	0.01236
2280.95390	0.01270
2279.66813	0.01298
2278.38236	0.01295
2277.09659	0.01249
2275.81082	0.01166
2274.52505	0.01074
2273.23929	0.01009
2271.95352	0.00993
2270.66775	0.01027
2269.38198	0.01088
2268.09621	0.01141
2266.81044	0.01153
2265.52467	0.01118
2264.23890	0.01052
2262.95314	0.00975
2261.66737	0.00909
2260.38160	0.00866
2259.09583	0.00859
2257.81006	0.00894
2256.52429	0.00956
2255.23852	0.01016
2253.95275	0.01050
2252.66698	0.01054
2251.38122	0.01031
2250.09545	0.00992
2248.80968	0.00953
2247.52391	0.00901
2246.23814	0.00907
2244.95237	0.00981
2243.66660	0.01085
2242.38083	0.01165
2241.09507	0.01196
2239.80930	0.01194
2238.52353	0.01186
2237.23776	0.01186
2235.95199	0.01197
2234.66622	0.01213
2233.38045	0.01222
2232.09468	0.01212
2230.80891	0.01178
2229.52315	0.01115
2228.23738	0.01025
2226.95161	0.00932
2225.66584	0.00884
2224.38007	0.00898
2223.09430	0.00943
2221.80853	0.00975
2220.52276	0.00973
2219.23700	0.00943
2217.95123	0.00906
2216.66546	0.00888
2215.37969	0.00895
2214.09392	0.00893
2212.80815	0.00840
2211.52238	0.00735
2210.23661	0.00625
2208.95084	0.00558
2207.66508	0.00548
2206.37931	0.00589
2205.09354	0.00668
2203.80777	0.00758
2202.52200	0.00814
2201.23623	0.00809
2199.95046	0.00767
2198.66469	0.00750
2197.37893	0.00793
2196.09316	0.00864
2194.80739	0.00891
2193.52162	0.00832
2192.23585	0.00715
2190.95008	0.00613
2189.66431	0.00564
2188.37854	0.00537
2187.09277	0.00502
2185.80701	0.00502
2184.52124	0.00613
2183.23547	0.00824
2181.94970	0.01025
2180.66393	0.01114
2179.37816	0.01086
2178.09239	0.00996
2176.80662	0.00882
2175.52085	0.00768
2174.23509	0.00705
2172.94932	0.00746
2171.66355	0.00874
2170.37778	0.00991
2169.09201	0.01006
2167.80624	0.00913
2166.52047	0.00769
2165.23470	0.00628
2163.94894	0.00522
2162.66317	0.00485
2161.37740	0.00523
2160.09163	0.00575
2158.80586	0.00562
2157.52009	0.00483
2156.23432	0.00393
2154.94855	0.00336
2153.66278	0.00321
2152.37702	0.00357
2151.09125	0.00451
2149.80548	0.00570
2148.51971	0.00649
2147.23394	0.00641
2145.94817	0.00566
2144.66240	0.00484
2143.37663	0.00443
2142.09087	0.00443
2140.80510	0.00468
2139.51933	0.00508
2138.23356	0.00548
2136.94779	0.00559
2135.66202	0.00538
2134.37625	0.00525
2133.09048	0.00547
2131.80471	0.00581
2130.51895	0.00584
2129.23318	0.00551
2127.94741	0.00515
2126.66164	0.00508
2125.37587	0.00534
2124.09010	0.00575
2122.80433	0.00605
2121.51856	0.00610
2120.23280	0.00599
2118.94703	0.00596
2117.66126	0.00621
2116.37549	0.00666
2115.08972	0.00716
2113.80395	0.00760
2112.51818	0.00791
2111.23241	0.00798
2109.94664	0.00779
2108.66088	0.00750
2107.37511	0.00741
2106.08934	0.00764
2104.80357	0.00804
2103.51780	0.00829
2102.23203	0.00822
2100.94626	0.00794
2099.66049	0.00795
2098.37473	0.00812
2097.08896	0.00830
2095.80319	0.00834
2094.51742	0.00818
2093.23165	0.00796
2091.94588	0.00780
2090.66011	0.00765
2089.37434	0.00744
2088.08857	0.00722
2086.80281	0.00708
2085.51704	0.00698
2084.23127	0.00685
2082.94550	0.00670
2081.65973	0.00672
2080.37396	0.00711
2079.08819	0.00776
2077.80242	0.00833
2076.51666	0.00848
2075.23089	0.00813
2073.94512	0.00742
2072.65935	0.00647
2071.37358	0.00540
2070.08781	0.00441
2068.80204	0.00383
2067.51627	0.00388
2066.23050	0.00448
2064.94474	0.00529
2063.65897	0.00592
2062.37320	0.00614
2061.08743	0.00599
2059.80166	0.00569
2058.51589	0.00546
2057.23012	0.00540
2055.94435	0.00553
2054.65859	0.00587
2053.37282	0.00629
2052.08705	0.00649
2050.80128	0.00628
2049.51551	0.00581
2048.22974	0.00546
2046.94397	0.00537
2045.65820	0.00530
2044.37243	0.00500
2043.08667	0.00455
2041.80090	0.00425
2040.51513	0.00414
2039.22936	0.00400
2037.94359	0.00374
2036.65782	0.00356
2035.37205	0.00366
2034.08628	0.00382
2032.80052	0.00371
2031.51475	0.00345
2030.22898	0.00357
2028.94321	0.00440
2027.65744	0.00568
2026.37167	0.00687
2025.08590	0.00750
2023.80013	0.00735
2022.51436	0.00644
2021.22860	0.00510
2019.94283	0.00372
2018.65706	0.00268
2017.37129	0.00222
2016.08552	0.00242
2014.79975	0.00326
2013.51398	0.00456
2012.22821	0.00594
2010.94245	0.00686
2009.65668	0.00698
2008.37091	0.00645
2007.08514	0.00574
2005.79937	0.00525
2004.51360	0.00510
2003.22783	0.00520
2001.94206	0.00533
2000.65629	0.00523
1999.37053	0.00474
1998.08476	0.00397
1996.79899	0.00320
1995.51322	0.00276
1994.22745	0.00282
1992.94168	0.00341
1991.65591	0.00435
1990.37014	0.00529
1989.08438	0.00589
1987.79861	0.00596
1986.51284	0.00563
1985.22707	0.00523
1983.94130	0.00511
1982.65553	0.00534
1981.36976	0.00568
1980.08399	0.00579
1978.79822	0.00549
1977.51246	0.00495
1976.22669	0.00450
1974.94092	0.00427
1973.65515	0.00407
1972.36938	0.00372
1971.08361	0.00339
1969.79784	0.00338
1968.51207	0.00363
1967.22631	0.00375
1965.94054	0.00351
1964.65477	0.00311
1963.36900	0.00296
1962.08323	0.00333
1960.79746	0.00414
1959.51169	0.00512
1958.22592	0.00600
1956.94015	0.00663
1955.65439	0.00701
1954.36862	0.00724
1953.08285	0.00734
1951.79708	0.00729
1950.51131	0.00708
1949.22554	0.00679
1947.93977	0.00647
1946.65400	0.00608
1945.36823	0.00563
1944.08247	0.00525
1942.79670	0.00512
1941.51093	0.00527
1940.22516	0.00551
1938.93939	0.00566
1937.65362	0.00578
1936.36785	0.00608
1935.08208	0.00658
1933.79632	0.00704
1932.51055	0.00724
1931.22478	0.00720
1929.93901	0.00713
1928.65324	0.00710
1927.36747	0.00698
1926.08170	0.00664
1924.79593	0.00626
1923.51016	0.00619
1922.22440	0.00646
1920.93863	0.00669
1919.65286	0.00655
1918.36709	0.00628
1917.08132	0.00642
1915.79555	0.00708
1914.50978	0.00788
1913.22401	0.00843
1911.93825	0.00861
1910.65248	0.00848
1909.36671	0.00814
1908.08094	0.00767
1906.79517	0.00716
1905.50940	0.00674
1904.22363	0.00647
1902.93786	0.00640
1901.65209	0.00649
1900.36633	0.00668
1899.08056	0.00689
1897.79479	0.00704
1896.50902	0.00709
1895.22325	0.00712
1893.93748	0.00717
1892.65171	0.00718
1891.36594	0.00709
1890.08018	0.00692
1888.79441	0.00675
1887.50864	0.00660
1886.22287	0.00652
1884.93710	0.00660
1883.65133	0.00689
1882.36556	0.00722
1881.07979	0.00734
1879.79402	0.00717
1878.50826	0.00691
1877.22249	0.00680
1875.93672	0.00696
1874.65095	0.00728
1873.36518	0.00758
1872.07941	0.00763
1870.79364	0.00736
1869.50787	0.00700
1868.22211	0.00684
1866.93634	0.00701
1865.65057	0.00737
1864.36480	0.00773
1863.07903	0.00803
1861.79326	0.00826
1860.50749	0.00837
1859.22172	0.00829
1857.93595	0.00806
1856.65019	0.00779
1855.36442	0.00768
1854.07865	0.00777
1852.79288	0.00798
1851.50711	0.00810
1850.22134	0.00805
1848.93557	0.00793
1847.64980	0.00783
1846.36404	0.00770
1845.07827	0.00755
1843.79250	0.00754
1842.50673	0.00768
1841.22096	0.00779
1839.93519	0.00772
1838.64942	0.00760
1837.36365	0.00753
1836.07788	0.00750
1834.79212	0.00751
1833.50635	0.00751
1832.22058	0.00739
1830.93481	0.00719
1829.64904	0.00711
1828.36327	0.00722
1827.07750	0.00732
1825.79173	0.00730
1824.50597	0.00729
1823.22020	0.00733
1821.93443	0.00736
1820.64866	0.00735
1819.36289	0.00738
1818.07712	0.00744
1816.79135	0.00747
1815.50558	0.00746
1814.21981	0.00740
1812.93405	0.00732
1811.64828	0.00729
1810.36251	0.00739
1809.07674	0.00761
1807.79097	0.00781
1806.50520	0.00790
1805.21943	0.00781
1803.93366	0.00755
1802.64790	0.00719
1801.36213	0.00691
1800.07636	0.00689
1798.79059	0.00713
1797.50482	0.00750
1796.21905	0.00782
1794.93328	0.00789
1793.64751	0.00772
1792.36174	0.00757
1791.07598	0.00766
1789.79021	0.00785
1788.50444	0.00787
1787.21867	0.00764
1785.93290	0.00736
1784.64713	0.00723
1783.36136	0.00729
1782.07559	0.00742
1780.78983	0.00754
1779.50406	0.00768
1778.21829	0.00781
1776.93252	0.00786
1775.64675	0.00778
1774.36098	0.00752
1773.07521	0.00732
1771.78944	0.00745
1770.50367	0.00774
1769.21791	0.00786
1767.93214	0.00780
1766.64637	0.00781
1765.36060	0.00783
1764.07483	0.00766
1762.78906	0.00741
1761.50329	0.00735
1760.21752	0.00747
1758.93176	0.00749
1757.64599	0.00733
1756.36022	0.00726
1755.07445	0.00734
1753.78868	0.00734
1752.50291	0.00712
1751.21714	0.00693
1749.93137	0.00695
1748.64560	0.00703
1747.35984	0.00700
1746.07407	0.00686
1744.78830	0.00674
1743.50253	0.00667
1742.21676	0.00660
1740.93099	0.00653
1739.64522	0.00665
1738.35945	0.00701
1737.07369	0.00719
1735.78792	0.00685
1734.50215	0.00646
1733.21638	0.00660
1731.93061	0.00712
1730.64484	0.00740
1729.35907	0.00731
1728.07330	0.00715
1726.78753	0.00708
1725.50177	0.00705
1724.21600	0.00711
1722.93023	0.00736
1721.64446	0.00770
1720.35869	0.00777
1719.07292	0.00745
1717.78715	0.00712
1716.50138	0.00713
1715.21561	0.00738
1713.92985	0.00760
1712.64408	0.00776
1711.35831	0.00794
1710.07254	0.00817
1708.78677	0.00837
1707.50100	0.00851
1706.21523	0.00873
1704.92946	0.00919
1703.64370	0.00967
1702.35793	0.00970
1701.07216	0.00959
1699.78639	0.01007
1698.50062	0.01094
1697.21485	0.01140
1695.92908	0.01151
1694.64331	0.01195
1693.35754	0.01267
1692.07178	0.01311
1690.78601	0.01333
1689.50024	0.01378
1688.21447	0.01441
1686.92870	0.01469
1685.64293	0.01456
1684.35716	0.01468
1683.07139	0.01542
1681.78563	0.01628
1680.49986	0.01681
1679.21409	0.01714
1677.92832	0.01740
1676.64255	0.01760
1675.35678	0.01793
1674.07101	0.01860
1672.78524	0.01934
1671.49947	0.01980
1670.21371	0.02010
1668.92794	0.02056
1667.64217	0.02121
1666.35640	0.02173
1665.07063	0.02189
1663.78486	0.02190
1662.49909	0.02212
1661.21332	0.02261
1659.92756	0.02320
1658.64179	0.02384
1657.35602	0.02448
1656.07025	0.02480
1654.78448	0.02453
1653.49871	0.02433
1652.21294	0.02503
1650.92717	0.02629
1649.64140	0.02697
1648.35564	0.02674
1647.06987	0.02631
1645.78410	0.02637
1644.49833	0.02683
1643.21256	0.02725
1641.92679	0.02745
1640.64102	0.02756
1639.35525	0.02761
1638.06949	0.02742
1636.78372	0.02700
1635.49795	0.02678
1634.21218	0.02699
1632.92641	0.02725
1631.64064	0.02713
1630.35487	0.02665
1629.06910	0.02613
1627.78333	0.02573
1626.49757	0.02535
1625.21180	0.02482
1623.92603	0.02423
1622.64026	0.02385
1621.35449	0.02373
1620.06872	0.02350
1618.78295	0.02285
1617.49718	0.02204
1616.21142	0.02159
1614.92565	0.02150
1613.63988	0.02130
1612.35411	0.02077
1611.06834	0.02013
1609.78257	0.01961
1608.49680	0.01924
1607.21103	0.01896
1605.92526	0.01873
1604.63950	0.01849
1603.35373	0.01824
1602.06796	0.01800
1600.78219	0.01781
1599.49642	0.01769
1598.21065	0.01761
1596.92488	0.01753
1595.63911	0.01745
1594.35335	0.01736
1593.06758	0.01731
1591.78181	0.01732
1590.49604	0.01740
1589.21027	0.01753
1587.92450	0.01767
1586.63873	0.01777
1585.35296	0.01783
1584.06719	0.01786
1582.78143	0.01796
1581.49566	0.01822
1580.20989	0.01862
1578.92412	0.01887
1577.63835	0.01881
1576.35258	0.01881
1575.06681	0.01929
1573.78104	0.01996
1572.49528	0.02026
1571.20951	0.02015
1569.92374	0.02010
1568.63797	0.02043
1567.35220	0.02094
1566.06643	0.02136
1564.78066	0.02179
1563.49489	0.02229
1562.20912	0.02253
1560.92336	0.02229
1559.63759	0.02202
1558.35182	0.02235
1557.06605	0.02305
1555.78028	0.02338
1554.49451	0.02326
1553.20874	0.02316
1551.92297	0.02325
1550.63721	0.02339
1549.35144	0.02358
1548.06567	0.02382
1546.77990	0.02403
1545.49413	0.02419
1544.20836	0.02435
1542.92259	0.02437
1541.63682	0.02410
1540.35105	0.02378
1539.06529	0.02390
1537.77952	0.02446
1536.49375	0.02482
1535.20798	0.02465
1533.92221	0.02431
1532.63644	0.02430
1531.35067	0.02454
1530.06490	0.02467
1528.77914	0.02460
1527.49337	0.02453
1526.20760	0.02464
1524.92183	0.02487
1523.63606	0.02495
1522.35029	0.02485
1521.06452	0.02492
1519.77875	0.02526
1518.49298	0.02552
1517.20722	0.02554
1515.92145	0.02554
1514.63568	0.02566
1513.34991	0.02585
1512.06414	0.02617
1510.77837	0.02661
1509.49260	0.02687
1508.20683	0.02675
1506.92107	0.02661
1505.63530	0.02696
1504.34953	0.02766
1503.06376	0.02814
1501.77799	0.02821
1500.49222	0.02813
1499.20645	0.02808
1497.92068	0.02804
1496.63491	0.02810
1495.34915	0.02837
1494.06338	0.02872
1492.77761	0.02882
1491.49184	0.02868
1490.20607	0.02862
1488.92030	0.02878
1487.63453	0.02908
1486.34876	0.02938
1485.06299	0.02966
1483.77723	0.02990
1482.49146	0.03014
1481.20569	0.03049
1479.91992	0.03094
1478.63415	0.03144
1477.34838	0.03190
1476.06261	0.03228
1474.77684	0.03250
1473.49108	0.03258
1472.20531	0.03277
1470.91954	0.03314
1469.63377	0.03352
1468.34800	0.03368
1467.06223	0.03362
1465.77646	0.03355
1464.49069	0.03370
1463.20492	0.03410
1461.91916	0.03459
1460.63339	0.03493
1459.34762	0.03497
1458.06185	0.03488
1456.77608	0.03513
1455.49031	0.03584
1454.20454	0.03651
1452.91877	0.03677
1451.63301	0.03675
1450.34724	0.03670
1449.06147	0.03668
1447.77570	0.03672
1446.48993	0.03682
1445.20416	0.03691
1443.91839	0.03693
1442.63262	0.03692
1441.34685	0.03696
1440.06109	0.03694
1438.77532	0.03668
1437.48955	0.03631
1436.20378	0.03616
1434.91801	0.03635
1433.63224	0.03658
1432.34647	0.03665
1431.06070	0.03667
1429.77494	0.03682
1428.48917	0.03712
1427.20340	0.03748
1425.91763	0.03785
1424.63186	0.03829
1423.34609	0.03881
1422.06032	0.03921
1420.77455	0.03940
1419.48878	0.03960
1418.20302	0.04010
1416.91725	0.04072
1415.63148	0.04113
1414.34571	0.04129
1413.05994	0.04140
1411.77417	0.04155
1410.48840	0.04168
1409.20263	0.04174
1407.91687	0.04168
1406.63110	0.04156
1405.34533	0.04147
1404.05956	0.04145
1402.77379	0.04137
1401.48802	0.04105
1400.20225	0.04052
1398.91648	0.03995
1397.63071	0.03944
1396.34495	0.03888
1395.05918	0.03828
1393.77341	0.03777
1392.48764	0.03737
1391.20187	0.03691
1389.91610	0.03625
1388.63033	0.03550
1387.34456	0.03486
1386.05880	0.03441
1384.77303	0.03399
1383.48726	0.03345
1382.20149	0.03280
1380.91572	0.03212
1379.62995	0.03144
1378.34418	0.03078
1377.05841	0.03010
1375.77264	0.02938
1374.48688	0.02865
1373.20111	0.02798
1371.91534	0.02736
1370.62957	0.02673
1369.34380	0.02609
1368.05803	0.02548
1366.77226	0.02490
1365.48649	0.02429
1364.20073	0.02364
1362.91496	0.02304
1361.62919	0.02258
1360.34342	0.02223
1359.05765	0.02191
1357.77188	0.02157
1356.48611	0.02123
1355.20034	0.02095
1353.91457	0.02073
1352.62881	0.02052
1351.34304	0.02030
1350.05727	0.02006
1348.77150	0.01981
1347.48573	0.01957
1346.19996	0.01938
1344.91419	0.01926
1343.62842	0.01918
1342.34266	0.01908
1341.05689	0.01891
1339.77112	0.01871
1338.48535	0.01855
1337.19958	0.01843
1335.91381	0.01831
1334.62804	0.01815
1333.34227	0.01797
1332.05650	0.01779
1330.77074	0.01765
1329.48497	0.01751
1328.19920	0.01735
1326.91343	0.01715
1325.62766	0.01695
1324.34189	0.01675
1323.05612	0.01658
1321.77035	0.01642
1320.48459	0.01624
1319.19882	0.01604
1317.91305	0.01583
1316.62728	0.01565
1315.34151	0.01553
1314.05574	0.01544
1312.76997	0.01536
1311.48420	0.01527
1310.19843	0.01516
1308.91267	0.01508
1307.62690	0.01499
1306.34113	0.01488
1305.05536	0.01470
1303.76959	0.01451
1302.48382	0.01438
1301.19805	0.01432
1299.91228	0.01428
1298.62652	0.01422
1297.34075	0.01415
1296.05498	0.01406
1294.76921	0.01398
1293.48344	0.01390
1292.19767	0.01382
1290.91190	0.01373
1289.62613	0.01364
1288.34036	0.01358
1287.05460	0.01353
1285.76883	0.01349
1284.48306	0.01344
1283.19729	0.01340
1281.91152	0.01337
1280.62575	0.01336
1279.33998	0.01336
1278.05421	0.01334
1276.76845	0.01329
1275.48268	0.01322
1274.19691	0.01313
1272.91114	0.01305
1271.62537	0.01298
1270.33960	0.01293
1269.05383	0.01287
1267.76806	0.01282
1266.48229	0.01278
1265.19653	0.01276
1263.91076	0.01275
1262.62499	0.01273
1261.33922	0.01268
1260.05345	0.01265
1258.76768	0.01265
1257.48191	0.01270
1256.19614	0.01274
1254.91037	0.01278
1253.62461	0.01280
1252.33884	0.01279
1251.05307	0.01277
1249.76730	0.01274
1248.48153	0.01274
1247.19576	0.01277
1245.90999	0.01283
1244.62422	0.01287
1243.33846	0.01287
1242.05269	0.01283
1240.76692	0.01278
1239.48115	0.01274
1238.19538	0.01271
1236.90961	0.01268
1235.62384	0.01263
1234.33807	0.01255
1233.05230	0.01244
1231.76654	0.01232
1230.48077	0.01217
1229.19500	0.01198
1227.90923	0.01176
1226.62346	0.01154
1225.33769	0.01136
1224.05192	0.01121
1222.76615	0.01107
1221.48039	0.01094
1220.19462	0.01082
1218.90885	0.01072
1217.62308	0.01064
1216.33731	0.01056
1215.05154	0.01047
1213.76577	0.01035
1212.48000	0.01021
1211.19423	0.01005
1209.90847	0.00992
1208.62270	0.00983
1207.33693	0.00978
1206.05116	0.00977
1204.76539	0.00978
1203.47962	0.00979
1202.19385	0.00981
1200.90808	0.00981
1199.62232	0.00977
1198.33655	0.00973
1197.05078	0.00963
1195.76501	0.00949
1194.47924	0.00934
1193.19347	0.00919
1191.90770	0.00908
1190.62193	0.00899
1189.33616	0.00890
1188.05040	0.00880
1186.76463	0.00868
1185.47886	0.00855
1184.19309	0.00843
1182.90732	0.00836
1181.62155	0.00834
1180.33578	0.00832
1179.05001	0.00828
1177.76425	0.00821
1176.47848	0.00810
1175.19271	0.00796
1173.90694	0.00785
1172.62117	0.00779
1171.33540	0.00777
1170.04963	0.00776
1168.76386	0.00778
1167.47809	0.00787
1166.19233	0.00802
1164.90656	0.00818
1163.62079	0.00829
1162.33502	0.00830
1161.04925	0.00824
1159.76348	0.00813
1158.47771	0.00801
1157.19194	0.00793
1155.90618	0.00792
1154.62041	0.00792
1153.33464	0.00791
1152.04887	0.00792
1150.76310	0.00798
1149.47733	0.00807
1148.19156	0.00815
1146.90579	0.00820
1145.62002	0.00825
1144.33426	0.00835
1143.04849	0.00848
1141.76272	0.00865
1140.47695	0.00883
1139.19118	0.00904
1137.90541	0.00933
1136.61964	0.00971
1135.33387	0.01018
1134.04811	0.01070
1132.76234	0.01126
1131.47657	0.01186
1130.19080	0.01249
1128.90503	0.01316
1127.61926	0.01389
1126.33349	0.01471
1125.04772	0.01567
1123.76195	0.01675
1122.47619	0.01792
1121.19042	0.01913
1119.90465	0.02035
1118.61888	0.02158
1117.33311	0.02285
1116.04734	0.02421
1114.76157	0.02563
1113.47580	0.02707
1112.19004	0.02846
1110.90427	0.02974
1109.61850	0.03089
1108.33273	0.03192
1107.04696	0.03293
1105.76119	0.03395
1104.47542	0.03497
1103.18965	0.03593
1101.90388	0.03681
1100.61812	0.03765
1099.33235	0.03851
1098.04658	0.03941
1096.76081	0.04032
1095.47504	0.04116
1094.18927	0.04191
1092.90350	0.04259
1091.61773	0.04323
1090.33197	0.04384
1089.04620	0.04442
1087.76043	0.04496
1086.47466	0.04547
1085.18889	0.04600
1083.90312	0.04661
1082.61735	0.04731
1081.33158	0.04806
1080.04581	0.04882
1078.76005	0.04962
1077.47428	0.05047
1076.18851	0.05137
1074.90274	0.05229
1073.61697	0.05320
1072.33120	0.05412
1071.04543	0.05510
1069.75966	0.05615
1068.47390	0.05730
1067.18813	0.05849
1065.90236	0.05968
1064.61659	0.06085
1063.33082	0.06202
1062.04505	0.06321
1060.75928	0.06440
1059.47351	0.06554
1058.18774	0.06658
1056.90198	0.06755
1055.61621	0.06849
1054.33044	0.06946
1053.04467	0.07046
1051.75890	0.07147
1050.47313	0.07251
1049.18736	0.07358
1047.90159	0.07466
1046.61583	0.07569
1045.33006	0.07665
1044.04429	0.07760
1042.75852	0.07862
1041.47275	0.07972
1040.18698	0.08087
1038.90121	0.08200
1037.61544	0.08309
1036.32967	0.08412
1035.04391	0.08513
1033.75814	0.08610
1032.47237	0.08702
1031.18660	0.08788
1029.90083	0.08865
1028.61506	0.08936
1027.32929	0.09001
1026.04352	0.09060
1024.75775	0.09109
1023.47199	0.09142
1022.18622	0.09157
1020.90045	0.09155
1019.61468	0.09141
1018.32891	0.09122
1017.04314	0.09095
1015.75737	0.09059
1014.47160	0.09012
1013.18584	0.08957
1011.90007	0.08894
1010.61430	0.08820
1009.32853	0.08728
1008.04276	0.08621
1006.75699	0.08500
1005.47122	0.08364
1004.18545	0.08213
1002.89968	0.08046
1001.61392	0.07869
1000.32815	0.07685
999.04238	0.07496
997.75661	0.07305
996.47084	0.07112
995.18507	0.06916
993.89930	0.06713
992.61353	0.06506
991.32777	0.06304
990.04200	0.06115
988.75623	0.05939
987.47046	0.05770
986.18469	0.05601
984.89892	0.05431
983.61315	0.05266
982.32738	0.05110
981.04161	0.04958
979.75585	0.04805
978.47008	0.04653
977.18431	0.04513
975.89854	0.04393
974.61277	0.04295
973.32700	0.04213
972.04123	0.04145
970.75546	0.04094
969.46970	0.04061
968.18393	0.04042
966.89816	0.04035
965.61239	0.04036
964.32662	0.04050
963.04085	0.04076
961.75508	0.04108
960.46931	0.04130
959.18354	0.04128
957.89778	0.04098
956.61201	0.04049
955.32624	0.03986
954.04047	0.03916
952.75470	0.03843
951.46893	0.03768
950.18316	0.03691
948.89739	0.03611
947.61163	0.03530
946.32586	0.03452
945.04009	0.03382
943.75432	0.03316
942.46855	0.03252
941.18278	0.03187
939.89701	0.03123
938.61124	0.03063
937.32547	0.03011
936.03971	0.02962
934.75394	0.02915
933.46817	0.02867
932.18240	0.02823
930.89663	0.02783
929.61086	0.02748
928.32509	0.02714
927.03932	0.02677
925.75356	0.02637
924.46779	0.02599
923.18202	0.02567
921.89625	0.02545
920.61048	0.02530
919.32471	0.02519
918.03894	0.02501
916.75317	0.02470
915.46740	0.02429
914.18164	0.02390
912.89587	0.02364
911.61010	0.02352
910.32433	0.02341
909.03856	0.02321
907.75279	0.02291
906.46702	0.02259
905.18125	0.02233
903.89549	0.02215
902.60972	0.02203
901.32395	0.02191
900.03818	0.02173
898.75241	0.02152
897.46664	0.02131
896.18087	0.02113
894.89510	0.02100
893.60933	0.02094
892.32357	0.02094
891.03780	0.02093
889.75203	0.02083
888.46626	0.02066
887.18049	0.02054
885.89472	0.02067
884.60895	0.02117
883.32318	0.02203
882.03742	0.02309
880.75165	0.02417
879.46588	0.02510
878.18011	0.02583
876.89434	0.02645
875.60857	0.02706
874.32280	0.02766
873.03703	0.02815
871.75126	0.02839
870.46550	0.02836
869.17973	0.02807
867.89396	0.02759
866.60819	0.02694
865.32242	0.02620
864.03665	0.02543
862.75088	0.02468
861.46511	0.02396
860.17935	0.02328
858.89358	0.02270
857.60781	0.02228
856.32204	0.02197
855.03627	0.02172
853.75050	0.02145
852.46473	0.02119
851.17896	0.02095
849.89319	0.02075
848.60743	0.02057
847.32166	0.02040
846.03589	0.02022
844.75012	0.02004
843.46435	0.01987
842.17858	0.01971
840.89281	0.01957
839.60704	0.01943
838.32128	0.01927
837.03551	0.01911
835.74974	0.01896
834.46397	0.01885
833.17820	0.01876
831.89243	0.01867
830.60666	0.01859
829.32089	0.01854
828.03512	0.01852
826.74936	0.01852
825.46359	0.01851
824.17782	0.01848
822.89205	0.01843
821.60628	0.01832
820.32051	0.01816
819.03474	0.01800
817.74897	0.01792
816.46321	0.01793
815.17744	0.01800
813.89167	0.01808
812.60590	0.01817
811.32013	0.01824
810.03436	0.01824
808.74859	0.01815
807.46282	0.01801
806.17705	0.01787
804.89129	0.01777
803.60552	0.01772
802.31975	0.01772
801.03398	0.01776
799.74821	0.01782
798.46244	0.01789
797.17667	0.01794
795.89090	0.01794
794.60513	0.01791
793.31937	0.01787
792.03360	0.01781
790.74783	0.01773
789.46206	0.01765
788.17629	0.01763
786.89052	0.01772
785.60475	0.01786
784.31898	0.01796
783.03322	0.01796
781.74745	0.01789
780.46168	0.01780
779.17591	0.01774
777.89014	0.01774
776.60437	0.01782
775.31860	0.01794
774.03283	0.01804
772.74706	0.01807
771.46130	0.01806
770.17553	0.01805
768.88976	0.01801
767.60399	0.01790
766.31822	0.01772
765.03245	0.01755
763.74668	0.01749
762.46091	0.01754
761.17515	0.01762
759.88938	0.01767
758.60361	0.01770
757.31784	0.01775
756.03207	0.01784
754.74630	0.01793
753.46053	0.01796
752.17476	0.01792
750.88899	0.01782
749.60323	0.01772
748.31746	0.01769
747.03169	0.01776
745.74592	0.01792
744.46015	0.01815
743.17438	0.01834
741.88861	0.01840
740.60284	0.01830
739.31708	0.01816
738.03131	0.01811
736.74554	0.01821
735.45977	0.01834
734.17400	0.01835
732.88823	0.01820
731.60246	0.01800
730.31669	0.01788
729.03092	0.01789
727.74516	0.01796
726.45939	0.01803
725.17362	0.01807
723.88785	0.01795
722.60208	0.01796
721.31631	0.01814
720.03054	0.01823
718.74477	0.01815
717.45901	0.01818
716.17324	0.01831
714.88747	0.01840
713.60170	0.01840
712.31593	0.01832
711.03016	0.01822
709.74439	0.01812
708.45862	0.01804
707.17285	0.01799
705.88709	0.01795
704.60132	0.01791
703.31555	0.01786
702.02978	0.01784
700.74401	0.01783
699.45824	0.01787
698.17247	0.01792
696.88670	0.01799
695.60094	0.01802
694.31517	0.01801
693.02940	0.01793
691.74363	0.01783
690.45786	0.01772
689.17209	0.01764
687.88632	0.01756
686.60055	0.01747
685.31478	0.01733
684.02902	0.01717
682.74325	0.01701
681.45748	0.01687
680.17171	0.01677
678.88594	0.01670
677.60017	0.01670
676.31440	0.01677
675.02863	0.01683
673.74287	0.01671
672.45710	0.01627
671.17133	0.01601
669.88556	0.01719
668.59979	0.01948
667.31402	0.01899
666.02825	0.01678
664.74248	0.01628
663.45671	0.01679
662.17095	0.01708
660.88518	0.01702
659.59941	0.01681
658.31364	0.01661
657.02787	0.01650
655.74210	0.01650
654.45633	0.01653
653.17056	0.01657
651.88480	0.01659
650.59903	0.01660
649.31326	0.01661
648.02749	0.01659
646.74172	0.01657
645.45595	0.01660
644.17018	0.01663
642.88441	0.01665
641.59864	0.01667
640.31288	0.01672
639.02711	0.01682
637.74134	0.01694
636.45557	0.01704
635.16980	0.01709
633.88403	0.01712
632.59826	0.01717
631.31249	0.01731
630.02673	0.01761
628.74096	0.01787
627.45519	0.01787
626.16942	0.01836
624.88365	0.01915
623.59788	0.01990
622.31211	0.02050
621.02634	0.02089
619.74057	0.02091
618.45481	0.02051
617.16904	0.02001
615.88327	0.02007
614.59750	0.02126
613.31173	0.02380
612.02596	0.02730
610.74019	0.03074
609.45442	0.03343
608.16866	0.03587
606.88289	0.03891
605.59712	0.04230
604.31135	0.04473
603.02558	0.04531
601.73981	0.04440
600.45404	0.04297
599.16827	0.04165
597.88250	0.04053
596.59674	0.03949
595.31097	0.03851
594.02520	0.03766
592.73943	0.03703
591.45366	0.03663
590.16789	0.03647
588.88212	0.03648
587.59635	0.03660
586.31059	0.03677
585.02482	0.03703
583.73905	0.03749
582.45328	0.03822
581.16751	0.03920
579.88174	0.04029
578.59597	0.04138
577.31020	0.04242
576.02443	0.04341
574.73867	0.04437
573.45290	0.04530
572.16713	0.04624
570.88136	0.04726
569.59559	0.04844
568.30982	0.04979
567.02405	0.05127
565.73828	0.05275
564.45251	0.05412
563.16675	0.05521
561.88098	0.05585
560.59521	0.05584
559.30944	0.05509
558.02367	0.05369
556.73790	0.05186
555.45213	0.04986
554.16636	0.04785
552.88060	0.04585
551.59483	0.04390
550.30906	0.04201
549.02329	0.04021
547.73752	0.03854
546.45175	0.03702
545.16598	0.03569
543.88021	0.03451
542.59444	0.03343
541.30868	0.03244
540.02291	0.03158
538.73714	0.03089
537.45137	0.03034
536.16560	0.02985
534.87983	0.02936
533.59406	0.02885
532.30829	0.02834
531.02253	0.02788
529.73676	0.02746
528.45099	0.02703
527.16522	0.02659
525.87945	0.02620
524.59368	0.02590
523.30791	0.02566
522.02214	0.02540
520.73637	0.02508
519.45061	0.02469
518.16484	0.02423
516.87907	0.02374
515.59330	0.02327
514.30753	0.02289
513.02176	0.02263
511.73599	0.02248
510.45022	0.02234
509.16446	0.02212
507.87869	0.02184
506.59292	0.02158
505.30715	0.02137
504.02138	0.02122
502.73561	0.02105
501.44984	0.02087
500.16407	0.02069
498.87830	0.02054
497.59254	0.02035
496.30677	0.02010
495.02100	0.01981
493.73523	0.01962
492.44946	0.01955
491.16369	0.01954
489.87792	0.01944
488.59215	0.01923
487.30639	0.01899
486.02062	0.01881
484.73485	0.01870
483.44908	0.01859
482.16331	0.01845
480.87754	0.01832
479.59177	0.01824
478.30600	0.01823
477.02023	0.01825
475.73447	0.01829
474.44870	0.01837
473.16293	0.01850
471.87716	0.01864
470.59139	0.01872
469.30562	0.01866
468.01985	0.01849
466.73408	0.01825
465.44832	0.01800
464.16255	0.01776
462.87678	0.01756
461.59101	0.01741
460.30524	0.01731
459.01947	0.01721
457.73370	0.01710
456.44793	0.01695
455.16216	0.01677
453.87640	0.01657
452.59063	0.01639
451.30486	0.01622
450.01909	0.01605
448.73332	0.01588
447.44755	0.01572
446.16178	0.01559
444.87601	0.01546
443.59025	0.01533
442.30448	0.01522
441.01871	0.01517
439.73294	0.01516
438.44717	0.01512
437.16140	0.01502
435.87563	0.01487
434.58986	0.01474
433.30409	0.01464
432.01833	0.01456
430.73256	0.01451
429.44679	0.01445
428.16102	0.01439
426.87525	0.01433
425.58948	0.01427
424.30371	0.01422
423.01794	0.01414
421.73218	0.01396
420.44641	0.01373
419.16064	0.01357
417.87487	0.01357
416.58910	0.01361
415.30333	0.01357
414.01756	0.01342
412.73179	0.01322
411.44602	0.01300
410.16026	0.01279
408.87449	0.01264
407.58872	0.01256
406.30295	0.01255
405.01718	0.01258
403.73141	0.01261
402.44564	0.01262
401.15987	0.01260
399.87411	0.01254
