3997.45528	0.03043
3996.16951	0.03005
3994.88374	0.02970
3993.59798	0.02952
3992.31221	0.02966
3991.02644	0.03013
3989.74067	0.03065
3988.45490	0.03106
3987.16913	0.03146
3985.88336	0.03191
3984.59759	0.03221
3983.31183	0.03212
3982.02606	0.03175
3980.74029	0.03152
3979.45452	0.03163
3978.16875	0.03179
3976.88298	0.03157
3975.59721	0.03093
3974.31144	0.03019
3973.02567	0.02969
3971.73991	0.02946
3970.45414	0.02934
3969.16837	0.02930
3967.88260	0.02947
3966.59683	0.02987
3965.31106	0.03018
3964.02529	0.03007
3962.73952	0.02969
3961.45376	0.02954
3960.16799	0.02995
3958.88222	0.03072
3957.59645	0.03137
3956.31068	0.03165
3955.02491	0.03168
3953.73914	0.03174
3952.45337	0.03189
3951.16760	0.03191
3949.88184	0.03158
3948.59607	0.03099
3947.31030	0.03045
3946.02453	0.03011
3944.73876	0.02980
3943.45299	0.02934
3942.16722	0.02891
3940.88145	0.02889
3939.59569	0.02940
3938.30992	0.03015
3937.02415	0.03068
3935.73838	0.03074
3934.45261	0.03047
3933.16684	0.03015
3931.88107	0.02999
3930.59530	0.03013
3929.30953	0.03067
3928.02377	0.03143
3926.73800	0.03189
3925.45223	0.03166
3924.16646	0.03092
3922.88069	0.03029
3921.59492	0.03020
3920.30915	0.03064
3919.02338	0.03119
3917.73762	0.03151
3916.45185	0.03156
3915.16608	0.03139
3913.88031	0.03094
3912.59454	0.03019
3911.30877	0.02933
3910.02300	0.02866
3908.73723	0.02838
3907.45146	0.02831
3906.16570	0.02821
3904.87993	0.02817
3903.59416	0.02861
3902.30839	0.02957
3901.02262	0.03057
3899.73685	0.03107
3898.45108	0.03097
3897.16531	0.03067
3895.87955	0.03067
3894.59378	0.03104
3893.30801	0.03132
3892.02224	0.03114
3890.73647	0.03078
3889.45070	0.03070
3888.16493	0.03093
3886.87916	0.03125
3885.59339	0.03162
3884.30763	0.03189
3883.02186	0.03175
3881.73609	0.03107
3880.45032	0.03023
3879.16455	0.02954
3877.87878	0.02892
3876.59301	0.02820
3875.30724	0.02759
3874.02148	0.02746
3872.73571	0.02780
3871.44994	0.02837
3870.16417	0.02917
3868.87840	0.03009
3867.59263	0.03055
3866.30686	0.03023
3865.02109	0.02973
3863.73532	0.02974
3862.44956	0.03019
3861.16379	0.03054
3859.87802	0.03049
3858.59225	0.03028
3857.30648	0.03027
3856.02071	0.03058
3854.73494	0.03117
3853.44917	0.03190
3852.16341	0.03232
3850.87764	0.03195
3849.59187	0.03094
3848.30610	0.03001
3847.02033	0.02956
3845.73456	0.02949
3844.44879	0.02965
3843.16302	0.03010
3841.87725	0.03095
3840.59149	0.03189
3839.30572	0.03238
3838.01995	0.03218
3836.73418	0.03150
3835.44841	0.03065
3834.16264	0.02999
3832.87687	0.02976
3831.59110	0.02990
3830.30534	0.02990
3829.01957	0.02931
3827.73380	0.02831
3826.44803	0.02758
3825.16226	0.02760
3823.87649	0.02813
3822.59072	0.02884
3821.30495	0.02971
3820.01918	0.03060
3818.73342	0.03096
3817.44765	0.03060
3816.16188	0.03025
3814.87611	0.03046
3813.59034	0.03075
3812.30457	0.03051
3811.01880	0.02977
3809.73303	0.02881
3808.44726	0.02789
3807.16150	0.02750
3805.87573	0.02800
3804.58996	0.02882
3803.30419	0.02913
3802.01842	0.02896
3800.73265	0.02899
3799.44688	0.02932
3798.16111	0.02939
3796.87535	0.02905
3795.58958	0.02869
3794.30381	0.02867
3793.01804	0.02907
3791.73227	0.02967
3790.44650	0.03007
3789.16073	0.02993
3787.87496	0.02926
3786.58919	0.02836
3785.30343	0.02764
3784.01766	0.02731
3782.73189	0.02727
3781.44612	0.02724
3780.16035	0.02712
3778.87458	0.02708
3777.58881	0.02731
3776.30304	0.02775
3775.01728	0.02819
3773.73151	0.02839
3772.44574	0.02817
3771.15997	0.02774
3769.87420	0.02759
3768.58843	0.02785
3767.30266	0.02804
3766.01689	0.02782
3764.73112	0.02749
3763.44536	0.02755
3762.15959	0.02803
3760.87382	0.02861
3759.58805	0.02895
3758.30228	0.02902
3757.01651	0.02911
3755.73074	0.02944
3754.44497	0.02991
3753.15921	0.03027
3751.87344	0.03027
3750.58767	0.02985
3749.30190	0.02935
3748.01613	0.02921
3746.73036	0.02938
3745.44459	0.02970
3744.15882	0.03023
3742.87305	0.03052
3741.58729	0.02983
3740.30152	0.02839
3739.01575	0.02704
3737.72998	0.02621
3736.44421	0.02585
3735.15844	0.02590
3733.87267	0.02615
3732.58690	0.02657
3731.30114	0.02715
3730.01537	0.02771
3728.72960	0.02800
3727.44383	0.02804
3726.15806	0.02803
3724.87229	0.02798
3723.58652	0.02769
3722.30075	0.02726
3721.01498	0.02688
3719.72922	0.02660
3718.44345	0.02655
3717.15768	0.02683
3715.87191	0.02730
3714.58614	0.02749
3713.30037	0.02718
3712.01460	0.02665
3710.72883	0.02624
3709.44307	0.02593
3708.15730	0.02578
3706.87153	0.02578
3705.58576	0.02600
3704.29999	0.02642
3703.01422	0.02699
3701.72845	0.02756
3700.44268	0.02797
3699.15691	0.02813
3697.87115	0.02816
3696.58538	0.02834
3695.29961	0.02878
3694.01384	0.02935
3692.72807	0.02996
3691.44230	0.03041
3690.15653	0.03035
3688.87076	0.02967
3687.58500	0.02859
3686.29923	0.02743
3685.01346	0.02653
3683.72769	0.02622
3682.44192	0.02660
3681.15615	0.02744
3679.87038	0.02835
3678.58461	0.02897
3677.29884	0.02914
3676.01308	0.02921
3674.72731	0.02963
3673.44154	0.03016
3672.15577	0.03016
3670.87000	0.02972
3669.58423	0.02948
3668.29846	0.02966
3667.01269	0.03001
3665.72693	0.03022
3664.44116	0.03017
3663.15539	0.02980
3661.86962	0.02920
3660.58385	0.02858
3659.29808	0.02818
3658.01231	0.02828
3656.72654	0.02912
3655.44077	0.03049
3654.15501	0.03160
3652.86924	0.03157
3651.58347	0.03032
3650.29770	0.02867
3649.01193	0.02765
3647.72616	0.02766
3646.44039	0.02826
3645.15462	0.02870
3643.86886	0.02864
3642.58309	0.02832
3641.29732	0.02818
3640.01155	0.02840
3638.72578	0.02884
3637.44001	0.02925
3636.15424	0.02957
3634.86847	0.02992
3633.58270	0.03040
3632.29694	0.03072
3631.01117	0.03044
3629.72540	0.02971
3628.43963	0.02918
3627.15386	0.02918
3625.86809	0.02947
3624.58232	0.02989
3623.29655	0.03042
3622.01079	0.03103
3620.72502	0.03156
3619.43925	0.03202
3618.15348	0.03230
3616.86771	0.03225
3615.58194	0.03196
3614.29617	0.03182
3613.01040	0.03218
3611.72463	0.03299
3610.43887	0.03391
3609.15310	0.03468
3607.86733	0.03524
3606.58156	0.03558
3605.29579	0.03574
3604.01002	0.03577
3602.72425	0.03561
3601.43848	0.03535
3600.15272	0.03518
3598.86695	0.03524
3597.58118	0.03550
3596.29541	0.03594
3595.00964	0.03658
3593.72387	0.03740
3592.43810	0.03819
3591.15233	0.03842
3589.86656	0.03792
3588.58080	0.03719
3587.29503	0.03687
3586.00926	0.03719
3584.72349	0.03785
3583.43772	0.03838
3582.15195	0.03860
3580.86618	0.03865
3579.58041	0.03869
3578.29464	0.03878
3577.00888	0.03887
3575.72311	0.03882
3574.43734	0.03853
3573.15157	0.03801
3571.86580	0.03760
3570.58003	0.03781
3569.29426	0.03879
3568.00849	0.04015
3566.72273	0.04120
3565.43696	0.04156
3564.15119	0.04134
3562.86542	0.04100
3561.57965	0.04087
3560.29388	0.04094
3559.00811	0.04110
3557.72234	0.04129
3556.43657	0.04153
3555.15081	0.04185
3553.86504	0.04223
3552.57927	0.04272
3551.29350	0.04332
3550.00773	0.04394
3548.72196	0.04435
3547.43619	0.04437
3546.15042	0.04403
3544.86466	0.04357
3543.57889	0.04331
3542.29312	0.04344
3541.00735	0.04382
3539.72158	0.04411
3538.43581	0.04412
3537.15004	0.04401
3535.86427	0.04396
3534.57850	0.04397
3533.29274	0.04393
3532.00697	0.04384
3530.72120	0.04387
3529.43543	0.04408
3528.14966	0.04437
3526.86389	0.04463
3525.57812	0.04484
3524.29235	0.04506
3523.00659	0.04524
3521.72082	0.04527
3520.43505	0.04510
3519.14928	0.04487
3517.86351	0.04484
3516.57774	0.04522
3515.29197	0.04607
3514.00620	0.04724
3512.72043	0.04836
3511.43467	0.04906
3510.14890	0.04916
3508.86313	0.04879
3507.57736	0.04822
3506.29159	0.04759
3505.00582	0.04690
3503.72005	0.04612
3502.43428	0.04541
3501.14852	0.04500
3499.86275	0.04509
3498.57698	0.04568
3497.29121	0.04657
3496.00544	0.04745
3494.71967	0.04801
3493.43390	0.04820
3492.14813	0.04820
3490.86236	0.04812
3489.57660	0.04786
3488.29083	0.04735
3487.00506	0.04682
3485.71929	0.04669
3484.43352	0.04716
3483.14775	0.04804
3481.86198	0.04893
3480.57621	0.04955
3479.29045	0.04985
3478.00468	0.04993
3476.71891	0.04987
3475.43314	0.04972
3474.14737	0.04962
3472.86160	0.04968
3471.57583	0.04988
3470.29006	0.05009
3469.00429	0.05024
3467.71853	0.05034
3466.43276	0.05043
3465.14699	0.05045
3463.86122	0.05026
3462.57545	0.04992
3461.28968	0.04971
3460.00391	0.04980
3458.71814	0.05005
3457.43238	0.05009
3456.14661	0.04979
3454.86084	0.04929
3453.57507	0.04892
3452.28930	0.04891
3451.00353	0.04929
3449.71776	0.04998
3448.43199	0.05076
3447.14622	0.05141
3445.86046	0.05179
3444.57469	0.05190
3443.28892	0.05188
3442.00315	0.05196
3440.71738	0.05219
3439.43161	0.05240
3438.14584	0.05233
3436.86007	0.05190
3435.57431	0.05134
3434.28854	0.05100
3433.00277	0.05107
3431.71700	0.05146
3430.43123	0.05192
3429.14546	0.05232
3427.85969	0.05273
3426.57392	0.05316
3425.28815	0.05349
3424.00239	0.05356
3422.71662	0.05342
3421.43085	0.05331
3420.14508	0.05337
3418.85931	0.05359
3417.57354	0.05382
3416.28777	0.05392
3415.00200	0.05387
3413.71624	0.05375
3412.43047	0.05370
3411.14470	0.05374
3409.85893	0.05379
3408.57316	0.05381
3407.28739	0.05384
3406.00162	0.05393
3404.71585	0.05399
3403.43008	0.05388
3402.14432	0.05365
3400.85855	0.05352
3399.57278	0.05365
3398.28701	0.05391
3397.00124	0.05400
3395.71547	0.05377
3394.42970	0.05341
3393.14393	0.05324
3391.85817	0.05335
3390.57240	0.05353
3389.28663	0.05355
3388.00086	0.05339
3386.71509	0.05321
3385.42932	0.05320
3384.14355	0.05340
3382.85778	0.05379
3381.57201	0.05422
3380.28625	0.05454
3379.00048	0.05466
3377.71471	0.05456
3376.42894	0.05429
3375.14317	0.05389
3373.85740	0.05346
3372.57163	0.05314
3371.28586	0.05305
3370.00010	0.05317
3368.71433	0.05332
3367.42856	0.05330
3366.14279	0.05313
3364.85702	0.05298
3363.57125	0.05300
3362.28548	0.05320
3360.99971	0.05340
3359.71394	0.05347
3358.42818	0.05343
3357.14241	0.05344
3355.85664	0.05356
3354.57087	0.05374
3353.28510	0.05391
3351.99933	0.05403
3350.71356	0.05404
3349.42779	0.05385
3348.14202	0.05351
3346.85626	0.05321
3345.57049	0.05314
3344.28472	0.05331
3342.99895	0.05363
3341.71318	0.05408
3340.42741	0.05460
3339.14164	0.05507
3337.85587	0.05525
3336.57011	0.05501
3335.28434	0.05445
3333.99857	0.05384
3332.71280	0.05338
3331.42703	0.05318
3330.14126	0.05325
3328.85549	0.05346
3327.56972	0.05361
3326.28395	0.05356
3324.99819	0.05339
3323.71242	0.05329
3322.42665	0.05337
3321.14088	0.05359
3319.85511	0.05380
3318.56934	0.05384
3317.28357	0.05357
3315.99780	0.05299
3314.71204	0.05226
3313.42627	0.05161
3312.14050	0.05119
3310.85473	0.05108
3309.56896	0.05118
3308.28319	0.05130
3306.99742	0.05137
3305.71165	0.05148
3304.42588	0.05172
3303.14012	0.05205
3301.85435	0.05232
3300.56858	0.05243
3299.28281	0.05245
3297.99704	0.05245
3296.71127	0.05244
3295.42550	0.05238
3294.13973	0.05218
3292.85397	0.05190
3291.56820	0.05174
3290.28243	0.05182
3288.99666	0.05208
3287.71089	0.05239
3286.42512	0.05269
3285.13935	0.05295
3283.85358	0.05307
3282.56781	0.05290
3281.28205	0.05240
3279.99628	0.05170
3278.71051	0.05111
3277.42474	0.05089
3276.13897	0.05108
3274.85320	0.05151
3273.56743	0.05201
3272.28166	0.05244
3270.99590	0.05267
3269.71013	0.05262
3268.42436	0.05240
3267.13859	0.05224
3265.85282	0.05217
3264.56705	0.05204
3263.28128	0.05177
3261.99551	0.05148
3260.70974	0.05133
3259.42398	0.05128
3258.13821	0.05119
3256.85244	0.05105
3255.56667	0.05097
3254.28090	0.05103
3252.99513	0.05117
3251.70936	0.05125
3250.42359	0.05118
3249.13783	0.05096
3247.85206	0.05065
3246.56629	0.05036
3245.28052	0.05024
3243.99475	0.05040
3242.70898	0.05082
3241.42321	0.05130
3240.13744	0.05158
3238.85167	0.05154
3237.56591	0.05128
3236.28014	0.05102
3234.99437	0.05091
3233.70860	0.05097
3232.42283	0.05108
3231.13706	0.05106
3229.85129	0.05075
3228.56552	0.05028
3227.27976	0.04993
3225.99399	0.04998
3224.70822	0.05039
3223.42245	0.05092
3222.13668	0.05125
3220.85091	0.05117
3219.56514	0.05078
3218.27937	0.05036
3216.99360	0.05025
3215.70784	0.05055
3214.42207	0.05114
3213.13630	0.05175
3211.85053	0.05210
3210.56476	0.05198
3209.27899	0.05142
3207.99322	0.05067
3206.70745	0.05008
3205.42169	0.04984
3204.13592	0.04990
3202.85015	0.05009
3201.56438	0.05028
3200.27861	0.05046
3198.99284	0.05062
3197.70707	0.05074
3196.42130	0.05081
3195.13553	0.05086
3193.84977	0.05092
3192.56400	0.05100
3191.27823	0.05099
3189.99246	0.05076
3188.70669	0.05028
3187.42092	0.04971
3186.13515	0.04924
3184.84938	0.04894
3183.56362	0.04875
3182.27785	0.04858
3180.99208	0.04848
3179.70631	0.04855
3178.42054	0.04879
3177.13477	0.04901
3175.84900	0.04905
3174.56323	0.04892
3173.27746	0.04875
3171.99170	0.04863
3170.70593	0.04848
3169.42016	0.04821
3168.13439	0.04789
3166.84862	0.04763
3165.56285	0.04746
3164.27708	0.04724
3162.99131	0.04693
3161.70555	0.04675
3160.41978	0.04695
3159.13401	0.04751
3157.84824	0.04812
3156.56247	0.04839
3155.27670	0.04822
3153.99093	0.04773
3152.70516	0.04716
3151.41939	0.04661
3150.13363	0.04614
3148.84786	0.04577
3147.56209	0.04557
3146.27632	0.04558
3144.99055	0.04578
3143.70478	0.04608
3142.41901	0.04631
3141.13324	0.04636
3139.84748	0.04623
3138.56171	0.04613
3137.27594	0.04627
3135.99017	0.04668
3134.70440	0.04717
3133.41863	0.04742
3132.13286	0.04724
3130.84709	0.04668
3129.56132	0.04606
3128.27556	0.04570
3126.98979	0.04573
3125.70402	0.04597
3124.41825	0.04617
3123.13248	0.04620
3121.84671	0.04615
3120.56094	0.04613
3119.27517	0.04609
3117.98940	0.04592
3116.70364	0.04567
3115.41787	0.04547
3114.13210	0.04540
3112.84633	0.04537
3111.56056	0.04527
3110.27479	0.04506
3108.98902	0.04478
3107.70325	0.04451
3106.41749	0.04436
3105.13172	0.04443
3103.84595	0.04471
3102.56018	0.04508
3101.27441	0.04540
3099.98864	0.04560
3098.70287	0.04565
3097.41710	0.04556
3096.13133	0.04533
3094.84557	0.04501
3093.55980	0.04459
3092.27403	0.04407
3090.98826	0.04348
3089.70249	0.04298
3088.41672	0.04276
3087.13095	0.04280
3085.84518	0.04294
3084.55942	0.04301
3083.27365	0.04300
3081.98788	0.04298
3080.70211	0.04301
3079.41634	0.04300
3078.13057	0.04286
3076.84480	0.04262
3075.55903	0.04246
3074.27326	0.04247
3072.98750	0.04259
3071.70173	0.04258
3070.41596	0.04237
3069.13019	0.04208
3067.84442	0.04196
3066.55865	0.04215
3065.27288	0.04257
3063.98711	0.04299
3062.70135	0.04326
3061.41558	0.04337
3060.12981	0.04336
3058.84404	0.04321
3057.55827	0.04290
3056.27250	0.04256
3054.98673	0.04237
3053.70096	0.04230
3052.41519	0.04210
3051.12943	0.04162
3049.84366	0.04100
3048.55789	0.04058
3047.27212	0.04059
3045.98635	0.04096
3044.70058	0.04136
3043.41481	0.04141
3042.12904	0.04101
3040.84328	0.04036
3039.55751	0.03988
3038.27174	0.03987
3036.98597	0.04029
3035.70020	0.04080
3034.41443	0.04103
3033.12866	0.04085
3031.84289	0.04043
3030.55712	0.04006
3029.27136	0.03986
3027.98559	0.03982
3026.69982	0.03988
3025.41405	0.04001
3024.12828	0.04025
3022.84251	0.04057
3021.55674	0.04085
3020.27097	0.04095
3018.98521	0.04084
3017.69944	0.04053
3016.41367	0.04008
3015.12790	0.03961
3013.84213	0.03927
3012.55636	0.03908
3011.27059	0.03899
3009.98482	0.03889
3008.69905	0.03879
3007.41329	0.03871
3006.12752	0.03861
3004.84175	0.03841
3003.55598	0.03814
3002.27021	0.03792
3000.98444	0.03789
2999.69867	0.03809
2998.41290	0.03851
2997.12714	0.03897
2995.84137	0.03923
2994.55560	0.03911
2993.26983	0.03869
2991.98406	0.03821
2990.69829	0.03790
2989.41252	0.03780
2988.12675	0.03788
2986.84098	0.03810
2985.55522	0.03834
2984.26945	0.03847
2982.98368	0.03838
2981.69791	0.03817
2980.41214	0.03808
2979.12637	0.03830
2977.84060	0.03874
2976.55483	0.03910
2975.26907	0.03919
2973.98330	0.03914
2972.69753	0.03925
2971.41176	0.03964
2970.12599	0.04015
2968.84022	0.04051
2967.55445	0.04055
2966.26868	0.04027
2964.98291	0.03986
2963.69715	0.03954
2962.41138	0.03945
2961.12561	0.03964
2959.83984	0.04005
2958.55407	0.04054
2957.26830	0.04091
2955.98253	0.04106
2954.69676	0.04107
2953.41100	0.04109
2952.12523	0.04114
2950.83946	0.04116
2949.55369	0.04109
2948.26792	0.04089
2946.98215	0.04063
2945.69638	0.04040
2944.41061	0.04026
2943.12484	0.04015
2941.83908	0.03998
2940.55331	0.03974
2939.26754	0.03944
2937.98177	0.03910
2936.69600	0.03874
2935.41023	0.03849
2934.12446	0.03853
2932.83869	0.03889
2931.55293	0.03929
2930.26716	0.03942
2928.98139	0.03914
2927.69562	0.03857
2926.40985	0.03793
2925.12408	0.03741
2923.83831	0.03705
2922.55254	0.03686
2921.26677	0.03680
2919.98101	0.03685
2918.69524	0.03692
2917.40947	0.03695
2916.12370	0.03692
2914.83793	0.03693
2913.55216	0.03707
2912.26639	0.03731
2910.98062	0.03754
2909.69486	0.03766
2908.40909	0.03767
2907.12332	0.03767
2905.83755	0.03768
2904.55178	0.03766
2903.26601	0.03758
2901.98024	0.03753
2900.69447	0.03751
2899.40870	0.03740
2898.12294	0.03710
2896.83717	0.03670
2895.55140	0.03645
2894.26563	0.03651
2892.97986	0.03681
2891.69409	0.03717
2890.40832	0.03744
2889.12255	0.03747
2887.83678	0.03721
2886.55102	0.03676
2885.26525	0.03642
2883.97948	0.03644
2882.69371	0.03680
2881.40794	0.03721
2880.12217	0.03743
2878.83640	0.03740
2877.55063	0.03725
2876.26487	0.03708
2874.97910	0.03695
2873.69333	0.03682
2872.40756	0.03665
2871.12179	0.03645
2869.83602	0.03627
2868.55025	0.03616
2867.26448	0.03597
2865.97871	0.03559
2864.69295	0.03507
2863.40718	0.03461
2862.12141	0.03437
2860.83564	0.03426
2859.54987	0.03412
2858.26410	0.03385
2856.97833	0.03347
2855.69256	0.03301
2854.40680	0.03252
2853.12103	0.03207
2851.83526	0.03174
2850.54949	0.03160
2849.26372	0.03165
2847.97795	0.03191
2846.69218	0.03233
2845.40641	0.03284
2844.12064	0.03330
2842.83488	0.03353
2841.54911	0.03342
2840.26334	0.03308
2838.97757	0.03278
2837.69180	0.03272
2836.40603	0.03286
2835.12026	0.03297
2833.83449	0.03289
2832.54873	0.03266
2831.26296	0.03246
2829.97719	0.03244
2828.69142	0.03251
2827.40565	0.03246
2826.11988	0.03215
2824.83411	0.03164
2823.54834	0.03120
2822.26257	0.03101
2820.97681	0.03106
2819.69104	0.03119
2818.40527	0.03127
2817.11950	0.03126
2815.83373	0.03122
2814.54796	0.03117
2813.26219	0.03105
2811.97642	0.03083
2810.69066	0.03059
2809.40489	0.03045
2808.11912	0.03046
2806.83335	0.03052
2805.54758	0.03055
2804.26181	0.03053
2802.97604	0.03050
2801.69027	0.03053
2800.40450	0.03060
2799.11874	0.03061
2797.83297	0.03045
2796.54720	0.03013
2795.26143	0.02980
2793.97566	0.02964
2792.68989	0.02966
2791.40412	0.02976
2790.11835	0.02978
2788.83259	0.02971
2787.54682	0.02960
2786.26105	0.02951
2784.97528	0.02943
2783.68951	0.02943
2782.40374	0.02951
2781.11797	0.02965
2779.83220	0.02974
2778.54643	0.02977
2777.26067	0.02973
2775.97490	0.02963
2774.68913	0.02951
2773.40336	0.02943
2772.11759	0.02941
2770.83182	0.02939
2769.54605	0.02928
2768.26028	0.02912
2766.97452	0.02897
2765.68875	0.02889
2764.40298	0.02885
2763.11721	0.02882
2761.83144	0.02878
2760.54567	0.02869
2759.25990	0.02849
2757.97413	0.02819
2756.68836	0.02790
2755.40260	0.02781
2754.11683	0.02795
2752.83106	0.02818
2751.54529	0.02827
2750.25952	0.02815
2748.97375	0.02794
2747.68798	0.02780
2746.40221	0.02777
2745.11645	0.02785
2743.83068	0.02796
2742.54491	0.02806
2741.25914	0.02812
2739.97337	0.02812
2738.68760	0.02801
2737.40183	0.02778
2736.11606	0.02746
2734.83029	0.02717
2733.54453	0.02705
2732.25876	0.02715
2730.97299	0.02741
2729.68722	0.02769
2728.40145	0.02786
2727.11568	0.02786
2725.82991	0.02773
2724.54414	0.02760
2723.25838	0.02754
2721.97261	0.02754
2720.68684	0.02759
2719.40107	0.02768
2718.11530	0.02776
2716.82953	0.02771
2715.54376	0.02750
2714.25799	0.02725
2712.97222	0.02710
2711.68646	0.02709
2710.40069	0.02717
2709.11492	0.02720
2707.82915	0.02708
2706.54338	0.02681
2705.25761	0.02653
2703.97184	0.02642
2702.68607	0.02652
2701.40031	0.02676
2700.11454	0.02698
2698.82877	0.02710
2697.54300	0.02712
2696.25723	0.02710
2694.97146	0.02700
2693.68569	0.02676
2692.39992	0.02643
2691.11415	0.02613
2689.82839	0.02598
2688.54262	0.02600
2687.25685	0.02612
2685.97108	0.02625
2684.68531	0.02637
2683.39954	0.02648
2682.11377	0.02655
2680.82800	0.02654
2679.54224	0.02652
2678.25647	0.02653
2676.97070	0.02655
2675.68493	0.02643
2674.39916	0.02615
2673.11339	0.02587
2671.82762	0.02575
2670.54185	0.02576
2669.25608	0.02578
2667.97032	0.02573
2666.68455	0.02565
2665.39878	0.02561
2664.11301	0.02560
2662.82724	0.02560
2661.54147	0.02566
2660.25570	0.02580
2658.96993	0.02597
2657.68417	0.02613
2656.39840	0.02627
2655.11263	0.02638
2653.82686	0.02641
2652.54109	0.02631
2651.25532	0.02613
2649.96955	0.02598
2648.68378	0.02589
2647.39801	0.02583
2646.11225	0.02579
2644.82648	0.02570
2643.54071	0.02555
2642.25494	0.02537
2640.96917	0.02520
2639.68340	0.02507
2638.39763	0.02491
2637.11186	0.02467
2635.82609	0.02436
2634.54033	0.02403
2633.25456	0.02375
2631.96879	0.02360
2630.68302	0.02362
2629.39725	0.02370
2628.11148	0.02368
2626.82571	0.02352
2625.53994	0.02328
2624.25418	0.02308
2622.96841	0.02303
2621.68264	0.02315
2620.39687	0.02340
2619.11110	0.02362
2617.82533	0.02363
2616.53956	0.02337
2615.25379	0.02298
2613.96802	0.02270
2612.68226	0.02268
2611.39649	0.02287
2610.11072	0.02305
2608.82495	0.02307
2607.53918	0.02297
2606.25341	0.02290
2604.96764	0.02293
2603.68187	0.02297
2602.39611	0.02291
2601.11034	0.02278
2599.82457	0.02268
2598.53880	0.02265
2597.25303	0.02260
2595.96726	0.02242
2594.68149	0.02214
2593.39572	0.02183
2592.10995	0.02159
2590.82419	0.02149
2589.53842	0.02157
2588.25265	0.02183
2586.96688	0.02208
2585.68111	0.02211
2584.39534	0.02188
2583.10957	0.02158
2581.82380	0.02138
2580.53804	0.02132
2579.25227	0.02133
2577.96650	0.02137
2576.68073	0.02145
2575.39496	0.02143
2574.10919	0.02116
2572.82342	0.02063
2571.53765	0.02008
2570.25188	0.01982
2568.96612	0.01993
2567.68035	0.02023
2566.39458	0.02045
2565.10881	0.02049
2563.82304	0.02045
2562.53727	0.02045
2561.25150	0.02055
2559.96573	0.02066
2558.67997	0.02070
2557.39420	0.02062
2556.10843	0.02049
2554.82266	0.02040
2553.53689	0.02038
2552.25112	0.02040
2550.96535	0.02038
2549.67958	0.02029
2548.39381	0.02014
2547.10805	0.02003
2545.82228	0.02002
2544.53651	0.02007
2543.25074	0.02010
2541.96497	0.02009
2540.67920	0.02015
2539.39343	0.02034
2538.10766	0.02053
2536.82190	0.02050
2535.53613	0.02025
2534.25036	0.02002
2532.96459	0.02006
2531.67882	0.02033
2530.39305	0.02057
2529.10728	0.02060
2527.82151	0.02038
2526.53574	0.02007
2525.24998	0.01987
2523.96421	0.01989
2522.67844	0.02000
2521.39267	0.02000
2520.10690	0.01989
2518.82113	0.01981
2517.53536	0.01976
2516.24959	0.01962
2514.96383	0.01937
2513.67806	0.01922
2512.39229	0.01929
2511.10652	0.01948
2509.82075	0.01956
2508.53498	0.01946
2507.24921	0.01934
2505.96344	0.01938
2504.67767	0.01954
2503.39191	0.01956
2502.10614	0.01928
2500.82037	0.01887
2499.53460	0.01866
2498.24883	0.01873
2496.96306	0.01893
2495.67729	0.01909
2494.39152	0.01915
2493.10576	0.01907
2491.81999	0.01885
2490.53422	0.01858
2489.24845	0.01840
2487.96268	0.01830
2486.67691	0.01826
2485.39114	0.01835
2484.10537	0.01867
2482.81960	0.01909
2481.53384	0.01932
2480.24807	0.01919
2478.96230	0.01881
2477.67653	0.01855
2476.39076	0.01867
2475.10499	0.01911
2473.81922	0.01959
2472.53345	0.01994
2471.24769	0.02010
2469.96192	0.02009
2468.67615	0.01993
2467.39038	0.01970
2466.10461	0.01946
2464.81884	0.01921
2463.53307	0.01899
2462.24730	0.01885
2460.96153	0.01884
2459.67577	0.01886
2458.39000	0.01881
2457.10423	0.01874
2455.81846	0.01872
2454.53269	0.01878
2453.24692	0.01881
2451.96115	0.01870
2450.67538	0.01847
2449.38962	0.01820
2448.10385	0.01802
2446.81808	0.01796
2445.53231	0.01801
2444.24654	0.01811
2442.96077	0.01816
2441.67500	0.01812
2440.38923	0.01811
2439.10346	0.01826
2437.81770	0.01850
2436.53193	0.01860
2435.24616	0.01847
2433.96039	0.01823
2432.67462	0.01808
2431.38885	0.01800
2430.10308	0.01784
2428.81731	0.01746
2427.53155	0.01691
2426.24578	0.01647
2424.96001	0.01646
2423.67424	0.01691
2422.38847	0.01758
2421.10270	0.01815
2419.81693	0.01845
2418.53116	0.01848
2417.24539	0.01836
2415.95963	0.01830
2414.67386	0.01840
2413.38809	0.01855
2412.10232	0.01858
2410.81655	0.01846
2409.53078	0.01828
2408.24501	0.01809
2406.95924	0.01785
2405.67347	0.01763
2404.38771	0.01756
2403.10194	0.01765
2401.81617	0.01772
2400.53040	0.01765
2399.24463	0.01801
2397.95886	0.01823
2396.67309	0.01820
2395.38732	0.01805
2394.10156	0.01783
2392.81579	0.01753
2391.53002	0.01717
2390.24425	0.01680
2388.95848	0.01645
2387.67271	0.01612
2386.38694	0.01588
2385.10117	0.01578
2383.81540	0.01580
2382.52964	0.01585
2381.24387	0.01582
2379.95810	0.01565
2378.67233	0.01541
2377.38656	0.01520
2376.10079	0.01492
2374.81502	0.01464
2373.52925	0.01456
2372.24349	0.01459
2370.95772	0.01460
2369.67195	0.01411
2368.38618	0.01323
2367.10041	0.01260
2365.81464	0.01222
2364.52887	0.01151
2363.24310	0.01065
2361.95733	0.01021
2360.67157	0.01021
2359.38580	0.01018
2358.10003	0.01024
2356.81426	0.01031
2355.52849	0.01013
2354.24272	0.00995
2352.95695	0.00997
2351.67118	0.01051
2350.38542	0.01161
2349.09965	0.01190
2347.81388	0.01042
2346.52811	0.00876
2345.24234	0.00875
2343.95657	0.01006
2342.67080	0.01114
2341.38503	0.01148
2340.09926	0.01141
2338.81350	0.01124
2337.52773	0.01133
2336.24196	0.01145
2334.95619	0.01160
2333.67042	0.01194
2332.38465	0.01219
2331.09888	0.01255
2329.81311	0.01312
2328.52735	0.01350
2327.24158	0.01385
2325.95581	0.01431
2324.67004	0.01460
2323.38427	0.01483
2322.09850	0.01494
2320.81273	0.01472
2319.52696	0.01458
2318.24119	0.01484
2316.95543	0.01534
2315.66966	0.01591
2314.38389	0.01642
2313.09812	0.01680
2311.81235	0.01689
2310.52658	0.01671
2309.24081	0.01642
2307.95504	0.01610
2306.66928	0.01577
2305.38351	0.01555
2304.09774	0.01543
2302.81197	0.01541
2301.52620	0.01548
2300.24043	0.01558
2298.95466	0.01564
2297.66889	0.01569
2296.38312	0.01577
2295.09736	0.01586
2293.81159	0.01587
2292.52582	0.01574
2291.24005	0.01556
2289.95428	0.01549
2288.66851	0.01559
2287.38274	0.01584
2286.09697	0.01611
2284.81121	0.01633
2283.52544	0.01648
2282.23967	0.01660
2280.95390	0.01671
2279.66813	0.01677
2278.38236	0.01668
2277.09659	0.01633
2275.81082	0.01574
2274.52505	0.01510
2273.23929	0.01459
2271.95352	0.01427
2270.66775	0.01411
2269.38198	0.01400
2268.09621	0.01386
2266.81044	0.01369
2265.52467	0.01345
2264.23890	0.01315
2262.95314	0.01286
2261.66737	0.01269
2260.38160	0.01272
2259.09583	0.01302
2257.81006	0.01348
2256.52429	0.01391
2255.23852	0.01418
2253.95275	0.01423
2252.66698	0.01401
2251.38122	0.01362
2250.09545	0.01336
2248.80968	0.01359
2247.52391	0.01407
2246.23814	0.01473
2244.95237	0.01506
2243.66660	0.01475
2242.38083	0.01393
2241.09507	0.01315
2239.80930	0.01292
2238.52353	0.01323
2237.23776	0.01374
2235.95199	0.01421
2234.66622	0.01458
2233.38045	0.01465
2232.09468	0.01413
2230.80891	0.01293
2229.52315	0.01140
2228.23738	0.01007
2226.95161	0.00942
2225.66584	0.00967
2224.38007	0.01054
2223.09430	0.01138
2221.80853	0.01164
2220.52276	0.01139
2219.23700	0.01121
2217.95123	0.01163
2216.66546	0.01256
2215.37969	0.01323
2214.09392	0.01283
2212.80815	0.01127
2211.52238	0.00941
2210.23661	0.00827
2208.95084	0.00822
2207.66508	0.00883
2206.37931	0.00954
2205.09354	0.01017
2203.80777	0.01065
2202.52200	0.01078
2201.23623	0.01032
2199.95046	0.00945
2198.66469	0.00867
2197.37893	0.00837
2196.09316	0.00860
2194.80739	0.00914
2193.52162	0.00952
2192.23585	0.00927
2190.95008	0.00836
2189.66431	0.00726
2188.37854	0.00633
2187.09277	0.00565
2185.80701	0.00546
2184.52124	0.00626
2183.23547	0.00806
2181.94970	0.00996
2180.66393	0.01104
2179.37816	0.01122
2178.09239	0.01109
2176.80662	0.01094
2175.52085	0.01055
2174.23509	0.00979
2172.94932	0.00905
2171.66355	0.00889
2170.37778	0.00920
2169.09201	0.00922
2167.80624	0.00842
2166.52047	0.00700
2165.23470	0.00557
2163.94894	0.00455
2162.66317	0.00408
2161.37740	0.00406
2160.09163	0.00398
2158.80586	0.00322
2157.52009	0.00187
2156.23432	0.00068
2154.94855	0.00033
2153.66278	0.00097
2152.37702	0.00229
2151.09125	0.00366
2149.80548	0.00438
2148.51971	0.00426
2147.23394	0.00391
2145.94817	0.00414
2144.66240	0.00515
2143.37663	0.00639
2142.09087	0.00718
2140.80510	0.00722
2139.51933	0.00671
2138.23356	0.00595
2136.94779	0.00516
2135.66202	0.00457
2134.37625	0.00447
2133.09048	0.00495
2131.80471	0.00570
2130.51895	0.00624
2129.23318	0.00640
2127.94741	0.00636
2126.66164	0.00637
2125.37587	0.00651
2124.09010	0.00676
2122.80433	0.00714
2121.51856	0.00766
2120.23280	0.00820
2118.94703	0.00854
2117.66126	0.00861
2116.37549	0.00852
2115.08972	0.00850
2113.80395	0.00870
2112.51818	0.00908
2111.23241	0.00940
2109.94664	0.00953
2108.66088	0.00954
2107.37511	0.00964
2106.08934	0.00981
2104.80357	0.00987
2103.51780	0.00960
2102.23203	0.00905
2100.94626	0.00848
2099.66049	0.00856
2098.37473	0.00878
2097.08896	0.00907
2095.80319	0.00942
2094.51742	0.00970
2093.23165	0.00989
2091.94588	0.00998
2090.66011	0.00993
2089.37434	0.00969
2088.08857	0.00927
2086.80281	0.00869
2085.51704	0.00804
2084.23127	0.00744
2082.94550	0.00704
2081.65973	0.00697
2080.37396	0.00727
2079.08819	0.00783
2077.80242	0.00843
2076.51666	0.00886
2075.23089	0.00907
2073.94512	0.00915
2072.65935	0.00913
2071.37358	0.00888
2070.08781	0.00831
2068.80204	0.00748
2067.51627	0.00664
2066.23050	0.00600
2064.94474	0.00561
2063.65897	0.00537
2062.37320	0.00518
2061.08743	0.00504
2059.80166	0.00506
2058.51589	0.00524
2057.23012	0.00545
2055.94435	0.00555
2054.65859	0.00567
2053.37282	0.00604
2052.08705	0.00662
2050.80128	0.00714
2049.51551	0.00734
2048.22974	0.00721
2046.94397	0.00687
2045.65820	0.00640
2044.37243	0.00590
2043.08667	0.00537
2041.80090	0.00469
2040.51513	0.00378
2039.22936	0.00281
2037.94359	0.00212
2036.65782	0.00178
2035.37205	0.00150
2034.08628	0.00102
2032.80052	0.00054
2031.51475	0.00060
2030.22898	0.00156
2028.94321	0.00319
2027.65744	0.00479
2026.37167	0.00572
2025.08590	0.00570
2023.80013	0.00491
2022.51436	0.00388
2021.22860	0.00318
2019.94283	0.00299
2018.65706	0.00295
2017.37129	0.00264
2016.08552	0.00211
2014.79975	0.00184
2013.51398	0.00231
2012.22821	0.00347
2010.94245	0.00469
2009.65668	0.00529
2008.37091	0.00510
2007.08514	0.00445
2005.79937	0.00376
2004.51360	0.00328
2003.22783	0.00316
2001.94206	0.00355
2000.65629	0.00438
1999.37053	0.00516
1998.08476	0.00530
1996.79899	0.00470
1995.51322	0.00391
1994.22745	0.00366
1992.94168	0.00425
1991.65591	0.00538
1990.37014	0.00647
1989.08438	0.00712
1987.79861	0.00730
1986.51284	0.00725
1985.22707	0.00721
1983.94130	0.00718
1982.65553	0.00707
1981.36976	0.00685
1980.08399	0.00670
1978.79822	0.00681
1977.51246	0.00723
1976.22669	0.00784
1974.94092	0.00839
1973.65515	0.00856
1972.36938	0.00818
1971.08361	0.00744
1969.79784	0.00676
1968.51207	0.00641
1967.22631	0.00639
1965.94054	0.00662
1964.65477	0.00702
1963.36900	0.00737
1962.08323	0.00740
1960.79746	0.00697
1959.51169	0.00633
1958.22592	0.00595
1956.94015	0.00616
1955.65439	0.00692
1954.36862	0.00785
1953.08285	0.00852
1951.79708	0.00875
1950.51131	0.00867
1949.22554	0.00850
1947.93977	0.00839
1946.65400	0.00830
1945.36823	0.00822
1944.08247	0.00816
1942.79670	0.00812
1941.51093	0.00806
1940.22516	0.00792
1938.93939	0.00776
1937.65362	0.00766
1936.36785	0.00767
1935.08208	0.00774
1933.79632	0.00781
1932.51055	0.00792
1931.22478	0.00809
1929.93901	0.00830
1928.65324	0.00849
1927.36747	0.00857
1926.08170	0.00857
1924.79593	0.00868
1923.51016	0.00904
1922.22440	0.00957
1920.93863	0.00989
1919.65286	0.00977
1918.36709	0.00942
1917.08132	0.00930
1915.79555	0.00960
1914.50978	0.01008
1913.22401	0.01041
1911.93825	0.01039
1910.65248	0.01012
1909.36671	0.00985
1908.08094	0.00978
1906.79517	0.00987
1905.50940	0.00999
1904.22363	0.01002
1902.93786	0.01000
1901.65209	0.01000
1900.36633	0.01005
1899.08056	0.01008
1897.79479	0.01005
1896.50902	0.00997
1895.22325	0.00987
1893.93748	0.00978
1892.65171	0.00974
1891.36594	0.00980
1890.08018	0.00997
1888.79441	0.01021
1887.50864	0.01041
1886.22287	0.01047
1884.93710	0.01042
1883.65133	0.01035
1882.36556	0.01033
1881.07979	0.01032
1879.79402	0.01022
1878.50826	0.01004
1877.22249	0.00988
1875.93672	0.00986
1874.65095	0.00997
1873.36518	0.01009
1872.07941	0.01009
1870.79364	0.00993
1869.50787	0.00974
1868.22211	0.00972
1866.93634	0.00993
1865.65057	0.01025
1864.36480	0.01057
1863.07903	0.01083
1861.79326	0.01099
1860.50749	0.01099
1859.22172	0.01086
1857.93595	0.01064
1856.65019	0.01044
1855.36442	0.01025
1854.07865	0.01009
1852.79288	0.00999
1851.50711	0.01000
1850.22134	0.01010
1848.93557	0.01025
1847.64980	0.01042
1846.36404	0.01053
1845.07827	0.01058
1843.79250	0.01062
1842.50673	0.01065
1841.22096	0.01060
1839.93519	0.01048
1838.64942	0.01037
1837.36365	0.01030
1836.07788	0.01024
1834.79212	0.01022
1833.50635	0.01027
1832.22058	0.01034
1830.93481	0.01035
1829.64904	0.01036
1828.36327	0.01039
1827.07750	0.01041
1825.79173	0.01043
1824.50597	0.01048
1823.22020	0.01056
1821.93443	0.01061
1820.64866	0.01064
1819.36289	0.01066
1818.07712	0.01069
1816.79135	0.01071
1815.50558	0.01070
1814.21981	0.01065
1812.93405	0.01054
1811.64828	0.01044
1810.36251	0.01045
1809.07674	0.01059
1807.79097	0.01078
1806.50520	0.01094
1805.21943	0.01105
1803.93366	0.01108
1802.64790	0.01102
1801.36213	0.01091
1800.07636	0.01086
1798.79059	0.01095
1797.50482	0.01119
1796.21905	0.01148
1794.93328	0.01164
1793.64751	0.01161
1792.36174	0.01148
1791.07598	0.01142
1789.79021	0.01144
1788.50444	0.01147
1787.21867	0.01148
1785.93290	0.01146
1784.64713	0.01148
1783.36136	0.01158
1782.07559	0.01171
1780.78983	0.01182
1779.50406	0.01191
1778.21829	0.01196
1776.93252	0.01202
1775.64675	0.01211
1774.36098	0.01223
1773.07521	0.01241
1771.78944	0.01270
1770.50367	0.01296
1769.21791	0.01305
1767.93214	0.01300
1766.64637	0.01298
1765.36060	0.01299
1764.07483	0.01297
1762.78906	0.01295
1761.50329	0.01300
1760.21752	0.01309
1758.93176	0.01311
1757.64599	0.01306
1756.36022	0.01305
1755.07445	0.01314
1753.78868	0.01318
1752.50291	0.01311
1751.21714	0.01305
1749.93137	0.01307
1748.64560	0.01309
1747.35984	0.01306
1746.07407	0.01303
1744.78830	0.01306
1743.50253	0.01312
1742.21676	0.01317
1740.93099	0.01318
1739.64522	0.01329
1738.35945	0.01357
1737.07369	0.01386
1735.78792	0.01396
1734.50215	0.01400
1733.21638	0.01416
1731.93061	0.01436
1730.64484	0.01435
1729.35907	0.01419
1728.07330	0.01410
1726.78753	0.01416
1725.50177	0.01428
1724.21600	0.01444
1722.93023	0.01468
1721.64446	0.01503
1720.35869	0.01537
1719.07292	0.01560
1717.78715	0.01580
1716.50138	0.01605
1715.21561	0.01631
1713.92985	0.01652
1712.64408	0.01670
1711.35831	0.01689
1710.07254	0.01708
1708.78677	0.01724
1707.50100	0.01735
1706.21523	0.01745
1704.92946	0.01768
1703.64370	0.01800
1702.35793	0.01823
1701.07216	0.01841
1699.78639	0.01879
1698.50062	0.01919
1697.21485	0.01924
1695.92908	0.01906
1694.64331	0.01906
1693.35754	0.01925
1692.07178	0.01937
1690.78601	0.01946
1689.50024	0.01972
1688.21447	0.02010
1686.92870	0.02033
1685.64293	0.02034
1684.35716	0.02038
1683.07139	0.02062
1681.78563	0.02084
1680.49986	0.02090
1679.21409	0.02095
1677.92832	0.02109
1676.64255	0.02127
1675.35678	0.02153
1674.07101	0.02188
1672.78524	0.02219
1671.49947	0.02233
1670.21371	0.02240
1668.92794	0.02258
1667.64217	0.02288
1666.35640	0.02313
1665.07063	0.02318
1663.78486	0.02310
1662.49909	0.02309
1661.21332	0.02322
1659.92756	0.02346
1658.64179	0.02383
1657.35602	0.02435
1656.07025	0.02485
1654.78448	0.02512
1653.49871	0.02534
1652.21294	0.02583
1650.92717	0.02646
1649.64140	0.02679
1648.35564	0.02673
1647.06987	0.02660
1645.78410	0.02665
1644.49833	0.02683
1643.21256	0.02701
1641.92679	0.02721
1640.64102	0.02752
1639.35525	0.02791
1638.06949	0.02822
1636.78372	0.02842
1635.49795	0.02869
1634.21218	0.02910
1632.92641	0.02949
1631.64064	0.02967
1630.35487	0.02971
1629.06910	0.02976
1627.78333	0.02991
1626.49757	0.03011
1625.21180	0.03027
1623.92603	0.03042
1622.64026	0.03068
1621.35449	0.03109
1620.06872	0.03148
1618.78295	0.03172
1617.49718	0.03189
1616.21142	0.03217
1614.92565	0.03258
1613.63988	0.03290
1612.35411	0.03306
1611.06834	0.03319
1609.78257	0.03341
1608.49680	0.03372
1607.21103	0.03407
1605.92526	0.03439
1604.63950	0.03468
1603.35373	0.03492
1602.06796	0.03515
1600.78219	0.03538
1599.49642	0.03561
1598.21065	0.03584
1596.92488	0.03606
1595.63911	0.03626
1594.35335	0.03641
1593.06758	0.03651
1591.78181	0.03660
1590.49604	0.03673
1589.21027	0.03691
1587.92450	0.03713
1586.63873	0.03732
1585.35296	0.03745
1584.06719	0.03752
1582.78143	0.03759
1581.49566	0.03774
1580.20989	0.03798
1578.92412	0.03815
1577.63835	0.03818
1576.35258	0.03818
1575.06681	0.03836
1573.78104	0.03859
1572.49528	0.03861
1571.20951	0.03841
1569.92374	0.03821
1568.63797	0.03813
1567.35220	0.03809
1566.06643	0.03804
1564.78066	0.03808
1563.49489	0.03826
1562.20912	0.03842
1560.92336	0.03837
1559.63759	0.03822
1558.35182	0.03817
1557.06605	0.03813
1555.78028	0.03785
1554.49451	0.03744
1553.20874	0.03715
1551.92297	0.03699
1550.63721	0.03682
1549.35144	0.03661
1548.06567	0.03643
1546.77990	0.03630
1545.49413	0.03622
1544.20836	0.03619
1542.92259	0.03610
1541.63682	0.03581
1540.35105	0.03544
1539.06529	0.03524
1537.77952	0.03525
1536.49375	0.03521
1535.20798	0.03499
1533.92221	0.03480
1532.63644	0.03487
1531.35067	0.03515
1530.06490	0.03543
1528.77914	0.03566
1527.49337	0.03594
1526.20760	0.03640
1524.92183	0.03704
1523.63606	0.03772
1522.35029	0.03839
1521.06452	0.03916
1519.77875	0.04007
1518.49298	0.04096
1517.20722	0.04175
1515.92145	0.04258
1514.63568	0.04354
1513.34991	0.04463
1512.06414	0.04590
1510.77837	0.04734
1509.49260	0.04879
1508.20683	0.05009
1506.92107	0.05134
1505.63530	0.05268
1504.34953	0.05401
1503.06376	0.05512
1501.77799	0.05602
1500.49222	0.05689
1499.20645	0.05779
1497.92068	0.05866
1496.63491	0.05949
1495.34915	0.06035
1494.06338	0.06122
1492.77761	0.06200
1491.49184	0.06270
1490.20607	0.06343
1488.92030	0.06423
1487.63453	0.06504
1486.34876	0.06588
1485.06299	0.06680
1483.77723	0.06781
1482.49146	0.06890
1481.20569	0.07005
1479.91992	0.07123
1478.63415	0.07241
1477.34838	0.07353
1476.06261	0.07454
1474.77684	0.07540
1473.49108	0.07610
1472.20531	0.07674
1470.91954	0.07733
1469.63377	0.07780
1468.34800	0.07807
1467.06223	0.07819
1465.77646	0.07829
1464.49069	0.07848
1463.20492	0.07881
1461.91916	0.07928
1460.63339	0.07981
1459.34762	0.08031
1458.06185	0.08077
1456.77608	0.08132
1455.49031	0.08195
1454.20454	0.08247
1452.91877	0.08272
1451.63301	0.08281
1450.34724	0.08283
1449.06147	0.08281
1447.77570	0.08276
1446.48993	0.08268
1445.20416	0.08251
1443.91839	0.08219
1442.63262	0.08177
1441.34685	0.08139
1440.06109	0.08107
1438.77532	0.08079
1437.48955	0.08059
1436.20378	0.08063
1434.91801	0.08096
1433.63224	0.08150
1432.34647	0.08221
1431.06070	0.08314
1429.77494	0.08429
1428.48917	0.08559
1427.20340	0.08697
1425.91763	0.08842
1424.63186	0.08996
1423.34609	0.09158
1422.06032	0.09308
1420.77455	0.09432
1419.48878	0.09536
1418.20302	0.09628
1416.91725	0.09703
1415.63148	0.09748
1414.34571	0.09765
1413.05994	0.09761
1411.77417	0.09736
1410.48840	0.09691
1409.20263	0.09624
1407.91687	0.09538
1406.63110	0.09433
1405.34533	0.09312
1404.05956	0.09174
1402.77379	0.09016
1401.48802	0.08835
1400.20225	0.08635
1398.91648	0.08429
1397.63071	0.08224
1396.34495	0.08016
1395.05918	0.07808
1393.77341	0.07607
1392.48764	0.07414
1391.20187	0.07219
1389.91610	0.07015
1388.63033	0.06807
1387.34456	0.06608
1386.05880	0.06423
1384.77303	0.06245
1383.48726	0.06067
1382.20149	0.05888
1380.91572	0.05709
1379.62995	0.05530
1378.34418	0.05351
1377.05841	0.05172
1375.77264	0.04992
1374.48688	0.04814
1373.20111	0.04642
1371.91534	0.04478
1370.62957	0.04323
1369.34380	0.04177
1368.05803	0.04043
1366.77226	0.03919
1365.48649	0.03800
1364.20073	0.03682
1362.91496	0.03567
1361.62919	0.03460
1360.34342	0.03365
1359.05765	0.03280
1357.77188	0.03203
1356.48611	0.03130
1355.20034	0.03059
1353.91457	0.02991
1352.62881	0.02925
1351.34304	0.02864
1350.05727	0.02807
1348.77150	0.02753
1347.48573	0.02701
1346.19996	0.02649
1344.91419	0.02601
1343.62842	0.02557
1342.34266	0.02514
1341.05689	0.02470
1339.77112	0.02426
1338.48535	0.02388
1337.19958	0.02354
1335.91381	0.02323
1334.62804	0.02293
1333.34227	0.02261
1332.05650	0.02230
1330.77074	0.02200
1329.48497	0.02173
1328.19920	0.02147
1326.91343	0.02121
1325.62766	0.02094
1324.34189	0.02069
1323.05612	0.02045
1321.77035	0.02024
1320.48459	0.02005
1319.19882	0.01985
1317.91305	0.01964
1316.62728	0.01941
1315.34151	0.01920
1314.05574	0.01902
1312.76997	0.01885
1311.48420	0.01867
1310.19843	0.01850
1308.91267	0.01837
1307.62690	0.01828
1306.34113	0.01819
1305.05536	0.01805
1303.76959	0.01786
1302.48382	0.01767
1301.19805	0.01753
1299.91228	0.01745
1298.62652	0.01739
1297.34075	0.01732
1296.05498	0.01726
1294.76921	0.01723
1293.48344	0.01721
1292.19767	0.01715
1290.91190	0.01703
1289.62613	0.01685
1288.34036	0.01664
1287.05460	0.01646
1285.76883	0.01632
1284.48306	0.01624
1283.19729	0.01621
1281.91152	0.01619
1280.62575	0.01614
1279.33998	0.01602
1278.05421	0.01588
1276.76845	0.01574
1275.48268	0.01563
1274.19691	0.01554
1272.91114	0.01545
1271.62537	0.01535
1270.33960	0.01526
1269.05383	0.01520
1267.76806	0.01516
1266.48229	0.01512
1265.19653	0.01506
1263.91076	0.01498
1262.62499	0.01487
1261.33922	0.01474
1260.05345	0.01460
1258.76768	0.01450
1257.48191	0.01446
1256.19614	0.01450
1254.91037	0.01457
1253.62461	0.01463
1252.33884	0.01463
1251.05307	0.01458
1249.76730	0.01449
1248.48153	0.01443
1247.19576	0.01441
1245.90999	0.01441
1244.62422	0.01439
1243.33846	0.01435
1242.05269	0.01430
1240.76692	0.01429
1239.48115	0.01431
1238.19538	0.01435
1236.90961	0.01440
1235.62384	0.01445
1234.33807	0.01448
1233.05230	0.01449
1231.76654	0.01446
1230.48077	0.01439
1229.19500	0.01430
1227.90923	0.01423
1226.62346	0.01422
1225.33769	0.01427
1224.05192	0.01435
1222.76615	0.01446
1221.48039	0.01457
1220.19462	0.01468
1218.90885	0.01477
1217.62308	0.01484
1216.33731	0.01490
1215.05154	0.01495
1213.76577	0.01500
1212.48000	0.01502
1211.19423	0.01504
1209.90847	0.01507
1208.62270	0.01517
1207.33693	0.01533
1206.05116	0.01552
1204.76539	0.01568
1203.47962	0.01582
1202.19385	0.01595
1200.90808	0.01607
1199.62232	0.01617
1198.33655	0.01631
1197.05078	0.01641
1195.76501	0.01649
1194.47924	0.01656
1193.19347	0.01661
1191.90770	0.01666
1190.62193	0.01674
1189.33616	0.01683
1188.05040	0.01692
1186.76463	0.01700
1185.47886	0.01706
1184.19309	0.01711
1182.90732	0.01716
1181.62155	0.01720
1180.33578	0.01723
1179.05001	0.01724
1177.76425	0.01724
1176.47848	0.01726
1175.19271	0.01734
1173.90694	0.01752
1172.62117	0.01774
1171.33540	0.01791
1170.04963	0.01800
1168.76386	0.01811
1167.47809	0.01829
1166.19233	0.01852
1164.90656	0.01874
1163.62079	0.01891
1162.33502	0.01909
1161.04925	0.01931
1159.76348	0.01956
1158.47771	0.01982
1157.19194	0.02014
1155.90618	0.02053
1154.62041	0.02095
1153.33464	0.02136
1152.04887	0.02180
1150.76310	0.02231
1149.47733	0.02288
1148.19156	0.02349
1146.90579	0.02412
1145.62002	0.02474
1144.33426	0.02535
1143.04849	0.02596
1141.76272	0.02665
1140.47695	0.02749
1139.19118	0.02852
1137.90541	0.02973
1136.61964	0.03106
1135.33387	0.03251
1134.04811	0.03406
1132.76234	0.03577
1131.47657	0.03767
1130.19080	0.03981
1128.90503	0.04220
1127.61926	0.04480
1126.33349	0.04760
1125.04772	0.05065
1123.76195	0.05398
1122.47619	0.05754
1121.19042	0.06117
1119.90465	0.06476
1118.61888	0.06831
1117.33311	0.07186
1116.04734	0.07549
1114.76157	0.07917
1113.47580	0.08283
1112.19004	0.08641
1110.90427	0.08987
1109.61850	0.09320
1108.33273	0.09645
1107.04696	0.09968
1105.76119	0.10293
1104.47542	0.10615
1103.18965	0.10928
1101.90388	0.11228
1100.61812	0.11514
1099.33235	0.11791
1098.04658	0.12063
1096.76081	0.12329
1095.47504	0.12585
1094.18927	0.12824
1092.90350	0.13044
1091.61773	0.13252
1090.33197	0.13452
1089.04620	0.13646
1087.76043	0.13831
1086.47466	0.14008
1085.18889	0.14182
1083.90312	0.14366
1082.61735	0.14570
1081.33158	0.14799
1080.04581	0.15052
1078.76005	0.15324
1077.47428	0.15612
1076.18851	0.15915
1074.90274	0.16233
1073.61697	0.16566
1072.33120	0.16913
1071.04543	0.17271
1069.75966	0.17642
1068.47390	0.18027
1067.18813	0.18428
1065.90236	0.18839
1064.61659	0.19254
1063.33082	0.19672
1062.04505	0.20097
1060.75928	0.20531
1059.47351	0.20969
1058.18774	0.21402
1056.90198	0.21824
1055.61621	0.22238
1054.33044	0.22654
1053.04467	0.23081
1051.75890	0.23520
1050.47313	0.23970
1049.18736	0.24431
1047.90159	0.24902
1046.61583	0.25385
1045.33006	0.25879
1044.04429	0.26386
1042.75852	0.26905
1041.47275	0.27430
1040.18698	0.27957
1038.90121	0.28487
1037.61544	0.29024
1036.32967	0.29571
1035.04391	0.30121
1033.75814	0.30655
1032.47237	0.31148
1031.18660	0.31584
1029.90083	0.31965
1028.61506	0.32298
1027.32929	0.32595
1026.04352	0.32852
1024.75775	0.33055
1023.47199	0.33186
1022.18622	0.33237
1020.90045	0.33211
1019.61468	0.33115
1018.32891	0.32955
1017.04314	0.32726
1015.75737	0.32424
1014.47160	0.32047
1013.18584	0.31594
1011.90007	0.31063
1010.61430	0.30452
1009.32853	0.29762
1008.04276	0.29001
1006.75699	0.28178
1005.47122	0.27302
1004.18545	0.26381
1002.89968	0.25426
1001.61392	0.24446
1000.32815	0.23447
999.04238	0.22433
997.75661	0.21419
996.47084	0.20420
995.18507	0.19443
993.89930	0.18488
992.61353	0.17560
991.32777	0.16671
990.04200	0.15827
988.75623	0.15031
987.47046	0.14283
986.18469	0.13582
984.89892	0.12926
983.61315	0.12311
982.32738	0.11734
981.04161	0.11196
979.75585	0.10701
978.47008	0.10248
977.18431	0.09838
975.89854	0.09479
974.61277	0.09182
973.32700	0.08956
972.04123	0.08803
970.75546	0.08720
969.46970	0.08708
968.18393	0.08766
966.89816	0.08884
965.61239	0.09037
964.32662	0.09194
963.04085	0.09322
961.75508	0.09391
960.46931	0.09380
959.18354	0.09279
957.89778	0.09096
956.61201	0.08846
955.32624	0.08552
954.04047	0.08239
952.75470	0.07929
951.46893	0.07634
950.18316	0.07355
948.89739	0.07087
947.61163	0.06830
946.32586	0.06587
945.04009	0.06361
943.75432	0.06149
942.46855	0.05946
941.18278	0.05746
939.89701	0.05554
938.61124	0.05376
937.32547	0.05218
936.03971	0.05079
934.75394	0.04959
933.46817	0.04854
932.18240	0.04758
930.89663	0.04669
929.61086	0.04583
928.32509	0.04501
927.03932	0.04419
925.75356	0.04335
924.46779	0.04250
923.18202	0.04170
921.89625	0.04104
920.61048	0.04059
919.32471	0.04028
918.03894	0.03997
916.75317	0.03955
915.46740	0.03903
914.18164	0.03851
912.89587	0.03809
911.61010	0.03779
910.32433	0.03753
909.03856	0.03722
907.75279	0.03678
906.46702	0.03626
905.18125	0.03579
903.89549	0.03547
902.60972	0.03529
901.32395	0.03517
900.03818	0.03504
898.75241	0.03491
897.46664	0.03483
896.18087	0.03477
894.89510	0.03472
893.60933	0.03469
892.32357	0.03473
891.03780	0.03487
889.75203	0.03509
888.46626	0.03544
887.18049	0.03609
885.89472	0.03727
884.60895	0.03918
883.32318	0.04183
882.03742	0.04493
880.75165	0.04796
879.46588	0.05041
878.18011	0.05219
876.89434	0.05363
875.60857	0.05519
874.32280	0.05693
873.03703	0.05844
871.75126	0.05918
870.46550	0.05885
869.17973	0.05750
867.89396	0.05540
866.60819	0.05284
865.32242	0.05010
864.03665	0.04742
862.75088	0.04498
861.46511	0.04281
860.17935	0.04093
858.89358	0.03937
857.60781	0.03814
856.32204	0.03721
855.03627	0.03648
853.75050	0.03587
852.46473	0.03537
851.17896	0.03497
849.89319	0.03462
848.60743	0.03428
847.32166	0.03394
846.03589	0.03361
844.75012	0.03335
843.46435	0.03315
842.17858	0.03300
840.89281	0.03283
839.60704	0.03261
838.32128	0.03235
837.03551	0.03209
835.74974	0.03189
834.46397	0.03177
833.17820	0.03170
831.89243	0.03166
830.60666	0.03159
829.32089	0.03149
828.03512	0.03135
826.74936	0.03118
825.46359	0.03100
824.17782	0.03085
822.89205	0.03077
821.60628	0.03074
820.32051	0.03072
819.03474	0.03071
817.74897	0.03069
816.46321	0.03066
815.17744	0.03060
813.89167	0.03053
812.60590	0.03051
811.32013	0.03053
810.03436	0.03055
808.74859	0.03052
807.46282	0.03047
806.17705	0.03039
804.89129	0.03031
803.60552	0.03023
802.31975	0.03019
801.03398	0.03015
799.74821	0.03009
798.46244	0.02998
797.17667	0.02986
795.89090	0.02983
794.60513	0.02993
793.31937	0.03008
792.03360	0.03016
790.74783	0.03013
789.46206	0.03003
788.17629	0.02995
786.89052	0.02992
785.60475	0.02995
784.31898	0.03000
783.03322	0.03001
781.74745	0.02996
780.46168	0.02988
779.17591	0.02983
777.89014	0.02987
776.60437	0.02999
775.31860	0.03011
774.03283	0.03017
772.74706	0.03016
771.46130	0.03015
770.17553	0.03018
768.88976	0.03023
767.60399	0.03024
766.31822	0.03016
765.03245	0.03001
763.74668	0.02986
762.46091	0.02979
761.17515	0.02986
759.88938	0.03003
758.60361	0.03023
757.31784	0.03039
756.03207	0.03048
754.74630	0.03046
753.46053	0.03036
752.17476	0.03023
750.88899	0.03012
749.60323	0.03006
748.31746	0.03005
747.03169	0.03009
745.74592	0.03021
744.46015	0.03037
743.17438	0.03053
741.88861	0.03062
740.60284	0.03059
739.31708	0.03047
738.03131	0.03037
736.74554	0.03039
735.45977	0.03051
734.17400	0.03063
732.88823	0.03069
731.60246	0.03069
730.31669	0.03066
729.03092	0.03062
727.74516	0.03062
726.45939	0.03067
725.17362	0.03078
723.88785	0.03084
722.60208	0.03102
721.31631	0.03121
720.03054	0.03135
718.74477	0.03145
717.45901	0.03143
716.17324	0.03133
714.88747	0.03121
713.60170	0.03110
712.31593	0.03100
711.03016	0.03093
709.74439	0.03086
708.45862	0.03078
707.17285	0.03069
705.88709	0.03063
704.60132	0.03059
703.31555	0.03057
702.02978	0.03056
700.74401	0.03056
699.45824	0.03059
698.17247	0.03065
696.88670	0.03073
695.60094	0.03080
694.31517	0.03085
693.02940	0.03087
691.74363	0.03088
690.45786	0.03089
689.17209	0.03092
687.88632	0.03094
686.60055	0.03090
685.31478	0.03079
684.02902	0.03065
682.74325	0.03055
681.45748	0.03052
680.17171	0.03052
678.88594	0.03051
677.60017	0.03046
676.31440	0.03042
675.02863	0.03046
673.74287	0.03073
672.45710	0.03138
671.17133	0.03216
669.88556	0.03217
668.59979	0.03120
667.31402	0.03129
666.02825	0.03222
664.74248	0.03213
663.45671	0.03142
662.17095	0.03090
660.88518	0.03068
659.59941	0.03064
658.31364	0.03072
657.02787	0.03086
655.74210	0.03102
654.45633	0.03116
653.17056	0.03124
651.88480	0.03127
650.59903	0.03126
649.31326	0.03124
648.02749	0.03126
646.74172	0.03134
645.45595	0.03144
644.17018	0.03157
642.88441	0.03171
641.59864	0.03186
640.31288	0.03205
639.02711	0.03229
637.74134	0.03256
636.45557	0.03286
635.16980	0.03317
633.88403	0.03353
632.59826	0.03400
631.31249	0.03472
630.02673	0.03575
628.74096	0.03677
627.45519	0.03728
626.16942	0.03896
624.88365	0.04149
623.59788	0.04421
622.31211	0.04681
621.02634	0.04915
619.74057	0.05138
618.45481	0.05387
617.16904	0.05690
615.88327	0.06051
614.59750	0.06485
613.31173	0.07022
612.02596	0.07654
610.74019	0.08304
609.45442	0.08908
608.16866	0.09512
606.88289	0.10202
605.59712	0.10938
604.31135	0.11533
603.02558	0.11810
601.73981	0.11748
600.45404	0.11457
599.16827	0.11064
597.88250	0.10644
596.59674	0.10221
595.31097	0.09805
594.02520	0.09416
592.73943	0.09090
591.45366	0.08853
590.16789	0.08715
588.88212	0.08667
587.59635	0.08698
586.31059	0.08801
585.02482	0.08970
583.73905	0.09201
582.45328	0.09489
581.16751	0.09822
579.88174	0.10187
578.59597	0.10568
577.31020	0.10949
576.02443	0.11319
574.73867	0.11673
573.45290	0.12011
572.16713	0.12348
570.88136	0.12710
569.59559	0.13133
568.30982	0.13629
567.02405	0.14176
565.73828	0.14723
564.45251	0.15202
563.16675	0.15546
561.88098	0.15689
560.59521	0.15590
559.30944	0.15237
558.02367	0.14652
556.73790	0.13893
555.45213	0.13030
554.16636	0.12136
552.88060	0.11272
551.59483	0.10473
550.30906	0.09758
549.02329	0.09124
547.73752	0.08563
546.45175	0.08059
545.16598	0.07605
543.88021	0.07199
542.59444	0.06843
541.30868	0.06535
540.02291	0.06267
538.73714	0.06028
537.45137	0.05808
536.16560	0.05599
534.87983	0.05403
533.59406	0.05224
532.30829	0.05063
531.02253	0.04917
529.73676	0.04782
528.45099	0.04659
527.16522	0.04548
525.87945	0.04449
524.59368	0.04358
523.30791	0.04266
522.02214	0.04169
520.73637	0.04071
519.45061	0.03978
518.16484	0.03894
516.87907	0.03815
515.59330	0.03739
514.30753	0.03667
513.02176	0.03604
511.73599	0.03549
510.45022	0.03499
509.16446	0.03446
507.87869	0.03391
506.59292	0.03339
505.30715	0.03297
504.02138	0.03266
502.73561	0.03239
501.44984	0.03207
500.16407	0.03167
498.87830	0.03123
497.59254	0.03080
496.30677	0.03040
495.02100	0.03005
493.73523	0.02979
492.44946	0.02963
491.16369	0.02947
489.87792	0.02924
488.59215	0.02895
487.30639	0.02870
486.02062	0.02858
484.73485	0.02861
483.44908	0.02873
482.16331	0.02888
480.87754	0.02904
479.59177	0.02920
478.30600	0.02938
477.02023	0.02960
475.73447	0.02986
474.44870	0.03012
473.16293	0.03036
471.87716	0.03055
470.59139	0.03066
469.30562	0.03061
468.01985	0.03040
466.73408	0.03005
465.44832	0.02964
464.16255	0.02922
462.87678	0.02880
461.59101	0.02839
460.30524	0.02798
459.01947	0.02755
457.73370	0.02711
456.44793	0.02668
455.16216	0.02628
453.87640	0.02595
452.59063	0.02574
451.30486	0.02562
450.01909	0.02552
448.73332	0.02539
447.44755	0.02519
446.16178	0.02495
444.87601	0.02469
443.59025	0.02446
442.30448	0.02428
441.01871	0.02416
439.73294	0.02404
438.44717	0.02391
437.16140	0.02377
435.87563	0.02366
434.58986	0.02362
433.30409	0.02363
432.01833	0.02365
430.73256	0.02363
429.44679	0.02354
428.16102	0.02341
426.87525	0.02329
425.58948	0.02322
424.30371	0.02320
423.01794	0.02319
421.73218	0.02313
420.44641	0.02298
419.16064	0.02280
417.87487	0.02264
416.58910	0.02248
415.30333	0.02230
414.01756	0.02214
412.73179	0.02204
411.44602	0.02202
410.16026	0.02208
408.87449	0.02219
407.58872	0.02229
406.30295	0.02236
405.01718	0.02239
403.73141	0.02244
402.44564	0.02254
401.15987	0.02269
399.87411	0.02285
