3997.45528	0.05668
3996.16951	0.05608
3994.88374	0.05582
3993.59798	0.05595
3992.31221	0.05624
3991.02644	0.05652
3989.74067	0.05678
3988.45490	0.05691
3987.16913	0.05681
3985.88336	0.05653
3984.59759	0.05625
3983.31183	0.05616
3982.02606	0.05635
3980.74029	0.05673
3979.45452	0.05702
3978.16875	0.05694
3976.88298	0.05636
3975.59721	0.05559
3974.31144	0.05514
3973.02567	0.05537
3971.73991	0.05627
3970.45414	0.05746
3969.16837	0.05855
3967.88260	0.05932
3966.59683	0.05979
3965.31106	0.06005
3964.02529	0.06009
3962.73952	0.05976
3961.45376	0.05890
3960.16799	0.05759
3958.88222	0.05627
3957.59645	0.05535
3956.31068	0.05497
3955.02491	0.05498
3953.73914	0.05517
3952.45337	0.05531
3951.16760	0.05522
3949.88184	0.05499
3948.59607	0.05508
3947.31030	0.05579
3946.02453	0.05680
3944.73876	0.05734
3943.45299	0.05708
3942.16722	0.05644
3940.88145	0.05611
3939.59569	0.05629
3938.30992	0.05662
3937.02415	0.05674
3935.73838	0.05661
3934.45261	0.05631
3933.16684	0.05587
3931.88107	0.05533
3930.59530	0.05478
3929.30953	0.05433
3928.02377	0.05398
3926.73800	0.05363
3925.45223	0.05319
3924.16646	0.05278
3922.88069	0.05260
3921.59492	0.05280
3920.30915	0.05329
3919.02338	0.05383
3917.73762	0.05408
3916.45185	0.05390
3915.16608	0.05339
3913.88031	0.05293
3912.59454	0.05286
3911.30877	0.05327
3910.02300	0.05393
3908.73723	0.05441
3907.45146	0.05432
3906.16570	0.05370
3904.87993	0.05308
3903.59416	0.05302
3902.30839	0.05363
3901.02262	0.05451
3899.73685	0.05526
3898.45108	0.05585
3897.16531	0.05639
3895.87955	0.05686
3894.59378	0.05702
3893.30801	0.05667
3892.02224	0.05582
3890.73647	0.05469
3889.45070	0.05352
3888.16493	0.05254
3886.87916	0.05198
3885.59339	0.05207
3884.30763	0.05287
3883.02186	0.05414
3881.73609	0.05540
3880.45032	0.05611
3879.16455	0.05591
3877.87878	0.05489
3876.59301	0.05360
3875.30724	0.05261
3874.02148	0.05219
3872.73571	0.05225
3871.44994	0.05265
3870.16417	0.05318
3868.87840	0.05354
3867.59263	0.05336
3866.30686	0.05255
3865.02109	0.05147
3863.73532	0.05070
3862.44956	0.05059
3861.16379	0.05103
3859.87802	0.05157
3858.59225	0.05181
3857.30648	0.05168
3856.02071	0.05138
3854.73494	0.05115
3853.44917	0.05103
3852.16341	0.05089
3850.87764	0.05073
3849.59187	0.05068
3848.30610	0.05074
3847.02033	0.05080
3845.73456	0.05080
3844.44879	0.05089
3843.16302	0.05117
3841.87725	0.05148
3840.59149	0.05161
3839.30572	0.05161
3838.01995	0.05181
3836.73418	0.05234
3835.44841	0.05289
3834.16264	0.05303
3832.87687	0.05268
3831.59110	0.05220
3830.30534	0.05194
3829.01957	0.05195
3827.73380	0.05199
3826.44803	0.05179
3825.16226	0.05128
3823.87649	0.05064
3822.59072	0.05015
3821.30495	0.04993
3820.01918	0.04988
3818.73342	0.04986
3817.44765	0.04980
3816.16188	0.04973
3814.87611	0.04967
3813.59034	0.04974
3812.30457	0.05009
3811.01880	0.05072
3809.73303	0.05133
3808.44726	0.05148
3807.16150	0.05104
3805.87573	0.05032
3804.58996	0.04984
3803.30419	0.04988
3802.01842	0.05037
3800.73265	0.05098
3799.44688	0.05141
3798.16111	0.05156
3796.87535	0.05158
3795.58958	0.05155
3794.30381	0.05134
3793.01804	0.05076
3791.73227	0.04994
3790.44650	0.04934
3789.16073	0.04930
3787.87496	0.04977
3786.58919	0.05038
3785.30343	0.05082
3784.01766	0.05107
3782.73189	0.05125
3781.44612	0.05137
3780.16035	0.05119
3778.87458	0.05044
3777.58881	0.04926
3776.30304	0.04832
3775.01728	0.04831
3773.73151	0.04923
3772.44574	0.05029
3771.15997	0.05058
3769.87420	0.04984
3768.58843	0.04856
3767.30266	0.04750
3766.01689	0.04718
3764.73112	0.04769
3763.44536	0.04873
3762.15959	0.04978
3760.87382	0.05032
3759.58805	0.05016
3758.30228	0.04953
3757.01651	0.04885
3755.73074	0.04834
3754.44497	0.04795
3753.15921	0.04753
3751.87344	0.04701
3750.58767	0.04659
3749.30190	0.04648
3748.01613	0.04677
3746.73036	0.04732
3745.44459	0.04794
3744.15882	0.04848
3742.87305	0.04885
3741.58729	0.04891
3740.30152	0.04865
3739.01575	0.04815
3737.72998	0.04762
3736.44421	0.04719
3735.15844	0.04689
3733.87267	0.04668
3732.58690	0.04652
3731.30114	0.04633
3730.01537	0.04603
3728.72960	0.04565
3727.44383	0.04546
3726.15806	0.04578
3724.87229	0.04652
3723.58652	0.04714
3722.30075	0.04715
3721.01498	0.04658
3719.72922	0.04589
3718.44345	0.04553
3717.15768	0.04570
3715.87191	0.04630
3714.58614	0.04709
3713.30037	0.04779
3712.01460	0.04820
3710.72883	0.04829
3709.44307	0.04816
3708.15730	0.04802
3706.87153	0.04806
3705.58576	0.04837
3704.29999	0.04886
3703.01422	0.04929
3701.72845	0.04940
3700.44268	0.04907
3699.15691	0.04834
3697.87115	0.04744
3696.58538	0.04662
3695.29961	0.04609
3694.01384	0.04585
3692.72807	0.04574
3691.44230	0.04561
3690.15653	0.04542
3688.87076	0.04524
3687.58500	0.04509
3686.29923	0.04500
3685.01346	0.04507
3683.72769	0.04540
3682.44192	0.04584
3681.15615	0.04607
3679.87038	0.04576
3678.58461	0.04497
3677.29884	0.04416
3676.01308	0.04385
3674.72731	0.04424
3673.44154	0.04505
3672.15577	0.04582
3670.87000	0.04628
3669.58423	0.04646
3668.29846	0.04646
3667.01269	0.04637
3665.72693	0.04636
3664.44116	0.04655
3663.15539	0.04699
3661.86962	0.04753
3660.58385	0.04809
3659.29808	0.04862
3658.01231	0.04910
3656.72654	0.04932
3655.44077	0.04901
3654.15501	0.04814
3652.86924	0.04701
3651.58347	0.04616
3650.29770	0.04592
3649.01193	0.04621
3647.72616	0.04669
3646.44039	0.04712
3645.15462	0.04750
3643.86886	0.04788
3642.58309	0.04824
3641.29732	0.04861
3640.01155	0.04908
3638.72578	0.04965
3637.44001	0.05018
3636.15424	0.05051
3634.86847	0.05062
3633.58270	0.05048
3632.29694	0.05004
3631.01117	0.04937
3629.72540	0.04883
3628.43963	0.04885
3627.15386	0.04946
3625.86809	0.05020
3624.58232	0.05061
3623.29655	0.05064
3622.01079	0.05048
3620.72502	0.05030
3619.43925	0.05022
3618.15348	0.05041
3616.86771	0.05097
3615.58194	0.05173
3614.29617	0.05233
3613.01040	0.05245
3611.72463	0.05200
3610.43887	0.05128
3609.15310	0.05079
3607.86733	0.05099
3606.58156	0.05180
3605.29579	0.05265
3604.01002	0.05307
3602.72425	0.05314
3601.43848	0.05335
3600.15272	0.05391
3598.86695	0.05452
3597.58118	0.05478
3596.29541	0.05458
3595.00964	0.05419
3593.72387	0.05389
3592.43810	0.05379
3591.15233	0.05379
3589.86656	0.05381
3588.58080	0.05380
3587.29503	0.05383
3586.00926	0.05397
3584.72349	0.05431
3583.43772	0.05497
3582.15195	0.05592
3580.86618	0.05687
3579.58041	0.05741
3578.29464	0.05746
3577.00888	0.05740
3575.72311	0.05762
3574.43734	0.05809
3573.15157	0.05840
3571.86580	0.05830
3570.58003	0.05812
3569.29426	0.05833
3568.00849	0.05900
3566.72273	0.05968
3565.43696	0.05995
3564.15119	0.05987
3562.86542	0.05974
3561.57965	0.05969
3560.29388	0.05957
3559.00811	0.05927
3557.72234	0.05889
3556.43657	0.05856
3555.15081	0.05835
3553.86504	0.05827
3552.57927	0.05837
3551.29350	0.05875
3550.00773	0.05944
3548.72196	0.06018
3547.43619	0.06060
3546.15042	0.06054
3544.86466	0.06029
3543.57889	0.06032
3542.29312	0.06084
3541.00735	0.06158
3539.72158	0.06213
3538.43581	0.06231
3537.15004	0.06222
3535.86427	0.06205
3534.57850	0.06191
3533.29274	0.06186
3532.00697	0.06197
3530.72120	0.06227
3529.43543	0.06269
3528.14966	0.06315
3526.86389	0.06364
3525.57812	0.06418
3524.29235	0.06475
3523.00659	0.06522
3521.72082	0.06540
3520.43505	0.06521
3519.14928	0.06479
3517.86351	0.06440
3516.57774	0.06420
3515.29197	0.06418
3514.00620	0.06427
3512.72043	0.06448
3511.43467	0.06479
3510.14890	0.06502
3508.86313	0.06509
3507.57736	0.06511
3506.29159	0.06528
3505.00582	0.06554
3503.72005	0.06565
3502.43428	0.06548
3501.14852	0.06526
3499.86275	0.06526
3498.57698	0.06554
3497.29121	0.06591
3496.00544	0.06622
3494.71967	0.06641
3493.43390	0.06652
3492.14813	0.06657
3490.86236	0.06657
3489.57660	0.06655
3488.29083	0.06652
3487.00506	0.06652
3485.71929	0.06658
3484.43352	0.06677
3483.14775	0.06710
3481.86198	0.06746
3480.57621	0.06769
3479.29045	0.06777
3478.00468	0.06779
3476.71891	0.06785
3475.43314	0.06804
3474.14737	0.06838
3472.86160	0.06890
3471.57583	0.06951
3470.29006	0.07001
3469.00429	0.07018
3467.71853	0.06989
3466.43276	0.06925
3465.14699	0.06856
3463.86122	0.06817
3462.57545	0.06824
3461.28968	0.06863
3460.00391	0.06916
3458.71814	0.06981
3457.43238	0.07057
3456.14661	0.07122
3454.86084	0.07143
3453.57507	0.07107
3452.28930	0.07035
3451.00353	0.06961
3449.71776	0.06908
3448.43199	0.06897
3447.14622	0.06940
3445.86046	0.07034
3444.57469	0.07146
3443.28892	0.07234
3442.00315	0.07274
3440.71738	0.07271
3439.43161	0.07246
3438.14584	0.07213
3436.86007	0.07175
3435.57431	0.07145
3434.28854	0.07137
3433.00277	0.07161
3431.71700	0.07199
3430.43123	0.07229
3429.14546	0.07245
3427.85969	0.07261
3426.57392	0.07281
3425.28815	0.07286
3424.00239	0.07265
3422.71662	0.07235
3421.43085	0.07223
3420.14508	0.07235
3418.85931	0.07249
3417.57354	0.07252
3416.28777	0.07252
3415.00200	0.07260
3413.71624	0.07276
3412.43047	0.07294
3411.14470	0.07315
3409.85893	0.07341
3408.57316	0.07363
3407.28739	0.07368
3406.00162	0.07359
3404.71585	0.07355
3403.43008	0.07368
3402.14432	0.07387
3400.85855	0.07397
3399.57278	0.07396
3398.28701	0.07392
3397.00124	0.07381
3395.71547	0.07365
3394.42970	0.07358
3393.14393	0.07373
3391.85817	0.07400
3390.57240	0.07421
3389.28663	0.07428
3388.00086	0.07426
3386.71509	0.07423
3385.42932	0.07412
3384.14355	0.07386
3382.85778	0.07348
3381.57201	0.07318
3380.28625	0.07312
3379.00048	0.07330
3377.71471	0.07358
3376.42894	0.07384
3375.14317	0.07404
3373.85740	0.07418
3372.57163	0.07425
3371.28586	0.07432
3370.00010	0.07444
3368.71433	0.07457
3367.42856	0.07461
3366.14279	0.07450
3364.85702	0.07434
3363.57125	0.07425
3362.28548	0.07433
3360.99971	0.07460
3359.71394	0.07496
3358.42818	0.07527
3357.14241	0.07547
3355.85664	0.07568
3354.57087	0.07595
3353.28510	0.07607
3351.99933	0.07578
3350.71356	0.07511
3349.42779	0.07447
3348.14202	0.07418
3346.85626	0.07423
3345.57049	0.07438
3344.28472	0.07440
3342.99895	0.07430
3341.71318	0.07414
3340.42741	0.07400
3339.14164	0.07391
3337.85587	0.07392
3336.57011	0.07412
3335.28434	0.07449
3333.99857	0.07482
3332.71280	0.07485
3331.42703	0.07458
3330.14126	0.07431
3328.85549	0.07430
3327.56972	0.07454
3326.28395	0.07475
3324.99819	0.07473
3323.71242	0.07453
3322.42665	0.07439
3321.14088	0.07443
3319.85511	0.07455
3318.56934	0.07453
3317.28357	0.07434
3315.99780	0.07417
3314.71204	0.07420
3313.42627	0.07437
3312.14050	0.07451
3310.85473	0.07458
3309.56896	0.07474
3308.28319	0.07501
3306.99742	0.07517
3305.71165	0.07503
3304.42588	0.07471
3303.14012	0.07443
3301.85435	0.07427
3300.56858	0.07410
3299.28281	0.07380
3297.99704	0.07342
3296.71127	0.07312
3295.42550	0.07303
3294.13973	0.07309
3292.85397	0.07322
3291.56820	0.07338
3290.28243	0.07362
3288.99666	0.07393
3287.71089	0.07412
3286.42512	0.07400
3285.13935	0.07361
3283.85358	0.07319
3282.56781	0.07299
3281.28205	0.07309
3279.99628	0.07340
3278.71051	0.07373
3277.42474	0.07382
3276.13897	0.07352
3274.85320	0.07297
3273.56743	0.07250
3272.28166	0.07238
3270.99590	0.07262
3269.71013	0.07301
3268.42436	0.07333
3267.13859	0.07343
3265.85282	0.07330
3264.56705	0.07306
3263.28128	0.07289
3261.99551	0.07284
3260.70974	0.07289
3259.42398	0.07305
3258.13821	0.07338
3256.85244	0.07390
3255.56667	0.07441
3254.28090	0.07464
3252.99513	0.07449
3251.70936	0.07409
3250.42359	0.07360
3249.13783	0.07315
3247.85206	0.07279
3246.56629	0.07257
3245.28052	0.07248
3243.99475	0.07240
3242.70898	0.07218
3241.42321	0.07175
3240.13744	0.07118
3238.85167	0.07068
3237.56591	0.07045
3236.28014	0.07062
3234.99437	0.07108
3233.70860	0.07163
3232.42283	0.07203
3231.13706	0.07217
3229.85129	0.07210
3228.56552	0.07195
3227.27976	0.07177
3225.99399	0.07160
3224.70822	0.07136
3223.42245	0.07102
3222.13668	0.07058
3220.85091	0.07011
3219.56514	0.06973
3218.27937	0.06953
3216.99360	0.06952
3215.70784	0.06964
3214.42207	0.06970
3213.13630	0.06956
3211.85053	0.06920
3210.56476	0.06881
3209.27899	0.06862
3207.99322	0.06868
3206.70745	0.06881
3205.42169	0.06881
3204.13592	0.06869
3202.85015	0.06859
3201.56438	0.06856
3200.27861	0.06852
3198.99284	0.06831
3197.70707	0.06794
3196.42130	0.06760
3195.13553	0.06751
3193.84977	0.06767
3192.56400	0.06789
3191.27823	0.06792
3189.99246	0.06773
3188.70669	0.06751
3187.42092	0.06742
3186.13515	0.06747
3184.84938	0.06754
3183.56362	0.06759
3182.27785	0.06768
3180.99208	0.06791
3179.70631	0.06817
3178.42054	0.06831
3177.13477	0.06824
3175.84900	0.06799
3174.56323	0.06770
3173.27746	0.06748
3171.99170	0.06736
3170.70593	0.06721
3169.42016	0.06689
3168.13439	0.06640
3166.84862	0.06599
3165.56285	0.06587
3164.27708	0.06600
3162.99131	0.06616
3161.70555	0.06622
3160.41978	0.06621
3159.13401	0.06626
3157.84824	0.06635
3156.56247	0.06638
3155.27670	0.06625
3153.99093	0.06604
3152.70516	0.06587
3151.41939	0.06581
3150.13363	0.06578
3148.84786	0.06571
3147.56209	0.06557
3146.27632	0.06541
3144.99055	0.06533
3143.70478	0.06537
3142.41901	0.06545
3141.13324	0.06542
3139.84748	0.06526
3138.56171	0.06511
3137.27594	0.06506
3135.99017	0.06504
3134.70440	0.06490
3133.41863	0.06459
3132.13286	0.06421
3130.84709	0.06389
3129.56132	0.06369
3128.27556	0.06354
3126.98979	0.06345
3125.70402	0.06347
3124.41825	0.06365
3123.13248	0.06390
3121.84671	0.06408
3120.56094	0.06410
3119.27517	0.06393
3117.98940	0.06360
3116.70364	0.06318
3115.41787	0.06280
3114.13210	0.06262
3112.84633	0.06274
3111.56056	0.06305
3110.27479	0.06330
3108.98902	0.06332
3107.70325	0.06311
3106.41749	0.06278
3105.13172	0.06239
3103.84595	0.06199
3102.56018	0.06173
3101.27441	0.06180
3099.98864	0.06217
3098.70287	0.06252
3097.41710	0.06253
3096.13133	0.06220
3094.84557	0.06186
3093.55980	0.06177
3092.27403	0.06184
3090.98826	0.06178
3089.70249	0.06154
3088.41672	0.06131
3087.13095	0.06132
3085.84518	0.06157
3084.55942	0.06187
3083.27365	0.06207
3081.98788	0.06217
3080.70211	0.06219
3079.41634	0.06211
3078.13057	0.06183
3076.84480	0.06135
3075.55903	0.06075
3074.27326	0.06022
3072.98750	0.05987
3071.70173	0.05976
3070.41596	0.05992
3069.13019	0.06026
3067.84442	0.06060
3066.55865	0.06075
3065.27288	0.06066
3063.98711	0.06046
3062.70135	0.06029
3061.41558	0.06019
3060.12981	0.06008
3058.84404	0.05990
3057.55827	0.05969
3056.27250	0.05957
3054.98673	0.05963
3053.70096	0.05982
3052.41519	0.06001
3051.12943	0.06001
3049.84366	0.05976
3048.55789	0.05929
3047.27212	0.05876
3045.98635	0.05835
3044.70058	0.05817
3043.41481	0.05825
3042.12904	0.05846
3040.84328	0.05855
3039.55751	0.05834
3038.27174	0.05783
3036.98597	0.05729
3035.70020	0.05700
3034.41443	0.05701
3033.12866	0.05715
3031.84289	0.05725
3030.55712	0.05729
3029.27136	0.05737
3027.98559	0.05745
3026.69982	0.05739
3025.41405	0.05707
3024.12828	0.05655
3022.84251	0.05601
3021.55674	0.05567
3020.27097	0.05566
3018.98521	0.05590
3017.69944	0.05619
3016.41367	0.05634
3015.12790	0.05630
3013.84213	0.05617
3012.55636	0.05601
3011.27059	0.05586
3009.98482	0.05574
3008.69905	0.05568
3007.41329	0.05572
3006.12752	0.05583
3004.84175	0.05598
3003.55598	0.05608
3002.27021	0.05608
3000.98444	0.05597
2999.69867	0.05584
2998.41290	0.05580
2997.12714	0.05591
2995.84137	0.05618
2994.55560	0.05654
2993.26983	0.05682
2991.98406	0.05687
2990.69829	0.05672
2989.41252	0.05660
2988.12675	0.05667
2986.84098	0.05681
2985.55522	0.05686
2984.26945	0.05680
2982.98368	0.05674
2981.69791	0.05677
2980.41214	0.05689
2979.12637	0.05714
2977.84060	0.05758
2976.55483	0.05818
2975.26907	0.05889
2973.98330	0.05963
2972.69753	0.06043
2971.41176	0.06132
2970.12599	0.06232
2968.84022	0.06339
2967.55445	0.06452
2966.26868	0.06563
2964.98291	0.06657
2963.69715	0.06722
2962.41138	0.06767
2961.12561	0.06814
2959.83984	0.06883
2958.55407	0.06978
2957.26830	0.07089
2955.98253	0.07198
2954.69676	0.07286
2953.41100	0.07346
2952.12523	0.07380
2950.83946	0.07393
2949.55369	0.07387
2948.26792	0.07366
2946.98215	0.07335
2945.69638	0.07308
2944.41061	0.07293
2943.12484	0.07294
2941.83908	0.07307
2940.55331	0.07330
2939.26754	0.07367
2937.98177	0.07422
2936.69600	0.07489
2935.41023	0.07556
2934.12446	0.07614
2932.83869	0.07665
2931.55293	0.07716
2930.26716	0.07777
2928.98139	0.07848
2927.69562	0.07926
2926.40985	0.07995
2925.12408	0.08038
2923.83831	0.08043
2922.55254	0.08015
2921.26677	0.07966
2919.98101	0.07909
2918.69524	0.07850
2917.40947	0.07786
2916.12370	0.07712
2914.83793	0.07627
2913.55216	0.07541
2912.26639	0.07469
2910.98062	0.07422
2909.69486	0.07393
2908.40909	0.07363
2907.12332	0.07308
2905.83755	0.07222
2904.55178	0.07121
2903.26601	0.07036
2901.98024	0.06983
2900.69447	0.06955
2899.40870	0.06932
2898.12294	0.06900
2896.83717	0.06855
2895.55140	0.06799
2894.26563	0.06740
2892.97986	0.06687
2891.69409	0.06642
2890.40832	0.06603
2889.12255	0.06568
2887.83678	0.06535
2886.55102	0.06500
2885.26525	0.06460
2883.97948	0.06421
2882.69371	0.06400
2881.40794	0.06407
2880.12217	0.06428
2878.83640	0.06442
2877.55063	0.06437
2876.26487	0.06430
2874.97910	0.06440
2873.69333	0.06473
2872.40756	0.06522
2871.12179	0.06573
2869.83602	0.06618
2868.55025	0.06650
2867.26448	0.06656
2865.97871	0.06635
2864.69295	0.06602
2863.40718	0.06576
2862.12141	0.06564
2860.83564	0.06555
2859.54987	0.06540
2858.26410	0.06522
2856.97833	0.06509
2855.69256	0.06497
2854.40680	0.06474
2853.12103	0.06428
2851.83526	0.06362
2850.54949	0.06292
2849.26372	0.06228
2847.97795	0.06171
2846.69218	0.06120
2845.40641	0.06078
2844.12064	0.06050
2842.83488	0.06020
2841.54911	0.05968
2840.26334	0.05885
2838.97757	0.05785
2837.69180	0.05693
2836.40603	0.05618
2835.12026	0.05556
2833.83449	0.05493
2832.54873	0.05428
2831.26296	0.05364
2829.97719	0.05307
2828.69142	0.05253
2827.40565	0.05204
2826.11988	0.05171
2824.83411	0.05157
2823.54834	0.05148
2822.26257	0.05124
2820.97681	0.05080
2819.69104	0.05029
2818.40527	0.04992
2817.11950	0.04978
2815.83373	0.04986
2814.54796	0.05002
2813.26219	0.05015
2811.97642	0.05012
2810.69066	0.04991
2809.40489	0.04957
2808.11912	0.04924
2806.83335	0.04898
2805.54758	0.04874
2804.26181	0.04845
2802.97604	0.04814
2801.69027	0.04795
2800.40450	0.04795
2799.11874	0.04802
2797.83297	0.04798
2796.54720	0.04781
2795.26143	0.04759
2793.97566	0.04735
2792.68989	0.04708
2791.40412	0.04676
2790.11835	0.04645
2788.83259	0.04625
2787.54682	0.04622
2786.26105	0.04636
2784.97528	0.04659
2783.68951	0.04678
2782.40374	0.04685
2781.11797	0.04681
2779.83220	0.04670
2778.54643	0.04657
2777.26067	0.04641
2775.97490	0.04627
2774.68913	0.04617
2773.40336	0.04604
2772.11759	0.04587
2770.83182	0.04573
2769.54605	0.04573
2768.26028	0.04579
2766.97452	0.04575
2765.68875	0.04551
2764.40298	0.04520
2763.11721	0.04497
2761.83144	0.04480
2760.54567	0.04462
2759.25990	0.04448
2757.97413	0.04451
2756.68836	0.04472
2755.40260	0.04499
2754.11683	0.04514
2752.83106	0.04513
2751.54529	0.04501
2750.25952	0.04487
2748.97375	0.04478
2747.68798	0.04475
2746.40221	0.04470
2745.11645	0.04454
2743.83068	0.04426
2742.54491	0.04396
2741.25914	0.04379
2739.97337	0.04381
2738.68760	0.04396
2737.40183	0.04412
2736.11606	0.04417
2734.83029	0.04408
2733.54453	0.04394
2732.25876	0.04391
2730.97299	0.04403
2729.68722	0.04422
2728.40145	0.04431
2727.11568	0.04422
2725.82991	0.04397
2724.54414	0.04370
2723.25838	0.04359
2721.97261	0.04368
2720.68684	0.04387
2719.40107	0.04402
2718.11530	0.04401
2716.82953	0.04385
2715.54376	0.04361
2714.25799	0.04334
2712.97222	0.04304
2711.68646	0.04276
2710.40069	0.04260
2709.11492	0.04262
2707.82915	0.04278
2706.54338	0.04294
2705.25761	0.04293
2703.97184	0.04272
2702.68607	0.04246
2701.40031	0.04229
2700.11454	0.04220
2698.82877	0.04211
2697.54300	0.04202
2696.25723	0.04202
2694.97146	0.04216
2693.68569	0.04232
2692.39992	0.04236
2691.11415	0.04227
2689.82839	0.04215
2688.54262	0.04208
2687.25685	0.04203
2685.97108	0.04195
2684.68531	0.04182
2683.39954	0.04170
2682.11377	0.04162
2680.82800	0.04158
2679.54224	0.04148
2678.25647	0.04128
2676.97070	0.04106
2675.68493	0.04094
2674.39916	0.04098
2673.11339	0.04113
2671.82762	0.04129
2670.54185	0.04137
2669.25608	0.04134
2667.97032	0.04121
2666.68455	0.04103
2665.39878	0.04085
2664.11301	0.04073
2662.82724	0.04067
2661.54147	0.04066
2660.25570	0.04063
2658.96993	0.04051
2657.68417	0.04027
2656.39840	0.03997
2655.11263	0.03968
2653.82686	0.03948
2652.54109	0.03942
2651.25532	0.03945
2649.96955	0.03945
2648.68378	0.03934
2647.39801	0.03920
2646.11225	0.03921
2644.82648	0.03942
2643.54071	0.03969
2642.25494	0.03982
2640.96917	0.03968
2639.68340	0.03929
2638.39763	0.03882
2637.11186	0.03844
2635.82609	0.03819
2634.54033	0.03800
2633.25456	0.03780
2631.96879	0.03765
2630.68302	0.03767
2629.39725	0.03787
2628.11148	0.03803
2626.82571	0.03788
2625.53994	0.03740
2624.25418	0.03686
2622.96841	0.03654
2621.68264	0.03648
2620.39687	0.03653
2619.11110	0.03658
2617.82533	0.03657
2616.53956	0.03651
2615.25379	0.03636
2613.96802	0.03605
2612.68226	0.03560
2611.39649	0.03522
2610.11072	0.03512
2608.82495	0.03535
2607.53918	0.03570
2606.25341	0.03591
2604.96764	0.03590
2603.68187	0.03581
2602.39611	0.03576
2601.11034	0.03580
2599.82457	0.03584
2598.53880	0.03577
2597.25303	0.03551
2595.96726	0.03514
2594.68149	0.03482
2593.39572	0.03467
2592.10995	0.03461
2590.82419	0.03443
2589.53842	0.03407
2588.25265	0.03373
2586.96688	0.03369
2585.68111	0.03388
2584.39534	0.03404
2583.10957	0.03403
2581.82380	0.03395
2580.53804	0.03390
2579.25227	0.03386
2577.96650	0.03375
2576.68073	0.03360
2575.39496	0.03344
2574.10919	0.03329
2572.82342	0.03315
2571.53765	0.03305
2570.25188	0.03294
2568.96612	0.03275
2567.68035	0.03251
2566.39458	0.03243
2565.10881	0.03261
2563.82304	0.03289
2562.53727	0.03298
2561.25150	0.03271
2559.96573	0.03220
2558.67997	0.03169
2557.39420	0.03131
2556.10843	0.03103
2554.82266	0.03078
2553.53689	0.03069
2552.25112	0.03089
2550.96535	0.03130
2549.67958	0.03161
2548.39381	0.03165
2547.10805	0.03160
2545.82228	0.03171
2544.53651	0.03198
2543.25074	0.03220
2541.96497	0.03231
2540.67920	0.03247
2539.39343	0.03274
2538.10766	0.03295
2536.82190	0.03290
2535.53613	0.03257
2534.25036	0.03212
2532.96459	0.03171
2531.67882	0.03142
2530.39305	0.03130
2529.10728	0.03137
2527.82151	0.03158
2526.53574	0.03182
2525.24998	0.03199
2523.96421	0.03200
2522.67844	0.03186
2521.39267	0.03168
2520.10690	0.03151
2518.82113	0.03137
2517.53536	0.03124
2516.24959	0.03111
2514.96383	0.03099
2513.67806	0.03085
2512.39229	0.03070
2511.10652	0.03062
2509.82075	0.03064
2508.53498	0.03068
2507.24921	0.03073
2505.96344	0.03081
2504.67767	0.03092
2503.39191	0.03093
2502.10614	0.03071
2500.82037	0.03029
2499.53460	0.02998
2498.24883	0.03002
2496.96306	0.03040
2495.67729	0.03079
2494.39152	0.03090
2493.10576	0.03074
2491.81999	0.03056
2490.53422	0.03053
2489.24845	0.03057
2487.96268	0.03058
2486.67691	0.03057
2485.39114	0.03062
2484.10537	0.03065
2482.81960	0.03050
2481.53384	0.03020
2480.24807	0.02994
2478.96230	0.02988
2477.67653	0.02992
2476.39076	0.02993
2475.10499	0.02985
2473.81922	0.02980
2472.53345	0.02990
2471.24769	0.03016
2469.96192	0.03039
2468.67615	0.03041
2467.39038	0.03015
2466.10461	0.02973
2464.81884	0.02937
2463.53307	0.02927
2462.24730	0.02943
2460.96153	0.02961
2459.67577	0.02956
2458.39000	0.02929
2457.10423	0.02908
2455.81846	0.02914
2454.53269	0.02929
2453.24692	0.02926
2451.96115	0.02909
2450.67538	0.02907
2449.38962	0.02931
2448.10385	0.02960
2446.81808	0.02975
2445.53231	0.02975
2444.24654	0.02963
2442.96077	0.02943
2441.67500	0.02922
2440.38923	0.02911
2439.10346	0.02905
2437.81770	0.02896
2436.53193	0.02882
2435.24616	0.02867
2433.96039	0.02845
2432.67462	0.02807
2431.38885	0.02766
2430.10308	0.02743
2428.81731	0.02749
2427.53155	0.02776
2426.24578	0.02801
2424.96001	0.02810
2423.67424	0.02803
2422.38847	0.02795
2421.10270	0.02803
2419.81693	0.02828
2418.53116	0.02853
2417.24539	0.02860
2415.95963	0.02849
2414.67386	0.02834
2413.38809	0.02822
2412.10232	0.02811
2410.81655	0.02803
2409.53078	0.02809
2408.24501	0.02832
2406.95924	0.02860
2405.67347	0.02871
2404.38771	0.02857
2403.10194	0.02824
2401.81617	0.02785
2400.53040	0.02753
2399.24463	0.02741
2397.95886	0.02748
2396.67309	0.02771
2395.38732	0.02804
2394.10156	0.02835
2392.81579	0.02855
2391.53002	0.02864
2390.24425	0.02863
2388.95848	0.02850
2387.67271	0.02830
2386.38694	0.02809
2385.10117	0.02794
2383.81540	0.02785
2382.52964	0.02778
2381.24387	0.02768
2379.95810	0.02745
2378.67233	0.02695
2377.38656	0.02615
2376.10079	0.02520
2374.81502	0.02433
2373.52925	0.02369
2372.24349	0.02323
2370.95772	0.02280
2369.67195	0.02228
2368.38618	0.02165
2367.10041	0.02100
2365.81464	0.02044
2364.52887	0.02010
2363.24310	0.02005
2361.95733	0.02029
2360.67157	0.02075
2359.38580	0.02131
2358.10003	0.02191
2356.81426	0.02258
2355.52849	0.02340
2354.24272	0.02433
2352.95695	0.02519
2351.67118	0.02575
2350.38542	0.02591
2349.09965	0.02575
2347.81388	0.02543
2346.52811	0.02506
2345.24234	0.02469
2343.95657	0.02433
2342.67080	0.02397
2341.38503	0.02363
2340.09926	0.02336
2338.81350	0.02317
2337.52773	0.02305
2336.24196	0.02295
2334.95619	0.02281
2333.67042	0.02264
2332.38465	0.02249
2331.09888	0.02244
2329.81311	0.02256
2328.52735	0.02289
2327.24158	0.02343
2325.95581	0.02415
2324.67004	0.02490
2323.38427	0.02549
2322.09850	0.02581
2320.81273	0.02592
2319.52696	0.02599
2318.24119	0.02615
2316.95543	0.02642
2315.66966	0.02672
2314.38389	0.02699
2313.09812	0.02721
2311.81235	0.02735
2310.52658	0.02739
2309.24081	0.02730
2307.95504	0.02707
2306.66928	0.02673
2305.38351	0.02634
2304.09774	0.02599
2302.81197	0.02579
2301.52620	0.02580
2300.24043	0.02605
2298.95466	0.02639
2297.66889	0.02663
2296.38312	0.02661
2295.09736	0.02638
2293.81159	0.02610
2292.52582	0.02595
2291.24005	0.02597
2289.95428	0.02608
2288.66851	0.02615
2287.38274	0.02615
2286.09697	0.02609
2284.81121	0.02598
2283.52544	0.02587
2282.23967	0.02583
2280.95390	0.02579
2279.66813	0.02557
2278.38236	0.02508
2277.09659	0.02449
2275.81082	0.02407
2274.52505	0.02388
2273.23929	0.02380
2271.95352	0.02373
2270.66775	0.02375
2269.38198	0.02399
2268.09621	0.02437
2266.81044	0.02464
2265.52467	0.02447
2264.23890	0.02366
2262.95314	0.02239
2261.66737	0.02125
2260.38160	0.02075
2259.09583	0.02090
2257.81006	0.02123
2256.52429	0.02123
2255.23852	0.02090
2253.95275	0.02061
2252.66698	0.02063
2251.38122	0.02093
2250.09545	0.02142
2248.80968	0.02197
2247.52391	0.02183
2246.23814	0.02155
2244.95237	0.02140
2243.66660	0.02148
2242.38083	0.02158
2241.09507	0.02142
2239.80930	0.02104
2238.52353	0.02073
2237.23776	0.02069
2235.95199	0.02073
2234.66622	0.02060
2233.38045	0.02029
2232.09468	0.01994
2230.80891	0.01961
2229.52315	0.01921
2228.23738	0.01872
2226.95161	0.01826
2225.66584	0.01798
2224.38007	0.01794
2223.09430	0.01810
2221.80853	0.01837
2220.52276	0.01853
2219.23700	0.01844
2217.95123	0.01827
2216.66546	0.01836
2215.37969	0.01867
2214.09392	0.01875
2212.80815	0.01821
2211.52238	0.01721
2210.23661	0.01630
2208.95084	0.01584
2207.66508	0.01573
2206.37931	0.01566
2205.09354	0.01546
2203.80777	0.01524
2202.52200	0.01525
2201.23623	0.01564
2199.95046	0.01622
2198.66469	0.01652
2197.37893	0.01618
2196.09316	0.01528
2194.80739	0.01429
2193.52162	0.01368
2192.23585	0.01352
2190.95008	0.01366
2189.66431	0.01401
2188.37854	0.01454
2187.09277	0.01510
2185.80701	0.01556
2184.52124	0.01584
2183.23547	0.01580
2181.94970	0.01515
2180.66393	0.01387
2179.37816	0.01241
2178.09239	0.01124
2176.80662	0.01053
2175.52085	0.01024
2174.23509	0.01050
2172.94932	0.01141
2171.66355	0.01266
2170.37778	0.01348
2169.09201	0.01311
2167.80624	0.01160
2166.52047	0.00986
2165.23470	0.00882
2163.94894	0.00848
2162.66317	0.00810
2161.37740	0.00714
2160.09163	0.00584
2158.80586	0.00490
2157.52009	0.00478
2156.23432	0.00544
2154.94855	0.00654
2153.66278	0.00770
2152.37702	0.00860
2151.09125	0.00913
2149.80548	0.00945
2148.51971	0.01005
2147.23394	0.01132
2145.94817	0.01311
2144.66240	0.01464
2143.37663	0.01511
2142.09087	0.01433
2140.80510	0.01283
2139.51933	0.01146
2138.23356	0.01081
2136.94779	0.01091
2135.66202	0.01138
2134.37625	0.01187
2133.09048	0.01230
2131.80471	0.01264
2130.51895	0.01284
2129.23318	0.01292
2127.94741	0.01306
2126.66164	0.01349
2125.37587	0.01422
2124.09010	0.01494
2122.80433	0.01537
2121.51856	0.01551
2120.23280	0.01568
2118.94703	0.01600
2117.66126	0.01631
2116.37549	0.01637
2115.08972	0.01612
2113.80395	0.01578
2112.51818	0.01555
2111.23241	0.01549
2109.94664	0.01552
2108.66088	0.01554
2107.37511	0.01553
2106.08934	0.01546
2104.80357	0.01522
2103.51780	0.01477
2102.23203	0.01425
2100.94626	0.01389
2099.66049	0.01411
2098.37473	0.01393
2097.08896	0.01330
2095.80319	0.01259
2094.51742	0.01221
2093.23165	0.01237
2091.94588	0.01296
2090.66011	0.01360
2089.37434	0.01391
2088.08857	0.01379
2086.80281	0.01348
2085.51704	0.01333
2084.23127	0.01355
2082.94550	0.01403
2081.65973	0.01444
2080.37396	0.01442
2079.08819	0.01390
2077.80242	0.01313
2076.51666	0.01247
2075.23089	0.01215
2073.94512	0.01216
2072.65935	0.01231
2071.37358	0.01249
2070.08781	0.01262
2068.80204	0.01258
2067.51627	0.01221
2066.23050	0.01157
2064.94474	0.01097
2063.65897	0.01062
2062.37320	0.01049
2061.08743	0.01053
2059.80166	0.01082
2058.51589	0.01140
2057.23012	0.01198
2055.94435	0.01215
2054.65859	0.01184
2053.37282	0.01138
2052.08705	0.01115
2050.80128	0.01125
2049.51551	0.01151
2048.22974	0.01170
2046.94397	0.01166
2045.65820	0.01142
2044.37243	0.01112
2043.08667	0.01087
2041.80090	0.01059
2040.51513	0.00997
2039.22936	0.00882
2037.94359	0.00736
2036.65782	0.00623
2035.37205	0.00591
2034.08628	0.00634
2032.80052	0.00703
2031.51475	0.00750
2030.22898	0.00759
2028.94321	0.00743
2027.65744	0.00713
2026.37167	0.00678
2025.08590	0.00641
2023.80013	0.00610
2022.51436	0.00591
2021.22860	0.00596
2019.94283	0.00631
2018.65706	0.00680
2017.37129	0.00708
2016.08552	0.00689
2014.79975	0.00644
2013.51398	0.00626
2012.22821	0.00664
2010.94245	0.00727
2009.65668	0.00761
2008.37091	0.00744
2007.08514	0.00702
2005.79937	0.00675
2004.51360	0.00684
2003.22783	0.00726
2001.94206	0.00785
2000.65629	0.00845
1999.37053	0.00907
1998.08476	0.00980
1996.79899	0.01062
1995.51322	0.01133
1994.22745	0.01178
1992.94168	0.01195
1991.65591	0.01186
1990.37014	0.01156
1989.08438	0.01118
1987.79861	0.01106
1986.51284	0.01145
1985.22707	0.01236
1983.94130	0.01355
1982.65553	0.01472
1981.36976	0.01550
1980.08399	0.01560
1978.79822	0.01491
1977.51246	0.01369
1976.22669	0.01236
1974.94092	0.01121
1973.65515	0.01040
1972.36938	0.01011
1971.08361	0.01040
1969.79784	0.01103
1968.51207	0.01157
1967.22631	0.01176
1965.94054	0.01164
1964.65477	0.01132
1963.36900	0.01079
1962.08323	0.01009
1960.79746	0.00951
1959.51169	0.00939
1958.22592	0.00982
1956.94015	0.01064
1955.65439	0.01162
1954.36862	0.01257
1953.08285	0.01318
1951.79708	0.01314
1950.51131	0.01248
1949.22554	0.01171
1947.93977	0.01145
1946.65400	0.01200
1945.36823	0.01308
1944.08247	0.01415
1942.79670	0.01478
1941.51093	0.01494
1940.22516	0.01482
1938.93939	0.01455
1937.65362	0.01410
1936.36785	0.01352
1935.08208	0.01310
1933.79632	0.01309
1932.51055	0.01355
1931.22478	0.01428
1929.93901	0.01495
1928.65324	0.01528
1927.36747	0.01515
1926.08170	0.01471
1924.79593	0.01424
1923.51016	0.01400
1922.22440	0.01406
1920.93863	0.01437
1919.65286	0.01474
1918.36709	0.01506
1917.08132	0.01524
1915.79555	0.01532
1914.50978	0.01535
1913.22401	0.01535
1911.93825	0.01538
1910.65248	0.01546
1909.36671	0.01559
1908.08094	0.01577
1906.79517	0.01602
1905.50940	0.01638
1904.22363	0.01681
1902.93786	0.01721
1901.65209	0.01747
1900.36633	0.01752
1899.08056	0.01737
1897.79479	0.01705
1896.50902	0.01659
1895.22325	0.01607
1893.93748	0.01565
1892.65171	0.01550
1891.36594	0.01561
1890.08018	0.01582
1888.79441	0.01596
1887.50864	0.01596
1886.22287	0.01594
1884.93710	0.01598
1883.65133	0.01606
1882.36556	0.01611
1881.07979	0.01609
1879.79402	0.01608
1878.50826	0.01614
1877.22249	0.01622
1875.93672	0.01630
1874.65095	0.01638
1873.36518	0.01649
1872.07941	0.01661
1870.79364	0.01663
1869.50787	0.01648
1868.22211	0.01619
1866.93634	0.01591
1865.65057	0.01576
1864.36480	0.01573
1863.07903	0.01575
1861.79326	0.01576
1860.50749	0.01582
1859.22172	0.01595
1857.93595	0.01610
1856.65019	0.01615
1855.36442	0.01604
1854.07865	0.01585
1852.79288	0.01568
1851.50711	0.01561
1850.22134	0.01563
1848.93557	0.01574
1847.64980	0.01583
1846.36404	0.01587
1845.07827	0.01591
1843.79250	0.01607
1842.50673	0.01634
1841.22096	0.01657
1839.93519	0.01664
1838.64942	0.01655
1837.36365	0.01644
1836.07788	0.01638
1834.79212	0.01640
1833.50635	0.01646
1832.22058	0.01651
1830.93481	0.01652
1829.64904	0.01649
1828.36327	0.01645
1827.07750	0.01646
1825.79173	0.01657
1824.50597	0.01677
1823.22020	0.01698
1821.93443	0.01710
1820.64866	0.01710
1819.36289	0.01701
1818.07712	0.01692
1816.79135	0.01689
1815.50558	0.01691
1814.21981	0.01693
1812.93405	0.01689
1811.64828	0.01683
1810.36251	0.01681
1809.07674	0.01687
1807.79097	0.01701
1806.50520	0.01714
1805.21943	0.01716
1803.93366	0.01708
1802.64790	0.01699
1801.36213	0.01698
1800.07636	0.01711
1798.79059	0.01731
1797.50482	0.01754
1796.21905	0.01773
1794.93328	0.01785
1793.64751	0.01790
1792.36174	0.01791
1791.07598	0.01790
1789.79021	0.01790
1788.50444	0.01794
1787.21867	0.01801
1785.93290	0.01805
1784.64713	0.01800
1783.36136	0.01786
1782.07559	0.01766
1780.78983	0.01754
1779.50406	0.01755
1778.21829	0.01767
1776.93252	0.01777
1775.64675	0.01772
1774.36098	0.01754
1773.07521	0.01740
1771.78944	0.01744
1770.50367	0.01767
1769.21791	0.01798
1767.93214	0.01824
1766.64637	0.01836
1765.36060	0.01837
1764.07483	0.01833
1762.78906	0.01829
1761.50329	0.01829
1760.21752	0.01827
1758.93176	0.01822
1757.64599	0.01819
1756.36022	0.01823
1755.07445	0.01833
1753.78868	0.01840
1752.50291	0.01837
1751.21714	0.01825
1749.93137	0.01818
1748.64560	0.01824
1747.35984	0.01840
1746.07407	0.01859
1744.78830	0.01871
1743.50253	0.01879
1742.21676	0.01887
1740.93099	0.01901
1739.64522	0.01919
1738.35945	0.01934
1737.07369	0.01940
1735.78792	0.01937
1734.50215	0.01936
1733.21638	0.01948
1731.93061	0.01978
1730.64484	0.02017
1729.35907	0.02053
1728.07330	0.02078
1726.78753	0.02090
1725.50177	0.02096
1724.21600	0.02101
1722.93023	0.02108
1721.64446	0.02116
1720.35869	0.02125
1719.07292	0.02138
1717.78715	0.02163
1716.50138	0.02202
1715.21561	0.02249
1713.92985	0.02295
1712.64408	0.02334
1711.35831	0.02367
1710.07254	0.02396
1708.78677	0.02420
1707.50100	0.02441
1706.21523	0.02458
1704.92946	0.02476
1703.64370	0.02494
1702.35793	0.02514
1701.07216	0.02540
1699.78639	0.02572
1698.50062	0.02610
1697.21485	0.02653
1695.92908	0.02701
1694.64331	0.02753
1693.35754	0.02799
1692.07178	0.02831
1690.78601	0.02852
1689.50024	0.02865
1688.21447	0.02874
1686.92870	0.02879
1685.64293	0.02884
1684.35716	0.02900
1683.07139	0.02930
1681.78563	0.02971
1680.49986	0.03014
1679.21409	0.03052
1677.92832	0.03085
1676.64255	0.03119
1675.35678	0.03156
1674.07101	0.03194
1672.78524	0.03225
1671.49947	0.03246
1670.21371	0.03263
1668.92794	0.03286
1667.64217	0.03314
1666.35640	0.03343
1665.07063	0.03366
1663.78486	0.03387
1662.49909	0.03411
1661.21332	0.03439
1659.92756	0.03466
1658.64179	0.03487
1657.35602	0.03498
1656.07025	0.03497
1654.78448	0.03490
1653.49871	0.03490
1652.21294	0.03510
1650.92717	0.03542
1649.64140	0.03571
1648.35564	0.03588
1647.06987	0.03597
1645.78410	0.03607
1644.49833	0.03618
1643.21256	0.03630
1641.92679	0.03638
1640.64102	0.03640
1639.35525	0.03637
1638.06949	0.03631
1636.78372	0.03632
1635.49795	0.03647
1634.21218	0.03676
1632.92641	0.03708
1631.64064	0.03735
1630.35487	0.03755
1629.06910	0.03769
1627.78333	0.03777
1626.49757	0.03781
1625.21180	0.03787
1623.92603	0.03799
1622.64026	0.03816
1621.35449	0.03831
1620.06872	0.03839
1618.78295	0.03844
1617.49718	0.03860
1616.21142	0.03893
1614.92565	0.03942
1613.63988	0.03993
1612.35411	0.04036
1611.06834	0.04067
1609.78257	0.04090
1608.49680	0.04113
1607.21103	0.04141
1605.92526	0.04178
1604.63950	0.04219
1603.35373	0.04263
1602.06796	0.04303
1600.78219	0.04334
1599.49642	0.04355
1598.21065	0.04367
1596.92488	0.04377
1595.63911	0.04392
1594.35335	0.04416
1593.06758	0.04442
1591.78181	0.04466
1590.49604	0.04485
1589.21027	0.04504
1587.92450	0.04525
1586.63873	0.04546
1585.35296	0.04565
1584.06719	0.04582
1582.78143	0.04600
1581.49566	0.04620
1580.20989	0.04639
1578.92412	0.04652
1577.63835	0.04664
1576.35258	0.04683
1575.06681	0.04714
1573.78104	0.04753
1572.49528	0.04790
1571.20951	0.04822
1569.92374	0.04857
1568.63797	0.04898
1567.35220	0.04945
1566.06643	0.04987
1564.78066	0.05018
1563.49489	0.05033
1562.20912	0.05035
1560.92336	0.05034
1559.63759	0.05046
1558.35182	0.05078
1557.06605	0.05128
1555.78028	0.05184
1554.49451	0.05241
1553.20874	0.05293
1551.92297	0.05339
1550.63721	0.05374
1549.35144	0.05397
1548.06567	0.05405
1546.77990	0.05401
1545.49413	0.05384
1544.20836	0.05356
1542.92259	0.05321
1541.63682	0.05291
1540.35105	0.05278
1539.06529	0.05289
1537.77952	0.05314
1536.49375	0.05342
1535.20798	0.05368
1533.92221	0.05398
1532.63644	0.05436
1531.35067	0.05481
1530.06490	0.05529
1528.77914	0.05577
1527.49337	0.05625
1526.20760	0.05674
1524.92183	0.05727
1523.63606	0.05786
1522.35029	0.05857
1521.06452	0.05943
1519.77875	0.06042
1518.49298	0.06151
1517.20722	0.06271
1515.92145	0.06403
1514.63568	0.06546
1513.34991	0.06691
1512.06414	0.06829
1510.77837	0.06958
1509.49260	0.07082
1508.20683	0.07215
1506.92107	0.07368
1505.63530	0.07543
1504.34953	0.07723
1503.06376	0.07887
1501.77799	0.08025
1500.49222	0.08142
1499.20645	0.08247
1497.92068	0.08353
1496.63491	0.08464
1495.34915	0.08576
1494.06338	0.08685
1492.77761	0.08788
1491.49184	0.08890
1490.20607	0.08997
1488.92030	0.09117
1487.63453	0.09251
1486.34876	0.09394
1485.06299	0.09541
1483.77723	0.09687
1482.49146	0.09834
1481.20569	0.09983
1479.91992	0.10134
1478.63415	0.10284
1477.34838	0.10428
1476.06261	0.10561
1474.77684	0.10687
1473.49108	0.10811
1472.20531	0.10936
1470.91954	0.11060
1469.63377	0.11172
1468.34800	0.11267
1467.06223	0.11346
1465.77646	0.11417
1464.49069	0.11487
1463.20492	0.11559
1461.91916	0.11629
1460.63339	0.11693
1459.34762	0.11754
1458.06185	0.11824
1456.77608	0.11910
1455.49031	0.12009
1454.20454	0.12105
1452.91877	0.12185
1451.63301	0.12244
1450.34724	0.12289
1449.06147	0.12326
1447.77570	0.12359
1446.48993	0.12381
1445.20416	0.12383
1443.91839	0.12360
1442.63262	0.12314
1441.34685	0.12252
1440.06109	0.12181
1438.77532	0.12114
1437.48955	0.12070
1436.20378	0.12062
1434.91801	0.12089
1433.63224	0.12141
1432.34647	0.12210
1431.06070	0.12297
1429.77494	0.12408
1428.48917	0.12547
1427.20340	0.12707
1425.91763	0.12877
1424.63186	0.13046
1423.34609	0.13205
1422.06032	0.13354
1420.77455	0.13500
1419.48878	0.13648
1418.20302	0.13793
1416.91725	0.13921
1415.63148	0.14019
1414.34571	0.14086
1413.05994	0.14124
1411.77417	0.14134
1410.48840	0.14116
1409.20263	0.14065
1407.91687	0.13980
1406.63110	0.13866
1405.34533	0.13727
1404.05956	0.13567
1402.77379	0.13383
1401.48802	0.13174
1400.20225	0.12941
1398.91648	0.12696
1397.63071	0.12447
1396.34495	0.12195
1395.05918	0.11939
1393.77341	0.11674
1392.48764	0.11405
1391.20187	0.11137
1389.91610	0.10879
1388.63033	0.10636
1387.34456	0.10411
1386.05880	0.10196
1384.77303	0.09984
1383.48726	0.09773
1382.20149	0.09561
1380.91572	0.09349
1379.62995	0.09137
1378.34418	0.08921
1377.05841	0.08697
1375.77264	0.08464
1374.48688	0.08225
1373.20111	0.07984
1371.91534	0.07745
1370.62957	0.07514
1369.34380	0.07294
1368.05803	0.07086
1366.77226	0.06891
1365.48649	0.06705
1364.20073	0.06524
1362.91496	0.06348
1361.62919	0.06178
1360.34342	0.06020
1359.05765	0.05877
1357.77188	0.05753
1356.48611	0.05645
1355.20034	0.05548
1353.91457	0.05453
1352.62881	0.05353
1351.34304	0.05251
1350.05727	0.05153
1348.77150	0.05064
1347.48573	0.04984
1346.19996	0.04907
1344.91419	0.04830
1343.62842	0.04755
1342.34266	0.04683
1341.05689	0.04614
1339.77112	0.04547
1338.48535	0.04482
1337.19958	0.04420
1335.91381	0.04362
1334.62804	0.04308
1333.34227	0.04257
1332.05650	0.04207
1330.77074	0.04158
1329.48497	0.04107
1328.19920	0.04057
1326.91343	0.04009
1325.62766	0.03969
1324.34189	0.03938
1323.05612	0.03914
1321.77035	0.03889
1320.48459	0.03858
1319.19882	0.03821
1317.91305	0.03779
1316.62728	0.03739
1315.34151	0.03703
1314.05574	0.03672
1312.76997	0.03644
1311.48420	0.03615
1310.19843	0.03584
1308.91267	0.03554
1307.62690	0.03527
1306.34113	0.03503
1305.05536	0.03481
1303.76959	0.03457
1302.48382	0.03431
1301.19805	0.03404
1299.91228	0.03377
1298.62652	0.03350
1297.34075	0.03322
1296.05498	0.03295
1294.76921	0.03271
1293.48344	0.03247
1292.19767	0.03224
1290.91190	0.03201
1289.62613	0.03180
1288.34036	0.03160
1287.05460	0.03141
1285.76883	0.03119
1284.48306	0.03094
1283.19729	0.03066
1281.91152	0.03041
1280.62575	0.03025
1279.33998	0.03016
1278.05421	0.03008
1276.76845	0.02993
1275.48268	0.02971
1274.19691	0.02944
1272.91114	0.02916
1271.62537	0.02889
1270.33960	0.02866
1269.05383	0.02851
1267.76806	0.02845
1266.48229	0.02843
1265.19653	0.02835
1263.91076	0.02818
1262.62499	0.02794
1261.33922	0.02770
1260.05345	0.02750
1258.76768	0.02734
1257.48191	0.02719
1256.19614	0.02707
1254.91037	0.02698
1253.62461	0.02691
1252.33884	0.02684
1251.05307	0.02672
1249.76730	0.02654
1248.48153	0.02633
1247.19576	0.02613
1245.90999	0.02596
1244.62422	0.02585
1243.33846	0.02578
1242.05269	0.02572
1240.76692	0.02562
1239.48115	0.02545
1238.19538	0.02522
1236.90961	0.02499
1235.62384	0.02482
1234.33807	0.02471
1233.05230	0.02462
1231.76654	0.02452
1230.48077	0.02438
1229.19500	0.02425
1227.90923	0.02415
1226.62346	0.02405
1225.33769	0.02394
1224.05192	0.02379
1222.76615	0.02359
1221.48039	0.02338
1220.19462	0.02321
1218.90885	0.02307
1217.62308	0.02294
1216.33731	0.02282
1215.05154	0.02272
1213.76577	0.02267
1212.48000	0.02266
1211.19423	0.02268
1209.90847	0.02268
1208.62270	0.02265
1207.33693	0.02262
1206.05116	0.02258
1204.76539	0.02252
1203.47962	0.02246
1202.19385	0.02240
1200.90808	0.02235
1199.62232	0.02227
1198.33655	0.02226
1197.05078	0.02221
1195.76501	0.02212
1194.47924	0.02202
1193.19347	0.02193
1191.90770	0.02188
1190.62193	0.02189
1189.33616	0.02194
1188.05040	0.02199
1186.76463	0.02204
1185.47886	0.02207
1184.19309	0.02211
1182.90732	0.02216
1181.62155	0.02221
1180.33578	0.02226
1179.05001	0.02231
1177.76425	0.02235
1176.47848	0.02235
1175.19271	0.02234
1173.90694	0.02236
1172.62117	0.02246
1171.33540	0.02258
1170.04963	0.02266
1168.76386	0.02272
1167.47809	0.02284
1166.19233	0.02307
1164.90656	0.02337
1163.62079	0.02366
1162.33502	0.02391
1161.04925	0.02410
1159.76348	0.02430
1158.47771	0.02454
1157.19194	0.02483
1155.90618	0.02514
1154.62041	0.02541
1153.33464	0.02566
1152.04887	0.02597
1150.76310	0.02635
1149.47733	0.02673
1148.19156	0.02708
1146.90579	0.02746
1145.62002	0.02795
1144.33426	0.02857
1143.04849	0.02928
1141.76272	0.03004
1140.47695	0.03089
1139.19118	0.03191
1137.90541	0.03309
1136.61964	0.03443
1135.33387	0.03588
1134.04811	0.03744
1132.76234	0.03915
1131.47657	0.04110
1130.19080	0.04335
1128.90503	0.04590
1127.61926	0.04874
1126.33349	0.05184
1125.04772	0.05518
1123.76195	0.05869
1122.47619	0.06229
1121.19042	0.06599
1119.90465	0.06982
1118.61888	0.07385
1117.33311	0.07803
1116.04734	0.08222
1114.76157	0.08631
1113.47580	0.09026
1112.19004	0.09411
1110.90427	0.09787
1109.61850	0.10153
1108.33273	0.10504
1107.04696	0.10840
1105.76119	0.11163
1104.47542	0.11478
1103.18965	0.11786
1101.90388	0.12086
1100.61812	0.12378
1099.33235	0.12659
1098.04658	0.12927
1096.76081	0.13176
1095.47504	0.13406
1094.18927	0.13623
1092.90350	0.13837
1091.61773	0.14049
1090.33197	0.14249
1089.04620	0.14425
1087.76043	0.14578
1086.47466	0.14721
1085.18889	0.14867
1083.90312	0.15023
1082.61735	0.15187
1081.33158	0.15364
1080.04581	0.15564
1078.76005	0.15799
1077.47428	0.16072
1076.18851	0.16368
1074.90274	0.16670
1073.61697	0.16971
1072.33120	0.17281
1071.04543	0.17612
1069.75966	0.17969
1068.47390	0.18346
1067.18813	0.18734
1065.90236	0.19125
1064.61659	0.19520
1063.33082	0.19922
1062.04505	0.20333
1060.75928	0.20751
1059.47351	0.21171
1058.18774	0.21586
1056.90198	0.21990
1055.61621	0.22383
1054.33044	0.22769
1053.04467	0.23162
1051.75890	0.23573
1050.47313	0.24002
1049.18736	0.24444
1047.90159	0.24890
1046.61583	0.25339
1045.33006	0.25799
1044.04429	0.26274
1042.75852	0.26760
1041.47275	0.27248
1040.18698	0.27739
1038.90121	0.28237
1037.61544	0.28743
1036.32967	0.29251
1035.04391	0.29750
1033.75814	0.30232
1032.47237	0.30692
1031.18660	0.31125
1029.90083	0.31523
1028.61506	0.31878
1027.32929	0.32181
1026.04352	0.32426
1024.75775	0.32608
1023.47199	0.32728
1022.18622	0.32789
1020.90045	0.32792
1019.61468	0.32735
1018.32891	0.32615
1017.04314	0.32431
1015.75737	0.32183
1014.47160	0.31871
1013.18584	0.31496
1011.90007	0.31057
1010.61430	0.30555
1009.32853	0.29987
1008.04276	0.29351
1006.75699	0.28649
1005.47122	0.27887
1004.18545	0.27075
1002.89968	0.26217
1001.61392	0.25319
1000.32815	0.24396
999.04238	0.23465
997.75661	0.22542
996.47084	0.21629
995.18507	0.20728
993.89930	0.19841
992.61353	0.18974
991.32777	0.18133
990.04200	0.17325
988.75623	0.16557
987.47046	0.15834
986.18469	0.15155
984.89892	0.14515
983.61315	0.13910
982.32738	0.13341
981.04161	0.12811
979.75585	0.12318
978.47008	0.11864
977.18431	0.11455
975.89854	0.11101
974.61277	0.10807
973.32700	0.10569
972.04123	0.10381
970.75546	0.10248
969.46970	0.10180
968.18393	0.10192
966.89816	0.10283
965.61239	0.10436
964.32662	0.10614
963.04085	0.10773
961.75508	0.10877
960.46931	0.10902
959.18354	0.10837
957.89778	0.10680
956.61201	0.10444
955.32624	0.10152
954.04047	0.09836
952.75470	0.09516
951.46893	0.09206
950.18316	0.08911
948.89739	0.08633
947.61163	0.08369
946.32586	0.08117
945.04009	0.07874
943.75432	0.07642
942.46855	0.07419
941.18278	0.07206
939.89701	0.07003
938.61124	0.06814
937.32547	0.06641
936.03971	0.06484
934.75394	0.06340
933.46817	0.06205
932.18240	0.06073
930.89663	0.05946
929.61086	0.05830
928.32509	0.05731
927.03932	0.05643
925.75356	0.05557
924.46779	0.05470
923.18202	0.05387
921.89625	0.05312
920.61048	0.05249
919.32471	0.05193
918.03894	0.05142
916.75317	0.05091
915.46740	0.05039
914.18164	0.04982
912.89587	0.04919
911.61010	0.04853
910.32433	0.04793
909.03856	0.04751
907.75279	0.04725
906.46702	0.04699
905.18125	0.04659
903.89549	0.04607
902.60972	0.04560
901.32395	0.04528
900.03818	0.04510
898.75241	0.04493
897.46664	0.04473
896.18087	0.04450
894.89510	0.04428
893.60933	0.04409
892.32357	0.04404
891.03780	0.04429
889.75203	0.04500
888.46626	0.04623
887.18049	0.04800
885.89472	0.05037
884.60895	0.05353
883.32318	0.05757
882.03742	0.06223
880.75165	0.06686
879.46588	0.07079
878.18011	0.07375
876.89434	0.07610
875.60857	0.07836
874.32280	0.08058
873.03703	0.08222
871.75126	0.08255
870.46550	0.08122
869.17973	0.07848
867.89396	0.07484
866.60819	0.07081
865.32242	0.06674
864.03665	0.06283
862.75088	0.05924
861.46511	0.05607
860.17935	0.05341
858.89358	0.05127
857.60781	0.04955
856.32204	0.04817
855.03627	0.04708
853.75050	0.04624
852.46473	0.04558
851.17896	0.04498
849.89319	0.04439
848.60743	0.04379
847.32166	0.04324
846.03589	0.04277
844.75012	0.04238
843.46435	0.04201
842.17858	0.04160
840.89281	0.04114
839.60704	0.04064
838.32128	0.04014
837.03551	0.03969
835.74974	0.03936
834.46397	0.03915
833.17820	0.03901
831.89243	0.03886
830.60666	0.03864
829.32089	0.03839
828.03512	0.03820
826.74936	0.03811
825.46359	0.03804
824.17782	0.03787
822.89205	0.03759
821.60628	0.03728
820.32051	0.03707
819.03474	0.03697
817.74897	0.03689
816.46321	0.03679
815.17744	0.03666
813.89167	0.03654
812.60590	0.03647
811.32013	0.03644
810.03436	0.03641
808.74859	0.03635
807.46282	0.03625
806.17705	0.03613
804.89129	0.03596
803.60552	0.03580
802.31975	0.03571
801.03398	0.03573
799.74821	0.03578
798.46244	0.03576
797.17667	0.03564
795.89090	0.03542
794.60513	0.03513
793.31937	0.03484
792.03360	0.03463
790.74783	0.03453
789.46206	0.03451
788.17629	0.03450
786.89052	0.03449
785.60475	0.03455
784.31898	0.03466
783.03322	0.03473
781.74745	0.03466
780.46168	0.03446
779.17591	0.03427
777.89014	0.03417
776.60437	0.03415
775.31860	0.03418
774.03283	0.03422
772.74706	0.03424
771.46130	0.03423
770.17553	0.03418
768.88976	0.03412
767.60399	0.03406
766.31822	0.03406
765.03245	0.03409
763.74668	0.03412
762.46091	0.03408
761.17515	0.03403
759.88938	0.03400
758.60361	0.03402
757.31784	0.03405
756.03207	0.03406
754.74630	0.03406
753.46053	0.03406
752.17476	0.03408
750.88899	0.03410
749.60323	0.03407
748.31746	0.03398
747.03169	0.03385
745.74592	0.03369
744.46015	0.03352
743.17438	0.03336
741.88861	0.03329
740.60284	0.03333
739.31708	0.03338
738.03131	0.03336
736.74554	0.03326
735.45977	0.03314
734.17400	0.03309
732.88823	0.03314
731.60246	0.03329
730.31669	0.03351
729.03092	0.03376
727.74516	0.03401
726.45939	0.03424
725.17362	0.03445
723.88785	0.03449
722.60208	0.03471
721.31631	0.03499
720.03054	0.03525
718.74477	0.03548
717.45901	0.03566
716.17324	0.03572
714.88747	0.03563
713.60170	0.03537
712.31593	0.03501
711.03016	0.03463
709.74439	0.03427
708.45862	0.03397
707.17285	0.03374
705.88709	0.03357
704.60132	0.03348
703.31555	0.03343
702.02978	0.03336
700.74401	0.03325
699.45824	0.03309
698.17247	0.03293
696.88670	0.03283
695.60094	0.03278
694.31517	0.03276
693.02940	0.03272
691.74363	0.03265
690.45786	0.03260
689.17209	0.03259
687.88632	0.03260
686.60055	0.03261
685.31478	0.03260
684.02902	0.03257
682.74325	0.03254
681.45748	0.03248
680.17171	0.03238
678.88594	0.03226
677.60017	0.03216
676.31440	0.03211
675.02863	0.03213
673.74287	0.03218
672.45710	0.03222
671.17133	0.03226
669.88556	0.03230
668.59979	0.03242
667.31402	0.03262
666.02825	0.03281
664.74248	0.03289
663.45671	0.03286
662.17095	0.03275
660.88518	0.03260
659.59941	0.03242
658.31364	0.03221
657.02787	0.03205
655.74210	0.03198
654.45633	0.03203
653.17056	0.03214
651.88480	0.03224
650.59903	0.03228
649.31326	0.03227
648.02749	0.03226
646.74172	0.03231
645.45595	0.03246
644.17018	0.03272
642.88441	0.03301
641.59864	0.03327
640.31288	0.03344
639.02711	0.03358
637.74134	0.03374
636.45557	0.03397
635.16980	0.03429
633.88403	0.03465
632.59826	0.03505
631.31249	0.03554
630.02673	0.03641
628.74096	0.03750
627.45519	0.03764
626.16942	0.03895
624.88365	0.04109
623.59788	0.04326
622.31211	0.04532
621.02634	0.04773
619.74057	0.05103
618.45481	0.05513
617.16904	0.05915
615.88327	0.06213
614.59750	0.06408
613.31173	0.06627
612.02596	0.07021
610.74019	0.07636
609.45442	0.08364
608.16866	0.09057
606.88289	0.09667
605.59712	0.10226
604.31135	0.10737
603.02558	0.11122
601.73981	0.11283
600.45404	0.11197
599.16827	0.10923
597.88250	0.10551
596.59674	0.10142
595.31097	0.09725
594.02520	0.09326
592.73943	0.08982
591.45366	0.08734
590.16789	0.08604
588.88212	0.08576
587.59635	0.08622
586.31059	0.08721
585.02482	0.08868
583.73905	0.09061
582.45328	0.09295
581.16751	0.09561
579.88174	0.09849
578.59597	0.10153
577.31020	0.10469
576.02443	0.10791
574.73867	0.11112
573.45290	0.11427
572.16713	0.11738
570.88136	0.12067
569.59559	0.12446
568.30982	0.12900
567.02405	0.13424
565.73828	0.13975
564.45251	0.14477
563.16675	0.14849
561.88098	0.15029
560.59521	0.14978
559.30944	0.14685
558.02367	0.14173
556.73790	0.13493
555.45213	0.12717
554.16636	0.11914
552.88060	0.11131
551.59483	0.10391
550.30906	0.09702
549.02329	0.09073
547.73752	0.08514
546.45175	0.08030
545.16598	0.07612
543.88021	0.07247
542.59444	0.06926
541.30868	0.06642
540.02291	0.06387
538.73714	0.06151
537.45137	0.05931
536.16560	0.05728
534.87983	0.05545
533.59406	0.05378
532.30829	0.05219
531.02253	0.05064
529.73676	0.04915
528.45099	0.04779
527.16522	0.04657
525.87945	0.04547
524.59368	0.04442
523.30791	0.04338
522.02214	0.04237
520.73637	0.04145
519.45061	0.04061
518.16484	0.03982
516.87907	0.03902
515.59330	0.03819
514.30753	0.03739
513.02176	0.03668
511.73599	0.03608
510.45022	0.03558
509.16446	0.03515
507.87869	0.03473
506.59292	0.03430
505.30715	0.03383
504.02138	0.03334
502.73561	0.03286
501.44984	0.03244
500.16407	0.03206
498.87830	0.03170
497.59254	0.03135
496.30677	0.03104
495.02100	0.03074
493.73523	0.03042
492.44946	0.03008
491.16369	0.02977
489.87792	0.02953
488.59215	0.02937
487.30639	0.02926
486.02062	0.02918
484.73485	0.02916
483.44908	0.02920
482.16331	0.02930
480.87754	0.02944
479.59177	0.02960
478.30600	0.02982
477.02023	0.03014
475.73447	0.03055
474.44870	0.03097
473.16293	0.03130
471.87716	0.03146
470.59139	0.03143
469.30562	0.03122
468.01985	0.03092
466.73408	0.03059
465.44832	0.03026
464.16255	0.02992
462.87678	0.02956
461.59101	0.02919
460.30524	0.02885
459.01947	0.02859
457.73370	0.02834
456.44793	0.02802
455.16216	0.02762
453.87640	0.02720
452.59063	0.02682
451.30486	0.02647
450.01909	0.02613
448.73332	0.02584
447.44755	0.02564
446.16178	0.02552
444.87601	0.02544
443.59025	0.02533
442.30448	0.02518
441.01871	0.02501
439.73294	0.02485
438.44717	0.02475
437.16140	0.02470
435.87563	0.02468
434.58986	0.02463
433.30409	0.02455
432.01833	0.02443
430.73256	0.02432
429.44679	0.02427
428.16102	0.02427
426.87525	0.02429
425.58948	0.02429
424.30371	0.02425
423.01794	0.02416
421.73218	0.02404
420.44641	0.02392
419.16064	0.02384
417.87487	0.02382
416.58910	0.02385
415.30333	0.02389
414.01756	0.02395
412.73179	0.02403
411.44602	0.02414
410.16026	0.02431
408.87449	0.02449
407.58872	0.02465
406.30295	0.02480
405.01718	0.02495
403.73141	0.02511
402.44564	0.02524
401.15987	0.02534
399.87411	0.02545
