3997.45528	-0.01243
3996.16951	-0.01322
3994.88374	-0.01410
3993.59798	-0.01483
3992.31221	-0.01492
3991.02644	-0.01414
3989.74067	-0.01281
3988.45490	-0.01170
3987.16913	-0.01138
3985.88336	-0.01186
3984.59759	-0.01262
3983.31183	-0.01304
3982.02606	-0.01280
3980.74029	-0.01194
3979.45452	-0.01075
3978.16875	-0.00961
3976.88298	-0.00881
3975.59721	-0.00852
3974.31144	-0.00866
3973.02567	-0.00895
3971.73991	-0.00912
3970.45414	-0.00911
3969.16837	-0.00907
3967.88260	-0.00914
3966.59683	-0.00941
3965.31106	-0.00987
3964.02529	-0.01037
3962.73952	-0.01059
3961.45376	-0.01025
3960.16799	-0.00933
3958.88222	-0.00815
3957.59645	-0.00711
3956.31068	-0.00649
3955.02491	-0.00629
3953.73914	-0.00633
3952.45337	-0.00643
3951.16760	-0.00652
3949.88184	-0.00670
3948.59607	-0.00710
3947.31030	-0.00785
3946.02453	-0.00881
3944.73876	-0.00957
3943.45299	-0.00971
3942.16722	-0.00927
3940.88145	-0.00868
3939.59569	-0.00833
3938.30992	-0.00823
3937.02415	-0.00819
3935.73838	-0.00817
3934.45261	-0.00830
3933.16684	-0.00863
3931.88107	-0.00891
3930.59530	-0.00892
3929.30953	-0.00867
3928.02377	-0.00835
3926.73800	-0.00807
3925.45223	-0.00774
3924.16646	-0.00723
3922.88069	-0.00657
3921.59492	-0.00603
3920.30915	-0.00591
3919.02338	-0.00630
3917.73762	-0.00700
3916.45185	-0.00768
3915.16608	-0.00807
3913.88031	-0.00806
3912.59454	-0.00774
3911.30877	-0.00726
3910.02300	-0.00681
3908.73723	-0.00656
3907.45146	-0.00675
3906.16570	-0.00743
3904.87993	-0.00829
3903.59416	-0.00877
3902.30839	-0.00859
3901.02262	-0.00805
3899.73685	-0.00757
3898.45108	-0.00729
3897.16531	-0.00700
3895.87955	-0.00651
3894.59378	-0.00584
3893.30801	-0.00511
3892.02224	-0.00447
3890.73647	-0.00404
3889.45070	-0.00395
3888.16493	-0.00431
3886.87916	-0.00503
3885.59339	-0.00571
3884.30763	-0.00590
3883.02186	-0.00546
3881.73609	-0.00469
3880.45032	-0.00411
3879.16455	-0.00410
3877.87878	-0.00468
3876.59301	-0.00548
3875.30724	-0.00608
3874.02148	-0.00626
3872.73571	-0.00608
3871.44994	-0.00570
3870.16417	-0.00530
3868.87840	-0.00503
3867.59263	-0.00494
3866.30686	-0.00490
3865.02109	-0.00484
3863.73532	-0.00487
3862.44956	-0.00523
3861.16379	-0.00592
3859.87802	-0.00661
3858.59225	-0.00694
3857.30648	-0.00677
3856.02071	-0.00625
3854.73494	-0.00564
3853.44917	-0.00518
3852.16341	-0.00496
3850.87764	-0.00481
3849.59187	-0.00452
3848.30610	-0.00405
3847.02033	-0.00361
3845.73456	-0.00345
3844.44879	-0.00363
3843.16302	-0.00405
3841.87725	-0.00459
3840.59149	-0.00510
3839.30572	-0.00529
3838.01995	-0.00497
3836.73418	-0.00424
3835.44841	-0.00347
3834.16264	-0.00298
3832.87687	-0.00292
3831.59110	-0.00325
3830.30534	-0.00379
3829.01957	-0.00433
3827.73380	-0.00467
3826.44803	-0.00476
3825.16226	-0.00469
3823.87649	-0.00452
3822.59072	-0.00424
3821.30495	-0.00383
3820.01918	-0.00336
3818.73342	-0.00302
3817.44765	-0.00289
3816.16188	-0.00291
3814.87611	-0.00302
3813.59034	-0.00330
3812.30457	-0.00389
3811.01880	-0.00471
3809.73303	-0.00542
3808.44726	-0.00568
3807.16150	-0.00535
3805.87573	-0.00450
3804.58996	-0.00337
3803.30419	-0.00239
3802.01842	-0.00194
3800.73265	-0.00212
3799.44688	-0.00261
3798.16111	-0.00303
3796.87535	-0.00323
3795.58958	-0.00329
3794.30381	-0.00324
3793.01804	-0.00295
3791.73227	-0.00239
3790.44650	-0.00180
3789.16073	-0.00158
3787.87496	-0.00185
3786.58919	-0.00244
3785.30343	-0.00308
3784.01766	-0.00355
3782.73189	-0.00359
3781.44612	-0.00306
3780.16035	-0.00220
3778.87458	-0.00164
3777.58881	-0.00180
3776.30304	-0.00240
3775.01728	-0.00276
3773.73151	-0.00254
3772.44574	-0.00214
3771.15997	-0.00215
3769.87420	-0.00268
3768.58843	-0.00329
3767.30266	-0.00349
3766.01689	-0.00323
3764.73112	-0.00287
3763.44536	-0.00273
3762.15959	-0.00286
3760.87382	-0.00303
3759.58805	-0.00302
3758.30228	-0.00275
3757.01651	-0.00239
3755.73074	-0.00226
3754.44497	-0.00251
3753.15921	-0.00294
3751.87344	-0.00311
3750.58767	-0.00280
3749.30190	-0.00233
3748.01613	-0.00215
3746.73036	-0.00242
3745.44459	-0.00296
3744.15882	-0.00338
3742.87305	-0.00349
3741.58729	-0.00339
3740.30152	-0.00325
3739.01575	-0.00314
3737.72998	-0.00306
3736.44421	-0.00298
3735.15844	-0.00284
3733.87267	-0.00252
3732.58690	-0.00223
3731.30114	-0.00239
3730.01537	-0.00318
3728.72960	-0.00442
3727.44383	-0.00553
3726.15806	-0.00603
3724.87229	-0.00582
3723.58652	-0.00521
3722.30075	-0.00490
3721.01498	-0.00519
3719.72922	-0.00556
3718.44345	-0.00549
3717.15768	-0.00497
3715.87191	-0.00444
3714.58614	-0.00403
3713.30037	-0.00354
3712.01460	-0.00304
3710.72883	-0.00266
3709.44307	-0.00242
3708.15730	-0.00251
3706.87153	-0.00289
3705.58576	-0.00348
3704.29999	-0.00416
3703.01422	-0.00461
3701.72845	-0.00467
3700.44268	-0.00438
3699.15691	-0.00386
3697.87115	-0.00330
3696.58538	-0.00277
3695.29961	-0.00237
3694.01384	-0.00206
3692.72807	-0.00198
3691.44230	-0.00212
3690.15653	-0.00242
3688.87076	-0.00291
3687.58500	-0.00343
3686.29923	-0.00372
3685.01346	-0.00374
3683.72769	-0.00350
3682.44192	-0.00297
3681.15615	-0.00226
3679.87038	-0.00157
3678.58461	-0.00107
3677.29884	-0.00082
3676.01308	-0.00068
3674.72731	-0.00062
3673.44154	-0.00086
3672.15577	-0.00140
3670.87000	-0.00187
3669.58423	-0.00191
3668.29846	-0.00161
3667.01269	-0.00142
3665.72693	-0.00151
3664.44116	-0.00170
3663.15539	-0.00174
3661.86962	-0.00165
3660.58385	-0.00153
3659.29808	-0.00121
3658.01231	-0.00041
3656.72654	0.00082
3655.44077	0.00203
3654.15501	0.00270
3652.86924	0.00265
3651.58347	0.00207
3650.29770	0.00139
3649.01193	0.00106
3647.72616	0.00124
3646.44039	0.00167
3645.15462	0.00184
3643.86886	0.00147
3642.58309	0.00074
3641.29732	0.00011
3640.01155	-0.00009
3638.72578	0.00012
3637.44001	0.00046
3636.15424	0.00055
3634.86847	0.00030
3633.58270	-0.00013
3632.29694	-0.00030
3631.01117	0.00012
3629.72540	0.00105
3628.43963	0.00209
3627.15386	0.00269
3625.86809	0.00263
3624.58232	0.00217
3623.29655	0.00209
3622.01079	0.00273
3620.72502	0.00382
3619.43925	0.00455
3618.15348	0.00455
3616.86771	0.00414
3615.58194	0.00392
3614.29617	0.00424
3613.01040	0.00496
3611.72463	0.00561
3610.43887	0.00565
3609.15310	0.00498
3607.86733	0.00401
3606.58156	0.00332
3605.29579	0.00313
3604.01002	0.00340
3602.72425	0.00405
3601.43848	0.00486
3600.15272	0.00555
3598.86695	0.00589
3597.58118	0.00590
3596.29541	0.00557
3595.00964	0.00530
3593.72387	0.00537
3592.43810	0.00563
3591.15233	0.00605
3589.86656	0.00649
3588.58080	0.00673
3587.29503	0.00690
3586.00926	0.00706
3584.72349	0.00709
3583.43772	0.00704
3582.15195	0.00709
3580.86618	0.00736
3579.58041	0.00786
3578.29464	0.00851
3577.00888	0.00919
3575.72311	0.00971
3574.43734	0.00984
3573.15157	0.00956
3571.86580	0.00914
3570.58003	0.00891
3569.29426	0.00898
3568.00849	0.00917
3566.72273	0.00927
3565.43696	0.00930
3564.15119	0.00959
3562.86542	0.01019
3561.57965	0.01086
3560.29388	0.01125
3559.00811	0.01130
3557.72234	0.01126
3556.43657	0.01139
3555.15081	0.01173
3553.86504	0.01205
3552.57927	0.01219
3551.29350	0.01220
3550.00773	0.01229
3548.72196	0.01250
3547.43619	0.01267
3546.15042	0.01255
3544.86466	0.01213
3543.57889	0.01158
3542.29312	0.01117
3541.00735	0.01110
3539.72158	0.01143
3538.43581	0.01200
3537.15004	0.01264
3535.86427	0.01322
3534.57850	0.01367
3533.29274	0.01389
3532.00697	0.01386
3530.72120	0.01376
3529.43543	0.01387
3528.14966	0.01428
3526.86389	0.01476
3525.57812	0.01504
3524.29235	0.01506
3523.00659	0.01495
3521.72082	0.01479
3520.43505	0.01448
3519.14928	0.01396
3517.86351	0.01344
3516.57774	0.01337
3515.29197	0.01402
3514.00620	0.01516
3512.72043	0.01618
3511.43467	0.01662
3510.14890	0.01646
3508.86313	0.01602
3507.57736	0.01573
3506.29159	0.01590
3505.00582	0.01647
3503.72005	0.01705
3502.43428	0.01731
3501.14852	0.01733
3499.86275	0.01743
3498.57698	0.01768
3497.29121	0.01789
3496.00544	0.01786
3494.71967	0.01770
3493.43390	0.01755
3492.14813	0.01743
3490.86236	0.01726
3489.57660	0.01703
3488.29083	0.01688
3487.00506	0.01700
3485.71929	0.01741
3484.43352	0.01791
3483.14775	0.01824
3481.86198	0.01831
3480.57621	0.01813
3479.29045	0.01777
3478.00468	0.01731
3476.71891	0.01693
3475.43314	0.01686
3474.14737	0.01718
3472.86160	0.01785
3471.57583	0.01871
3470.29006	0.01959
3469.00429	0.02030
3467.71853	0.02064
3466.43276	0.02044
3465.14699	0.01977
3463.86122	0.01900
3462.57545	0.01863
3461.28968	0.01882
3460.00391	0.01935
3458.71814	0.01985
3457.43238	0.02025
3456.14661	0.02070
3454.86084	0.02124
3453.57507	0.02166
3452.28930	0.02172
3451.00353	0.02146
3449.71776	0.02112
3448.43199	0.02087
3447.14622	0.02067
3445.86046	0.02039
3444.57469	0.02012
3443.28892	0.02010
3442.00315	0.02052
3440.71738	0.02118
3439.43161	0.02164
3438.14584	0.02161
3436.86007	0.02126
3435.57431	0.02100
3434.28854	0.02105
3433.00277	0.02131
3431.71700	0.02153
3430.43123	0.02167
3429.14546	0.02182
3427.85969	0.02207
3426.57392	0.02238
3425.28815	0.02265
3424.00239	0.02278
3422.71662	0.02274
3421.43085	0.02264
3420.14508	0.02267
3418.85931	0.02295
3417.57354	0.02336
3416.28777	0.02363
3415.00200	0.02356
3413.71624	0.02325
3412.43047	0.02306
3411.14470	0.02328
3409.85893	0.02379
3408.57316	0.02425
3407.28739	0.02443
3406.00162	0.02444
3404.71585	0.02446
3403.43008	0.02448
3402.14432	0.02438
3400.85855	0.02416
3399.57278	0.02388
3398.28701	0.02364
3397.00124	0.02349
3395.71547	0.02348
3394.42970	0.02360
3393.14393	0.02376
3391.85817	0.02386
3390.57240	0.02392
3389.28663	0.02402
3388.00086	0.02425
3386.71509	0.02456
3385.42932	0.02485
3384.14355	0.02497
3382.85778	0.02484
3381.57201	0.02447
3380.28625	0.02401
3379.00048	0.02366
3377.71471	0.02354
3376.42894	0.02366
3375.14317	0.02398
3373.85740	0.02439
3372.57163	0.02473
3371.28586	0.02479
3370.00010	0.02457
3368.71433	0.02426
3367.42856	0.02412
3366.14279	0.02424
3364.85702	0.02453
3363.57125	0.02482
3362.28548	0.02499
3360.99971	0.02496
3359.71394	0.02471
3358.42818	0.02436
3357.14241	0.02417
3355.85664	0.02430
3354.57087	0.02474
3353.28510	0.02524
3351.99933	0.02559
3350.71356	0.02573
3349.42779	0.02573
3348.14202	0.02567
3346.85626	0.02564
3345.57049	0.02569
3344.28472	0.02582
3342.99895	0.02592
3341.71318	0.02586
3340.42741	0.02564
3339.14164	0.02535
3337.85587	0.02512
3336.57011	0.02502
3335.28434	0.02507
3333.99857	0.02524
3332.71280	0.02543
3331.42703	0.02552
3330.14126	0.02548
3328.85549	0.02544
3327.56972	0.02552
3326.28395	0.02585
3324.99819	0.02636
3323.71242	0.02684
3322.42665	0.02702
3321.14088	0.02687
3319.85511	0.02655
3318.56934	0.02617
3317.28357	0.02574
3315.99780	0.02527
3314.71204	0.02484
3313.42627	0.02458
3312.14050	0.02455
3310.85473	0.02470
3309.56896	0.02487
3308.28319	0.02492
3306.99742	0.02485
3305.71165	0.02479
3304.42588	0.02478
3303.14012	0.02474
3301.85435	0.02459
3300.56858	0.02439
3299.28281	0.02429
3297.99704	0.02433
3296.71127	0.02448
3295.42550	0.02465
3294.13973	0.02483
3292.85397	0.02502
3291.56820	0.02524
3290.28243	0.02544
3288.99666	0.02548
3287.71089	0.02522
3286.42512	0.02473
3285.13935	0.02437
3283.85358	0.02444
3282.56781	0.02487
3281.28205	0.02522
3279.99628	0.02511
3278.71051	0.02456
3277.42474	0.02393
3276.13897	0.02360
3274.85320	0.02371
3273.56743	0.02415
3272.28166	0.02467
3270.99590	0.02505
3269.71013	0.02517
3268.42436	0.02504
3267.13859	0.02478
3265.85282	0.02457
3264.56705	0.02451
3263.28128	0.02449
3261.99551	0.02439
3260.70974	0.02421
3259.42398	0.02417
3258.13821	0.02444
3256.85244	0.02495
3255.56667	0.02536
3254.28090	0.02529
3252.99513	0.02463
3251.70936	0.02372
3250.42359	0.02309
3249.13783	0.02303
3247.85206	0.02342
3246.56629	0.02388
3245.28052	0.02416
3243.99475	0.02418
3242.70898	0.02401
3241.42321	0.02369
3240.13744	0.02330
3238.85167	0.02297
3237.56591	0.02286
3236.28014	0.02307
3234.99437	0.02354
3233.70860	0.02408
3232.42283	0.02447
3231.13706	0.02455
3229.85129	0.02436
3228.56552	0.02405
3227.27976	0.02376
3225.99399	0.02352
3224.70822	0.02324
3223.42245	0.02297
3222.13668	0.02286
3220.85091	0.02307
3219.56514	0.02353
3218.27937	0.02395
3216.99360	0.02406
3215.70784	0.02381
3214.42207	0.02342
3213.13630	0.02314
3211.85053	0.02308
3210.56476	0.02312
3209.27899	0.02307
3207.99322	0.02282
3206.70745	0.02253
3205.42169	0.02245
3204.13592	0.02269
3202.85015	0.02310
3201.56438	0.02343
3200.27861	0.02357
3198.99284	0.02358
3197.70707	0.02353
3196.42130	0.02341
3195.13553	0.02320
3193.84977	0.02295
3192.56400	0.02276
3191.27823	0.02274
3189.99246	0.02288
3188.70669	0.02306
3187.42092	0.02312
3186.13515	0.02295
3184.84938	0.02262
3183.56362	0.02234
3182.27785	0.02238
3180.99208	0.02282
3179.70631	0.02342
3178.42054	0.02378
3177.13477	0.02363
3175.84900	0.02309
3174.56323	0.02255
3173.27746	0.02233
3171.99170	0.02243
3170.70593	0.02259
3169.42016	0.02257
3168.13439	0.02241
3166.84862	0.02240
3165.56285	0.02277
3164.27708	0.02343
3162.99131	0.02398
3161.70555	0.02409
3160.41978	0.02374
3159.13401	0.02325
3157.84824	0.02292
3156.56247	0.02283
3155.27670	0.02285
3153.99093	0.02284
3152.70516	0.02269
3151.41939	0.02239
3150.13363	0.02201
3148.84786	0.02174
3147.56209	0.02177
3146.27632	0.02210
3144.99055	0.02257
3143.70478	0.02287
3142.41901	0.02277
3141.13324	0.02230
3139.84748	0.02175
3138.56171	0.02143
3137.27594	0.02136
3135.99017	0.02137
3134.70440	0.02138
3133.41863	0.02146
3132.13286	0.02166
3130.84709	0.02186
3129.56132	0.02195
3128.27556	0.02195
3126.98979	0.02191
3125.70402	0.02185
3124.41825	0.02180
3123.13248	0.02180
3121.84671	0.02186
3120.56094	0.02182
3119.27517	0.02161
3117.98940	0.02132
3116.70364	0.02117
3115.41787	0.02120
3114.13210	0.02126
3112.84633	0.02117
3111.56056	0.02095
3110.27479	0.02079
3108.98902	0.02081
3107.70325	0.02097
3106.41749	0.02121
3105.13172	0.02147
3103.84595	0.02174
3102.56018	0.02199
3101.27441	0.02218
3099.98864	0.02228
3098.70287	0.02225
3097.41710	0.02200
3096.13133	0.02155
3094.84557	0.02104
3093.55980	0.02065
3092.27403	0.02046
3090.98826	0.02041
3089.70249	0.02048
3088.41672	0.02067
3087.13095	0.02091
3085.84518	0.02116
3084.55942	0.02138
3083.27365	0.02152
3081.98788	0.02152
3080.70211	0.02136
3079.41634	0.02113
3078.13057	0.02096
3076.84480	0.02085
3075.55903	0.02069
3074.27326	0.02040
3072.98750	0.01999
3071.70173	0.01961
3070.41596	0.01935
3069.13019	0.01927
3067.84442	0.01936
3066.55865	0.01955
3065.27288	0.01975
3063.98711	0.01988
3062.70135	0.01994
3061.41558	0.02002
3060.12981	0.02018
3058.84404	0.02035
3057.55827	0.02037
3056.27250	0.02018
3054.98673	0.01983
3053.70096	0.01951
3052.41519	0.01935
3051.12943	0.01939
3049.84366	0.01950
3048.55789	0.01952
3047.27212	0.01940
3045.98635	0.01923
3044.70058	0.01911
3043.41481	0.01909
3042.12904	0.01914
3040.84328	0.01925
3039.55751	0.01934
3038.27174	0.01929
3036.98597	0.01908
3035.70020	0.01880
3034.41443	0.01867
3033.12866	0.01876
3031.84289	0.01901
3030.55712	0.01933
3029.27136	0.01964
3027.98559	0.01986
3026.69982	0.01989
3025.41405	0.01968
3024.12828	0.01929
3022.84251	0.01890
3021.55674	0.01870
3020.27097	0.01873
3018.98521	0.01892
3017.69944	0.01910
3016.41367	0.01918
3015.12790	0.01920
3013.84213	0.01918
3012.55636	0.01912
3011.27059	0.01904
3009.98482	0.01903
3008.69905	0.01918
3007.41329	0.01943
3006.12752	0.01963
3004.84175	0.01961
3003.55598	0.01935
3002.27021	0.01893
3000.98444	0.01850
2999.69867	0.01821
2998.41290	0.01815
2997.12714	0.01826
2995.84137	0.01842
2994.55560	0.01849
2993.26983	0.01846
2991.98406	0.01848
2990.69829	0.01873
2989.41252	0.01913
2988.12675	0.01945
2986.84098	0.01958
2985.55522	0.01967
2984.26945	0.01992
2982.98368	0.02031
2981.69791	0.02061
2980.41214	0.02072
2979.12637	0.02073
2977.84060	0.02083
2976.55483	0.02108
2975.26907	0.02132
2973.98330	0.02137
2972.69753	0.02121
2971.41176	0.02103
2970.12599	0.02102
2968.84022	0.02117
2967.55445	0.02142
2966.26868	0.02174
2964.98291	0.02204
2963.69715	0.02224
2962.41138	0.02231
2961.12561	0.02238
2959.83984	0.02257
2958.55407	0.02283
2957.26830	0.02302
2955.98253	0.02303
2954.69676	0.02294
2953.41100	0.02287
2952.12523	0.02288
2950.83946	0.02298
2949.55369	0.02318
2948.26792	0.02345
2946.98215	0.02371
2945.69638	0.02382
2944.41061	0.02374
2943.12484	0.02350
2941.83908	0.02324
2940.55331	0.02314
2939.26754	0.02330
2937.98177	0.02368
2936.69600	0.02410
2935.41023	0.02436
2934.12446	0.02443
2932.83869	0.02440
2931.55293	0.02437
2930.26716	0.02438
2928.98139	0.02440
2927.69562	0.02452
2926.40985	0.02482
2925.12408	0.02525
2923.83831	0.02565
2922.55254	0.02587
2921.26677	0.02592
2919.98101	0.02585
2918.69524	0.02563
2917.40947	0.02525
2916.12370	0.02478
2914.83793	0.02435
2913.55216	0.02401
2912.26639	0.02379
2910.98062	0.02377
2909.69486	0.02391
2908.40909	0.02407
2907.12332	0.02407
2905.83755	0.02385
2904.55178	0.02353
2903.26601	0.02322
2901.98024	0.02300
2900.69447	0.02285
2899.40870	0.02270
2898.12294	0.02250
2896.83717	0.02226
2895.55140	0.02206
2894.26563	0.02191
2892.97986	0.02173
2891.69409	0.02146
2890.40832	0.02119
2889.12255	0.02107
2887.83678	0.02119
2886.55102	0.02137
2885.26525	0.02139
2883.97948	0.02113
2882.69371	0.02071
2881.40794	0.02038
2880.12217	0.02036
2878.83640	0.02071
2877.55063	0.02126
2876.26487	0.02171
2874.97910	0.02186
2873.69333	0.02176
2872.40756	0.02159
2871.12179	0.02149
2869.83602	0.02150
2868.55025	0.02148
2867.26448	0.02131
2865.97871	0.02099
2864.69295	0.02071
2863.40718	0.02068
2862.12141	0.02095
2860.83564	0.02138
2859.54987	0.02177
2858.26410	0.02197
2856.97833	0.02194
2855.69256	0.02174
2854.40680	0.02152
2853.12103	0.02141
2851.83526	0.02142
2850.54949	0.02142
2849.26372	0.02124
2847.97795	0.02085
2846.69218	0.02038
2845.40641	0.01993
2844.12064	0.01952
2842.83488	0.01921
2841.54911	0.01907
2840.26334	0.01915
2838.97757	0.01929
2837.69180	0.01931
2836.40603	0.01913
2835.12026	0.01881
2833.83449	0.01849
2832.54873	0.01823
2831.26296	0.01808
2829.97719	0.01802
2828.69142	0.01804
2827.40565	0.01813
2826.11988	0.01823
2824.83411	0.01825
2823.54834	0.01811
2822.26257	0.01781
2820.97681	0.01747
2819.69104	0.01715
2818.40527	0.01685
2817.11950	0.01660
2815.83373	0.01652
2814.54796	0.01662
2813.26219	0.01677
2811.97642	0.01680
2810.69066	0.01673
2809.40489	0.01672
2808.11912	0.01683
2806.83335	0.01698
2805.54758	0.01707
2804.26181	0.01706
2802.97604	0.01696
2801.69027	0.01684
2800.40450	0.01675
2799.11874	0.01670
2797.83297	0.01666
2796.54720	0.01653
2795.26143	0.01628
2793.97566	0.01597
2792.68989	0.01573
2791.40412	0.01563
2790.11835	0.01571
2788.83259	0.01590
2787.54682	0.01609
2786.26105	0.01619
2784.97528	0.01615
2783.68951	0.01602
2782.40374	0.01591
2781.11797	0.01592
2779.83220	0.01608
2778.54643	0.01627
2777.26067	0.01632
2775.97490	0.01617
2774.68913	0.01592
2773.40336	0.01573
2772.11759	0.01563
2770.83182	0.01554
2769.54605	0.01540
2768.26028	0.01523
2766.97452	0.01512
2765.68875	0.01516
2764.40298	0.01538
2763.11721	0.01564
2761.83144	0.01576
2760.54567	0.01568
2759.25990	0.01555
2757.97413	0.01557
2756.68836	0.01575
2755.40260	0.01591
2754.11683	0.01585
2752.83106	0.01556
2751.54529	0.01521
2750.25952	0.01502
2748.97375	0.01506
2747.68798	0.01525
2746.40221	0.01540
2745.11645	0.01540
2743.83068	0.01528
2742.54491	0.01512
2741.25914	0.01494
2739.97337	0.01481
2738.68760	0.01482
2737.40183	0.01498
2736.11606	0.01516
2734.83029	0.01523
2733.54453	0.01518
2732.25876	0.01506
2730.97299	0.01492
2729.68722	0.01482
2728.40145	0.01484
2727.11568	0.01501
2725.82991	0.01520
2724.54414	0.01520
2723.25838	0.01495
2721.97261	0.01468
2720.68684	0.01464
2719.40107	0.01485
2718.11530	0.01511
2716.82953	0.01519
2715.54376	0.01510
2714.25799	0.01500
2712.97222	0.01497
2711.68646	0.01494
2710.40069	0.01484
2709.11492	0.01465
2707.82915	0.01440
2706.54338	0.01417
2705.25761	0.01407
2703.97184	0.01418
2702.68607	0.01446
2701.40031	0.01471
2700.11454	0.01477
2698.82877	0.01463
2697.54300	0.01438
2696.25723	0.01416
2694.97146	0.01407
2693.68569	0.01414
2692.39992	0.01432
2691.11415	0.01450
2689.82839	0.01459
2688.54262	0.01456
2687.25685	0.01444
2685.97108	0.01429
2684.68531	0.01416
2683.39954	0.01409
2682.11377	0.01408
2680.82800	0.01407
2679.54224	0.01399
2678.25647	0.01384
2676.97070	0.01373
2675.68493	0.01377
2674.39916	0.01392
2673.11339	0.01408
2671.82762	0.01414
2670.54185	0.01415
2669.25608	0.01419
2667.97032	0.01433
2666.68455	0.01450
2665.39878	0.01464
2664.11301	0.01473
2662.82724	0.01481
2661.54147	0.01496
2660.25570	0.01516
2658.96993	0.01529
2657.68417	0.01525
2656.39840	0.01499
2655.11263	0.01460
2653.82686	0.01429
2652.54109	0.01417
2651.25532	0.01421
2649.96955	0.01427
2648.68378	0.01425
2647.39801	0.01419
2646.11225	0.01414
2644.82648	0.01408
2643.54071	0.01395
2642.25494	0.01374
2640.96917	0.01353
2639.68340	0.01344
2638.39763	0.01349
2637.11186	0.01352
2635.82609	0.01338
2634.54033	0.01303
2633.25456	0.01259
2631.96879	0.01222
2630.68302	0.01210
2629.39725	0.01226
2628.11148	0.01255
2626.82571	0.01277
2625.53994	0.01285
2624.25418	0.01283
2622.96841	0.01272
2621.68264	0.01249
2620.39687	0.01216
2619.11110	0.01188
2617.82533	0.01175
2616.53956	0.01180
2615.25379	0.01197
2613.96802	0.01218
2612.68226	0.01230
2611.39649	0.01227
2610.11072	0.01224
2608.82495	0.01235
2607.53918	0.01254
2606.25341	0.01260
2604.96764	0.01239
2603.68187	0.01203
2602.39611	0.01164
2601.11034	0.01124
2599.82457	0.01085
2598.53880	0.01057
2597.25303	0.01057
2595.96726	0.01082
2594.68149	0.01109
2593.39572	0.01124
2592.10995	0.01126
2590.82419	0.01127
2589.53842	0.01136
2588.25265	0.01149
2586.96688	0.01155
2585.68111	0.01149
2584.39534	0.01141
2583.10957	0.01143
2581.82380	0.01149
2580.53804	0.01141
2579.25227	0.01111
2577.96650	0.01075
2576.68073	0.01056
2575.39496	0.01062
2574.10919	0.01085
2572.82342	0.01098
2571.53765	0.01080
2570.25188	0.01025
2568.96612	0.00957
2567.68035	0.00911
2566.39458	0.00913
2565.10881	0.00961
2563.82304	0.01025
2562.53727	0.01081
2561.25150	0.01113
2559.96573	0.01118
2558.67997	0.01097
2557.39420	0.01063
2556.10843	0.01030
2554.82266	0.01010
2553.53689	0.01011
2552.25112	0.01034
2550.96535	0.01069
2549.67958	0.01094
2548.39381	0.01090
2547.10805	0.01062
2545.82228	0.01032
2544.53651	0.01022
2543.25074	0.01033
2541.96497	0.01046
2540.67920	0.01036
2539.39343	0.01000
2538.10766	0.00956
2536.82190	0.00928
2535.53613	0.00921
2534.25036	0.00928
2532.96459	0.00937
2531.67882	0.00947
2530.39305	0.00959
2529.10728	0.00974
2527.82151	0.00989
2526.53574	0.00997
2525.24998	0.00997
2523.96421	0.00998
2522.67844	0.01005
2521.39267	0.01013
2520.10690	0.01010
2518.82113	0.00995
2517.53536	0.00974
2516.24959	0.00961
2514.96383	0.00962
2513.67806	0.00967
2512.39229	0.00964
2511.10652	0.00955
2509.82075	0.00955
2508.53498	0.00976
2507.24921	0.01004
2505.96344	0.01023
2504.67767	0.01030
2503.39191	0.01027
2502.10614	0.01009
2500.82037	0.00965
2499.53460	0.00904
2498.24883	0.00861
2496.96306	0.00868
2495.67729	0.00924
2494.39152	0.01000
2493.10576	0.01056
2491.81999	0.01066
2490.53422	0.01031
2489.24845	0.00981
2487.96268	0.00955
2486.67691	0.00967
2485.39114	0.00996
2484.10537	0.01006
2482.81960	0.00982
2481.53384	0.00935
2480.24807	0.00896
2478.96230	0.00885
2477.67653	0.00895
2476.39076	0.00901
2475.10499	0.00886
2473.81922	0.00870
2472.53345	0.00880
2471.24769	0.00922
2469.96192	0.00970
2468.67615	0.00998
2467.39038	0.01006
2466.10461	0.01011
2464.81884	0.01016
2463.53307	0.01009
2462.24730	0.00978
2460.96153	0.00938
2459.67577	0.00912
2458.39000	0.00925
2457.10423	0.00977
2455.81846	0.01043
2454.53269	0.01083
2453.24692	0.01080
2451.96115	0.01056
2450.67538	0.01047
2449.38962	0.01055
2448.10385	0.01050
2446.81808	0.01014
2445.53231	0.00959
2444.24654	0.00913
2442.96077	0.00890
2441.67500	0.00887
2440.38923	0.00893
2439.10346	0.00902
2437.81770	0.00904
2436.53193	0.00892
2435.24616	0.00877
2433.96039	0.00882
2432.67462	0.00920
2431.38885	0.00968
2430.10308	0.00992
2428.81731	0.00980
2427.53155	0.00951
2426.24578	0.00929
2424.96001	0.00923
2423.67424	0.00925
2422.38847	0.00926
2421.10270	0.00928
2419.81693	0.00945
2418.53116	0.00980
2417.24539	0.01009
2415.95963	0.01009
2414.67386	0.00981
2413.38809	0.00956
2412.10232	0.00954
2410.81655	0.00970
2409.53078	0.00987
2408.24501	0.00991
2406.95924	0.00977
2405.67347	0.00949
2404.38771	0.00915
2403.10194	0.00891
2401.81617	0.00886
2400.53040	0.00906
2399.24463	0.00997
2397.95886	0.01055
2396.67309	0.01053
2395.38732	0.01015
2394.10156	0.00960
2392.81579	0.00903
2391.53002	0.00852
2390.24425	0.00812
2388.95848	0.00782
2387.67271	0.00756
2386.38694	0.00729
2385.10117	0.00705
2383.81540	0.00691
2382.52964	0.00693
2381.24387	0.00704
2379.95810	0.00721
2378.67233	0.00727
2377.38656	0.00708
2376.10079	0.00703
2374.81502	0.00713
2373.52925	0.00689
2372.24349	0.00613
2370.95772	0.00472
2369.67195	0.00368
2368.38618	0.00332
2367.10041	0.00309
2365.81464	0.00329
2364.52887	0.00473
2363.24310	0.00639
2361.95733	0.00677
2360.67157	0.00608
2359.38580	0.00581
2358.10003	0.00587
2356.81426	0.00585
2355.52849	0.00584
2354.24272	0.00561
2352.95695	0.00511
2351.67118	0.00363
2350.38542	0.00074
2349.09965	-0.00095
2347.81388	0.00108
2346.52811	0.00443
2345.24234	0.00555
2343.95657	0.00473
2342.67080	0.00445
2341.38503	0.00499
2340.09926	0.00542
2338.81350	0.00558
2337.52773	0.00528
2336.24196	0.00508
2334.95619	0.00495
2333.67042	0.00489
2332.38465	0.00565
2331.09888	0.00665
2329.81311	0.00716
2328.52735	0.00761
2327.24158	0.00767
2325.95581	0.00745
2324.67004	0.00770
2323.38427	0.00818
2322.09850	0.00855
2320.81273	0.00891
2319.52696	0.00870
2318.24119	0.00787
2316.95543	0.00725
2315.66966	0.00727
2314.38389	0.00775
2313.09812	0.00819
2311.81235	0.00844
2310.52658	0.00854
2309.24081	0.00853
2307.95504	0.00861
2306.66928	0.00882
2305.38351	0.00892
2304.09774	0.00893
2302.81197	0.00895
2301.52620	0.00894
2300.24043	0.00876
2298.95466	0.00846
2297.66889	0.00821
2296.38312	0.00805
2295.09736	0.00801
2293.81159	0.00803
2292.52582	0.00811
2291.24005	0.00828
2289.95428	0.00847
2288.66851	0.00857
2287.38274	0.00852
2286.09697	0.00838
2284.81121	0.00824
2283.52544	0.00825
2282.23967	0.00844
2280.95390	0.00869
2279.66813	0.00881
2278.38236	0.00869
2277.09659	0.00841
2275.81082	0.00808
2274.52505	0.00775
2273.23929	0.00748
2271.95352	0.00727
2270.66775	0.00713
2269.38198	0.00707
2268.09621	0.00706
2266.81044	0.00705
2265.52467	0.00706
2264.23890	0.00716
2262.95314	0.00738
2261.66737	0.00766
2260.38160	0.00783
2259.09583	0.00778
2257.81006	0.00761
2256.52429	0.00746
2255.23852	0.00737
2253.95275	0.00730
2252.66698	0.00715
2251.38122	0.00684
2250.09545	0.00640
2248.80968	0.00590
2247.52391	0.00509
2246.23814	0.00466
2244.95237	0.00494
2243.66660	0.00579
2242.38083	0.00673
2241.09507	0.00727
2239.80930	0.00722
2238.52353	0.00679
2237.23776	0.00629
2235.95199	0.00586
2234.66622	0.00546
2233.38045	0.00509
2232.09468	0.00492
2230.80891	0.00508
2229.52315	0.00531
2228.23738	0.00523
2226.95161	0.00481
2225.66584	0.00456
2224.38007	0.00481
2223.09430	0.00513
2221.80853	0.00484
2220.52276	0.00400
2219.23700	0.00351
2217.95123	0.00408
2216.66546	0.00540
2215.37969	0.00645
2214.09392	0.00644
2212.80815	0.00521
2211.52238	0.00317
2210.23661	0.00120
2208.95084	0.00026
2207.66508	0.00074
2206.37931	0.00210
2205.09354	0.00334
2203.80777	0.00384
2202.52200	0.00375
2201.23623	0.00350
2199.95046	0.00326
2198.66469	0.00293
2197.37893	0.00261
2196.09316	0.00268
2194.80739	0.00346
2193.52162	0.00470
2192.23585	0.00555
2190.95008	0.00519
2189.66431	0.00344
2188.37854	0.00100
2187.09277	-0.00100
2185.80701	-0.00183
2184.52124	-0.00164
2183.23547	-0.00102
2181.94970	-0.00034
2180.66393	0.00047
2179.37816	0.00141
2178.09239	0.00212
2176.80662	0.00218
2175.52085	0.00157
2174.23509	0.00074
2172.94932	0.00013
2171.66355	-0.00015
2170.37778	-0.00021
2169.09201	-0.00009
2167.80624	0.00023
2166.52047	0.00054
2165.23470	0.00046
2163.94894	-0.00017
2162.66317	-0.00113
2161.37740	-0.00211
2160.09163	-0.00298
2158.80586	-0.00374
2157.52009	-0.00441
2156.23432	-0.00480
2154.94855	-0.00449
2153.66278	-0.00329
2152.37702	-0.00152
2151.09125	0.00017
2149.80548	0.00143
2148.51971	0.00231
2147.23394	0.00289
2145.94817	0.00309
2144.66240	0.00289
2143.37663	0.00261
2142.09087	0.00270
2140.80510	0.00327
2139.51933	0.00389
2138.23356	0.00400
2136.94779	0.00342
2135.66202	0.00257
2134.37625	0.00193
2133.09048	0.00164
2131.80471	0.00157
2130.51895	0.00164
2129.23318	0.00187
2127.94741	0.00219
2126.66164	0.00240
2125.37587	0.00242
2124.09010	0.00239
2122.80433	0.00256
2121.51856	0.00302
2120.23280	0.00367
2118.94703	0.00422
2117.66126	0.00440
2116.37549	0.00418
2115.08972	0.00382
2113.80395	0.00363
2112.51818	0.00361
2111.23241	0.00351
2109.94664	0.00320
2108.66088	0.00294
2107.37511	0.00303
2106.08934	0.00351
2104.80357	0.00412
2103.51780	0.00457
2102.23203	0.00467
2100.94626	0.00429
2099.66049	0.00366
2098.37473	0.00277
2097.08896	0.00212
2095.80319	0.00213
2094.51742	0.00277
2093.23165	0.00363
2091.94588	0.00427
2090.66011	0.00442
2089.37434	0.00408
2088.08857	0.00353
2086.80281	0.00308
2085.51704	0.00286
2084.23127	0.00276
2082.94550	0.00271
2081.65973	0.00272
2080.37396	0.00282
2079.08819	0.00283
2077.80242	0.00259
2076.51666	0.00212
2075.23089	0.00167
2073.94512	0.00144
2072.65935	0.00144
2071.37358	0.00151
2070.08781	0.00150
2068.80204	0.00134
2067.51627	0.00108
2066.23050	0.00081
2064.94474	0.00069
2063.65897	0.00085
2062.37320	0.00134
2061.08743	0.00197
2059.80166	0.00237
2058.51589	0.00232
2057.23012	0.00184
2055.94435	0.00121
2054.65859	0.00082
2053.37282	0.00091
2052.08705	0.00141
2050.80128	0.00194
2049.51551	0.00202
2048.22974	0.00142
2046.94397	0.00027
2045.65820	-0.00112
2044.37243	-0.00233
2043.08667	-0.00291
2041.80090	-0.00257
2040.51513	-0.00139
2039.22936	0.00011
2037.94359	0.00132
2036.65782	0.00190
2035.37205	0.00206
2034.08628	0.00221
2032.80052	0.00250
2031.51475	0.00260
2030.22898	0.00212
2028.94321	0.00100
2027.65744	-0.00039
2026.37167	-0.00146
2025.08590	-0.00175
2023.80013	-0.00121
2022.51436	-0.00021
2021.22860	0.00073
2019.94283	0.00132
2018.65706	0.00161
2017.37129	0.00182
2016.08552	0.00208
2014.79975	0.00229
2013.51398	0.00232
2012.22821	0.00211
2010.94245	0.00168
2009.65668	0.00093
2008.37091	-0.00009
2007.08514	-0.00098
2005.79937	-0.00124
2004.51360	-0.00076
2003.22783	0.00009
2001.94206	0.00090
2000.65629	0.00147
1999.37053	0.00172
1998.08476	0.00164
1996.79899	0.00131
1995.51322	0.00090
1994.22745	0.00062
1992.94168	0.00068
1991.65591	0.00116
1990.37014	0.00190
1989.08438	0.00254
1987.79861	0.00291
1986.51284	0.00302
1985.22707	0.00301
1983.94130	0.00296
1982.65553	0.00293
1981.36976	0.00304
1980.08399	0.00332
1978.79822	0.00370
1977.51246	0.00408
1976.22669	0.00442
1974.94092	0.00473
1973.65515	0.00490
1972.36938	0.00476
1971.08361	0.00435
1969.79784	0.00403
1968.51207	0.00417
1967.22631	0.00478
1965.94054	0.00543
1964.65477	0.00561
1963.36900	0.00515
1962.08323	0.00435
1960.79746	0.00372
1959.51169	0.00359
1958.22592	0.00379
1956.94015	0.00392
1955.65439	0.00379
1954.36862	0.00355
1953.08285	0.00343
1951.79708	0.00356
1950.51131	0.00392
1949.22554	0.00438
1947.93977	0.00473
1946.65400	0.00479
1945.36823	0.00459
1944.08247	0.00440
1942.79670	0.00449
1941.51093	0.00481
1940.22516	0.00510
1938.93939	0.00511
1937.65362	0.00497
1936.36785	0.00494
1935.08208	0.00514
1933.79632	0.00538
1932.51055	0.00547
1931.22478	0.00538
1929.93901	0.00522
1928.65324	0.00507
1927.36747	0.00490
1926.08170	0.00459
1924.79593	0.00411
1923.51016	0.00357
1922.22440	0.00324
1920.93863	0.00334
1919.65286	0.00380
1918.36709	0.00432
1917.08132	0.00462
1915.79555	0.00468
1914.50978	0.00471
1913.22401	0.00484
1911.93825	0.00496
1910.65248	0.00482
1909.36671	0.00445
1908.08094	0.00417
1906.79517	0.00428
1905.50940	0.00473
1904.22363	0.00521
1902.93786	0.00550
1901.65209	0.00568
1900.36633	0.00596
1899.08056	0.00636
1897.79479	0.00666
1896.50902	0.00663
1895.22325	0.00628
1893.93748	0.00586
1892.65171	0.00560
1891.36594	0.00557
1890.08018	0.00565
1888.79441	0.00573
1887.50864	0.00579
1886.22287	0.00581
1884.93710	0.00579
1883.65133	0.00574
1882.36556	0.00568
1881.07979	0.00564
1879.79402	0.00565
1878.50826	0.00573
1877.22249	0.00584
1875.93672	0.00592
1874.65095	0.00593
1873.36518	0.00597
1872.07941	0.00613
1870.79364	0.00639
1869.50787	0.00652
1868.22211	0.00633
1866.93634	0.00585
1865.65057	0.00539
1864.36480	0.00523
1863.07903	0.00540
1861.79326	0.00569
1860.50749	0.00588
1859.22172	0.00591
1857.93595	0.00587
1856.65019	0.00584
1855.36442	0.00580
1854.07865	0.00575
1852.79288	0.00572
1851.50711	0.00572
1850.22134	0.00575
1848.93557	0.00580
1847.64980	0.00590
1846.36404	0.00607
1845.07827	0.00625
1843.79250	0.00632
1842.50673	0.00623
1841.22096	0.00604
1839.93519	0.00588
1838.64942	0.00583
1837.36365	0.00589
1836.07788	0.00594
1834.79212	0.00592
1833.50635	0.00584
1832.22058	0.00582
1830.93481	0.00588
1829.64904	0.00600
1828.36327	0.00607
1827.07750	0.00607
1825.79173	0.00605
1824.50597	0.00607
1823.22020	0.00618
1821.93443	0.00634
1820.64866	0.00639
1819.36289	0.00622
1818.07712	0.00583
1816.79135	0.00546
1815.50558	0.00533
1814.21981	0.00550
1812.93405	0.00584
1811.64828	0.00613
1810.36251	0.00625
1809.07674	0.00622
1807.79097	0.00612
1806.50520	0.00602
1805.21943	0.00599
1803.93366	0.00604
1802.64790	0.00616
1801.36213	0.00629
1800.07636	0.00633
1798.79059	0.00630
1797.50482	0.00631
1796.21905	0.00644
1794.93328	0.00672
1793.64751	0.00704
1792.36174	0.00727
1791.07598	0.00731
1789.79021	0.00716
1788.50444	0.00693
1787.21867	0.00676
1785.93290	0.00669
1784.64713	0.00668
1783.36136	0.00669
1782.07559	0.00671
1780.78983	0.00672
1779.50406	0.00672
1778.21829	0.00674
1776.93252	0.00683
1775.64675	0.00702
1774.36098	0.00722
1773.07521	0.00733
1771.78944	0.00730
1770.50367	0.00723
1769.21791	0.00720
1767.93214	0.00723
1766.64637	0.00729
1765.36060	0.00736
1764.07483	0.00745
1762.78906	0.00754
1761.50329	0.00759
1760.21752	0.00762
1758.93176	0.00762
1757.64599	0.00760
1756.36022	0.00756
1755.07445	0.00752
1753.78868	0.00755
1752.50291	0.00762
1751.21714	0.00766
1749.93137	0.00760
1748.64560	0.00746
1747.35984	0.00733
1746.07407	0.00728
1744.78830	0.00730
1743.50253	0.00736
1742.21676	0.00747
1740.93099	0.00759
1739.64522	0.00772
1738.35945	0.00786
1737.07369	0.00807
1735.78792	0.00834
1734.50215	0.00859
1733.21638	0.00868
1731.93061	0.00860
1730.64484	0.00844
1729.35907	0.00829
1728.07330	0.00821
1726.78753	0.00823
1725.50177	0.00831
1724.21600	0.00842
1722.93023	0.00851
1721.64446	0.00860
1720.35869	0.00875
1719.07292	0.00899
1717.78715	0.00926
1716.50138	0.00946
1715.21561	0.00958
1713.92985	0.00963
1712.64408	0.00967
1711.35831	0.00975
1710.07254	0.00988
1708.78677	0.01007
1707.50100	0.01028
1706.21523	0.01049
1704.92946	0.01074
1703.64370	0.01106
1702.35793	0.01142
1701.07216	0.01172
1699.78639	0.01187
1698.50062	0.01187
1697.21485	0.01180
1695.92908	0.01174
1694.64331	0.01172
1693.35754	0.01175
1692.07178	0.01184
1690.78601	0.01195
1689.50024	0.01207
1688.21447	0.01219
1686.92870	0.01235
1685.64293	0.01251
1684.35716	0.01258
1683.07139	0.01253
1681.78563	0.01243
1680.49986	0.01240
1679.21409	0.01251
1677.92832	0.01275
1676.64255	0.01304
1675.35678	0.01333
1674.07101	0.01357
1672.78524	0.01379
1671.49947	0.01401
1670.21371	0.01420
1668.92794	0.01435
1667.64217	0.01447
1666.35640	0.01459
1665.07063	0.01472
1663.78486	0.01487
1662.49909	0.01500
1661.21332	0.01513
1659.92756	0.01528
1658.64179	0.01546
1657.35602	0.01571
1656.07025	0.01605
1654.78448	0.01642
1653.49871	0.01669
1652.21294	0.01676
1650.92717	0.01670
1649.64140	0.01664
1648.35564	0.01666
1647.06987	0.01668
1645.78410	0.01662
1644.49833	0.01651
1643.21256	0.01642
1641.92679	0.01641
1640.64102	0.01649
1639.35525	0.01660
1638.06949	0.01674
1636.78372	0.01686
1635.49795	0.01692
1634.21218	0.01690
1632.92641	0.01688
1631.64064	0.01697
1630.35487	0.01718
1629.06910	0.01742
1627.78333	0.01760
1626.49757	0.01772
1625.21180	0.01783
1623.92603	0.01794
1622.64026	0.01803
1621.35449	0.01809
1620.06872	0.01817
1618.78295	0.01831
1617.49718	0.01848
1616.21142	0.01860
1614.92565	0.01863
1613.63988	0.01863
1612.35411	0.01871
1611.06834	0.01889
1609.78257	0.01915
1608.49680	0.01939
1607.21103	0.01958
1605.92526	0.01971
1604.63950	0.01980
1603.35373	0.01986
1602.06796	0.01989
1600.78219	0.01991
1599.49642	0.01995
1598.21065	0.02003
1596.92488	0.02012
1595.63911	0.02020
1594.35335	0.02026
1593.06758	0.02033
1591.78181	0.02042
1590.49604	0.02054
1589.21027	0.02069
1587.92450	0.02083
1586.63873	0.02097
1585.35296	0.02107
1584.06719	0.02115
1582.78143	0.02122
1581.49566	0.02132
1580.20989	0.02147
1578.92412	0.02167
1577.63835	0.02188
1576.35258	0.02203
1575.06681	0.02208
1573.78104	0.02206
1572.49528	0.02209
1571.20951	0.02219
1569.92374	0.02232
1568.63797	0.02238
1567.35220	0.02238
1566.06643	0.02234
1564.78066	0.02234
1563.49489	0.02245
1562.20912	0.02270
1560.92336	0.02302
1559.63759	0.02327
1558.35182	0.02330
1557.06605	0.02312
1555.78028	0.02289
1554.49451	0.02271
1553.20874	0.02263
1551.92297	0.02260
1550.63721	0.02258
1549.35144	0.02255
1548.06567	0.02254
1546.77990	0.02257
1545.49413	0.02266
1544.20836	0.02279
1542.92259	0.02296
1541.63682	0.02313
1540.35105	0.02321
1539.06529	0.02311
1537.77952	0.02289
1536.49375	0.02266
1535.20798	0.02253
1533.92221	0.02250
1532.63644	0.02252
1531.35067	0.02257
1530.06490	0.02268
1528.77914	0.02290
1527.49337	0.02320
1526.20760	0.02353
1524.92183	0.02387
1523.63606	0.02425
1522.35029	0.02469
1521.06452	0.02515
1519.77875	0.02560
1518.49298	0.02602
1517.20722	0.02645
1515.92145	0.02691
1514.63568	0.02742
1513.34991	0.02799
1512.06414	0.02866
1510.77837	0.02942
1509.49260	0.03028
1508.20683	0.03118
1506.92107	0.03200
1505.63530	0.03264
1504.34953	0.03311
1503.06376	0.03353
1501.77799	0.03402
1500.49222	0.03458
1499.20645	0.03515
1497.92068	0.03567
1496.63491	0.03608
1495.34915	0.03641
1494.06338	0.03674
1492.77761	0.03714
1491.49184	0.03765
1490.20607	0.03819
1488.92030	0.03869
1487.63453	0.03913
1486.34876	0.03956
1485.06299	0.04004
1483.77723	0.04063
1482.49146	0.04133
1481.20569	0.04209
1479.91992	0.04287
1478.63415	0.04361
1477.34838	0.04430
1476.06261	0.04497
1474.77684	0.04562
1473.49108	0.04619
1472.20531	0.04661
1470.91954	0.04686
1469.63377	0.04702
1468.34800	0.04717
1467.06223	0.04732
1465.77646	0.04745
1464.49069	0.04752
1463.20492	0.04757
1461.91916	0.04769
1460.63339	0.04798
1459.34762	0.04844
1458.06185	0.04900
1456.77608	0.04952
1455.49031	0.04992
1454.20454	0.05024
1452.91877	0.05053
1451.63301	0.05082
1450.34724	0.05107
1449.06147	0.05121
1447.77570	0.05120
1446.48993	0.05108
1445.20416	0.05088
1443.91839	0.05064
1442.63262	0.05037
1441.34685	0.05009
1440.06109	0.04985
1438.77532	0.04965
1437.48955	0.04949
1436.20378	0.04936
1434.91801	0.04928
1433.63224	0.04932
1432.34647	0.04953
1431.06070	0.04992
1429.77494	0.05048
1428.48917	0.05118
1427.20340	0.05196
1425.91763	0.05276
1424.63186	0.05354
1423.34609	0.05431
1422.06032	0.05509
1420.77455	0.05588
1419.48878	0.05658
1418.20302	0.05708
1416.91725	0.05733
1415.63148	0.05737
1414.34571	0.05729
1413.05994	0.05714
1411.77417	0.05692
1410.48840	0.05659
1409.20263	0.05613
1407.91687	0.05553
1406.63110	0.05481
1405.34533	0.05399
1404.05956	0.05310
1402.77379	0.05214
1401.48802	0.05113
1400.20225	0.05007
1398.91648	0.04897
1397.63071	0.04786
1396.34495	0.04677
1395.05918	0.04569
1393.77341	0.04459
1392.48764	0.04345
1391.20187	0.04230
1389.91610	0.04119
1388.63033	0.04010
1387.34456	0.03902
1386.05880	0.03793
1384.77303	0.03689
1383.48726	0.03593
1382.20149	0.03505
1380.91572	0.03420
1379.62995	0.03333
1378.34418	0.03245
1377.05841	0.03156
1375.77264	0.03066
1374.48688	0.02975
1373.20111	0.02877
1371.91534	0.02776
1370.62957	0.02678
1369.34380	0.02590
1368.05803	0.02516
1366.77226	0.02454
1365.48649	0.02398
1364.20073	0.02343
1362.91496	0.02285
1361.62919	0.02224
1360.34342	0.02162
1359.05765	0.02102
1357.77188	0.02046
1356.48611	0.01995
1355.20034	0.01948
1353.91457	0.01906
1352.62881	0.01870
1351.34304	0.01838
1350.05727	0.01808
1348.77150	0.01779
1347.48573	0.01749
1346.19996	0.01719
1344.91419	0.01692
1343.62842	0.01668
1342.34266	0.01645
1341.05689	0.01622
1339.77112	0.01599
1338.48535	0.01576
1337.19958	0.01554
1335.91381	0.01536
1334.62804	0.01522
1333.34227	0.01511
1332.05650	0.01501
1330.77074	0.01489
1329.48497	0.01475
1328.19920	0.01459
1326.91343	0.01441
1325.62766	0.01424
1324.34189	0.01408
1323.05612	0.01394
1321.77035	0.01381
1320.48459	0.01367
1319.19882	0.01352
1317.91305	0.01337
1316.62728	0.01322
1315.34151	0.01306
1314.05574	0.01292
1312.76997	0.01282
1311.48420	0.01276
1310.19843	0.01273
1308.91267	0.01270
1307.62690	0.01267
1306.34113	0.01260
1305.05536	0.01253
1303.76959	0.01246
1302.48382	0.01239
1301.19805	0.01230
1299.91228	0.01217
1298.62652	0.01202
1297.34075	0.01188
1296.05498	0.01175
1294.76921	0.01165
1293.48344	0.01159
1292.19767	0.01159
1290.91190	0.01160
1289.62613	0.01158
1288.34036	0.01151
1287.05460	0.01143
1285.76883	0.01136
1284.48306	0.01132
1283.19729	0.01131
1281.91152	0.01129
1280.62575	0.01123
1279.33998	0.01114
1278.05421	0.01106
1276.76845	0.01099
1275.48268	0.01092
1274.19691	0.01081
1272.91114	0.01069
1271.62537	0.01063
1270.33960	0.01065
1269.05383	0.01072
1267.76806	0.01079
1266.48229	0.01080
1265.19653	0.01075
1263.91076	0.01064
1262.62499	0.01055
1261.33922	0.01049
1260.05345	0.01046
1258.76768	0.01041
1257.48191	0.01034
1256.19614	0.01029
1254.91037	0.01031
1253.62461	0.01038
1252.33884	0.01047
1251.05307	0.01050
1249.76730	0.01049
1248.48153	0.01044
1247.19576	0.01034
1245.90999	0.01019
1244.62422	0.01001
1243.33846	0.00986
1242.05269	0.00978
1240.76692	0.00976
1239.48115	0.00975
1238.19538	0.00972
1236.90961	0.00968
1235.62384	0.00967
1234.33807	0.00968
1233.05230	0.00970
1231.76654	0.00971
1230.48077	0.00971
1229.19500	0.00972
1227.90923	0.00974
1226.62346	0.00974
1225.33769	0.00973
1224.05192	0.00972
1222.76615	0.00970
1221.48039	0.00969
1220.19462	0.00968
1218.90885	0.00965
1217.62308	0.00960
1216.33731	0.00955
1215.05154	0.00952
1213.76577	0.00952
1212.48000	0.00955
1211.19423	0.00959
1209.90847	0.00964
1208.62270	0.00971
1207.33693	0.00978
1206.05116	0.00983
1204.76539	0.00984
1203.47962	0.00979
1202.19385	0.00971
1200.90808	0.00962
1199.62232	0.00955
1198.33655	0.00958
1197.05078	0.00966
1195.76501	0.00974
1194.47924	0.00978
1193.19347	0.00977
1191.90770	0.00972
1190.62193	0.00968
1189.33616	0.00966
1188.05040	0.00967
1186.76463	0.00970
1185.47886	0.00975
1184.19309	0.00982
1182.90732	0.00992
1181.62155	0.01003
1180.33578	0.01011
1179.05001	0.01013
1177.76425	0.01010
1176.47848	0.01006
1175.19271	0.01005
1173.90694	0.01009
1172.62117	0.01015
1171.33540	0.01021
1170.04963	0.01026
1168.76386	0.01034
1167.47809	0.01049
1166.19233	0.01068
1164.90656	0.01086
1163.62079	0.01098
1162.33502	0.01105
1161.04925	0.01112
1159.76348	0.01121
1158.47771	0.01136
1157.19194	0.01157
1155.90618	0.01178
1154.62041	0.01194
1153.33464	0.01205
1152.04887	0.01217
1150.76310	0.01235
1149.47733	0.01260
1148.19156	0.01291
1146.90579	0.01323
1145.62002	0.01356
1144.33426	0.01388
1143.04849	0.01423
1141.76272	0.01461
1140.47695	0.01508
1139.19118	0.01566
1137.90541	0.01636
1136.61964	0.01717
1135.33387	0.01806
1134.04811	0.01899
1132.76234	0.02001
1131.47657	0.02119
1130.19080	0.02256
1128.90503	0.02415
1127.61926	0.02593
1126.33349	0.02788
1125.04772	0.02995
1123.76195	0.03212
1122.47619	0.03440
1121.19042	0.03675
1119.90465	0.03910
1118.61888	0.04142
1117.33311	0.04372
1116.04734	0.04603
1114.76157	0.04835
1113.47580	0.05063
1112.19004	0.05279
1110.90427	0.05481
1109.61850	0.05671
1108.33273	0.05853
1107.04696	0.06029
1105.76119	0.06197
1104.47542	0.06354
1103.18965	0.06497
1101.90388	0.06629
1100.61812	0.06758
1099.33235	0.06889
1098.04658	0.07019
1096.76081	0.07146
1095.47504	0.07264
1094.18927	0.07374
1092.90350	0.07479
1091.61773	0.07582
1090.33197	0.07685
1089.04620	0.07786
1087.76043	0.07884
1086.47466	0.07984
1085.18889	0.08091
1083.90312	0.08206
1082.61735	0.08329
1081.33158	0.08463
1080.04581	0.08609
1078.76005	0.08768
1077.47428	0.08936
1076.18851	0.09113
1074.90274	0.09299
1073.61697	0.09495
1072.33120	0.09700
1071.04543	0.09914
1069.75966	0.10131
1068.47390	0.10348
1067.18813	0.10564
1065.90236	0.10786
1064.61659	0.11021
1063.33082	0.11268
1062.04505	0.11518
1060.75928	0.11762
1059.47351	0.11999
1058.18774	0.12230
1056.90198	0.12457
1055.61621	0.12680
1054.33044	0.12902
1053.04467	0.13122
1051.75890	0.13342
1050.47313	0.13563
1049.18736	0.13787
1047.90159	0.14016
1046.61583	0.14256
1045.33006	0.14502
1044.04429	0.14746
1042.75852	0.14978
1041.47275	0.15201
1040.18698	0.15424
1038.90121	0.15652
1037.61544	0.15882
1036.32967	0.16106
1035.04391	0.16320
1033.75814	0.16518
1032.47237	0.16693
1031.18660	0.16839
1029.90083	0.16957
1028.61506	0.17047
1027.32929	0.17111
1026.04352	0.17149
1024.75775	0.17162
1023.47199	0.17146
1022.18622	0.17091
1020.90045	0.16985
1019.61468	0.16824
1018.32891	0.16612
1017.04314	0.16354
1015.75737	0.16055
1014.47160	0.15717
1013.18584	0.15344
1011.90007	0.14938
1010.61430	0.14497
1009.32853	0.14018
1008.04276	0.13503
1006.75699	0.12961
1005.47122	0.12400
1004.18545	0.11830
1002.89968	0.11261
1001.61392	0.10700
1000.32815	0.10149
999.04238	0.09608
997.75661	0.09077
996.47084	0.08566
995.18507	0.08079
993.89930	0.07619
992.61353	0.07186
991.32777	0.06784
990.04200	0.06414
988.75623	0.06075
987.47046	0.05761
986.18469	0.05469
984.89892	0.05198
983.61315	0.04950
982.32738	0.04727
981.04161	0.04529
979.75585	0.04357
978.47008	0.04210
977.18431	0.04083
975.89854	0.03974
974.61277	0.03882
973.32700	0.03811
972.04123	0.03765
970.75546	0.03746
969.46970	0.03762
968.18393	0.03814
966.89816	0.03897
965.61239	0.03992
964.32662	0.04083
963.04085	0.04154
961.75508	0.04199
960.46931	0.04210
959.18354	0.04183
957.89778	0.04115
956.61201	0.04008
955.32624	0.03873
954.04047	0.03726
952.75470	0.03584
951.46893	0.03452
950.18316	0.03331
948.89739	0.03216
947.61163	0.03108
946.32586	0.03007
945.04009	0.02909
943.75432	0.02814
942.46855	0.02722
941.18278	0.02637
939.89701	0.02565
938.61124	0.02505
937.32547	0.02454
936.03971	0.02409
934.75394	0.02366
933.46817	0.02324
932.18240	0.02283
930.89663	0.02244
929.61086	0.02205
928.32509	0.02164
927.03932	0.02122
925.75356	0.02082
924.46779	0.02050
923.18202	0.02027
921.89625	0.02012
920.61048	0.01998
919.32471	0.01986
918.03894	0.01974
916.75317	0.01964
915.46740	0.01954
914.18164	0.01940
912.89587	0.01923
911.61010	0.01903
910.32433	0.01878
909.03856	0.01851
907.75279	0.01826
906.46702	0.01811
905.18125	0.01808
903.89549	0.01810
902.60972	0.01810
901.32395	0.01806
900.03818	0.01800
898.75241	0.01795
897.46664	0.01792
896.18087	0.01788
894.89510	0.01780
893.60933	0.01770
892.32357	0.01766
891.03780	0.01779
889.75203	0.01811
888.46626	0.01858
887.18049	0.01917
885.89472	0.01997
884.60895	0.02115
883.32318	0.02278
882.03742	0.02470
880.75165	0.02656
879.46588	0.02800
878.18011	0.02900
876.89434	0.02979
875.60857	0.03064
874.32280	0.03158
873.03703	0.03233
871.75126	0.03259
870.46550	0.03219
869.17973	0.03119
867.89396	0.02978
866.60819	0.02810
865.32242	0.02631
864.03665	0.02454
862.75088	0.02297
861.46511	0.02178
860.17935	0.02097
858.89358	0.02043
857.60781	0.01997
856.32204	0.01947
855.03627	0.01898
853.75050	0.01855
852.46473	0.01824
851.17896	0.01803
849.89319	0.01788
848.60743	0.01778
847.32166	0.01767
846.03589	0.01753
844.75012	0.01740
843.46435	0.01730
842.17858	0.01726
840.89281	0.01722
839.60704	0.01712
838.32128	0.01700
837.03551	0.01688
835.74974	0.01677
834.46397	0.01664
833.17820	0.01651
831.89243	0.01642
830.60666	0.01639
829.32089	0.01642
828.03512	0.01645
826.74936	0.01646
825.46359	0.01644
824.17782	0.01641
822.89205	0.01636
821.60628	0.01630
820.32051	0.01626
819.03474	0.01627
817.74897	0.01630
816.46321	0.01630
815.17744	0.01625
813.89167	0.01616
812.60590	0.01608
811.32013	0.01605
810.03436	0.01607
808.74859	0.01612
807.46282	0.01618
806.17705	0.01625
804.89129	0.01630
803.60552	0.01634
802.31975	0.01635
801.03398	0.01637
799.74821	0.01640
798.46244	0.01642
797.17667	0.01639
795.89090	0.01633
794.60513	0.01631
793.31937	0.01631
792.03360	0.01630
790.74783	0.01624
789.46206	0.01615
788.17629	0.01608
786.89052	0.01607
785.60475	0.01607
784.31898	0.01606
783.03322	0.01602
781.74745	0.01598
780.46168	0.01594
779.17591	0.01589
777.89014	0.01582
776.60437	0.01578
775.31860	0.01580
774.03283	0.01589
772.74706	0.01603
771.46130	0.01617
770.17553	0.01629
768.88976	0.01632
767.60399	0.01628
766.31822	0.01619
765.03245	0.01611
763.74668	0.01607
762.46091	0.01609
761.17515	0.01616
759.88938	0.01626
758.60361	0.01635
757.31784	0.01638
756.03207	0.01638
754.74630	0.01637
753.46053	0.01635
752.17476	0.01628
750.88899	0.01621
749.60323	0.01621
748.31746	0.01627
747.03169	0.01632
745.74592	0.01633
744.46015	0.01630
743.17438	0.01628
741.88861	0.01627
740.60284	0.01623
739.31708	0.01615
738.03131	0.01610
736.74554	0.01614
735.45977	0.01627
734.17400	0.01640
732.88823	0.01643
731.60246	0.01636
730.31669	0.01626
729.03092	0.01618
727.74516	0.01619
726.45939	0.01629
725.17362	0.01642
723.88785	0.01638
722.60208	0.01652
721.31631	0.01688
720.03054	0.01711
718.74477	0.01706
717.45901	0.01699
716.17324	0.01695
714.88747	0.01693
713.60170	0.01689
712.31593	0.01682
711.03016	0.01673
709.74439	0.01665
708.45862	0.01660
707.17285	0.01658
705.88709	0.01658
704.60132	0.01656
703.31555	0.01653
702.02978	0.01650
700.74401	0.01648
699.45824	0.01651
698.17247	0.01656
696.88670	0.01662
695.60094	0.01664
694.31517	0.01660
693.02940	0.01650
691.74363	0.01638
690.45786	0.01627
689.17209	0.01616
687.88632	0.01608
686.60055	0.01602
685.31478	0.01597
684.02902	0.01593
682.74325	0.01590
681.45748	0.01588
680.17171	0.01588
678.88594	0.01589
677.60017	0.01595
676.31440	0.01605
675.02863	0.01615
673.74287	0.01610
672.45710	0.01580
671.17133	0.01568
669.88556	0.01694
668.59979	0.01926
667.31402	0.01872
666.02825	0.01645
664.74248	0.01591
663.45671	0.01636
662.17095	0.01663
660.88518	0.01663
659.59941	0.01653
658.31364	0.01642
657.02787	0.01636
655.74210	0.01639
654.45633	0.01647
653.17056	0.01659
651.88480	0.01672
650.59903	0.01687
649.31326	0.01708
648.02749	0.01728
646.74172	0.01747
645.45595	0.01768
644.17018	0.01790
642.88441	0.01815
641.59864	0.01845
640.31288	0.01880
639.02711	0.01914
637.74134	0.01943
636.45557	0.01960
635.16980	0.01968
633.88403	0.01976
632.59826	0.01993
631.31249	0.02032
630.02673	0.02097
628.74096	0.02160
627.45519	0.02185
626.16942	0.02254
624.88365	0.02334
623.59788	0.02412
622.31211	0.02557
621.02634	0.02829
619.74057	0.03157
618.45481	0.03416
617.16904	0.03578
615.88327	0.03712
614.59750	0.03866
613.31173	0.04014
612.02596	0.04137
610.74019	0.04294
609.45442	0.04557
608.16866	0.04911
606.88289	0.05277
605.59712	0.05594
604.31135	0.05841
603.02558	0.06007
601.73981	0.06082
600.45404	0.06061
599.16827	0.05950
597.88250	0.05771
596.59674	0.05558
595.31097	0.05348
594.02520	0.05167
592.73943	0.05019
591.45366	0.04902
590.16789	0.04820
588.88212	0.04784
587.59635	0.04804
586.31059	0.04875
585.02482	0.04983
583.73905	0.05117
582.45328	0.05271
581.16751	0.05441
579.88174	0.05626
578.59597	0.05821
577.31020	0.06019
576.02443	0.06212
574.73867	0.06395
573.45290	0.06570
572.16713	0.06745
570.88136	0.06933
569.59559	0.07147
568.30982	0.07396
567.02405	0.07676
565.73828	0.07956
564.45251	0.08184
563.16675	0.08302
561.88098	0.08278
560.59521	0.08108
559.30944	0.07801
558.02367	0.07379
556.73790	0.06880
555.45213	0.06345
554.16636	0.05815
552.88060	0.05318
551.59483	0.04877
550.30906	0.04498
549.02329	0.04178
547.73752	0.03903
546.45175	0.03663
545.16598	0.03450
543.88021	0.03263
542.59444	0.03101
541.30868	0.02964
540.02291	0.02846
538.73714	0.02741
537.45137	0.02644
536.16560	0.02555
534.87983	0.02479
533.59406	0.02419
532.30829	0.02373
531.02253	0.02331
529.73676	0.02285
528.45099	0.02230
527.16522	0.02168
525.87945	0.02109
524.59368	0.02059
523.30791	0.02018
522.02214	0.01979
520.73637	0.01943
519.45061	0.01915
518.16484	0.01898
516.87907	0.01884
515.59330	0.01862
514.30753	0.01831
513.02176	0.01796
511.73599	0.01766
510.45022	0.01744
509.16446	0.01730
507.87869	0.01720
506.59292	0.01706
505.30715	0.01683
504.02138	0.01653
502.73561	0.01622
501.44984	0.01595
500.16407	0.01575
498.87830	0.01561
497.59254	0.01549
496.30677	0.01533
495.02100	0.01513
493.73523	0.01498
492.44946	0.01500
491.16369	0.01516
489.87792	0.01530
488.59215	0.01529
487.30639	0.01514
486.02062	0.01497
484.73485	0.01489
483.44908	0.01494
482.16331	0.01509
480.87754	0.01531
479.59177	0.01555
478.30600	0.01578
477.02023	0.01595
475.73447	0.01611
474.44870	0.01626
473.16293	0.01639
471.87716	0.01648
470.59139	0.01651
469.30562	0.01650
468.01985	0.01647
466.73408	0.01639
465.44832	0.01622
464.16255	0.01597
462.87678	0.01570
461.59101	0.01550
460.30524	0.01542
459.01947	0.01546
457.73370	0.01554
456.44793	0.01555
455.16216	0.01543
453.87640	0.01522
452.59063	0.01501
451.30486	0.01486
450.01909	0.01474
448.73332	0.01460
447.44755	0.01439
446.16178	0.01415
444.87601	0.01397
443.59025	0.01389
442.30448	0.01386
441.01871	0.01382
439.73294	0.01370
438.44717	0.01355
437.16140	0.01343
435.87563	0.01339
434.58986	0.01339
433.30409	0.01340
432.01833	0.01341
430.73256	0.01344
429.44679	0.01349
428.16102	0.01350
426.87525	0.01345
425.58948	0.01336
424.30371	0.01328
423.01794	0.01325
421.73218	0.01324
420.44641	0.01321
419.16064	0.01316
417.87487	0.01315
416.58910	0.01318
415.30333	0.01324
414.01756	0.01326
412.73179	0.01321
411.44602	0.01311
410.16026	0.01300
408.87449	0.01294
407.58872	0.01295
406.30295	0.01303
405.01718	0.01315
403.73141	0.01326
402.44564	0.01338
401.15987	0.01355
399.87411	0.01378
