3997.45528	0.03543
3996.16951	0.03515
3994.88374	0.03509
3993.59798	0.03538
3992.31221	0.03573
3991.02644	0.03566
3989.74067	0.03501
3988.45490	0.03420
3987.16913	0.03395
3985.88336	0.03453
3984.59759	0.03550
3983.31183	0.03607
3982.02606	0.03583
3980.74029	0.03505
3979.45452	0.03419
3978.16875	0.03349
3976.88298	0.03291
3975.59721	0.03252
3974.31144	0.03247
3973.02567	0.03278
3971.73991	0.03321
3970.45414	0.03345
3969.16837	0.03336
3967.88260	0.03293
3966.59683	0.03230
3965.31106	0.03166
3964.02529	0.03120
3962.73952	0.03107
3961.45376	0.03122
3960.16799	0.03151
3958.88222	0.03171
3957.59645	0.03167
3956.31068	0.03143
3955.02491	0.03123
3953.73914	0.03132
3952.45337	0.03169
3951.16760	0.03206
3949.88184	0.03210
3948.59607	0.03170
3947.31030	0.03114
3946.02453	0.03084
3944.73876	0.03101
3943.45299	0.03141
3942.16722	0.03168
3940.88145	0.03172
3939.59569	0.03171
3938.30992	0.03173
3937.02415	0.03169
3935.73838	0.03156
3934.45261	0.03152
3933.16684	0.03168
3931.88107	0.03192
3930.59530	0.03202
3929.30953	0.03187
3928.02377	0.03150
3926.73800	0.03108
3925.45223	0.03076
3924.16646	0.03064
3922.88069	0.03076
3921.59492	0.03109
3920.30915	0.03149
3919.02338	0.03179
3917.73762	0.03175
3916.45185	0.03128
3915.16608	0.03057
3913.88031	0.02995
3912.59454	0.02962
3911.30877	0.02947
3910.02300	0.02931
3908.73723	0.02900
3907.45146	0.02854
3906.16570	0.02815
3904.87993	0.02810
3903.59416	0.02846
3902.30839	0.02911
3901.02262	0.02977
3899.73685	0.03011
3898.45108	0.02999
3897.16531	0.02967
3895.87955	0.02944
3894.59378	0.02943
3893.30801	0.02957
3892.02224	0.02971
3890.73647	0.02964
3889.45070	0.02946
3888.16493	0.02960
3886.87916	0.03015
3885.59339	0.03046
3884.30763	0.02988
3883.02186	0.02855
3881.73609	0.02727
3880.45032	0.02664
3879.16455	0.02668
3877.87878	0.02710
3876.59301	0.02755
3875.30724	0.02771
3874.02148	0.02752
3872.73571	0.02737
3871.44994	0.02763
3870.16417	0.02792
3868.87840	0.02765
3867.59263	0.02698
3866.30686	0.02659
3865.02109	0.02675
3863.73532	0.02726
3862.44956	0.02793
3861.16379	0.02863
3859.87802	0.02911
3858.59225	0.02912
3857.30648	0.02878
3856.02071	0.02855
3854.73494	0.02865
3853.44917	0.02865
3852.16341	0.02821
3850.87764	0.02759
3849.59187	0.02722
3848.30610	0.02723
3847.02033	0.02749
3845.73456	0.02778
3844.44879	0.02780
3843.16302	0.02736
3841.87725	0.02664
3840.59149	0.02615
3839.30572	0.02613
3838.01995	0.02625
3836.73418	0.02608
3835.44841	0.02584
3834.16264	0.02597
3832.87687	0.02647
3831.59110	0.02683
3830.30534	0.02680
3829.01957	0.02667
3827.73380	0.02678
3826.44803	0.02695
3825.16226	0.02681
3823.87649	0.02647
3822.59072	0.02631
3821.30495	0.02625
3820.01918	0.02604
3818.73342	0.02596
3817.44765	0.02637
3816.16188	0.02700
3814.87611	0.02727
3813.59034	0.02712
3812.30457	0.02678
3811.01880	0.02639
3809.73303	0.02622
3808.44726	0.02638
3807.16150	0.02628
3805.87573	0.02532
3804.58996	0.02397
3803.30419	0.02325
3802.01842	0.02340
3800.73265	0.02376
3799.44688	0.02394
3798.16111	0.02412
3796.87535	0.02443
3795.58958	0.02488
3794.30381	0.02555
3793.01804	0.02639
3791.73227	0.02706
3790.44650	0.02732
3789.16073	0.02724
3787.87496	0.02704
3786.58919	0.02683
3785.30343	0.02657
3784.01766	0.02628
3782.73189	0.02618
3781.44612	0.02647
3780.16035	0.02686
3778.87458	0.02677
3777.58881	0.02593
3776.30304	0.02465
3775.01728	0.02345
3773.73151	0.02275
3772.44574	0.02274
3771.15997	0.02337
3769.87420	0.02425
3768.58843	0.02502
3767.30266	0.02550
3766.01689	0.02560
3764.73112	0.02535
3763.44536	0.02506
3762.15959	0.02513
3760.87382	0.02558
3759.58805	0.02609
3758.30228	0.02638
3757.01651	0.02632
3755.73074	0.02593
3754.44497	0.02541
3753.15921	0.02500
3751.87344	0.02484
3750.58767	0.02486
3749.30190	0.02477
3748.01613	0.02463
3746.73036	0.02520
3745.44459	0.02665
3744.15882	0.02779
3742.87305	0.02757
3741.58729	0.02633
3740.30152	0.02516
3739.01575	0.02475
3737.72998	0.02513
3736.44421	0.02567
3735.15844	0.02583
3733.87267	0.02584
3732.58690	0.02621
3731.30114	0.02685
3730.01537	0.02727
3728.72960	0.02721
3727.44383	0.02668
3726.15806	0.02580
3724.87229	0.02479
3723.58652	0.02394
3722.30075	0.02333
3721.01498	0.02292
3719.72922	0.02264
3718.44345	0.02248
3717.15768	0.02240
3715.87191	0.02243
3714.58614	0.02270
3713.30037	0.02314
3712.01460	0.02348
3710.72883	0.02355
3709.44307	0.02366
3708.15730	0.02424
3706.87153	0.02523
3705.58576	0.02610
3704.29999	0.02629
3703.01422	0.02579
3701.72845	0.02507
3700.44268	0.02461
3699.15691	0.02449
3697.87115	0.02457
3696.58538	0.02456
3695.29961	0.02420
3694.01384	0.02344
3692.72807	0.02248
3691.44230	0.02176
3690.15653	0.02168
3688.87076	0.02227
3687.58500	0.02301
3686.29923	0.02343
3685.01346	0.02355
3683.72769	0.02355
3682.44192	0.02350
3681.15615	0.02336
3679.87038	0.02291
3678.58461	0.02223
3677.29884	0.02177
3676.01308	0.02160
3674.72731	0.02148
3673.44154	0.02148
3672.15577	0.02197
3670.87000	0.02267
3669.58423	0.02292
3668.29846	0.02263
3667.01269	0.02229
3665.72693	0.02222
3664.44116	0.02240
3663.15539	0.02273
3661.86962	0.02314
3660.58385	0.02357
3659.29808	0.02402
3658.01231	0.02440
3656.72654	0.02442
3655.44077	0.02393
3654.15501	0.02331
3652.86924	0.02325
3651.58347	0.02396
3650.29770	0.02499
3649.01193	0.02572
3647.72616	0.02584
3646.44039	0.02541
3645.15462	0.02466
3643.86886	0.02384
3642.58309	0.02323
3641.29732	0.02302
3640.01155	0.02318
3638.72578	0.02348
3637.44001	0.02359
3636.15424	0.02337
3634.86847	0.02289
3633.58270	0.02232
3632.29694	0.02203
3631.01117	0.02236
3629.72540	0.02313
3628.43963	0.02369
3627.15386	0.02375
3625.86809	0.02354
3624.58232	0.02334
3623.29655	0.02322
3622.01079	0.02326
3620.72502	0.02343
3619.43925	0.02338
3618.15348	0.02285
3616.86771	0.02213
3615.58194	0.02180
3614.29617	0.02197
3613.01040	0.02218
3611.72463	0.02211
3610.43887	0.02192
3609.15310	0.02189
3607.86733	0.02198
3606.58156	0.02200
3605.29579	0.02191
3604.01002	0.02178
3602.72425	0.02174
3601.43848	0.02188
3600.15272	0.02218
3598.86695	0.02236
3597.58118	0.02224
3596.29541	0.02188
3595.00964	0.02152
3593.72387	0.02120
3592.43810	0.02089
3591.15233	0.02070
3589.86656	0.02087
3588.58080	0.02146
3587.29503	0.02211
3586.00926	0.02235
3584.72349	0.02210
3583.43772	0.02181
3582.15195	0.02191
3580.86618	0.02239
3579.58041	0.02288
3578.29464	0.02300
3577.00888	0.02267
3575.72311	0.02215
3574.43734	0.02172
3573.15157	0.02142
3571.86580	0.02120
3570.58003	0.02108
3569.29426	0.02119
3568.00849	0.02148
3566.72273	0.02168
3565.43696	0.02163
3564.15119	0.02136
3562.86542	0.02100
3561.57965	0.02066
3560.29388	0.02050
3559.00811	0.02061
3557.72234	0.02076
3556.43657	0.02059
3555.15081	0.02001
3553.86504	0.01928
3552.57927	0.01880
3551.29350	0.01869
3550.00773	0.01888
3548.72196	0.01922
3547.43619	0.01969
3546.15042	0.02022
3544.86466	0.02057
3543.57889	0.02046
3542.29312	0.01982
3541.00735	0.01903
3539.72158	0.01866
3538.43581	0.01891
3537.15004	0.01934
3535.86427	0.01942
3534.57850	0.01908
3533.29274	0.01877
3532.00697	0.01890
3530.72120	0.01935
3529.43543	0.01963
3528.14966	0.01933
3526.86389	0.01859
3525.57812	0.01801
3524.29235	0.01812
3523.00659	0.01886
3521.72082	0.01970
3520.43505	0.02011
3519.14928	0.01989
3517.86351	0.01926
3516.57774	0.01869
3515.29197	0.01860
3514.00620	0.01909
3512.72043	0.01981
3511.43467	0.02029
3510.14890	0.02029
3508.86313	0.01996
3507.57736	0.01963
3506.29159	0.01945
3505.00582	0.01934
3503.72005	0.01913
3502.43428	0.01878
3501.14852	0.01844
3499.86275	0.01824
3498.57698	0.01822
3497.29121	0.01823
3496.00544	0.01815
3494.71967	0.01798
3493.43390	0.01786
3492.14813	0.01790
3490.86236	0.01800
3489.57660	0.01796
3488.29083	0.01769
3487.00506	0.01737
3485.71929	0.01726
3484.43352	0.01749
3483.14775	0.01791
3481.86198	0.01829
3480.57621	0.01847
3479.29045	0.01843
3478.00468	0.01825
3476.71891	0.01801
3475.43314	0.01779
3474.14737	0.01772
3472.86160	0.01783
3471.57583	0.01808
3470.29006	0.01836
3469.00429	0.01852
3467.71853	0.01850
3466.43276	0.01835
3465.14699	0.01823
3463.86122	0.01826
3462.57545	0.01834
3461.28968	0.01824
3460.00391	0.01788
3458.71814	0.01741
3457.43238	0.01703
3456.14661	0.01681
3454.86084	0.01670
3453.57507	0.01670
3452.28930	0.01682
3451.00353	0.01699
3449.71776	0.01713
3448.43199	0.01711
3447.14622	0.01689
3445.86046	0.01653
3444.57469	0.01619
3443.28892	0.01607
3442.00315	0.01626
3440.71738	0.01671
3439.43161	0.01714
3438.14584	0.01733
3436.86007	0.01729
3435.57431	0.01724
3434.28854	0.01722
3433.00277	0.01698
3431.71700	0.01637
3430.43123	0.01562
3429.14546	0.01520
3427.85969	0.01531
3426.57392	0.01568
3425.28815	0.01596
3424.00239	0.01605
3422.71662	0.01601
3421.43085	0.01586
3420.14508	0.01557
3418.85931	0.01521
3417.57354	0.01496
3416.28777	0.01495
3415.00200	0.01511
3413.71624	0.01528
3412.43047	0.01532
3411.14470	0.01510
3409.85893	0.01468
3408.57316	0.01437
3407.28739	0.01453
3406.00162	0.01516
3404.71585	0.01585
3403.43008	0.01619
3402.14432	0.01606
3400.85855	0.01566
3399.57278	0.01530
3398.28701	0.01512
3397.00124	0.01501
3395.71547	0.01495
3394.42970	0.01490
3393.14393	0.01484
3391.85817	0.01481
3390.57240	0.01490
3389.28663	0.01512
3388.00086	0.01534
3386.71509	0.01548
3385.42932	0.01559
3384.14355	0.01574
3382.85778	0.01589
3381.57201	0.01592
3380.28625	0.01586
3379.00048	0.01580
3377.71471	0.01571
3376.42894	0.01552
3375.14317	0.01525
3373.85740	0.01504
3372.57163	0.01501
3371.28586	0.01513
3370.00010	0.01528
3368.71433	0.01540
3367.42856	0.01550
3366.14279	0.01563
3364.85702	0.01578
3363.57125	0.01589
3362.28548	0.01588
3360.99971	0.01570
3359.71394	0.01542
3358.42818	0.01515
3357.14241	0.01501
3355.85664	0.01501
3354.57087	0.01509
3353.28510	0.01522
3351.99933	0.01545
3350.71356	0.01579
3349.42779	0.01609
3348.14202	0.01613
3346.85626	0.01577
3345.57049	0.01518
3344.28472	0.01463
3342.99895	0.01432
3341.71318	0.01429
3340.42741	0.01441
3339.14164	0.01459
3337.85587	0.01470
3336.57011	0.01469
3335.28434	0.01462
3333.99857	0.01461
3332.71280	0.01474
3331.42703	0.01489
3330.14126	0.01488
3328.85549	0.01474
3327.56972	0.01471
3326.28395	0.01498
3324.99819	0.01540
3323.71242	0.01568
3322.42665	0.01571
3321.14088	0.01565
3319.85511	0.01569
3318.56934	0.01581
3317.28357	0.01588
3315.99780	0.01584
3314.71204	0.01574
3313.42627	0.01562
3312.14050	0.01549
3310.85473	0.01528
3309.56896	0.01503
3308.28319	0.01484
3306.99742	0.01481
3305.71165	0.01494
3304.42588	0.01517
3303.14012	0.01536
3301.85435	0.01535
3300.56858	0.01514
3299.28281	0.01482
3297.99704	0.01450
3296.71127	0.01427
3295.42550	0.01418
3294.13973	0.01433
3292.85397	0.01469
3291.56820	0.01506
3290.28243	0.01514
3288.99666	0.01486
3287.71089	0.01436
3286.42512	0.01390
3285.13935	0.01370
3283.85358	0.01385
3282.56781	0.01424
3281.28205	0.01476
3279.99628	0.01533
3278.71051	0.01594
3277.42474	0.01647
3276.13897	0.01676
3274.85320	0.01672
3273.56743	0.01646
3272.28166	0.01609
3270.99590	0.01562
3269.71013	0.01506
3268.42436	0.01447
3267.13859	0.01404
3265.85282	0.01395
3264.56705	0.01427
3263.28128	0.01484
3261.99551	0.01537
3260.70974	0.01561
3259.42398	0.01550
3258.13821	0.01523
3256.85244	0.01502
3255.56667	0.01492
3254.28090	0.01475
3252.99513	0.01434
3251.70936	0.01378
3250.42359	0.01340
3249.13783	0.01349
3247.85206	0.01400
3246.56629	0.01466
3245.28052	0.01516
3243.99475	0.01533
3242.70898	0.01518
3241.42321	0.01483
3240.13744	0.01450
3238.85167	0.01438
3237.56591	0.01448
3236.28014	0.01462
3234.99437	0.01460
3233.70860	0.01441
3232.42283	0.01420
3231.13706	0.01416
3229.85129	0.01438
3228.56552	0.01478
3227.27976	0.01519
3225.99399	0.01536
3224.70822	0.01523
3223.42245	0.01502
3222.13668	0.01500
3220.85091	0.01515
3219.56514	0.01525
3218.27937	0.01510
3216.99360	0.01472
3215.70784	0.01433
3214.42207	0.01409
3213.13630	0.01402
3211.85053	0.01406
3210.56476	0.01417
3209.27899	0.01434
3207.99322	0.01459
3206.70745	0.01487
3205.42169	0.01511
3204.13592	0.01522
3202.85015	0.01520
3201.56438	0.01507
3200.27861	0.01485
3198.99284	0.01453
3197.70707	0.01416
3196.42130	0.01387
3195.13553	0.01378
3193.84977	0.01391
3192.56400	0.01413
3191.27823	0.01429
3189.99246	0.01437
3188.70669	0.01450
3187.42092	0.01479
3186.13515	0.01519
3184.84938	0.01552
3183.56362	0.01562
3182.27785	0.01548
3180.99208	0.01521
3179.70631	0.01493
3178.42054	0.01477
3177.13477	0.01474
3175.84900	0.01480
3174.56323	0.01485
3173.27746	0.01483
3171.99170	0.01481
3170.70593	0.01485
3169.42016	0.01492
3168.13439	0.01490
3166.84862	0.01472
3165.56285	0.01447
3164.27708	0.01427
3162.99131	0.01419
3161.70555	0.01416
3160.41978	0.01412
3159.13401	0.01409
3157.84824	0.01415
3156.56247	0.01432
3155.27670	0.01451
3153.99093	0.01460
3152.70516	0.01450
3151.41939	0.01430
3150.13363	0.01415
3148.84786	0.01412
3147.56209	0.01414
3146.27632	0.01415
3144.99055	0.01412
3143.70478	0.01409
3142.41901	0.01410
3141.13324	0.01413
3139.84748	0.01415
3138.56171	0.01418
3137.27594	0.01426
3135.99017	0.01448
3134.70440	0.01479
3133.41863	0.01500
3132.13286	0.01485
3130.84709	0.01428
3129.56132	0.01348
3128.27556	0.01278
3126.98979	0.01236
3125.70402	0.01229
3124.41825	0.01256
3123.13248	0.01316
3121.84671	0.01392
3120.56094	0.01449
3119.27517	0.01463
3117.98940	0.01439
3116.70364	0.01408
3115.41787	0.01396
3114.13210	0.01406
3112.84633	0.01431
3111.56056	0.01464
3110.27479	0.01501
3108.98902	0.01528
3107.70325	0.01529
3106.41749	0.01500
3105.13172	0.01449
3103.84595	0.01394
3102.56018	0.01350
3101.27441	0.01319
3099.98864	0.01302
3098.70287	0.01305
3097.41710	0.01333
3096.13133	0.01383
3094.84557	0.01437
3093.55980	0.01471
3092.27403	0.01472
3090.98826	0.01442
3089.70249	0.01398
3088.41672	0.01362
3087.13095	0.01345
3085.84518	0.01343
3084.55942	0.01345
3083.27365	0.01346
3081.98788	0.01345
3080.70211	0.01348
3079.41634	0.01356
3078.13057	0.01367
3076.84480	0.01379
3075.55903	0.01388
3074.27326	0.01391
3072.98750	0.01389
3071.70173	0.01382
3070.41596	0.01368
3069.13019	0.01341
3067.84442	0.01300
3066.55865	0.01258
3065.27288	0.01230
3063.98711	0.01222
3062.70135	0.01229
3061.41558	0.01243
3060.12981	0.01265
3058.84404	0.01297
3057.55827	0.01331
3056.27250	0.01355
3054.98673	0.01364
3053.70096	0.01363
3052.41519	0.01360
3051.12943	0.01357
3049.84366	0.01345
3048.55789	0.01318
3047.27212	0.01287
3045.98635	0.01272
3044.70058	0.01286
3043.41481	0.01322
3042.12904	0.01357
3040.84328	0.01369
3039.55751	0.01355
3038.27174	0.01323
3036.98597	0.01285
3035.70020	0.01250
3034.41443	0.01224
3033.12866	0.01212
3031.84289	0.01215
3030.55712	0.01232
3029.27136	0.01253
3027.98559	0.01265
3026.69982	0.01254
3025.41405	0.01224
3024.12828	0.01187
3022.84251	0.01162
3021.55674	0.01155
3020.27097	0.01161
3018.98521	0.01166
3017.69944	0.01165
3016.41367	0.01163
3015.12790	0.01171
3013.84213	0.01190
3012.55636	0.01209
3011.27059	0.01219
3009.98482	0.01218
3008.69905	0.01214
3007.41329	0.01212
3006.12752	0.01217
3004.84175	0.01227
3003.55598	0.01235
3002.27021	0.01234
3000.98444	0.01222
2999.69867	0.01215
2998.41290	0.01206
2997.12714	0.01209
2995.84137	0.01221
2994.55560	0.01230
2993.26983	0.01221
2991.98406	0.01195
2990.69829	0.01168
2989.41252	0.01152
2988.12675	0.01156
2986.84098	0.01180
2985.55522	0.01213
2984.26945	0.01240
2982.98368	0.01248
2981.69791	0.01240
2980.41214	0.01229
2979.12637	0.01228
2977.84060	0.01237
2976.55483	0.01256
2975.26907	0.01279
2973.98330	0.01302
2972.69753	0.01320
2971.41176	0.01327
2970.12599	0.01320
2968.84022	0.01305
2967.55445	0.01298
2966.26868	0.01310
2964.98291	0.01334
2963.69715	0.01347
2962.41138	0.01341
2961.12561	0.01328
2959.83984	0.01326
2958.55407	0.01340
2957.26830	0.01362
2955.98253	0.01376
2954.69676	0.01366
2953.41100	0.01327
2952.12523	0.01272
2950.83946	0.01228
2949.55369	0.01211
2948.26792	0.01215
2946.98215	0.01218
2945.69638	0.01206
2944.41061	0.01186
2943.12484	0.01174
2941.83908	0.01180
2940.55331	0.01202
2939.26754	0.01233
2937.98177	0.01264
2936.69600	0.01287
2935.41023	0.01297
2934.12446	0.01291
2932.83869	0.01270
2931.55293	0.01243
2930.26716	0.01228
2928.98139	0.01228
2927.69562	0.01234
2926.40985	0.01229
2925.12408	0.01214
2923.83831	0.01200
2922.55254	0.01190
2921.26677	0.01173
2919.98101	0.01149
2918.69524	0.01132
2917.40947	0.01136
2916.12370	0.01150
2914.83793	0.01158
2913.55216	0.01161
2912.26639	0.01173
2910.98062	0.01197
2909.69486	0.01215
2908.40909	0.01213
2907.12332	0.01190
2905.83755	0.01163
2904.55178	0.01155
2903.26601	0.01180
2901.98024	0.01227
2900.69447	0.01265
2899.40870	0.01264
2898.12294	0.01223
2896.83717	0.01168
2895.55140	0.01129
2894.26563	0.01115
2892.97986	0.01114
2891.69409	0.01114
2890.40832	0.01108
2889.12255	0.01094
2887.83678	0.01072
2886.55102	0.01050
2885.26525	0.01033
2883.97948	0.01027
2882.69371	0.01035
2881.40794	0.01060
2880.12217	0.01102
2878.83640	0.01147
2877.55063	0.01176
2876.26487	0.01185
2874.97910	0.01181
2873.69333	0.01172
2872.40756	0.01163
2871.12179	0.01162
2869.83602	0.01170
2868.55025	0.01183
2867.26448	0.01190
2865.97871	0.01184
2864.69295	0.01171
2863.40718	0.01160
2862.12141	0.01153
2860.83564	0.01143
2859.54987	0.01127
2858.26410	0.01105
2856.97833	0.01085
2855.69256	0.01071
2854.40680	0.01063
2853.12103	0.01063
2851.83526	0.01067
2850.54949	0.01063
2849.26372	0.01045
2847.97795	0.01021
2846.69218	0.01007
2845.40641	0.01010
2844.12064	0.01023
2842.83488	0.01035
2841.54911	0.01045
2840.26334	0.01051
2838.97757	0.01047
2837.69180	0.01030
2836.40603	0.01001
2835.12026	0.00977
2833.83449	0.00973
2832.54873	0.00991
2831.26296	0.01017
2829.97719	0.01035
2828.69142	0.01041
2827.40565	0.01040
2826.11988	0.01037
2824.83411	0.01027
2823.54834	0.01012
2822.26257	0.00998
2820.97681	0.00990
2819.69104	0.00991
2818.40527	0.00999
2817.11950	0.01014
2815.83373	0.01028
2814.54796	0.01026
2813.26219	0.01003
2811.97642	0.00970
2810.69066	0.00946
2809.40489	0.00941
2808.11912	0.00947
2806.83335	0.00949
2805.54758	0.00943
2804.26181	0.00943
2802.97604	0.00957
2801.69027	0.00984
2800.40450	0.01011
2799.11874	0.01020
2797.83297	0.01002
2796.54720	0.00968
2795.26143	0.00936
2793.97566	0.00919
2792.68989	0.00916
2791.40412	0.00920
2790.11835	0.00929
2788.83259	0.00939
2787.54682	0.00945
2786.26105	0.00940
2784.97528	0.00924
2783.68951	0.00905
2782.40374	0.00888
2781.11797	0.00879
2779.83220	0.00882
2778.54643	0.00894
2777.26067	0.00906
2775.97490	0.00915
2774.68913	0.00926
2773.40336	0.00944
2772.11759	0.00962
2770.83182	0.00966
2769.54605	0.00949
2768.26028	0.00918
2766.97452	0.00888
2765.68875	0.00872
2764.40298	0.00877
2763.11721	0.00896
2761.83144	0.00912
2760.54567	0.00921
2759.25990	0.00931
2757.97413	0.00950
2756.68836	0.00977
2755.40260	0.00996
2754.11683	0.01001
2752.83106	0.00994
2751.54529	0.00979
2750.25952	0.00965
2748.97375	0.00958
2747.68798	0.00961
2746.40221	0.00969
2745.11645	0.00973
2743.83068	0.00974
2742.54491	0.00974
2741.25914	0.00975
2739.97337	0.00968
2738.68760	0.00947
2737.40183	0.00916
2736.11606	0.00890
2734.83029	0.00878
2733.54453	0.00877
2732.25876	0.00872
2730.97299	0.00858
2729.68722	0.00838
2728.40145	0.00823
2727.11568	0.00823
2725.82991	0.00837
2724.54414	0.00858
2723.25838	0.00874
2721.97261	0.00879
2720.68684	0.00875
2719.40107	0.00869
2718.11530	0.00867
2716.82953	0.00869
2715.54376	0.00872
2714.25799	0.00873
2712.97222	0.00865
2711.68646	0.00847
2710.40069	0.00830
2709.11492	0.00821
2707.82915	0.00816
2706.54338	0.00809
2705.25761	0.00804
2703.97184	0.00811
2702.68607	0.00826
2701.40031	0.00834
2700.11454	0.00828
2698.82877	0.00813
2697.54300	0.00802
2696.25723	0.00804
2694.97146	0.00818
2693.68569	0.00833
2692.39992	0.00839
2691.11415	0.00836
2689.82839	0.00830
2688.54262	0.00825
2687.25685	0.00822
2685.97108	0.00824
2684.68531	0.00834
2683.39954	0.00847
2682.11377	0.00855
2680.82800	0.00847
2679.54224	0.00827
2678.25647	0.00811
2676.97070	0.00814
2675.68493	0.00833
2674.39916	0.00851
2673.11339	0.00852
2671.82762	0.00837
2670.54185	0.00818
2669.25608	0.00806
2667.97032	0.00805
2666.68455	0.00810
2665.39878	0.00814
2664.11301	0.00813
2662.82724	0.00804
2661.54147	0.00791
2660.25570	0.00774
2658.96993	0.00756
2657.68417	0.00735
2656.39840	0.00711
2655.11263	0.00689
2653.82686	0.00675
2652.54109	0.00674
2651.25532	0.00677
2649.96955	0.00679
2648.68378	0.00680
2647.39801	0.00684
2646.11225	0.00690
2644.82648	0.00698
2643.54071	0.00708
2642.25494	0.00721
2640.96917	0.00730
2639.68340	0.00725
2638.39763	0.00705
2637.11186	0.00679
2635.82609	0.00656
2634.54033	0.00643
2633.25456	0.00646
2631.96879	0.00662
2630.68302	0.00682
2629.39725	0.00692
2628.11148	0.00689
2626.82571	0.00681
2625.53994	0.00675
2624.25418	0.00671
2622.96841	0.00667
2621.68264	0.00665
2620.39687	0.00666
2619.11110	0.00666
2617.82533	0.00664
2616.53956	0.00664
2615.25379	0.00663
2613.96802	0.00659
2612.68226	0.00652
2611.39649	0.00647
2610.11072	0.00653
2608.82495	0.00669
2607.53918	0.00686
2606.25341	0.00691
2604.96764	0.00683
2603.68187	0.00672
2602.39611	0.00677
2601.11034	0.00704
2599.82457	0.00741
2598.53880	0.00766
2597.25303	0.00765
2595.96726	0.00745
2594.68149	0.00722
2593.39572	0.00711
2592.10995	0.00717
2590.82419	0.00733
2589.53842	0.00743
2588.25265	0.00741
2586.96688	0.00729
2585.68111	0.00714
2584.39534	0.00705
2583.10957	0.00709
2581.82380	0.00719
2580.53804	0.00724
2579.25227	0.00723
2577.96650	0.00724
2576.68073	0.00732
2575.39496	0.00737
2574.10919	0.00726
2572.82342	0.00704
2571.53765	0.00691
2570.25188	0.00693
2568.96612	0.00692
2567.68035	0.00676
2566.39458	0.00660
2565.10881	0.00668
2563.82304	0.00703
2562.53727	0.00746
2561.25150	0.00775
2559.96573	0.00778
2558.67997	0.00753
2557.39420	0.00712
2556.10843	0.00679
2554.82266	0.00676
2553.53689	0.00701
2552.25112	0.00732
2550.96535	0.00744
2549.67958	0.00725
2548.39381	0.00683
2547.10805	0.00642
2545.82228	0.00619
2544.53651	0.00611
2543.25074	0.00604
2541.96497	0.00597
2540.67920	0.00599
2539.39343	0.00613
2538.10766	0.00631
2536.82190	0.00646
2535.53613	0.00659
2534.25036	0.00670
2532.96459	0.00672
2531.67882	0.00651
2530.39305	0.00618
2529.10728	0.00599
2527.82151	0.00612
2526.53574	0.00647
2525.24998	0.00672
2523.96421	0.00673
2522.67844	0.00664
2521.39267	0.00671
2520.10690	0.00701
2518.82113	0.00737
2517.53536	0.00753
2516.24959	0.00740
2514.96383	0.00713
2513.67806	0.00695
2512.39229	0.00700
2511.10652	0.00724
2509.82075	0.00751
2508.53498	0.00766
2507.24921	0.00770
2505.96344	0.00768
2504.67767	0.00762
2503.39191	0.00748
2502.10614	0.00726
2500.82037	0.00703
2499.53460	0.00681
2498.24883	0.00661
2496.96306	0.00638
2495.67729	0.00611
2494.39152	0.00591
2493.10576	0.00601
2491.81999	0.00640
2490.53422	0.00671
2489.24845	0.00657
2487.96268	0.00603
2486.67691	0.00556
2485.39114	0.00552
2484.10537	0.00583
2482.81960	0.00626
2481.53384	0.00671
2480.24807	0.00720
2478.96230	0.00767
2477.67653	0.00798
2476.39076	0.00804
2475.10499	0.00787
2473.81922	0.00758
2472.53345	0.00729
2471.24769	0.00701
2469.96192	0.00668
2468.67615	0.00622
2467.39038	0.00577
2466.10461	0.00564
2464.81884	0.00598
2463.53307	0.00658
2462.24730	0.00704
2460.96153	0.00718
2459.67577	0.00711
2458.39000	0.00704
2457.10423	0.00700
2455.81846	0.00692
2454.53269	0.00684
2453.24692	0.00683
2451.96115	0.00687
2450.67538	0.00676
2449.38962	0.00637
2448.10385	0.00578
2446.81808	0.00529
2445.53231	0.00514
2444.24654	0.00537
2442.96077	0.00573
2441.67500	0.00597
2440.38923	0.00597
2439.10346	0.00588
2437.81770	0.00592
2436.53193	0.00613
2435.24616	0.00634
2433.96039	0.00637
2432.67462	0.00636
2431.38885	0.00656
2430.10308	0.00698
2428.81731	0.00725
2427.53155	0.00702
2426.24578	0.00637
2424.96001	0.00577
2423.67424	0.00555
2422.38847	0.00568
2421.10270	0.00594
2419.81693	0.00617
2418.53116	0.00630
2417.24539	0.00628
2415.95963	0.00616
2414.67386	0.00612
2413.38809	0.00628
2412.10232	0.00654
2410.81655	0.00665
2409.53078	0.00657
2408.24501	0.00650
2406.95924	0.00665
2405.67347	0.00698
2404.38771	0.00729
2403.10194	0.00748
2401.81617	0.00758
2400.53040	0.00760
2399.24463	0.00736
2397.95886	0.00725
2396.67309	0.00709
2395.38732	0.00694
2394.10156	0.00685
2392.81579	0.00678
2391.53002	0.00670
2390.24425	0.00668
2388.95848	0.00677
2387.67271	0.00693
2386.38694	0.00706
2385.10117	0.00709
2383.81540	0.00702
2382.52964	0.00687
2381.24387	0.00669
2379.95810	0.00652
2378.67233	0.00652
2377.38656	0.00664
2376.10079	0.00671
2374.81502	0.00678
2373.52925	0.00729
2372.24349	0.00809
2370.95772	0.00860
2369.67195	0.00849
2368.38618	0.00799
2367.10041	0.00761
2365.81464	0.00736
2364.52887	0.00723
2363.24310	0.00716
2361.95733	0.00720
2360.67157	0.00758
2359.38580	0.00797
2358.10003	0.00795
2356.81426	0.00752
2355.52849	0.00688
2354.24272	0.00617
2352.95695	0.00566
2351.67118	0.00577
2350.38542	0.00614
2349.09965	0.00621
2347.81388	0.00616
2346.52811	0.00659
2345.24234	0.00702
2343.95657	0.00659
2342.67080	0.00557
2341.38503	0.00595
2340.09926	0.00732
2338.81350	0.00697
2337.52773	0.00526
2336.24196	0.00542
2334.95619	0.00677
2333.67042	0.00648
2332.38465	0.00521
2331.09888	0.00603
2329.81311	0.00650
2328.52735	0.00535
2327.24158	0.00515
2325.95581	0.00542
2324.67004	0.00476
2323.38427	0.00411
2322.09850	0.00439
2320.81273	0.00425
2319.52696	0.00429
2318.24119	0.00453
2316.95543	0.00445
2315.66966	0.00466
2314.38389	0.00495
2313.09812	0.00505
2311.81235	0.00524
2310.52658	0.00512
2309.24081	0.00476
2307.95504	0.00453
2306.66928	0.00433
2305.38351	0.00437
2304.09774	0.00462
2302.81197	0.00504
2301.52620	0.00561
2300.24043	0.00599
2298.95466	0.00600
2297.66889	0.00562
2296.38312	0.00506
2295.09736	0.00455
2293.81159	0.00412
2292.52582	0.00370
2291.24005	0.00328
2289.95428	0.00294
2288.66851	0.00280
2287.38274	0.00293
2286.09697	0.00331
2284.81121	0.00386
2283.52544	0.00442
2282.23967	0.00479
2280.95390	0.00487
2279.66813	0.00475
2278.38236	0.00457
2277.09659	0.00444
2275.81082	0.00434
2274.52505	0.00421
2273.23929	0.00411
2271.95352	0.00409
2270.66775	0.00418
2269.38198	0.00429
2268.09621	0.00432
2266.81044	0.00425
2265.52467	0.00418
2264.23890	0.00425
2262.95314	0.00457
2261.66737	0.00496
2260.38160	0.00510
2259.09583	0.00495
2257.81006	0.00484
2256.52429	0.00502
2255.23852	0.00530
2253.95275	0.00523
2252.66698	0.00471
2251.38122	0.00420
2250.09545	0.00406
2248.80968	0.00405
2247.52391	0.00425
2246.23814	0.00429
2244.95237	0.00441
2243.66660	0.00479
2242.38083	0.00522
2241.09507	0.00535
2239.80930	0.00507
2238.52353	0.00454
2237.23776	0.00401
2235.95199	0.00369
2234.66622	0.00361
2233.38045	0.00358
2232.09468	0.00345
2230.80891	0.00319
2229.52315	0.00283
2228.23738	0.00240
2226.95161	0.00208
2225.66584	0.00211
2224.38007	0.00261
2223.09430	0.00346
2221.80853	0.00435
2220.52276	0.00494
2219.23700	0.00494
2217.95123	0.00438
2216.66546	0.00364
2215.37969	0.00317
2214.09392	0.00309
2212.80815	0.00313
2211.52238	0.00301
2210.23661	0.00278
2208.95084	0.00268
2207.66508	0.00282
2206.37931	0.00319
2205.09354	0.00378
2203.80777	0.00447
2202.52200	0.00489
2201.23623	0.00477
2199.95046	0.00431
2198.66469	0.00388
2197.37893	0.00349
2196.09316	0.00279
2194.80739	0.00171
2193.52162	0.00073
2192.23585	0.00044
2190.95008	0.00101
2189.66431	0.00202
2188.37854	0.00276
2187.09277	0.00282
2185.80701	0.00250
2184.52124	0.00251
2183.23547	0.00313
2181.94970	0.00391
2180.66393	0.00409
2179.37816	0.00341
2178.09239	0.00232
2176.80662	0.00155
2175.52085	0.00152
2174.23509	0.00200
2172.94932	0.00240
2171.66355	0.00235
2170.37778	0.00188
2169.09201	0.00122
2167.80624	0.00052
2166.52047	-0.00024
2165.23470	-0.00102
2163.94894	-0.00174
2162.66317	-0.00224
2161.37740	-0.00232
2160.09163	-0.00168
2158.80586	-0.00030
2157.52009	0.00114
2156.23432	0.00177
2154.94855	0.00143
2153.66278	0.00086
2152.37702	0.00097
2151.09125	0.00203
2149.80548	0.00351
2148.51971	0.00467
2147.23394	0.00509
2145.94817	0.00484
2144.66240	0.00420
2143.37663	0.00332
2142.09087	0.00226
2140.80510	0.00129
2139.51933	0.00086
2138.23356	0.00125
2136.94779	0.00216
2135.66202	0.00293
2134.37625	0.00316
2133.09048	0.00292
2131.80471	0.00245
2130.51895	0.00196
2129.23318	0.00179
2127.94741	0.00222
2126.66164	0.00306
2125.37587	0.00369
2124.09010	0.00368
2122.80433	0.00325
2121.51856	0.00288
2120.23280	0.00272
2118.94703	0.00261
2117.66126	0.00229
2116.37549	0.00175
2115.08972	0.00121
2113.80395	0.00095
2112.51818	0.00116
2111.23241	0.00167
2109.94664	0.00217
2108.66088	0.00238
2107.37511	0.00226
2106.08934	0.00203
2104.80357	0.00196
2103.51780	0.00210
2102.23203	0.00215
2100.94626	0.00173
2099.66049	-0.00023
2098.37473	-0.00164
2097.08896	-0.00206
2095.80319	-0.00188
2094.51742	-0.00150
2093.23165	-0.00121
2091.94588	-0.00099
2090.66011	-0.00060
2089.37434	0.00008
2088.08857	0.00083
2086.80281	0.00123
2085.51704	0.00116
2084.23127	0.00086
2082.94550	0.00056
2081.65973	0.00022
2080.37396	-0.00035
2079.08819	-0.00113
2077.80242	-0.00179
2076.51666	-0.00207
2075.23089	-0.00198
2073.94512	-0.00175
2072.65935	-0.00145
2071.37358	-0.00108
2070.08781	-0.00072
2068.80204	-0.00061
2067.51627	-0.00080
2066.23050	-0.00109
2064.94474	-0.00120
2063.65897	-0.00101
2062.37320	-0.00054
2061.08743	0.00008
2059.80166	0.00056
2058.51589	0.00049
2057.23012	-0.00023
2055.94435	-0.00117
2054.65859	-0.00163
2053.37282	-0.00135
2052.08705	-0.00073
2050.80128	-0.00041
2049.51551	-0.00073
2048.22974	-0.00151
2046.94397	-0.00227
2045.65820	-0.00265
2044.37243	-0.00260
2043.08667	-0.00237
2041.80090	-0.00228
2040.51513	-0.00255
2039.22936	-0.00322
2037.94359	-0.00419
2036.65782	-0.00517
2035.37205	-0.00572
2034.08628	-0.00549
2032.80052	-0.00450
2031.51475	-0.00317
2030.22898	-0.00201
2028.94321	-0.00112
2027.65744	-0.00012
2026.37167	0.00120
2025.08590	0.00243
2023.80013	0.00276
2022.51436	0.00187
2021.22860	0.00031
2019.94283	-0.00101
2018.65706	-0.00157
2017.37129	-0.00151
2016.08552	-0.00122
2014.79975	-0.00092
2013.51398	-0.00065
2012.22821	-0.00042
2010.94245	-0.00034
2009.65668	-0.00041
2008.37091	-0.00053
2007.08514	-0.00053
2005.79937	-0.00035
2004.51360	0.00001
2003.22783	0.00051
2001.94206	0.00110
2000.65629	0.00163
1999.37053	0.00192
1998.08476	0.00196
1996.79899	0.00200
1995.51322	0.00228
1994.22745	0.00270
1992.94168	0.00282
1991.65591	0.00237
1990.37014	0.00159
1989.08438	0.00104
1987.79861	0.00106
1986.51284	0.00149
1985.22707	0.00190
1983.94130	0.00186
1982.65553	0.00133
1981.36976	0.00066
1980.08399	0.00040
1978.79822	0.00066
1977.51246	0.00102
1976.22669	0.00099
1974.94092	0.00061
1973.65515	0.00038
1972.36938	0.00057
1971.08361	0.00100
1969.79784	0.00135
1968.51207	0.00158
1967.22631	0.00188
1965.94054	0.00240
1964.65477	0.00304
1963.36900	0.00350
1962.08323	0.00353
1960.79746	0.00320
1959.51169	0.00276
1958.22592	0.00242
1956.94015	0.00212
1955.65439	0.00172
1954.36862	0.00132
1953.08285	0.00121
1951.79708	0.00157
1950.51131	0.00221
1949.22554	0.00276
1947.93977	0.00310
1946.65400	0.00334
1945.36823	0.00359
1944.08247	0.00376
1942.79670	0.00370
1941.51093	0.00344
1940.22516	0.00314
1938.93939	0.00290
1937.65362	0.00266
1936.36785	0.00234
1935.08208	0.00198
1933.79632	0.00177
1932.51055	0.00180
1931.22478	0.00208
1929.93901	0.00256
1928.65324	0.00313
1927.36747	0.00363
1926.08170	0.00392
1924.79593	0.00396
1923.51016	0.00378
1922.22440	0.00348
1920.93863	0.00322
1919.65286	0.00314
1918.36709	0.00322
1917.08132	0.00326
1915.79555	0.00315
1914.50978	0.00290
1913.22401	0.00250
1911.93825	0.00200
1910.65248	0.00154
1909.36671	0.00135
1908.08094	0.00142
1906.79517	0.00154
1905.50940	0.00151
1904.22363	0.00134
1902.93786	0.00118
1901.65209	0.00114
1900.36633	0.00126
1899.08056	0.00150
1897.79479	0.00184
1896.50902	0.00216
1895.22325	0.00234
1893.93748	0.00237
1892.65171	0.00237
1891.36594	0.00245
1890.08018	0.00260
1888.79441	0.00272
1887.50864	0.00283
1886.22287	0.00301
1884.93710	0.00323
1883.65133	0.00334
1882.36556	0.00325
1881.07979	0.00303
1879.79402	0.00284
1878.50826	0.00280
1877.22249	0.00288
1875.93672	0.00294
1874.65095	0.00282
1873.36518	0.00254
1872.07941	0.00230
1870.79364	0.00231
1869.50787	0.00253
1868.22211	0.00279
1866.93634	0.00297
1865.65057	0.00308
1864.36480	0.00316
1863.07903	0.00321
1861.79326	0.00322
1860.50749	0.00322
1859.22172	0.00327
1857.93595	0.00333
1856.65019	0.00331
1855.36442	0.00315
1854.07865	0.00290
1852.79288	0.00268
1851.50711	0.00255
1850.22134	0.00255
1848.93557	0.00265
1847.64980	0.00279
1846.36404	0.00298
1845.07827	0.00315
1843.79250	0.00319
1842.50673	0.00307
1841.22096	0.00289
1839.93519	0.00279
1838.64942	0.00283
1837.36365	0.00300
1836.07788	0.00322
1834.79212	0.00336
1833.50635	0.00337
1832.22058	0.00329
1830.93481	0.00321
1829.64904	0.00310
1828.36327	0.00294
1827.07750	0.00277
1825.79173	0.00261
1824.50597	0.00243
1823.22020	0.00224
1821.93443	0.00214
1820.64866	0.00223
1819.36289	0.00248
1818.07712	0.00281
1816.79135	0.00316
1815.50558	0.00348
1814.21981	0.00376
1812.93405	0.00394
1811.64828	0.00401
1810.36251	0.00403
1809.07674	0.00405
1807.79097	0.00404
1806.50520	0.00398
1805.21943	0.00383
1803.93366	0.00364
1802.64790	0.00349
1801.36213	0.00343
1800.07636	0.00347
1798.79059	0.00354
1797.50482	0.00359
1796.21905	0.00353
1794.93328	0.00339
1793.64751	0.00321
1792.36174	0.00300
1791.07598	0.00281
1789.79021	0.00273
1788.50444	0.00279
1787.21867	0.00291
1785.93290	0.00299
1784.64713	0.00297
1783.36136	0.00294
1782.07559	0.00298
1780.78983	0.00309
1779.50406	0.00315
1778.21829	0.00310
1776.93252	0.00296
1775.64675	0.00284
1774.36098	0.00286
1773.07521	0.00295
1771.78944	0.00303
1770.50367	0.00312
1769.21791	0.00333
1767.93214	0.00360
1766.64637	0.00373
1765.36060	0.00369
1764.07483	0.00362
1762.78906	0.00356
1761.50329	0.00345
1760.21752	0.00331
1758.93176	0.00327
1757.64599	0.00341
1756.36022	0.00361
1755.07445	0.00372
1753.78868	0.00371
1752.50291	0.00363
1751.21714	0.00350
1749.93137	0.00338
1748.64560	0.00337
1747.35984	0.00351
1746.07407	0.00368
1744.78830	0.00378
1743.50253	0.00375
1742.21676	0.00364
1740.93099	0.00348
1739.64522	0.00322
1738.35945	0.00287
1737.07369	0.00262
1735.78792	0.00267
1734.50215	0.00293
1733.21638	0.00313
1731.93061	0.00324
1730.64484	0.00337
1729.35907	0.00353
1728.07330	0.00361
1726.78753	0.00364
1725.50177	0.00371
1724.21600	0.00378
1722.93023	0.00373
1721.64446	0.00352
1720.35869	0.00332
1719.07292	0.00331
1717.78715	0.00347
1716.50138	0.00370
1715.21561	0.00393
1713.92985	0.00415
1712.64408	0.00431
1711.35831	0.00437
1710.07254	0.00436
1708.78677	0.00435
1707.50100	0.00439
1706.21523	0.00442
1704.92946	0.00429
1703.64370	0.00404
1702.35793	0.00395
1701.07216	0.00404
1699.78639	0.00411
1698.50062	0.00420
1697.21485	0.00452
1695.92908	0.00500
1694.64331	0.00531
1693.35754	0.00543
1692.07178	0.00559
1690.78601	0.00572
1689.50024	0.00563
1688.21447	0.00536
1686.92870	0.00523
1685.64293	0.00537
1684.35716	0.00555
1683.07139	0.00559
1681.78563	0.00560
1680.49986	0.00570
1679.21409	0.00580
1677.92832	0.00590
1676.64255	0.00613
1675.35678	0.00639
1674.07101	0.00654
1672.78524	0.00656
1671.49947	0.00660
1670.21371	0.00667
1668.92794	0.00671
1667.64217	0.00670
1666.35640	0.00673
1665.07063	0.00688
1663.78486	0.00715
1662.49909	0.00740
1661.21332	0.00756
1659.92756	0.00760
1658.64179	0.00745
1657.35602	0.00708
1656.07025	0.00675
1654.78448	0.00676
1653.49871	0.00701
1652.21294	0.00708
1650.92717	0.00690
1649.64140	0.00680
1648.35564	0.00695
1647.06987	0.00721
1645.78410	0.00737
1644.49833	0.00743
1643.21256	0.00749
1641.92679	0.00754
1640.64102	0.00749
1639.35525	0.00732
1638.06949	0.00719
1636.78372	0.00723
1635.49795	0.00737
1634.21218	0.00744
1632.92641	0.00742
1631.64064	0.00738
1630.35487	0.00733
1629.06910	0.00723
1627.78333	0.00710
1626.49757	0.00697
1625.21180	0.00692
1623.92603	0.00693
1622.64026	0.00690
1621.35449	0.00675
1620.06872	0.00658
1618.78295	0.00656
1617.49718	0.00667
1616.21142	0.00673
1614.92565	0.00670
1613.63988	0.00669
1612.35411	0.00677
1611.06834	0.00688
1609.78257	0.00692
1608.49680	0.00692
1607.21103	0.00692
1605.92526	0.00694
1604.63950	0.00701
1603.35373	0.00708
1602.06796	0.00712
1600.78219	0.00712
1599.49642	0.00711
1598.21065	0.00711
1596.92488	0.00714
1595.63911	0.00718
1594.35335	0.00726
1593.06758	0.00738
1591.78181	0.00753
1590.49604	0.00763
1589.21027	0.00764
1587.92450	0.00758
1586.63873	0.00754
1585.35296	0.00757
1584.06719	0.00768
1582.78143	0.00778
1581.49566	0.00781
1580.20989	0.00777
1578.92412	0.00777
1577.63835	0.00796
1576.35258	0.00822
1575.06681	0.00835
1573.78104	0.00835
1572.49528	0.00842
1571.20951	0.00860
1569.92374	0.00876
1568.63797	0.00886
1567.35220	0.00897
1566.06643	0.00909
1564.78066	0.00901
1563.49489	0.00863
1562.20912	0.00818
1560.92336	0.00800
1559.63759	0.00812
1558.35182	0.00829
1557.06605	0.00843
1555.78028	0.00870
1554.49451	0.00907
1553.20874	0.00936
1551.92297	0.00952
1550.63721	0.00961
1549.35144	0.00963
1548.06567	0.00958
1546.77990	0.00948
1545.49413	0.00931
1544.20836	0.00903
1542.92259	0.00875
1541.63682	0.00866
1540.35105	0.00878
1539.06529	0.00892
1537.77952	0.00894
1536.49375	0.00897
1535.20798	0.00910
1533.92221	0.00923
1532.63644	0.00920
1531.35067	0.00903
1530.06490	0.00887
1528.77914	0.00880
1527.49337	0.00877
1526.20760	0.00866
1524.92183	0.00848
1523.63606	0.00840
1522.35029	0.00851
1521.06452	0.00870
1519.77875	0.00885
1518.49298	0.00902
1517.20722	0.00927
1515.92145	0.00950
1514.63568	0.00967
1513.34991	0.00981
1512.06414	0.00989
1510.77837	0.00987
1509.49260	0.00989
1508.20683	0.01010
1506.92107	0.01044
1505.63530	0.01072
1504.34953	0.01091
1503.06376	0.01116
1501.77799	0.01148
1500.49222	0.01174
1499.20645	0.01187
1497.92068	0.01192
1496.63491	0.01193
1495.34915	0.01187
1494.06338	0.01179
1492.77761	0.01184
1491.49184	0.01204
1490.20607	0.01232
1488.92030	0.01260
1487.63453	0.01287
1486.34876	0.01314
1485.06299	0.01341
1483.77723	0.01372
1482.49146	0.01408
1481.20569	0.01444
1479.91992	0.01477
1478.63415	0.01512
1477.34838	0.01549
1476.06261	0.01585
1474.77684	0.01624
1473.49108	0.01666
1472.20531	0.01705
1470.91954	0.01737
1469.63377	0.01766
1468.34800	0.01797
1467.06223	0.01829
1465.77646	0.01856
1464.49069	0.01877
1463.20492	0.01890
1461.91916	0.01896
1460.63339	0.01906
1459.34762	0.01931
1458.06185	0.01973
1456.77608	0.02016
1455.49031	0.02047
1454.20454	0.02070
1452.91877	0.02091
1451.63301	0.02103
1450.34724	0.02100
1449.06147	0.02090
1447.77570	0.02075
1446.48993	0.02050
1445.20416	0.02014
1443.91839	0.01965
1442.63262	0.01906
1441.34685	0.01838
1440.06109	0.01772
1438.77532	0.01723
1437.48955	0.01694
1436.20378	0.01673
1434.91801	0.01655
1433.63224	0.01649
1432.34647	0.01661
1431.06070	0.01686
1429.77494	0.01716
1428.48917	0.01747
1427.20340	0.01781
1425.91763	0.01819
1424.63186	0.01859
1423.34609	0.01897
1422.06032	0.01938
1420.77455	0.01986
1419.48878	0.02032
1418.20302	0.02062
1416.91725	0.02077
1415.63148	0.02087
1414.34571	0.02094
1413.05994	0.02093
1411.77417	0.02081
1410.48840	0.02053
1409.20263	0.02013
1407.91687	0.01964
1406.63110	0.01914
1405.34533	0.01864
1404.05956	0.01814
1402.77379	0.01764
1401.48802	0.01715
1400.20225	0.01665
1398.91648	0.01608
1397.63071	0.01546
1396.34495	0.01489
1395.05918	0.01437
1393.77341	0.01385
1392.48764	0.01330
1391.20187	0.01279
1389.91610	0.01240
1388.63033	0.01213
1387.34456	0.01189
1386.05880	0.01159
1384.77303	0.01121
1383.48726	0.01083
1382.20149	0.01050
1380.91572	0.01022
1379.62995	0.00997
1378.34418	0.00969
1377.05841	0.00937
1375.77264	0.00905
1374.48688	0.00872
1373.20111	0.00842
1371.91534	0.00814
1370.62957	0.00792
1369.34380	0.00774
1368.05803	0.00754
1366.77226	0.00733
1365.48649	0.00712
1364.20073	0.00692
1362.91496	0.00672
1361.62919	0.00653
1360.34342	0.00638
1359.05765	0.00631
1357.77188	0.00630
1356.48611	0.00629
1355.20034	0.00623
1353.91457	0.00615
1352.62881	0.00609
1351.34304	0.00605
1350.05727	0.00602
1348.77150	0.00597
1347.48573	0.00591
1346.19996	0.00584
1344.91419	0.00578
1343.62842	0.00573
1342.34266	0.00569
1341.05689	0.00565
1339.77112	0.00559
1338.48535	0.00554
1337.19958	0.00552
1335.91381	0.00554
1334.62804	0.00556
1333.34227	0.00554
1332.05650	0.00547
1330.77074	0.00541
1329.48497	0.00536
1328.19920	0.00532
1326.91343	0.00527
1325.62766	0.00523
1324.34189	0.00518
1323.05612	0.00513
1321.77035	0.00506
1320.48459	0.00498
1319.19882	0.00493
1317.91305	0.00493
1316.62728	0.00497
1315.34151	0.00501
1314.05574	0.00502
1312.76997	0.00500
1311.48420	0.00495
1310.19843	0.00491
1308.91267	0.00488
1307.62690	0.00489
1306.34113	0.00492
1305.05536	0.00497
1303.76959	0.00501
1302.48382	0.00499
1301.19805	0.00491
1299.91228	0.00480
1298.62652	0.00472
1297.34075	0.00470
1296.05498	0.00475
1294.76921	0.00480
1293.48344	0.00480
1292.19767	0.00472
1290.91190	0.00460
1289.62613	0.00449
1288.34036	0.00447
1287.05460	0.00455
1285.76883	0.00467
1284.48306	0.00477
1283.19729	0.00481
1281.91152	0.00480
1280.62575	0.00475
1279.33998	0.00468
1278.05421	0.00464
1276.76845	0.00466
1275.48268	0.00473
1274.19691	0.00481
1272.91114	0.00483
1271.62537	0.00478
1270.33960	0.00468
1269.05383	0.00459
1267.76806	0.00452
1266.48229	0.00449
1265.19653	0.00450
1263.91076	0.00454
1262.62499	0.00461
1261.33922	0.00469
1260.05345	0.00474
1258.76768	0.00472
1257.48191	0.00463
1256.19614	0.00451
1254.91037	0.00443
1253.62461	0.00442
1252.33884	0.00445
1251.05307	0.00448
1249.76730	0.00446
1248.48153	0.00441
1247.19576	0.00438
1245.90999	0.00439
1244.62422	0.00441
1243.33846	0.00443
1242.05269	0.00442
1240.76692	0.00439
1239.48115	0.00435
1238.19538	0.00431
1236.90961	0.00429
1235.62384	0.00432
1234.33807	0.00438
1233.05230	0.00445
1231.76654	0.00447
1230.48077	0.00442
1229.19500	0.00433
1227.90923	0.00425
1226.62346	0.00420
1225.33769	0.00418
1224.05192	0.00416
1222.76615	0.00413
1221.48039	0.00410
1220.19462	0.00409
1218.90885	0.00410
1217.62308	0.00411
1216.33731	0.00413
1215.05154	0.00414
1213.76577	0.00414
1212.48000	0.00412
1211.19423	0.00410
1209.90847	0.00407
1208.62270	0.00404
1207.33693	0.00401
1206.05116	0.00398
1204.76539	0.00397
1203.47962	0.00399
1202.19385	0.00404
1200.90808	0.00418
1199.62232	0.00436
1198.33655	0.00437
1197.05078	0.00434
1195.76501	0.00427
1194.47924	0.00421
1193.19347	0.00421
1191.90770	0.00426
1190.62193	0.00435
1189.33616	0.00445
1188.05040	0.00453
1186.76463	0.00460
1185.47886	0.00461
1184.19309	0.00457
1182.90732	0.00451
1181.62155	0.00451
1180.33578	0.00459
1179.05001	0.00475
1177.76425	0.00490
1176.47848	0.00496
1175.19271	0.00495
1173.90694	0.00492
1172.62117	0.00491
1171.33540	0.00494
1170.04963	0.00500
1168.76386	0.00511
1167.47809	0.00528
1166.19233	0.00548
1164.90656	0.00564
1163.62079	0.00571
1162.33502	0.00575
1161.04925	0.00580
1159.76348	0.00590
1158.47771	0.00607
1157.19194	0.00629
1155.90618	0.00653
1154.62041	0.00677
1153.33464	0.00697
1152.04887	0.00713
1150.76310	0.00723
1149.47733	0.00733
1148.19156	0.00748
1146.90579	0.00771
1145.62002	0.00798
1144.33426	0.00825
1143.04849	0.00853
1141.76272	0.00885
1140.47695	0.00922
1139.19118	0.00964
1137.90541	0.01009
1136.61964	0.01058
1135.33387	0.01108
1134.04811	0.01161
1132.76234	0.01224
1131.47657	0.01303
1130.19080	0.01399
1128.90503	0.01509
1127.61926	0.01626
1126.33349	0.01753
1125.04772	0.01893
1123.76195	0.02052
1122.47619	0.02232
1121.19042	0.02429
1119.90465	0.02633
1118.61888	0.02836
1117.33311	0.03034
1116.04734	0.03227
1114.76157	0.03415
1113.47580	0.03597
1112.19004	0.03771
1110.90427	0.03941
1109.61850	0.04114
1108.33273	0.04285
1107.04696	0.04445
1105.76119	0.04592
1104.47542	0.04733
1103.18965	0.04875
1101.90388	0.05018
1100.61812	0.05155
1099.33235	0.05281
1098.04658	0.05396
1096.76081	0.05507
1095.47504	0.05615
1094.18927	0.05719
1092.90350	0.05811
1091.61773	0.05889
1090.33197	0.05951
1089.04620	0.05998
1087.76043	0.06029
1086.47466	0.06047
1085.18889	0.06058
1083.90312	0.06076
1082.61735	0.06116
1081.33158	0.06188
1080.04581	0.06294
1078.76005	0.06428
1077.47428	0.06575
1076.18851	0.06728
1074.90274	0.06885
1073.61697	0.07051
1072.33120	0.07229
1071.04543	0.07417
1069.75966	0.07612
1068.47390	0.07812
1067.18813	0.08018
1065.90236	0.08228
1064.61659	0.08439
1063.33082	0.08645
1062.04505	0.08847
1060.75928	0.09046
1059.47351	0.09244
1058.18774	0.09437
1056.90198	0.09626
1055.61621	0.09814
1054.33044	0.10006
1053.04467	0.10197
1051.75890	0.10389
1050.47313	0.10586
1049.18736	0.10792
1047.90159	0.11004
1046.61583	0.11215
1045.33006	0.11415
1044.04429	0.11597
1042.75852	0.11757
1041.47275	0.11897
1040.18698	0.12020
1038.90121	0.12133
1037.61544	0.12236
1036.32967	0.12334
1035.04391	0.12426
1033.75814	0.12510
1032.47237	0.12580
1031.18660	0.12625
1029.90083	0.12639
1028.61506	0.12618
1027.32929	0.12563
1026.04352	0.12468
1024.75775	0.12320
1023.47199	0.12106
1022.18622	0.11823
1020.90045	0.11482
1019.61468	0.11095
1018.32891	0.10680
1017.04314	0.10251
1015.75737	0.09819
1014.47160	0.09386
1013.18584	0.08953
1011.90007	0.08524
1010.61430	0.08105
1009.32853	0.07697
1008.04276	0.07298
1006.75699	0.06910
1005.47122	0.06536
1004.18545	0.06181
1002.89968	0.05842
1001.61392	0.05519
1000.32815	0.05211
999.04238	0.04922
997.75661	0.04650
996.47084	0.04388
995.18507	0.04140
993.89930	0.03911
992.61353	0.03704
991.32777	0.03515
990.04200	0.03342
988.75623	0.03184
987.47046	0.03041
986.18469	0.02905
984.89892	0.02773
983.61315	0.02643
982.32738	0.02521
981.04161	0.02410
979.75585	0.02313
978.47008	0.02232
977.18431	0.02168
975.89854	0.02116
974.61277	0.02072
973.32700	0.02035
972.04123	0.02012
970.75546	0.02010
969.46970	0.02036
968.18393	0.02092
966.89816	0.02174
965.61239	0.02272
964.32662	0.02371
963.04085	0.02452
961.75508	0.02496
960.46931	0.02491
959.18354	0.02437
957.89778	0.02347
956.61201	0.02245
955.32624	0.02148
954.04047	0.02062
952.75470	0.01986
951.46893	0.01913
950.18316	0.01843
948.89739	0.01777
947.61163	0.01718
946.32586	0.01662
945.04009	0.01604
943.75432	0.01545
942.46855	0.01490
941.18278	0.01445
939.89701	0.01408
938.61124	0.01370
937.32547	0.01324
936.03971	0.01272
934.75394	0.01223
933.46817	0.01189
932.18240	0.01170
930.89663	0.01161
929.61086	0.01154
928.32509	0.01147
927.03932	0.01140
925.75356	0.01134
924.46779	0.01126
923.18202	0.01117
921.89625	0.01107
920.61048	0.01093
919.32471	0.01073
918.03894	0.01052
916.75317	0.01035
915.46740	0.01023
914.18164	0.01012
912.89587	0.01001
911.61010	0.00995
910.32433	0.00997
909.03856	0.01003
907.75279	0.01008
906.46702	0.01009
905.18125	0.01003
903.89549	0.00994
902.60972	0.00989
901.32395	0.00992
900.03818	0.01000
898.75241	0.01004
897.46664	0.01000
896.18087	0.00993
894.89510	0.00993
893.60933	0.01002
892.32357	0.01012
891.03780	0.01011
889.75203	0.00997
888.46626	0.00981
887.18049	0.00983
885.89472	0.01016
884.60895	0.01078
883.32318	0.01162
882.03742	0.01249
880.75165	0.01319
879.46588	0.01359
878.18011	0.01373
876.89434	0.01385
875.60857	0.01411
874.32280	0.01449
873.03703	0.01478
871.75126	0.01473
870.46550	0.01428
869.17973	0.01357
867.89396	0.01279
866.60819	0.01206
865.32242	0.01138
864.03665	0.01078
862.75088	0.01031
861.46511	0.00997
860.17935	0.00973
858.89358	0.00955
857.60781	0.00941
856.32204	0.00929
855.03627	0.00917
853.75050	0.00905
852.46473	0.00896
851.17896	0.00888
849.89319	0.00879
848.60743	0.00867
847.32166	0.00858
846.03589	0.00855
844.75012	0.00853
843.46435	0.00846
842.17858	0.00829
840.89281	0.00807
839.60704	0.00788
838.32128	0.00776
837.03551	0.00772
835.74974	0.00776
834.46397	0.00783
833.17820	0.00783
831.89243	0.00773
830.60666	0.00759
829.32089	0.00750
828.03512	0.00753
826.74936	0.00764
825.46359	0.00774
824.17782	0.00781
822.89205	0.00784
821.60628	0.00784
820.32051	0.00780
819.03474	0.00770
817.74897	0.00757
816.46321	0.00747
815.17744	0.00746
813.89167	0.00751
812.60590	0.00757
811.32013	0.00759
810.03436	0.00752
808.74859	0.00738
807.46282	0.00725
806.17705	0.00722
804.89129	0.00731
803.60552	0.00744
802.31975	0.00749
801.03398	0.00738
799.74821	0.00718
798.46244	0.00699
797.17667	0.00692
795.89090	0.00700
794.60513	0.00718
793.31937	0.00735
792.03360	0.00744
790.74783	0.00745
789.46206	0.00743
788.17629	0.00745
786.89052	0.00752
785.60475	0.00758
784.31898	0.00758
783.03322	0.00751
781.74745	0.00738
780.46168	0.00722
779.17591	0.00707
777.89014	0.00698
776.60437	0.00701
775.31860	0.00712
774.03283	0.00722
772.74706	0.00729
771.46130	0.00734
770.17553	0.00739
768.88976	0.00739
767.60399	0.00734
766.31822	0.00727
765.03245	0.00723
763.74668	0.00719
762.46091	0.00711
761.17515	0.00695
759.88938	0.00678
758.60361	0.00671
757.31784	0.00675
756.03207	0.00681
754.74630	0.00679
753.46053	0.00669
752.17476	0.00661
750.88899	0.00667
749.60323	0.00683
748.31746	0.00698
747.03169	0.00706
745.74592	0.00706
744.46015	0.00700
743.17438	0.00687
741.88861	0.00671
740.60284	0.00656
739.31708	0.00648
738.03131	0.00653
736.74554	0.00667
735.45977	0.00683
734.17400	0.00694
732.88823	0.00703
731.60246	0.00710
730.31669	0.00715
729.03092	0.00716
727.74516	0.00714
726.45939	0.00712
725.17362	0.00712
723.88785	0.00712
722.60208	0.00721
721.31631	0.00730
720.03054	0.00739
718.74477	0.00749
717.45901	0.00760
716.17324	0.00768
714.88747	0.00769
713.60170	0.00761
712.31593	0.00749
711.03016	0.00740
709.74439	0.00735
708.45862	0.00733
707.17285	0.00732
705.88709	0.00728
704.60132	0.00724
703.31555	0.00722
702.02978	0.00723
700.74401	0.00727
699.45824	0.00728
698.17247	0.00725
696.88670	0.00718
695.60094	0.00713
694.31517	0.00712
693.02940	0.00713
691.74363	0.00715
690.45786	0.00718
689.17209	0.00722
687.88632	0.00723
686.60055	0.00722
685.31478	0.00723
684.02902	0.00734
682.74325	0.00754
681.45748	0.00772
680.17171	0.00777
678.88594	0.00766
677.60017	0.00751
676.31440	0.00744
675.02863	0.00751
673.74287	0.00768
672.45710	0.00789
671.17133	0.00809
669.88556	0.00826
668.59979	0.00837
667.31402	0.00836
666.02825	0.00839
664.74248	0.00845
663.45671	0.00853
662.17095	0.00861
660.88518	0.00870
659.59941	0.00878
658.31364	0.00889
657.02787	0.00898
655.74210	0.00903
654.45633	0.00905
653.17056	0.00912
651.88480	0.00929
650.59903	0.00960
649.31326	0.00999
648.02749	0.01042
646.74172	0.01084
645.45595	0.01126
644.17018	0.01166
642.88441	0.01205
641.59864	0.01244
640.31288	0.01284
639.02711	0.01325
637.74134	0.01367
636.45557	0.01409
635.16980	0.01445
633.88403	0.01472
632.59826	0.01491
631.31249	0.01498
630.02673	0.01432
628.74096	0.01277
627.45519	0.01296
626.16942	0.01043
624.88365	0.00608
623.59788	0.00227
622.31211	0.00068
621.02634	0.00197
619.74057	0.00524
618.45481	0.00893
617.16904	0.01216
615.88327	0.01491
614.59750	0.01721
613.31173	0.01884
612.02596	0.01988
610.74019	0.02112
609.45442	0.02348
608.16866	0.02696
606.88289	0.03071
605.59712	0.03394
604.31135	0.03638
603.02558	0.03803
601.73981	0.03880
600.45404	0.03857
599.16827	0.03730
597.88250	0.03519
596.59674	0.03261
595.31097	0.03002
594.02520	0.02783
592.73943	0.02634
591.45366	0.02559
590.16789	0.02541
588.88212	0.02556
587.59635	0.02587
586.31059	0.02627
585.02482	0.02683
583.73905	0.02770
582.45328	0.02902
581.16751	0.03082
579.88174	0.03298
578.59597	0.03533
577.31020	0.03772
576.02443	0.04005
574.73867	0.04216
573.45290	0.04394
572.16713	0.04545
570.88136	0.04690
569.59559	0.04855
568.30982	0.05049
567.02405	0.05263
565.73828	0.05464
564.45251	0.05598
563.16675	0.05616
561.88098	0.05491
560.59521	0.05234
559.30944	0.04884
558.02367	0.04487
556.73790	0.04081
555.45213	0.03685
554.16636	0.03316
552.88060	0.02984
551.59483	0.02701
550.30906	0.02470
549.02329	0.02284
547.73752	0.02130
546.45175	0.01993
545.16598	0.01867
543.88021	0.01752
542.59444	0.01648
541.30868	0.01557
540.02291	0.01477
538.73714	0.01413
537.45137	0.01367
536.16560	0.01339
534.87983	0.01318
533.59406	0.01294
532.30829	0.01260
531.02253	0.01218
529.73676	0.01173
528.45099	0.01128
527.16522	0.01085
525.87945	0.01047
524.59368	0.01018
523.30791	0.00998
522.02214	0.00986
520.73637	0.00979
519.45061	0.00970
518.16484	0.00955
516.87907	0.00931
515.59330	0.00900
514.30753	0.00867
513.02176	0.00839
511.73599	0.00823
510.45022	0.00817
509.16446	0.00819
507.87869	0.00820
506.59292	0.00814
505.30715	0.00803
504.02138	0.00790
502.73561	0.00782
501.44984	0.00778
500.16407	0.00777
498.87830	0.00773
497.59254	0.00764
496.30677	0.00752
495.02100	0.00741
493.73523	0.00732
492.44946	0.00728
491.16369	0.00731
489.87792	0.00741
488.59215	0.00752
487.30639	0.00757
486.02062	0.00753
484.73485	0.00746
483.44908	0.00744
482.16331	0.00753
480.87754	0.00773
479.59177	0.00799
478.30600	0.00820
477.02023	0.00830
475.73447	0.00831
474.44870	0.00831
473.16293	0.00836
471.87716	0.00846
470.59139	0.00854
469.30562	0.00856
468.01985	0.00851
466.73408	0.00838
465.44832	0.00821
464.16255	0.00800
462.87678	0.00777
461.59101	0.00753
460.30524	0.00735
459.01947	0.00725
457.73370	0.00720
456.44793	0.00713
455.16216	0.00703
453.87640	0.00692
452.59063	0.00686
451.30486	0.00690
450.01909	0.00701
448.73332	0.00710
447.44755	0.00707
446.16178	0.00693
444.87601	0.00678
443.59025	0.00669
442.30448	0.00666
441.01871	0.00660
439.73294	0.00649
438.44717	0.00637
437.16140	0.00631
435.87563	0.00635
434.58986	0.00644
433.30409	0.00651
432.01833	0.00653
430.73256	0.00652
429.44679	0.00652
428.16102	0.00653
426.87525	0.00653
425.58948	0.00651
424.30371	0.00646
423.01794	0.00640
421.73218	0.00633
420.44641	0.00624
419.16064	0.00612
417.87487	0.00600
416.58910	0.00593
415.30333	0.00596
414.01756	0.00607
412.73179	0.00621
411.44602	0.00633
410.16026	0.00642
408.87449	0.00648
407.58872	0.00651
406.30295	0.00653
405.01718	0.00653
403.73141	0.00651
402.44564	0.00650
401.15987	0.00653
399.87411	0.00664
