3997.45528	0.00798
3996.16951	0.00856
3994.88374	0.00891
3993.59798	0.00896
3992.31221	0.00891
3991.02644	0.00890
3989.74067	0.00897
3988.45490	0.00903
3987.16913	0.00904
3985.88336	0.00890
3984.59759	0.00865
3983.31183	0.00847
3982.02606	0.00860
3980.74029	0.00900
3979.45452	0.00939
3978.16875	0.00953
3976.88298	0.00952
3975.59721	0.00969
3974.31144	0.01022
3973.02567	0.01105
3971.73991	0.01197
3970.45414	0.01277
3969.16837	0.01329
3967.88260	0.01349
3966.59683	0.01335
3965.31106	0.01296
3964.02529	0.01242
3962.73952	0.01194
3961.45376	0.01169
3960.16799	0.01177
3958.88222	0.01210
3957.59645	0.01254
3956.31068	0.01294
3955.02491	0.01330
3953.73914	0.01366
3952.45337	0.01410
3951.16760	0.01461
3949.88184	0.01508
3948.59607	0.01526
3947.31030	0.01501
3946.02453	0.01449
3944.73876	0.01409
3943.45299	0.01402
3942.16722	0.01418
3940.88145	0.01435
3939.59569	0.01439
3938.30992	0.01430
3937.02415	0.01411
3935.73838	0.01395
3934.45261	0.01388
3933.16684	0.01382
3931.88107	0.01368
3930.59530	0.01362
3929.30953	0.01387
3928.02377	0.01449
3926.73800	0.01537
3925.45223	0.01633
3924.16646	0.01721
3922.88069	0.01790
3921.59492	0.01819
3920.30915	0.01796
3919.02338	0.01735
3917.73762	0.01673
3916.45185	0.01647
3915.16608	0.01675
3913.88031	0.01741
3912.59454	0.01806
3911.30877	0.01828
3910.02300	0.01795
3908.73723	0.01730
3907.45146	0.01663
3906.16570	0.01609
3904.87993	0.01571
3903.59416	0.01543
3902.30839	0.01534
3901.02262	0.01545
3899.73685	0.01559
3898.45108	0.01560
3897.16531	0.01559
3895.87955	0.01584
3894.59378	0.01655
3893.30801	0.01759
3892.02224	0.01857
3890.73647	0.01898
3889.45070	0.01880
3888.16493	0.01851
3886.87916	0.01840
3885.59339	0.01838
3884.30763	0.01855
3883.02186	0.01929
3881.73609	0.02046
3880.45032	0.02119
3879.16455	0.02099
3877.87878	0.02035
3876.59301	0.02006
3875.30724	0.02012
3874.02148	0.02000
3872.73571	0.01960
3871.44994	0.01930
3870.16417	0.01912
3868.87840	0.01885
3867.59263	0.01877
3866.30686	0.01918
3865.02109	0.01966
3863.73532	0.01968
3862.44956	0.01941
3861.16379	0.01934
3859.87802	0.01952
3858.59225	0.01961
3857.30648	0.01962
3856.02071	0.01995
3854.73494	0.02071
3853.44917	0.02138
3852.16341	0.02165
3850.87764	0.02184
3849.59187	0.02222
3848.30610	0.02253
3847.02033	0.02255
3845.73456	0.02230
3844.44879	0.02189
3843.16302	0.02137
3841.87725	0.02074
3840.59149	0.02018
3839.30572	0.01981
3838.01995	0.01946
3836.73418	0.01906
3835.44841	0.01896
3834.16264	0.01951
3832.87687	0.02034
3831.59110	0.02073
3830.30534	0.02052
3829.01957	0.02031
3827.73380	0.02057
3826.44803	0.02104
3825.16226	0.02128
3823.87649	0.02143
3822.59072	0.02178
3821.30495	0.02211
3820.01918	0.02206
3818.73342	0.02192
3817.44765	0.02206
3816.16188	0.02214
3814.87611	0.02166
3813.59034	0.02070
3812.30457	0.01957
3811.01880	0.01850
3809.73303	0.01797
3808.44726	0.01837
3807.16150	0.01925
3805.87573	0.01983
3804.58996	0.02015
3803.30419	0.02066
3802.01842	0.02117
3800.73265	0.02115
3799.44688	0.02094
3798.16111	0.02134
3796.87535	0.02236
3795.58958	0.02320
3794.30381	0.02333
3793.01804	0.02281
3791.73227	0.02191
3790.44650	0.02085
3789.16073	0.01985
3787.87496	0.01917
3786.58919	0.01905
3785.30343	0.01948
3784.01766	0.02025
3782.73189	0.02109
3781.44612	0.02186
3780.16035	0.02235
3778.87458	0.02241
3777.58881	0.02217
3776.30304	0.02194
3775.01728	0.02193
3773.73151	0.02213
3772.44574	0.02252
3771.15997	0.02291
3769.87420	0.02302
3768.58843	0.02280
3767.30266	0.02248
3766.01689	0.02211
3764.73112	0.02149
3763.44536	0.02061
3762.15959	0.01989
3760.87382	0.01969
3759.58805	0.01995
3758.30228	0.02030
3757.01651	0.02035
3755.73074	0.02015
3754.44497	0.02014
3753.15921	0.02059
3751.87344	0.02122
3750.58767	0.02139
3749.30190	0.02060
3748.01613	0.01913
3746.73036	0.01814
3745.44459	0.01812
3744.15882	0.01805
3742.87305	0.01725
3741.58729	0.01639
3740.30152	0.01614
3739.01575	0.01635
3737.72998	0.01661
3736.44421	0.01663
3735.15844	0.01658
3733.87267	0.01672
3732.58690	0.01719
3731.30114	0.01748
3730.01537	0.01715
3728.72960	0.01664
3727.44383	0.01631
3726.15806	0.01626
3724.87229	0.01638
3723.58652	0.01636
3722.30075	0.01609
3721.01498	0.01561
3719.72922	0.01521
3718.44345	0.01543
3717.15768	0.01637
3715.87191	0.01773
3714.58614	0.01910
3713.30037	0.01998
3712.01460	0.02024
3710.72883	0.01985
3709.44307	0.01901
3708.15730	0.01832
3706.87153	0.01780
3705.58576	0.01743
3704.29999	0.01741
3703.01422	0.01775
3701.72845	0.01810
3700.44268	0.01814
3699.15691	0.01805
3697.87115	0.01833
3696.58538	0.01905
3695.29961	0.01988
3694.01384	0.02024
3692.72807	0.02011
3691.44230	0.01976
3690.15653	0.01948
3688.87076	0.01931
3687.58500	0.01909
3686.29923	0.01903
3685.01346	0.01964
3683.72769	0.02068
3682.44192	0.02167
3681.15615	0.02244
3679.87038	0.02298
3678.58461	0.02347
3677.29884	0.02414
3676.01308	0.02466
3674.72731	0.02443
3673.44154	0.02365
3672.15577	0.02315
3670.87000	0.02323
3669.58423	0.02341
3668.29846	0.02341
3667.01269	0.02337
3665.72693	0.02345
3664.44116	0.02376
3663.15539	0.02428
3661.86962	0.02488
3660.58385	0.02543
3659.29808	0.02609
3658.01231	0.02715
3656.72654	0.02842
3655.44077	0.02934
3654.15501	0.02966
3652.86924	0.02974
3651.58347	0.02992
3650.29770	0.03022
3649.01193	0.03056
3647.72616	0.03098
3646.44039	0.03142
3645.15462	0.03169
3643.86886	0.03166
3642.58309	0.03141
3641.29732	0.03124
3640.01155	0.03144
3638.72578	0.03200
3637.44001	0.03259
3636.15424	0.03290
3634.86847	0.03276
3633.58270	0.03231
3632.29694	0.03204
3631.01117	0.03251
3629.72540	0.03372
3628.43963	0.03471
3627.15386	0.03492
3625.86809	0.03460
3624.58232	0.03451
3623.29655	0.03483
3622.01079	0.03571
3620.72502	0.03686
3619.43925	0.03778
3618.15348	0.03797
3616.86771	0.03757
3615.58194	0.03746
3614.29617	0.03831
3613.01040	0.03989
3611.72463	0.04131
3610.43887	0.04187
3609.15310	0.04135
3607.86733	0.04024
3606.58156	0.03935
3605.29579	0.03926
3604.01002	0.03990
3602.72425	0.04075
3601.43848	0.04157
3600.15272	0.04218
3598.86695	0.04242
3597.58118	0.04217
3596.29541	0.04189
3595.00964	0.04188
3593.72387	0.04225
3592.43810	0.04296
3591.15233	0.04354
3589.86656	0.04392
3588.58080	0.04450
3587.29503	0.04520
3586.00926	0.04577
3584.72349	0.04601
3583.43772	0.04599
3582.15195	0.04609
3580.86618	0.04668
3579.58041	0.04778
3578.29464	0.04914
3577.00888	0.05034
3575.72311	0.05103
3574.43734	0.05105
3573.15157	0.05070
3571.86580	0.05048
3570.58003	0.05075
3569.29426	0.05141
3568.00849	0.05194
3566.72273	0.05198
3565.43696	0.05181
3564.15119	0.05197
3562.86542	0.05270
3561.57965	0.05364
3560.29388	0.05432
3559.00811	0.05472
3557.72234	0.05514
3556.43657	0.05577
3555.15081	0.05645
3553.86504	0.05688
3552.57927	0.05705
3551.29350	0.05721
3550.00773	0.05768
3548.72196	0.05844
3547.43619	0.05913
3546.15042	0.05929
3544.86466	0.05883
3543.57889	0.05808
3542.29312	0.05752
3541.00735	0.05741
3539.72158	0.05778
3538.43581	0.05855
3537.15004	0.05966
3535.86427	0.06091
3534.57850	0.06198
3533.29274	0.06263
3532.00697	0.06282
3530.72120	0.06271
3529.43543	0.06257
3528.14966	0.06264
3526.86389	0.06300
3525.57812	0.06356
3524.29235	0.06413
3523.00659	0.06456
3521.72082	0.06478
3520.43505	0.06480
3519.14928	0.06465
3517.86351	0.06445
3516.57774	0.06436
3515.29197	0.06459
3514.00620	0.06520
3512.72043	0.06611
3511.43467	0.06712
3510.14890	0.06788
3508.86313	0.06810
3507.57736	0.06783
3506.29159	0.06754
3505.00582	0.06777
3503.72005	0.06863
3502.43428	0.06973
3501.14852	0.07061
3499.86275	0.07111
3498.57698	0.07137
3497.29121	0.07156
3496.00544	0.07177
3494.71967	0.07201
3493.43390	0.07221
3492.14813	0.07225
3490.86236	0.07208
3489.57660	0.07187
3488.29083	0.07188
3487.00506	0.07224
3485.71929	0.07288
3484.43352	0.07367
3483.14775	0.07445
3481.86198	0.07501
3480.57621	0.07521
3479.29045	0.07508
3478.00468	0.07482
3476.71891	0.07465
3475.43314	0.07467
3474.14737	0.07492
3472.86160	0.07540
3471.57583	0.07606
3470.29006	0.07667
3469.00429	0.07699
3467.71853	0.07692
3466.43276	0.07647
3465.14699	0.07586
3463.86122	0.07540
3462.57545	0.07544
3461.28968	0.07607
3460.00391	0.07699
3458.71814	0.07782
3457.43238	0.07834
3456.14661	0.07864
3454.86084	0.07889
3453.57507	0.07913
3452.28930	0.07944
3451.00353	0.07986
3449.71776	0.08031
3448.43199	0.08055
3447.14622	0.08041
3445.86046	0.08007
3444.57469	0.07997
3443.28892	0.08042
3442.00315	0.08133
3440.71738	0.08230
3439.43161	0.08282
3438.14584	0.08265
3436.86007	0.08198
3435.57431	0.08135
3434.28854	0.08128
3433.00277	0.08181
3431.71700	0.08251
3430.43123	0.08301
3429.14546	0.08334
3427.85969	0.08382
3426.57392	0.08454
3425.28815	0.08529
3424.00239	0.08583
3422.71662	0.08612
3421.43085	0.08625
3420.14508	0.08636
3418.85931	0.08648
3417.57354	0.08655
3416.28777	0.08636
3415.00200	0.08586
3413.71624	0.08525
3412.43047	0.08495
3411.14470	0.08524
3409.85893	0.08605
3408.57316	0.08710
3407.28739	0.08810
3406.00162	0.08885
3404.71585	0.08926
3403.43008	0.08924
3402.14432	0.08882
3400.85855	0.08817
3399.57278	0.08758
3398.28701	0.08727
3397.00124	0.08728
3395.71547	0.08755
3394.42970	0.08807
3393.14393	0.08870
3391.85817	0.08925
3390.57240	0.08958
3389.28663	0.08970
3388.00086	0.08965
3386.71509	0.08944
3385.42932	0.08912
3384.14355	0.08882
3382.85778	0.08873
3381.57201	0.08882
3380.28625	0.08892
3379.00048	0.08894
3377.71471	0.08894
3376.42894	0.08904
3375.14317	0.08927
3373.85740	0.08958
3372.57163	0.08991
3371.28586	0.09015
3370.00010	0.09029
3368.71433	0.09043
3367.42856	0.09067
3366.14279	0.09093
3364.85702	0.09099
3363.57125	0.09076
3362.28548	0.09039
3360.99971	0.09013
3359.71394	0.09013
3358.42818	0.09035
3357.14241	0.09074
3355.85664	0.09122
3354.57087	0.09176
3353.28510	0.09229
3351.99933	0.09274
3350.71356	0.09303
3349.42779	0.09313
3348.14202	0.09300
3346.85626	0.09260
3345.57049	0.09198
3344.28472	0.09138
3342.99895	0.09115
3341.71318	0.09146
3340.42741	0.09208
3339.14164	0.09255
3337.85587	0.09254
3336.57011	0.09212
3335.28434	0.09167
3333.99857	0.09156
3332.71280	0.09181
3331.42703	0.09213
3330.14126	0.09219
3328.85549	0.09193
3327.56972	0.09159
3326.28395	0.09141
3324.99819	0.09142
3323.71242	0.09157
3322.42665	0.09182
3321.14088	0.09218
3319.85511	0.09264
3318.56934	0.09312
3317.28357	0.09345
3315.99780	0.09342
3314.71204	0.09303
3313.42627	0.09254
3312.14050	0.09226
3310.85473	0.09226
3309.56896	0.09232
3308.28319	0.09222
3306.99742	0.09196
3305.71165	0.09171
3304.42588	0.09152
3303.14012	0.09130
3301.85435	0.09096
3300.56858	0.09062
3299.28281	0.09049
3297.99704	0.09063
3296.71127	0.09090
3295.42550	0.09107
3294.13973	0.09113
3292.85397	0.09121
3291.56820	0.09145
3290.28243	0.09179
3288.99666	0.09200
3287.71089	0.09186
3286.42512	0.09147
3285.13935	0.09122
3283.85358	0.09142
3282.56781	0.09193
3281.28205	0.09235
3279.99628	0.09243
3278.71051	0.09224
3277.42474	0.09209
3276.13897	0.09214
3274.85320	0.09236
3273.56743	0.09258
3272.28166	0.09269
3270.99590	0.09273
3269.71013	0.09274
3268.42436	0.09266
3267.13859	0.09243
3265.85282	0.09209
3264.56705	0.09177
3263.28128	0.09150
3261.99551	0.09119
3260.70974	0.09084
3259.42398	0.09062
3258.13821	0.09075
3256.85244	0.09122
3255.56667	0.09171
3254.28090	0.09184
3252.99513	0.09146
3251.70936	0.09080
3250.42359	0.09024
3249.13783	0.08994
3247.85206	0.08976
3246.56629	0.08951
3245.28052	0.08925
3243.99475	0.08923
3242.70898	0.08960
3241.42321	0.09019
3240.13744	0.09061
3238.85167	0.09058
3237.56591	0.09021
3236.28014	0.08987
3234.99437	0.08992
3233.70860	0.09036
3232.42283	0.09085
3231.13706	0.09098
3229.85129	0.09073
3228.56552	0.09037
3227.27976	0.09014
3225.99399	0.09000
3224.70822	0.08978
3223.42245	0.08940
3222.13668	0.08893
3220.85091	0.08849
3219.56514	0.08819
3218.27937	0.08810
3216.99360	0.08823
3215.70784	0.08852
3214.42207	0.08883
3213.13630	0.08898
3211.85053	0.08894
3210.56476	0.08879
3209.27899	0.08858
3207.99322	0.08823
3206.70745	0.08771
3205.42169	0.08725
3204.13592	0.08713
3202.85015	0.08740
3201.56438	0.08779
3200.27861	0.08800
3198.99284	0.08794
3197.70707	0.08771
3196.42130	0.08752
3195.13553	0.08757
3193.84977	0.08788
3192.56400	0.08829
3191.27823	0.08849
3189.99246	0.08829
3188.70669	0.08777
3187.42092	0.08720
3186.13515	0.08682
3184.84938	0.08663
3183.56362	0.08653
3182.27785	0.08647
3180.99208	0.08655
3179.70631	0.08673
3178.42054	0.08687
3177.13477	0.08680
3175.84900	0.08661
3174.56323	0.08651
3173.27746	0.08657
3171.99170	0.08666
3170.70593	0.08658
3169.42016	0.08627
3168.13439	0.08586
3166.84862	0.08560
3165.56285	0.08567
3164.27708	0.08601
3162.99131	0.08634
3161.70555	0.08635
3160.41978	0.08597
3159.13401	0.08551
3157.84824	0.08533
3156.56247	0.08551
3155.27670	0.08579
3153.99093	0.08582
3152.70516	0.08549
3151.41939	0.08495
3150.13363	0.08440
3148.84786	0.08403
3147.56209	0.08394
3146.27632	0.08400
3144.99055	0.08396
3143.70478	0.08362
3142.41901	0.08315
3141.13324	0.08290
3139.84748	0.08301
3138.56171	0.08319
3137.27594	0.08302
3135.99017	0.08243
3134.70440	0.08179
3133.41863	0.08155
3132.13286	0.08182
3130.84709	0.08231
3129.56132	0.08265
3128.27556	0.08261
3126.98979	0.08222
3125.70402	0.08172
3124.41825	0.08139
3123.13248	0.08137
3121.84671	0.08157
3120.56094	0.08176
3119.27517	0.08176
3117.98940	0.08159
3116.70364	0.08142
3115.41787	0.08135
3114.13210	0.08129
3112.84633	0.08110
3111.56056	0.08079
3110.27479	0.08054
3108.98902	0.08051
3107.70325	0.08063
3106.41749	0.08070
3105.13172	0.08058
3103.84595	0.08027
3102.56018	0.07990
3101.27441	0.07965
3099.98864	0.07962
3098.70287	0.07971
3097.41710	0.07969
3096.13133	0.07941
3094.84557	0.07902
3093.55980	0.07876
3092.27403	0.07874
3090.98826	0.07889
3089.70249	0.07911
3088.41672	0.07938
3087.13095	0.07968
3085.84518	0.07990
3084.55942	0.07994
3083.27365	0.07978
3081.98788	0.07943
3080.70211	0.07901
3079.41634	0.07866
3078.13057	0.07845
3076.84480	0.07830
3075.55903	0.07811
3074.27326	0.07787
3072.98750	0.07767
3071.70173	0.07757
3070.41596	0.07756
3069.13019	0.07764
3067.84442	0.07777
3066.55865	0.07792
3065.27288	0.07797
3063.98711	0.07788
3062.70135	0.07765
3061.41558	0.07735
3060.12981	0.07707
3058.84404	0.07689
3057.55827	0.07686
3056.27250	0.07698
3054.98673	0.07708
3053.70096	0.07703
3052.41519	0.07676
3051.12943	0.07629
3049.84366	0.07576
3048.55789	0.07526
3047.27212	0.07486
3045.98635	0.07458
3044.70058	0.07446
3043.41481	0.07451
3042.12904	0.07470
3040.84328	0.07496
3039.55751	0.07521
3038.27174	0.07536
3036.98597	0.07535
3035.70020	0.07522
3034.41443	0.07503
3033.12866	0.07487
3031.84289	0.07479
3030.55712	0.07477
3029.27136	0.07475
3027.98559	0.07462
3026.69982	0.07430
3025.41405	0.07380
3024.12828	0.07329
3022.84251	0.07299
3021.55674	0.07307
3020.27097	0.07341
3018.98521	0.07375
3017.69944	0.07385
3016.41367	0.07368
3015.12790	0.07333
3013.84213	0.07293
3012.55636	0.07254
3011.27059	0.07219
3009.98482	0.07195
3008.69905	0.07193
3007.41329	0.07218
3006.12752	0.07258
3004.84175	0.07290
3003.55598	0.07294
3002.27021	0.07262
3000.98444	0.07208
2999.69867	0.07157
2998.41290	0.07143
2997.12714	0.07175
2995.84137	0.07228
2994.55560	0.07267
2993.26983	0.07275
2991.98406	0.07259
2990.69829	0.07244
2989.41252	0.07246
2988.12675	0.07271
2986.84098	0.07324
2985.55522	0.07408
2984.26945	0.07503
2982.98368	0.07586
2981.69791	0.07653
2980.41214	0.07725
2979.12637	0.07815
2977.84060	0.07920
2976.55483	0.08035
2975.26907	0.08169
2973.98330	0.08331
2972.69753	0.08510
2971.41176	0.08689
2970.12599	0.08856
2968.84022	0.09021
2967.55445	0.09201
2966.26868	0.09406
2964.98291	0.09627
2963.69715	0.09848
2962.41138	0.10067
2961.12561	0.10288
2959.83984	0.10504
2958.55407	0.10703
2957.26830	0.10876
2955.98253	0.11022
2954.69676	0.11145
2953.41100	0.11242
2952.12523	0.11316
2950.83946	0.11377
2949.55369	0.11429
2948.26792	0.11467
2946.98215	0.11482
2945.69638	0.11470
2944.41061	0.11441
2943.12484	0.11410
2941.83908	0.11404
2940.55331	0.11446
2939.26754	0.11544
2937.98177	0.11692
2936.69600	0.11870
2935.41023	0.12055
2934.12446	0.12234
2932.83869	0.12411
2931.55293	0.12605
2930.26716	0.12821
2928.98139	0.13046
2927.69562	0.13257
2926.40985	0.13437
2925.12408	0.13573
2923.83831	0.13648
2922.55254	0.13663
2921.26677	0.13636
2919.98101	0.13582
2918.69524	0.13500
2917.40947	0.13384
2916.12370	0.13239
2914.83793	0.13077
2913.55216	0.12912
2912.26639	0.12754
2910.98062	0.12612
2909.69486	0.12487
2908.40909	0.12363
2907.12332	0.12224
2905.83755	0.12071
2904.55178	0.11919
2903.26601	0.11789
2901.98024	0.11680
2900.69447	0.11576
2899.40870	0.11459
2898.12294	0.11326
2896.83717	0.11189
2895.55140	0.11064
2894.26563	0.10947
2892.97986	0.10825
2891.69409	0.10692
2890.40832	0.10562
2889.12255	0.10453
2887.83678	0.10363
2886.55102	0.10276
2885.26525	0.10182
2883.97948	0.10087
2882.69371	0.10006
2881.40794	0.09950
2880.12217	0.09935
2878.83640	0.09972
2877.55063	0.10063
2876.26487	0.10185
2874.97910	0.10302
2873.69333	0.10396
2872.40756	0.10474
2871.12179	0.10552
2869.83602	0.10631
2868.55025	0.10699
2867.26448	0.10742
2865.97871	0.10763
2864.69295	0.10777
2863.40718	0.10802
2862.12141	0.10838
2860.83564	0.10877
2859.54987	0.10913
2858.26410	0.10942
2856.97833	0.10962
2855.69256	0.10972
2854.40680	0.10969
2853.12103	0.10946
2851.83526	0.10893
2850.54949	0.10802
2849.26372	0.10670
2847.97795	0.10510
2846.69218	0.10341
2845.40641	0.10181
2844.12064	0.10025
2842.83488	0.09864
2841.54911	0.09697
2840.26334	0.09530
2838.97757	0.09362
2837.69180	0.09183
2836.40603	0.08990
2835.12026	0.08800
2833.83449	0.08629
2832.54873	0.08480
2831.26296	0.08342
2829.97719	0.08214
2828.69142	0.08105
2827.40565	0.08017
2826.11988	0.07939
2824.83411	0.07859
2823.54834	0.07785
2822.26257	0.07733
2820.97681	0.07701
2819.69104	0.07664
2818.40527	0.07601
2817.11950	0.07519
2815.83373	0.07444
2814.54796	0.07396
2813.26219	0.07369
2811.97642	0.07344
2810.69066	0.07304
2809.40489	0.07254
2808.11912	0.07207
2806.83335	0.07170
2805.54758	0.07143
2804.26181	0.07120
2802.97604	0.07099
2801.69027	0.07080
2800.40450	0.07060
2799.11874	0.07039
2797.83297	0.07017
2796.54720	0.06991
2795.26143	0.06965
2793.97566	0.06940
2792.68989	0.06914
2791.40412	0.06888
2790.11835	0.06867
2788.83259	0.06855
2787.54682	0.06851
2786.26105	0.06847
2784.97528	0.06832
2783.68951	0.06803
2782.40374	0.06767
2781.11797	0.06738
2779.83220	0.06719
2778.54643	0.06707
2777.26067	0.06694
2775.97490	0.06675
2774.68913	0.06651
2773.40336	0.06631
2772.11759	0.06619
2770.83182	0.06610
2769.54605	0.06590
2768.26028	0.06555
2766.97452	0.06517
2765.68875	0.06499
2764.40298	0.06510
2763.11721	0.06536
2761.83144	0.06543
2760.54567	0.06515
2759.25990	0.06467
2757.97413	0.06430
2756.68836	0.06419
2755.40260	0.06424
2754.11683	0.06424
2752.83106	0.06408
2751.54529	0.06383
2750.25952	0.06363
2748.97375	0.06362
2747.68798	0.06381
2746.40221	0.06402
2745.11645	0.06403
2743.83068	0.06377
2742.54491	0.06336
2741.25914	0.06300
2739.97337	0.06281
2738.68760	0.06283
2737.40183	0.06297
2736.11606	0.06309
2734.83029	0.06308
2733.54453	0.06300
2732.25876	0.06296
2730.97299	0.06299
2729.68722	0.06301
2728.40145	0.06293
2727.11568	0.06276
2725.82991	0.06253
2724.54414	0.06220
2723.25838	0.06183
2721.97261	0.06159
2720.68684	0.06163
2719.40107	0.06190
2718.11530	0.06210
2716.82953	0.06209
2715.54376	0.06195
2714.25799	0.06190
2712.97222	0.06191
2711.68646	0.06183
2710.40069	0.06154
2709.11492	0.06114
2707.82915	0.06080
2706.54338	0.06063
2705.25761	0.06064
2703.97184	0.06071
2702.68607	0.06068
2701.40031	0.06051
2700.11454	0.06029
2698.82877	0.06011
2697.54300	0.06002
2696.25723	0.05999
2694.97146	0.05999
2693.68569	0.05993
2692.39992	0.05981
2691.11415	0.05971
2689.82839	0.05967
2688.54262	0.05968
2687.25685	0.05967
2685.97108	0.05956
2684.68531	0.05931
2683.39954	0.05898
2682.11377	0.05865
2680.82800	0.05843
2679.54224	0.05834
2678.25647	0.05833
2676.97070	0.05831
2675.68493	0.05829
2674.39916	0.05830
2673.11339	0.05837
2671.82762	0.05849
2670.54185	0.05865
2669.25608	0.05885
2667.97032	0.05899
2666.68455	0.05896
2665.39878	0.05873
2664.11301	0.05848
2662.82724	0.05835
2661.54147	0.05836
2660.25570	0.05837
2658.96993	0.05830
2657.68417	0.05817
2656.39840	0.05801
2655.11263	0.05782
2653.82686	0.05757
2652.54109	0.05723
2651.25532	0.05684
2649.96955	0.05650
2648.68378	0.05626
2647.39801	0.05610
2646.11225	0.05594
2644.82648	0.05568
2643.54071	0.05530
2642.25494	0.05494
2640.96917	0.05477
2639.68340	0.05481
2638.39763	0.05488
2637.11186	0.05474
2635.82609	0.05434
2634.54033	0.05386
2633.25456	0.05349
2631.96879	0.05331
2630.68302	0.05323
2629.39725	0.05313
2628.11148	0.05291
2626.82571	0.05256
2625.53994	0.05214
2624.25418	0.05172
2622.96841	0.05132
2621.68264	0.05093
2620.39687	0.05062
2619.11110	0.05045
2617.82533	0.05036
2616.53956	0.05025
2615.25379	0.05018
2613.96802	0.05029
2612.68226	0.05054
2611.39649	0.05067
2610.11072	0.05044
2608.82495	0.04989
2607.53918	0.04923
2606.25341	0.04866
2604.96764	0.04830
2603.68187	0.04810
2602.39611	0.04794
2601.11034	0.04766
2599.82457	0.04732
2598.53880	0.04711
2597.25303	0.04715
2595.96726	0.04730
2594.68149	0.04727
2593.39572	0.04702
2592.10995	0.04674
2590.82419	0.04666
2589.53842	0.04677
2588.25265	0.04691
2586.96688	0.04696
2585.68111	0.04686
2584.39534	0.04664
2583.10957	0.04640
2581.82380	0.04626
2580.53804	0.04623
2579.25227	0.04619
2577.96650	0.04594
2576.68073	0.04543
2575.39496	0.04488
2574.10919	0.04457
2572.82342	0.04458
2571.53765	0.04475
2570.25188	0.04488
2568.96612	0.04495
2567.68035	0.04503
2566.39458	0.04515
2565.10881	0.04528
2563.82304	0.04538
2562.53727	0.04549
2561.25150	0.04562
2559.96573	0.04564
2558.67997	0.04539
2557.39420	0.04490
2556.10843	0.04443
2554.82266	0.04422
2553.53689	0.04431
2552.25112	0.04447
2550.96535	0.04445
2549.67958	0.04414
2548.39381	0.04360
2547.10805	0.04309
2545.82228	0.04284
2544.53651	0.04287
2543.25074	0.04295
2541.96497	0.04286
2540.67920	0.04255
2539.39343	0.04222
2538.10766	0.04204
2536.82190	0.04206
2535.53613	0.04217
2534.25036	0.04226
2532.96459	0.04232
2531.67882	0.04235
2530.39305	0.04234
2529.10728	0.04223
2527.82151	0.04204
2526.53574	0.04185
2525.24998	0.04179
2523.96421	0.04192
2522.67844	0.04217
2521.39267	0.04235
2520.10690	0.04230
2518.82113	0.04206
2517.53536	0.04183
2516.24959	0.04174
2514.96383	0.04174
2513.67806	0.04165
2512.39229	0.04144
2511.10652	0.04131
2509.82075	0.04140
2508.53498	0.04156
2507.24921	0.04154
2505.96344	0.04136
2504.67767	0.04129
2503.39191	0.04150
2502.10614	0.04181
2500.82037	0.04184
2499.53460	0.04149
2498.24883	0.04100
2496.96306	0.04067
2495.67729	0.04057
2494.39152	0.04064
2493.10576	0.04081
2491.81999	0.04099
2490.53422	0.04107
2489.24845	0.04104
2487.96268	0.04106
2486.67691	0.04121
2485.39114	0.04130
2484.10537	0.04114
2482.81960	0.04073
2481.53384	0.04029
2480.24807	0.04004
2478.96230	0.04004
2477.67653	0.04017
2476.39076	0.04021
2475.10499	0.04007
2473.81922	0.03988
2472.53345	0.03987
2471.24769	0.04014
2469.96192	0.04053
2468.67615	0.04077
2467.39038	0.04077
2466.10461	0.04068
2464.81884	0.04068
2463.53307	0.04067
2462.24730	0.04050
2460.96153	0.04027
2459.67577	0.04023
2458.39000	0.04046
2457.10423	0.04073
2455.81846	0.04080
2454.53269	0.04065
2453.24692	0.04049
2451.96115	0.04052
2450.67538	0.04072
2449.38962	0.04086
2448.10385	0.04071
2446.81808	0.04027
2445.53231	0.03977
2444.24654	0.03944
2442.96077	0.03937
2441.67500	0.03949
2440.38923	0.03967
2439.10346	0.03980
2437.81770	0.03975
2436.53193	0.03949
2435.24616	0.03912
2433.96039	0.03891
2432.67462	0.03897
2431.38885	0.03919
2430.10308	0.03934
2428.81731	0.03931
2427.53155	0.03922
2426.24578	0.03916
2424.96001	0.03911
2423.67424	0.03902
2422.38847	0.03893
2421.10270	0.03895
2419.81693	0.03913
2418.53116	0.03934
2417.24539	0.03943
2415.95963	0.03938
2414.67386	0.03932
2413.38809	0.03939
2412.10232	0.03961
2410.81655	0.03991
2409.53078	0.04020
2408.24501	0.04044
2406.95924	0.04055
2405.67347	0.04043
2404.38771	0.04000
2403.10194	0.03945
2401.81617	0.03908
2400.53040	0.03910
2399.24463	0.04035
2397.95886	0.04116
2396.67309	0.04108
2395.38732	0.04049
2394.10156	0.03974
2392.81579	0.03899
2391.53002	0.03830
2390.24425	0.03776
2388.95848	0.03748
2387.67271	0.03750
2386.38694	0.03773
2385.10117	0.03789
2383.81540	0.03779
2382.52964	0.03740
2381.24387	0.03692
2379.95810	0.03635
2378.67233	0.03578
2377.38656	0.03531
2376.10079	0.03449
2374.81502	0.03340
2373.52925	0.03260
2372.24349	0.03198
2370.95772	0.03178
2369.67195	0.03089
2368.38618	0.02948
2367.10041	0.02876
2365.81464	0.02831
2364.52887	0.02654
2363.24310	0.02446
2361.95733	0.02376
2360.67157	0.02432
2359.38580	0.02455
2358.10003	0.02508
2356.81426	0.02590
2355.52849	0.02602
2354.24272	0.02600
2352.95695	0.02637
2351.67118	0.02830
2350.38542	0.03254
2349.09965	0.03507
2347.81388	0.03216
2346.52811	0.02761
2345.24234	0.02631
2343.95657	0.02803
2342.67080	0.02963
2341.38503	0.03063
2340.09926	0.03172
2338.81350	0.03246
2337.52773	0.03281
2336.24196	0.03183
2334.95619	0.03066
2333.67042	0.03080
2332.38465	0.03120
2331.09888	0.03185
2329.81311	0.03287
2328.52735	0.03288
2327.24158	0.03273
2325.95581	0.03315
2324.67004	0.03356
2323.38427	0.03438
2322.09850	0.03550
2320.81273	0.03572
2319.52696	0.03574
2318.24119	0.03601
2316.95543	0.03601
2315.66966	0.03593
2314.38389	0.03594
2313.09812	0.03622
2311.81235	0.03659
2310.52658	0.03671
2309.24081	0.03685
2307.95504	0.03695
2306.66928	0.03666
2305.38351	0.03633
2304.09774	0.03594
2302.81197	0.03554
2301.52620	0.03531
2300.24043	0.03523
2298.95466	0.03518
2297.66889	0.03493
2296.38312	0.03454
2295.09736	0.03413
2293.81159	0.03389
2292.52582	0.03389
2291.24005	0.03395
2289.95428	0.03399
2288.66851	0.03391
2287.38274	0.03375
2286.09697	0.03364
2284.81121	0.03372
2283.52544	0.03398
2282.23967	0.03425
2280.95390	0.03434
2279.66813	0.03405
2278.38236	0.03347
2277.09659	0.03278
2275.81082	0.03219
2274.52505	0.03180
2273.23929	0.03149
2271.95352	0.03120
2270.66775	0.03091
2269.38198	0.03064
2268.09621	0.03037
2266.81044	0.03007
2265.52467	0.02969
2264.23890	0.02927
2262.95314	0.02894
2261.66737	0.02872
2260.38160	0.02866
2259.09583	0.02877
2257.81006	0.02893
2256.52429	0.02894
2255.23852	0.02857
2253.95275	0.02786
2252.66698	0.02714
2251.38122	0.02678
2250.09545	0.02709
2248.80968	0.02780
2247.52391	0.02769
2246.23814	0.02717
2244.95237	0.02659
2243.66660	0.02619
2242.38083	0.02598
2241.09507	0.02588
2239.80930	0.02583
2238.52353	0.02582
2237.23776	0.02587
2235.95199	0.02596
2234.66622	0.02594
2233.38045	0.02563
2232.09468	0.02514
2230.80891	0.02485
2229.52315	0.02500
2228.23738	0.02542
2226.95161	0.02576
2225.66584	0.02585
2224.38007	0.02560
2223.09430	0.02483
2221.80853	0.02348
2220.52276	0.02190
2219.23700	0.02087
2217.95123	0.02094
2216.66546	0.02189
2215.37969	0.02283
2214.09392	0.02292
2212.80815	0.02207
2211.52238	0.02093
2210.23661	0.02034
2208.95084	0.02071
2207.66508	0.02182
2206.37931	0.02302
2205.09354	0.02361
2203.80777	0.02325
2202.52200	0.02216
2201.23623	0.02101
2199.95046	0.02036
2198.66469	0.02024
2197.37893	0.02020
2196.09316	0.01997
2194.80739	0.01972
2193.52162	0.01974
2192.23585	0.01984
2190.95008	0.01951
2189.66431	0.01860
2188.37854	0.01756
2187.09277	0.01679
2185.80701	0.01607
2184.52124	0.01497
2183.23547	0.01360
2181.94970	0.01277
2180.66393	0.01296
2179.37816	0.01370
2178.09239	0.01428
2176.80662	0.01448
2175.52085	0.01446
2174.23509	0.01418
2172.94932	0.01353
2171.66355	0.01290
2170.37778	0.01294
2169.09201	0.01374
2167.80624	0.01462
2166.52047	0.01490
2165.23470	0.01449
2163.94894	0.01367
2162.66317	0.01252
2161.37740	0.01109
2160.09163	0.00974
2158.80586	0.00906
2157.52009	0.00920
2156.23432	0.00979
2154.94855	0.01043
2153.66278	0.01101
2152.37702	0.01167
2151.09125	0.01259
2149.80548	0.01386
2148.51971	0.01523
2147.23394	0.01623
2145.94817	0.01655
2144.66240	0.01642
2143.37663	0.01644
2142.09087	0.01714
2140.80510	0.01857
2139.51933	0.02024
2138.23356	0.02135
2136.94779	0.02138
2135.66202	0.02053
2134.37625	0.01954
2133.09048	0.01905
2131.80471	0.01923
2130.51895	0.01983
2129.23318	0.02046
2127.94741	0.02085
2126.66164	0.02086
2125.37587	0.02061
2124.09010	0.02032
2122.80433	0.02028
2121.51856	0.02078
2120.23280	0.02188
2118.94703	0.02325
2117.66126	0.02430
2116.37549	0.02469
2115.08972	0.02458
2113.80395	0.02433
2112.51818	0.02410
2111.23241	0.02379
2109.94664	0.02326
2108.66088	0.02257
2107.37511	0.02196
2106.08934	0.02172
2104.80357	0.02192
2103.51780	0.02234
2102.23203	0.02274
2100.94626	0.02303
2099.66049	0.02335
2098.37473	0.02312
2097.08896	0.02236
2095.80319	0.02155
2094.51742	0.02117
2093.23165	0.02137
2091.94588	0.02188
2090.66011	0.02235
2089.37434	0.02266
2088.08857	0.02287
2086.80281	0.02296
2085.51704	0.02278
2084.23127	0.02223
2082.94550	0.02153
2081.65973	0.02105
2080.37396	0.02095
2079.08819	0.02106
2077.80242	0.02110
2076.51666	0.02089
2075.23089	0.02054
2073.94512	0.02018
2072.65935	0.01988
2071.37358	0.01964
2070.08781	0.01946
2068.80204	0.01940
2067.51627	0.01947
2066.23050	0.01952
2064.94474	0.01935
2063.65897	0.01896
2062.37320	0.01847
2061.08743	0.01804
2059.80166	0.01773
2058.51589	0.01749
2057.23012	0.01717
2055.94435	0.01660
2054.65859	0.01578
2053.37282	0.01507
2052.08705	0.01488
2050.80128	0.01527
2049.51551	0.01586
2048.22974	0.01607
2046.94397	0.01555
2045.65820	0.01438
2044.37243	0.01301
2043.08667	0.01194
2041.80090	0.01145
2040.51513	0.01151
2039.22936	0.01189
2037.94359	0.01238
2036.65782	0.01288
2035.37205	0.01340
2034.08628	0.01394
2032.80052	0.01430
2031.51475	0.01410
2030.22898	0.01311
2028.94321	0.01156
2027.65744	0.01006
2026.37167	0.00912
2025.08590	0.00890
2023.80013	0.00920
2022.51436	0.00976
2021.22860	0.01043
2019.94283	0.01112
2018.65706	0.01168
2017.37129	0.01190
2016.08552	0.01171
2014.79975	0.01137
2013.51398	0.01132
2012.22821	0.01188
2010.94245	0.01283
2009.65668	0.01359
2008.37091	0.01370
2007.08514	0.01334
2005.79937	0.01298
2004.51360	0.01290
2003.22783	0.01300
2001.94206	0.01309
2000.65629	0.01322
1999.37053	0.01352
1998.08476	0.01404
1996.79899	0.01462
1995.51322	0.01505
1994.22745	0.01514
1992.94168	0.01489
1991.65591	0.01447
1990.37014	0.01416
1989.08438	0.01414
1987.79861	0.01429
1986.51284	0.01438
1985.22707	0.01427
1983.94130	0.01405
1982.65553	0.01394
1981.36976	0.01411
1980.08399	0.01447
1978.79822	0.01479
1977.51246	0.01490
1976.22669	0.01490
1974.94092	0.01506
1973.65515	0.01550
1972.36938	0.01609
1971.08361	0.01658
1969.79784	0.01676
1968.51207	0.01652
1967.22631	0.01582
1965.94054	0.01479
1964.65477	0.01376
1963.36900	0.01318
1962.08323	0.01344
1960.79746	0.01452
1959.51169	0.01595
1958.22592	0.01705
1956.94015	0.01742
1955.65439	0.01725
1954.36862	0.01714
1953.08285	0.01754
1951.79708	0.01835
1950.51131	0.01917
1949.22554	0.01961
1947.93977	0.01959
1946.65400	0.01923
1945.36823	0.01882
1944.08247	0.01866
1942.79670	0.01888
1941.51093	0.01937
1940.22516	0.01996
1938.93939	0.02051
1937.65362	0.02095
1936.36785	0.02123
1935.08208	0.02139
1933.79632	0.02148
1932.51055	0.02153
1931.22478	0.02152
1929.93901	0.02141
1928.65324	0.02117
1927.36747	0.02079
1926.08170	0.02036
1924.79593	0.01998
1923.51016	0.01972
1922.22440	0.01966
1920.93863	0.01990
1919.65286	0.02039
1918.36709	0.02085
1917.08132	0.02108
1915.79555	0.02117
1914.50978	0.02140
1913.22401	0.02184
1911.93825	0.02231
1910.65248	0.02255
1909.36671	0.02253
1908.08094	0.02243
1906.79517	0.02252
1905.50940	0.02286
1904.22363	0.02323
1902.93786	0.02341
1901.65209	0.02335
1900.36633	0.02326
1899.08056	0.02334
1897.79479	0.02360
1896.50902	0.02388
1895.22325	0.02394
1893.93748	0.02378
1892.65171	0.02358
1891.36594	0.02353
1890.08018	0.02364
1888.79441	0.02383
1887.50864	0.02403
1886.22287	0.02425
1884.93710	0.02442
1883.65133	0.02442
1882.36556	0.02420
1881.07979	0.02383
1879.79402	0.02348
1878.50826	0.02328
1877.22249	0.02326
1875.93672	0.02344
1874.65095	0.02378
1873.36518	0.02427
1872.07941	0.02484
1870.79364	0.02532
1869.50787	0.02550
1868.22211	0.02525
1866.93634	0.02469
1865.65057	0.02410
1864.36480	0.02372
1863.07903	0.02359
1861.79326	0.02367
1860.50749	0.02384
1859.22172	0.02401
1857.93595	0.02411
1856.65019	0.02414
1855.36442	0.02413
1854.07865	0.02412
1852.79288	0.02410
1851.50711	0.02407
1850.22134	0.02402
1848.93557	0.02398
1847.64980	0.02403
1846.36404	0.02424
1845.07827	0.02453
1843.79250	0.02467
1842.50673	0.02456
1841.22096	0.02433
1839.93519	0.02415
1838.64942	0.02404
1837.36365	0.02394
1836.07788	0.02387
1834.79212	0.02385
1833.50635	0.02391
1832.22058	0.02408
1830.93481	0.02432
1829.64904	0.02447
1828.36327	0.02448
1827.07750	0.02445
1825.79173	0.02445
1824.50597	0.02444
1823.22020	0.02442
1821.93443	0.02447
1820.64866	0.02457
1819.36289	0.02458
1818.07712	0.02446
1816.79135	0.02432
1815.50558	0.02431
1814.21981	0.02449
1812.93405	0.02479
1811.64828	0.02504
1810.36251	0.02513
1809.07674	0.02510
1807.79097	0.02504
1806.50520	0.02499
1805.21943	0.02498
1803.93366	0.02503
1802.64790	0.02517
1801.36213	0.02531
1800.07636	0.02535
1798.79059	0.02528
1797.50482	0.02519
1796.21905	0.02520
1794.93328	0.02539
1793.64751	0.02572
1792.36174	0.02600
1791.07598	0.02606
1789.79021	0.02594
1788.50444	0.02577
1787.21867	0.02563
1785.93290	0.02557
1784.64713	0.02558
1783.36136	0.02569
1782.07559	0.02592
1780.78983	0.02616
1779.50406	0.02631
1778.21829	0.02640
1776.93252	0.02656
1775.64675	0.02688
1774.36098	0.02728
1773.07521	0.02755
1771.78944	0.02751
1770.50367	0.02735
1769.21791	0.02737
1767.93214	0.02752
1766.64637	0.02762
1765.36060	0.02769
1764.07483	0.02787
1762.78906	0.02813
1761.50329	0.02826
1760.21752	0.02822
1758.93176	0.02816
1757.64599	0.02817
1756.36022	0.02815
1755.07445	0.02815
1753.78868	0.02833
1752.50291	0.02871
1751.21714	0.02901
1749.93137	0.02902
1748.64560	0.02888
1747.35984	0.02885
1746.07407	0.02900
1744.78830	0.02923
1743.50253	0.02943
1742.21676	0.02962
1740.93099	0.02979
1739.64522	0.02987
1738.35945	0.02989
1737.07369	0.03018
1735.78792	0.03093
1734.50215	0.03171
1733.21638	0.03198
1731.93061	0.03177
1730.64484	0.03158
1729.35907	0.03162
1728.07330	0.03179
1726.78753	0.03200
1725.50177	0.03231
1724.21600	0.03267
1722.93023	0.03305
1721.64446	0.03350
1720.35869	0.03424
1719.07292	0.03524
1717.78715	0.03615
1716.50138	0.03669
1715.21561	0.03695
1713.92985	0.03718
1712.64408	0.03747
1711.35831	0.03781
1710.07254	0.03823
1708.78677	0.03879
1707.50100	0.03950
1706.21523	0.04025
1704.92946	0.04087
1703.64370	0.04149
1702.35793	0.04235
1701.07216	0.04324
1699.78639	0.04372
1698.50062	0.04385
1697.21485	0.04408
1695.92908	0.04431
1694.64331	0.04415
1693.35754	0.04374
1692.07178	0.04360
1690.78601	0.04379
1689.50024	0.04406
1688.21447	0.04439
1686.92870	0.04503
1685.64293	0.04588
1684.35716	0.04635
1683.07139	0.04611
1681.78563	0.04557
1680.49986	0.04526
1679.21409	0.04535
1677.92832	0.04579
1676.64255	0.04643
1675.35678	0.04699
1674.07101	0.04728
1672.78524	0.04745
1671.49947	0.04775
1670.21371	0.04811
1668.92794	0.04831
1667.64217	0.04832
1666.35640	0.04839
1665.07063	0.04873
1663.78486	0.04925
1662.49909	0.04967
1661.21332	0.04990
1659.92756	0.05001
1658.64179	0.05014
1657.35602	0.05043
1656.07025	0.05111
1654.78448	0.05217
1653.49871	0.05299
1652.21294	0.05290
1650.92717	0.05217
1649.64140	0.05174
1648.35564	0.05200
1647.06987	0.05247
1645.78410	0.05257
1644.49833	0.05228
1643.21256	0.05199
1641.92679	0.05194
1640.64102	0.05209
1639.35525	0.05240
1638.06949	0.05289
1636.78372	0.05346
1635.49795	0.05371
1634.21218	0.05350
1632.92641	0.05312
1631.64064	0.05301
1630.35487	0.05323
1629.06910	0.05356
1627.78333	0.05383
1626.49757	0.05408
1625.21180	0.05439
1623.92603	0.05467
1622.64026	0.05473
1621.35449	0.05457
1620.06872	0.05449
1618.78295	0.05475
1617.49718	0.05516
1616.21142	0.05529
1614.92565	0.05506
1613.63988	0.05481
1612.35411	0.05481
1611.06834	0.05499
1609.78257	0.05522
1608.49680	0.05544
1607.21103	0.05563
1605.92526	0.05576
1604.63950	0.05585
1603.35373	0.05589
1602.06796	0.05594
1600.78219	0.05602
1599.49642	0.05613
1598.21065	0.05622
1596.92488	0.05627
1595.63911	0.05627
1594.35335	0.05625
1593.06758	0.05623
1591.78181	0.05622
1590.49604	0.05621
1589.21027	0.05622
1587.92450	0.05628
1586.63873	0.05638
1585.35296	0.05651
1584.06719	0.05664
1582.78143	0.05675
1581.49566	0.05683
1580.20989	0.05693
1578.92412	0.05720
1577.63835	0.05764
1576.35258	0.05793
1575.06681	0.05778
1573.78104	0.05743
1572.49528	0.05739
1571.20951	0.05773
1569.92374	0.05811
1568.63797	0.05822
1567.35220	0.05811
1566.06643	0.05799
1564.78066	0.05790
1563.49489	0.05795
1562.20912	0.05838
1560.92336	0.05928
1559.63759	0.06013
1558.35182	0.06030
1557.06605	0.05984
1555.78028	0.05932
1554.49451	0.05904
1553.20874	0.05888
1551.92297	0.05874
1550.63721	0.05865
1549.35144	0.05855
1548.06567	0.05844
1546.77990	0.05842
1545.49413	0.05849
1544.20836	0.05859
1542.92259	0.05872
1541.63682	0.05889
1540.35105	0.05887
1539.06529	0.05837
1537.77952	0.05749
1536.49375	0.05677
1535.20798	0.05651
1533.92221	0.05647
1532.63644	0.05630
1531.35067	0.05600
1530.06490	0.05583
1528.77914	0.05590
1527.49337	0.05611
1526.20760	0.05632
1524.92183	0.05655
1523.63606	0.05697
1522.35029	0.05759
1521.06452	0.05813
1519.77875	0.05843
1518.49298	0.05872
1517.20722	0.05914
1515.92145	0.05963
1514.63568	0.06011
1513.34991	0.06064
1512.06414	0.06127
1510.77837	0.06206
1509.49260	0.06316
1508.20683	0.06453
1506.92107	0.06577
1505.63530	0.06640
1504.34953	0.06653
1503.06376	0.06667
1501.77799	0.06714
1500.49222	0.06786
1499.20645	0.06867
1497.92068	0.06943
1496.63491	0.07002
1495.34915	0.07034
1494.06338	0.07054
1492.77761	0.07089
1491.49184	0.07144
1490.20607	0.07203
1488.92030	0.07251
1487.63453	0.07292
1486.34876	0.07336
1485.06299	0.07394
1483.77723	0.07470
1482.49146	0.07559
1481.20569	0.07652
1479.91992	0.07743
1478.63415	0.07838
1477.34838	0.07940
1476.06261	0.08052
1474.77684	0.08177
1473.49108	0.08309
1472.20531	0.08430
1470.91954	0.08535
1469.63377	0.08639
1468.34800	0.08755
1467.06223	0.08881
1465.77646	0.08997
1464.49069	0.09088
1463.20492	0.09156
1461.91916	0.09221
1460.63339	0.09307
1459.34762	0.09424
1458.06185	0.09550
1456.77608	0.09637
1455.49031	0.09664
1454.20454	0.09661
1452.91877	0.09663
1451.63301	0.09682
1450.34724	0.09709
1449.06147	0.09735
1447.77570	0.09746
1446.48993	0.09735
1445.20416	0.09707
1443.91839	0.09675
1442.63262	0.09641
1441.34685	0.09607
1440.06109	0.09580
1438.77532	0.09573
1437.48955	0.09575
1436.20378	0.09560
1434.91801	0.09525
1433.63224	0.09496
1432.34647	0.09496
1431.06070	0.09523
1429.77494	0.09565
1428.48917	0.09615
1427.20340	0.09678
1425.91763	0.09755
1424.63186	0.09837
1423.34609	0.09920
1422.06032	0.10011
1420.77455	0.10116
1419.48878	0.10213
1418.20302	0.10277
1416.91725	0.10310
1415.63148	0.10330
1414.34571	0.10348
1413.05994	0.10358
1411.77417	0.10357
1410.48840	0.10341
1409.20263	0.10311
1407.91687	0.10267
1406.63110	0.10212
1405.34533	0.10144
1404.05956	0.10059
1402.77379	0.09961
1401.48802	0.09857
1400.20225	0.09748
1398.91648	0.09630
1397.63071	0.09504
1396.34495	0.09380
1395.05918	0.09255
1393.77341	0.09118
1392.48764	0.08969
1391.20187	0.08826
1389.91610	0.08706
1388.63033	0.08610
1387.34456	0.08526
1386.05880	0.08442
1384.77303	0.08362
1383.48726	0.08295
1382.20149	0.08241
1380.91572	0.08193
1379.62995	0.08141
1378.34418	0.08077
1377.05841	0.07994
1375.77264	0.07882
1374.48688	0.07737
1373.20111	0.07560
1371.91534	0.07370
1370.62957	0.07191
1369.34380	0.07034
1368.05803	0.06895
1366.77226	0.06764
1365.48649	0.06634
1364.20073	0.06500
1362.91496	0.06356
1361.62919	0.06204
1360.34342	0.06056
1359.05765	0.05925
1357.77188	0.05814
1356.48611	0.05719
1355.20034	0.05631
1353.91457	0.05544
1352.62881	0.05460
1351.34304	0.05382
1350.05727	0.05311
1348.77150	0.05242
1347.48573	0.05173
1346.19996	0.05105
1344.91419	0.05044
1343.62842	0.04993
1342.34266	0.04950
1341.05689	0.04911
1339.77112	0.04872
1338.48535	0.04829
1337.19958	0.04787
1335.91381	0.04748
1334.62804	0.04712
1333.34227	0.04677
1332.05650	0.04643
1330.77074	0.04610
1329.48497	0.04577
1328.19920	0.04546
1326.91343	0.04519
1325.62766	0.04493
1324.34189	0.04465
1323.05612	0.04435
1321.77035	0.04407
1320.48459	0.04385
1319.19882	0.04366
1317.91305	0.04347
1316.62728	0.04326
1315.34151	0.04303
1314.05574	0.04281
1312.76997	0.04261
1311.48420	0.04242
1310.19843	0.04227
1308.91267	0.04215
1307.62690	0.04203
1306.34113	0.04189
1305.05536	0.04172
1303.76959	0.04158
1302.48382	0.04147
1301.19805	0.04137
1299.91228	0.04124
1298.62652	0.04107
1297.34075	0.04088
1296.05498	0.04068
1294.76921	0.04047
1293.48344	0.04027
1292.19767	0.04006
1290.91190	0.03988
1289.62613	0.03974
1288.34036	0.03964
1287.05460	0.03955
1285.76883	0.03943
1284.48306	0.03927
1283.19729	0.03907
1281.91152	0.03888
1280.62575	0.03868
1279.33998	0.03847
1278.05421	0.03827
1276.76845	0.03807
1275.48268	0.03789
1274.19691	0.03771
1272.91114	0.03755
1271.62537	0.03744
1270.33960	0.03737
1269.05383	0.03731
1267.76806	0.03723
1266.48229	0.03710
1265.19653	0.03695
1263.91076	0.03682
1262.62499	0.03673
1261.33922	0.03665
1260.05345	0.03655
1258.76768	0.03641
1257.48191	0.03625
1256.19614	0.03610
1254.91037	0.03600
1253.62461	0.03596
1252.33884	0.03597
1251.05307	0.03601
1249.76730	0.03608
1248.48153	0.03612
1247.19576	0.03609
1245.90999	0.03596
1244.62422	0.03575
1243.33846	0.03555
1242.05269	0.03543
1240.76692	0.03539
1239.48115	0.03536
1238.19538	0.03532
1236.90961	0.03528
1235.62384	0.03525
1234.33807	0.03524
1233.05230	0.03523
1231.76654	0.03522
1230.48077	0.03518
1229.19500	0.03513
1227.90923	0.03510
1226.62346	0.03510
1225.33769	0.03513
1224.05192	0.03515
1222.76615	0.03514
1221.48039	0.03508
1220.19462	0.03501
1218.90885	0.03496
1217.62308	0.03494
1216.33731	0.03497
1215.05154	0.03502
1213.76577	0.03508
1212.48000	0.03515
1211.19423	0.03524
1209.90847	0.03533
1208.62270	0.03543
1207.33693	0.03550
1206.05116	0.03555
1204.76539	0.03556
1203.47962	0.03556
1202.19385	0.03556
1200.90808	0.03558
1199.62232	0.03563
1198.33655	0.03578
1197.05078	0.03596
1195.76501	0.03612
1194.47924	0.03621
1193.19347	0.03623
1191.90770	0.03622
1190.62193	0.03622
1189.33616	0.03627
1188.05040	0.03641
1186.76463	0.03661
1185.47886	0.03686
1184.19309	0.03709
1182.90732	0.03726
1181.62155	0.03738
1180.33578	0.03748
1179.05001	0.03759
1177.76425	0.03776
1176.47848	0.03801
1175.19271	0.03833
1173.90694	0.03868
1172.62117	0.03901
1171.33540	0.03926
1170.04963	0.03947
1168.76386	0.03967
1167.47809	0.03993
1166.19233	0.04024
1164.90656	0.04056
1163.62079	0.04079
1162.33502	0.04091
1161.04925	0.04096
1159.76348	0.04106
1158.47771	0.04127
1157.19194	0.04159
1155.90618	0.04192
1154.62041	0.04219
1153.33464	0.04243
1152.04887	0.04272
1150.76310	0.04310
1149.47733	0.04354
1148.19156	0.04403
1146.90579	0.04454
1145.62002	0.04504
1144.33426	0.04553
1143.04849	0.04604
1141.76272	0.04664
1140.47695	0.04736
1139.19118	0.04823
1137.90541	0.04924
1136.61964	0.05035
1135.33387	0.05153
1134.04811	0.05275
1132.76234	0.05404
1131.47657	0.05547
1130.19080	0.05712
1128.90503	0.05902
1127.61926	0.06115
1126.33349	0.06348
1125.04772	0.06600
1123.76195	0.06871
1122.47619	0.07159
1121.19042	0.07459
1119.90465	0.07762
1118.61888	0.08059
1117.33311	0.08349
1116.04734	0.08635
1114.76157	0.08919
1113.47580	0.09193
1112.19004	0.09448
1110.90427	0.09684
1109.61850	0.09907
1108.33273	0.10123
1107.04696	0.10333
1105.76119	0.10534
1104.47542	0.10720
1103.18965	0.10890
1101.90388	0.11046
1100.61812	0.11193
1099.33235	0.11333
1098.04658	0.11464
1096.76081	0.11585
1095.47504	0.11695
1094.18927	0.11796
1092.90350	0.11891
1091.61773	0.11981
1090.33197	0.12068
1089.04620	0.12153
1087.76043	0.12235
1086.47466	0.12318
1085.18889	0.12405
1083.90312	0.12496
1082.61735	0.12588
1081.33158	0.12683
1080.04581	0.12786
1078.76005	0.12899
1077.47428	0.13020
1076.18851	0.13147
1074.90274	0.13283
1073.61697	0.13430
1072.33120	0.13595
1071.04543	0.13774
1069.75966	0.13961
1068.47390	0.14144
1067.18813	0.14320
1065.90236	0.14498
1064.61659	0.14685
1063.33082	0.14889
1062.04505	0.15109
1060.75928	0.15342
1059.47351	0.15581
1058.18774	0.15819
1056.90198	0.16054
1055.61621	0.16288
1054.33044	0.16523
1053.04467	0.16761
1051.75890	0.16999
1050.47313	0.17239
1049.18736	0.17484
1047.90159	0.17742
1046.61583	0.18019
1045.33006	0.18309
1044.04429	0.18602
1042.75852	0.18886
1041.47275	0.19165
1040.18698	0.19448
1038.90121	0.19741
1037.61544	0.20045
1036.32967	0.20354
1035.04391	0.20655
1033.75814	0.20940
1032.47237	0.21202
1031.18660	0.21442
1029.90083	0.21663
1028.61506	0.21865
1027.32929	0.22048
1026.04352	0.22213
1024.75775	0.22358
1023.47199	0.22483
1022.18622	0.22590
1020.90045	0.22680
1019.61468	0.22749
1018.32891	0.22790
1017.04314	0.22798
1015.75737	0.22776
1014.47160	0.22723
1013.18584	0.22640
1011.90007	0.22527
1010.61430	0.22389
1009.32853	0.22225
1008.04276	0.22032
1006.75699	0.21805
1005.47122	0.21541
1004.18545	0.21250
1002.89968	0.20940
1001.61392	0.20615
1000.32815	0.20276
999.04238	0.19920
997.75661	0.19544
996.47084	0.19147
995.18507	0.18735
993.89930	0.18321
992.61353	0.17914
991.32777	0.17516
990.04200	0.17119
988.75623	0.16723
987.47046	0.16331
986.18469	0.15950
984.89892	0.15581
983.61315	0.15227
982.32738	0.14891
981.04161	0.14574
979.75585	0.14275
978.47008	0.13988
977.18431	0.13712
975.89854	0.13447
974.61277	0.13198
973.32700	0.12969
972.04123	0.12763
970.75546	0.12588
969.46970	0.12450
968.18393	0.12355
966.89816	0.12300
965.61239	0.12273
964.32662	0.12259
963.04085	0.12246
961.75508	0.12220
960.46931	0.12172
959.18354	0.12089
957.89778	0.11968
956.61201	0.11810
955.32624	0.11626
954.04047	0.11427
952.75470	0.11226
951.46893	0.11030
950.18316	0.10841
948.89739	0.10662
947.61163	0.10490
946.32586	0.10322
945.04009	0.10151
943.75432	0.09976
942.46855	0.09802
941.18278	0.09638
939.89701	0.09492
938.61124	0.09365
937.32547	0.09250
936.03971	0.09139
934.75394	0.09028
933.46817	0.08915
932.18240	0.08798
930.89663	0.08680
929.61086	0.08570
928.32509	0.08476
927.03932	0.08397
925.75356	0.08326
924.46779	0.08258
923.18202	0.08190
921.89625	0.08117
920.61048	0.08041
919.32471	0.07969
918.03894	0.07907
916.75317	0.07855
915.46740	0.07805
914.18164	0.07750
912.89587	0.07689
911.61010	0.07625
910.32433	0.07555
909.03856	0.07480
907.75279	0.07404
906.46702	0.07330
905.18125	0.07261
903.89549	0.07195
902.60972	0.07129
901.32395	0.07058
900.03818	0.06988
898.75241	0.06928
897.46664	0.06880
896.18087	0.06834
894.89510	0.06778
893.60933	0.06712
892.32357	0.06649
891.03780	0.06604
889.75203	0.06580
888.46626	0.06575
887.18049	0.06586
885.89472	0.06624
884.60895	0.06706
883.32318	0.06844
882.03742	0.07027
880.75165	0.07225
879.46588	0.07395
878.18011	0.07519
876.89434	0.07615
875.60857	0.07714
874.32280	0.07829
873.03703	0.07931
871.75126	0.07975
870.46550	0.07934
869.17973	0.07819
867.89396	0.07657
866.60819	0.07472
865.32242	0.07278
864.03665	0.07083
862.75088	0.06898
861.46511	0.06731
860.17935	0.06583
858.89358	0.06452
857.60781	0.06334
856.32204	0.06230
855.03627	0.06139
853.75050	0.06063
852.46473	0.05996
851.17896	0.05932
849.89319	0.05873
848.60743	0.05825
847.32166	0.05784
846.03589	0.05745
844.75012	0.05702
843.46435	0.05657
842.17858	0.05614
840.89281	0.05572
839.60704	0.05527
838.32128	0.05486
837.03551	0.05455
835.74974	0.05434
834.46397	0.05418
833.17820	0.05405
831.89243	0.05395
830.60666	0.05388
829.32089	0.05383
828.03512	0.05376
826.74936	0.05359
825.46359	0.05331
824.17782	0.05297
822.89205	0.05265
821.60628	0.05245
820.32051	0.05240
819.03474	0.05248
817.74897	0.05256
816.46321	0.05252
815.17744	0.05236
813.89167	0.05220
812.60590	0.05217
811.32013	0.05228
810.03436	0.05242
808.74859	0.05256
807.46282	0.05275
806.17705	0.05310
804.89129	0.05358
803.60552	0.05410
802.31975	0.05457
801.03398	0.05494
799.74821	0.05522
798.46244	0.05538
797.17667	0.05541
795.89090	0.05535
794.60513	0.05525
793.31937	0.05517
792.03360	0.05511
790.74783	0.05502
789.46206	0.05488
788.17629	0.05471
786.89052	0.05456
785.60475	0.05449
784.31898	0.05452
783.03322	0.05463
781.74745	0.05478
780.46168	0.05490
779.17591	0.05493
777.89014	0.05483
776.60437	0.05462
775.31860	0.05438
774.03283	0.05418
772.74706	0.05402
771.46130	0.05387
770.17553	0.05372
768.88976	0.05354
767.60399	0.05336
766.31822	0.05318
765.03245	0.05304
763.74668	0.05301
762.46091	0.05310
761.17515	0.05326
759.88938	0.05337
758.60361	0.05335
757.31784	0.05320
756.03207	0.05300
754.74630	0.05281
753.46053	0.05266
752.17476	0.05252
750.88899	0.05241
749.60323	0.05233
748.31746	0.05222
747.03169	0.05206
745.74592	0.05189
744.46015	0.05177
743.17438	0.05171
741.88861	0.05164
740.60284	0.05149
739.31708	0.05128
738.03131	0.05100
736.74554	0.05065
735.45977	0.05025
734.17400	0.04992
732.88823	0.04976
731.60246	0.04977
730.31669	0.04984
729.03092	0.04988
727.74516	0.04986
726.45939	0.04982
725.17362	0.04977
723.88785	0.04961
722.60208	0.04968
721.31631	0.04978
720.03054	0.04986
718.74477	0.04999
717.45901	0.04993
716.17324	0.04975
714.88747	0.04954
713.60170	0.04927
712.31593	0.04893
711.03016	0.04855
709.74439	0.04818
708.45862	0.04786
707.17285	0.04761
705.88709	0.04746
704.60132	0.04739
703.31555	0.04740
702.02978	0.04747
700.74401	0.04759
699.45824	0.04775
698.17247	0.04797
696.88670	0.04821
695.60094	0.04844
694.31517	0.04860
693.02940	0.04865
691.74363	0.04859
690.45786	0.04846
689.17209	0.04829
687.88632	0.04809
686.60055	0.04785
685.31478	0.04758
684.02902	0.04732
682.74325	0.04708
681.45748	0.04689
680.17171	0.04672
678.88594	0.04651
677.60017	0.04623
676.31440	0.04587
675.02863	0.04562
673.74287	0.04594
672.45710	0.04734
671.17133	0.04925
669.88556	0.04895
668.59979	0.04559
667.31402	0.04546
666.02825	0.04797
664.74248	0.04758
663.45671	0.04569
662.17095	0.04449
660.88518	0.04416
659.59941	0.04422
658.31364	0.04434
657.02787	0.04439
655.74210	0.04436
654.45633	0.04433
653.17056	0.04429
651.88480	0.04429
650.59903	0.04428
649.31326	0.04421
648.02749	0.04412
646.74172	0.04397
645.45595	0.04374
644.17018	0.04349
642.88441	0.04329
641.59864	0.04315
640.31288	0.04310
639.02711	0.04311
637.74134	0.04314
636.45557	0.04313
635.16980	0.04309
633.88403	0.04303
632.59826	0.04300
631.31249	0.04308
630.02673	0.04336
628.74096	0.04370
627.45519	0.04383
626.16942	0.04485
624.88365	0.04629
623.59788	0.04759
622.31211	0.04893
621.02634	0.05070
619.74057	0.05281
618.45481	0.05482
617.16904	0.05670
615.88327	0.05869
614.59750	0.06076
613.31173	0.06266
612.02596	0.06431
610.74019	0.06597
609.45442	0.06790
608.16866	0.07017
606.88289	0.07287
605.59712	0.07608
604.31135	0.07955
603.02558	0.08267
601.73981	0.08487
600.45404	0.08594
599.16827	0.08588
597.88250	0.08481
596.59674	0.08297
595.31097	0.08072
594.02520	0.07852
592.73943	0.07671
591.45366	0.07539
590.16789	0.07452
588.88212	0.07403
587.59635	0.07393
586.31059	0.07427
585.02482	0.07502
583.73905	0.07612
582.45328	0.07744
581.16751	0.07886
579.88174	0.08031
578.59597	0.08174
577.31020	0.08310
576.02443	0.08437
574.73867	0.08550
573.45290	0.08652
572.16713	0.08753
570.88136	0.08870
569.59559	0.09026
568.30982	0.09234
567.02405	0.09493
565.73828	0.09774
564.45251	0.10029
563.16675	0.10217
561.88098	0.10320
560.59521	0.10342
559.30944	0.10293
558.02367	0.10175
556.73790	0.09991
555.45213	0.09746
554.16636	0.09454
552.88060	0.09139
551.59483	0.08836
550.30906	0.08568
549.02329	0.08347
547.73752	0.08165
546.45175	0.08009
545.16598	0.07863
543.88021	0.07719
542.59444	0.07580
541.30868	0.07461
540.02291	0.07367
538.73714	0.07296
537.45137	0.07236
536.16560	0.07178
534.87983	0.07119
533.59406	0.07058
532.30829	0.06994
531.02253	0.06925
529.73676	0.06854
528.45099	0.06785
527.16522	0.06723
525.87945	0.06672
524.59368	0.06633
523.30791	0.06599
522.02214	0.06563
520.73637	0.06519
519.45061	0.06471
518.16484	0.06423
516.87907	0.06373
515.59330	0.06316
514.30753	0.06252
513.02176	0.06186
511.73599	0.06125
510.45022	0.06074
509.16446	0.06031
507.87869	0.05993
506.59292	0.05956
505.30715	0.05916
504.02138	0.05871
502.73561	0.05823
501.44984	0.05777
500.16407	0.05738
498.87830	0.05708
497.59254	0.05682
496.30677	0.05654
495.02100	0.05623
493.73523	0.05596
492.44946	0.05581
491.16369	0.05577
489.87792	0.05579
488.59215	0.05585
487.30639	0.05600
486.02062	0.05624
484.73485	0.05659
483.44908	0.05705
482.16331	0.05764
480.87754	0.05838
479.59177	0.05918
478.30600	0.05997
477.02023	0.06074
475.73447	0.06157
474.44870	0.06254
473.16293	0.06362
471.87716	0.06463
470.59139	0.06542
469.30562	0.06594
468.01985	0.06621
466.73408	0.06630
465.44832	0.06629
464.16255	0.06618
462.87678	0.06593
461.59101	0.06554
460.30524	0.06508
459.01947	0.06463
457.73370	0.06422
456.44793	0.06382
455.16216	0.06339
453.87640	0.06292
452.59063	0.06242
451.30486	0.06194
450.01909	0.06152
448.73332	0.06115
447.44755	0.06079
446.16178	0.06039
444.87601	0.05996
443.59025	0.05953
442.30448	0.05912
441.01871	0.05873
439.73294	0.05842
438.44717	0.05820
437.16140	0.05809
435.87563	0.05801
434.58986	0.05789
433.30409	0.05772
432.01833	0.05758
430.73256	0.05750
429.44679	0.05746
428.16102	0.05739
426.87525	0.05725
425.58948	0.05707
424.30371	0.05686
423.01794	0.05661
421.73218	0.05630
420.44641	0.05591
419.16064	0.05542
417.87487	0.05488
416.58910	0.05433
415.30333	0.05377
414.01756	0.05314
412.73179	0.05239
411.44602	0.05156
410.16026	0.05072
408.87449	0.04994
407.58872	0.04929
406.30295	0.04880
405.01718	0.04848
403.73141	0.04831
402.44564	0.04831
401.15987	0.04849
399.87411	0.04880
