3997.45528	0.02032
3996.16951	0.02072
3994.88374	0.02102
3993.59798	0.02114
3992.31221	0.02107
3991.02644	0.02091
3989.74067	0.02083
3988.45490	0.02092
3987.16913	0.02110
3985.88336	0.02112
3984.59759	0.02080
3983.31183	0.02005
3982.02606	0.01896
3980.74029	0.01780
3979.45452	0.01703
3978.16875	0.01693
3976.88298	0.01743
3975.59721	0.01816
3974.31144	0.01884
3973.02567	0.01932
3971.73991	0.01956
3970.45414	0.01962
3969.16837	0.01970
3967.88260	0.01999
3966.59683	0.02046
3965.31106	0.02089
3964.02529	0.02104
3962.73952	0.02084
3961.45376	0.02035
3960.16799	0.01986
3958.88222	0.01964
3957.59645	0.01974
3956.31068	0.01992
3955.02491	0.01996
3953.73914	0.01990
3952.45337	0.01978
3951.16760	0.01951
3949.88184	0.01896
3948.59607	0.01830
3947.31030	0.01788
3946.02453	0.01790
3944.73876	0.01823
3943.45299	0.01865
3942.16722	0.01900
3940.88145	0.01928
3939.59569	0.01949
3938.30992	0.01957
3937.02415	0.01945
3935.73838	0.01924
3934.45261	0.01924
3933.16684	0.01972
3931.88107	0.02056
3930.59530	0.02129
3929.30953	0.02141
3928.02377	0.02084
3926.73800	0.01991
3925.45223	0.01910
3924.16646	0.01863
3922.88069	0.01856
3921.59492	0.01885
3920.30915	0.01933
3919.02338	0.01966
3917.73762	0.01938
3916.45185	0.01842
3915.16608	0.01734
3913.88031	0.01686
3912.59454	0.01724
3911.30877	0.01800
3910.02300	0.01842
3908.73723	0.01833
3907.45146	0.01810
3906.16570	0.01814
3904.87993	0.01844
3903.59416	0.01862
3902.30839	0.01845
3901.02262	0.01812
3899.73685	0.01802
3898.45108	0.01824
3897.16531	0.01842
3895.87955	0.01816
3894.59378	0.01753
3893.30801	0.01709
3892.02224	0.01732
3890.73647	0.01808
3889.45070	0.01875
3888.16493	0.01887
3886.87916	0.01852
3885.59339	0.01809
3884.30763	0.01788
3883.02186	0.01797
3881.73609	0.01842
3880.45032	0.01920
3879.16455	0.01998
3877.87878	0.02024
3876.59301	0.01973
3875.30724	0.01867
3874.02148	0.01761
3872.73571	0.01705
3871.44994	0.01720
3870.16417	0.01797
3868.87840	0.01899
3867.59263	0.01984
3866.30686	0.02016
3865.02109	0.01982
3863.73532	0.01898
3862.44956	0.01806
3861.16379	0.01747
3859.87802	0.01737
3858.59225	0.01750
3857.30648	0.01755
3856.02071	0.01756
3854.73494	0.01782
3853.44917	0.01843
3852.16341	0.01909
3850.87764	0.01937
3849.59187	0.01917
3848.30610	0.01868
3847.02033	0.01806
3845.73456	0.01743
3844.44879	0.01695
3843.16302	0.01682
3841.87725	0.01708
3840.59149	0.01745
3839.30572	0.01759
3838.01995	0.01735
3836.73418	0.01693
3835.44841	0.01659
3834.16264	0.01641
3832.87687	0.01627
3831.59110	0.01612
3830.30534	0.01613
3829.01957	0.01649
3827.73380	0.01715
3826.44803	0.01776
3825.16226	0.01801
3823.87649	0.01785
3822.59072	0.01746
3821.30495	0.01710
3820.01918	0.01693
3818.73342	0.01696
3817.44765	0.01711
3816.16188	0.01731
3814.87611	0.01751
3813.59034	0.01770
3812.30457	0.01784
3811.01880	0.01784
3809.73303	0.01765
3808.44726	0.01742
3807.16150	0.01742
3805.87573	0.01785
3804.58996	0.01858
3803.30419	0.01924
3802.01842	0.01946
3800.73265	0.01912
3799.44688	0.01842
3798.16111	0.01765
3796.87535	0.01696
3795.58958	0.01640
3794.30381	0.01601
3793.01804	0.01583
3791.73227	0.01584
3790.44650	0.01592
3789.16073	0.01594
3787.87496	0.01590
3786.58919	0.01586
3785.30343	0.01588
3784.01766	0.01594
3782.73189	0.01597
3781.44612	0.01593
3780.16035	0.01580
3778.87458	0.01563
3777.58881	0.01552
3776.30304	0.01556
3775.01728	0.01573
3773.73151	0.01595
3772.44574	0.01617
3771.15997	0.01645
3769.87420	0.01676
3768.58843	0.01695
3767.30266	0.01690
3766.01689	0.01665
3764.73112	0.01642
3763.44536	0.01642
3762.15959	0.01676
3760.87382	0.01739
3759.58805	0.01803
3758.30228	0.01836
3757.01651	0.01826
3755.73074	0.01792
3754.44497	0.01763
3753.15921	0.01748
3751.87344	0.01750
3750.58767	0.01775
3749.30190	0.01826
3748.01613	0.01891
3746.73036	0.01937
3745.44459	0.01939
3744.15882	0.01903
3742.87305	0.01852
3741.58729	0.01819
3740.30152	0.01829
3739.01575	0.01878
3737.72998	0.01949
3736.44421	0.02019
3735.15844	0.02068
3733.87267	0.02098
3732.58690	0.02112
3731.30114	0.02111
3730.01537	0.02096
3728.72960	0.02063
3727.44383	0.02034
3726.15806	0.02022
3724.87229	0.02026
3723.58652	0.02039
3722.30075	0.02048
3721.01498	0.02051
3719.72922	0.02048
3718.44345	0.02031
3717.15768	0.02011
3715.87191	0.02002
3714.58614	0.02014
3713.30037	0.02051
3712.01460	0.02084
3710.72883	0.02092
3709.44307	0.02075
3708.15730	0.02029
3706.87153	0.01988
3705.58576	0.01976
3704.29999	0.02000
3703.01422	0.02049
3701.72845	0.02107
3700.44268	0.02153
3699.15691	0.02178
3697.87115	0.02185
3696.58538	0.02181
3695.29961	0.02141
3694.01384	0.02063
3692.72807	0.01963
3691.44230	0.01877
3690.15653	0.01818
3688.87076	0.01781
3687.58500	0.01768
3686.29923	0.01803
3685.01346	0.01883
3683.72769	0.01985
3682.44192	0.02058
3681.15615	0.02057
3679.87038	0.01981
3678.58461	0.01867
3677.29884	0.01765
3676.01308	0.01711
3674.72731	0.01693
3673.44154	0.01670
3672.15577	0.01617
3670.87000	0.01552
3669.58423	0.01528
3668.29846	0.01575
3667.01269	0.01667
3665.72693	0.01745
3664.44116	0.01766
3663.15539	0.01748
3661.86962	0.01730
3660.58385	0.01734
3659.29808	0.01742
3658.01231	0.01726
3656.72654	0.01685
3655.44077	0.01648
3654.15501	0.01636
3652.86924	0.01643
3651.58347	0.01655
3650.29770	0.01675
3649.01193	0.01710
3647.72616	0.01757
3646.44039	0.01799
3645.15462	0.01829
3643.86886	0.01847
3642.58309	0.01851
3641.29732	0.01845
3640.01155	0.01840
3638.72578	0.01852
3637.44001	0.01894
3636.15424	0.01952
3634.86847	0.02004
3633.58270	0.02039
3632.29694	0.02076
3631.01117	0.02136
3629.72540	0.02183
3628.43963	0.02167
3627.15386	0.02059
3625.86809	0.01908
3624.58232	0.01785
3623.29655	0.01749
3622.01079	0.01798
3620.72502	0.01924
3619.43925	0.02086
3618.15348	0.02240
3616.86771	0.02342
3615.58194	0.02374
3614.29617	0.02348
3613.01040	0.02291
3611.72463	0.02232
3610.43887	0.02176
3609.15310	0.02122
3607.86733	0.02064
3606.58156	0.02011
3605.29579	0.01988
3604.01002	0.02015
3602.72425	0.02095
3601.43848	0.02206
3600.15272	0.02307
3598.86695	0.02350
3597.58118	0.02321
3596.29541	0.02232
3595.00964	0.02139
3593.72387	0.02097
3592.43810	0.02123
3591.15233	0.02203
3589.86656	0.02284
3588.58080	0.02314
3587.29503	0.02303
3586.00926	0.02272
3584.72349	0.02233
3583.43772	0.02185
3582.15195	0.02136
3580.86618	0.02103
3579.58041	0.02104
3578.29464	0.02139
3577.00888	0.02190
3575.72311	0.02232
3574.43734	0.02245
3573.15157	0.02224
3571.86580	0.02192
3570.58003	0.02187
3569.29426	0.02226
3568.00849	0.02295
3566.72273	0.02361
3565.43696	0.02386
3564.15119	0.02357
3562.86542	0.02288
3561.57965	0.02212
3560.29388	0.02168
3559.00811	0.02169
3557.72234	0.02207
3556.43657	0.02261
3555.15081	0.02309
3553.86504	0.02344
3552.57927	0.02372
3551.29350	0.02399
3550.00773	0.02425
3548.72196	0.02448
3547.43619	0.02468
3546.15042	0.02485
3544.86466	0.02497
3543.57889	0.02500
3542.29312	0.02488
3541.00735	0.02461
3539.72158	0.02428
3538.43581	0.02396
3537.15004	0.02362
3535.86427	0.02325
3534.57850	0.02289
3533.29274	0.02267
3532.00697	0.02276
3530.72120	0.02328
3529.43543	0.02417
3528.14966	0.02512
3526.86389	0.02578
3525.57812	0.02601
3524.29235	0.02598
3523.00659	0.02587
3521.72082	0.02574
3520.43505	0.02552
3519.14928	0.02521
3517.86351	0.02494
3516.57774	0.02491
3515.29197	0.02515
3514.00620	0.02550
3512.72043	0.02568
3511.43467	0.02553
3510.14890	0.02513
3508.86313	0.02475
3507.57736	0.02461
3506.29159	0.02481
3505.00582	0.02520
3503.72005	0.02556
3502.43428	0.02580
3501.14852	0.02592
3499.86275	0.02596
3498.57698	0.02587
3497.29121	0.02564
3496.00544	0.02544
3494.71967	0.02544
3493.43390	0.02573
3492.14813	0.02618
3490.86236	0.02650
3489.57660	0.02650
3488.29083	0.02620
3487.00506	0.02580
3485.71929	0.02551
3484.43352	0.02531
3483.14775	0.02520
3481.86198	0.02528
3480.57621	0.02564
3479.29045	0.02618
3478.00468	0.02666
3476.71891	0.02693
3475.43314	0.02698
3474.14737	0.02689
3472.86160	0.02668
3471.57583	0.02634
3470.29006	0.02602
3469.00429	0.02590
3467.71853	0.02599
3466.43276	0.02597
3465.14699	0.02558
3463.86122	0.02502
3462.57545	0.02487
3461.28968	0.02540
3460.00391	0.02633
3458.71814	0.02708
3457.43238	0.02729
3456.14661	0.02699
3454.86084	0.02645
3453.57507	0.02596
3452.28930	0.02575
3451.00353	0.02593
3449.71776	0.02648
3448.43199	0.02709
3447.14622	0.02742
3445.86046	0.02732
3444.57469	0.02693
3443.28892	0.02654
3442.00315	0.02640
3440.71738	0.02664
3439.43161	0.02715
3438.14584	0.02765
3436.86007	0.02786
3435.57431	0.02772
3434.28854	0.02746
3433.00277	0.02731
3431.71700	0.02728
3430.43123	0.02715
3429.14546	0.02681
3427.85969	0.02650
3426.57392	0.02658
3425.28815	0.02714
3424.00239	0.02791
3422.71662	0.02847
3421.43085	0.02869
3420.14508	0.02871
3418.85931	0.02865
3417.57354	0.02849
3416.28777	0.02817
3415.00200	0.02776
3413.71624	0.02750
3412.43047	0.02750
3411.14470	0.02760
3409.85893	0.02753
3408.57316	0.02730
3407.28739	0.02718
3406.00162	0.02746
3404.71585	0.02813
3403.43008	0.02890
3402.14432	0.02947
3400.85855	0.02965
3399.57278	0.02941
3398.28701	0.02881
3397.00124	0.02801
3395.71547	0.02717
3394.42970	0.02643
3393.14393	0.02585
3391.85817	0.02554
3390.57240	0.02565
3389.28663	0.02621
3388.00086	0.02699
3386.71509	0.02767
3385.42932	0.02811
3384.14355	0.02839
3382.85778	0.02864
3381.57201	0.02884
3380.28625	0.02892
3379.00048	0.02890
3377.71471	0.02877
3376.42894	0.02849
3375.14317	0.02810
3373.85740	0.02783
3372.57163	0.02795
3371.28586	0.02845
3370.00010	0.02888
3368.71433	0.02876
3367.42856	0.02801
3366.14279	0.02706
3364.85702	0.02646
3363.57125	0.02644
3362.28548	0.02684
3360.99971	0.02738
3359.71394	0.02782
3358.42818	0.02802
3357.14241	0.02794
3355.85664	0.02766
3354.57087	0.02737
3353.28510	0.02723
3351.99933	0.02728
3350.71356	0.02746
3349.42779	0.02766
3348.14202	0.02783
3346.85626	0.02789
3345.57049	0.02777
3344.28472	0.02748
3342.99895	0.02712
3341.71318	0.02683
3340.42741	0.02663
3339.14164	0.02640
3337.85587	0.02608
3336.57011	0.02584
3335.28434	0.02586
3333.99857	0.02614
3332.71280	0.02650
3331.42703	0.02674
3330.14126	0.02686
3328.85549	0.02696
3327.56972	0.02716
3326.28395	0.02742
3324.99819	0.02761
3323.71242	0.02755
3322.42665	0.02727
3321.14088	0.02699
3319.85511	0.02693
3318.56934	0.02712
3317.28357	0.02739
3315.99780	0.02759
3314.71204	0.02765
3313.42627	0.02754
3312.14050	0.02725
3310.85473	0.02686
3309.56896	0.02660
3308.28319	0.02660
3306.99742	0.02683
3305.71165	0.02713
3304.42588	0.02734
3303.14012	0.02744
3301.85435	0.02754
3300.56858	0.02772
3299.28281	0.02787
3297.99704	0.02778
3296.71127	0.02736
3295.42550	0.02676
3294.13973	0.02631
3292.85397	0.02619
3291.56820	0.02633
3290.28243	0.02654
3288.99666	0.02663
3287.71089	0.02648
3286.42512	0.02613
3285.13935	0.02574
3283.85358	0.02553
3282.56781	0.02558
3281.28205	0.02574
3279.99628	0.02578
3278.71051	0.02556
3277.42474	0.02517
3276.13897	0.02484
3274.85320	0.02478
3273.56743	0.02503
3272.28166	0.02542
3270.99590	0.02577
3269.71013	0.02593
3268.42436	0.02587
3267.13859	0.02566
3265.85282	0.02547
3264.56705	0.02549
3263.28128	0.02573
3261.99551	0.02602
3260.70974	0.02616
3259.42398	0.02609
3258.13821	0.02588
3256.85244	0.02570
3255.56667	0.02565
3254.28090	0.02574
3252.99513	0.02585
3251.70936	0.02592
3250.42359	0.02601
3249.13783	0.02619
3247.85206	0.02644
3246.56629	0.02660
3245.28052	0.02651
3243.99475	0.02619
3242.70898	0.02580
3241.42321	0.02551
3240.13744	0.02529
3238.85167	0.02502
3237.56591	0.02469
3236.28014	0.02445
3234.99437	0.02446
3233.70860	0.02475
3232.42283	0.02519
3231.13706	0.02560
3229.85129	0.02580
3228.56552	0.02581
3227.27976	0.02581
3225.99399	0.02597
3224.70822	0.02619
3223.42245	0.02620
3222.13668	0.02585
3220.85091	0.02531
3219.56514	0.02484
3218.27937	0.02453
3216.99360	0.02425
3215.70784	0.02389
3214.42207	0.02357
3213.13630	0.02340
3211.85053	0.02338
3210.56476	0.02341
3209.27899	0.02340
3207.99322	0.02341
3206.70745	0.02349
3205.42169	0.02359
3204.13592	0.02366
3202.85015	0.02373
3201.56438	0.02384
3200.27861	0.02395
3198.99284	0.02389
3197.70707	0.02360
3196.42130	0.02327
3195.13553	0.02315
3193.84977	0.02339
3192.56400	0.02400
3191.27823	0.02477
3189.99246	0.02538
3188.70669	0.02553
3187.42092	0.02517
3186.13515	0.02457
3184.84938	0.02404
3183.56362	0.02369
3182.27785	0.02335
3180.99208	0.02296
3179.70631	0.02261
3178.42054	0.02245
3177.13477	0.02248
3175.84900	0.02257
3174.56323	0.02260
3173.27746	0.02260
3171.99170	0.02265
3170.70593	0.02267
3169.42016	0.02248
3168.13439	0.02206
3166.84862	0.02161
3165.56285	0.02139
3164.27708	0.02141
3162.99131	0.02153
3161.70555	0.02167
3160.41978	0.02185
3159.13401	0.02206
3157.84824	0.02221
3156.56247	0.02223
3155.27670	0.02208
3153.99093	0.02180
3152.70516	0.02146
3151.41939	0.02122
3150.13363	0.02117
3148.84786	0.02131
3147.56209	0.02156
3146.27632	0.02177
3144.99055	0.02187
3143.70478	0.02177
3142.41901	0.02148
3141.13324	0.02111
3139.84748	0.02083
3138.56171	0.02073
3137.27594	0.02080
3135.99017	0.02100
3134.70440	0.02129
3133.41863	0.02159
3132.13286	0.02175
3130.84709	0.02173
3129.56132	0.02162
3128.27556	0.02165
3126.98979	0.02185
3125.70402	0.02207
3124.41825	0.02209
3123.13248	0.02185
3121.84671	0.02149
3120.56094	0.02115
3119.27517	0.02089
3117.98940	0.02074
3116.70364	0.02075
3115.41787	0.02092
3114.13210	0.02106
3112.84633	0.02105
3111.56056	0.02094
3110.27479	0.02087
3108.98902	0.02083
3107.70325	0.02074
3106.41749	0.02059
3105.13172	0.02049
3103.84595	0.02049
3102.56018	0.02047
3101.27441	0.02036
3099.98864	0.02018
3098.70287	0.02007
3097.41710	0.02004
3096.13133	0.02002
3094.84557	0.01990
3093.55980	0.01966
3092.27403	0.01941
3090.98826	0.01924
3089.70249	0.01923
3088.41672	0.01939
3087.13095	0.01963
3085.84518	0.01984
3084.55942	0.01991
3083.27365	0.01985
3081.98788	0.01977
3080.70211	0.01978
3079.41634	0.01988
3078.13057	0.01994
3076.84480	0.01985
3075.55903	0.01958
3074.27326	0.01917
3072.98750	0.01868
3071.70173	0.01813
3070.41596	0.01765
3069.13019	0.01745
3067.84442	0.01767
3066.55865	0.01820
3065.27288	0.01882
3063.98711	0.01933
3062.70135	0.01961
3061.41558	0.01961
3060.12981	0.01939
3058.84404	0.01911
3057.55827	0.01889
3056.27250	0.01877
3054.98673	0.01874
3053.70096	0.01875
3052.41519	0.01871
3051.12943	0.01853
3049.84366	0.01821
3048.55789	0.01787
3047.27212	0.01763
3045.98635	0.01749
3044.70058	0.01744
3043.41481	0.01746
3042.12904	0.01748
3040.84328	0.01736
3039.55751	0.01706
3038.27174	0.01675
3036.98597	0.01668
3035.70020	0.01695
3034.41443	0.01746
3033.12866	0.01801
3031.84289	0.01841
3030.55712	0.01848
3029.27136	0.01818
3027.98559	0.01771
3026.69982	0.01739
3025.41405	0.01737
3024.12828	0.01753
3022.84251	0.01766
3021.55674	0.01762
3020.27097	0.01748
3018.98521	0.01737
3017.69944	0.01736
3016.41367	0.01736
3015.12790	0.01715
3013.84213	0.01671
3012.55636	0.01627
3011.27059	0.01613
3009.98482	0.01631
3008.69905	0.01658
3007.41329	0.01671
3006.12752	0.01668
3004.84175	0.01662
3003.55598	0.01661
3002.27021	0.01671
3000.98444	0.01688
2999.69867	0.01705
2998.41290	0.01709
2997.12714	0.01687
2995.84137	0.01651
2994.55560	0.01629
2993.26983	0.01642
2991.98406	0.01683
2990.69829	0.01728
2989.41252	0.01758
2988.12675	0.01761
2986.84098	0.01732
2985.55522	0.01677
2984.26945	0.01617
2982.98368	0.01577
2981.69791	0.01567
2980.41214	0.01577
2979.12637	0.01597
2977.84060	0.01625
2976.55483	0.01659
2975.26907	0.01687
2973.98330	0.01693
2972.69753	0.01675
2971.41176	0.01646
2970.12599	0.01619
2968.84022	0.01604
2967.55445	0.01607
2966.26868	0.01622
2964.98291	0.01636
2963.69715	0.01644
2962.41138	0.01648
2961.12561	0.01654
2959.83984	0.01658
2958.55407	0.01661
2957.26830	0.01674
2955.98253	0.01712
2954.69676	0.01766
2953.41100	0.01807
2952.12523	0.01809
2950.83946	0.01772
2949.55369	0.01717
2948.26792	0.01668
2946.98215	0.01628
2945.69638	0.01595
2944.41061	0.01570
2943.12484	0.01561
2941.83908	0.01564
2940.55331	0.01569
2939.26754	0.01574
2937.98177	0.01594
2936.69600	0.01638
2935.41023	0.01696
2934.12446	0.01746
2932.83869	0.01772
2931.55293	0.01769
2930.26716	0.01741
2928.98139	0.01702
2927.69562	0.01668
2926.40985	0.01656
2925.12408	0.01671
2923.83831	0.01700
2922.55254	0.01722
2921.26677	0.01717
2919.98101	0.01680
2918.69524	0.01628
2917.40947	0.01594
2916.12370	0.01599
2914.83793	0.01640
2913.55216	0.01685
2912.26639	0.01710
2910.98062	0.01709
2909.69486	0.01687
2908.40909	0.01655
2907.12332	0.01623
2905.83755	0.01602
2904.55178	0.01596
2903.26601	0.01602
2901.98024	0.01610
2900.69447	0.01606
2899.40870	0.01588
2898.12294	0.01567
2896.83717	0.01557
2895.55140	0.01564
2894.26563	0.01582
2892.97986	0.01598
2891.69409	0.01603
2890.40832	0.01589
2889.12255	0.01557
2887.83678	0.01523
2886.55102	0.01499
2885.26525	0.01485
2883.97948	0.01477
2882.69371	0.01474
2881.40794	0.01478
2880.12217	0.01484
2878.83640	0.01489
2877.55063	0.01495
2876.26487	0.01508
2874.97910	0.01526
2873.69333	0.01534
2872.40756	0.01519
2871.12179	0.01486
2869.83602	0.01454
2868.55025	0.01443
2867.26448	0.01462
2865.97871	0.01496
2864.69295	0.01521
2863.40718	0.01521
2862.12141	0.01499
2860.83564	0.01462
2859.54987	0.01424
2858.26410	0.01392
2856.97833	0.01373
2855.69256	0.01364
2854.40680	0.01369
2853.12103	0.01391
2851.83526	0.01427
2850.54949	0.01463
2849.26372	0.01477
2847.97795	0.01461
2846.69218	0.01424
2845.40641	0.01380
2844.12064	0.01339
2842.83488	0.01312
2841.54911	0.01306
2840.26334	0.01322
2838.97757	0.01353
2837.69180	0.01382
2836.40603	0.01393
2835.12026	0.01385
2833.83449	0.01363
2832.54873	0.01337
2831.26296	0.01310
2829.97719	0.01288
2828.69142	0.01276
2827.40565	0.01277
2826.11988	0.01283
2824.83411	0.01288
2823.54834	0.01291
2822.26257	0.01292
2820.97681	0.01287
2819.69104	0.01270
2818.40527	0.01236
2817.11950	0.01192
2815.83373	0.01157
2814.54796	0.01148
2813.26219	0.01167
2811.97642	0.01197
2810.69066	0.01225
2809.40489	0.01244
2808.11912	0.01254
2806.83335	0.01261
2805.54758	0.01262
2804.26181	0.01251
2802.97604	0.01228
2801.69027	0.01209
2800.40450	0.01207
2799.11874	0.01217
2797.83297	0.01223
2796.54720	0.01221
2795.26143	0.01221
2793.97566	0.01225
2792.68989	0.01226
2791.40412	0.01214
2790.11835	0.01190
2788.83259	0.01165
2787.54682	0.01152
2786.26105	0.01156
2784.97528	0.01169
2783.68951	0.01177
2782.40374	0.01180
2781.11797	0.01186
2779.83220	0.01200
2778.54643	0.01220
2777.26067	0.01242
2775.97490	0.01260
2774.68913	0.01266
2773.40336	0.01258
2772.11759	0.01237
2770.83182	0.01211
2769.54605	0.01184
2768.26028	0.01164
2766.97452	0.01155
2765.68875	0.01161
2764.40298	0.01179
2763.11721	0.01199
2761.83144	0.01210
2760.54567	0.01203
2759.25990	0.01180
2757.97413	0.01157
2756.68836	0.01145
2755.40260	0.01144
2754.11683	0.01144
2752.83106	0.01141
2751.54529	0.01137
2750.25952	0.01128
2748.97375	0.01111
2747.68798	0.01089
2746.40221	0.01077
2745.11645	0.01083
2743.83068	0.01104
2742.54491	0.01133
2741.25914	0.01162
2739.97337	0.01183
2738.68760	0.01191
2737.40183	0.01191
2736.11606	0.01194
2734.83029	0.01199
2733.54453	0.01188
2732.25876	0.01152
2730.97299	0.01106
2729.68722	0.01070
2728.40145	0.01055
2727.11568	0.01056
2725.82991	0.01066
2724.54414	0.01079
2723.25838	0.01092
2721.97261	0.01099
2720.68684	0.01098
2719.40107	0.01094
2718.11530	0.01094
2716.82953	0.01097
2715.54376	0.01100
2714.25799	0.01106
2712.97222	0.01116
2711.68646	0.01127
2710.40069	0.01128
2709.11492	0.01120
2707.82915	0.01112
2706.54338	0.01107
2705.25761	0.01101
2703.97184	0.01088
2702.68607	0.01074
2701.40031	0.01067
2700.11454	0.01070
2698.82877	0.01077
2697.54300	0.01081
2696.25723	0.01080
2694.97146	0.01080
2693.68569	0.01083
2692.39992	0.01081
2691.11415	0.01068
2689.82839	0.01049
2688.54262	0.01039
2687.25685	0.01042
2685.97108	0.01049
2684.68531	0.01049
2683.39954	0.01044
2682.11377	0.01039
2680.82800	0.01037
2679.54224	0.01034
2678.25647	0.01031
2676.97070	0.01022
2675.68493	0.01007
2674.39916	0.00989
2673.11339	0.00978
2671.82762	0.00979
2670.54185	0.00989
2669.25608	0.01003
2667.97032	0.01014
2666.68455	0.01023
2665.39878	0.01030
2664.11301	0.01042
2662.82724	0.01061
2661.54147	0.01085
2660.25570	0.01104
2658.96993	0.01110
2657.68417	0.01099
2656.39840	0.01080
2655.11263	0.01070
2653.82686	0.01076
2652.54109	0.01095
2651.25532	0.01118
2649.96955	0.01138
2648.68378	0.01151
2647.39801	0.01151
2646.11225	0.01136
2644.82648	0.01115
2643.54071	0.01100
2642.25494	0.01095
2640.96917	0.01091
2639.68340	0.01082
2638.39763	0.01075
2637.11186	0.01077
2635.82609	0.01080
2634.54033	0.01071
2633.25456	0.01043
2631.96879	0.01009
2630.68302	0.00985
2629.39725	0.00979
2628.11148	0.00984
2626.82571	0.00987
2625.53994	0.00981
2624.25418	0.00961
2622.96841	0.00927
2621.68264	0.00893
2620.39687	0.00877
2619.11110	0.00884
2617.82533	0.00898
2616.53956	0.00902
2615.25379	0.00896
2613.96802	0.00895
2612.68226	0.00906
2611.39649	0.00922
2610.11072	0.00936
2608.82495	0.00949
2607.53918	0.00969
2606.25341	0.01004
2604.96764	0.01045
2603.68187	0.01070
2602.39611	0.01062
2601.11034	0.01020
2599.82457	0.00963
2598.53880	0.00908
2597.25303	0.00867
2595.96726	0.00843
2594.68149	0.00836
2593.39572	0.00847
2592.10995	0.00875
2590.82419	0.00913
2589.53842	0.00948
2588.25265	0.00967
2586.96688	0.00963
2585.68111	0.00947
2584.39534	0.00942
2583.10957	0.00961
2581.82380	0.00995
2580.53804	0.01009
2579.25227	0.00976
2577.96650	0.00900
2576.68073	0.00824
2575.39496	0.00789
2574.10919	0.00799
2572.82342	0.00822
2571.53765	0.00826
2570.25188	0.00815
2568.96612	0.00811
2567.68035	0.00836
2566.39458	0.00886
2565.10881	0.00939
2563.82304	0.00968
2562.53727	0.00958
2561.25150	0.00921
2559.96573	0.00885
2558.67997	0.00873
2557.39420	0.00884
2556.10843	0.00905
2554.82266	0.00929
2553.53689	0.00961
2552.25112	0.00999
2550.96535	0.01018
2549.67958	0.00996
2548.39381	0.00947
2547.10805	0.00911
2545.82228	0.00912
2544.53651	0.00932
2543.25074	0.00943
2541.96497	0.00935
2540.67920	0.00917
2539.39343	0.00899
2538.10766	0.00878
2536.82190	0.00848
2535.53613	0.00817
2534.25036	0.00804
2532.96459	0.00814
2531.67882	0.00831
2530.39305	0.00838
2529.10728	0.00833
2527.82151	0.00828
2526.53574	0.00831
2525.24998	0.00840
2523.96421	0.00851
2522.67844	0.00859
2521.39267	0.00867
2520.10690	0.00879
2518.82113	0.00894
2517.53536	0.00901
2516.24959	0.00885
2514.96383	0.00851
2513.67806	0.00817
2512.39229	0.00799
2511.10652	0.00797
2509.82075	0.00793
2508.53498	0.00780
2507.24921	0.00762
2505.96344	0.00756
2504.67767	0.00774
2503.39191	0.00808
2502.10614	0.00833
2500.82037	0.00828
2499.53460	0.00805
2498.24883	0.00798
2496.96306	0.00823
2495.67729	0.00865
2494.39152	0.00900
2493.10576	0.00917
2491.81999	0.00915
2490.53422	0.00893
2489.24845	0.00849
2487.96268	0.00799
2486.67691	0.00762
2485.39114	0.00745
2484.10537	0.00741
2482.81960	0.00744
2481.53384	0.00757
2480.24807	0.00776
2478.96230	0.00782
2477.67653	0.00759
2476.39076	0.00723
2475.10499	0.00706
2473.81922	0.00725
2472.53345	0.00763
2471.24769	0.00798
2469.96192	0.00817
2468.67615	0.00824
2467.39038	0.00827
2466.10461	0.00833
2464.81884	0.00841
2463.53307	0.00848
2462.24730	0.00847
2460.96153	0.00836
2459.67577	0.00824
2458.39000	0.00827
2457.10423	0.00843
2455.81846	0.00857
2454.53269	0.00855
2453.24692	0.00843
2451.96115	0.00833
2450.67538	0.00827
2449.38962	0.00821
2448.10385	0.00808
2446.81808	0.00783
2445.53231	0.00746
2444.24654	0.00711
2442.96077	0.00694
2441.67500	0.00698
2440.38923	0.00717
2439.10346	0.00734
2437.81770	0.00736
2436.53193	0.00724
2435.24616	0.00707
2433.96039	0.00698
2432.67462	0.00697
2431.38885	0.00699
2430.10308	0.00706
2428.81731	0.00723
2427.53155	0.00748
2426.24578	0.00770
2424.96001	0.00781
2423.67424	0.00786
2422.38847	0.00793
2421.10270	0.00799
2419.81693	0.00796
2418.53116	0.00781
2417.24539	0.00766
2415.95963	0.00759
2414.67386	0.00754
2413.38809	0.00738
2412.10232	0.00709
2410.81655	0.00683
2409.53078	0.00680
2408.24501	0.00704
2406.95924	0.00741
2405.67347	0.00770
2404.38771	0.00772
2403.10194	0.00739
2401.81617	0.00688
2400.53040	0.00628
2399.24463	0.00245
2397.95886	0.00030
2396.67309	0.00095
2395.38732	0.00294
2394.10156	0.00514
2392.81579	0.00716
2391.53002	0.00898
2390.24425	0.01074
2388.95848	0.01254
2387.67271	0.01435
2386.38694	0.01602
2385.10117	0.01744
2383.81540	0.01847
2382.52964	0.01907
2381.24387	0.01918
2379.95810	0.01898
2378.67233	0.01854
2377.38656	0.01792
2376.10079	0.01795
2374.81502	0.01886
2373.52925	0.02014
2372.24349	0.02148
2370.95772	0.02213
2369.67195	0.02329
2368.38618	0.02517
2367.10041	0.02674
2365.81464	0.02822
2364.52887	0.03087
2363.24310	0.03348
2361.95733	0.03449
2360.67157	0.03436
2359.38580	0.03505
2358.10003	0.03582
2356.81426	0.03660
2355.52849	0.03840
2354.24272	0.04026
2352.95695	0.04184
2351.67118	0.04195
2350.38542	0.03905
2349.09965	0.03666
2347.81388	0.03813
2346.52811	0.03972
2345.24234	0.03811
2343.95657	0.03514
2342.67080	0.03406
2341.38503	0.03424
2340.09926	0.03401
2338.81350	0.03346
2337.52773	0.03285
2336.24196	0.03378
2334.95619	0.03511
2333.67042	0.03492
2332.38465	0.03467
2331.09888	0.03484
2329.81311	0.03521
2328.52735	0.03658
2327.24158	0.03695
2325.95581	0.03496
2324.67004	0.03150
2323.38427	0.02688
2322.09850	0.02224
2320.81273	0.01974
2319.52696	0.01865
2318.24119	0.01803
2316.95543	0.01788
2315.66966	0.01762
2314.38389	0.01704
2313.09812	0.01620
2311.81235	0.01554
2310.52658	0.01551
2309.24081	0.01571
2307.95504	0.01597
2306.66928	0.01640
2305.38351	0.01655
2304.09774	0.01645
2302.81197	0.01626
2301.52620	0.01604
2300.24043	0.01598
2298.95466	0.01609
2297.66889	0.01636
2296.38312	0.01655
2295.09736	0.01654
2293.81159	0.01623
2292.52582	0.01563
2291.24005	0.01484
2289.95428	0.01385
2288.66851	0.01262
2287.38274	0.01118
2286.09697	0.00973
2284.81121	0.00854
2283.52544	0.00786
2282.23967	0.00773
2280.95390	0.00786
2279.66813	0.00796
2278.38236	0.00783
2277.09659	0.00761
2275.81082	0.00751
2274.52505	0.00756
2273.23929	0.00767
2271.95352	0.00766
2270.66775	0.00754
2269.38198	0.00747
2268.09621	0.00758
2266.81044	0.00777
2265.52467	0.00794
2264.23890	0.00803
2262.95314	0.00813
2261.66737	0.00839
2260.38160	0.00883
2259.09583	0.00925
2257.81006	0.00957
2256.52429	0.00967
2255.23852	0.00961
2253.95275	0.00948
2252.66698	0.00950
2251.38122	0.00961
2250.09545	0.00894
2248.80968	0.00702
2247.52391	0.00665
2246.23814	0.00673
2244.95237	0.00735
2243.66660	0.00820
2242.38083	0.00865
2241.09507	0.00839
2239.80930	0.00758
2238.52353	0.00657
2237.23776	0.00557
2235.95199	0.00469
2234.66622	0.00404
2233.38045	0.00355
2232.09468	0.00314
2230.80891	0.00292
2229.52315	0.00327
2228.23738	0.00428
2226.95161	0.00555
2225.66584	0.00638
2224.38007	0.00636
2223.09430	0.00559
2221.80853	0.00454
2220.52276	0.00379
2219.23700	0.00364
2217.95123	0.00405
2216.66546	0.00466
2215.37969	0.00507
2214.09392	0.00511
2212.80815	0.00500
2211.52238	0.00498
2210.23661	0.00504
2208.95084	0.00508
2207.66508	0.00529
2206.37931	0.00591
2205.09354	0.00674
2203.80777	0.00732
2202.52200	0.00747
2201.23623	0.00731
2199.95046	0.00687
2198.66469	0.00609
2197.37893	0.00512
2196.09316	0.00432
2194.80739	0.00386
2193.52162	0.00373
2192.23585	0.00390
2190.95008	0.00430
2189.66431	0.00466
2188.37854	0.00472
2187.09277	0.00437
2185.80701	0.00373
2184.52124	0.00302
2183.23547	0.00257
2181.94970	0.00259
2180.66393	0.00296
2179.37816	0.00338
2178.09239	0.00370
2176.80662	0.00404
2175.52085	0.00452
2174.23509	0.00501
2172.94932	0.00512
2171.66355	0.00461
2170.37778	0.00363
2169.09201	0.00263
2167.80624	0.00194
2166.52047	0.00157
2165.23470	0.00140
2163.94894	0.00139
2162.66317	0.00148
2161.37740	0.00135
2160.09163	0.00070
2158.80586	-0.00019
2157.52009	-0.00052
2156.23432	0.00010
2154.94855	0.00116
2153.66278	0.00184
2152.37702	0.00167
2151.09125	0.00070
2149.80548	-0.00060
2148.51971	-0.00149
2147.23394	-0.00138
2145.94817	-0.00026
2144.66240	0.00125
2143.37663	0.00246
2142.09087	0.00301
2140.80510	0.00302
2139.51933	0.00281
2138.23356	0.00259
2136.94779	0.00235
2135.66202	0.00196
2134.37625	0.00152
2133.09048	0.00123
2131.80471	0.00117
2130.51895	0.00129
2129.23318	0.00157
2127.94741	0.00194
2126.66164	0.00219
2125.37587	0.00211
2124.09010	0.00173
2122.80433	0.00132
2121.51856	0.00114
2120.23280	0.00130
2118.94703	0.00171
2117.66126	0.00210
2116.37549	0.00231
2115.08972	0.00244
2113.80395	0.00269
2112.51818	0.00316
2111.23241	0.00370
2109.94664	0.00407
2108.66088	0.00411
2107.37511	0.00382
2106.08934	0.00335
2104.80357	0.00283
2103.51780	0.00230
2102.23203	0.00179
2100.94626	0.00147
2099.66049	0.00143
2098.37473	0.00166
2097.08896	0.00190
2095.80319	0.00183
2094.51742	0.00149
2093.23165	0.00122
2091.94588	0.00132
2090.66011	0.00172
2089.37434	0.00208
2088.08857	0.00214
2086.80281	0.00198
2085.51704	0.00183
2084.23127	0.00181
2082.94550	0.00181
2081.65973	0.00164
2080.37396	0.00128
2079.08819	0.00089
2077.80242	0.00058
2076.51666	0.00036
2075.23089	0.00016
2073.94512	0.00000
2072.65935	-0.00012
2071.37358	-0.00024
2070.08781	-0.00034
2068.80204	-0.00027
2067.51627	0.00010
2066.23050	0.00069
2064.94474	0.00115
2063.65897	0.00119
2062.37320	0.00080
2061.08743	0.00024
2059.80166	-0.00025
2058.51589	-0.00061
2057.23012	-0.00089
2055.94435	-0.00103
2054.65859	-0.00094
2053.37282	-0.00068
2052.08705	-0.00039
2050.80128	-0.00019
2049.51551	-0.00021
2048.22974	-0.00056
2046.94397	-0.00132
2045.65820	-0.00234
2044.37243	-0.00332
2043.08667	-0.00388
2041.80090	-0.00369
2040.51513	-0.00270
2039.22936	-0.00129
2037.94359	-0.00012
2036.65782	0.00033
2035.37205	0.00014
2034.08628	-0.00031
2032.80052	-0.00077
2031.51475	-0.00128
2030.22898	-0.00181
2028.94321	-0.00208
2027.65744	-0.00193
2026.37167	-0.00153
2025.08590	-0.00125
2023.80013	-0.00124
2022.51436	-0.00141
2021.22860	-0.00156
2019.94283	-0.00160
2018.65706	-0.00164
2017.37129	-0.00176
2016.08552	-0.00184
2014.79975	-0.00162
2013.51398	-0.00097
2012.22821	-0.00013
2010.94245	0.00046
2009.65668	0.00045
2008.37091	-0.00021
2007.08514	-0.00112
2005.79937	-0.00172
2004.51360	-0.00170
2003.22783	-0.00125
2001.94206	-0.00069
2000.65629	-0.00007
1999.37053	0.00071
1998.08476	0.00142
1996.79899	0.00155
1995.51322	0.00087
1994.22745	-0.00018
1992.94168	-0.00081
1991.65591	-0.00055
1990.37014	0.00043
1989.08438	0.00160
1987.79861	0.00251
1986.51284	0.00304
1985.22707	0.00331
1983.94130	0.00343
1982.65553	0.00342
1981.36976	0.00318
1980.08399	0.00270
1978.79822	0.00209
1977.51246	0.00150
1976.22669	0.00103
1974.94092	0.00077
1973.65515	0.00085
1972.36938	0.00137
1971.08361	0.00213
1969.79784	0.00281
1968.51207	0.00313
1967.22631	0.00308
1965.94054	0.00277
1964.65477	0.00233
1963.36900	0.00194
1962.08323	0.00176
1960.79746	0.00187
1959.51169	0.00225
1958.22592	0.00288
1956.94015	0.00362
1955.65439	0.00420
1954.36862	0.00439
1953.08285	0.00413
1951.79708	0.00355
1950.51131	0.00284
1949.22554	0.00226
1947.93977	0.00210
1946.65400	0.00251
1945.36823	0.00334
1944.08247	0.00423
1942.79670	0.00481
1941.51093	0.00494
1940.22516	0.00467
1938.93939	0.00413
1937.65362	0.00340
1936.36785	0.00264
1935.08208	0.00212
1933.79632	0.00207
1932.51055	0.00241
1931.22478	0.00286
1929.93901	0.00323
1928.65324	0.00356
1927.36747	0.00391
1926.08170	0.00421
1924.79593	0.00434
1923.51016	0.00432
1922.22440	0.00420
1920.93863	0.00405
1919.65286	0.00390
1918.36709	0.00378
1917.08132	0.00377
1915.79555	0.00384
1914.50978	0.00394
1913.22401	0.00394
1911.93825	0.00378
1910.65248	0.00347
1909.36671	0.00315
1908.08094	0.00300
1906.79517	0.00308
1905.50940	0.00329
1904.22363	0.00348
1902.93786	0.00357
1901.65209	0.00360
1900.36633	0.00367
1899.08056	0.00385
1897.79479	0.00415
1896.50902	0.00450
1895.22325	0.00474
1893.93748	0.00475
1892.65171	0.00453
1891.36594	0.00420
1890.08018	0.00392
1888.79441	0.00378
1887.50864	0.00377
1886.22287	0.00386
1884.93710	0.00397
1883.65133	0.00393
1882.36556	0.00362
1881.07979	0.00315
1879.79402	0.00280
1878.50826	0.00282
1877.22249	0.00317
1875.93672	0.00363
1874.65095	0.00393
1873.36518	0.00396
1872.07941	0.00374
1870.79364	0.00349
1869.50787	0.00343
1868.22211	0.00364
1866.93634	0.00398
1865.65057	0.00424
1864.36480	0.00436
1863.07903	0.00439
1861.79326	0.00442
1860.50749	0.00444
1859.22172	0.00443
1857.93595	0.00438
1856.65019	0.00431
1855.36442	0.00428
1854.07865	0.00429
1852.79288	0.00434
1851.50711	0.00435
1850.22134	0.00430
1848.93557	0.00424
1847.64980	0.00424
1846.36404	0.00432
1845.07827	0.00435
1843.79250	0.00422
1842.50673	0.00396
1841.22096	0.00373
1839.93519	0.00364
1838.64942	0.00372
1837.36365	0.00388
1836.07788	0.00402
1834.79212	0.00411
1833.50635	0.00417
1832.22058	0.00422
1830.93481	0.00430
1829.64904	0.00445
1828.36327	0.00464
1827.07750	0.00475
1825.79173	0.00473
1824.50597	0.00460
1823.22020	0.00446
1821.93443	0.00437
1820.64866	0.00431
1819.36289	0.00429
1818.07712	0.00434
1816.79135	0.00451
1815.50558	0.00473
1814.21981	0.00490
1812.93405	0.00500
1811.64828	0.00506
1810.36251	0.00510
1809.07674	0.00510
1807.79097	0.00504
1806.50520	0.00494
1805.21943	0.00487
1803.93366	0.00488
1802.64790	0.00496
1801.36213	0.00510
1800.07636	0.00520
1798.79059	0.00522
1797.50482	0.00516
1796.21905	0.00509
1794.93328	0.00509
1793.64751	0.00514
1792.36174	0.00519
1791.07598	0.00519
1789.79021	0.00517
1788.50444	0.00516
1787.21867	0.00516
1785.93290	0.00515
1784.64713	0.00514
1783.36136	0.00516
1782.07559	0.00524
1780.78983	0.00536
1779.50406	0.00547
1778.21829	0.00553
1776.93252	0.00556
1775.64675	0.00561
1774.36098	0.00567
1773.07521	0.00577
1771.78944	0.00593
1770.50367	0.00611
1769.21791	0.00626
1767.93214	0.00632
1766.64637	0.00631
1765.36060	0.00629
1764.07483	0.00629
1762.78906	0.00633
1761.50329	0.00640
1760.21752	0.00648
1758.93176	0.00655
1757.64599	0.00662
1756.36022	0.00665
1755.07445	0.00662
1753.78868	0.00653
1752.50291	0.00645
1751.21714	0.00644
1749.93137	0.00654
1748.64560	0.00668
1747.35984	0.00680
1746.07407	0.00688
1744.78830	0.00693
1743.50253	0.00699
1742.21676	0.00705
1740.93099	0.00712
1739.64522	0.00717
1738.35945	0.00718
1737.07369	0.00715
1735.78792	0.00711
1734.50215	0.00711
1733.21638	0.00717
1731.93061	0.00730
1730.64484	0.00748
1729.35907	0.00769
1728.07330	0.00786
1726.78753	0.00797
1725.50177	0.00801
1724.21600	0.00803
1722.93023	0.00806
1721.64446	0.00813
1720.35869	0.00823
1719.07292	0.00838
1717.78715	0.00856
1716.50138	0.00876
1715.21561	0.00894
1713.92985	0.00910
1712.64408	0.00926
1711.35831	0.00939
1710.07254	0.00945
1708.78677	0.00940
1707.50100	0.00928
1706.21523	0.00919
1704.92946	0.00920
1703.64370	0.00926
1702.35793	0.00930
1701.07216	0.00930
1699.78639	0.00932
1698.50062	0.00944
1697.21485	0.00967
1695.92908	0.00995
1694.64331	0.01019
1693.35754	0.01035
1692.07178	0.01041
1690.78601	0.01040
1689.50024	0.01036
1688.21447	0.01031
1686.92870	0.01027
1685.64293	0.01025
1684.35716	0.01033
1683.07139	0.01056
1681.78563	0.01089
1680.49986	0.01122
1679.21409	0.01144
1677.92832	0.01156
1676.64255	0.01165
1675.35678	0.01177
1674.07101	0.01196
1672.78524	0.01216
1671.49947	0.01233
1670.21371	0.01245
1668.92794	0.01256
1667.64217	0.01271
1666.35640	0.01289
1665.07063	0.01308
1663.78486	0.01323
1662.49909	0.01335
1661.21332	0.01345
1659.92756	0.01357
1658.64179	0.01369
1657.35602	0.01379
1656.07025	0.01384
1654.78448	0.01387
1653.49871	0.01398
1652.21294	0.01420
1650.92717	0.01449
1649.64140	0.01472
1648.35564	0.01485
1647.06987	0.01493
1645.78410	0.01503
1644.49833	0.01519
1643.21256	0.01536
1641.92679	0.01551
1640.64102	0.01562
1639.35525	0.01571
1638.06949	0.01583
1636.78372	0.01596
1635.49795	0.01612
1634.21218	0.01631
1632.92641	0.01655
1631.64064	0.01681
1630.35487	0.01703
1629.06910	0.01717
1627.78333	0.01726
1626.49757	0.01731
1625.21180	0.01739
1623.92603	0.01749
1622.64026	0.01759
1621.35449	0.01767
1620.06872	0.01772
1618.78295	0.01778
1617.49718	0.01788
1616.21142	0.01805
1614.92565	0.01828
1613.63988	0.01852
1612.35411	0.01871
1611.06834	0.01886
1609.78257	0.01901
1608.49680	0.01919
1607.21103	0.01941
1605.92526	0.01965
1604.63950	0.01986
1603.35373	0.02004
1602.06796	0.02016
1600.78219	0.02023
1599.49642	0.02028
1598.21065	0.02036
1596.92488	0.02050
1595.63911	0.02067
1594.35335	0.02080
1593.06758	0.02087
1591.78181	0.02088
1590.49604	0.02087
1589.21027	0.02089
1587.92450	0.02097
1586.63873	0.02110
1585.35296	0.02123
1584.06719	0.02131
1582.78143	0.02131
1581.49566	0.02126
1580.20989	0.02120
1578.92412	0.02118
1577.63835	0.02122
1576.35258	0.02133
1575.06681	0.02146
1573.78104	0.02155
1572.49528	0.02155
1571.20951	0.02146
1569.92374	0.02131
1568.63797	0.02115
1567.35220	0.02101
1566.06643	0.02089
1564.78066	0.02080
1563.49489	0.02069
1562.20912	0.02055
1560.92336	0.02035
1559.63759	0.02012
1558.35182	0.01991
1557.06605	0.01977
1555.78028	0.01967
1554.49451	0.01958
1553.20874	0.01950
1551.92297	0.01941
1550.63721	0.01929
1549.35144	0.01913
1548.06567	0.01892
1546.77990	0.01868
1545.49413	0.01844
1544.20836	0.01821
1542.92259	0.01799
1541.63682	0.01777
1540.35105	0.01757
1539.06529	0.01742
1537.77952	0.01729
1536.49375	0.01712
1535.20798	0.01690
1533.92221	0.01665
1532.63644	0.01644
1531.35067	0.01631
1530.06490	0.01626
1528.77914	0.01629
1527.49337	0.01637
1526.20760	0.01647
1524.92183	0.01656
1523.63606	0.01666
1522.35029	0.01679
1521.06452	0.01700
1519.77875	0.01726
1518.49298	0.01752
1517.20722	0.01777
1515.92145	0.01802
1514.63568	0.01835
1513.34991	0.01876
1512.06414	0.01922
1510.77837	0.01968
1509.49260	0.02012
1508.20683	0.02054
1506.92107	0.02100
1505.63530	0.02149
1504.34953	0.02198
1503.06376	0.02245
1501.77799	0.02288
1500.49222	0.02326
1499.20645	0.02361
1497.92068	0.02397
1496.63491	0.02436
1495.34915	0.02477
1494.06338	0.02517
1492.77761	0.02553
1491.49184	0.02584
1490.20607	0.02615
1488.92030	0.02651
1487.63453	0.02698
1486.34876	0.02755
1485.06299	0.02819
1483.77723	0.02884
1482.49146	0.02946
1481.20569	0.03008
1479.91992	0.03074
1478.63415	0.03146
1477.34838	0.03222
1476.06261	0.03296
1474.77684	0.03367
1473.49108	0.03434
1472.20531	0.03493
1470.91954	0.03538
1469.63377	0.03569
1468.34800	0.03588
1467.06223	0.03602
1465.77646	0.03617
1464.49069	0.03636
1463.20492	0.03657
1461.91916	0.03679
1460.63339	0.03701
1459.34762	0.03727
1458.06185	0.03761
1456.77608	0.03801
1455.49031	0.03842
1454.20454	0.03872
1452.91877	0.03890
1451.63301	0.03898
1450.34724	0.03900
1449.06147	0.03896
1447.77570	0.03882
1446.48993	0.03858
1445.20416	0.03825
1443.91839	0.03787
1442.63262	0.03744
1441.34685	0.03696
1440.06109	0.03648
1438.77532	0.03611
1437.48955	0.03590
1436.20378	0.03588
1434.91801	0.03601
1433.63224	0.03625
1432.34647	0.03658
1431.06070	0.03703
1429.77494	0.03761
1428.48917	0.03828
1427.20340	0.03900
1425.91763	0.03971
1424.63186	0.04040
1423.34609	0.04102
1422.06032	0.04156
1420.77455	0.04202
1419.48878	0.04241
1418.20302	0.04274
1416.91725	0.04294
1415.63148	0.04299
1414.34571	0.04292
1413.05994	0.04278
1411.77417	0.04261
1410.48840	0.04238
1409.20263	0.04203
1407.91687	0.04154
1406.63110	0.04087
1405.34533	0.04004
1404.05956	0.03910
1402.77379	0.03811
1401.48802	0.03714
1400.20225	0.03618
1398.91648	0.03522
1397.63071	0.03427
1396.34495	0.03335
1395.05918	0.03245
1393.77341	0.03160
1392.48764	0.03076
1391.20187	0.02993
1389.91610	0.02908
1388.63033	0.02823
1387.34456	0.02741
1386.05880	0.02667
1384.77303	0.02598
1383.48726	0.02527
1382.20149	0.02449
1380.91572	0.02365
1379.62995	0.02282
1378.34418	0.02205
1377.05841	0.02138
1375.77264	0.02077
1374.48688	0.02018
1373.20111	0.01956
1371.91534	0.01892
1370.62957	0.01830
1369.34380	0.01773
1368.05803	0.01724
1366.77226	0.01682
1365.48649	0.01644
1364.20073	0.01606
1362.91496	0.01568
1361.62919	0.01529
1360.34342	0.01490
1359.05765	0.01451
1357.77188	0.01414
1356.48611	0.01381
1355.20034	0.01354
1353.91457	0.01332
1352.62881	0.01314
1351.34304	0.01299
1350.05727	0.01283
1348.77150	0.01264
1347.48573	0.01240
1346.19996	0.01216
1344.91419	0.01193
1343.62842	0.01172
1342.34266	0.01153
1341.05689	0.01136
1339.77112	0.01120
1338.48535	0.01105
1337.19958	0.01090
1335.91381	0.01077
1334.62804	0.01065
1333.34227	0.01055
1332.05650	0.01045
1330.77074	0.01034
1329.48497	0.01024
1328.19920	0.01017
1326.91343	0.01012
1325.62766	0.01009
1324.34189	0.01004
1323.05612	0.00995
1321.77035	0.00983
1320.48459	0.00973
1319.19882	0.00968
1317.91305	0.00964
1316.62728	0.00957
1315.34151	0.00943
1314.05574	0.00930
1312.76997	0.00922
1311.48420	0.00923
1310.19843	0.00925
1308.91267	0.00924
1307.62690	0.00916
1306.34113	0.00904
1305.05536	0.00893
1303.76959	0.00887
1302.48382	0.00887
1301.19805	0.00891
1299.91228	0.00892
1298.62652	0.00888
1297.34075	0.00883
1296.05498	0.00880
1294.76921	0.00880
1293.48344	0.00878
1292.19767	0.00873
1290.91190	0.00864
1289.62613	0.00855
1288.34036	0.00850
1287.05460	0.00850
1285.76883	0.00852
1284.48306	0.00854
1283.19729	0.00853
1281.91152	0.00849
1280.62575	0.00842
1279.33998	0.00837
1278.05421	0.00834
1276.76845	0.00835
1275.48268	0.00837
1274.19691	0.00839
1272.91114	0.00838
1271.62537	0.00837
1270.33960	0.00836
1269.05383	0.00835
1267.76806	0.00834
1266.48229	0.00831
1265.19653	0.00826
1263.91076	0.00821
1262.62499	0.00816
1261.33922	0.00814
1260.05345	0.00816
1258.76768	0.00820
1257.48191	0.00823
1256.19614	0.00821
1254.91037	0.00817
1253.62461	0.00817
1252.33884	0.00823
1251.05307	0.00832
1249.76730	0.00840
1248.48153	0.00846
1247.19576	0.00850
1245.90999	0.00855
1244.62422	0.00856
1243.33846	0.00853
1242.05269	0.00847
1240.76692	0.00839
1239.48115	0.00834
1238.19538	0.00835
1236.90961	0.00840
1235.62384	0.00845
1234.33807	0.00848
1233.05230	0.00850
1231.76654	0.00853
1230.48077	0.00855
1229.19500	0.00857
1227.90923	0.00858
1226.62346	0.00859
1225.33769	0.00860
1224.05192	0.00860
1222.76615	0.00859
1221.48039	0.00860
1220.19462	0.00864
1218.90885	0.00873
1217.62308	0.00883
1216.33731	0.00893
1215.05154	0.00902
1213.76577	0.00910
1212.48000	0.00919
1211.19423	0.00928
1209.90847	0.00936
1208.62270	0.00943
1207.33693	0.00951
1206.05116	0.00961
1204.76539	0.00970
1203.47962	0.00979
1202.19385	0.00987
1200.90808	0.00997
1199.62232	0.01010
1198.33655	0.01023
1197.05078	0.01035
1195.76501	0.01047
1194.47924	0.01054
1193.19347	0.01052
1191.90770	0.01046
1190.62193	0.01042
1189.33616	0.01048
1188.05040	0.01058
1186.76463	0.01068
1185.47886	0.01078
1184.19309	0.01092
1182.90732	0.01109
1181.62155	0.01126
1180.33578	0.01141
1179.05001	0.01153
1177.76425	0.01166
1176.47848	0.01178
1175.19271	0.01185
1173.90694	0.01189
1172.62117	0.01196
1171.33540	0.01210
1170.04963	0.01229
1168.76386	0.01242
1167.47809	0.01245
1166.19233	0.01243
1164.90656	0.01250
1163.62079	0.01269
1162.33502	0.01292
1161.04925	0.01312
1159.76348	0.01330
1158.47771	0.01352
1157.19194	0.01378
1155.90618	0.01405
1154.62041	0.01432
1153.33464	0.01464
1152.04887	0.01499
1150.76310	0.01536
1149.47733	0.01570
1148.19156	0.01604
1146.90579	0.01642
1145.62002	0.01687
1144.33426	0.01738
1143.04849	0.01793
1141.76272	0.01851
1140.47695	0.01914
1139.19118	0.01988
1137.90541	0.02076
1136.61964	0.02177
1135.33387	0.02287
1134.04811	0.02400
1132.76234	0.02520
1131.47657	0.02654
1130.19080	0.02813
1128.90503	0.02999
1127.61926	0.03206
1126.33349	0.03425
1125.04772	0.03650
1123.76195	0.03882
1122.47619	0.04124
1121.19042	0.04374
1119.90465	0.04628
1118.61888	0.04883
1117.33311	0.05134
1116.04734	0.05378
1114.76157	0.05611
1113.47580	0.05832
1112.19004	0.06049
1110.90427	0.06267
1109.61850	0.06484
1108.33273	0.06693
1107.04696	0.06893
1105.76119	0.07089
1104.47542	0.07287
1103.18965	0.07483
1101.90388	0.07674
1100.61812	0.07857
1099.33235	0.08032
1098.04658	0.08200
1096.76081	0.08359
1095.47504	0.08508
1094.18927	0.08644
1092.90350	0.08763
1091.61773	0.08866
1090.33197	0.08959
1089.04620	0.09050
1087.76043	0.09148
1086.47466	0.09255
1085.18889	0.09373
1083.90312	0.09501
1082.61735	0.09639
1081.33158	0.09787
1080.04581	0.09950
1078.76005	0.10135
1077.47428	0.10342
1076.18851	0.10565
1074.90274	0.10798
1073.61697	0.11036
1072.33120	0.11280
1071.04543	0.11526
1069.75966	0.11773
1068.47390	0.12027
1067.18813	0.12290
1065.90236	0.12564
1064.61659	0.12841
1063.33082	0.13120
1062.04505	0.13400
1060.75928	0.13680
1059.47351	0.13956
1058.18774	0.14225
1056.90198	0.14485
1055.61621	0.14741
1054.33044	0.14999
1053.04467	0.15267
1051.75890	0.15548
1050.47313	0.15842
1049.18736	0.16144
1047.90159	0.16450
1046.61583	0.16757
1045.33006	0.17067
1044.04429	0.17385
1042.75852	0.17711
1041.47275	0.18039
1040.18698	0.18362
1038.90121	0.18677
1037.61544	0.18984
1036.32967	0.19279
1035.04391	0.19554
1033.75814	0.19802
1032.47237	0.20019
1031.18660	0.20204
1029.90083	0.20350
1028.61506	0.20447
1027.32929	0.20486
1026.04352	0.20466
1024.75775	0.20391
1023.47199	0.20263
1022.18622	0.20077
1020.90045	0.19834
1019.61468	0.19537
1018.32891	0.19191
1017.04314	0.18797
1015.75737	0.18357
1014.47160	0.17872
1013.18584	0.17349
1011.90007	0.16798
1010.61430	0.16229
1009.32853	0.15645
1008.04276	0.15046
1006.75699	0.14433
1005.47122	0.13810
1004.18545	0.13180
1002.89968	0.12551
1001.61392	0.11927
1000.32815	0.11313
999.04238	0.10713
997.75661	0.10136
996.47084	0.09590
995.18507	0.09078
993.89930	0.08598
992.61353	0.08142
991.32777	0.07711
990.04200	0.07306
988.75623	0.06929
987.47046	0.06582
986.18469	0.06265
984.89892	0.05976
983.61315	0.05709
982.32738	0.05461
981.04161	0.05229
979.75585	0.05011
978.47008	0.04808
977.18431	0.04623
975.89854	0.04464
974.61277	0.04343
973.32700	0.04262
972.04123	0.04221
970.75546	0.04215
969.46970	0.04243
968.18393	0.04300
966.89816	0.04381
965.61239	0.04472
964.32662	0.04560
963.04085	0.04628
961.75508	0.04657
960.46931	0.04639
959.18354	0.04575
957.89778	0.04473
956.61201	0.04340
955.32624	0.04183
954.04047	0.04016
952.75470	0.03855
951.46893	0.03710
950.18316	0.03579
948.89739	0.03457
947.61163	0.03341
946.32586	0.03232
945.04009	0.03126
943.75432	0.03019
942.46855	0.02913
941.18278	0.02813
939.89701	0.02728
938.61124	0.02660
937.32547	0.02606
936.03971	0.02561
934.75394	0.02520
933.46817	0.02476
932.18240	0.02428
930.89663	0.02379
929.61086	0.02335
928.32509	0.02297
927.03932	0.02267
925.75356	0.02242
924.46779	0.02219
923.18202	0.02192
921.89625	0.02159
920.61048	0.02125
919.32471	0.02095
918.03894	0.02071
916.75317	0.02049
915.46740	0.02026
914.18164	0.02002
912.89587	0.01978
911.61010	0.01958
910.32433	0.01946
909.03856	0.01941
907.75279	0.01939
906.46702	0.01935
905.18125	0.01924
903.89549	0.01906
902.60972	0.01887
901.32395	0.01872
900.03818	0.01860
898.75241	0.01851
897.46664	0.01844
896.18087	0.01835
894.89510	0.01822
893.60933	0.01805
892.32357	0.01789
891.03780	0.01787
889.75203	0.01804
888.46626	0.01839
887.18049	0.01888
885.89472	0.01952
884.60895	0.02036
883.32318	0.02141
882.03742	0.02260
880.75165	0.02373
879.46588	0.02460
878.18011	0.02522
876.89434	0.02579
875.60857	0.02654
874.32280	0.02737
873.03703	0.02797
871.75126	0.02807
870.46550	0.02764
869.17973	0.02688
867.89396	0.02595
866.60819	0.02487
865.32242	0.02364
864.03665	0.02235
862.75088	0.02119
861.46511	0.02030
860.17935	0.01968
858.89358	0.01923
857.60781	0.01886
856.32204	0.01853
855.03627	0.01826
853.75050	0.01802
852.46473	0.01783
851.17896	0.01766
849.89319	0.01750
848.60743	0.01737
847.32166	0.01726
846.03589	0.01718
844.75012	0.01713
843.46435	0.01712
842.17858	0.01710
840.89281	0.01703
839.60704	0.01687
838.32128	0.01666
837.03551	0.01651
835.74974	0.01648
834.46397	0.01649
833.17820	0.01646
831.89243	0.01634
830.60666	0.01617
829.32089	0.01603
828.03512	0.01594
826.74936	0.01595
825.46359	0.01600
824.17782	0.01600
822.89205	0.01593
821.60628	0.01584
820.32051	0.01584
819.03474	0.01596
817.74897	0.01611
816.46321	0.01619
815.17744	0.01616
813.89167	0.01609
812.60590	0.01603
811.32013	0.01602
810.03436	0.01607
808.74859	0.01614
807.46282	0.01619
806.17705	0.01621
804.89129	0.01622
803.60552	0.01627
802.31975	0.01637
801.03398	0.01652
799.74821	0.01666
798.46244	0.01672
797.17667	0.01665
795.89090	0.01647
794.60513	0.01628
793.31937	0.01613
792.03360	0.01608
790.74783	0.01609
789.46206	0.01616
788.17629	0.01627
786.89052	0.01640
785.60475	0.01654
784.31898	0.01664
783.03322	0.01668
781.74745	0.01667
780.46168	0.01661
779.17591	0.01653
777.89014	0.01647
776.60437	0.01647
775.31860	0.01652
774.03283	0.01658
772.74706	0.01663
771.46130	0.01664
770.17553	0.01662
768.88976	0.01660
767.60399	0.01663
766.31822	0.01668
765.03245	0.01669
763.74668	0.01658
762.46091	0.01636
761.17515	0.01613
759.88938	0.01598
758.60361	0.01598
757.31784	0.01612
756.03207	0.01638
754.74630	0.01669
753.46053	0.01699
752.17476	0.01717
750.88899	0.01717
749.60323	0.01704
748.31746	0.01691
747.03169	0.01684
745.74592	0.01680
744.46015	0.01674
743.17438	0.01668
741.88861	0.01665
740.60284	0.01666
739.31708	0.01668
738.03131	0.01672
736.74554	0.01683
735.45977	0.01697
734.17400	0.01706
732.88823	0.01705
731.60246	0.01695
730.31669	0.01681
729.03092	0.01668
727.74516	0.01662
726.45939	0.01665
725.17362	0.01681
723.88785	0.01757
722.60208	0.01725
721.31631	0.01631
720.03054	0.01544
718.74477	0.01483
717.45901	0.01464
716.17324	0.01476
714.88747	0.01516
713.60170	0.01579
712.31593	0.01647
711.03016	0.01699
709.74439	0.01728
708.45862	0.01740
707.17285	0.01749
705.88709	0.01757
704.60132	0.01765
703.31555	0.01771
702.02978	0.01775
700.74401	0.01775
699.45824	0.01766
698.17247	0.01740
696.88670	0.01698
695.60094	0.01651
694.31517	0.01610
693.02940	0.01589
691.74363	0.01586
690.45786	0.01595
689.17209	0.01608
687.88632	0.01619
686.60055	0.01626
685.31478	0.01631
684.02902	0.01639
682.74325	0.01654
681.45748	0.01678
680.17171	0.01708
678.88594	0.01738
677.60017	0.01768
676.31440	0.01798
675.02863	0.01811
673.74287	0.01739
672.45710	0.01489
671.17133	0.01115
669.88556	0.00986
668.59979	0.01324
667.31402	0.01464
666.02825	0.01320
664.74248	0.01458
663.45671	0.01717
662.17095	0.01850
660.88518	0.01856
659.59941	0.01821
658.31364	0.01795
657.02787	0.01786
655.74210	0.01785
654.45633	0.01782
653.17056	0.01779
651.88480	0.01778
650.59903	0.01784
649.31326	0.01804
648.02749	0.01830
646.74172	0.01860
645.45595	0.01885
644.17018	0.01903
642.88441	0.01921
641.59864	0.01949
640.31288	0.01990
639.02711	0.02038
637.74134	0.02085
636.45557	0.02123
635.16980	0.02148
633.88403	0.02170
632.59826	0.02199
631.31249	0.02238
630.02673	0.02280
628.74096	0.02318
627.45519	0.02358
626.16942	0.02384
624.88365	0.02429
623.59788	0.02523
622.31211	0.02670
621.02634	0.02864
619.74057	0.03105
618.45481	0.03361
617.16904	0.03555
615.88327	0.03653
614.59750	0.03716
613.31173	0.03856
612.02596	0.04156
610.74019	0.04637
609.45442	0.05242
608.16866	0.05864
606.88289	0.06405
605.59712	0.06803
604.31135	0.07031
603.02558	0.07092
601.73981	0.07021
600.45404	0.06852
599.16827	0.06605
597.88250	0.06300
596.59674	0.05971
595.31097	0.05659
594.02520	0.05402
592.73943	0.05225
591.45366	0.05130
590.16789	0.05106
588.88212	0.05137
587.59635	0.05209
586.31059	0.05317
585.02482	0.05456
583.73905	0.05628
582.45328	0.05839
581.16751	0.06094
579.88174	0.06387
578.59597	0.06691
577.31020	0.06977
576.02443	0.07229
574.73867	0.07457
573.45290	0.07677
572.16713	0.07901
570.88136	0.08139
569.59559	0.08401
568.30982	0.08693
567.02405	0.09006
565.73828	0.09309
564.45251	0.09551
563.16675	0.09677
561.88098	0.09636
560.59521	0.09406
559.30944	0.09001
558.02367	0.08466
556.73790	0.07864
555.45213	0.07257
554.16636	0.06688
552.88060	0.06177
551.59483	0.05726
550.30906	0.05324
549.02329	0.04964
547.73752	0.04647
546.45175	0.04377
545.16598	0.04148
543.88021	0.03950
542.59444	0.03774
541.30868	0.03621
540.02291	0.03489
538.73714	0.03373
537.45137	0.03269
536.16560	0.03176
534.87983	0.03088
533.59406	0.02996
532.30829	0.02896
531.02253	0.02793
529.73676	0.02700
528.45099	0.02624
527.16522	0.02562
525.87945	0.02509
524.59368	0.02462
523.30791	0.02423
522.02214	0.02393
520.73637	0.02363
519.45061	0.02325
518.16484	0.02281
516.87907	0.02243
515.59330	0.02220
514.30753	0.02201
513.02176	0.02174
511.73599	0.02132
510.45022	0.02087
509.16446	0.02056
507.87869	0.02042
506.59292	0.02035
505.30715	0.02021
504.02138	0.01992
502.73561	0.01955
501.44984	0.01924
500.16407	0.01903
498.87830	0.01890
497.59254	0.01883
496.30677	0.01880
495.02100	0.01878
493.73523	0.01871
492.44946	0.01855
491.16369	0.01837
489.87792	0.01826
488.59215	0.01826
487.30639	0.01833
486.02062	0.01842
484.73485	0.01850
483.44908	0.01857
482.16331	0.01863
480.87754	0.01870
479.59177	0.01877
478.30600	0.01888
477.02023	0.01907
475.73447	0.01935
474.44870	0.01968
473.16293	0.01996
471.87716	0.02015
470.59139	0.02021
469.30562	0.02015
468.01985	0.01997
466.73408	0.01965
465.44832	0.01925
464.16255	0.01885
462.87678	0.01854
461.59101	0.01833
460.30524	0.01818
459.01947	0.01805
457.73370	0.01789
456.44793	0.01769
455.16216	0.01744
453.87640	0.01717
452.59063	0.01692
451.30486	0.01670
450.01909	0.01652
448.73332	0.01636
447.44755	0.01622
446.16178	0.01612
444.87601	0.01608
443.59025	0.01610
442.30448	0.01612
441.01871	0.01612
439.73294	0.01614
438.44717	0.01620
437.16140	0.01625
435.87563	0.01623
434.58986	0.01609
433.30409	0.01588
432.01833	0.01570
430.73256	0.01562
429.44679	0.01563
428.16102	0.01566
426.87525	0.01561
425.58948	0.01545
424.30371	0.01521
423.01794	0.01495
421.73218	0.01477
420.44641	0.01472
419.16064	0.01478
417.87487	0.01487
416.58910	0.01491
415.30333	0.01486
414.01756	0.01476
412.73179	0.01464
411.44602	0.01454
410.16026	0.01450
408.87449	0.01453
407.58872	0.01461
406.30295	0.01475
405.01718	0.01490
403.73141	0.01505
402.44564	0.01517
401.15987	0.01521
399.87411	0.01518
