3997.45528	0.04352
3996.16951	0.04286
3994.88374	0.04256
3993.59798	0.04255
3992.31221	0.04262
3991.02644	0.04276
3989.74067	0.04305
3988.45490	0.04342
3987.16913	0.04362
3985.88336	0.04357
3984.59759	0.04349
3983.31183	0.04369
3982.02606	0.04421
3980.74029	0.04474
3979.45452	0.04490
3978.16875	0.04457
3976.88298	0.04396
3975.59721	0.04347
3974.31144	0.04331
3973.02567	0.04342
3971.73991	0.04359
3970.45414	0.04361
3969.16837	0.04339
3967.88260	0.04298
3966.59683	0.04264
3965.31106	0.04269
3964.02529	0.04313
3962.73952	0.04355
3961.45376	0.04343
3960.16799	0.04277
3958.88222	0.04214
3957.59645	0.04200
3956.31068	0.04223
3955.02491	0.04228
3953.73914	0.04189
3952.45337	0.04123
3951.16760	0.04066
3949.88184	0.04037
3948.59607	0.04050
3947.31030	0.04109
3946.02453	0.04188
3944.73876	0.04239
3943.45299	0.04231
3942.16722	0.04191
3940.88145	0.04176
3939.59569	0.04216
3938.30992	0.04286
3937.02415	0.04346
3935.73838	0.04375
3934.45261	0.04383
3933.16684	0.04382
3931.88107	0.04376
3930.59530	0.04354
3929.30953	0.04312
3928.02377	0.04255
3926.73800	0.04200
3925.45223	0.04161
3924.16646	0.04137
3922.88069	0.04122
3921.59492	0.04106
3920.30915	0.04097
3919.02338	0.04108
3917.73762	0.04148
3916.45185	0.04201
3915.16608	0.04243
3913.88031	0.04264
3912.59454	0.04274
3911.30877	0.04284
3910.02300	0.04284
3908.73723	0.04254
3907.45146	0.04181
3906.16570	0.04095
3904.87993	0.04056
3903.59416	0.04101
3902.30839	0.04204
3901.02262	0.04299
3899.73685	0.04338
3898.45108	0.04325
3897.16531	0.04296
3895.87955	0.04287
3894.59378	0.04309
3893.30801	0.04347
3892.02224	0.04368
3890.73647	0.04348
3889.45070	0.04292
3888.16493	0.04222
3886.87916	0.04162
3885.59339	0.04134
3884.30763	0.04148
3883.02186	0.04201
3881.73609	0.04266
3880.45032	0.04300
3879.16455	0.04273
3877.87878	0.04197
3876.59301	0.04120
3875.30724	0.04083
3874.02148	0.04085
3872.73571	0.04093
3871.44994	0.04074
3870.16417	0.04026
3868.87840	0.03970
3867.59263	0.03936
3866.30686	0.03938
3865.02109	0.03961
3863.73532	0.03970
3862.44956	0.03946
3861.16379	0.03906
3859.87802	0.03899
3858.59225	0.03951
3857.30648	0.04042
3856.02071	0.04109
3854.73494	0.04105
3853.44917	0.04031
3852.16341	0.03938
3850.87764	0.03876
3849.59187	0.03863
3848.30610	0.03878
3847.02033	0.03888
3845.73456	0.03876
3844.44879	0.03844
3843.16302	0.03805
3841.87725	0.03779
3840.59149	0.03788
3839.30572	0.03845
3838.01995	0.03939
3836.73418	0.04038
3835.44841	0.04101
3834.16264	0.04101
3832.87687	0.04042
3831.59110	0.03957
3830.30534	0.03887
3829.01957	0.03860
3827.73380	0.03875
3826.44803	0.03910
3825.16226	0.03938
3823.87649	0.03937
3822.59072	0.03900
3821.30495	0.03835
3820.01918	0.03768
3818.73342	0.03734
3817.44765	0.03753
3816.16188	0.03819
3814.87611	0.03913
3813.59034	0.04017
3812.30457	0.04120
3811.01880	0.04196
3809.73303	0.04214
3808.44726	0.04162
3807.16150	0.04073
3805.87573	0.04010
3804.58996	0.04010
3803.30419	0.04057
3802.01842	0.04104
3800.73265	0.04106
3799.44688	0.04054
3798.16111	0.03972
3796.87535	0.03908
3795.58958	0.03901
3794.30381	0.03953
3793.01804	0.04016
3791.73227	0.04043
3790.44650	0.04025
3789.16073	0.03991
3787.87496	0.03968
3786.58919	0.03953
3785.30343	0.03933
3784.01766	0.03915
3782.73189	0.03925
3781.44612	0.03973
3780.16035	0.04028
3778.87458	0.04039
3777.58881	0.03982
3776.30304	0.03885
3775.01728	0.03802
3773.73151	0.03762
3772.44574	0.03753
3771.15997	0.03743
3769.87420	0.03717
3768.58843	0.03684
3767.30266	0.03662
3766.01689	0.03671
3764.73112	0.03717
3763.44536	0.03787
3762.15959	0.03847
3760.87382	0.03870
3759.58805	0.03857
3758.30228	0.03824
3757.01651	0.03782
3755.73074	0.03732
3754.44497	0.03674
3753.15921	0.03614
3751.87344	0.03557
3750.58767	0.03514
3749.30190	0.03502
3748.01613	0.03528
3746.73036	0.03579
3745.44459	0.03641
3744.15882	0.03704
3742.87305	0.03755
3741.58729	0.03778
3740.30152	0.03758
3739.01575	0.03698
3737.72998	0.03607
3736.44421	0.03504
3735.15844	0.03422
3733.87267	0.03389
3732.58690	0.03407
3731.30114	0.03441
3730.01537	0.03449
3728.72960	0.03423
3727.44383	0.03397
3726.15806	0.03427
3724.87229	0.03530
3723.58652	0.03657
3722.30075	0.03731
3721.01498	0.03721
3719.72922	0.03661
3718.44345	0.03610
3717.15768	0.03601
3715.87191	0.03633
3714.58614	0.03691
3713.30037	0.03759
3712.01460	0.03821
3710.72883	0.03869
3709.44307	0.03899
3708.15730	0.03912
3706.87153	0.03896
3705.58576	0.03841
3704.29999	0.03770
3703.01422	0.03724
3701.72845	0.03722
3700.44268	0.03743
3699.15691	0.03749
3697.87115	0.03717
3696.58538	0.03652
3695.29961	0.03587
3694.01384	0.03558
3692.72807	0.03576
3691.44230	0.03599
3690.15653	0.03576
3688.87076	0.03501
3687.58500	0.03424
3686.29923	0.03397
3685.01346	0.03440
3683.72769	0.03534
3682.44192	0.03644
3681.15615	0.03733
3679.87038	0.03777
3678.58461	0.03773
3677.29884	0.03738
3676.01308	0.03695
3674.72731	0.03668
3673.44154	0.03671
3672.15577	0.03709
3670.87000	0.03769
3669.58423	0.03814
3668.29846	0.03805
3667.01269	0.03736
3665.72693	0.03655
3664.44116	0.03619
3663.15539	0.03651
3661.86962	0.03728
3660.58385	0.03822
3659.29808	0.03917
3658.01231	0.04003
3656.72654	0.04052
3655.44077	0.04033
3654.15501	0.03950
3652.86924	0.03850
3651.58347	0.03794
3650.29770	0.03808
3649.01193	0.03867
3647.72616	0.03931
3646.44039	0.03971
3645.15462	0.03986
3643.86886	0.03981
3642.58309	0.03957
3641.29732	0.03910
3640.01155	0.03857
3638.72578	0.03836
3637.44001	0.03872
3636.15424	0.03945
3634.86847	0.04003
3633.58270	0.04011
3632.29694	0.03969
3631.01117	0.03905
3629.72540	0.03857
3628.43963	0.03857
3627.15386	0.03911
3625.86809	0.03999
3624.58232	0.04088
3623.29655	0.04157
3622.01079	0.04198
3620.72502	0.04205
3619.43925	0.04181
3618.15348	0.04143
3616.86771	0.04120
3615.58194	0.04127
3614.29617	0.04152
3613.01040	0.04163
3611.72463	0.04144
3610.43887	0.04113
3609.15310	0.04111
3607.86733	0.04159
3606.58156	0.04246
3605.29579	0.04338
3604.01002	0.04413
3602.72425	0.04472
3601.43848	0.04522
3600.15272	0.04568
3598.86695	0.04615
3597.58118	0.04658
3596.29541	0.04680
3595.00964	0.04661
3593.72387	0.04607
3592.43810	0.04553
3591.15233	0.04534
3589.86656	0.04555
3588.58080	0.04601
3587.29503	0.04658
3586.00926	0.04725
3584.72349	0.04805
3583.43772	0.04896
3582.15195	0.04983
3580.86618	0.05042
3579.58041	0.05057
3578.29464	0.05039
3577.00888	0.05019
3575.72311	0.05017
3574.43734	0.05024
3573.15157	0.05022
3571.86580	0.05013
3570.58003	0.05018
3569.29426	0.05044
3568.00849	0.05075
3566.72273	0.05093
3565.43696	0.05092
3564.15119	0.05077
3562.86542	0.05058
3561.57965	0.05048
3560.29388	0.05061
3559.00811	0.05098
3557.72234	0.05136
3556.43657	0.05138
3555.15081	0.05094
3553.86504	0.05039
3552.57927	0.05034
3551.29350	0.05115
3550.00773	0.05256
3548.72196	0.05390
3547.43619	0.05460
3546.15042	0.05452
3544.86466	0.05402
3543.57889	0.05362
3542.29312	0.05358
3541.00735	0.05379
3539.72158	0.05403
3538.43581	0.05428
3537.15004	0.05459
3535.86427	0.05498
3534.57850	0.05533
3533.29274	0.05558
3532.00697	0.05574
3530.72120	0.05591
3529.43543	0.05613
3528.14966	0.05639
3526.86389	0.05656
3525.57812	0.05663
3524.29235	0.05670
3523.00659	0.05692
3521.72082	0.05738
3520.43505	0.05801
3519.14928	0.05871
3517.86351	0.05934
3516.57774	0.05977
3515.29197	0.05993
3514.00620	0.05982
3512.72043	0.05959
3511.43467	0.05933
3510.14890	0.05905
3508.86313	0.05876
3507.57736	0.05855
3506.29159	0.05849
3505.00582	0.05849
3503.72005	0.05842
3502.43428	0.05830
3501.14852	0.05829
3499.86275	0.05855
3498.57698	0.05914
3497.29121	0.06003
3496.00544	0.06105
3494.71967	0.06185
3493.43390	0.06211
3492.14813	0.06179
3490.86236	0.06109
3489.57660	0.06034
3488.29083	0.05982
3487.00506	0.05967
3485.71929	0.05996
3484.43352	0.06056
3483.14775	0.06123
3481.86198	0.06174
3480.57621	0.06200
3479.29045	0.06215
3478.00468	0.06232
3476.71891	0.06252
3475.43314	0.06271
3474.14737	0.06293
3472.86160	0.06328
3471.57583	0.06371
3470.29006	0.06395
3469.00429	0.06375
3467.71853	0.06311
3466.43276	0.06231
3465.14699	0.06179
3463.86122	0.06184
3462.57545	0.06246
3461.28968	0.06328
3460.00391	0.06392
3458.71814	0.06425
3457.43238	0.06441
3456.14661	0.06458
3454.86084	0.06474
3453.57507	0.06480
3452.28930	0.06470
3451.00353	0.06448
3449.71776	0.06424
3448.43199	0.06410
3447.14622	0.06416
3445.86046	0.06453
3444.57469	0.06517
3443.28892	0.06588
3442.00315	0.06633
3440.71738	0.06630
3439.43161	0.06587
3438.14584	0.06541
3436.86007	0.06525
3435.57431	0.06545
3434.28854	0.06580
3433.00277	0.06601
3431.71700	0.06599
3430.43123	0.06593
3429.14546	0.06611
3427.85969	0.06659
3426.57392	0.06712
3425.28815	0.06738
3424.00239	0.06728
3422.71662	0.06709
3421.43085	0.06707
3420.14508	0.06728
3418.85931	0.06750
3417.57354	0.06751
3416.28777	0.06728
3415.00200	0.06695
3413.71624	0.06676
3412.43047	0.06690
3411.14470	0.06740
3409.85893	0.06808
3408.57316	0.06873
3407.28739	0.06913
3406.00162	0.06926
3404.71585	0.06916
3403.43008	0.06893
3402.14432	0.06864
3400.85855	0.06835
3399.57278	0.06809
3398.28701	0.06796
3397.00124	0.06801
3395.71547	0.06833
3394.42970	0.06893
3393.14393	0.06957
3391.85817	0.06985
3390.57240	0.06960
3389.28663	0.06910
3388.00086	0.06875
3386.71509	0.06872
3385.42932	0.06882
3384.14355	0.06887
3382.85778	0.06887
3381.57201	0.06892
3380.28625	0.06900
3379.00048	0.06900
3377.71471	0.06881
3376.42894	0.06845
3375.14317	0.06810
3373.85740	0.06792
3372.57163	0.06800
3371.28586	0.06833
3370.00010	0.06886
3368.71433	0.06945
3367.42856	0.06997
3366.14279	0.07036
3364.85702	0.07054
3363.57125	0.07048
3362.28548	0.07021
3360.99971	0.06991
3359.71394	0.06978
3358.42818	0.06982
3357.14241	0.06980
3355.85664	0.06960
3354.57087	0.06926
3353.28510	0.06891
3351.99933	0.06863
3350.71356	0.06852
3349.42779	0.06866
3348.14202	0.06901
3346.85626	0.06941
3345.57049	0.06967
3344.28472	0.06971
3342.99895	0.06953
3341.71318	0.06921
3340.42741	0.06882
3339.14164	0.06852
3337.85587	0.06851
3336.57011	0.06886
3335.28434	0.06949
3333.99857	0.07012
3332.71280	0.07054
3331.42703	0.07065
3330.14126	0.07048
3328.85549	0.07013
3327.56972	0.06971
3326.28395	0.06929
3324.99819	0.06891
3323.71242	0.06863
3322.42665	0.06859
3321.14088	0.06877
3319.85511	0.06896
3318.56934	0.06895
3317.28357	0.06883
3315.99780	0.06878
3314.71204	0.06884
3313.42627	0.06887
3312.14050	0.06886
3310.85473	0.06901
3309.56896	0.06943
3308.28319	0.06993
3306.99742	0.07019
3305.71165	0.07005
3304.42588	0.06969
3303.14012	0.06937
3301.85435	0.06925
3300.56858	0.06925
3299.28281	0.06924
3297.99704	0.06910
3296.71127	0.06883
3295.42550	0.06856
3294.13973	0.06838
3292.85397	0.06827
3291.56820	0.06822
3290.28243	0.06827
3288.99666	0.06848
3287.71089	0.06878
3286.42512	0.06891
3285.13935	0.06868
3283.85358	0.06819
3282.56781	0.06777
3281.28205	0.06767
3279.99628	0.06783
3278.71051	0.06793
3277.42474	0.06776
3276.13897	0.06736
3274.85320	0.06700
3273.56743	0.06694
3272.28166	0.06728
3270.99590	0.06784
3269.71013	0.06822
3268.42436	0.06816
3267.13859	0.06767
3265.85282	0.06700
3264.56705	0.06638
3263.28128	0.06596
3261.99551	0.06580
3260.70974	0.06597
3259.42398	0.06643
3258.13821	0.06706
3256.85244	0.06769
3255.56667	0.06820
3254.28090	0.06846
3252.99513	0.06833
3251.70936	0.06778
3250.42359	0.06701
3249.13783	0.06637
3247.85206	0.06611
3246.56629	0.06619
3245.28052	0.06631
3243.99475	0.06622
3242.70898	0.06593
3241.42321	0.06555
3240.13744	0.06515
3238.85167	0.06473
3237.56591	0.06436
3236.28014	0.06426
3234.99437	0.06462
3233.70860	0.06535
3232.42283	0.06610
3231.13706	0.06653
3229.85129	0.06649
3228.56552	0.06608
3227.27976	0.06557
3225.99399	0.06519
3224.70822	0.06502
3223.42245	0.06492
3222.13668	0.06467
3220.85091	0.06420
3219.56514	0.06365
3218.27937	0.06321
3216.99360	0.06299
3215.70784	0.06297
3214.42207	0.06297
3213.13630	0.06285
3211.85053	0.06257
3210.56476	0.06228
3209.27899	0.06215
3207.99322	0.06225
3206.70745	0.06248
3205.42169	0.06265
3204.13592	0.06262
3202.85015	0.06232
3201.56438	0.06186
3200.27861	0.06149
3198.99284	0.06140
3197.70707	0.06156
3196.42130	0.06177
3195.13553	0.06191
3193.84977	0.06204
3192.56400	0.06219
3191.27823	0.06230
3189.99246	0.06221
3188.70669	0.06194
3187.42092	0.06164
3186.13515	0.06150
3184.84938	0.06152
3183.56362	0.06161
3182.27785	0.06178
3180.99208	0.06203
3179.70631	0.06228
3178.42054	0.06238
3177.13477	0.06226
3175.84900	0.06200
3174.56323	0.06170
3173.27746	0.06134
3171.99170	0.06092
3170.70593	0.06055
3169.42016	0.06035
3168.13439	0.06029
3166.84862	0.06025
3165.56285	0.06019
3164.27708	0.06016
3162.99131	0.06014
3161.70555	0.06004
3160.41978	0.05981
3159.13401	0.05955
3157.84824	0.05935
3156.56247	0.05920
3155.27670	0.05901
3153.99093	0.05876
3152.70516	0.05846
3151.41939	0.05816
3150.13363	0.05786
3148.84786	0.05758
3147.56209	0.05736
3146.27632	0.05726
3144.99055	0.05730
3143.70478	0.05742
3142.41901	0.05745
3141.13324	0.05730
3139.84748	0.05704
3138.56171	0.05684
3137.27594	0.05683
3135.99017	0.05698
3134.70440	0.05723
3133.41863	0.05752
3132.13286	0.05783
3130.84709	0.05814
3129.56132	0.05833
3128.27556	0.05831
3126.98979	0.05806
3125.70402	0.05773
3124.41825	0.05749
3123.13248	0.05741
3121.84671	0.05745
3120.56094	0.05749
3119.27517	0.05737
3117.98940	0.05702
3116.70364	0.05653
3115.41787	0.05609
3114.13210	0.05589
3112.84633	0.05593
3111.56056	0.05607
3110.27479	0.05612
3108.98902	0.05600
3107.70325	0.05583
3106.41749	0.05582
3105.13172	0.05596
3103.84595	0.05603
3102.56018	0.05579
3101.27441	0.05526
3099.98864	0.05468
3098.70287	0.05426
3097.41710	0.05400
3096.13133	0.05385
3094.84557	0.05384
3093.55980	0.05399
3092.27403	0.05416
3090.98826	0.05414
3089.70249	0.05390
3088.41672	0.05362
3087.13095	0.05351
3085.84518	0.05355
3084.55942	0.05361
3083.27365	0.05360
3081.98788	0.05358
3080.70211	0.05366
3079.41634	0.05385
3078.13057	0.05399
3076.84480	0.05399
3075.55903	0.05385
3074.27326	0.05364
3072.98750	0.05348
3071.70173	0.05342
3070.41596	0.05350
3069.13019	0.05361
3067.84442	0.05362
3066.55865	0.05350
3065.27288	0.05334
3063.98711	0.05318
3062.70135	0.05293
3061.41558	0.05258
3060.12981	0.05225
3058.84404	0.05212
3057.55827	0.05223
3056.27250	0.05245
3054.98673	0.05261
3053.70096	0.05265
3052.41519	0.05253
3051.12943	0.05223
3049.84366	0.05175
3048.55789	0.05123
3047.27212	0.05091
3045.98635	0.05092
3044.70058	0.05118
3043.41481	0.05144
3042.12904	0.05149
3040.84328	0.05130
3039.55751	0.05095
3038.27174	0.05056
3036.98597	0.05027
3035.70020	0.05010
3034.41443	0.05000
3033.12866	0.04987
3031.84289	0.04969
3030.55712	0.04960
3029.27136	0.04968
3027.98559	0.04985
3026.69982	0.04995
3025.41405	0.04989
3024.12828	0.04972
3022.84251	0.04952
3021.55674	0.04942
3020.27097	0.04947
3018.98521	0.04968
3017.69944	0.04993
3016.41367	0.05007
3015.12790	0.04999
3013.84213	0.04972
3012.55636	0.04937
3011.27059	0.04907
3009.98482	0.04890
3008.69905	0.04880
3007.41329	0.04863
3006.12752	0.04835
3004.84175	0.04805
3003.55598	0.04786
3002.27021	0.04787
3000.98444	0.04803
2999.69867	0.04830
2998.41290	0.04861
2997.12714	0.04883
2995.84137	0.04884
2994.55560	0.04865
2993.26983	0.04837
2991.98406	0.04814
2990.69829	0.04810
2989.41252	0.04827
2988.12675	0.04864
2986.84098	0.04910
2985.55522	0.04959
2984.26945	0.05000
2982.98368	0.05023
2981.69791	0.05026
2980.41214	0.05019
2979.12637	0.05022
2977.84060	0.05048
2976.55483	0.05091
2975.26907	0.05137
2973.98330	0.05178
2972.69753	0.05217
2971.41176	0.05270
2970.12599	0.05344
2968.84022	0.05436
2967.55445	0.05534
2966.26868	0.05626
2964.98291	0.05701
2963.69715	0.05759
2962.41138	0.05800
2961.12561	0.05832
2959.83984	0.05861
2958.55407	0.05892
2957.26830	0.05924
2955.98253	0.05960
2954.69676	0.05996
2953.41100	0.06030
2952.12523	0.06059
2950.83946	0.06080
2949.55369	0.06092
2948.26792	0.06096
2946.98215	0.06098
2945.69638	0.06096
2944.41061	0.06085
2943.12484	0.06058
2941.83908	0.06025
2940.55331	0.06010
2939.26754	0.06036
2937.98177	0.06098
2936.69600	0.06171
2935.41023	0.06237
2934.12446	0.06289
2932.83869	0.06326
2931.55293	0.06348
2930.26716	0.06360
2928.98139	0.06379
2927.69562	0.06416
2926.40985	0.06461
2925.12408	0.06487
2923.83831	0.06471
2922.55254	0.06422
2921.26677	0.06371
2919.98101	0.06332
2918.69524	0.06293
2917.40947	0.06239
2916.12370	0.06168
2914.83793	0.06088
2913.55216	0.06015
2912.26639	0.05961
2910.98062	0.05933
2909.69486	0.05918
2908.40909	0.05894
2907.12332	0.05848
2905.83755	0.05788
2904.55178	0.05734
2903.26601	0.05699
2901.98024	0.05680
2900.69447	0.05671
2899.40870	0.05670
2898.12294	0.05671
2896.83717	0.05654
2895.55140	0.05598
2894.26563	0.05505
2892.97986	0.05400
2891.69409	0.05311
2890.40832	0.05252
2889.12255	0.05222
2887.83678	0.05209
2886.55102	0.05203
2885.26525	0.05200
2883.97948	0.05204
2882.69371	0.05216
2881.40794	0.05230
2880.12217	0.05244
2878.83640	0.05260
2877.55063	0.05281
2876.26487	0.05302
2874.97910	0.05315
2873.69333	0.05315
2872.40756	0.05310
2871.12179	0.05313
2869.83602	0.05337
2868.55025	0.05375
2867.26448	0.05410
2865.97871	0.05422
2864.69295	0.05408
2863.40718	0.05379
2862.12141	0.05342
2860.83564	0.05294
2859.54987	0.05236
2858.26410	0.05185
2856.97833	0.05161
2855.69256	0.05167
2854.40680	0.05177
2853.12103	0.05158
2851.83526	0.05097
2850.54949	0.05012
2849.26372	0.04935
2847.97795	0.04883
2846.69218	0.04850
2845.40641	0.04825
2844.12064	0.04811
2842.83488	0.04807
2841.54911	0.04794
2840.26334	0.04751
2838.97757	0.04679
2837.69180	0.04604
2836.40603	0.04546
2835.12026	0.04502
2833.83449	0.04463
2832.54873	0.04425
2831.26296	0.04389
2829.97719	0.04353
2828.69142	0.04314
2827.40565	0.04274
2826.11988	0.04238
2824.83411	0.04211
2823.54834	0.04191
2822.26257	0.04171
2820.97681	0.04147
2819.69104	0.04119
2818.40527	0.04097
2817.11950	0.04092
2815.83373	0.04099
2814.54796	0.04105
2813.26219	0.04097
2811.97642	0.04071
2810.69066	0.04035
2809.40489	0.04000
2808.11912	0.03977
2806.83335	0.03971
2805.54758	0.03981
2804.26181	0.03995
2802.97604	0.04001
2801.69027	0.03994
2800.40450	0.03976
2799.11874	0.03957
2797.83297	0.03941
2796.54720	0.03928
2795.26143	0.03914
2793.97566	0.03897
2792.68989	0.03878
2791.40412	0.03856
2790.11835	0.03833
2788.83259	0.03813
2787.54682	0.03797
2786.26105	0.03786
2784.97528	0.03782
2783.68951	0.03787
2782.40374	0.03803
2781.11797	0.03825
2779.83220	0.03846
2778.54643	0.03857
2777.26067	0.03852
2775.97490	0.03832
2774.68913	0.03799
2773.40336	0.03757
2772.11759	0.03720
2770.83182	0.03705
2769.54605	0.03724
2768.26028	0.03765
2766.97452	0.03798
2765.68875	0.03804
2764.40298	0.03788
2763.11721	0.03765
2761.83144	0.03741
2760.54567	0.03717
2759.25990	0.03696
2757.97413	0.03684
2756.68836	0.03682
2755.40260	0.03682
2754.11683	0.03683
2752.83106	0.03687
2751.54529	0.03694
2750.25952	0.03698
2748.97375	0.03693
2747.68798	0.03679
2746.40221	0.03657
2745.11645	0.03628
2743.83068	0.03597
2742.54491	0.03582
2741.25914	0.03594
2739.97337	0.03625
2738.68760	0.03652
2737.40183	0.03650
2736.11606	0.03623
2734.83029	0.03590
2733.54453	0.03572
2732.25876	0.03576
2730.97299	0.03591
2729.68722	0.03602
2728.40145	0.03600
2727.11568	0.03581
2725.82991	0.03554
2724.54414	0.03536
2723.25838	0.03542
2721.97261	0.03569
2720.68684	0.03601
2719.40107	0.03614
2718.11530	0.03596
2716.82953	0.03558
2715.54376	0.03517
2714.25799	0.03485
2712.97222	0.03463
2711.68646	0.03455
2710.40069	0.03464
2709.11492	0.03488
2707.82915	0.03512
2706.54338	0.03519
2705.25761	0.03508
2703.97184	0.03486
2702.68607	0.03461
2701.40031	0.03439
2700.11454	0.03425
2698.82877	0.03419
2697.54300	0.03420
2696.25723	0.03430
2694.97146	0.03453
2693.68569	0.03487
2692.39992	0.03512
2691.11415	0.03511
2689.82839	0.03480
2688.54262	0.03437
2687.25685	0.03402
2685.97108	0.03389
2684.68531	0.03392
2683.39954	0.03400
2682.11377	0.03405
2680.82800	0.03411
2679.54224	0.03415
2678.25647	0.03412
2676.97070	0.03396
2675.68493	0.03374
2674.39916	0.03359
2673.11339	0.03356
2671.82762	0.03358
2670.54185	0.03359
2669.25608	0.03361
2667.97032	0.03363
2666.68455	0.03366
2665.39878	0.03366
2664.11301	0.03362
2662.82724	0.03360
2661.54147	0.03361
2660.25570	0.03358
2658.96993	0.03343
2657.68417	0.03316
2656.39840	0.03289
2655.11263	0.03274
2653.82686	0.03269
2652.54109	0.03269
2651.25532	0.03271
2649.96955	0.03272
2648.68378	0.03270
2647.39801	0.03269
2646.11225	0.03272
2644.82648	0.03269
2643.54071	0.03253
2642.25494	0.03228
2640.96917	0.03209
2639.68340	0.03202
2638.39763	0.03200
2637.11186	0.03191
2635.82609	0.03171
2634.54033	0.03145
2633.25456	0.03131
2631.96879	0.03139
2630.68302	0.03165
2629.39725	0.03185
2628.11148	0.03171
2626.82571	0.03118
2625.53994	0.03048
2624.25418	0.02990
2622.96841	0.02960
2621.68264	0.02954
2620.39687	0.02959
2619.11110	0.02966
2617.82533	0.02972
2616.53956	0.02975
2615.25379	0.02969
2613.96802	0.02951
2612.68226	0.02931
2611.39649	0.02928
2610.11072	0.02946
2608.82495	0.02971
2607.53918	0.02983
2606.25341	0.02974
2604.96764	0.02955
2603.68187	0.02945
2602.39611	0.02947
2601.11034	0.02949
2599.82457	0.02930
2598.53880	0.02894
2597.25303	0.02863
2595.96726	0.02854
2594.68149	0.02856
2593.39572	0.02848
2592.10995	0.02825
2590.82419	0.02806
2589.53842	0.02804
2588.25265	0.02817
2586.96688	0.02838
2585.68111	0.02866
2584.39534	0.02896
2583.10957	0.02910
2581.82380	0.02888
2580.53804	0.02830
2579.25227	0.02763
2577.96650	0.02719
2576.68073	0.02709
2575.39496	0.02720
2574.10919	0.02729
2572.82342	0.02723
2571.53765	0.02708
2570.25188	0.02698
2568.96612	0.02699
2567.68035	0.02708
2566.39458	0.02721
2565.10881	0.02737
2563.82304	0.02754
2562.53727	0.02762
2561.25150	0.02746
2559.96573	0.02703
2558.67997	0.02650
2557.39420	0.02619
2556.10843	0.02627
2554.82266	0.02661
2553.53689	0.02691
2552.25112	0.02695
2550.96535	0.02677
2549.67958	0.02649
2548.39381	0.02623
2547.10805	0.02609
2545.82228	0.02614
2544.53651	0.02636
2543.25074	0.02659
2541.96497	0.02677
2540.67920	0.02694
2539.39343	0.02715
2538.10766	0.02725
2536.82190	0.02700
2535.53613	0.02635
2534.25036	0.02547
2532.96459	0.02471
2531.67882	0.02431
2530.39305	0.02434
2529.10728	0.02469
2527.82151	0.02519
2526.53574	0.02569
2525.24998	0.02603
2523.96421	0.02610
2522.67844	0.02591
2521.39267	0.02559
2520.10690	0.02524
2518.82113	0.02492
2517.53536	0.02465
2516.24959	0.02443
2514.96383	0.02418
2513.67806	0.02386
2512.39229	0.02364
2511.10652	0.02373
2509.82075	0.02418
2508.53498	0.02480
2507.24921	0.02537
2505.96344	0.02581
2504.67767	0.02607
2503.39191	0.02609
2502.10614	0.02584
2500.82037	0.02546
2499.53460	0.02512
2498.24883	0.02488
2496.96306	0.02471
2495.67729	0.02460
2494.39152	0.02458
2493.10576	0.02464
2491.81999	0.02468
2490.53422	0.02466
2489.24845	0.02459
2487.96268	0.02456
2486.67691	0.02466
2485.39114	0.02488
2484.10537	0.02505
2482.81960	0.02492
2481.53384	0.02452
2480.24807	0.02421
2478.96230	0.02436
2477.67653	0.02492
2476.39076	0.02547
2475.10499	0.02561
2473.81922	0.02530
2472.53345	0.02485
2471.24769	0.02462
2469.96192	0.02472
2468.67615	0.02492
2467.39038	0.02495
2466.10461	0.02479
2464.81884	0.02462
2463.53307	0.02454
2462.24730	0.02451
2460.96153	0.02442
2459.67577	0.02425
2458.39000	0.02405
2457.10423	0.02391
2455.81846	0.02387
2454.53269	0.02393
2453.24692	0.02406
2451.96115	0.02423
2450.67538	0.02442
2449.38962	0.02457
2448.10385	0.02465
2446.81808	0.02473
2445.53231	0.02480
2444.24654	0.02477
2442.96077	0.02452
2441.67500	0.02409
2440.38923	0.02364
2439.10346	0.02329
2437.81770	0.02302
2436.53193	0.02279
2435.24616	0.02263
2433.96039	0.02256
2432.67462	0.02249
2431.38885	0.02241
2430.10308	0.02241
2428.81731	0.02261
2427.53155	0.02293
2426.24578	0.02313
2424.96001	0.02307
2423.67424	0.02290
2422.38847	0.02286
2421.10270	0.02307
2419.81693	0.02340
2418.53116	0.02365
2417.24539	0.02366
2415.95963	0.02351
2414.67386	0.02337
2413.38809	0.02334
2412.10232	0.02335
2410.81655	0.02331
2409.53078	0.02325
2408.24501	0.02325
2406.95924	0.02330
2405.67347	0.02330
2404.38771	0.02323
2403.10194	0.02315
2401.81617	0.02308
2400.53040	0.02307
2399.24463	0.02317
2397.95886	0.02326
2396.67309	0.02331
2395.38732	0.02330
2394.10156	0.02316
2392.81579	0.02291
2391.53002	0.02265
2390.24425	0.02249
2388.95848	0.02249
2387.67271	0.02259
2386.38694	0.02270
2385.10117	0.02273
2383.81540	0.02266
2382.52964	0.02252
2381.24387	0.02232
2379.95810	0.02194
2378.67233	0.02130
2377.38656	0.02036
2376.10079	0.01925
2374.81502	0.01809
2373.52925	0.01704
2372.24349	0.01625
2370.95772	0.01573
2369.67195	0.01531
2368.38618	0.01475
2367.10041	0.01399
2365.81464	0.01314
2364.52887	0.01243
2363.24310	0.01199
2361.95733	0.01185
2360.67157	0.01198
2359.38580	0.01237
2358.10003	0.01298
2356.81426	0.01380
2355.52849	0.01484
2354.24272	0.01609
2352.95695	0.01742
2351.67118	0.01856
2350.38542	0.01920
2349.09965	0.01923
2347.81388	0.01877
2346.52811	0.01812
2345.24234	0.01749
2343.95657	0.01693
2342.67080	0.01639
2341.38503	0.01593
2340.09926	0.01562
2338.81350	0.01550
2337.52773	0.01545
2336.24196	0.01535
2334.95619	0.01514
2333.67042	0.01489
2332.38465	0.01471
2331.09888	0.01469
2329.81311	0.01486
2328.52735	0.01523
2327.24158	0.01581
2325.95581	0.01656
2324.67004	0.01735
2323.38427	0.01801
2322.09850	0.01852
2320.81273	0.01896
2319.52696	0.01942
2318.24119	0.01991
2316.95543	0.02037
2315.66966	0.02078
2314.38389	0.02116
2313.09812	0.02150
2311.81235	0.02175
2310.52658	0.02189
2309.24081	0.02193
2307.95504	0.02190
2306.66928	0.02177
2305.38351	0.02150
2304.09774	0.02111
2302.81197	0.02072
2301.52620	0.02053
2300.24043	0.02066
2298.95466	0.02103
2297.66889	0.02140
2296.38312	0.02153
2295.09736	0.02138
2293.81159	0.02112
2292.52582	0.02094
2291.24005	0.02092
2289.95428	0.02102
2288.66851	0.02122
2287.38274	0.02139
2286.09697	0.02142
2284.81121	0.02126
2283.52544	0.02104
2282.23967	0.02094
2280.95390	0.02097
2279.66813	0.02094
2278.38236	0.02070
2277.09659	0.02033
2275.81082	0.02000
2274.52505	0.01978
2273.23929	0.01958
2271.95352	0.01940
2270.66775	0.01938
2269.38198	0.01960
2268.09621	0.01991
2266.81044	0.02007
2265.52467	0.01999
2264.23890	0.01973
2262.95314	0.01937
2261.66737	0.01897
2260.38160	0.01860
2259.09583	0.01830
2257.81006	0.01800
2256.52429	0.01759
2255.23852	0.01709
2253.95275	0.01672
2252.66698	0.01665
2251.38122	0.01680
2250.09545	0.01708
2248.80968	0.01736
2247.52391	0.01699
2246.23814	0.01670
2244.95237	0.01678
2243.66660	0.01708
2242.38083	0.01705
2241.09507	0.01629
2239.80930	0.01508
2238.52353	0.01410
2237.23776	0.01371
2235.95199	0.01382
2234.66622	0.01418
2233.38045	0.01459
2232.09468	0.01487
2230.80891	0.01485
2229.52315	0.01452
2228.23738	0.01411
2226.95161	0.01394
2225.66584	0.01417
2224.38007	0.01454
2223.09430	0.01469
2221.80853	0.01460
2220.52276	0.01460
2219.23700	0.01479
2217.95123	0.01497
2216.66546	0.01495
2215.37969	0.01476
2214.09392	0.01438
2212.80815	0.01365
2211.52238	0.01269
2210.23661	0.01206
2208.95084	0.01228
2207.66508	0.01326
2206.37931	0.01431
2205.09354	0.01464
2203.80777	0.01404
2202.52200	0.01307
2201.23623	0.01264
2199.95046	0.01316
2198.66469	0.01416
2197.37893	0.01472
2196.09316	0.01430
2194.80739	0.01314
2193.52162	0.01190
2192.23585	0.01113
2190.95008	0.01101
2189.66431	0.01150
2188.37854	0.01227
2187.09277	0.01280
2185.80701	0.01277
2184.52124	0.01237
2183.23547	0.01207
2181.94970	0.01210
2180.66393	0.01214
2179.37816	0.01175
2178.09239	0.01087
2176.80662	0.00993
2175.52085	0.00938
2174.23509	0.00917
2172.94932	0.00894
2171.66355	0.00840
2170.37778	0.00761
2169.09201	0.00689
2167.80624	0.00660
2166.52047	0.00698
2165.23470	0.00769
2163.94894	0.00783
2162.66317	0.00670
2161.37740	0.00461
2160.09163	0.00270
2158.80586	0.00206
2157.52009	0.00286
2156.23432	0.00436
2154.94855	0.00566
2153.66278	0.00647
2152.37702	0.00702
2151.09125	0.00748
2149.80548	0.00772
2148.51971	0.00777
2147.23394	0.00818
2145.94817	0.00942
2144.66240	0.01109
2143.37663	0.01209
2142.09087	0.01167
2140.80510	0.01013
2139.51933	0.00854
2138.23356	0.00786
2136.94779	0.00824
2135.66202	0.00921
2134.37625	0.01025
2133.09048	0.01109
2131.80471	0.01158
2130.51895	0.01164
2129.23318	0.01138
2127.94741	0.01119
2126.66164	0.01135
2125.37587	0.01186
2124.09010	0.01249
2122.80433	0.01302
2121.51856	0.01331
2120.23280	0.01337
2118.94703	0.01338
2117.66126	0.01343
2116.37549	0.01346
2115.08972	0.01329
2113.80395	0.01295
2112.51818	0.01264
2111.23241	0.01245
2109.94664	0.01230
2108.66088	0.01223
2107.37511	0.01246
2106.08934	0.01297
2104.80357	0.01342
2103.51780	0.01343
2102.23203	0.01296
2100.94626	0.01234
2099.66049	0.01284
2098.37473	0.01296
2097.08896	0.01264
2095.80319	0.01216
2094.51742	0.01167
2093.23165	0.01130
2091.94588	0.01109
2090.66011	0.01096
2089.37434	0.01078
2088.08857	0.01053
2086.80281	0.01033
2085.51704	0.01034
2084.23127	0.01063
2082.94550	0.01109
2081.65973	0.01149
2080.37396	0.01166
2079.08819	0.01158
2077.80242	0.01138
2076.51666	0.01132
2075.23089	0.01153
2073.94512	0.01194
2072.65935	0.01225
2071.37358	0.01226
2070.08781	0.01196
2068.80204	0.01149
2067.51627	0.01099
2066.23050	0.01058
2064.94474	0.01026
2063.65897	0.00996
2062.37320	0.00960
2061.08743	0.00924
2059.80166	0.00897
2058.51589	0.00877
2057.23012	0.00847
2055.94435	0.00807
2054.65859	0.00779
2053.37282	0.00789
2052.08705	0.00830
2050.80128	0.00881
2049.51551	0.00928
2048.22974	0.00971
2046.94397	0.01003
2045.65820	0.01001
2044.37243	0.00952
2043.08667	0.00873
2041.80090	0.00790
2040.51513	0.00700
2039.22936	0.00583
2037.94359	0.00452
2036.65782	0.00372
2035.37205	0.00408
2034.08628	0.00545
2032.80052	0.00696
2031.51475	0.00774
2030.22898	0.00766
2028.94321	0.00718
2027.65744	0.00676
2026.37167	0.00650
2025.08590	0.00625
2023.80013	0.00592
2022.51436	0.00566
2021.22860	0.00567
2019.94283	0.00611
2018.65706	0.00687
2017.37129	0.00748
2016.08552	0.00737
2014.79975	0.00638
2013.51398	0.00511
2012.22821	0.00440
2010.94245	0.00461
2009.65668	0.00543
2008.37091	0.00631
2007.08514	0.00695
2005.79937	0.00736
2004.51360	0.00759
2003.22783	0.00763
2001.94206	0.00754
2000.65629	0.00759
1999.37053	0.00812
1998.08476	0.00912
1996.79899	0.01014
1995.51322	0.01059
1994.22745	0.01036
1992.94168	0.00990
1991.65591	0.00973
1990.37014	0.00994
1989.08438	0.01018
1987.79861	0.01016
1986.51284	0.01006
1985.22707	0.01023
1983.94130	0.01077
1982.65553	0.01150
1981.36976	0.01220
1980.08399	0.01277
1978.79822	0.01312
1977.51246	0.01311
1976.22669	0.01265
1974.94092	0.01190
1973.65515	0.01115
1972.36938	0.01065
1971.08361	0.01033
1969.79784	0.00999
1968.51207	0.00950
1967.22631	0.00896
1965.94054	0.00852
1964.65477	0.00819
1963.36900	0.00798
1962.08323	0.00800
1960.79746	0.00841
1959.51169	0.00916
1958.22592	0.00991
1956.94015	0.01021
1955.65439	0.00995
1954.36862	0.00939
1953.08285	0.00899
1951.79708	0.00898
1950.51131	0.00926
1949.22554	0.00959
1947.93977	0.00978
1946.65400	0.00987
1945.36823	0.01004
1944.08247	0.01045
1942.79670	0.01111
1941.51093	0.01181
1940.22516	0.01229
1938.93939	0.01239
1937.65362	0.01210
1936.36785	0.01162
1935.08208	0.01121
1933.79632	0.01114
1932.51055	0.01149
1931.22478	0.01218
1929.93901	0.01296
1928.65324	0.01349
1927.36747	0.01353
1926.08170	0.01306
1924.79593	0.01235
1923.51016	0.01180
1922.22440	0.01167
1920.93863	0.01190
1919.65286	0.01218
1918.36709	0.01219
1917.08132	0.01192
1915.79555	0.01163
1914.50978	0.01163
1913.22401	0.01201
1911.93825	0.01258
1910.65248	0.01304
1909.36671	0.01316
1908.08094	0.01298
1906.79517	0.01281
1905.50940	0.01293
1904.22363	0.01337
1902.93786	0.01388
1901.65209	0.01423
1900.36633	0.01438
1899.08056	0.01441
1897.79479	0.01434
1896.50902	0.01414
1895.22325	0.01385
1893.93748	0.01358
1892.65171	0.01345
1891.36594	0.01350
1890.08018	0.01361
1888.79441	0.01364
1887.50864	0.01354
1886.22287	0.01339
1884.93710	0.01328
1883.65133	0.01318
1882.36556	0.01304
1881.07979	0.01290
1879.79402	0.01286
1878.50826	0.01298
1877.22249	0.01318
1875.93672	0.01334
1874.65095	0.01342
1873.36518	0.01344
1872.07941	0.01344
1870.79364	0.01341
1869.50787	0.01334
1868.22211	0.01322
1866.93634	0.01306
1865.65057	0.01290
1864.36480	0.01278
1863.07903	0.01279
1861.79326	0.01296
1860.50749	0.01324
1859.22172	0.01353
1857.93595	0.01371
1856.65019	0.01371
1855.36442	0.01354
1854.07865	0.01330
1852.79288	0.01311
1851.50711	0.01299
1850.22134	0.01297
1848.93557	0.01303
1847.64980	0.01315
1846.36404	0.01323
1845.07827	0.01325
1843.79250	0.01320
1842.50673	0.01313
1841.22096	0.01306
1839.93519	0.01301
1838.64942	0.01299
1837.36365	0.01302
1836.07788	0.01309
1834.79212	0.01318
1833.50635	0.01325
1832.22058	0.01323
1830.93481	0.01314
1829.64904	0.01304
1828.36327	0.01305
1827.07750	0.01320
1825.79173	0.01346
1824.50597	0.01376
1823.22020	0.01405
1821.93443	0.01430
1820.64866	0.01446
1819.36289	0.01446
1818.07712	0.01429
1816.79135	0.01401
1815.50558	0.01374
1814.21981	0.01357
1812.93405	0.01348
1811.64828	0.01343
1810.36251	0.01340
1809.07674	0.01340
1807.79097	0.01348
1806.50520	0.01362
1805.21943	0.01376
1803.93366	0.01384
1802.64790	0.01386
1801.36213	0.01388
1800.07636	0.01394
1798.79059	0.01401
1797.50482	0.01404
1796.21905	0.01402
1794.93328	0.01399
1793.64751	0.01401
1792.36174	0.01407
1791.07598	0.01413
1789.79021	0.01419
1788.50444	0.01425
1787.21867	0.01436
1785.93290	0.01447
1784.64713	0.01452
1783.36136	0.01449
1782.07559	0.01439
1780.78983	0.01429
1779.50406	0.01425
1778.21829	0.01429
1776.93252	0.01433
1775.64675	0.01431
1774.36098	0.01425
1773.07521	0.01420
1771.78944	0.01422
1770.50367	0.01430
1769.21791	0.01440
1767.93214	0.01450
1766.64637	0.01457
1765.36060	0.01460
1764.07483	0.01463
1762.78906	0.01467
1761.50329	0.01474
1760.21752	0.01478
1758.93176	0.01479
1757.64599	0.01478
1756.36022	0.01483
1755.07445	0.01494
1753.78868	0.01504
1752.50291	0.01507
1751.21714	0.01506
1749.93137	0.01508
1748.64560	0.01522
1747.35984	0.01543
1746.07407	0.01561
1744.78830	0.01564
1743.50253	0.01553
1742.21676	0.01540
1740.93099	0.01539
1739.64522	0.01551
1738.35945	0.01568
1737.07369	0.01579
1735.78792	0.01583
1734.50215	0.01588
1733.21638	0.01600
1731.93061	0.01620
1730.64484	0.01643
1729.35907	0.01665
1728.07330	0.01683
1726.78753	0.01696
1725.50177	0.01706
1724.21600	0.01714
1722.93023	0.01723
1721.64446	0.01734
1720.35869	0.01744
1719.07292	0.01756
1717.78715	0.01774
1716.50138	0.01801
1715.21561	0.01836
1713.92985	0.01877
1712.64408	0.01921
1711.35831	0.01963
1710.07254	0.01999
1708.78677	0.02030
1707.50100	0.02057
1706.21523	0.02087
1704.92946	0.02119
1703.64370	0.02151
1702.35793	0.02182
1701.07216	0.02216
1699.78639	0.02256
1698.50062	0.02301
1697.21485	0.02346
1695.92908	0.02393
1694.64331	0.02443
1693.35754	0.02493
1692.07178	0.02536
1690.78601	0.02572
1689.50024	0.02605
1688.21447	0.02639
1686.92870	0.02672
1685.64293	0.02703
1684.35716	0.02738
1683.07139	0.02780
1681.78563	0.02827
1680.49986	0.02878
1679.21409	0.02930
1677.92832	0.02981
1676.64255	0.03030
1675.35678	0.03074
1674.07101	0.03112
1672.78524	0.03144
1671.49947	0.03173
1670.21371	0.03204
1668.92794	0.03239
1667.64217	0.03279
1666.35640	0.03317
1665.07063	0.03350
1663.78486	0.03382
1662.49909	0.03419
1661.21332	0.03458
1659.92756	0.03496
1658.64179	0.03528
1657.35602	0.03550
1656.07025	0.03562
1654.78448	0.03566
1653.49871	0.03572
1652.21294	0.03587
1650.92717	0.03611
1649.64140	0.03632
1648.35564	0.03643
1647.06987	0.03648
1645.78410	0.03652
1644.49833	0.03660
1643.21256	0.03669
1641.92679	0.03674
1640.64102	0.03669
1639.35525	0.03654
1638.06949	0.03632
1636.78372	0.03612
1635.49795	0.03599
1634.21218	0.03594
1632.92641	0.03590
1631.64064	0.03585
1630.35487	0.03579
1629.06910	0.03574
1627.78333	0.03567
1626.49757	0.03553
1625.21180	0.03534
1623.92603	0.03519
1622.64026	0.03511
1621.35449	0.03507
1620.06872	0.03501
1618.78295	0.03490
1617.49718	0.03480
1616.21142	0.03475
1614.92565	0.03477
1613.63988	0.03484
1612.35411	0.03491
1611.06834	0.03498
1609.78257	0.03506
1608.49680	0.03515
1607.21103	0.03528
1605.92526	0.03543
1604.63950	0.03559
1603.35373	0.03575
1602.06796	0.03592
1600.78219	0.03609
1599.49642	0.03627
1598.21065	0.03646
1596.92488	0.03665
1595.63911	0.03683
1594.35335	0.03702
1593.06758	0.03724
1591.78181	0.03749
1590.49604	0.03778
1589.21027	0.03807
1587.92450	0.03834
1586.63873	0.03856
1585.35296	0.03878
1584.06719	0.03904
1582.78143	0.03934
1581.49566	0.03968
1580.20989	0.04000
1578.92412	0.04026
1577.63835	0.04050
1576.35258	0.04080
1575.06681	0.04121
1573.78104	0.04170
1572.49528	0.04221
1571.20951	0.04271
1569.92374	0.04319
1568.63797	0.04366
1567.35220	0.04413
1566.06643	0.04457
1564.78066	0.04494
1563.49489	0.04522
1562.20912	0.04540
1560.92336	0.04553
1559.63759	0.04569
1558.35182	0.04594
1557.06605	0.04630
1555.78028	0.04671
1554.49451	0.04714
1553.20874	0.04753
1551.92297	0.04786
1550.63721	0.04811
1549.35144	0.04829
1548.06567	0.04839
1546.77990	0.04838
1545.49413	0.04825
1544.20836	0.04800
1542.92259	0.04769
1541.63682	0.04741
1540.35105	0.04728
1539.06529	0.04731
1537.77952	0.04747
1536.49375	0.04765
1535.20798	0.04786
1533.92221	0.04811
1532.63644	0.04846
1531.35067	0.04887
1530.06490	0.04932
1528.77914	0.04980
1527.49337	0.05032
1526.20760	0.05090
1524.92183	0.05154
1523.63606	0.05225
1522.35029	0.05308
1521.06452	0.05402
1519.77875	0.05506
1518.49298	0.05619
1517.20722	0.05743
1515.92145	0.05880
1514.63568	0.06028
1513.34991	0.06181
1512.06414	0.06329
1510.77837	0.06469
1509.49260	0.06605
1508.20683	0.06747
1506.92107	0.06904
1505.63530	0.07075
1504.34953	0.07248
1503.06376	0.07407
1501.77799	0.07545
1500.49222	0.07666
1499.20645	0.07778
1497.92068	0.07887
1496.63491	0.07996
1495.34915	0.08103
1494.06338	0.08204
1492.77761	0.08302
1491.49184	0.08402
1490.20607	0.08511
1488.92030	0.08632
1487.63453	0.08764
1486.34876	0.08909
1485.06299	0.09065
1483.77723	0.09229
1482.49146	0.09399
1481.20569	0.09568
1479.91992	0.09733
1478.63415	0.09889
1477.34838	0.10032
1476.06261	0.10160
1474.77684	0.10278
1473.49108	0.10389
1472.20531	0.10495
1470.91954	0.10587
1469.63377	0.10660
1468.34800	0.10713
1467.06223	0.10753
1465.77646	0.10786
1464.49069	0.10819
1463.20492	0.10854
1461.91916	0.10894
1460.63339	0.10940
1459.34762	0.10994
1458.06185	0.11057
1456.77608	0.11131
1455.49031	0.11210
1454.20454	0.11290
1452.91877	0.11365
1451.63301	0.11430
1450.34724	0.11484
1449.06147	0.11522
1447.77570	0.11539
1446.48993	0.11533
1445.20416	0.11505
1443.91839	0.11456
1442.63262	0.11394
1441.34685	0.11324
1440.06109	0.11252
1438.77532	0.11186
1437.48955	0.11134
1436.20378	0.11106
1434.91801	0.11108
1433.63224	0.11138
1432.34647	0.11198
1431.06070	0.11289
1429.77494	0.11413
1428.48917	0.11568
1427.20340	0.11749
1425.91763	0.11942
1424.63186	0.12134
1423.34609	0.12315
1422.06032	0.12487
1420.77455	0.12655
1419.48878	0.12821
1418.20302	0.12974
1416.91725	0.13101
1415.63148	0.13194
1414.34571	0.13255
1413.05994	0.13289
1411.77417	0.13296
1410.48840	0.13271
1409.20263	0.13211
1407.91687	0.13115
1406.63110	0.12988
1405.34533	0.12836
1404.05956	0.12662
1402.77379	0.12466
1401.48802	0.12249
1400.20225	0.12009
1398.91648	0.11750
1397.63071	0.11477
1396.34495	0.11196
1395.05918	0.10914
1393.77341	0.10631
1392.48764	0.10350
1391.20187	0.10070
1389.91610	0.09794
1388.63033	0.09523
1387.34456	0.09260
1386.05880	0.09004
1384.77303	0.08751
1383.48726	0.08497
1382.20149	0.08244
1380.91572	0.07990
1379.62995	0.07737
1378.34418	0.07481
1377.05841	0.07220
1375.77264	0.06955
1374.48688	0.06688
1373.20111	0.06421
1371.91534	0.06163
1370.62957	0.05920
1369.34380	0.05695
1368.05803	0.05488
1366.77226	0.05296
1365.48649	0.05115
1364.20073	0.04942
1362.91496	0.04775
1361.62919	0.04613
1360.34342	0.04461
1359.05765	0.04321
1357.77188	0.04198
1356.48611	0.04092
1355.20034	0.03999
1353.91457	0.03913
1352.62881	0.03828
1351.34304	0.03744
1350.05727	0.03664
1348.77150	0.03591
1347.48573	0.03522
1346.19996	0.03455
1344.91419	0.03387
1343.62842	0.03323
1342.34266	0.03265
1341.05689	0.03214
1339.77112	0.03170
1338.48535	0.03129
1337.19958	0.03089
1335.91381	0.03047
1334.62804	0.03006
1333.34227	0.02967
1332.05650	0.02932
1330.77074	0.02902
1329.48497	0.02874
1328.19920	0.02848
1326.91343	0.02826
1325.62766	0.02807
1324.34189	0.02790
1323.05612	0.02775
1321.77035	0.02759
1320.48459	0.02739
1319.19882	0.02713
1317.91305	0.02683
1316.62728	0.02654
1315.34151	0.02628
1314.05574	0.02604
1312.76997	0.02581
1311.48420	0.02557
1310.19843	0.02534
1308.91267	0.02512
1307.62690	0.02492
1306.34113	0.02473
1305.05536	0.02452
1303.76959	0.02429
1302.48382	0.02407
1301.19805	0.02389
1299.91228	0.02376
1298.62652	0.02364
1297.34075	0.02351
1296.05498	0.02336
1294.76921	0.02321
1293.48344	0.02305
1292.19767	0.02289
1290.91190	0.02273
1289.62613	0.02260
1288.34036	0.02251
1287.05460	0.02245
1285.76883	0.02237
1284.48306	0.02226
1283.19729	0.02213
1281.91152	0.02200
1280.62575	0.02189
1279.33998	0.02182
1278.05421	0.02176
1276.76845	0.02167
1275.48268	0.02153
1274.19691	0.02133
1272.91114	0.02110
1271.62537	0.02087
1270.33960	0.02070
1269.05383	0.02063
1267.76806	0.02065
1266.48229	0.02070
1265.19653	0.02071
1263.91076	0.02064
1262.62499	0.02050
1261.33922	0.02033
1260.05345	0.02016
1258.76768	0.02003
1257.48191	0.01993
1256.19614	0.01986
1254.91037	0.01981
1253.62461	0.01977
1252.33884	0.01971
1251.05307	0.01962
1249.76730	0.01950
1248.48153	0.01937
1247.19576	0.01927
1245.90999	0.01920
1244.62422	0.01917
1243.33846	0.01917
1242.05269	0.01918
1240.76692	0.01916
1239.48115	0.01907
1238.19538	0.01890
1236.90961	0.01869
1235.62384	0.01854
1234.33807	0.01848
1233.05230	0.01849
1231.76654	0.01851
1230.48077	0.01845
1229.19500	0.01834
1227.90923	0.01822
1226.62346	0.01813
1225.33769	0.01808
1224.05192	0.01802
1222.76615	0.01793
1221.48039	0.01782
1220.19462	0.01770
1218.90885	0.01761
1217.62308	0.01754
1216.33731	0.01750
1215.05154	0.01751
1213.76577	0.01759
1212.48000	0.01773
1211.19423	0.01790
1209.90847	0.01802
1208.62270	0.01809
1207.33693	0.01812
1206.05116	0.01815
1204.76539	0.01822
1203.47962	0.01831
1202.19385	0.01842
1200.90808	0.01845
1199.62232	0.01838
1198.33655	0.01844
1197.05078	0.01850
1195.76501	0.01853
1194.47924	0.01851
1193.19347	0.01848
1191.90770	0.01847
1190.62193	0.01851
1189.33616	0.01857
1188.05040	0.01864
1186.76463	0.01871
1185.47886	0.01880
1184.19309	0.01891
1182.90732	0.01903
1181.62155	0.01912
1180.33578	0.01918
1179.05001	0.01921
1177.76425	0.01924
1176.47848	0.01930
1175.19271	0.01937
1173.90694	0.01945
1172.62117	0.01951
1171.33540	0.01956
1170.04963	0.01958
1168.76386	0.01963
1167.47809	0.01973
1166.19233	0.01989
1164.90656	0.02010
1163.62079	0.02033
1162.33502	0.02056
1161.04925	0.02081
1159.76348	0.02109
1158.47771	0.02143
1157.19194	0.02180
1155.90618	0.02216
1154.62041	0.02246
1153.33464	0.02270
1152.04887	0.02296
1150.76310	0.02328
1149.47733	0.02364
1148.19156	0.02404
1146.90579	0.02450
1145.62002	0.02509
1144.33426	0.02578
1143.04849	0.02652
1141.76272	0.02727
1140.47695	0.02813
1139.19118	0.02919
1137.90541	0.03048
1136.61964	0.03197
1135.33387	0.03358
1134.04811	0.03532
1132.76234	0.03722
1131.47657	0.03933
1130.19080	0.04168
1128.90503	0.04426
1127.61926	0.04705
1126.33349	0.05005
1125.04772	0.05324
1123.76195	0.05663
1122.47619	0.06021
1121.19042	0.06396
1119.90465	0.06789
1118.61888	0.07199
1117.33311	0.07618
1116.04734	0.08035
1114.76157	0.08444
1113.47580	0.08842
1112.19004	0.09232
1110.90427	0.09615
1109.61850	0.09996
1108.33273	0.10375
1107.04696	0.10752
1105.76119	0.11120
1104.47542	0.11474
1103.18965	0.11812
1101.90388	0.12141
1100.61812	0.12473
1099.33235	0.12809
1098.04658	0.13144
1096.76081	0.13463
1095.47504	0.13758
1094.18927	0.14028
1092.90350	0.14282
1091.61773	0.14526
1090.33197	0.14764
1089.04620	0.14995
1087.76043	0.15218
1086.47466	0.15433
1085.18889	0.15644
1083.90312	0.15855
1082.61735	0.16073
1081.33158	0.16304
1080.04581	0.16559
1078.76005	0.16843
1077.47428	0.17157
1076.18851	0.17496
1074.90274	0.17851
1073.61697	0.18215
1072.33120	0.18585
1071.04543	0.18962
1069.75966	0.19355
1068.47390	0.19773
1067.18813	0.20219
1065.90236	0.20689
1064.61659	0.21169
1063.33082	0.21648
1062.04505	0.22121
1060.75928	0.22590
1059.47351	0.23053
1058.18774	0.23511
1056.90198	0.23963
1055.61621	0.24408
1054.33044	0.24846
1053.04467	0.25283
1051.75890	0.25726
1050.47313	0.26184
1049.18736	0.26656
1047.90159	0.27137
1046.61583	0.27627
1045.33006	0.28133
1044.04429	0.28657
1042.75852	0.29196
1041.47275	0.29737
1040.18698	0.30273
1038.90121	0.30806
1037.61544	0.31345
1036.32967	0.31890
1035.04391	0.32436
1033.75814	0.32974
1032.47237	0.33493
1031.18660	0.33979
1029.90083	0.34422
1028.61506	0.34823
1027.32929	0.35185
1026.04352	0.35502
1024.75775	0.35766
1023.47199	0.35972
1022.18622	0.36114
1020.90045	0.36189
1019.61468	0.36196
1018.32891	0.36138
1017.04314	0.36011
1015.75737	0.35806
1014.47160	0.35510
1013.18584	0.35119
1011.90007	0.34635
1010.61430	0.34064
1009.32853	0.33407
1008.04276	0.32663
1006.75699	0.31835
1005.47122	0.30928
1004.18545	0.29946
1002.89968	0.28901
1001.61392	0.27810
1000.32815	0.26690
999.04238	0.25557
997.75661	0.24424
996.47084	0.23299
995.18507	0.22187
993.89930	0.21096
992.61353	0.20034
991.32777	0.19010
990.04200	0.18031
988.75623	0.17101
987.47046	0.16225
986.18469	0.15409
984.89892	0.14652
983.61315	0.13951
982.32738	0.13303
981.04161	0.12703
979.75585	0.12148
978.47008	0.11637
977.18431	0.11181
975.89854	0.10791
974.61277	0.10471
973.32700	0.10223
972.04123	0.10047
970.75546	0.09947
969.46970	0.09925
968.18393	0.09980
966.89816	0.10108
965.61239	0.10293
964.32662	0.10505
963.04085	0.10702
961.75508	0.10842
960.46931	0.10888
959.18354	0.10820
957.89778	0.10639
956.61201	0.10366
955.32624	0.10033
954.04047	0.09671
952.75470	0.09301
951.46893	0.08938
950.18316	0.08595
948.89739	0.08276
947.61163	0.07978
946.32586	0.07689
945.04009	0.07405
943.75432	0.07130
942.46855	0.06867
941.18278	0.06618
939.89701	0.06382
938.61124	0.06166
937.32547	0.05972
936.03971	0.05799
934.75394	0.05642
933.46817	0.05496
932.18240	0.05361
930.89663	0.05238
929.61086	0.05128
928.32509	0.05033
927.03932	0.04945
925.75356	0.04861
924.46779	0.04777
923.18202	0.04697
921.89625	0.04625
920.61048	0.04563
919.32471	0.04507
918.03894	0.04453
916.75317	0.04399
915.46740	0.04345
914.18164	0.04290
912.89587	0.04234
911.61010	0.04182
910.32433	0.04139
909.03856	0.04104
907.75279	0.04072
906.46702	0.04040
905.18125	0.04009
903.89549	0.03979
902.60972	0.03945
901.32395	0.03909
900.03818	0.03873
898.75241	0.03844
897.46664	0.03820
896.18087	0.03800
894.89510	0.03781
893.60933	0.03769
892.32357	0.03767
891.03780	0.03782
889.75203	0.03823
888.46626	0.03900
887.18049	0.04028
885.89472	0.04225
884.60895	0.04510
883.32318	0.04885
882.03742	0.05314
880.75165	0.05729
879.46588	0.06067
878.18011	0.06315
876.89434	0.06517
875.60857	0.06733
874.32280	0.06975
873.03703	0.07194
871.75126	0.07313
870.46550	0.07281
869.17973	0.07098
867.89396	0.06797
866.60819	0.06420
865.32242	0.06010
864.03665	0.05605
862.75088	0.05231
861.46511	0.04906
860.17935	0.04636
858.89358	0.04420
857.60781	0.04250
856.32204	0.04121
855.03627	0.04028
853.75050	0.03959
852.46473	0.03899
851.17896	0.03831
849.89319	0.03757
848.60743	0.03687
847.32166	0.03634
846.03589	0.03597
844.75012	0.03568
843.46435	0.03541
842.17858	0.03512
840.89281	0.03482
839.60704	0.03448
838.32128	0.03412
837.03551	0.03377
835.74974	0.03349
834.46397	0.03331
833.17820	0.03324
831.89243	0.03319
830.60666	0.03311
829.32089	0.03297
828.03512	0.03283
826.74936	0.03274
825.46359	0.03267
824.17782	0.03254
822.89205	0.03235
821.60628	0.03219
820.32051	0.03213
819.03474	0.03214
817.74897	0.03216
816.46321	0.03211
815.17744	0.03197
813.89167	0.03179
812.60590	0.03163
811.32013	0.03150
810.03436	0.03141
808.74859	0.03135
807.46282	0.03133
806.17705	0.03135
804.89129	0.03135
803.60552	0.03130
802.31975	0.03120
801.03398	0.03107
799.74821	0.03094
798.46244	0.03083
797.17667	0.03079
795.89090	0.03080
794.60513	0.03077
793.31937	0.03062
792.03360	0.03035
790.74783	0.03008
789.46206	0.02996
788.17629	0.03001
786.89052	0.03019
785.60475	0.03038
784.31898	0.03047
783.03322	0.03043
781.74745	0.03027
780.46168	0.03006
779.17591	0.02986
777.89014	0.02975
776.60437	0.02976
775.31860	0.02986
774.03283	0.02999
772.74706	0.03006
771.46130	0.03009
770.17553	0.03011
768.88976	0.03014
767.60399	0.03017
766.31822	0.03019
765.03245	0.03019
763.74668	0.03018
762.46091	0.03019
761.17515	0.03027
759.88938	0.03041
758.60361	0.03051
757.31784	0.03052
756.03207	0.03049
754.74630	0.03049
753.46053	0.03056
752.17476	0.03063
750.88899	0.03064
749.60323	0.03059
748.31746	0.03056
747.03169	0.03057
745.74592	0.03060
744.46015	0.03059
743.17438	0.03051
741.88861	0.03036
740.60284	0.03017
739.31708	0.02994
738.03131	0.02972
736.74554	0.02959
735.45977	0.02955
734.17400	0.02955
732.88823	0.02956
731.60246	0.02961
730.31669	0.02973
729.03092	0.02985
727.74516	0.02991
726.45939	0.02991
725.17362	0.02990
723.88785	0.02980
722.60208	0.02995
721.31631	0.03023
720.03054	0.03049
718.74477	0.03076
717.45901	0.03101
716.17324	0.03116
714.88747	0.03111
713.60170	0.03089
712.31593	0.03060
711.03016	0.03033
709.74439	0.03015
708.45862	0.03005
707.17285	0.03001
705.88709	0.03001
704.60132	0.03006
703.31555	0.03012
702.02978	0.03018
700.74401	0.03023
699.45824	0.03027
698.17247	0.03032
696.88670	0.03037
695.60094	0.03042
694.31517	0.03044
693.02940	0.03042
691.74363	0.03040
690.45786	0.03039
689.17209	0.03037
687.88632	0.03033
686.60055	0.03027
685.31478	0.03020
684.02902	0.03015
682.74325	0.03009
681.45748	0.03000
680.17171	0.02987
678.88594	0.02974
677.60017	0.02966
676.31440	0.02966
675.02863	0.02973
673.74287	0.02986
672.45710	0.02998
671.17133	0.03004
669.88556	0.03001
668.59979	0.03001
667.31402	0.03014
666.02825	0.03036
664.74248	0.03053
663.45671	0.03055
662.17095	0.03045
660.88518	0.03035
659.59941	0.03032
658.31364	0.03035
657.02787	0.03043
655.74210	0.03050
654.45633	0.03059
653.17056	0.03069
651.88480	0.03084
650.59903	0.03101
649.31326	0.03116
648.02749	0.03129
646.74172	0.03142
645.45595	0.03159
644.17018	0.03180
642.88441	0.03202
641.59864	0.03224
640.31288	0.03247
639.02711	0.03270
637.74134	0.03293
636.45557	0.03319
635.16980	0.03353
633.88403	0.03397
632.59826	0.03445
631.31249	0.03505
630.02673	0.03637
628.74096	0.03815
627.45519	0.03813
626.16942	0.04043
624.88365	0.04432
623.59788	0.04815
622.31211	0.05140
621.02634	0.05413
619.74057	0.05665
618.45481	0.05924
617.16904	0.06211
615.88327	0.06528
614.59750	0.06878
613.31173	0.07297
612.02596	0.07847
610.74019	0.08567
609.45442	0.09387
608.16866	0.10162
606.88289	0.10812
605.59712	0.11374
604.31135	0.11884
603.02558	0.12274
601.73981	0.12418
600.45404	0.12261
599.16827	0.11873
597.88250	0.11377
596.59674	0.10882
595.31097	0.10442
594.02520	0.10072
592.73943	0.09768
591.45366	0.09534
590.16789	0.09383
588.88212	0.09327
587.59635	0.09367
586.31059	0.09490
585.02482	0.09681
583.73905	0.09922
582.45328	0.10203
581.16751	0.10519
579.88174	0.10864
578.59597	0.11233
577.31020	0.11612
576.02443	0.11987
574.73867	0.12348
573.45290	0.12696
572.16713	0.13048
570.88136	0.13428
569.59559	0.13866
568.30982	0.14372
567.02405	0.14929
565.73828	0.15488
564.45251	0.15985
563.16675	0.16353
561.88098	0.16524
560.59521	0.16445
559.30944	0.16093
558.02367	0.15485
556.73790	0.14674
555.45213	0.13736
554.16636	0.12749
552.88060	0.11780
551.59483	0.10874
550.30906	0.10056
549.02329	0.09333
547.73752	0.08700
546.45175	0.08151
545.16598	0.07674
543.88021	0.07261
542.59444	0.06900
541.30868	0.06583
540.02291	0.06300
538.73714	0.06045
537.45137	0.05809
536.16560	0.05589
534.87983	0.05384
533.59406	0.05193
532.30829	0.05017
531.02253	0.04857
529.73676	0.04715
528.45099	0.04592
527.16522	0.04481
525.87945	0.04369
524.59368	0.04248
523.30791	0.04124
522.02214	0.04016
520.73637	0.03932
519.45061	0.03866
518.16484	0.03804
516.87907	0.03732
515.59330	0.03648
514.30753	0.03561
513.02176	0.03482
511.73599	0.03416
510.45022	0.03361
509.16446	0.03313
507.87869	0.03267
506.59292	0.03221
505.30715	0.03173
504.02138	0.03123
502.73561	0.03074
501.44984	0.03029
500.16407	0.02996
498.87830	0.02975
497.59254	0.02962
496.30677	0.02946
495.02100	0.02919
493.73523	0.02880
492.44946	0.02842
491.16369	0.02812
489.87792	0.02792
488.59215	0.02779
487.30639	0.02768
486.02062	0.02759
484.73485	0.02755
483.44908	0.02757
482.16331	0.02767
480.87754	0.02786
479.59177	0.02808
478.30600	0.02830
477.02023	0.02852
475.73447	0.02879
474.44870	0.02910
473.16293	0.02937
471.87716	0.02949
470.59139	0.02945
469.30562	0.02928
468.01985	0.02905
466.73408	0.02880
465.44832	0.02852
464.16255	0.02819
462.87678	0.02779
461.59101	0.02737
460.30524	0.02699
459.01947	0.02667
457.73370	0.02637
456.44793	0.02605
455.16216	0.02571
453.87640	0.02535
452.59063	0.02502
451.30486	0.02468
450.01909	0.02434
448.73332	0.02400
447.44755	0.02370
446.16178	0.02348
444.87601	0.02333
443.59025	0.02323
442.30448	0.02312
441.01871	0.02301
439.73294	0.02291
438.44717	0.02283
437.16140	0.02278
435.87563	0.02273
434.58986	0.02263
433.30409	0.02249
432.01833	0.02230
430.73256	0.02212
429.44679	0.02197
428.16102	0.02184
426.87525	0.02172
425.58948	0.02160
424.30371	0.02149
423.01794	0.02135
421.73218	0.02116
420.44641	0.02096
419.16064	0.02082
417.87487	0.02076
416.58910	0.02073
415.30333	0.02066
414.01756	0.02054
412.73179	0.02041
411.44602	0.02034
410.16026	0.02034
408.87449	0.02041
407.58872	0.02053
406.30295	0.02068
405.01718	0.02081
403.73141	0.02088
402.44564	0.02087
401.15987	0.02084
399.87411	0.02086
