3997.45528	0.05085
3996.16951	0.05099
3994.88374	0.05156
3993.59798	0.05222
3992.31221	0.05239
3991.02644	0.05190
3989.74067	0.05110
3988.45490	0.05046
3987.16913	0.05026
3985.88336	0.05048
3984.59759	0.05094
3983.31183	0.05151
3982.02606	0.05205
3980.74029	0.05244
3979.45452	0.05256
3978.16875	0.05241
3976.88298	0.05205
3975.59721	0.05159
3974.31144	0.05113
3973.02567	0.05074
3971.73991	0.05046
3970.45414	0.05030
3969.16837	0.05032
3967.88260	0.05061
3966.59683	0.05122
3965.31106	0.05197
3964.02529	0.05253
3962.73952	0.05254
3961.45376	0.05200
3960.16799	0.05125
3958.88222	0.05070
3957.59645	0.05049
3956.31068	0.05050
3955.02491	0.05049
3953.73914	0.05029
3952.45337	0.04984
3951.16760	0.04927
3949.88184	0.04884
3948.59607	0.04875
3947.31030	0.04895
3946.02453	0.04923
3944.73876	0.04941
3943.45299	0.04941
3942.16722	0.04923
3940.88145	0.04885
3939.59569	0.04827
3938.30992	0.04754
3937.02415	0.04684
3935.73838	0.04643
3934.45261	0.04652
3933.16684	0.04705
3931.88107	0.04775
3930.59530	0.04841
3929.30953	0.04903
3928.02377	0.04959
3926.73800	0.04991
3925.45223	0.04983
3924.16646	0.04948
3922.88069	0.04923
3921.59492	0.04928
3920.30915	0.04942
3919.02338	0.04929
3917.73762	0.04873
3916.45185	0.04789
3915.16608	0.04708
3913.88031	0.04655
3912.59454	0.04632
3911.30877	0.04629
3910.02300	0.04641
3908.73723	0.04670
3907.45146	0.04710
3906.16570	0.04750
3904.87993	0.04778
3903.59416	0.04793
3902.30839	0.04798
3901.02262	0.04801
3899.73685	0.04800
3898.45108	0.04788
3897.16531	0.04756
3895.87955	0.04702
3894.59378	0.04633
3893.30801	0.04565
3892.02224	0.04525
3890.73647	0.04530
3889.45070	0.04577
3888.16493	0.04647
3886.87916	0.04709
3885.59339	0.04740
3884.30763	0.04727
3883.02186	0.04671
3881.73609	0.04596
3880.45032	0.04535
3879.16455	0.04512
3877.87878	0.04523
3876.59301	0.04548
3875.30724	0.04560
3874.02148	0.04547
3872.73571	0.04519
3871.44994	0.04500
3870.16417	0.04505
3868.87840	0.04525
3867.59263	0.04540
3866.30686	0.04536
3865.02109	0.04527
3863.73532	0.04540
3862.44956	0.04584
3861.16379	0.04626
3859.87802	0.04622
3858.59225	0.04562
3857.30648	0.04492
3856.02071	0.04472
3854.73494	0.04524
3853.44917	0.04615
3852.16341	0.04686
3850.87764	0.04695
3849.59187	0.04653
3848.30610	0.04604
3847.02033	0.04585
3845.73456	0.04596
3844.44879	0.04607
3843.16302	0.04594
3841.87725	0.04559
3840.59149	0.04520
3839.30572	0.04491
3838.01995	0.04464
3836.73418	0.04425
3835.44841	0.04378
3834.16264	0.04350
3832.87687	0.04366
3831.59110	0.04413
3830.30534	0.04453
3829.01957	0.04461
3827.73380	0.04454
3826.44803	0.04465
3825.16226	0.04499
3823.87649	0.04527
3822.59072	0.04512
3821.30495	0.04450
3820.01918	0.04379
3818.73342	0.04345
3817.44765	0.04358
3816.16188	0.04388
3814.87611	0.04401
3813.59034	0.04393
3812.30457	0.04379
3811.01880	0.04357
3809.73303	0.04319
3808.44726	0.04273
3807.16150	0.04246
3805.87573	0.04254
3804.58996	0.04289
3803.30419	0.04328
3802.01842	0.04355
3800.73265	0.04367
3799.44688	0.04365
3798.16111	0.04353
3796.87535	0.04337
3795.58958	0.04325
3794.30381	0.04322
3793.01804	0.04327
3791.73227	0.04329
3790.44650	0.04325
3789.16073	0.04316
3787.87496	0.04308
3786.58919	0.04287
3785.30343	0.04234
3784.01766	0.04149
3782.73189	0.04057
3781.44612	0.03995
3780.16035	0.03981
3778.87458	0.04011
3777.58881	0.04068
3776.30304	0.04135
3775.01728	0.04188
3773.73151	0.04210
3772.44574	0.04207
3771.15997	0.04204
3769.87420	0.04225
3768.58843	0.04257
3767.30266	0.04269
3766.01689	0.04245
3764.73112	0.04205
3763.44536	0.04178
3762.15959	0.04170
3760.87382	0.04161
3759.58805	0.04137
3758.30228	0.04114
3757.01651	0.04120
3755.73074	0.04159
3754.44497	0.04204
3753.15921	0.04218
3751.87344	0.04198
3750.58767	0.04175
3749.30190	0.04181
3748.01613	0.04214
3746.73036	0.04238
3745.44459	0.04231
3744.15882	0.04203
3742.87305	0.04181
3741.58729	0.04180
3740.30152	0.04188
3739.01575	0.04189
3737.72998	0.04179
3736.44421	0.04165
3735.15844	0.04156
3733.87267	0.04157
3732.58690	0.04164
3731.30114	0.04170
3730.01537	0.04172
3728.72960	0.04173
3727.44383	0.04171
3726.15806	0.04156
3724.87229	0.04129
3723.58652	0.04108
3722.30075	0.04105
3721.01498	0.04114
3719.72922	0.04113
3718.44345	0.04091
3717.15768	0.04059
3715.87191	0.04029
3714.58614	0.03997
3713.30037	0.03958
3712.01460	0.03932
3710.72883	0.03954
3709.44307	0.04022
3708.15730	0.04088
3706.87153	0.04099
3705.58576	0.04052
3704.29999	0.03989
3703.01422	0.03960
3701.72845	0.03979
3700.44268	0.04015
3699.15691	0.04023
3697.87115	0.03993
3696.58538	0.03949
3695.29961	0.03913
3694.01384	0.03887
3692.72807	0.03877
3691.44230	0.03879
3690.15653	0.03888
3688.87076	0.03899
3687.58500	0.03908
3686.29923	0.03912
3685.01346	0.03919
3683.72769	0.03930
3682.44192	0.03926
3681.15615	0.03901
3679.87038	0.03866
3678.58461	0.03847
3677.29884	0.03864
3676.01308	0.03914
3674.72731	0.03967
3673.44154	0.03990
3672.15577	0.03984
3670.87000	0.03982
3669.58423	0.04008
3668.29846	0.04043
3667.01269	0.04051
3665.72693	0.04021
3664.44116	0.03980
3663.15539	0.03966
3661.86962	0.03991
3660.58385	0.04028
3659.29808	0.04040
3658.01231	0.04030
3656.72654	0.04034
3655.44077	0.04074
3654.15501	0.04125
3652.86924	0.04140
3651.58347	0.04096
3650.29770	0.04015
3649.01193	0.03936
3647.72616	0.03886
3646.44039	0.03862
3645.15462	0.03838
3643.86886	0.03804
3642.58309	0.03778
3641.29732	0.03787
3640.01155	0.03819
3638.72578	0.03836
3637.44001	0.03826
3636.15424	0.03810
3634.86847	0.03813
3633.58270	0.03824
3632.29694	0.03826
3631.01117	0.03825
3629.72540	0.03849
3628.43963	0.03910
3627.15386	0.03991
3625.86809	0.04058
3624.58232	0.04088
3623.29655	0.04070
3622.01079	0.04009
3620.72502	0.03928
3619.43925	0.03852
3618.15348	0.03805
3616.86771	0.03796
3615.58194	0.03812
3614.29617	0.03824
3613.01040	0.03808
3611.72463	0.03766
3610.43887	0.03727
3609.15310	0.03722
3607.86733	0.03766
3606.58156	0.03845
3605.29579	0.03915
3604.01002	0.03932
3602.72425	0.03893
3601.43848	0.03848
3600.15272	0.03841
3598.86695	0.03863
3597.58118	0.03878
3596.29541	0.03877
3595.00964	0.03877
3593.72387	0.03883
3592.43810	0.03887
3591.15233	0.03889
3589.86656	0.03889
3588.58080	0.03877
3587.29503	0.03846
3586.00926	0.03808
3584.72349	0.03783
3583.43772	0.03781
3582.15195	0.03790
3580.86618	0.03798
3579.58041	0.03815
3578.29464	0.03856
3577.00888	0.03911
3575.72311	0.03954
3574.43734	0.03962
3573.15157	0.03938
3571.86580	0.03905
3570.58003	0.03895
3569.29426	0.03929
3568.00849	0.04006
3566.72273	0.04094
3565.43696	0.04155
3564.15119	0.04170
3562.86542	0.04149
3561.57965	0.04126
3560.29388	0.04126
3559.00811	0.04157
3557.72234	0.04200
3556.43657	0.04233
3555.15081	0.04245
3553.86504	0.04241
3552.57927	0.04228
3551.29350	0.04204
3550.00773	0.04161
3548.72196	0.04099
3547.43619	0.04036
3546.15042	0.04000
3544.86466	0.04007
3543.57889	0.04043
3542.29312	0.04085
3541.00735	0.04124
3539.72158	0.04164
3538.43581	0.04201
3537.15004	0.04223
3535.86427	0.04221
3534.57850	0.04199
3533.29274	0.04167
3532.00697	0.04126
3530.72120	0.04076
3529.43543	0.04024
3528.14966	0.03990
3526.86389	0.03987
3525.57812	0.04011
3524.29235	0.04042
3523.00659	0.04072
3521.72082	0.04108
3520.43505	0.04151
3519.14928	0.04189
3517.86351	0.04209
3516.57774	0.04214
3515.29197	0.04224
3514.00620	0.04252
3512.72043	0.04282
3511.43467	0.04284
3510.14890	0.04250
3508.86313	0.04202
3507.57736	0.04176
3506.29159	0.04180
3505.00582	0.04197
3503.72005	0.04199
3502.43428	0.04185
3501.14852	0.04175
3499.86275	0.04191
3498.57698	0.04238
3497.29121	0.04293
3496.00544	0.04336
3494.71967	0.04365
3493.43390	0.04396
3492.14813	0.04435
3490.86236	0.04470
3489.57660	0.04480
3488.29083	0.04469
3487.00506	0.04452
3485.71929	0.04447
3484.43352	0.04457
3483.14775	0.04467
3481.86198	0.04454
3480.57621	0.04410
3479.29045	0.04354
3478.00468	0.04327
3476.71891	0.04350
3475.43314	0.04403
3474.14737	0.04450
3472.86160	0.04475
3471.57583	0.04482
3470.29006	0.04481
3469.00429	0.04469
3467.71853	0.04438
3466.43276	0.04391
3465.14699	0.04343
3463.86122	0.04320
3462.57545	0.04337
3461.28968	0.04389
3460.00391	0.04456
3458.71814	0.04518
3457.43238	0.04556
3456.14661	0.04565
3454.86084	0.04552
3453.57507	0.04535
3452.28930	0.04526
3451.00353	0.04524
3449.71776	0.04524
3448.43199	0.04519
3447.14622	0.04512
3445.86046	0.04509
3444.57469	0.04519
3443.28892	0.04540
3442.00315	0.04553
3440.71738	0.04536
3439.43161	0.04498
3438.14584	0.04477
3436.86007	0.04504
3435.57431	0.04568
3434.28854	0.04622
3433.00277	0.04634
3431.71700	0.04609
3430.43123	0.04578
3429.14546	0.04562
3427.85969	0.04559
3426.57392	0.04563
3425.28815	0.04567
3424.00239	0.04563
3422.71662	0.04547
3421.43085	0.04526
3420.14508	0.04524
3418.85931	0.04554
3417.57354	0.04601
3416.28777	0.04632
3415.00200	0.04635
3413.71624	0.04626
3412.43047	0.04627
3411.14470	0.04643
3409.85893	0.04666
3408.57316	0.04691
3407.28739	0.04714
3406.00162	0.04727
3404.71585	0.04714
3403.43008	0.04664
3402.14432	0.04589
3400.85855	0.04527
3399.57278	0.04513
3398.28701	0.04548
3397.00124	0.04607
3395.71547	0.04651
3394.42970	0.04650
3393.14393	0.04603
3391.85817	0.04536
3390.57240	0.04489
3389.28663	0.04490
3388.00086	0.04544
3386.71509	0.04632
3385.42932	0.04719
3384.14355	0.04768
3382.85778	0.04772
3381.57201	0.04746
3380.28625	0.04718
3379.00048	0.04699
3377.71471	0.04700
3376.42894	0.04722
3375.14317	0.04764
3373.85740	0.04809
3372.57163	0.04832
3371.28586	0.04815
3370.00010	0.04761
3368.71433	0.04700
3367.42856	0.04671
3366.14279	0.04683
3364.85702	0.04712
3363.57125	0.04728
3362.28548	0.04726
3360.99971	0.04726
3359.71394	0.04743
3358.42818	0.04768
3357.14241	0.04786
3355.85664	0.04790
3354.57087	0.04784
3353.28510	0.04768
3351.99933	0.04739
3350.71356	0.04695
3349.42779	0.04650
3348.14202	0.04625
3346.85626	0.04626
3345.57049	0.04648
3344.28472	0.04680
3342.99895	0.04719
3341.71318	0.04766
3340.42741	0.04810
3339.14164	0.04838
3337.85587	0.04841
3336.57011	0.04826
3335.28434	0.04800
3333.99857	0.04772
3332.71280	0.04760
3331.42703	0.04773
3330.14126	0.04804
3328.85549	0.04824
3327.56972	0.04810
3326.28395	0.04770
3324.99819	0.04735
3323.71242	0.04734
3322.42665	0.04767
3321.14088	0.04802
3319.85511	0.04810
3318.56934	0.04787
3317.28357	0.04753
3315.99780	0.04730
3314.71204	0.04725
3313.42627	0.04735
3312.14050	0.04753
3310.85473	0.04774
3309.56896	0.04796
3308.28319	0.04817
3306.99742	0.04833
3305.71165	0.04835
3304.42588	0.04818
3303.14012	0.04785
3301.85435	0.04747
3300.56858	0.04719
3299.28281	0.04711
3297.99704	0.04720
3296.71127	0.04736
3295.42550	0.04750
3294.13973	0.04762
3292.85397	0.04767
3291.56820	0.04760
3290.28243	0.04742
3288.99666	0.04734
3287.71089	0.04754
3286.42512	0.04806
3285.13935	0.04864
3283.85358	0.04892
3282.56781	0.04871
3281.28205	0.04812
3279.99628	0.04753
3278.71051	0.04725
3277.42474	0.04732
3276.13897	0.04749
3274.85320	0.04751
3273.56743	0.04731
3272.28166	0.04703
3270.99590	0.04682
3269.71013	0.04669
3268.42436	0.04660
3267.13859	0.04663
3265.85282	0.04688
3264.56705	0.04735
3263.28128	0.04778
3261.99551	0.04792
3260.70974	0.04774
3259.42398	0.04741
3258.13821	0.04716
3256.85244	0.04709
3255.56667	0.04721
3254.28090	0.04744
3252.99513	0.04765
3251.70936	0.04767
3250.42359	0.04743
3249.13783	0.04697
3247.85206	0.04647
3246.56629	0.04611
3245.28052	0.04592
3243.99475	0.04580
3242.70898	0.04561
3241.42321	0.04536
3240.13744	0.04513
3238.85167	0.04502
3237.56591	0.04506
3236.28014	0.04523
3234.99437	0.04545
3233.70860	0.04558
3232.42283	0.04562
3231.13706	0.04564
3229.85129	0.04576
3228.56552	0.04596
3227.27976	0.04611
3225.99399	0.04605
3224.70822	0.04575
3223.42245	0.04542
3222.13668	0.04534
3220.85091	0.04561
3219.56514	0.04600
3218.27937	0.04620
3216.99360	0.04607
3215.70784	0.04580
3214.42207	0.04555
3213.13630	0.04533
3211.85053	0.04500
3210.56476	0.04462
3209.27899	0.04437
3207.99322	0.04444
3206.70745	0.04478
3205.42169	0.04514
3204.13592	0.04532
3202.85015	0.04528
3201.56438	0.04520
3200.27861	0.04524
3198.99284	0.04545
3197.70707	0.04566
3196.42130	0.04569
3195.13553	0.04544
3193.84977	0.04508
3192.56400	0.04481
3191.27823	0.04463
3189.99246	0.04435
3188.70669	0.04387
3187.42092	0.04333
3186.13515	0.04300
3184.84938	0.04302
3183.56362	0.04322
3182.27785	0.04329
3180.99208	0.04311
3179.70631	0.04282
3178.42054	0.04258
3177.13477	0.04237
3175.84900	0.04202
3174.56323	0.04157
3173.27746	0.04126
3171.99170	0.04128
3170.70593	0.04161
3169.42016	0.04205
3168.13439	0.04241
3166.84862	0.04259
3165.56285	0.04258
3164.27708	0.04238
3162.99131	0.04209
3161.70555	0.04182
3160.41978	0.04165
3159.13401	0.04154
3157.84824	0.04146
3156.56247	0.04138
3155.27670	0.04125
3153.99093	0.04103
3152.70516	0.04077
3151.41939	0.04061
3150.13363	0.04060
3148.84786	0.04065
3147.56209	0.04061
3146.27632	0.04045
3144.99055	0.04030
3143.70478	0.04028
3142.41901	0.04037
3141.13324	0.04036
3139.84748	0.04009
3138.56171	0.03961
3137.27594	0.03919
3135.99017	0.03905
3134.70440	0.03916
3133.41863	0.03930
3132.13286	0.03935
3130.84709	0.03939
3129.56132	0.03956
3128.27556	0.03988
3126.98979	0.04020
3125.70402	0.04037
3124.41825	0.04034
3123.13248	0.04022
3121.84671	0.04011
3120.56094	0.04004
3119.27517	0.03997
3117.98940	0.03986
3116.70364	0.03962
3115.41787	0.03914
3114.13210	0.03845
3112.84633	0.03784
3111.56056	0.03768
3110.27479	0.03811
3108.98902	0.03882
3107.70325	0.03940
3106.41749	0.03963
3105.13172	0.03955
3103.84595	0.03925
3102.56018	0.03884
3101.27441	0.03844
3099.98864	0.03826
3098.70287	0.03840
3097.41710	0.03876
3096.13133	0.03908
3094.84557	0.03918
3093.55980	0.03913
3092.27403	0.03909
3090.98826	0.03909
3089.70249	0.03894
3088.41672	0.03852
3087.13095	0.03801
3085.84518	0.03772
3084.55942	0.03774
3083.27365	0.03786
3081.98788	0.03785
3080.70211	0.03775
3079.41634	0.03778
3078.13057	0.03805
3076.84480	0.03839
3075.55903	0.03855
3074.27326	0.03840
3072.98750	0.03805
3071.70173	0.03776
3070.41596	0.03767
3069.13019	0.03776
3067.84442	0.03790
3066.55865	0.03793
3065.27288	0.03779
3063.98711	0.03754
3062.70135	0.03730
3061.41558	0.03716
3060.12981	0.03712
3058.84404	0.03710
3057.55827	0.03712
3056.27250	0.03722
3054.98673	0.03736
3053.70096	0.03741
3052.41519	0.03731
3051.12943	0.03718
3049.84366	0.03722
3048.55789	0.03749
3047.27212	0.03775
3045.98635	0.03774
3044.70058	0.03740
3043.41481	0.03693
3042.12904	0.03658
3040.84328	0.03646
3039.55751	0.03654
3038.27174	0.03668
3036.98597	0.03675
3035.70020	0.03670
3034.41443	0.03655
3033.12866	0.03634
3031.84289	0.03608
3030.55712	0.03578
3029.27136	0.03547
3027.98559	0.03525
3026.69982	0.03514
3025.41405	0.03512
3024.12828	0.03513
3022.84251	0.03518
3021.55674	0.03525
3020.27097	0.03524
3018.98521	0.03506
3017.69944	0.03474
3016.41367	0.03444
3015.12790	0.03432
3013.84213	0.03443
3012.55636	0.03460
3011.27059	0.03470
3009.98482	0.03467
3008.69905	0.03466
3007.41329	0.03479
3006.12752	0.03502
3004.84175	0.03519
3003.55598	0.03515
3002.27021	0.03495
3000.98444	0.03479
2999.69867	0.03479
2998.41290	0.03495
2997.12714	0.03519
2995.84137	0.03546
2994.55560	0.03569
2993.26983	0.03583
2991.98406	0.03582
2990.69829	0.03569
2989.41252	0.03551
2988.12675	0.03532
2986.84098	0.03510
2985.55522	0.03486
2984.26945	0.03462
2982.98368	0.03450
2981.69791	0.03462
2980.41214	0.03500
2979.12637	0.03550
2977.84060	0.03592
2976.55483	0.03615
2975.26907	0.03628
2973.98330	0.03641
2972.69753	0.03655
2971.41176	0.03659
2970.12599	0.03649
2968.84022	0.03636
2967.55445	0.03636
2966.26868	0.03663
2964.98291	0.03713
2963.69715	0.03768
2962.41138	0.03803
2961.12561	0.03812
2959.83984	0.03806
2958.55407	0.03797
2957.26830	0.03792
2955.98253	0.03797
2954.69676	0.03823
2953.41100	0.03867
2952.12523	0.03913
2950.83946	0.03939
2949.55369	0.03941
2948.26792	0.03935
2946.98215	0.03933
2945.69638	0.03937
2944.41061	0.03941
2943.12484	0.03948
2941.83908	0.03962
2940.55331	0.03983
2939.26754	0.04000
2937.98177	0.04009
2936.69600	0.04013
2935.41023	0.04020
2934.12446	0.04031
2932.83869	0.04048
2931.55293	0.04070
2930.26716	0.04098
2928.98139	0.04128
2927.69562	0.04159
2926.40985	0.04186
2925.12408	0.04201
2923.83831	0.04202
2922.55254	0.04190
2921.26677	0.04172
2919.98101	0.04152
2918.69524	0.04127
2917.40947	0.04090
2916.12370	0.04045
2914.83793	0.04002
2913.55216	0.03973
2912.26639	0.03961
2910.98062	0.03957
2909.69486	0.03949
2908.40909	0.03930
2907.12332	0.03901
2905.83755	0.03868
2904.55178	0.03833
2903.26601	0.03797
2901.98024	0.03762
2900.69447	0.03733
2899.40870	0.03713
2898.12294	0.03702
2896.83717	0.03690
2895.55140	0.03670
2894.26563	0.03648
2892.97986	0.03632
2891.69409	0.03619
2890.40832	0.03594
2889.12255	0.03556
2887.83678	0.03528
2886.55102	0.03531
2885.26525	0.03559
2883.97948	0.03585
2882.69371	0.03594
2881.40794	0.03588
2880.12217	0.03578
2878.83640	0.03575
2877.55063	0.03589
2876.26487	0.03617
2874.97910	0.03646
2873.69333	0.03661
2872.40756	0.03659
2871.12179	0.03647
2869.83602	0.03631
2868.55025	0.03612
2867.26448	0.03596
2865.97871	0.03591
2864.69295	0.03599
2863.40718	0.03610
2862.12141	0.03619
2860.83564	0.03623
2859.54987	0.03620
2858.26410	0.03608
2856.97833	0.03586
2855.69256	0.03559
2854.40680	0.03540
2853.12103	0.03535
2851.83526	0.03543
2850.54949	0.03561
2849.26372	0.03582
2847.97795	0.03595
2846.69218	0.03585
2845.40641	0.03546
2844.12064	0.03492
2842.83488	0.03447
2841.54911	0.03418
2840.26334	0.03397
2838.97757	0.03373
2837.69180	0.03349
2836.40603	0.03335
2835.12026	0.03329
2833.83449	0.03321
2832.54873	0.03305
2831.26296	0.03287
2829.97719	0.03274
2828.69142	0.03270
2827.40565	0.03270
2826.11988	0.03264
2824.83411	0.03245
2823.54834	0.03215
2822.26257	0.03188
2820.97681	0.03176
2819.69104	0.03176
2818.40527	0.03169
2817.11950	0.03148
2815.83373	0.03118
2814.54796	0.03096
2813.26219	0.03093
2811.97642	0.03101
2810.69066	0.03100
2809.40489	0.03074
2808.11912	0.03032
2806.83335	0.02995
2805.54758	0.02976
2804.26181	0.02969
2802.97604	0.02963
2801.69027	0.02959
2800.40450	0.02959
2799.11874	0.02959
2797.83297	0.02950
2796.54720	0.02930
2795.26143	0.02908
2793.97566	0.02890
2792.68989	0.02882
2791.40412	0.02884
2790.11835	0.02896
2788.83259	0.02916
2787.54682	0.02941
2786.26105	0.02960
2784.97528	0.02966
2783.68951	0.02956
2782.40374	0.02937
2781.11797	0.02916
2779.83220	0.02899
2778.54643	0.02890
2777.26067	0.02892
2775.97490	0.02903
2774.68913	0.02914
2773.40336	0.02915
2772.11759	0.02908
2770.83182	0.02902
2769.54605	0.02903
2768.26028	0.02903
2766.97452	0.02893
2765.68875	0.02869
2764.40298	0.02836
2763.11721	0.02809
2761.83144	0.02796
2760.54567	0.02796
2759.25990	0.02801
2757.97413	0.02810
2756.68836	0.02822
2755.40260	0.02832
2754.11683	0.02832
2752.83106	0.02820
2751.54529	0.02802
2750.25952	0.02791
2748.97375	0.02790
2747.68798	0.02796
2746.40221	0.02799
2745.11645	0.02793
2743.83068	0.02780
2742.54491	0.02767
2741.25914	0.02764
2739.97337	0.02779
2738.68760	0.02806
2737.40183	0.02823
2736.11606	0.02811
2734.83029	0.02772
2733.54453	0.02730
2732.25876	0.02711
2730.97299	0.02721
2729.68722	0.02751
2728.40145	0.02782
2727.11568	0.02796
2725.82991	0.02787
2724.54414	0.02769
2723.25838	0.02756
2721.97261	0.02754
2720.68684	0.02757
2719.40107	0.02762
2718.11530	0.02767
2716.82953	0.02763
2715.54376	0.02748
2714.25799	0.02727
2712.97222	0.02711
2711.68646	0.02701
2710.40069	0.02690
2709.11492	0.02675
2707.82915	0.02658
2706.54338	0.02647
2705.25761	0.02641
2703.97184	0.02637
2702.68607	0.02632
2701.40031	0.02630
2700.11454	0.02636
2698.82877	0.02649
2697.54300	0.02663
2696.25723	0.02670
2694.97146	0.02667
2693.68569	0.02662
2692.39992	0.02659
2691.11415	0.02655
2689.82839	0.02642
2688.54262	0.02619
2687.25685	0.02595
2685.97108	0.02581
2684.68531	0.02576
2683.39954	0.02575
2682.11377	0.02576
2680.82800	0.02581
2679.54224	0.02592
2678.25647	0.02605
2676.97070	0.02615
2675.68493	0.02620
2674.39916	0.02619
2673.11339	0.02614
2671.82762	0.02607
2670.54185	0.02599
2669.25608	0.02590
2667.97032	0.02583
2666.68455	0.02583
2665.39878	0.02589
2664.11301	0.02593
2662.82724	0.02592
2661.54147	0.02590
2660.25570	0.02590
2658.96993	0.02586
2657.68417	0.02568
2656.39840	0.02544
2655.11263	0.02528
2653.82686	0.02521
2652.54109	0.02514
2651.25532	0.02508
2649.96955	0.02515
2648.68378	0.02539
2647.39801	0.02563
2646.11225	0.02561
2644.82648	0.02530
2643.54071	0.02488
2642.25494	0.02464
2640.96917	0.02469
2639.68340	0.02489
2638.39763	0.02499
2637.11186	0.02489
2635.82609	0.02468
2634.54033	0.02446
2633.25456	0.02427
2631.96879	0.02410
2630.68302	0.02401
2629.39725	0.02403
2628.11148	0.02404
2626.82571	0.02395
2625.53994	0.02379
2624.25418	0.02369
2622.96841	0.02367
2621.68264	0.02369
2620.39687	0.02371
2619.11110	0.02375
2617.82533	0.02377
2616.53956	0.02365
2615.25379	0.02336
2613.96802	0.02299
2612.68226	0.02272
2611.39649	0.02263
2610.11072	0.02270
2608.82495	0.02288
2607.53918	0.02305
2606.25341	0.02311
2604.96764	0.02300
2603.68187	0.02280
2602.39611	0.02264
2601.11034	0.02261
2599.82457	0.02267
2598.53880	0.02271
2597.25303	0.02269
2595.96726	0.02270
2594.68149	0.02283
2593.39572	0.02308
2592.10995	0.02331
2590.82419	0.02333
2589.53842	0.02309
2588.25265	0.02268
2586.96688	0.02226
2585.68111	0.02199
2584.39534	0.02196
2583.10957	0.02212
2581.82380	0.02232
2580.53804	0.02243
2579.25227	0.02248
2577.96650	0.02250
2576.68073	0.02240
2575.39496	0.02210
2574.10919	0.02164
2572.82342	0.02113
2571.53765	0.02067
2570.25188	0.02031
2568.96612	0.02020
2567.68035	0.02037
2566.39458	0.02068
2565.10881	0.02083
2563.82304	0.02072
2562.53727	0.02045
2561.25150	0.02026
2559.96573	0.02029
2558.67997	0.02052
2557.39420	0.02083
2556.10843	0.02104
2554.82266	0.02105
2553.53689	0.02092
2552.25112	0.02082
2550.96535	0.02082
2549.67958	0.02086
2548.39381	0.02084
2547.10805	0.02075
2545.82228	0.02069
2544.53651	0.02068
2543.25074	0.02064
2541.96497	0.02051
2540.67920	0.02036
2539.39343	0.02032
2538.10766	0.02043
2536.82190	0.02056
2535.53613	0.02059
2534.25036	0.02060
2532.96459	0.02078
2531.67882	0.02116
2530.39305	0.02151
2529.10728	0.02158
2527.82151	0.02139
2526.53574	0.02112
2525.24998	0.02098
2523.96421	0.02105
2522.67844	0.02125
2521.39267	0.02134
2520.10690	0.02115
2518.82113	0.02081
2517.53536	0.02053
2516.24959	0.02035
2514.96383	0.02012
2513.67806	0.01973
2512.39229	0.01929
2511.10652	0.01898
2509.82075	0.01896
2508.53498	0.01923
2507.24921	0.01974
2505.96344	0.02031
2504.67767	0.02064
2503.39191	0.02055
2502.10614	0.02011
2500.82037	0.01962
2499.53460	0.01938
2498.24883	0.01940
2496.96306	0.01953
2495.67729	0.01959
2494.39152	0.01951
2493.10576	0.01937
2491.81999	0.01922
2490.53422	0.01910
2489.24845	0.01909
2487.96268	0.01929
2486.67691	0.01974
2485.39114	0.02019
2484.10537	0.02035
2482.81960	0.02015
2481.53384	0.01984
2480.24807	0.01965
2478.96230	0.01963
2477.67653	0.01974
2476.39076	0.01990
2475.10499	0.02005
2473.81922	0.02015
2472.53345	0.02016
2471.24769	0.02011
2469.96192	0.02002
2468.67615	0.01998
2467.39038	0.02007
2466.10461	0.02023
2464.81884	0.02029
2463.53307	0.02019
2462.24730	0.02003
2460.96153	0.01992
2459.67577	0.01978
2458.39000	0.01955
2457.10423	0.01923
2455.81846	0.01884
2454.53269	0.01845
2453.24692	0.01820
2451.96115	0.01819
2450.67538	0.01837
2449.38962	0.01855
2448.10385	0.01860
2446.81808	0.01854
2445.53231	0.01848
2444.24654	0.01850
2442.96077	0.01859
2441.67500	0.01867
2440.38923	0.01859
2439.10346	0.01834
2437.81770	0.01813
2436.53193	0.01814
2435.24616	0.01834
2433.96039	0.01862
2432.67462	0.01888
2431.38885	0.01908
2430.10308	0.01912
2428.81731	0.01897
2427.53155	0.01882
2426.24578	0.01889
2424.96001	0.01915
2423.67424	0.01935
2422.38847	0.01942
2421.10270	0.01949
2419.81693	0.01961
2418.53116	0.01958
2417.24539	0.01928
2415.95963	0.01891
2414.67386	0.01881
2413.38809	0.01900
2412.10232	0.01917
2410.81655	0.01906
2409.53078	0.01871
2408.24501	0.01835
2406.95924	0.01823
2405.67347	0.01840
2404.38771	0.01869
2403.10194	0.01890
2401.81617	0.01890
2400.53040	0.01875
2399.24463	0.01855
2397.95886	0.01847
2396.67309	0.01848
2395.38732	0.01849
2394.10156	0.01843
2392.81579	0.01828
2391.53002	0.01813
2390.24425	0.01811
2388.95848	0.01828
2387.67271	0.01860
2386.38694	0.01892
2385.10117	0.01906
2383.81540	0.01895
2382.52964	0.01863
2381.24387	0.01827
2379.95810	0.01806
2378.67233	0.01807
2377.38656	0.01820
2376.10079	0.01828
2374.81502	0.01825
2373.52925	0.01832
2372.24349	0.01859
2370.95772	0.01887
2369.67195	0.01888
2368.38618	0.01871
2367.10041	0.01864
2365.81464	0.01866
2364.52887	0.01866
2363.24310	0.01863
2361.95733	0.01873
2360.67157	0.01919
2359.38580	0.01964
2358.10003	0.01965
2356.81426	0.01920
2355.52849	0.01852
2354.24272	0.01787
2352.95695	0.01757
2351.67118	0.01787
2350.38542	0.01840
2349.09965	0.01856
2347.81388	0.01842
2346.52811	0.01860
2345.24234	0.01886
2343.95657	0.01835
2342.67080	0.01751
2341.38503	0.01792
2340.09926	0.01930
2338.81350	0.01928
2337.52773	0.01800
2336.24196	0.01831
2334.95619	0.01972
2333.67042	0.01933
2332.38465	0.01792
2331.09888	0.01828
2329.81311	0.01871
2328.52735	0.01765
2327.24158	0.01784
2325.95581	0.01890
2324.67004	0.01869
2323.38427	0.01850
2322.09850	0.01881
2320.81273	0.01815
2319.52696	0.01777
2318.24119	0.01783
2316.95543	0.01752
2315.66966	0.01769
2314.38389	0.01814
2313.09812	0.01825
2311.81235	0.01835
2310.52658	0.01813
2309.24081	0.01780
2307.95504	0.01777
2306.66928	0.01779
2305.38351	0.01791
2304.09774	0.01796
2302.81197	0.01787
2301.52620	0.01782
2300.24043	0.01777
2298.95466	0.01779
2297.66889	0.01776
2296.38312	0.01761
2295.09736	0.01736
2293.81159	0.01707
2292.52582	0.01687
2291.24005	0.01675
2289.95428	0.01666
2288.66851	0.01656
2287.38274	0.01645
2286.09697	0.01643
2284.81121	0.01662
2283.52544	0.01701
2282.23967	0.01743
2280.95390	0.01764
2279.66813	0.01746
2278.38236	0.01688
2277.09659	0.01606
2275.81082	0.01526
2274.52505	0.01470
2273.23929	0.01448
2271.95352	0.01458
2270.66775	0.01488
2269.38198	0.01513
2268.09621	0.01512
2266.81044	0.01483
2265.52467	0.01449
2264.23890	0.01430
2262.95314	0.01433
2261.66737	0.01446
2260.38160	0.01453
2259.09583	0.01446
2257.81006	0.01433
2256.52429	0.01426
2255.23852	0.01432
2253.95275	0.01452
2252.66698	0.01464
2251.38122	0.01441
2250.09545	0.01383
2248.80968	0.01321
2247.52391	0.01284
2246.23814	0.01291
2244.95237	0.01313
2243.66660	0.01326
2242.38083	0.01326
2241.09507	0.01318
2239.80930	0.01303
2238.52353	0.01286
2237.23776	0.01284
2235.95199	0.01310
2234.66622	0.01364
2233.38045	0.01426
2232.09468	0.01469
2230.80891	0.01477
2229.52315	0.01459
2228.23738	0.01441
2226.95161	0.01438
2225.66584	0.01435
2224.38007	0.01406
2223.09430	0.01355
2221.80853	0.01326
2220.52276	0.01363
2219.23700	0.01452
2217.95123	0.01533
2216.66546	0.01565
2215.37969	0.01560
2214.09392	0.01553
2212.80815	0.01549
2211.52238	0.01531
2210.23661	0.01495
2208.95084	0.01469
2207.66508	0.01469
2206.37931	0.01467
2205.09354	0.01415
2203.80777	0.01303
2202.52200	0.01177
2201.23623	0.01093
2199.95046	0.01070
2198.66469	0.01086
2197.37893	0.01101
2196.09316	0.01087
2194.80739	0.01051
2193.52162	0.01037
2192.23585	0.01073
2190.95008	0.01134
2189.66431	0.01165
2188.37854	0.01148
2187.09277	0.01104
2185.80701	0.01056
2184.52124	0.00991
2183.23547	0.00893
2181.94970	0.00788
2180.66393	0.00737
2179.37816	0.00763
2178.09239	0.00815
2176.80662	0.00829
2175.52085	0.00811
2174.23509	0.00819
2172.94932	0.00872
2171.66355	0.00916
2170.37778	0.00903
2169.09201	0.00857
2167.80624	0.00847
2166.52047	0.00911
2165.23470	0.01015
2163.94894	0.01095
2162.66317	0.01117
2161.37740	0.01099
2160.09163	0.01066
2158.80586	0.01021
2157.52009	0.00970
2156.23432	0.00938
2154.94855	0.00953
2153.66278	0.01003
2152.37702	0.01036
2151.09125	0.01001
2149.80548	0.00890
2148.51971	0.00756
2147.23394	0.00668
2145.94817	0.00667
2144.66240	0.00741
2143.37663	0.00840
2142.09087	0.00899
2140.80510	0.00887
2139.51933	0.00831
2138.23356	0.00804
2136.94779	0.00853
2135.66202	0.00955
2134.37625	0.01043
2133.09048	0.01074
2131.80471	0.01060
2130.51895	0.01037
2129.23318	0.01026
2127.94741	0.01032
2126.66164	0.01058
2125.37587	0.01107
2124.09010	0.01160
2122.80433	0.01189
2121.51856	0.01183
2120.23280	0.01167
2118.94703	0.01163
2117.66126	0.01160
2116.37549	0.01128
2115.08972	0.01060
2113.80395	0.00985
2112.51818	0.00943
2111.23241	0.00952
2109.94664	0.00992
2108.66088	0.01031
2107.37511	0.01063
2106.08934	0.01105
2104.80357	0.01150
2103.51780	0.01163
2102.23203	0.01129
2100.94626	0.01073
2099.66049	0.00996
2098.37473	0.00952
2097.08896	0.00938
2095.80319	0.00953
2094.51742	0.01007
2093.23165	0.01083
2091.94588	0.01142
2090.66011	0.01156
2089.37434	0.01140
2088.08857	0.01134
2086.80281	0.01158
2085.51704	0.01191
2084.23127	0.01192
2082.94550	0.01138
2081.65973	0.01048
2080.37396	0.00959
2079.08819	0.00901
2077.80242	0.00888
2076.51666	0.00920
2075.23089	0.00979
2073.94512	0.01029
2072.65935	0.01032
2071.37358	0.00967
2070.08781	0.00850
2068.80204	0.00726
2067.51627	0.00639
2066.23050	0.00614
2064.94474	0.00652
2063.65897	0.00735
2062.37320	0.00826
2061.08743	0.00889
2059.80166	0.00899
2058.51589	0.00863
2057.23012	0.00803
2055.94435	0.00749
2054.65859	0.00720
2053.37282	0.00710
2052.08705	0.00701
2050.80128	0.00669
2049.51551	0.00605
2048.22974	0.00516
2046.94397	0.00434
2045.65820	0.00407
2044.37243	0.00467
2043.08667	0.00596
2041.80090	0.00733
2040.51513	0.00822
2039.22936	0.00847
2037.94359	0.00822
2036.65782	0.00766
2035.37205	0.00693
2034.08628	0.00613
2032.80052	0.00534
2031.51475	0.00467
2030.22898	0.00440
2028.94321	0.00490
2027.65744	0.00615
2026.37167	0.00745
2025.08590	0.00793
2023.80013	0.00734
2022.51436	0.00627
2021.22860	0.00550
2019.94283	0.00534
2018.65706	0.00554
2017.37129	0.00580
2016.08552	0.00601
2014.79975	0.00613
2013.51398	0.00608
2012.22821	0.00570
2010.94245	0.00495
2009.65668	0.00405
2008.37091	0.00344
2007.08514	0.00346
2005.79937	0.00394
2004.51360	0.00436
2003.22783	0.00447
2001.94206	0.00459
2000.65629	0.00511
1999.37053	0.00592
1998.08476	0.00655
1996.79899	0.00672
1995.51322	0.00665
1994.22745	0.00671
1992.94168	0.00705
1991.65591	0.00756
1990.37014	0.00810
1989.08438	0.00863
1987.79861	0.00913
1986.51284	0.00943
1985.22707	0.00932
1983.94130	0.00879
1982.65553	0.00807
1981.36976	0.00736
1980.08399	0.00663
1978.79822	0.00581
1977.51246	0.00502
1976.22669	0.00459
1974.94092	0.00473
1973.65515	0.00528
1972.36938	0.00586
1971.08361	0.00616
1969.79784	0.00613
1968.51207	0.00596
1967.22631	0.00580
1965.94054	0.00565
1964.65477	0.00541
1963.36900	0.00508
1962.08323	0.00493
1960.79746	0.00528
1959.51169	0.00618
1958.22592	0.00726
1956.94015	0.00806
1955.65439	0.00847
1954.36862	0.00873
1953.08285	0.00919
1951.79708	0.00988
1950.51131	0.01052
1949.22554	0.01073
1947.93977	0.01035
1946.65400	0.00963
1945.36823	0.00899
1944.08247	0.00870
1942.79670	0.00871
1941.51093	0.00885
1940.22516	0.00901
1938.93939	0.00923
1937.65362	0.00945
1936.36785	0.00958
1935.08208	0.00954
1933.79632	0.00940
1932.51055	0.00924
1931.22478	0.00904
1929.93901	0.00875
1928.65324	0.00846
1927.36747	0.00826
1926.08170	0.00822
1924.79593	0.00838
1923.51016	0.00884
1922.22440	0.00956
1920.93863	0.01028
1919.65286	0.01069
1918.36709	0.01071
1917.08132	0.01047
1915.79555	0.01017
1914.50978	0.00995
1913.22401	0.00985
1911.93825	0.00981
1910.65248	0.00967
1909.36671	0.00934
1908.08094	0.00891
1906.79517	0.00862
1905.50940	0.00858
1904.22363	0.00876
1902.93786	0.00905
1901.65209	0.00939
1900.36633	0.00973
1899.08056	0.00999
1897.79479	0.01008
1896.50902	0.00993
1895.22325	0.00963
1893.93748	0.00933
1892.65171	0.00920
1891.36594	0.00934
1890.08018	0.00966
1888.79441	0.00999
1887.50864	0.01017
1886.22287	0.01017
1884.93710	0.01015
1883.65133	0.01022
1882.36556	0.01031
1881.07979	0.01027
1879.79402	0.01009
1878.50826	0.00990
1877.22249	0.00984
1875.93672	0.00992
1874.65095	0.01008
1873.36518	0.01022
1872.07941	0.01025
1870.79364	0.01012
1869.50787	0.00983
1868.22211	0.00955
1866.93634	0.00945
1865.65057	0.00961
1864.36480	0.00988
1863.07903	0.01007
1861.79326	0.01010
1860.50749	0.01008
1859.22172	0.01014
1857.93595	0.01030
1856.65019	0.01046
1855.36442	0.01051
1854.07865	0.01048
1852.79288	0.01048
1851.50711	0.01061
1850.22134	0.01081
1848.93557	0.01093
1847.64980	0.01087
1846.36404	0.01067
1845.07827	0.01047
1843.79250	0.01038
1842.50673	0.01038
1841.22096	0.01040
1839.93519	0.01038
1838.64942	0.01033
1837.36365	0.01029
1836.07788	0.01026
1834.79212	0.01023
1833.50635	0.01022
1832.22058	0.01028
1830.93481	0.01043
1829.64904	0.01061
1828.36327	0.01069
1827.07750	0.01062
1825.79173	0.01047
1824.50597	0.01028
1823.22020	0.01011
1821.93443	0.00995
1820.64866	0.00982
1819.36289	0.00973
1818.07712	0.00971
1816.79135	0.00977
1815.50558	0.00993
1814.21981	0.01017
1812.93405	0.01041
1811.64828	0.01060
1810.36251	0.01075
1809.07674	0.01085
1807.79097	0.01091
1806.50520	0.01090
1805.21943	0.01082
1803.93366	0.01075
1802.64790	0.01071
1801.36213	0.01069
1800.07636	0.01067
1798.79059	0.01065
1797.50482	0.01070
1796.21905	0.01082
1794.93328	0.01097
1793.64751	0.01106
1792.36174	0.01106
1791.07598	0.01098
1789.79021	0.01089
1788.50444	0.01084
1787.21867	0.01082
1785.93290	0.01079
1784.64713	0.01070
1783.36136	0.01055
1782.07559	0.01041
1780.78983	0.01035
1779.50406	0.01040
1778.21829	0.01054
1776.93252	0.01070
1775.64675	0.01079
1774.36098	0.01079
1773.07521	0.01073
1771.78944	0.01070
1770.50367	0.01071
1769.21791	0.01073
1767.93214	0.01072
1766.64637	0.01070
1765.36060	0.01069
1764.07483	0.01068
1762.78906	0.01069
1761.50329	0.01073
1760.21752	0.01077
1758.93176	0.01081
1757.64599	0.01084
1756.36022	0.01087
1755.07445	0.01089
1753.78868	0.01088
1752.50291	0.01081
1751.21714	0.01064
1749.93137	0.01043
1748.64560	0.01028
1747.35984	0.01026
1746.07407	0.01032
1744.78830	0.01037
1743.50253	0.01032
1742.21676	0.01022
1740.93099	0.01016
1739.64522	0.01021
1738.35945	0.01034
1737.07369	0.01046
1735.78792	0.01053
1734.50215	0.01059
1733.21638	0.01070
1731.93061	0.01084
1730.64484	0.01097
1729.35907	0.01105
1728.07330	0.01108
1726.78753	0.01110
1725.50177	0.01112
1724.21600	0.01111
1722.93023	0.01108
1721.64446	0.01106
1720.35869	0.01108
1719.07292	0.01117
1717.78715	0.01128
1716.50138	0.01137
1715.21561	0.01143
1713.92985	0.01152
1712.64408	0.01171
1711.35831	0.01199
1710.07254	0.01229
1708.78677	0.01253
1707.50100	0.01274
1706.21523	0.01301
1704.92946	0.01337
1703.64370	0.01376
1702.35793	0.01412
1701.07216	0.01448
1699.78639	0.01490
1698.50062	0.01543
1697.21485	0.01604
1695.92908	0.01669
1694.64331	0.01733
1693.35754	0.01793
1692.07178	0.01849
1690.78601	0.01905
1689.50024	0.01961
1688.21447	0.02012
1686.92870	0.02056
1685.64293	0.02097
1684.35716	0.02144
1683.07139	0.02204
1681.78563	0.02275
1680.49986	0.02347
1679.21409	0.02411
1677.92832	0.02467
1676.64255	0.02518
1675.35678	0.02571
1674.07101	0.02626
1672.78524	0.02683
1671.49947	0.02745
1670.21371	0.02814
1668.92794	0.02885
1667.64217	0.02948
1666.35640	0.02995
1665.07063	0.03031
1663.78486	0.03069
1662.49909	0.03119
1661.21332	0.03182
1659.92756	0.03248
1658.64179	0.03306
1657.35602	0.03344
1656.07025	0.03363
1654.78448	0.03376
1653.49871	0.03400
1652.21294	0.03441
1650.92717	0.03492
1649.64140	0.03539
1648.35564	0.03574
1647.06987	0.03600
1645.78410	0.03620
1644.49833	0.03636
1643.21256	0.03651
1641.92679	0.03663
1640.64102	0.03668
1639.35525	0.03660
1638.06949	0.03642
1636.78372	0.03622
1635.49795	0.03605
1634.21218	0.03591
1632.92641	0.03574
1631.64064	0.03546
1630.35487	0.03508
1629.06910	0.03464
1627.78333	0.03418
1626.49757	0.03368
1625.21180	0.03314
1623.92603	0.03260
1622.64026	0.03209
1621.35449	0.03162
1620.06872	0.03115
1618.78295	0.03063
1617.49718	0.03006
1616.21142	0.02951
1614.92565	0.02900
1613.63988	0.02850
1612.35411	0.02801
1611.06834	0.02755
1609.78257	0.02713
1608.49680	0.02676
1607.21103	0.02641
1605.92526	0.02604
1604.63950	0.02570
1603.35373	0.02541
1602.06796	0.02520
1600.78219	0.02502
1599.49642	0.02485
1598.21065	0.02469
1596.92488	0.02455
1595.63911	0.02447
1594.35335	0.02443
1593.06758	0.02441
1591.78181	0.02439
1590.49604	0.02439
1589.21027	0.02440
1587.92450	0.02441
1586.63873	0.02444
1585.35296	0.02450
1584.06719	0.02458
1582.78143	0.02469
1581.49566	0.02483
1580.20989	0.02497
1578.92412	0.02512
1577.63835	0.02528
1576.35258	0.02547
1575.06681	0.02572
1573.78104	0.02598
1572.49528	0.02624
1571.20951	0.02645
1569.92374	0.02665
1568.63797	0.02686
1567.35220	0.02711
1566.06643	0.02742
1564.78066	0.02773
1563.49489	0.02799
1562.20912	0.02816
1560.92336	0.02829
1559.63759	0.02844
1558.35182	0.02865
1557.06605	0.02892
1555.78028	0.02919
1554.49451	0.02946
1553.20874	0.02969
1551.92297	0.02990
1550.63721	0.03010
1549.35144	0.03027
1548.06567	0.03039
1546.77990	0.03045
1545.49413	0.03046
1544.20836	0.03042
1542.92259	0.03037
1541.63682	0.03034
1540.35105	0.03038
1539.06529	0.03050
1537.77952	0.03063
1536.49375	0.03070
1535.20798	0.03069
1533.92221	0.03064
1532.63644	0.03061
1531.35067	0.03060
1530.06490	0.03061
1528.77914	0.03061
1527.49337	0.03061
1526.20760	0.03061
1524.92183	0.03060
1523.63606	0.03060
1522.35029	0.03061
1521.06452	0.03065
1519.77875	0.03070
1518.49298	0.03077
1517.20722	0.03085
1515.92145	0.03097
1514.63568	0.03112
1513.34991	0.03126
1512.06414	0.03139
1510.77837	0.03149
1509.49260	0.03154
1508.20683	0.03158
1506.92107	0.03164
1505.63530	0.03178
1504.34953	0.03201
1503.06376	0.03225
1501.77799	0.03245
1500.49222	0.03257
1499.20645	0.03261
1497.92068	0.03260
1496.63491	0.03257
1495.34915	0.03256
1494.06338	0.03258
1492.77761	0.03259
1491.49184	0.03259
1490.20607	0.03262
1488.92030	0.03270
1487.63453	0.03286
1486.34876	0.03308
1485.06299	0.03333
1483.77723	0.03360
1482.49146	0.03392
1481.20569	0.03433
1479.91992	0.03478
1478.63415	0.03523
1477.34838	0.03564
1476.06261	0.03604
1474.77684	0.03648
1473.49108	0.03699
1472.20531	0.03754
1470.91954	0.03804
1469.63377	0.03842
1468.34800	0.03869
1467.06223	0.03890
1465.77646	0.03910
1464.49069	0.03936
1463.20492	0.03967
1461.91916	0.04000
1460.63339	0.04032
1459.34762	0.04065
1458.06185	0.04104
1456.77608	0.04149
1455.49031	0.04194
1454.20454	0.04232
1452.91877	0.04260
1451.63301	0.04281
1450.34724	0.04293
1449.06147	0.04296
1447.77570	0.04288
1446.48993	0.04275
1445.20416	0.04264
1443.91839	0.04257
1442.63262	0.04251
1441.34685	0.04240
1440.06109	0.04221
1438.77532	0.04198
1437.48955	0.04177
1436.20378	0.04162
1434.91801	0.04152
1433.63224	0.04148
1432.34647	0.04149
1431.06070	0.04159
1429.77494	0.04179
1428.48917	0.04208
1427.20340	0.04243
1425.91763	0.04281
1424.63186	0.04323
1423.34609	0.04367
1422.06032	0.04415
1420.77455	0.04464
1419.48878	0.04511
1418.20302	0.04552
1416.91725	0.04586
1415.63148	0.04614
1414.34571	0.04636
1413.05994	0.04652
1411.77417	0.04665
1410.48840	0.04673
1409.20263	0.04676
1407.91687	0.04671
1406.63110	0.04656
1405.34533	0.04631
1404.05956	0.04596
1402.77379	0.04555
1401.48802	0.04509
1400.20225	0.04457
1398.91648	0.04402
1397.63071	0.04344
1396.34495	0.04285
1395.05918	0.04225
1393.77341	0.04163
1392.48764	0.04099
1391.20187	0.04033
1389.91610	0.03967
1388.63033	0.03904
1387.34456	0.03846
1386.05880	0.03793
1384.77303	0.03742
1383.48726	0.03688
1382.20149	0.03630
1380.91572	0.03567
1379.62995	0.03501
1378.34418	0.03435
1377.05841	0.03370
1375.77264	0.03306
1374.48688	0.03243
1373.20111	0.03179
1371.91534	0.03111
1370.62957	0.03041
1369.34380	0.02972
1368.05803	0.02906
1366.77226	0.02844
1365.48649	0.02785
1364.20073	0.02729
1362.91496	0.02676
1361.62919	0.02625
1360.34342	0.02575
1359.05765	0.02528
1357.77188	0.02486
1356.48611	0.02450
1355.20034	0.02421
1353.91457	0.02397
1352.62881	0.02375
1351.34304	0.02355
1350.05727	0.02335
1348.77150	0.02317
1347.48573	0.02298
1346.19996	0.02279
1344.91419	0.02261
1343.62842	0.02248
1342.34266	0.02241
1341.05689	0.02238
1339.77112	0.02230
1338.48535	0.02215
1337.19958	0.02197
1335.91381	0.02181
1334.62804	0.02168
1333.34227	0.02157
1332.05650	0.02144
1330.77074	0.02132
1329.48497	0.02121
1328.19920	0.02110
1326.91343	0.02096
1325.62766	0.02078
1324.34189	0.02057
1323.05612	0.02037
1321.77035	0.02019
1320.48459	0.02004
1319.19882	0.01992
1317.91305	0.01980
1316.62728	0.01969
1315.34151	0.01957
1314.05574	0.01945
1312.76997	0.01934
1311.48420	0.01922
1310.19843	0.01908
1308.91267	0.01891
1307.62690	0.01874
1306.34113	0.01859
1305.05536	0.01846
1303.76959	0.01835
1302.48382	0.01820
1301.19805	0.01804
1299.91228	0.01789
1298.62652	0.01779
1297.34075	0.01772
1296.05498	0.01763
1294.76921	0.01752
1293.48344	0.01741
1292.19767	0.01734
1290.91190	0.01729
1289.62613	0.01725
1288.34036	0.01722
1287.05460	0.01722
1285.76883	0.01726
1284.48306	0.01731
1283.19729	0.01733
1281.91152	0.01731
1280.62575	0.01725
1279.33998	0.01718
1278.05421	0.01710
1276.76845	0.01705
1275.48268	0.01703
1274.19691	0.01702
1272.91114	0.01701
1271.62537	0.01696
1270.33960	0.01688
1269.05383	0.01680
1267.76806	0.01674
1266.48229	0.01670
1265.19653	0.01668
1263.91076	0.01667
1262.62499	0.01665
1261.33922	0.01663
1260.05345	0.01660
1258.76768	0.01657
1257.48191	0.01656
1256.19614	0.01657
1254.91037	0.01657
1253.62461	0.01656
1252.33884	0.01652
1251.05307	0.01646
1249.76730	0.01641
1248.48153	0.01640
1247.19576	0.01646
1245.90999	0.01654
1244.62422	0.01663
1243.33846	0.01666
1242.05269	0.01664
1240.76692	0.01657
1239.48115	0.01649
1238.19538	0.01641
1236.90961	0.01634
1235.62384	0.01626
1234.33807	0.01618
1233.05230	0.01609
1231.76654	0.01598
1230.48077	0.01587
1229.19500	0.01575
1227.90923	0.01559
1226.62346	0.01539
1225.33769	0.01515
1224.05192	0.01491
1222.76615	0.01471
1221.48039	0.01456
1220.19462	0.01445
1218.90885	0.01434
1217.62308	0.01421
1216.33731	0.01408
1215.05154	0.01395
1213.76577	0.01379
1212.48000	0.01360
1211.19423	0.01339
1209.90847	0.01325
1208.62270	0.01321
1207.33693	0.01325
1206.05116	0.01333
1204.76539	0.01342
1203.47962	0.01346
1202.19385	0.01344
1200.90808	0.01337
1199.62232	0.01328
1198.33655	0.01311
1197.05078	0.01293
1195.76501	0.01279
1194.47924	0.01267
1193.19347	0.01256
1191.90770	0.01242
1190.62193	0.01229
1189.33616	0.01219
1188.05040	0.01214
1186.76463	0.01211
1185.47886	0.01210
1184.19309	0.01209
1182.90732	0.01207
1181.62155	0.01202
1180.33578	0.01195
1179.05001	0.01190
1177.76425	0.01187
1176.47848	0.01185
1175.19271	0.01184
1173.90694	0.01182
1172.62117	0.01179
1171.33540	0.01175
1170.04963	0.01171
1168.76386	0.01169
1167.47809	0.01168
1166.19233	0.01169
1164.90656	0.01171
1163.62079	0.01174
1162.33502	0.01178
1161.04925	0.01183
1159.76348	0.01191
1158.47771	0.01197
1157.19194	0.01198
1155.90618	0.01193
1154.62041	0.01189
1153.33464	0.01193
1152.04887	0.01204
1150.76310	0.01216
1149.47733	0.01224
1148.19156	0.01231
1146.90579	0.01243
1145.62002	0.01262
1144.33426	0.01285
1143.04849	0.01309
1141.76272	0.01331
1140.47695	0.01356
1139.19118	0.01386
1137.90541	0.01425
1136.61964	0.01472
1135.33387	0.01527
1134.04811	0.01591
1132.76234	0.01664
1131.47657	0.01746
1130.19080	0.01832
1128.90503	0.01920
1127.61926	0.02012
1126.33349	0.02113
1125.04772	0.02227
1123.76195	0.02356
1122.47619	0.02494
1121.19042	0.02636
1119.90465	0.02781
1118.61888	0.02931
1117.33311	0.03086
1116.04734	0.03240
1114.76157	0.03388
1113.47580	0.03526
1112.19004	0.03659
1110.90427	0.03791
1109.61850	0.03925
1108.33273	0.04059
1107.04696	0.04191
1105.76119	0.04321
1104.47542	0.04445
1103.18965	0.04562
1101.90388	0.04670
1100.61812	0.04766
1099.33235	0.04853
1098.04658	0.04934
1096.76081	0.05014
1095.47504	0.05095
1094.18927	0.05178
1092.90350	0.05261
1091.61773	0.05345
1090.33197	0.05426
1089.04620	0.05501
1087.76043	0.05566
1086.47466	0.05622
1085.18889	0.05672
1083.90312	0.05723
1082.61735	0.05783
1081.33158	0.05857
1080.04581	0.05943
1078.76005	0.06037
1077.47428	0.06135
1076.18851	0.06235
1074.90274	0.06339
1073.61697	0.06449
1072.33120	0.06565
1071.04543	0.06685
1069.75966	0.06806
1068.47390	0.06925
1067.18813	0.07044
1065.90236	0.07167
1064.61659	0.07298
1063.33082	0.07437
1062.04505	0.07577
1060.75928	0.07711
1059.47351	0.07837
1058.18774	0.07958
1056.90198	0.08079
1055.61621	0.08201
1054.33044	0.08326
1053.04467	0.08449
1051.75890	0.08571
1050.47313	0.08689
1049.18736	0.08807
1047.90159	0.08930
1046.61583	0.09061
1045.33006	0.09198
1044.04429	0.09336
1042.75852	0.09469
1041.47275	0.09597
1040.18698	0.09724
1038.90121	0.09853
1037.61544	0.09988
1036.32967	0.10127
1035.04391	0.10269
1033.75814	0.10403
1032.47237	0.10518
1031.18660	0.10612
1029.90083	0.10688
1028.61506	0.10754
1027.32929	0.10816
1026.04352	0.10875
1024.75775	0.10925
1023.47199	0.10957
1022.18622	0.10972
1020.90045	0.10975
1019.61468	0.10968
1018.32891	0.10949
1017.04314	0.10910
1015.75737	0.10851
1014.47160	0.10772
1013.18584	0.10678
1011.90007	0.10571
1010.61430	0.10454
1009.32853	0.10332
1008.04276	0.10203
1006.75699	0.10062
1005.47122	0.09901
1004.18545	0.09720
1002.89968	0.09524
1001.61392	0.09326
1000.32815	0.09129
999.04238	0.08934
997.75661	0.08734
996.47084	0.08522
995.18507	0.08298
993.89930	0.08069
992.61353	0.07840
991.32777	0.07617
990.04200	0.07398
988.75623	0.07186
987.47046	0.06981
986.18469	0.06790
984.89892	0.06616
983.61315	0.06457
982.32738	0.06300
981.04161	0.06135
979.75585	0.05963
978.47008	0.05792
977.18431	0.05633
975.89854	0.05491
974.61277	0.05367
973.32700	0.05260
972.04123	0.05170
970.75546	0.05098
969.46970	0.05044
968.18393	0.05008
966.89816	0.04992
965.61239	0.04997
964.32662	0.05020
963.04085	0.05055
961.75508	0.05084
960.46931	0.05092
959.18354	0.05068
957.89778	0.05019
956.61201	0.04957
955.32624	0.04890
954.04047	0.04814
952.75470	0.04725
951.46893	0.04625
950.18316	0.04523
948.89739	0.04431
947.61163	0.04351
946.32586	0.04280
945.04009	0.04212
943.75432	0.04141
942.46855	0.04063
941.18278	0.03982
939.89701	0.03901
938.61124	0.03824
937.32547	0.03754
936.03971	0.03695
934.75394	0.03649
933.46817	0.03610
932.18240	0.03570
930.89663	0.03522
929.61086	0.03467
928.32509	0.03414
927.03932	0.03369
925.75356	0.03333
924.46779	0.03298
923.18202	0.03261
921.89625	0.03222
920.61048	0.03182
919.32471	0.03142
918.03894	0.03106
916.75317	0.03077
915.46740	0.03052
914.18164	0.03025
912.89587	0.02988
911.61010	0.02941
910.32433	0.02895
909.03856	0.02863
907.75279	0.02846
906.46702	0.02832
905.18125	0.02810
903.89549	0.02780
902.60972	0.02753
901.32395	0.02736
900.03818	0.02724
898.75241	0.02711
897.46664	0.02694
896.18087	0.02675
894.89510	0.02655
893.60933	0.02637
892.32357	0.02618
891.03780	0.02598
889.75203	0.02579
888.46626	0.02567
887.18049	0.02570
885.89472	0.02597
884.60895	0.02656
883.32318	0.02745
882.03742	0.02848
880.75165	0.02942
879.46588	0.03016
878.18011	0.03072
876.89434	0.03126
875.60857	0.03190
874.32280	0.03261
873.03703	0.03318
871.75126	0.03347
870.46550	0.03345
869.17973	0.03323
867.89396	0.03285
866.60819	0.03231
865.32242	0.03162
864.03665	0.03084
862.75088	0.03008
861.46511	0.02939
860.17935	0.02875
858.89358	0.02812
857.60781	0.02747
856.32204	0.02686
855.03627	0.02640
853.75050	0.02612
852.46473	0.02594
851.17896	0.02576
849.89319	0.02558
848.60743	0.02546
847.32166	0.02538
846.03589	0.02524
844.75012	0.02498
843.46435	0.02463
842.17858	0.02428
840.89281	0.02404
839.60704	0.02394
838.32128	0.02395
837.03551	0.02398
835.74974	0.02395
834.46397	0.02385
833.17820	0.02375
831.89243	0.02365
830.60666	0.02353
829.32089	0.02337
828.03512	0.02319
826.74936	0.02304
825.46359	0.02293
824.17782	0.02287
822.89205	0.02283
821.60628	0.02281
820.32051	0.02283
819.03474	0.02288
817.74897	0.02293
816.46321	0.02290
815.17744	0.02280
813.89167	0.02269
812.60590	0.02263
811.32013	0.02261
810.03436	0.02260
808.74859	0.02258
807.46282	0.02253
806.17705	0.02245
804.89129	0.02234
803.60552	0.02220
802.31975	0.02209
801.03398	0.02200
799.74821	0.02195
798.46244	0.02191
797.17667	0.02188
795.89090	0.02189
794.60513	0.02193
793.31937	0.02198
792.03360	0.02200
790.74783	0.02199
789.46206	0.02200
788.17629	0.02205
786.89052	0.02212
785.60475	0.02215
784.31898	0.02212
783.03322	0.02203
781.74745	0.02190
780.46168	0.02179
779.17591	0.02173
777.89014	0.02173
776.60437	0.02173
775.31860	0.02170
774.03283	0.02163
772.74706	0.02157
771.46130	0.02156
770.17553	0.02160
768.88976	0.02166
767.60399	0.02172
766.31822	0.02180
765.03245	0.02192
763.74668	0.02205
762.46091	0.02212
761.17515	0.02207
759.88938	0.02194
758.60361	0.02180
757.31784	0.02173
756.03207	0.02169
754.74630	0.02167
753.46053	0.02168
752.17476	0.02177
750.88899	0.02189
749.60323	0.02192
748.31746	0.02184
747.03169	0.02173
745.74592	0.02169
744.46015	0.02175
743.17438	0.02187
741.88861	0.02198
740.60284	0.02204
739.31708	0.02199
738.03131	0.02181
736.74554	0.02157
735.45977	0.02144
734.17400	0.02153
732.88823	0.02181
731.60246	0.02211
730.31669	0.02232
729.03092	0.02243
727.74516	0.02246
726.45939	0.02239
725.17362	0.02226
723.88785	0.02212
722.60208	0.02210
721.31631	0.02216
720.03054	0.02225
718.74477	0.02237
717.45901	0.02246
716.17324	0.02249
714.88747	0.02242
713.60170	0.02230
712.31593	0.02218
711.03016	0.02211
709.74439	0.02209
708.45862	0.02208
707.17285	0.02209
705.88709	0.02212
704.60132	0.02217
703.31555	0.02223
702.02978	0.02229
700.74401	0.02233
699.45824	0.02232
698.17247	0.02228
696.88670	0.02223
695.60094	0.02217
694.31517	0.02210
693.02940	0.02199
691.74363	0.02188
690.45786	0.02184
689.17209	0.02189
687.88632	0.02200
686.60055	0.02207
685.31478	0.02203
684.02902	0.02192
682.74325	0.02181
681.45748	0.02174
680.17171	0.02169
678.88594	0.02167
677.60017	0.02166
676.31440	0.02166
675.02863	0.02164
673.74287	0.02156
672.45710	0.02146
671.17133	0.02139
669.88556	0.02140
668.59979	0.02145
667.31402	0.02149
666.02825	0.02163
664.74248	0.02174
663.45671	0.02175
662.17095	0.02166
660.88518	0.02150
659.59941	0.02134
658.31364	0.02120
657.02787	0.02108
655.74210	0.02098
654.45633	0.02090
653.17056	0.02085
651.88480	0.02086
650.59903	0.02091
649.31326	0.02100
648.02749	0.02107
646.74172	0.02107
645.45595	0.02099
644.17018	0.02086
642.88441	0.02074
641.59864	0.02066
640.31288	0.02066
639.02711	0.02073
637.74134	0.02084
636.45557	0.02097
635.16980	0.02108
633.88403	0.02119
632.59826	0.02128
631.31249	0.02130
630.02673	0.02101
628.74096	0.02047
627.45519	0.02050
626.16942	0.01970
624.88365	0.01855
623.59788	0.01802
622.31211	0.01848
621.02634	0.01973
619.74057	0.02137
618.45481	0.02337
617.16904	0.02586
615.88327	0.02851
614.59750	0.03034
613.31173	0.03056
612.02596	0.02954
610.74019	0.02895
609.45442	0.03032
608.16866	0.03365
606.88289	0.03763
605.59712	0.04109
604.31135	0.04371
603.02558	0.04565
601.73981	0.04706
600.45404	0.04782
599.16827	0.04778
597.88250	0.04701
596.59674	0.04575
595.31097	0.04430
594.02520	0.04290
592.73943	0.04171
591.45366	0.04087
590.16789	0.04041
588.88212	0.04030
587.59635	0.04049
586.31059	0.04095
585.02482	0.04167
583.73905	0.04265
582.45328	0.04383
581.16751	0.04509
579.88174	0.04629
578.59597	0.04738
577.31020	0.04842
576.02443	0.04948
574.73867	0.05051
573.45290	0.05145
572.16713	0.05229
570.88136	0.05324
569.59559	0.05453
568.30982	0.05628
567.02405	0.05830
565.73828	0.06025
564.45251	0.06182
563.16675	0.06289
561.88098	0.06348
560.59521	0.06359
559.30944	0.06314
558.02367	0.06207
556.73790	0.06040
555.45213	0.05828
554.16636	0.05593
552.88060	0.05357
551.59483	0.05135
550.30906	0.04934
549.02329	0.04752
547.73752	0.04585
546.45175	0.04425
545.16598	0.04274
543.88021	0.04139
542.59444	0.04026
541.30868	0.03930
540.02291	0.03841
538.73714	0.03750
537.45137	0.03661
536.16560	0.03586
534.87983	0.03528
533.59406	0.03477
532.30829	0.03421
531.02253	0.03353
529.73676	0.03279
528.45099	0.03210
527.16522	0.03155
525.87945	0.03115
524.59368	0.03082
523.30791	0.03043
522.02214	0.02992
520.73637	0.02929
519.45061	0.02866
518.16484	0.02812
516.87907	0.02768
515.59330	0.02732
514.30753	0.02702
513.02176	0.02675
511.73599	0.02651
510.45022	0.02632
509.16446	0.02617
507.87869	0.02600
506.59292	0.02571
505.30715	0.02524
504.02138	0.02467
502.73561	0.02413
501.44984	0.02375
500.16407	0.02353
498.87830	0.02341
497.59254	0.02332
496.30677	0.02320
495.02100	0.02303
493.73523	0.02282
492.44946	0.02262
491.16369	0.02246
489.87792	0.02233
488.59215	0.02219
487.30639	0.02205
486.02062	0.02192
484.73485	0.02179
483.44908	0.02164
482.16331	0.02148
480.87754	0.02139
479.59177	0.02138
478.30600	0.02144
477.02023	0.02154
475.73447	0.02164
474.44870	0.02174
473.16293	0.02183
471.87716	0.02190
470.59139	0.02195
469.30562	0.02192
468.01985	0.02178
466.73408	0.02155
465.44832	0.02132
464.16255	0.02118
462.87678	0.02111
461.59101	0.02103
460.30524	0.02086
459.01947	0.02061
457.73370	0.02035
456.44793	0.02013
455.16216	0.01998
453.87640	0.01986
452.59063	0.01973
451.30486	0.01954
450.01909	0.01929
448.73332	0.01903
447.44755	0.01884
446.16178	0.01874
444.87601	0.01869
443.59025	0.01863
442.30448	0.01855
441.01871	0.01850
439.73294	0.01852
438.44717	0.01856
437.16140	0.01855
435.87563	0.01843
434.58986	0.01828
433.30409	0.01815
432.01833	0.01806
430.73256	0.01799
429.44679	0.01794
428.16102	0.01791
426.87525	0.01789
425.58948	0.01784
424.30371	0.01773
423.01794	0.01755
421.73218	0.01733
420.44641	0.01714
419.16064	0.01700
417.87487	0.01692
416.58910	0.01684
415.30333	0.01672
414.01756	0.01659
412.73179	0.01651
411.44602	0.01648
410.16026	0.01645
408.87449	0.01635
407.58872	0.01619
406.30295	0.01606
405.01718	0.01602
403.73141	0.01607
402.44564	0.01613
401.15987	0.01615
399.87411	0.01613
