3997.45528	-0.00246
3996.16951	-0.00256
3994.88374	-0.00273
3993.59798	-0.00299
3992.31221	-0.00327
3991.02644	-0.00354
3989.74067	-0.00381
3988.45490	-0.00410
3987.16913	-0.00443
3985.88336	-0.00474
3984.59759	-0.00485
3983.31183	-0.00454
3982.02606	-0.00371
3980.74029	-0.00253
3979.45452	-0.00139
3978.16875	-0.00058
3976.88298	-0.00011
3975.59721	0.00023
3974.31144	0.00059
3973.02567	0.00098
3971.73991	0.00130
3970.45414	0.00143
3969.16837	0.00127
3967.88260	0.00081
3966.59683	0.00020
3965.31106	-0.00041
3964.02529	-0.00092
3962.73952	-0.00125
3961.45376	-0.00127
3960.16799	-0.00090
3958.88222	-0.00020
3957.59645	0.00061
3956.31068	0.00132
3955.02491	0.00181
3953.73914	0.00214
3952.45337	0.00240
3951.16760	0.00266
3949.88184	0.00274
3948.59607	0.00235
3947.31030	0.00132
3946.02453	0.00001
3944.73876	-0.00088
3943.45299	-0.00099
3942.16722	-0.00056
3940.88145	-0.00003
3939.59569	0.00045
3938.30992	0.00100
3937.02415	0.00163
3935.73838	0.00219
3934.45261	0.00240
3933.16684	0.00210
3931.88107	0.00142
3930.59530	0.00080
3929.30953	0.00063
3928.02377	0.00095
3926.73800	0.00149
3925.45223	0.00203
3924.16646	0.00249
3922.88069	0.00294
3921.59492	0.00333
3920.30915	0.00338
3919.02338	0.00290
3917.73762	0.00207
3916.45185	0.00143
3915.16608	0.00145
3913.88031	0.00211
3912.59454	0.00286
3911.30877	0.00315
3910.02300	0.00287
3908.73723	0.00231
3907.45146	0.00179
3906.16570	0.00144
3904.87993	0.00115
3903.59416	0.00081
3902.30839	0.00054
3901.02262	0.00056
3899.73685	0.00099
3898.45108	0.00160
3897.16531	0.00212
3895.87955	0.00237
3894.59378	0.00249
3893.30801	0.00274
3892.02224	0.00313
3890.73647	0.00332
3889.45070	0.00318
3888.16493	0.00302
3886.87916	0.00295
3885.59339	0.00270
3884.30763	0.00236
3883.02186	0.00259
3881.73609	0.00363
3880.45032	0.00475
3879.16455	0.00502
3877.87878	0.00444
3876.59301	0.00369
3875.30724	0.00322
3874.02148	0.00298
3872.73571	0.00291
3871.44994	0.00293
3870.16417	0.00271
3868.87840	0.00215
3867.59263	0.00184
3866.30686	0.00222
3865.02109	0.00287
3863.73532	0.00309
3862.44956	0.00283
3861.16379	0.00242
3859.87802	0.00202
3858.59225	0.00175
3857.30648	0.00206
3856.02071	0.00332
3854.73494	0.00511
3853.44917	0.00632
3852.16341	0.00649
3850.87764	0.00623
3849.59187	0.00611
3848.30610	0.00604
3847.02033	0.00586
3845.73456	0.00571
3844.44879	0.00580
3843.16302	0.00603
3841.87725	0.00613
3840.59149	0.00604
3839.30572	0.00581
3838.01995	0.00538
3836.73418	0.00483
3835.44841	0.00457
3834.16264	0.00490
3832.87687	0.00544
3831.59110	0.00548
3830.30534	0.00483
3829.01957	0.00395
3827.73380	0.00332
3826.44803	0.00300
3825.16226	0.00296
3823.87649	0.00342
3822.59072	0.00436
3821.30495	0.00513
3820.01918	0.00525
3818.73342	0.00512
3817.44765	0.00523
3816.16188	0.00538
3814.87611	0.00516
3813.59034	0.00478
3812.30457	0.00446
3811.01880	0.00410
3809.73303	0.00375
3808.44726	0.00363
3807.16150	0.00363
3805.87573	0.00344
3804.58996	0.00334
3803.30419	0.00379
3802.01842	0.00461
3800.73265	0.00515
3799.44688	0.00536
3798.16111	0.00560
3796.87535	0.00580
3795.58958	0.00560
3794.30381	0.00507
3793.01804	0.00464
3791.73227	0.00462
3790.44650	0.00492
3789.16073	0.00532
3787.87496	0.00563
3786.58919	0.00576
3785.30343	0.00566
3784.01766	0.00539
3782.73189	0.00513
3781.44612	0.00503
3780.16035	0.00502
3778.87458	0.00493
3777.58881	0.00481
3776.30304	0.00496
3775.01728	0.00551
3773.73151	0.00625
3772.44574	0.00675
3771.15997	0.00659
3769.87420	0.00567
3768.58843	0.00449
3767.30266	0.00379
3766.01689	0.00372
3764.73112	0.00387
3763.44536	0.00394
3762.15959	0.00405
3760.87382	0.00437
3759.58805	0.00481
3758.30228	0.00516
3757.01651	0.00529
3755.73074	0.00527
3754.44497	0.00533
3753.15921	0.00558
3751.87344	0.00586
3750.58767	0.00595
3749.30190	0.00569
3748.01613	0.00548
3746.73036	0.00598
3745.44459	0.00689
3744.15882	0.00694
3742.87305	0.00554
3741.58729	0.00358
3740.30152	0.00220
3739.01575	0.00191
3737.72998	0.00255
3736.44421	0.00360
3735.15844	0.00444
3733.87267	0.00501
3732.58690	0.00507
3731.30114	0.00432
3730.01537	0.00301
3728.72960	0.00176
3727.44383	0.00116
3726.15806	0.00112
3724.87229	0.00143
3723.58652	0.00198
3722.30075	0.00218
3721.01498	0.00179
3719.72922	0.00152
3718.44345	0.00197
3717.15768	0.00313
3715.87191	0.00451
3714.58614	0.00579
3713.30037	0.00671
3712.01460	0.00660
3710.72883	0.00560
3709.44307	0.00463
3708.15730	0.00391
3706.87153	0.00338
3705.58576	0.00297
3704.29999	0.00277
3703.01422	0.00294
3701.72845	0.00325
3700.44268	0.00352
3699.15691	0.00392
3697.87115	0.00461
3696.58538	0.00535
3695.29961	0.00567
3694.01384	0.00558
3692.72807	0.00516
3691.44230	0.00500
3690.15653	0.00551
3688.87076	0.00610
3687.58500	0.00621
3686.29923	0.00606
3685.01346	0.00605
3683.72769	0.00646
3682.44192	0.00714
3681.15615	0.00775
3679.87038	0.00804
3678.58461	0.00812
3677.29884	0.00827
3676.01308	0.00833
3674.72731	0.00795
3673.44154	0.00724
3672.15577	0.00679
3670.87000	0.00675
3669.58423	0.00677
3668.29846	0.00683
3667.01269	0.00716
3665.72693	0.00768
3664.44116	0.00808
3663.15539	0.00826
3661.86962	0.00827
3660.58385	0.00829
3659.29808	0.00870
3658.01231	0.00980
3656.72654	0.01133
3655.44077	0.01252
3654.15501	0.01287
3652.86924	0.01258
3651.58347	0.01220
3650.29770	0.01211
3649.01193	0.01237
3647.72616	0.01273
3646.44039	0.01289
3645.15462	0.01272
3643.86886	0.01232
3642.58309	0.01198
3641.29732	0.01194
3640.01155	0.01223
3638.72578	0.01268
3637.44001	0.01303
3636.15424	0.01314
3634.86847	0.01304
3633.58270	0.01276
3632.29694	0.01272
3631.01117	0.01329
3629.72540	0.01408
3628.43963	0.01458
3627.15386	0.01480
3625.86809	0.01522
3624.58232	0.01581
3623.29655	0.01642
3622.01079	0.01681
3620.72502	0.01709
3619.43925	0.01716
3618.15348	0.01716
3616.86771	0.01738
3615.58194	0.01779
3614.29617	0.01825
3613.01040	0.01881
3611.72463	0.01952
3610.43887	0.01995
3609.15310	0.01977
3607.86733	0.01931
3606.58156	0.01930
3605.29579	0.01997
3604.01002	0.02093
3602.72425	0.02192
3601.43848	0.02265
3600.15272	0.02304
3598.86695	0.02321
3597.58118	0.02337
3596.29541	0.02330
3595.00964	0.02320
3593.72387	0.02326
3592.43810	0.02324
3591.15233	0.02339
3589.86656	0.02384
3588.58080	0.02424
3587.29503	0.02465
3586.00926	0.02497
3584.72349	0.02507
3583.43772	0.02507
3582.15195	0.02529
3580.86618	0.02593
3579.58041	0.02700
3578.29464	0.02816
3577.00888	0.02906
3575.72311	0.02954
3574.43734	0.02967
3573.15157	0.02960
3571.86580	0.02965
3570.58003	0.03005
3569.29426	0.03080
3568.00849	0.03154
3566.72273	0.03183
3565.43696	0.03163
3564.15119	0.03148
3562.86542	0.03181
3561.57965	0.03261
3560.29388	0.03353
3559.00811	0.03412
3557.72234	0.03421
3556.43657	0.03396
3555.15081	0.03371
3553.86504	0.03369
3552.57927	0.03389
3551.29350	0.03420
3550.00773	0.03461
3548.72196	0.03511
3547.43619	0.03556
3546.15042	0.03565
3544.86466	0.03521
3543.57889	0.03449
3542.29312	0.03400
3541.00735	0.03417
3539.72158	0.03505
3538.43581	0.03637
3537.15004	0.03774
3535.86427	0.03887
3534.57850	0.03957
3533.29274	0.03982
3532.00697	0.03975
3530.72120	0.03953
3529.43543	0.03930
3528.14966	0.03907
3526.86389	0.03886
3525.57812	0.03885
3524.29235	0.03918
3523.00659	0.03981
3521.72082	0.04044
3520.43505	0.04073
3519.14928	0.04057
3517.86351	0.04017
3516.57774	0.03998
3515.29197	0.04032
3514.00620	0.04112
3512.72043	0.04203
3511.43467	0.04277
3510.14890	0.04325
3508.86313	0.04347
3507.57736	0.04341
3506.29159	0.04322
3505.00582	0.04323
3503.72005	0.04364
3502.43428	0.04439
3501.14852	0.04523
3499.86275	0.04600
3498.57698	0.04655
3497.29121	0.04681
3496.00544	0.04684
3494.71967	0.04681
3493.43390	0.04682
3492.14813	0.04680
3490.86236	0.04660
3489.57660	0.04627
3488.29083	0.04603
3487.00506	0.04606
3485.71929	0.04644
3484.43352	0.04717
3483.14775	0.04813
3481.86198	0.04907
3480.57621	0.04968
3479.29045	0.04987
3478.00468	0.04980
3476.71891	0.04965
3475.43314	0.04945
3474.14737	0.04917
3472.86160	0.04895
3471.57583	0.04909
3470.29006	0.04974
3469.00429	0.05064
3467.71853	0.05128
3466.43276	0.05126
3465.14699	0.05062
3463.86122	0.04984
3462.57545	0.04951
3461.28968	0.04985
3460.00391	0.05062
3458.71814	0.05138
3457.43238	0.05183
3456.14661	0.05192
3454.86084	0.05178
3453.57507	0.05164
3452.28930	0.05173
3451.00353	0.05216
3449.71776	0.05276
3448.43199	0.05317
3447.14622	0.05315
3445.86046	0.05282
3444.57469	0.05265
3443.28892	0.05305
3442.00315	0.05399
3440.71738	0.05501
3439.43161	0.05556
3438.14584	0.05535
3436.86007	0.05462
3435.57431	0.05386
3434.28854	0.05355
3433.00277	0.05376
3431.71700	0.05427
3430.43123	0.05484
3429.14546	0.05535
3427.85969	0.05582
3426.57392	0.05622
3425.28815	0.05656
3424.00239	0.05679
3422.71662	0.05684
3421.43085	0.05665
3420.14508	0.05636
3418.85931	0.05622
3417.57354	0.05630
3416.28777	0.05648
3415.00200	0.05658
3413.71624	0.05666
3412.43047	0.05692
3411.14470	0.05746
3409.85893	0.05809
3408.57316	0.05856
3407.28739	0.05877
3406.00162	0.05884
3404.71585	0.05886
3403.43008	0.05881
3402.14432	0.05863
3400.85855	0.05833
3399.57278	0.05792
3398.28701	0.05751
3397.00124	0.05723
3395.71547	0.05726
3394.42970	0.05764
3393.14393	0.05821
3391.85817	0.05868
3390.57240	0.05890
3389.28663	0.05902
3388.00086	0.05927
3386.71509	0.05974
3385.42932	0.06022
3384.14355	0.06043
3382.85778	0.06026
3381.57201	0.05979
3380.28625	0.05918
3379.00048	0.05857
3377.71471	0.05811
3376.42894	0.05785
3375.14317	0.05778
3373.85740	0.05789
3372.57163	0.05817
3371.28586	0.05860
3370.00010	0.05910
3368.71433	0.05959
3367.42856	0.06003
3366.14279	0.06028
3364.85702	0.06020
3363.57125	0.05982
3362.28548	0.05935
3360.99971	0.05902
3359.71394	0.05882
3358.42818	0.05857
3357.14241	0.05826
3355.85664	0.05814
3354.57087	0.05844
3353.28510	0.05905
3351.99933	0.05964
3350.71356	0.05997
3349.42779	0.06001
3348.14202	0.05988
3346.85626	0.05968
3345.57049	0.05944
3344.28472	0.05921
3342.99895	0.05908
3341.71318	0.05917
3340.42741	0.05950
3339.14164	0.05989
3337.85587	0.06009
3336.57011	0.05996
3335.28434	0.05962
3333.99857	0.05936
3332.71280	0.05938
3331.42703	0.05962
3330.14126	0.05992
3328.85549	0.06008
3327.56972	0.06003
3326.28395	0.05987
3324.99819	0.05975
3323.71242	0.05975
3322.42665	0.05983
3321.14088	0.05990
3319.85511	0.05991
3318.56934	0.05986
3317.28357	0.05961
3315.99780	0.05905
3314.71204	0.05824
3313.42627	0.05752
3312.14050	0.05723
3310.85473	0.05747
3309.56896	0.05804
3308.28319	0.05861
3306.99742	0.05897
3305.71165	0.05910
3304.42588	0.05902
3303.14012	0.05873
3301.85435	0.05831
3300.56858	0.05796
3299.28281	0.05781
3297.99704	0.05774
3296.71127	0.05758
3295.42550	0.05736
3294.13973	0.05731
3292.85397	0.05745
3291.56820	0.05759
3290.28243	0.05753
3288.99666	0.05722
3287.71089	0.05674
3286.42512	0.05620
3285.13935	0.05582
3283.85358	0.05582
3282.56781	0.05618
3281.28205	0.05665
3279.99628	0.05690
3278.71051	0.05686
3277.42474	0.05668
3276.13897	0.05656
3274.85320	0.05659
3273.56743	0.05672
3272.28166	0.05684
3270.99590	0.05690
3269.71013	0.05694
3268.42436	0.05700
3267.13859	0.05707
3265.85282	0.05715
3264.56705	0.05714
3263.28128	0.05692
3261.99551	0.05648
3260.70974	0.05608
3259.42398	0.05609
3258.13821	0.05664
3256.85244	0.05736
3255.56667	0.05777
3254.28090	0.05774
3252.99513	0.05757
3251.70936	0.05760
3250.42359	0.05776
3249.13783	0.05771
3247.85206	0.05732
3246.56629	0.05677
3245.28052	0.05637
3243.99475	0.05627
3242.70898	0.05637
3241.42321	0.05641
3240.13744	0.05621
3238.85167	0.05580
3237.56591	0.05541
3236.28014	0.05526
3234.99437	0.05538
3233.70860	0.05563
3232.42283	0.05587
3231.13706	0.05602
3229.85129	0.05608
3228.56552	0.05600
3227.27976	0.05577
3225.99399	0.05544
3224.70822	0.05515
3223.42245	0.05501
3222.13668	0.05500
3220.85091	0.05494
3219.56514	0.05464
3218.27937	0.05410
3216.99360	0.05355
3215.70784	0.05335
3214.42207	0.05366
3213.13630	0.05427
3211.85053	0.05476
3210.56476	0.05481
3209.27899	0.05448
3207.99322	0.05402
3206.70745	0.05365
3205.42169	0.05346
3204.13592	0.05339
3202.85015	0.05332
3201.56438	0.05317
3200.27861	0.05301
3198.99284	0.05301
3197.70707	0.05324
3196.42130	0.05359
3195.13553	0.05379
3193.84977	0.05372
3192.56400	0.05341
3191.27823	0.05305
3189.99246	0.05279
3188.70669	0.05265
3187.42092	0.05256
3186.13515	0.05241
3184.84938	0.05210
3183.56362	0.05171
3182.27785	0.05153
3180.99208	0.05180
3179.70631	0.05240
3178.42054	0.05287
3177.13477	0.05281
3175.84900	0.05230
3174.56323	0.05173
3173.27746	0.05141
3171.99170	0.05136
3170.70593	0.05141
3169.42016	0.05138
3168.13439	0.05123
3166.84862	0.05105
3165.56285	0.05101
3164.27708	0.05113
3162.99131	0.05128
3161.70555	0.05124
3160.41978	0.05097
3159.13401	0.05064
3157.84824	0.05046
3156.56247	0.05040
3155.27670	0.05032
3153.99093	0.05011
3152.70516	0.04973
3151.41939	0.04924
3150.13363	0.04875
3148.84786	0.04840
3147.56209	0.04826
3146.27632	0.04829
3144.99055	0.04836
3143.70478	0.04833
3142.41901	0.04816
3141.13324	0.04799
3139.84748	0.04799
3138.56171	0.04820
3137.27594	0.04842
3135.99017	0.04839
3134.70440	0.04809
3133.41863	0.04771
3132.13286	0.04736
3130.84709	0.04701
3129.56132	0.04662
3128.27556	0.04628
3126.98979	0.04607
3125.70402	0.04602
3124.41825	0.04608
3123.13248	0.04625
3121.84671	0.04652
3120.56094	0.04677
3119.27517	0.04686
3117.98940	0.04678
3116.70364	0.04669
3115.41787	0.04672
3114.13210	0.04680
3112.84633	0.04677
3111.56056	0.04657
3110.27479	0.04633
3108.98902	0.04625
3107.70325	0.04633
3106.41749	0.04635
3105.13172	0.04611
3103.84595	0.04564
3102.56018	0.04518
3101.27441	0.04493
3099.98864	0.04493
3098.70287	0.04505
3097.41710	0.04516
3096.13133	0.04520
3094.84557	0.04522
3093.55980	0.04522
3092.27403	0.04512
3090.98826	0.04488
3089.70249	0.04461
3088.41672	0.04453
3087.13095	0.04473
3085.84518	0.04506
3084.55942	0.04528
3083.27365	0.04522
3081.98788	0.04482
3080.70211	0.04415
3079.41634	0.04340
3078.13057	0.04287
3076.84480	0.04268
3075.55903	0.04270
3074.27326	0.04268
3072.98750	0.04252
3071.70173	0.04231
3070.41596	0.04220
3069.13019	0.04228
3067.84442	0.04252
3066.55865	0.04273
3065.27288	0.04271
3063.98711	0.04235
3062.70135	0.04177
3061.41558	0.04126
3060.12981	0.04102
3058.84404	0.04110
3057.55827	0.04140
3056.27250	0.04172
3054.98673	0.04187
3053.70096	0.04178
3052.41519	0.04150
3051.12943	0.04120
3049.84366	0.04105
3048.55789	0.04106
3047.27212	0.04111
3045.98635	0.04102
3044.70058	0.04074
3043.41481	0.04031
3042.12904	0.03989
3040.84328	0.03965
3039.55751	0.03966
3038.27174	0.03982
3036.98597	0.03995
3035.70020	0.03997
3034.41443	0.03997
3033.12866	0.04007
3031.84289	0.04026
3030.55712	0.04039
3029.27136	0.04036
3027.98559	0.04020
3026.69982	0.04005
3025.41405	0.03999
3024.12828	0.03998
3022.84251	0.04001
3021.55674	0.04007
3020.27097	0.04011
3018.98521	0.04001
3017.69944	0.03967
3016.41367	0.03913
3015.12790	0.03864
3013.84213	0.03843
3012.55636	0.03854
3011.27059	0.03883
3009.98482	0.03910
3008.69905	0.03929
3007.41329	0.03941
3006.12752	0.03949
3004.84175	0.03942
3003.55598	0.03910
3002.27021	0.03858
3000.98444	0.03805
2999.69867	0.03772
2998.41290	0.03774
2997.12714	0.03798
2995.84137	0.03828
2994.55560	0.03852
2993.26983	0.03865
2991.98406	0.03869
2990.69829	0.03857
2989.41252	0.03827
2988.12675	0.03784
2986.84098	0.03750
2985.55522	0.03745
2984.26945	0.03768
2982.98368	0.03800
2981.69791	0.03821
2980.41214	0.03821
2979.12637	0.03812
2977.84060	0.03816
2976.55483	0.03851
2975.26907	0.03909
2973.98330	0.03963
2972.69753	0.03984
2971.41176	0.03970
2970.12599	0.03942
2968.84022	0.03926
2967.55445	0.03934
2966.26868	0.03963
2964.98291	0.03999
2963.69715	0.04024
2962.41138	0.04032
2961.12561	0.04025
2959.83984	0.04020
2958.55407	0.04036
2957.26830	0.04071
2955.98253	0.04102
2954.69676	0.04106
2953.41100	0.04082
2952.12523	0.04058
2950.83946	0.04062
2949.55369	0.04101
2948.26792	0.04151
2946.98215	0.04179
2945.69638	0.04162
2944.41061	0.04106
2943.12484	0.04043
2941.83908	0.04006
2940.55331	0.04010
2939.26754	0.04043
2937.98177	0.04082
2936.69600	0.04108
2935.41023	0.04115
2934.12446	0.04109
2932.83869	0.04106
2931.55293	0.04120
2930.26716	0.04148
2928.98139	0.04173
2927.69562	0.04188
2926.40985	0.04202
2925.12408	0.04222
2923.83831	0.04243
2922.55254	0.04253
2921.26677	0.04249
2919.98101	0.04233
2918.69524	0.04208
2917.40947	0.04170
2916.12370	0.04113
2914.83793	0.04040
2913.55216	0.03966
2912.26639	0.03911
2910.98062	0.03889
2909.69486	0.03904
2908.40909	0.03940
2907.12332	0.03972
2905.83755	0.03982
2904.55178	0.03962
2903.26601	0.03921
2901.98024	0.03874
2900.69447	0.03831
2899.40870	0.03795
2898.12294	0.03768
2896.83717	0.03756
2895.55140	0.03762
2894.26563	0.03769
2892.97986	0.03751
2891.69409	0.03703
2890.40832	0.03647
2889.12255	0.03611
2887.83678	0.03605
2886.55102	0.03615
2885.26525	0.03622
2883.97948	0.03610
2882.69371	0.03579
2881.40794	0.03550
2880.12217	0.03547
2878.83640	0.03574
2877.55063	0.03610
2876.26487	0.03630
2874.97910	0.03628
2873.69333	0.03615
2872.40756	0.03604
2871.12179	0.03597
2869.83602	0.03587
2868.55025	0.03567
2867.26448	0.03533
2865.97871	0.03498
2864.69295	0.03478
2863.40718	0.03486
2862.12141	0.03513
2860.83564	0.03546
2859.54987	0.03577
2858.26410	0.03605
2856.97833	0.03622
2855.69256	0.03623
2854.40680	0.03606
2853.12103	0.03579
2851.83526	0.03544
2850.54949	0.03500
2849.26372	0.03443
2847.97795	0.03383
2846.69218	0.03336
2845.40641	0.03311
2844.12064	0.03301
2842.83488	0.03296
2841.54911	0.03288
2840.26334	0.03277
2838.97757	0.03261
2837.69180	0.03239
2836.40603	0.03212
2835.12026	0.03183
2833.83449	0.03154
2832.54873	0.03121
2831.26296	0.03087
2829.97719	0.03059
2828.69142	0.03048
2827.40565	0.03050
2826.11988	0.03052
2824.83411	0.03043
2823.54834	0.03028
2822.26257	0.03023
2820.97681	0.03027
2819.69104	0.03024
2818.40527	0.03000
2817.11950	0.02959
2815.83373	0.02922
2814.54796	0.02901
2813.26219	0.02893
2811.97642	0.02889
2810.69066	0.02882
2809.40489	0.02876
2808.11912	0.02875
2806.83335	0.02879
2805.54758	0.02885
2804.26181	0.02886
2802.97604	0.02878
2801.69027	0.02867
2800.40450	0.02863
2799.11874	0.02870
2797.83297	0.02880
2796.54720	0.02878
2795.26143	0.02859
2793.97566	0.02828
2792.68989	0.02803
2791.40412	0.02798
2790.11835	0.02811
2788.83259	0.02825
2787.54682	0.02822
2786.26105	0.02802
2784.97528	0.02775
2783.68951	0.02757
2782.40374	0.02750
2781.11797	0.02753
2779.83220	0.02760
2778.54643	0.02761
2777.26067	0.02748
2775.97490	0.02720
2774.68913	0.02689
2773.40336	0.02675
2772.11759	0.02683
2770.83182	0.02699
2769.54605	0.02701
2768.26028	0.02686
2766.97452	0.02671
2765.68875	0.02675
2764.40298	0.02696
2763.11721	0.02719
2761.83144	0.02725
2760.54567	0.02710
2759.25990	0.02690
2757.97413	0.02685
2756.68836	0.02701
2755.40260	0.02723
2754.11683	0.02729
2752.83106	0.02705
2751.54529	0.02659
2750.25952	0.02617
2748.97375	0.02602
2747.68798	0.02619
2746.40221	0.02650
2745.11645	0.02672
2743.83068	0.02673
2742.54491	0.02662
2741.25914	0.02651
2739.97337	0.02640
2738.68760	0.02628
2737.40183	0.02618
2736.11606	0.02614
2734.83029	0.02618
2733.54453	0.02625
2732.25876	0.02621
2730.97299	0.02598
2729.68722	0.02565
2728.40145	0.02538
2727.11568	0.02532
2725.82991	0.02537
2724.54414	0.02533
2723.25838	0.02512
2721.97261	0.02492
2720.68684	0.02494
2719.40107	0.02517
2718.11530	0.02541
2716.82953	0.02553
2715.54376	0.02559
2714.25799	0.02567
2712.97222	0.02574
2711.68646	0.02566
2710.40069	0.02539
2709.11492	0.02504
2707.82915	0.02474
2706.54338	0.02461
2705.25761	0.02464
2703.97184	0.02480
2702.68607	0.02497
2701.40031	0.02502
2700.11454	0.02493
2698.82877	0.02475
2697.54300	0.02455
2696.25723	0.02437
2694.97146	0.02417
2693.68569	0.02398
2692.39992	0.02386
2691.11415	0.02387
2689.82839	0.02395
2688.54262	0.02405
2687.25685	0.02412
2685.97108	0.02417
2684.68531	0.02419
2683.39954	0.02416
2682.11377	0.02409
2680.82800	0.02400
2679.54224	0.02390
2678.25647	0.02376
2676.97070	0.02362
2675.68493	0.02354
2674.39916	0.02362
2673.11339	0.02385
2671.82762	0.02416
2670.54185	0.02440
2669.25608	0.02448
2667.97032	0.02439
2666.68455	0.02414
2665.39878	0.02387
2664.11301	0.02373
2662.82724	0.02380
2661.54147	0.02401
2660.25570	0.02420
2658.96993	0.02427
2657.68417	0.02422
2656.39840	0.02411
2655.11263	0.02398
2653.82686	0.02384
2652.54109	0.02374
2651.25532	0.02366
2649.96955	0.02358
2648.68378	0.02345
2647.39801	0.02329
2646.11225	0.02316
2644.82648	0.02299
2643.54071	0.02274
2642.25494	0.02248
2640.96917	0.02241
2639.68340	0.02260
2638.39763	0.02281
2637.11186	0.02275
2635.82609	0.02232
2634.54033	0.02177
2633.25456	0.02147
2631.96879	0.02157
2630.68302	0.02196
2629.39725	0.02231
2628.11148	0.02237
2626.82571	0.02208
2625.53994	0.02162
2624.25418	0.02114
2622.96841	0.02069
2621.68264	0.02028
2620.39687	0.01997
2619.11110	0.01987
2617.82533	0.02001
2616.53956	0.02029
2615.25379	0.02058
2613.96802	0.02070
2612.68226	0.02057
2611.39649	0.02024
2610.11072	0.01992
2608.82495	0.01984
2607.53918	0.01996
2606.25341	0.02006
2604.96764	0.01993
2603.68187	0.01955
2602.39611	0.01906
2601.11034	0.01865
2599.82457	0.01842
2598.53880	0.01837
2597.25303	0.01842
2595.96726	0.01850
2594.68149	0.01864
2593.39572	0.01885
2592.10995	0.01912
2590.82419	0.01941
2589.53842	0.01963
2588.25265	0.01969
2586.96688	0.01949
2585.68111	0.01903
2584.39534	0.01847
2583.10957	0.01803
2581.82380	0.01786
2580.53804	0.01787
2579.25227	0.01780
2577.96650	0.01751
2576.68073	0.01720
2575.39496	0.01716
2574.10919	0.01750
2572.82342	0.01799
2571.53765	0.01828
2570.25188	0.01816
2568.96612	0.01774
2567.68035	0.01735
2566.39458	0.01729
2565.10881	0.01750
2563.82304	0.01767
2562.53727	0.01760
2561.25150	0.01745
2559.96573	0.01742
2558.67997	0.01750
2557.39420	0.01752
2556.10843	0.01737
2554.82266	0.01715
2553.53689	0.01697
2552.25112	0.01687
2550.96535	0.01675
2549.67958	0.01651
2548.39381	0.01615
2547.10805	0.01578
2545.82228	0.01551
2544.53651	0.01533
2543.25074	0.01520
2541.96497	0.01517
2540.67920	0.01533
2539.39343	0.01570
2538.10766	0.01617
2536.82190	0.01656
2535.53613	0.01673
2534.25036	0.01672
2532.96459	0.01672
2531.67882	0.01692
2530.39305	0.01728
2529.10728	0.01755
2527.82151	0.01747
2526.53574	0.01707
2525.24998	0.01668
2523.96421	0.01662
2522.67844	0.01691
2521.39267	0.01720
2520.10690	0.01716
2518.82113	0.01680
2517.53536	0.01648
2516.24959	0.01650
2514.96383	0.01682
2513.67806	0.01711
2512.39229	0.01715
2511.10652	0.01699
2509.82075	0.01683
2508.53498	0.01673
2507.24921	0.01662
2505.96344	0.01647
2504.67767	0.01641
2503.39191	0.01657
2502.10614	0.01681
2500.82037	0.01682
2499.53460	0.01652
2498.24883	0.01613
2496.96306	0.01593
2495.67729	0.01597
2494.39152	0.01618
2493.10576	0.01650
2491.81999	0.01686
2490.53422	0.01708
2489.24845	0.01707
2487.96268	0.01690
2486.67691	0.01672
2485.39114	0.01658
2484.10537	0.01643
2482.81960	0.01622
2481.53384	0.01599
2480.24807	0.01581
2478.96230	0.01575
2477.67653	0.01573
2476.39076	0.01562
2475.10499	0.01541
2473.81922	0.01530
2472.53345	0.01546
2471.24769	0.01588
2469.96192	0.01634
2468.67615	0.01669
2467.39038	0.01691
2466.10461	0.01696
2464.81884	0.01679
2463.53307	0.01642
2462.24730	0.01604
2460.96153	0.01584
2459.67577	0.01582
2458.39000	0.01587
2457.10423	0.01598
2455.81846	0.01617
2454.53269	0.01632
2453.24692	0.01634
2451.96115	0.01634
2450.67538	0.01653
2449.38962	0.01684
2448.10385	0.01691
2446.81808	0.01653
2445.53231	0.01590
2444.24654	0.01539
2442.96077	0.01516
2441.67500	0.01511
2440.38923	0.01504
2439.10346	0.01490
2437.81770	0.01475
2436.53193	0.01466
2435.24616	0.01464
2433.96039	0.01471
2432.67462	0.01486
2431.38885	0.01505
2430.10308	0.01523
2428.81731	0.01535
2427.53155	0.01538
2426.24578	0.01536
2424.96001	0.01531
2423.67424	0.01527
2422.38847	0.01526
2421.10270	0.01527
2419.81693	0.01533
2418.53116	0.01544
2417.24539	0.01551
2415.95963	0.01537
2414.67386	0.01499
2413.38809	0.01453
2412.10232	0.01432
2410.81655	0.01453
2409.53078	0.01502
2408.24501	0.01548
2406.95924	0.01568
2405.67347	0.01562
2404.38771	0.01538
2403.10194	0.01505
2401.81617	0.01477
2400.53040	0.01470
2399.24463	0.01543
2397.95886	0.01606
2396.67309	0.01625
2395.38732	0.01608
2394.10156	0.01568
2392.81579	0.01517
2391.53002	0.01465
2390.24425	0.01423
2388.95848	0.01392
2387.67271	0.01365
2386.38694	0.01331
2385.10117	0.01290
2383.81540	0.01248
2382.52964	0.01215
2381.24387	0.01196
2379.95810	0.01210
2378.67233	0.01237
2377.38656	0.01240
2376.10079	0.01260
2374.81502	0.01275
2373.52925	0.01212
2372.24349	0.01077
2370.95772	0.00892
2369.67195	0.00829
2368.38618	0.00877
2367.10041	0.00836
2365.81464	0.00715
2364.52887	0.00693
2363.24310	0.00674
2361.95733	0.00496
2360.67157	0.00296
2359.38580	0.00351
2358.10003	0.00562
2356.81426	0.00752
2355.52849	0.00889
2354.24272	0.00937
2352.95695	0.00907
2351.67118	0.00662
2350.38542	0.00120
2349.09965	-0.00191
2347.81388	0.00222
2346.52811	0.00899
2345.24234	0.01154
2343.95657	0.01027
2342.67080	0.00963
2341.38503	0.01003
2340.09926	0.00995
2338.81350	0.00962
2337.52773	0.00893
2336.24196	0.00870
2334.95619	0.00833
2333.67042	0.00755
2332.38465	0.00786
2331.09888	0.00855
2329.81311	0.00880
2328.52735	0.00963
2327.24158	0.01013
2325.95581	0.01015
2324.67004	0.01088
2323.38427	0.01170
2322.09850	0.01228
2320.81273	0.01313
2319.52696	0.01315
2318.24119	0.01205
2316.95543	0.01114
2315.66966	0.01118
2314.38389	0.01185
2313.09812	0.01235
2311.81235	0.01264
2310.52658	0.01288
2309.24081	0.01304
2307.95504	0.01330
2306.66928	0.01362
2305.38351	0.01368
2304.09774	0.01360
2302.81197	0.01368
2301.52620	0.01385
2300.24043	0.01380
2298.95466	0.01350
2297.66889	0.01308
2296.38312	0.01272
2295.09736	0.01257
2293.81159	0.01263
2292.52582	0.01284
2291.24005	0.01314
2289.95428	0.01336
2288.66851	0.01343
2287.38274	0.01342
2286.09697	0.01343
2284.81121	0.01346
2283.52544	0.01349
2282.23967	0.01343
2280.95390	0.01317
2279.66813	0.01272
2278.38236	0.01226
2277.09659	0.01212
2275.81082	0.01237
2274.52505	0.01281
2273.23929	0.01317
2271.95352	0.01319
2270.66775	0.01289
2269.38198	0.01247
2268.09621	0.01208
2266.81044	0.01173
2265.52467	0.01136
2264.23890	0.01094
2262.95314	0.01062
2261.66737	0.01068
2260.38160	0.01118
2259.09583	0.01181
2257.81006	0.01224
2256.52429	0.01231
2255.23852	0.01213
2253.95275	0.01190
2252.66698	0.01169
2251.38122	0.01149
2250.09545	0.01131
2248.80968	0.01113
2247.52391	0.01044
2246.23814	0.00960
2244.95237	0.00892
2243.66660	0.00872
2242.38083	0.00913
2241.09507	0.00987
2239.80930	0.01040
2238.52353	0.01041
2237.23776	0.01001
2235.95199	0.00955
2234.66622	0.00927
2233.38045	0.00932
2232.09468	0.00982
2230.80891	0.01059
2229.52315	0.01109
2228.23738	0.01088
2226.95161	0.01013
2225.66584	0.00942
2224.38007	0.00895
2223.09430	0.00849
2221.80853	0.00788
2220.52276	0.00734
2219.23700	0.00722
2217.95123	0.00757
2216.66546	0.00810
2215.37969	0.00835
2214.09392	0.00801
2212.80815	0.00713
2211.52238	0.00621
2210.23661	0.00588
2208.95084	0.00626
2207.66508	0.00687
2206.37931	0.00725
2205.09354	0.00746
2203.80777	0.00771
2202.52200	0.00781
2201.23623	0.00727
2199.95046	0.00609
2198.66469	0.00503
2197.37893	0.00489
2196.09316	0.00583
2194.80739	0.00726
2193.52162	0.00842
2192.23585	0.00874
2190.95008	0.00806
2189.66431	0.00661
2188.37854	0.00499
2187.09277	0.00389
2185.80701	0.00343
2184.52124	0.00304
2183.23547	0.00222
2181.94970	0.00138
2180.66393	0.00136
2179.37816	0.00232
2178.09239	0.00345
2176.80662	0.00379
2175.52085	0.00308
2174.23509	0.00180
2172.94932	0.00065
2171.66355	0.00013
2170.37778	0.00030
2169.09201	0.00081
2167.80624	0.00120
2166.52047	0.00122
2165.23470	0.00119
2163.94894	0.00151
2162.66317	0.00209
2161.37740	0.00223
2160.09163	0.00135
2158.80586	-0.00030
2157.52009	-0.00188
2156.23432	-0.00280
2154.94855	-0.00287
2153.66278	-0.00212
2152.37702	-0.00065
2151.09125	0.00117
2149.80548	0.00279
2148.51971	0.00385
2147.23394	0.00427
2145.94817	0.00419
2144.66240	0.00382
2143.37663	0.00346
2142.09087	0.00361
2140.80510	0.00459
2139.51933	0.00601
2138.23356	0.00689
2136.94779	0.00646
2135.66202	0.00492
2134.37625	0.00324
2133.09048	0.00233
2131.80471	0.00251
2130.51895	0.00350
2129.23318	0.00471
2127.94741	0.00561
2126.66164	0.00603
2125.37587	0.00615
2124.09010	0.00620
2122.80433	0.00625
2121.51856	0.00632
2120.23280	0.00644
2118.94703	0.00654
2117.66126	0.00646
2116.37549	0.00627
2115.08972	0.00632
2113.80395	0.00674
2112.51818	0.00714
2111.23241	0.00699
2109.94664	0.00629
2108.66088	0.00565
2107.37511	0.00561
2106.08934	0.00615
2104.80357	0.00683
2103.51780	0.00718
2102.23203	0.00704
2100.94626	0.00655
2099.66049	0.00621
2098.37473	0.00568
2097.08896	0.00500
2095.80319	0.00446
2094.51742	0.00435
2093.23165	0.00477
2091.94588	0.00546
2090.66011	0.00598
2089.37434	0.00606
2088.08857	0.00580
2086.80281	0.00552
2085.51704	0.00535
2084.23127	0.00527
2082.94550	0.00527
2081.65973	0.00545
2080.37396	0.00580
2079.08819	0.00614
2077.80242	0.00621
2076.51666	0.00592
2075.23089	0.00529
2073.94512	0.00439
2072.65935	0.00340
2071.37358	0.00258
2070.08781	0.00217
2068.80204	0.00222
2067.51627	0.00259
2066.23050	0.00302
2064.94474	0.00329
2063.65897	0.00341
2062.37320	0.00347
2061.08743	0.00353
2059.80166	0.00351
2058.51589	0.00328
2057.23012	0.00278
2055.94435	0.00214
2054.65859	0.00170
2053.37282	0.00178
2052.08705	0.00232
2050.80128	0.00289
2049.51551	0.00302
2048.22974	0.00258
2046.94397	0.00170
2045.65820	0.00055
2044.37243	-0.00069
2043.08667	-0.00170
2041.80090	-0.00215
2040.51513	-0.00193
2039.22936	-0.00125
2037.94359	-0.00048
2036.65782	0.00016
2035.37205	0.00071
2034.08628	0.00123
2032.80052	0.00155
2031.51475	0.00130
2030.22898	0.00041
2028.94321	-0.00073
2027.65744	-0.00158
2026.37167	-0.00187
2025.08590	-0.00168
2023.80013	-0.00120
2022.51436	-0.00051
2021.22860	0.00036
2019.94283	0.00133
2018.65706	0.00214
2017.37129	0.00247
2016.08552	0.00205
2014.79975	0.00100
2013.51398	-0.00006
2012.22821	-0.00035
2010.94245	0.00029
2009.65668	0.00122
2008.37091	0.00163
2007.08514	0.00146
2005.79937	0.00126
2004.51360	0.00140
2003.22783	0.00171
2001.94206	0.00194
2000.65629	0.00218
1999.37053	0.00263
1998.08476	0.00326
1996.79899	0.00381
1995.51322	0.00409
1994.22745	0.00413
1992.94168	0.00410
1991.65591	0.00413
1990.37014	0.00426
1989.08438	0.00450
1987.79861	0.00476
1986.51284	0.00488
1985.22707	0.00478
1983.94130	0.00459
1982.65553	0.00448
1981.36976	0.00445
1980.08399	0.00439
1978.79822	0.00425
1977.51246	0.00399
1976.22669	0.00363
1974.94092	0.00328
1973.65515	0.00318
1972.36938	0.00350
1971.08361	0.00418
1969.79784	0.00497
1968.51207	0.00565
1967.22631	0.00606
1965.94054	0.00598
1964.65477	0.00534
1963.36900	0.00440
1962.08323	0.00370
1960.79746	0.00365
1959.51169	0.00412
1958.22592	0.00457
1956.94015	0.00467
1955.65439	0.00463
1954.36862	0.00487
1953.08285	0.00549
1951.79708	0.00618
1950.51131	0.00658
1949.22554	0.00658
1947.93977	0.00628
1946.65400	0.00590
1945.36823	0.00575
1944.08247	0.00604
1942.79670	0.00676
1941.51093	0.00754
1940.22516	0.00793
1938.93939	0.00773
1937.65362	0.00717
1936.36785	0.00668
1935.08208	0.00658
1933.79632	0.00686
1932.51055	0.00722
1931.22478	0.00733
1929.93901	0.00706
1928.65324	0.00654
1927.36747	0.00606
1926.08170	0.00583
1924.79593	0.00585
1923.51016	0.00599
1922.22440	0.00613
1920.93863	0.00625
1919.65286	0.00641
1918.36709	0.00658
1917.08132	0.00678
1915.79555	0.00709
1914.50978	0.00758
1913.22401	0.00813
1911.93825	0.00843
1910.65248	0.00826
1909.36671	0.00772
1908.08094	0.00718
1906.79517	0.00701
1905.50940	0.00728
1904.22363	0.00773
1902.93786	0.00813
1901.65209	0.00847
1900.36633	0.00884
1899.08056	0.00921
1897.79479	0.00939
1896.50902	0.00925
1895.22325	0.00884
1893.93748	0.00838
1892.65171	0.00810
1891.36594	0.00807
1890.08018	0.00822
1888.79441	0.00846
1887.50864	0.00879
1886.22287	0.00917
1884.93710	0.00940
1883.65133	0.00931
1882.36556	0.00892
1881.07979	0.00842
1879.79402	0.00798
1878.50826	0.00771
1877.22249	0.00764
1875.93672	0.00777
1874.65095	0.00805
1873.36518	0.00840
1872.07941	0.00879
1870.79364	0.00915
1869.50787	0.00925
1868.22211	0.00900
1866.93634	0.00857
1865.65057	0.00828
1864.36480	0.00825
1863.07903	0.00834
1861.79326	0.00837
1860.50749	0.00834
1859.22172	0.00840
1857.93595	0.00866
1856.65019	0.00908
1855.36442	0.00945
1854.07865	0.00958
1852.79288	0.00943
1851.50711	0.00912
1850.22134	0.00883
1848.93557	0.00868
1847.64980	0.00873
1846.36404	0.00897
1845.07827	0.00922
1843.79250	0.00932
1842.50673	0.00926
1841.22096	0.00925
1839.93519	0.00936
1838.64942	0.00944
1837.36365	0.00932
1836.07788	0.00905
1834.79212	0.00879
1833.50635	0.00869
1832.22058	0.00879
1830.93481	0.00896
1829.64904	0.00905
1828.36327	0.00906
1827.07750	0.00915
1825.79173	0.00933
1824.50597	0.00947
1823.22020	0.00953
1821.93443	0.00957
1820.64866	0.00961
1819.36289	0.00955
1818.07712	0.00938
1816.79135	0.00917
1815.50558	0.00907
1814.21981	0.00916
1812.93405	0.00940
1811.64828	0.00966
1810.36251	0.00980
1809.07674	0.00981
1807.79097	0.00977
1806.50520	0.00975
1805.21943	0.00977
1803.93366	0.00983
1802.64790	0.00988
1801.36213	0.00988
1800.07636	0.00980
1798.79059	0.00969
1797.50482	0.00966
1796.21905	0.00980
1794.93328	0.01014
1793.64751	0.01055
1792.36174	0.01078
1791.07598	0.01067
1789.79021	0.01033
1788.50444	0.01003
1787.21867	0.00991
1785.93290	0.00997
1784.64713	0.01012
1783.36136	0.01032
1782.07559	0.01057
1780.78983	0.01082
1779.50406	0.01099
1778.21829	0.01105
1776.93252	0.01106
1775.64675	0.01117
1774.36098	0.01141
1773.07521	0.01164
1771.78944	0.01166
1770.50367	0.01153
1769.21791	0.01143
1767.93214	0.01137
1766.64637	0.01129
1765.36060	0.01127
1764.07483	0.01146
1762.78906	0.01175
1761.50329	0.01191
1760.21752	0.01188
1758.93176	0.01184
1757.64599	0.01190
1756.36022	0.01197
1755.07445	0.01204
1753.78868	0.01217
1752.50291	0.01234
1751.21714	0.01234
1749.93137	0.01209
1748.64560	0.01177
1747.35984	0.01158
1746.07407	0.01159
1744.78830	0.01174
1743.50253	0.01194
1742.21676	0.01216
1740.93099	0.01232
1739.64522	0.01230
1738.35945	0.01214
1737.07369	0.01222
1735.78792	0.01276
1734.50215	0.01343
1733.21638	0.01372
1731.93061	0.01357
1730.64484	0.01335
1729.35907	0.01326
1728.07330	0.01325
1726.78753	0.01325
1725.50177	0.01330
1724.21600	0.01336
1722.93023	0.01337
1721.64446	0.01342
1720.35869	0.01374
1719.07292	0.01435
1717.78715	0.01494
1716.50138	0.01523
1715.21561	0.01527
1713.92985	0.01526
1712.64408	0.01531
1711.35831	0.01542
1710.07254	0.01557
1708.78677	0.01578
1707.50100	0.01607
1706.21523	0.01635
1704.92946	0.01656
1703.64370	0.01686
1702.35793	0.01747
1701.07216	0.01813
1699.78639	0.01839
1698.50062	0.01834
1697.21485	0.01843
1695.92908	0.01866
1694.64331	0.01869
1693.35754	0.01857
1692.07178	0.01866
1690.78601	0.01896
1689.50024	0.01924
1688.21447	0.01951
1686.92870	0.02005
1685.64293	0.02079
1684.35716	0.02126
1683.07139	0.02118
1681.78563	0.02091
1680.49986	0.02089
1679.21409	0.02117
1677.92832	0.02167
1676.64255	0.02228
1675.35678	0.02277
1674.07101	0.02302
1672.78524	0.02321
1671.49947	0.02356
1670.21371	0.02403
1668.92794	0.02438
1667.64217	0.02454
1666.35640	0.02469
1665.07063	0.02501
1663.78486	0.02542
1662.49909	0.02574
1661.21332	0.02592
1659.92756	0.02604
1658.64179	0.02620
1657.35602	0.02646
1656.07025	0.02706
1654.78448	0.02804
1653.49871	0.02885
1652.21294	0.02889
1650.92717	0.02837
1649.64140	0.02811
1648.35564	0.02844
1647.06987	0.02896
1645.78410	0.02919
1644.49833	0.02912
1643.21256	0.02903
1641.92679	0.02909
1640.64102	0.02922
1639.35525	0.02942
1638.06949	0.02977
1636.78372	0.03024
1635.49795	0.03051
1634.21218	0.03039
1632.92641	0.03013
1631.64064	0.03005
1630.35487	0.03023
1629.06910	0.03050
1627.78333	0.03071
1626.49757	0.03089
1625.21180	0.03111
1623.92603	0.03130
1622.64026	0.03135
1621.35449	0.03126
1620.06872	0.03129
1618.78295	0.03163
1617.49718	0.03206
1616.21142	0.03220
1614.92565	0.03199
1613.63988	0.03177
1612.35411	0.03179
1611.06834	0.03202
1609.78257	0.03229
1608.49680	0.03255
1607.21103	0.03278
1605.92526	0.03296
1604.63950	0.03311
1603.35373	0.03324
1602.06796	0.03332
1600.78219	0.03339
1599.49642	0.03347
1598.21065	0.03357
1596.92488	0.03370
1595.63911	0.03384
1594.35335	0.03400
1593.06758	0.03416
1591.78181	0.03433
1590.49604	0.03447
1589.21027	0.03457
1587.92450	0.03467
1586.63873	0.03478
1585.35296	0.03490
1584.06719	0.03502
1582.78143	0.03511
1581.49566	0.03517
1580.20989	0.03525
1578.92412	0.03549
1577.63835	0.03590
1576.35258	0.03621
1575.06681	0.03614
1573.78104	0.03591
1572.49528	0.03592
1571.20951	0.03625
1569.92374	0.03658
1568.63797	0.03666
1567.35220	0.03653
1566.06643	0.03636
1564.78066	0.03622
1563.49489	0.03617
1562.20912	0.03645
1560.92336	0.03710
1559.63759	0.03772
1558.35182	0.03780
1557.06605	0.03742
1555.78028	0.03707
1554.49451	0.03698
1553.20874	0.03701
1551.92297	0.03706
1550.63721	0.03714
1549.35144	0.03724
1548.06567	0.03734
1546.77990	0.03752
1545.49413	0.03779
1544.20836	0.03810
1542.92259	0.03848
1541.63682	0.03895
1540.35105	0.03932
1539.06529	0.03931
1537.77952	0.03901
1536.49375	0.03885
1535.20798	0.03912
1533.92221	0.03961
1532.63644	0.04002
1531.35067	0.04035
1530.06490	0.04081
1528.77914	0.04148
1527.49337	0.04229
1526.20760	0.04311
1524.92183	0.04397
1523.63606	0.04499
1522.35029	0.04618
1521.06452	0.04732
1519.77875	0.04832
1518.49298	0.04935
1517.20722	0.05054
1515.92145	0.05180
1514.63568	0.05303
1513.34991	0.05431
1512.06414	0.05563
1510.77837	0.05703
1509.49260	0.05865
1508.20683	0.06053
1506.92107	0.06237
1505.63530	0.06376
1504.34953	0.06473
1503.06376	0.06567
1501.77799	0.06684
1500.49222	0.06815
1499.20645	0.06946
1497.92068	0.07071
1496.63491	0.07180
1495.34915	0.07264
1494.06338	0.07336
1492.77761	0.07420
1491.49184	0.07522
1490.20607	0.07628
1488.92030	0.07726
1487.63453	0.07819
1486.34876	0.07914
1485.06299	0.08020
1483.77723	0.08140
1482.49146	0.08273
1481.20569	0.08410
1479.91992	0.08547
1478.63415	0.08682
1477.34838	0.08813
1476.06261	0.08938
1474.77684	0.09061
1473.49108	0.09173
1472.20531	0.09258
1470.91954	0.09309
1469.63377	0.09339
1468.34800	0.09367
1467.06223	0.09398
1465.77646	0.09423
1464.49069	0.09431
1463.20492	0.09426
1461.91916	0.09430
1460.63339	0.09471
1459.34762	0.09560
1458.06185	0.09676
1456.77608	0.09773
1455.49031	0.09826
1454.20454	0.09860
1452.91877	0.09902
1451.63301	0.09957
1450.34724	0.10008
1449.06147	0.10043
1447.77570	0.10053
1446.48993	0.10032
1445.20416	0.09990
1443.91839	0.09936
1442.63262	0.09875
1441.34685	0.09807
1440.06109	0.09742
1438.77532	0.09698
1437.48955	0.09674
1436.20378	0.09655
1434.91801	0.09644
1433.63224	0.09664
1432.34647	0.09731
1431.06070	0.09836
1429.77494	0.09960
1428.48917	0.10096
1427.20340	0.10243
1425.91763	0.10400
1424.63186	0.10559
1423.34609	0.10716
1422.06032	0.10878
1420.77455	0.11045
1419.48878	0.11191
1418.20302	0.11290
1416.91725	0.11342
1415.63148	0.11372
1414.34571	0.11391
1413.05994	0.11394
1411.77417	0.11373
1410.48840	0.11322
1409.20263	0.11241
1407.91687	0.11133
1406.63110	0.11001
1405.34533	0.10844
1404.05956	0.10661
1402.77379	0.10455
1401.48802	0.10235
1400.20225	0.10006
1398.91648	0.09769
1397.63071	0.09531
1396.34495	0.09297
1395.05918	0.09065
1393.77341	0.08824
1392.48764	0.08571
1391.20187	0.08317
1389.91610	0.08071
1388.63033	0.07835
1387.34456	0.07600
1386.05880	0.07364
1384.77303	0.07130
1383.48726	0.06907
1382.20149	0.06693
1380.91572	0.06482
1379.62995	0.06272
1378.34418	0.06060
1377.05841	0.05849
1375.77264	0.05638
1374.48688	0.05425
1373.20111	0.05211
1371.91534	0.05004
1370.62957	0.04817
1369.34380	0.04651
1368.05803	0.04500
1366.77226	0.04357
1365.48649	0.04222
1364.20073	0.04092
1362.91496	0.03966
1361.62919	0.03843
1360.34342	0.03724
1359.05765	0.03613
1357.77188	0.03508
1356.48611	0.03409
1355.20034	0.03316
1353.91457	0.03230
1352.62881	0.03153
1351.34304	0.03084
1350.05727	0.03020
1348.77150	0.02958
1347.48573	0.02896
1346.19996	0.02835
1344.91419	0.02777
1343.62842	0.02722
1342.34266	0.02672
1341.05689	0.02627
1339.77112	0.02585
1338.48535	0.02545
1337.19958	0.02507
1335.91381	0.02472
1334.62804	0.02438
1333.34227	0.02403
1332.05650	0.02367
1330.77074	0.02329
1329.48497	0.02293
1328.19920	0.02261
1326.91343	0.02234
1325.62766	0.02208
1324.34189	0.02181
1323.05612	0.02154
1321.77035	0.02128
1320.48459	0.02105
1319.19882	0.02082
1317.91305	0.02057
1316.62728	0.02028
1315.34151	0.02002
1314.05574	0.01983
1312.76997	0.01971
1311.48420	0.01962
1310.19843	0.01950
1308.91267	0.01935
1307.62690	0.01918
1306.34113	0.01900
1305.05536	0.01883
1303.76959	0.01868
1302.48382	0.01855
1301.19805	0.01845
1299.91228	0.01834
1298.62652	0.01821
1297.34075	0.01807
1296.05498	0.01792
1294.76921	0.01779
1293.48344	0.01768
1292.19767	0.01756
1290.91190	0.01742
1289.62613	0.01728
1288.34036	0.01717
1287.05460	0.01710
1285.76883	0.01707
1284.48306	0.01704
1283.19729	0.01697
1281.91152	0.01686
1280.62575	0.01674
1279.33998	0.01663
1278.05421	0.01652
1276.76845	0.01639
1275.48268	0.01623
1274.19691	0.01607
1272.91114	0.01597
1271.62537	0.01597
1270.33960	0.01604
1269.05383	0.01610
1267.76806	0.01611
1266.48229	0.01606
1265.19653	0.01596
1263.91076	0.01582
1262.62499	0.01570
1261.33922	0.01560
1260.05345	0.01553
1258.76768	0.01548
1257.48191	0.01543
1256.19614	0.01537
1254.91037	0.01533
1253.62461	0.01531
1252.33884	0.01529
1251.05307	0.01527
1249.76730	0.01522
1248.48153	0.01515
1247.19576	0.01507
1245.90999	0.01497
1244.62422	0.01485
1243.33846	0.01474
1242.05269	0.01467
1240.76692	0.01463
1239.48115	0.01461
1238.19538	0.01458
1236.90961	0.01456
1235.62384	0.01455
1234.33807	0.01455
1233.05230	0.01453
1231.76654	0.01448
1230.48077	0.01444
1229.19500	0.01444
1227.90923	0.01447
1226.62346	0.01450
1225.33769	0.01450
1224.05192	0.01445
1222.76615	0.01438
1221.48039	0.01431
1220.19462	0.01423
1218.90885	0.01415
1217.62308	0.01408
1216.33731	0.01406
1215.05154	0.01411
1213.76577	0.01420
1212.48000	0.01430
1211.19423	0.01439
1209.90847	0.01446
1208.62270	0.01454
1207.33693	0.01463
1206.05116	0.01473
1204.76539	0.01478
1203.47962	0.01480
1202.19385	0.01479
1200.90808	0.01477
1199.62232	0.01475
1198.33655	0.01477
1197.05078	0.01478
1195.76501	0.01480
1194.47924	0.01486
1193.19347	0.01496
1191.90770	0.01509
1190.62193	0.01519
1189.33616	0.01525
1188.05040	0.01528
1186.76463	0.01533
1185.47886	0.01540
1184.19309	0.01547
1182.90732	0.01553
1181.62155	0.01560
1180.33578	0.01567
1179.05001	0.01576
1177.76425	0.01586
1176.47848	0.01598
1175.19271	0.01611
1173.90694	0.01625
1172.62117	0.01636
1171.33540	0.01643
1170.04963	0.01648
1168.76386	0.01654
1167.47809	0.01668
1166.19233	0.01690
1164.90656	0.01716
1163.62079	0.01742
1162.33502	0.01763
1161.04925	0.01784
1159.76348	0.01808
1158.47771	0.01836
1157.19194	0.01867
1155.90618	0.01898
1154.62041	0.01930
1153.33464	0.01964
1152.04887	0.02003
1150.76310	0.02045
1149.47733	0.02090
1148.19156	0.02139
1146.90579	0.02193
1145.62002	0.02251
1144.33426	0.02317
1143.04849	0.02389
1141.76272	0.02472
1140.47695	0.02566
1139.19118	0.02674
1137.90541	0.02798
1136.61964	0.02940
1135.33387	0.03097
1134.04811	0.03266
1132.76234	0.03445
1131.47657	0.03645
1130.19080	0.03871
1128.90503	0.04123
1127.61926	0.04396
1126.33349	0.04689
1125.04772	0.05003
1123.76195	0.05339
1122.47619	0.05694
1121.19042	0.06066
1119.90465	0.06452
1118.61888	0.06848
1117.33311	0.07249
1116.04734	0.07656
1114.76157	0.08071
1113.47580	0.08486
1112.19004	0.08890
1110.90427	0.09275
1109.61850	0.09643
1108.33273	0.10000
1107.04696	0.10350
1105.76119	0.10694
1104.47542	0.11031
1103.18965	0.11364
1101.90388	0.11693
1100.61812	0.12016
1099.33235	0.12332
1098.04658	0.12639
1096.76081	0.12937
1095.47504	0.13225
1094.18927	0.13502
1092.90350	0.13768
1091.61773	0.14022
1090.33197	0.14264
1089.04620	0.14489
1087.76043	0.14701
1086.47466	0.14908
1085.18889	0.15120
1083.90312	0.15344
1082.61735	0.15585
1081.33158	0.15844
1080.04581	0.16119
1078.76005	0.16410
1077.47428	0.16721
1076.18851	0.17056
1074.90274	0.17421
1073.61697	0.17812
1072.33120	0.18222
1071.04543	0.18644
1069.75966	0.19076
1068.47390	0.19514
1067.18813	0.19958
1065.90236	0.20413
1064.61659	0.20883
1063.33082	0.21370
1062.04505	0.21867
1060.75928	0.22369
1059.47351	0.22871
1058.18774	0.23370
1056.90198	0.23860
1055.61621	0.24342
1054.33044	0.24820
1053.04467	0.25304
1051.75890	0.25801
1050.47313	0.26314
1049.18736	0.26842
1047.90159	0.27383
1046.61583	0.27930
1045.33006	0.28474
1044.04429	0.29012
1042.75852	0.29549
1041.47275	0.30097
1040.18698	0.30666
1038.90121	0.31252
1037.61544	0.31840
1036.32967	0.32422
1035.04391	0.32990
1033.75814	0.33541
1032.47237	0.34066
1031.18660	0.34555
1029.90083	0.35001
1028.61506	0.35401
1027.32929	0.35757
1026.04352	0.36073
1024.75775	0.36347
1023.47199	0.36570
1022.18622	0.36726
1020.90045	0.36796
1019.61468	0.36765
1018.32891	0.36629
1017.04314	0.36389
1015.75737	0.36043
1014.47160	0.35589
1013.18584	0.35026
1011.90007	0.34358
1010.61430	0.33595
1009.32853	0.32740
1008.04276	0.31791
1006.75699	0.30749
1005.47122	0.29622
1004.18545	0.28428
1002.89968	0.27189
1001.61392	0.25923
1000.32815	0.24643
999.04238	0.23362
997.75661	0.22091
996.47084	0.20841
995.18507	0.19619
993.89930	0.18437
992.61353	0.17314
991.32777	0.16261
990.04200	0.15281
988.75623	0.14371
987.47046	0.13529
986.18469	0.12754
984.89892	0.12037
983.61315	0.11373
982.32738	0.10765
981.04161	0.10219
979.75585	0.09736
978.47008	0.09311
977.18431	0.08939
975.89854	0.08621
974.61277	0.08364
973.32700	0.08171
972.04123	0.08042
970.75546	0.07982
969.46970	0.08000
968.18393	0.08103
966.89816	0.08278
965.61239	0.08493
964.32662	0.08709
963.04085	0.08890
961.75508	0.09006
960.46931	0.09030
959.18354	0.08944
957.89778	0.08747
956.61201	0.08463
955.32624	0.08127
954.04047	0.07777
952.75470	0.07439
951.46893	0.07123
950.18316	0.06824
948.89739	0.06542
947.61163	0.06277
946.32586	0.06033
945.04009	0.05804
943.75432	0.05584
942.46855	0.05372
941.18278	0.05175
939.89701	0.05004
938.61124	0.04855
937.32547	0.04721
936.03971	0.04596
934.75394	0.04483
933.46817	0.04388
932.18240	0.04307
930.89663	0.04233
929.61086	0.04157
928.32509	0.04082
927.03932	0.04014
925.75356	0.03953
924.46779	0.03897
923.18202	0.03840
921.89625	0.03784
920.61048	0.03734
919.32471	0.03693
918.03894	0.03659
916.75317	0.03629
915.46740	0.03599
914.18164	0.03566
912.89587	0.03529
911.61010	0.03489
910.32433	0.03454
909.03856	0.03428
907.75279	0.03409
906.46702	0.03392
905.18125	0.03370
903.89549	0.03344
902.60972	0.03319
901.32395	0.03300
900.03818	0.03290
898.75241	0.03286
897.46664	0.03285
896.18087	0.03279
894.89510	0.03270
893.60933	0.03263
892.32357	0.03272
891.03780	0.03306
889.75203	0.03370
888.46626	0.03470
887.18049	0.03609
885.89472	0.03801
884.60895	0.04064
883.32318	0.04404
882.03742	0.04796
880.75165	0.05177
879.46588	0.05480
878.18011	0.05690
876.89434	0.05852
875.60857	0.06021
874.32280	0.06203
873.03703	0.06343
871.75126	0.06378
870.46550	0.06284
869.17973	0.06076
867.89396	0.05791
866.60819	0.05460
865.32242	0.05115
864.03665	0.04787
862.75088	0.04500
861.46511	0.04260
860.17935	0.04063
858.89358	0.03904
857.60781	0.03782
856.32204	0.03689
855.03627	0.03618
853.75050	0.03556
852.46473	0.03501
851.17896	0.03449
849.89319	0.03403
848.60743	0.03363
847.32166	0.03327
846.03589	0.03295
844.75012	0.03268
843.46435	0.03245
842.17858	0.03227
840.89281	0.03207
839.60704	0.03182
838.32128	0.03156
837.03551	0.03131
835.74974	0.03113
834.46397	0.03101
833.17820	0.03093
831.89243	0.03086
830.60666	0.03080
829.32089	0.03074
828.03512	0.03068
826.74936	0.03059
825.46359	0.03050
824.17782	0.03041
822.89205	0.03034
821.60628	0.03028
820.32051	0.03021
819.03474	0.03012
817.74897	0.03001
816.46321	0.02988
815.17744	0.02977
813.89167	0.02970
812.60590	0.02969
811.32013	0.02974
810.03436	0.02982
808.74859	0.02991
807.46282	0.02998
806.17705	0.03004
804.89129	0.03009
803.60552	0.03013
802.31975	0.03020
801.03398	0.03032
799.74821	0.03044
798.46244	0.03045
797.17667	0.03028
795.89090	0.03001
794.60513	0.02984
793.31937	0.02989
792.03360	0.03005
790.74783	0.03012
789.46206	0.03006
788.17629	0.02997
786.89052	0.02998
785.60475	0.03005
784.31898	0.03010
783.03322	0.03007
781.74745	0.03000
780.46168	0.02988
779.17591	0.02973
777.89014	0.02958
776.60437	0.02949
775.31860	0.02953
774.03283	0.02965
772.74706	0.02982
771.46130	0.02998
770.17553	0.03012
768.88976	0.03018
767.60399	0.03014
766.31822	0.03004
765.03245	0.02996
763.74668	0.02998
762.46091	0.03010
761.17515	0.03029
759.88938	0.03050
758.60361	0.03070
757.31784	0.03084
756.03207	0.03089
754.74630	0.03084
753.46053	0.03075
752.17476	0.03066
750.88899	0.03061
749.60323	0.03060
748.31746	0.03060
747.03169	0.03059
745.74592	0.03059
744.46015	0.03065
743.17438	0.03077
741.88861	0.03086
740.60284	0.03086
739.31708	0.03078
738.03131	0.03072
736.74554	0.03080
735.45977	0.03101
734.17400	0.03128
732.88823	0.03151
731.60246	0.03166
730.31669	0.03177
729.03092	0.03189
727.74516	0.03206
726.45939	0.03224
725.17362	0.03236
723.88785	0.03215
722.60208	0.03208
721.31631	0.03234
720.03054	0.03250
718.74477	0.03235
717.45901	0.03231
716.17324	0.03237
714.88747	0.03238
713.60170	0.03232
712.31593	0.03222
711.03016	0.03209
709.74439	0.03193
708.45862	0.03178
707.17285	0.03166
705.88709	0.03158
704.60132	0.03156
703.31555	0.03158
702.02978	0.03160
700.74401	0.03161
699.45824	0.03157
698.17247	0.03151
696.88670	0.03146
695.60094	0.03145
694.31517	0.03145
693.02940	0.03145
691.74363	0.03141
690.45786	0.03133
689.17209	0.03120
687.88632	0.03101
686.60055	0.03077
685.31478	0.03052
684.02902	0.03031
682.74325	0.03020
681.45748	0.03021
680.17171	0.03031
678.88594	0.03047
677.60017	0.03065
676.31440	0.03084
675.02863	0.03092
673.74287	0.03057
672.45710	0.02949
671.17133	0.02859
669.88556	0.03053
668.59979	0.03495
667.31402	0.03433
666.02825	0.03037
664.74248	0.02970
663.45671	0.03094
662.17095	0.03170
660.88518	0.03177
659.59941	0.03160
658.31364	0.03146
657.02787	0.03144
655.74210	0.03153
654.45633	0.03164
653.17056	0.03176
651.88480	0.03190
650.59903	0.03210
649.31326	0.03240
648.02749	0.03269
646.74172	0.03303
645.45595	0.03349
644.17018	0.03399
642.88441	0.03449
641.59864	0.03497
640.31288	0.03540
639.02711	0.03580
637.74134	0.03620
636.45557	0.03661
635.16980	0.03704
633.88403	0.03749
632.59826	0.03800
631.31249	0.03868
630.02673	0.03963
628.74096	0.04064
627.45519	0.04147
626.16942	0.04317
624.88365	0.04535
623.59788	0.04755
622.31211	0.04983
621.02634	0.05210
619.74057	0.05367
618.45481	0.05436
617.16904	0.05534
615.88327	0.05805
614.59750	0.06287
613.31173	0.06925
612.02596	0.07649
610.74019	0.08413
609.45442	0.09166
608.16866	0.09864
606.88289	0.10499
605.59712	0.11073
604.31135	0.11555
603.02558	0.11884
601.73981	0.12011
600.45404	0.11928
599.16827	0.11666
597.88250	0.11289
596.59674	0.10864
595.31097	0.10448
594.02520	0.10073
592.73943	0.09752
591.45366	0.09491
590.16789	0.09306
588.88212	0.09217
587.59635	0.09230
586.31059	0.09330
585.02482	0.09496
583.73905	0.09718
582.45328	0.09996
581.16751	0.10328
579.88174	0.10705
578.59597	0.11115
577.31020	0.11544
576.02443	0.11977
574.73867	0.12394
573.45290	0.12786
572.16713	0.13159
570.88136	0.13544
569.59559	0.13982
568.30982	0.14504
567.02405	0.15101
565.73828	0.15721
564.45251	0.16276
563.16675	0.16674
561.88098	0.16837
560.59521	0.16714
559.30944	0.16290
558.02367	0.15596
556.73790	0.14705
555.45213	0.13700
554.16636	0.12658
552.88060	0.11642
551.59483	0.10697
550.30906	0.09849
549.02329	0.09104
547.73752	0.08461
546.45175	0.07915
545.16598	0.07452
543.88021	0.07049
542.59444	0.06687
541.30868	0.06362
540.02291	0.06076
538.73714	0.05827
537.45137	0.05606
536.16560	0.05406
534.87983	0.05225
533.59406	0.05063
532.30829	0.04919
531.02253	0.04789
529.73676	0.04672
528.45099	0.04564
527.16522	0.04462
525.87945	0.04360
524.59368	0.04258
523.30791	0.04155
522.02214	0.04054
520.73637	0.03959
519.45061	0.03879
518.16484	0.03815
516.87907	0.03757
515.59330	0.03694
514.30753	0.03624
513.02176	0.03557
511.73599	0.03500
510.45022	0.03451
509.16446	0.03406
507.87869	0.03360
506.59292	0.03313
505.30715	0.03268
504.02138	0.03228
502.73561	0.03190
501.44984	0.03151
500.16407	0.03113
498.87830	0.03079
497.59254	0.03050
496.30677	0.03023
495.02100	0.02995
493.73523	0.02968
492.44946	0.02951
491.16369	0.02948
489.87792	0.02952
488.59215	0.02952
487.30639	0.02940
486.02062	0.02923
484.73485	0.02912
483.44908	0.02914
482.16331	0.02931
480.87754	0.02961
479.59177	0.02996
478.30600	0.03027
477.02023	0.03052
475.73447	0.03077
474.44870	0.03110
473.16293	0.03147
471.87716	0.03176
470.59139	0.03188
469.30562	0.03184
468.01985	0.03171
466.73408	0.03149
465.44832	0.03118
464.16255	0.03078
462.87678	0.03032
461.59101	0.02985
460.30524	0.02947
459.01947	0.02920
457.73370	0.02901
456.44793	0.02883
455.16216	0.02862
453.87640	0.02839
452.59063	0.02813
451.30486	0.02783
450.01909	0.02751
448.73332	0.02720
447.44755	0.02690
446.16178	0.02661
444.87601	0.02636
443.59025	0.02615
442.30448	0.02596
441.01871	0.02575
439.73294	0.02554
438.44717	0.02538
437.16140	0.02530
435.87563	0.02526
434.58986	0.02522
433.30409	0.02520
432.01833	0.02518
430.73256	0.02517
429.44679	0.02512
428.16102	0.02501
426.87525	0.02484
425.58948	0.02461
424.30371	0.02439
423.01794	0.02422
421.73218	0.02414
420.44641	0.02413
419.16064	0.02410
417.87487	0.02400
416.58910	0.02389
415.30333	0.02380
414.01756	0.02374
412.73179	0.02368
411.44602	0.02366
410.16026	0.02369
408.87449	0.02377
407.58872	0.02387
406.30295	0.02396
405.01718	0.02406
403.73141	0.02418
402.44564	0.02434
401.15987	0.02456
399.87411	0.02481
