3997.45528	-0.02768
3996.16951	-0.02750
3994.88374	-0.02747
3993.59798	-0.02749
3992.31221	-0.02734
3991.02644	-0.02706
3989.74067	-0.02690
3988.45490	-0.02702
3987.16913	-0.02725
3985.88336	-0.02733
3984.59759	-0.02716
3983.31183	-0.02670
3982.02606	-0.02595
3980.74029	-0.02500
3979.45452	-0.02403
3978.16875	-0.02320
3976.88298	-0.02252
3975.59721	-0.02198
3974.31144	-0.02165
3973.02567	-0.02154
3971.73991	-0.02152
3970.45414	-0.02144
3969.16837	-0.02129
3967.88260	-0.02121
3966.59683	-0.02137
3965.31106	-0.02180
3964.02529	-0.02220
3962.73952	-0.02222
3961.45376	-0.02171
3960.16799	-0.02099
3958.88222	-0.02050
3957.59645	-0.02037
3956.31068	-0.02033
3955.02491	-0.02011
3953.73914	-0.01977
3952.45337	-0.01945
3951.16760	-0.01916
3949.88184	-0.01877
3948.59607	-0.01843
3947.31030	-0.01845
3946.02453	-0.01892
3944.73876	-0.01938
3943.45299	-0.01929
3942.16722	-0.01855
3940.88145	-0.01755
3939.59569	-0.01676
3938.30992	-0.01642
3937.02415	-0.01645
3935.73838	-0.01661
3934.45261	-0.01674
3933.16684	-0.01694
3931.88107	-0.01741
3930.59530	-0.01812
3929.30953	-0.01874
3928.02377	-0.01887
3926.73800	-0.01849
3925.45223	-0.01786
3924.16646	-0.01726
3922.88069	-0.01681
3921.59492	-0.01660
3920.30915	-0.01674
3919.02338	-0.01721
3917.73762	-0.01770
3916.45185	-0.01778
3915.16608	-0.01728
3913.88031	-0.01651
3912.59454	-0.01591
3911.30877	-0.01564
3910.02300	-0.01553
3908.73723	-0.01542
3907.45146	-0.01538
3906.16570	-0.01559
3904.87993	-0.01604
3903.59416	-0.01648
3902.30839	-0.01674
3901.02262	-0.01696
3899.73685	-0.01736
3898.45108	-0.01784
3897.16531	-0.01804
3895.87955	-0.01770
3894.59378	-0.01694
3893.30801	-0.01605
3892.02224	-0.01521
3890.73647	-0.01441
3889.45070	-0.01369
3888.16493	-0.01329
3886.87916	-0.01331
3885.59339	-0.01355
3884.30763	-0.01364
3883.02186	-0.01343
3881.73609	-0.01318
3880.45032	-0.01326
3879.16455	-0.01369
3877.87878	-0.01412
3876.59301	-0.01415
3875.30724	-0.01376
3874.02148	-0.01322
3872.73571	-0.01283
3871.44994	-0.01268
3870.16417	-0.01272
3868.87840	-0.01282
3867.59263	-0.01281
3866.30686	-0.01264
3865.02109	-0.01257
3863.73532	-0.01283
3862.44956	-0.01330
3861.16379	-0.01353
3859.87802	-0.01322
3858.59225	-0.01257
3857.30648	-0.01200
3856.02071	-0.01171
3854.73494	-0.01156
3853.44917	-0.01133
3852.16341	-0.01105
3850.87764	-0.01085
3849.59187	-0.01071
3848.30610	-0.01044
3847.02033	-0.01000
3845.73456	-0.00954
3844.44879	-0.00936
3843.16302	-0.00962
3841.87725	-0.01027
3840.59149	-0.01102
3839.30572	-0.01149
3838.01995	-0.01147
3836.73418	-0.01102
3835.44841	-0.01039
3834.16264	-0.00993
3832.87687	-0.00989
3831.59110	-0.01026
3830.30534	-0.01081
3829.01957	-0.01129
3827.73380	-0.01162
3826.44803	-0.01183
3825.16226	-0.01187
3823.87649	-0.01169
3822.59072	-0.01135
3821.30495	-0.01099
3820.01918	-0.01075
3818.73342	-0.01065
3817.44765	-0.01052
3816.16188	-0.01026
3814.87611	-0.01004
3813.59034	-0.01024
3812.30457	-0.01106
3811.01880	-0.01226
3809.73303	-0.01324
3808.44726	-0.01350
3807.16150	-0.01294
3805.87573	-0.01200
3804.58996	-0.01119
3803.30419	-0.01069
3802.01842	-0.01030
3800.73265	-0.00984
3799.44688	-0.00933
3798.16111	-0.00889
3796.87535	-0.00857
3795.58958	-0.00841
3794.30381	-0.00847
3793.01804	-0.00872
3791.73227	-0.00901
3790.44650	-0.00924
3789.16073	-0.00947
3787.87496	-0.00979
3786.58919	-0.01019
3785.30343	-0.01058
3784.01766	-0.01088
3782.73189	-0.01102
3781.44612	-0.01094
3780.16035	-0.01061
3778.87458	-0.01017
3777.58881	-0.00977
3776.30304	-0.00952
3775.01728	-0.00933
3773.73151	-0.00907
3772.44574	-0.00867
3771.15997	-0.00820
3769.87420	-0.00789
3768.58843	-0.00797
3767.30266	-0.00844
3766.01689	-0.00910
3764.73112	-0.00972
3763.44536	-0.01018
3762.15959	-0.01039
3760.87382	-0.01021
3759.58805	-0.00968
3758.30228	-0.00909
3757.01651	-0.00880
3755.73074	-0.00895
3754.44497	-0.00931
3753.15921	-0.00946
3751.87344	-0.00909
3750.58767	-0.00840
3749.30190	-0.00790
3748.01613	-0.00792
3746.73036	-0.00829
3745.44459	-0.00859
3744.15882	-0.00882
3742.87305	-0.00920
3741.58729	-0.00968
3740.30152	-0.01010
3739.01575	-0.01031
3737.72998	-0.01031
3736.44421	-0.01019
3735.15844	-0.00997
3733.87267	-0.00995
3732.58690	-0.01019
3731.30114	-0.01076
3730.01537	-0.01172
3728.72960	-0.01274
3727.44383	-0.01358
3726.15806	-0.01389
3724.87229	-0.01363
3723.58652	-0.01329
3722.30075	-0.01318
3721.01498	-0.01332
3719.72922	-0.01349
3718.44345	-0.01313
3717.15768	-0.01214
3715.87191	-0.01092
3714.58614	-0.00996
3713.30037	-0.00947
3712.01460	-0.00910
3710.72883	-0.00894
3709.44307	-0.00937
3708.15730	-0.00996
3706.87153	-0.01044
3705.58576	-0.01063
3704.29999	-0.01039
3703.01422	-0.00972
3701.72845	-0.00883
3700.44268	-0.00823
3699.15691	-0.00827
3697.87115	-0.00862
3696.58538	-0.00880
3695.29961	-0.00862
3694.01384	-0.00840
3692.72807	-0.00811
3691.44230	-0.00775
3690.15653	-0.00748
3688.87076	-0.00746
3687.58500	-0.00773
3686.29923	-0.00802
3685.01346	-0.00791
3683.72769	-0.00748
3682.44192	-0.00701
3681.15615	-0.00651
3679.87038	-0.00596
3678.58461	-0.00537
3677.29884	-0.00470
3676.01308	-0.00401
3674.72731	-0.00353
3673.44154	-0.00349
3672.15577	-0.00400
3670.87000	-0.00484
3669.58423	-0.00567
3668.29846	-0.00620
3667.01269	-0.00622
3665.72693	-0.00568
3664.44116	-0.00473
3663.15539	-0.00375
3661.86962	-0.00307
3660.58385	-0.00279
3659.29808	-0.00261
3658.01231	-0.00208
3656.72654	-0.00101
3655.44077	0.00027
3654.15501	0.00116
3652.86924	0.00130
3651.58347	0.00092
3650.29770	0.00061
3649.01193	0.00081
3647.72616	0.00145
3646.44039	0.00212
3645.15462	0.00258
3643.86886	0.00289
3642.58309	0.00308
3641.29732	0.00306
3640.01155	0.00293
3638.72578	0.00291
3637.44001	0.00314
3636.15424	0.00343
3634.86847	0.00351
3633.58270	0.00355
3632.29694	0.00386
3631.01117	0.00453
3629.72540	0.00544
3628.43963	0.00608
3627.15386	0.00607
3625.86809	0.00542
3624.58232	0.00471
3623.29655	0.00435
3622.01079	0.00475
3620.72502	0.00585
3619.43925	0.00748
3618.15348	0.00906
3616.86771	0.01008
3615.58194	0.01054
3614.29617	0.01074
3613.01040	0.01082
3611.72463	0.01075
3610.43887	0.01066
3609.15310	0.01062
3607.86733	0.01058
3606.58156	0.01046
3605.29579	0.01049
3604.01002	0.01099
3602.72425	0.01188
3601.43848	0.01296
3600.15272	0.01389
3598.86695	0.01439
3597.58118	0.01443
3596.29541	0.01445
3595.00964	0.01436
3593.72387	0.01410
3592.43810	0.01415
3591.15233	0.01450
3589.86656	0.01504
3588.58080	0.01587
3587.29503	0.01673
3586.00926	0.01753
3584.72349	0.01817
3583.43772	0.01855
3582.15195	0.01884
3580.86618	0.01939
3579.58041	0.02025
3578.29464	0.02133
3577.00888	0.02238
3575.72311	0.02306
3574.43734	0.02316
3573.15157	0.02288
3571.86580	0.02272
3570.58003	0.02305
3569.29426	0.02374
3568.00849	0.02430
3566.72273	0.02448
3565.43696	0.02454
3564.15119	0.02492
3562.86542	0.02576
3561.57965	0.02672
3560.29388	0.02745
3559.00811	0.02800
3557.72234	0.02857
3556.43657	0.02912
3555.15081	0.02937
3553.86504	0.02923
3552.57927	0.02900
3551.29350	0.02905
3550.00773	0.02946
3548.72196	0.03000
3547.43619	0.03033
3546.15042	0.03029
3544.86466	0.02992
3543.57889	0.02940
3542.29312	0.02901
3541.00735	0.02905
3539.72158	0.02968
3538.43581	0.03081
3537.15004	0.03210
3535.86427	0.03317
3534.57850	0.03387
3533.29274	0.03426
3532.00697	0.03455
3530.72120	0.03492
3529.43543	0.03552
3528.14966	0.03633
3526.86389	0.03716
3525.57812	0.03778
3524.29235	0.03815
3523.00659	0.03840
3521.72082	0.03859
3520.43505	0.03858
3519.14928	0.03821
3517.86351	0.03767
3516.57774	0.03745
3515.29197	0.03794
3514.00620	0.03906
3512.72043	0.04028
3511.43467	0.04106
3510.14890	0.04119
3508.86313	0.04087
3507.57736	0.04047
3506.29159	0.04029
3505.00582	0.04052
3503.72005	0.04120
3502.43428	0.04217
3501.14852	0.04314
3499.86275	0.04384
3498.57698	0.04417
3497.29121	0.04421
3496.00544	0.04421
3494.71967	0.04438
3493.43390	0.04475
3492.14813	0.04516
3490.86236	0.04543
3489.57660	0.04554
3488.29083	0.04566
3487.00506	0.04598
3485.71929	0.04658
3484.43352	0.04740
3483.14775	0.04822
3481.86198	0.04878
3480.57621	0.04886
3479.29045	0.04850
3478.00468	0.04807
3476.71891	0.04800
3475.43314	0.04847
3474.14737	0.04933
3472.86160	0.05029
3471.57583	0.05115
3470.29006	0.05181
3469.00429	0.05215
3467.71853	0.05202
3466.43276	0.05144
3465.14699	0.05068
3463.86122	0.05018
3462.57545	0.05014
3461.28968	0.05043
3460.00391	0.05077
3458.71814	0.05108
3457.43238	0.05150
3456.14661	0.05214
3454.86084	0.05283
3453.57507	0.05330
3452.28930	0.05343
3451.00353	0.05336
3449.71776	0.05326
3448.43199	0.05319
3447.14622	0.05308
3445.86046	0.05293
3444.57469	0.05286
3443.28892	0.05311
3442.00315	0.05380
3440.71738	0.05471
3439.43161	0.05536
3438.14584	0.05543
3436.86007	0.05498
3435.57431	0.05448
3434.28854	0.05438
3433.00277	0.05480
3431.71700	0.05549
3430.43123	0.05607
3429.14546	0.05642
3427.85969	0.05675
3426.57392	0.05732
3425.28815	0.05803
3424.00239	0.05853
3422.71662	0.05852
3421.43085	0.05814
3420.14508	0.05784
3418.85931	0.05800
3417.57354	0.05852
3416.28777	0.05896
3415.00200	0.05906
3413.71624	0.05892
3412.43047	0.05884
3411.14470	0.05897
3409.85893	0.05920
3408.57316	0.05947
3407.28739	0.05982
3406.00162	0.06028
3404.71585	0.06072
3403.43008	0.06094
3402.14432	0.06083
3400.85855	0.06045
3399.57278	0.05999
3398.28701	0.05967
3397.00124	0.05965
3395.71547	0.05999
3394.42970	0.06057
3393.14393	0.06107
3391.85817	0.06126
3390.57240	0.06116
3389.28663	0.06106
3388.00086	0.06120
3386.71509	0.06156
3385.42932	0.06194
3384.14355	0.06214
3382.85778	0.06215
3381.57201	0.06206
3380.28625	0.06192
3379.00048	0.06169
3377.71471	0.06136
3376.42894	0.06103
3375.14317	0.06084
3373.85740	0.06090
3372.57163	0.06115
3371.28586	0.06145
3370.00010	0.06173
3368.71433	0.06195
3367.42856	0.06211
3366.14279	0.06216
3364.85702	0.06206
3363.57125	0.06179
3362.28548	0.06148
3360.99971	0.06134
3359.71394	0.06151
3358.42818	0.06188
3357.14241	0.06220
3355.85664	0.06238
3354.57087	0.06257
3353.28510	0.06291
3351.99933	0.06329
3350.71356	0.06342
3349.42779	0.06320
3348.14202	0.06276
3346.85626	0.06229
3345.57049	0.06191
3344.28472	0.06163
3342.99895	0.06143
3341.71318	0.06132
3340.42741	0.06123
3339.14164	0.06106
3337.85587	0.06075
3336.57011	0.06041
3335.28434	0.06027
3333.99857	0.06043
3332.71280	0.06075
3331.42703	0.06104
3330.14126	0.06116
3328.85549	0.06109
3327.56972	0.06092
3326.28395	0.06080
3324.99819	0.06089
3323.71242	0.06127
3322.42665	0.06183
3321.14088	0.06230
3319.85511	0.06249
3318.56934	0.06237
3317.28357	0.06208
3315.99780	0.06177
3314.71204	0.06156
3313.42627	0.06150
3312.14050	0.06157
3310.85473	0.06169
3309.56896	0.06173
3308.28319	0.06153
3306.99742	0.06107
3305.71165	0.06051
3304.42588	0.06004
3303.14012	0.05971
3301.85435	0.05945
3300.56858	0.05929
3299.28281	0.05934
3297.99704	0.05957
3296.71127	0.05978
3295.42550	0.05981
3294.13973	0.05975
3292.85397	0.05981
3291.56820	0.06003
3290.28243	0.06024
3288.99666	0.06025
3287.71089	0.06008
3286.42512	0.05994
3285.13935	0.06001
3283.85358	0.06024
3282.56781	0.06039
3281.28205	0.06023
3279.99628	0.05979
3278.71051	0.05934
3277.42474	0.05912
3276.13897	0.05918
3274.85320	0.05927
3273.56743	0.05914
3272.28166	0.05879
3270.99590	0.05845
3269.71013	0.05834
3268.42436	0.05843
3267.13859	0.05854
3265.85282	0.05858
3264.56705	0.05856
3263.28128	0.05854
3261.99551	0.05855
3260.70974	0.05863
3259.42398	0.05879
3258.13821	0.05895
3256.85244	0.05899
3255.56667	0.05885
3254.28090	0.05860
3252.99513	0.05833
3251.70936	0.05808
3250.42359	0.05789
3249.13783	0.05780
3247.85206	0.05782
3246.56629	0.05788
3245.28052	0.05787
3243.99475	0.05779
3242.70898	0.05770
3241.42321	0.05765
3240.13744	0.05758
3238.85167	0.05741
3237.56591	0.05718
3236.28014	0.05695
3234.99437	0.05683
3233.70860	0.05688
3232.42283	0.05707
3231.13706	0.05727
3229.85129	0.05729
3228.56552	0.05702
3227.27976	0.05651
3225.99399	0.05603
3224.70822	0.05586
3223.42245	0.05601
3222.13668	0.05625
3220.85091	0.05631
3219.56514	0.05618
3218.27937	0.05605
3216.99360	0.05610
3215.70784	0.05634
3214.42207	0.05662
3213.13630	0.05677
3211.85053	0.05668
3210.56476	0.05641
3209.27899	0.05606
3207.99322	0.05575
3206.70745	0.05549
3205.42169	0.05528
3204.13592	0.05504
3202.85015	0.05468
3201.56438	0.05422
3200.27861	0.05393
3198.99284	0.05408
3197.70707	0.05467
3196.42130	0.05533
3195.13553	0.05566
3193.84977	0.05561
3192.56400	0.05544
3191.27823	0.05539
3189.99246	0.05552
3188.70669	0.05564
3187.42092	0.05551
3186.13515	0.05505
3184.84938	0.05431
3183.56362	0.05350
3182.27785	0.05292
3180.99208	0.05279
3179.70631	0.05309
3178.42054	0.05352
3177.13477	0.05375
3175.84900	0.05368
3174.56323	0.05344
3173.27746	0.05323
3171.99170	0.05308
3170.70593	0.05289
3169.42016	0.05264
3168.13439	0.05245
3166.84862	0.05246
3165.56285	0.05269
3164.27708	0.05297
3162.99131	0.05304
3161.70555	0.05283
3160.41978	0.05249
3159.13401	0.05225
3157.84824	0.05217
3156.56247	0.05211
3155.27670	0.05186
3153.99093	0.05140
3152.70516	0.05093
3151.41939	0.05065
3150.13363	0.05061
3148.84786	0.05073
3147.56209	0.05086
3146.27632	0.05090
3144.99055	0.05081
3143.70478	0.05060
3142.41901	0.05030
3141.13324	0.05001
3139.84748	0.04985
3138.56171	0.04993
3137.27594	0.05016
3135.99017	0.05031
3134.70440	0.05026
3133.41863	0.05007
3132.13286	0.04983
3130.84709	0.04960
3129.56132	0.04942
3128.27556	0.04937
3126.98979	0.04946
3125.70402	0.04952
3124.41825	0.04943
3123.13248	0.04920
3121.84671	0.04897
3120.56094	0.04884
3119.27517	0.04876
3117.98940	0.04869
3116.70364	0.04866
3115.41787	0.04874
3114.13210	0.04886
3112.84633	0.04883
3111.56056	0.04860
3110.27479	0.04830
3108.98902	0.04809
3107.70325	0.04793
3106.41749	0.04766
3105.13172	0.04723
3103.84595	0.04680
3102.56018	0.04658
3101.27441	0.04662
3099.98864	0.04685
3098.70287	0.04708
3097.41710	0.04714
3096.13133	0.04704
3094.84557	0.04693
3093.55980	0.04701
3092.27403	0.04727
3090.98826	0.04757
3089.70249	0.04776
3088.41672	0.04778
3087.13095	0.04769
3085.84518	0.04759
3084.55942	0.04755
3083.27365	0.04749
3081.98788	0.04721
3080.70211	0.04668
3079.41634	0.04617
3078.13057	0.04594
3076.84480	0.04597
3075.55903	0.04593
3074.27326	0.04560
3072.98750	0.04506
3071.70173	0.04462
3070.41596	0.04451
3069.13019	0.04470
3067.84442	0.04501
3066.55865	0.04524
3065.27288	0.04530
3063.98711	0.04521
3062.70135	0.04503
3061.41558	0.04484
3060.12981	0.04471
3058.84404	0.04461
3057.55827	0.04449
3056.27250	0.04430
3054.98673	0.04407
3053.70096	0.04384
3052.41519	0.04370
3051.12943	0.04365
3049.84366	0.04364
3048.55789	0.04359
3047.27212	0.04347
3045.98635	0.04330
3044.70058	0.04309
3043.41481	0.04284
3042.12904	0.04259
3040.84328	0.04240
3039.55751	0.04234
3038.27174	0.04234
3036.98597	0.04232
3035.70020	0.04223
3034.41443	0.04219
3033.12866	0.04234
3031.84289	0.04263
3030.55712	0.04291
3029.27136	0.04304
3027.98559	0.04300
3026.69982	0.04283
3025.41405	0.04249
3024.12828	0.04201
3022.84251	0.04155
3021.55674	0.04135
3020.27097	0.04154
3018.98521	0.04192
3017.69944	0.04218
3016.41367	0.04213
3015.12790	0.04180
3013.84213	0.04135
3012.55636	0.04099
3011.27059	0.04081
3009.98482	0.04086
3008.69905	0.04109
3007.41329	0.04143
3006.12752	0.04173
3004.84175	0.04178
3003.55598	0.04150
3002.27021	0.04100
3000.98444	0.04053
2999.69867	0.04031
2998.41290	0.04043
2997.12714	0.04067
2995.84137	0.04084
2994.55560	0.04092
2993.26983	0.04101
2991.98406	0.04120
2990.69829	0.04142
2989.41252	0.04146
2988.12675	0.04128
2986.84098	0.04111
2985.55522	0.04124
2984.26945	0.04165
2982.98368	0.04212
2981.69791	0.04254
2980.41214	0.04298
2979.12637	0.04342
2977.84060	0.04372
2976.55483	0.04383
2975.26907	0.04384
2973.98330	0.04388
2972.69753	0.04403
2971.41176	0.04429
2970.12599	0.04466
2968.84022	0.04516
2967.55445	0.04579
2966.26868	0.04650
2964.98291	0.04712
2963.69715	0.04756
2962.41138	0.04789
2961.12561	0.04830
2959.83984	0.04883
2958.55407	0.04937
2957.26830	0.04974
2955.98253	0.04987
2954.69676	0.04977
2953.41100	0.04957
2952.12523	0.04942
2950.83946	0.04943
2949.55369	0.04961
2948.26792	0.04978
2946.98215	0.04974
2945.69638	0.04941
2944.41061	0.04887
2943.12484	0.04843
2941.83908	0.04834
2940.55331	0.04866
2939.26754	0.04916
2937.98177	0.04962
2936.69600	0.04996
2935.41023	0.05026
2934.12446	0.05056
2932.83869	0.05088
2931.55293	0.05121
2930.26716	0.05153
2928.98139	0.05182
2927.69562	0.05217
2926.40985	0.05264
2925.12408	0.05315
2923.83831	0.05350
2922.55254	0.05356
2921.26677	0.05344
2919.98101	0.05323
2918.69524	0.05294
2917.40947	0.05246
2916.12370	0.05178
2914.83793	0.05094
2913.55216	0.05007
2912.26639	0.04935
2910.98062	0.04888
2909.69486	0.04867
2908.40909	0.04855
2907.12332	0.04839
2905.83755	0.04814
2904.55178	0.04786
2903.26601	0.04760
2901.98024	0.04730
2900.69447	0.04681
2899.40870	0.04606
2898.12294	0.04523
2896.83717	0.04465
2895.55140	0.04450
2894.26563	0.04455
2892.97986	0.04440
2891.69409	0.04389
2890.40832	0.04320
2889.12255	0.04265
2887.83678	0.04244
2886.55102	0.04251
2885.26525	0.04269
2883.97948	0.04279
2882.69371	0.04272
2881.40794	0.04255
2880.12217	0.04246
2878.83640	0.04262
2877.55063	0.04300
2876.26487	0.04339
2874.97910	0.04361
2873.69333	0.04360
2872.40756	0.04351
2871.12179	0.04348
2869.83602	0.04354
2868.55025	0.04358
2867.26448	0.04347
2865.97871	0.04323
2864.69295	0.04301
2863.40718	0.04298
2862.12141	0.04317
2860.83564	0.04346
2859.54987	0.04369
2858.26410	0.04373
2856.97833	0.04354
2855.69256	0.04317
2854.40680	0.04271
2853.12103	0.04225
2851.83526	0.04185
2850.54949	0.04150
2849.26372	0.04112
2847.97795	0.04066
2846.69218	0.04011
2845.40641	0.03954
2844.12064	0.03901
2842.83488	0.03860
2841.54911	0.03838
2840.26334	0.03834
2838.97757	0.03825
2837.69180	0.03792
2836.40603	0.03733
2835.12026	0.03668
2833.83449	0.03616
2832.54873	0.03578
2831.26296	0.03551
2829.97719	0.03531
2828.69142	0.03519
2827.40565	0.03512
2826.11988	0.03502
2824.83411	0.03484
2823.54834	0.03464
2822.26257	0.03451
2820.97681	0.03446
2819.69104	0.03441
2818.40527	0.03424
2817.11950	0.03396
2815.83373	0.03365
2814.54796	0.03347
2813.26219	0.03342
2811.97642	0.03342
2810.69066	0.03341
2809.40489	0.03339
2808.11912	0.03340
2806.83335	0.03346
2805.54758	0.03352
2804.26181	0.03353
2802.97604	0.03342
2801.69027	0.03315
2800.40450	0.03276
2799.11874	0.03236
2797.83297	0.03209
2796.54720	0.03199
2795.26143	0.03196
2793.97566	0.03188
2792.68989	0.03172
2791.40412	0.03155
2790.11835	0.03144
2788.83259	0.03140
2787.54682	0.03137
2786.26105	0.03128
2784.97528	0.03114
2783.68951	0.03102
2782.40374	0.03096
2781.11797	0.03096
2779.83220	0.03102
2778.54643	0.03112
2777.26067	0.03119
2775.97490	0.03121
2774.68913	0.03119
2773.40336	0.03117
2772.11759	0.03115
2770.83182	0.03106
2769.54605	0.03086
2768.26028	0.03063
2766.97452	0.03048
2765.68875	0.03050
2764.40298	0.03066
2763.11721	0.03078
2761.83144	0.03069
2760.54567	0.03040
2759.25990	0.03013
2757.97413	0.03017
2756.68836	0.03051
2755.40260	0.03082
2754.11683	0.03078
2752.83106	0.03044
2751.54529	0.03004
2750.25952	0.02980
2748.97375	0.02978
2747.68798	0.02994
2746.40221	0.03016
2745.11645	0.03029
2743.83068	0.03027
2742.54491	0.03013
2741.25914	0.02993
2739.97337	0.02972
2738.68760	0.02955
2737.40183	0.02948
2736.11606	0.02953
2734.83029	0.02963
2733.54453	0.02967
2732.25876	0.02961
2730.97299	0.02948
2729.68722	0.02932
2728.40145	0.02922
2727.11568	0.02921
2725.82991	0.02926
2724.54414	0.02922
2723.25838	0.02903
2721.97261	0.02874
2720.68684	0.02857
2719.40107	0.02865
2718.11530	0.02894
2716.82953	0.02924
2715.54376	0.02941
2714.25799	0.02943
2712.97222	0.02937
2711.68646	0.02922
2710.40069	0.02898
2709.11492	0.02868
2707.82915	0.02841
2706.54338	0.02829
2705.25761	0.02834
2703.97184	0.02847
2702.68607	0.02854
2701.40031	0.02847
2700.11454	0.02825
2698.82877	0.02797
2697.54300	0.02778
2696.25723	0.02777
2694.97146	0.02788
2693.68569	0.02803
2692.39992	0.02813
2691.11415	0.02817
2689.82839	0.02819
2688.54262	0.02822
2687.25685	0.02823
2685.97108	0.02816
2684.68531	0.02798
2683.39954	0.02778
2682.11377	0.02765
2680.82800	0.02763
2679.54224	0.02764
2678.25647	0.02760
2676.97070	0.02754
2675.68493	0.02754
2674.39916	0.02763
2673.11339	0.02774
2671.82762	0.02778
2670.54185	0.02775
2669.25608	0.02772
2667.97032	0.02772
2666.68455	0.02775
2665.39878	0.02781
2664.11301	0.02786
2662.82724	0.02785
2661.54147	0.02776
2660.25570	0.02764
2658.96993	0.02756
2657.68417	0.02756
2656.39840	0.02760
2655.11263	0.02765
2653.82686	0.02769
2652.54109	0.02772
2651.25532	0.02773
2649.96955	0.02766
2648.68378	0.02747
2647.39801	0.02718
2646.11225	0.02686
2644.82648	0.02653
2643.54071	0.02619
2642.25494	0.02590
2640.96917	0.02573
2639.68340	0.02568
2638.39763	0.02562
2637.11186	0.02542
2635.82609	0.02510
2634.54033	0.02476
2633.25456	0.02448
2631.96879	0.02435
2630.68302	0.02442
2629.39725	0.02464
2628.11148	0.02484
2626.82571	0.02491
2625.53994	0.02486
2624.25418	0.02473
2622.96841	0.02449
2621.68264	0.02412
2620.39687	0.02376
2619.11110	0.02355
2617.82533	0.02347
2616.53956	0.02347
2615.25379	0.02350
2613.96802	0.02358
2612.68226	0.02359
2611.39649	0.02344
2610.11072	0.02324
2608.82495	0.02316
2607.53918	0.02314
2606.25341	0.02303
2604.96764	0.02279
2603.68187	0.02258
2602.39611	0.02242
2601.11034	0.02217
2599.82457	0.02180
2598.53880	0.02156
2597.25303	0.02164
2595.96726	0.02190
2594.68149	0.02206
2593.39572	0.02204
2592.10995	0.02208
2590.82419	0.02235
2589.53842	0.02273
2588.25265	0.02292
2586.96688	0.02272
2585.68111	0.02220
2584.39534	0.02164
2583.10957	0.02131
2581.82380	0.02125
2580.53804	0.02124
2579.25227	0.02104
2577.96650	0.02060
2576.68073	0.02012
2575.39496	0.01983
2574.10919	0.01986
2572.82342	0.02013
2571.53765	0.02039
2570.25188	0.02039
2568.96612	0.02013
2567.68035	0.01984
2566.39458	0.01972
2565.10881	0.01975
2563.82304	0.01983
2562.53727	0.01997
2561.25150	0.02016
2559.96573	0.02029
2558.67997	0.02023
2557.39420	0.02006
2556.10843	0.02001
2554.82266	0.02014
2553.53689	0.02032
2552.25112	0.02043
2550.96535	0.02044
2549.67958	0.02029
2548.39381	0.01991
2547.10805	0.01938
2545.82228	0.01893
2544.53651	0.01869
2543.25074	0.01861
2541.96497	0.01857
2540.67920	0.01858
2539.39343	0.01872
2538.10766	0.01897
2536.82190	0.01915
2535.53613	0.01912
2534.25036	0.01895
2532.96459	0.01886
2531.67882	0.01894
2530.39305	0.01909
2529.10728	0.01919
2527.82151	0.01924
2526.53574	0.01926
2525.24998	0.01925
2523.96421	0.01921
2522.67844	0.01918
2521.39267	0.01915
2520.10690	0.01903
2518.82113	0.01878
2517.53536	0.01858
2516.24959	0.01863
2514.96383	0.01890
2513.67806	0.01913
2512.39229	0.01908
2511.10652	0.01885
2509.82075	0.01870
2508.53498	0.01875
2507.24921	0.01885
2505.96344	0.01889
2504.67767	0.01900
2503.39191	0.01933
2502.10614	0.01962
2500.82037	0.01947
2499.53460	0.01882
2498.24883	0.01811
2496.96306	0.01781
2495.67729	0.01792
2494.39152	0.01821
2493.10576	0.01853
2491.81999	0.01880
2490.53422	0.01892
2489.24845	0.01885
2487.96268	0.01872
2486.67691	0.01864
2485.39114	0.01860
2484.10537	0.01853
2482.81960	0.01845
2481.53384	0.01844
2480.24807	0.01849
2478.96230	0.01860
2477.67653	0.01872
2476.39076	0.01882
2475.10499	0.01880
2473.81922	0.01861
2472.53345	0.01833
2471.24769	0.01808
2469.96192	0.01800
2468.67615	0.01810
2467.39038	0.01835
2466.10461	0.01868
2464.81884	0.01893
2463.53307	0.01893
2462.24730	0.01863
2460.96153	0.01824
2459.67577	0.01801
2458.39000	0.01802
2457.10423	0.01819
2455.81846	0.01837
2454.53269	0.01847
2453.24692	0.01851
2451.96115	0.01858
2450.67538	0.01869
2449.38962	0.01875
2448.10385	0.01863
2446.81808	0.01831
2445.53231	0.01790
2444.24654	0.01755
2442.96077	0.01736
2441.67500	0.01737
2440.38923	0.01750
2439.10346	0.01761
2437.81770	0.01761
2436.53193	0.01752
2435.24616	0.01744
2433.96039	0.01751
2432.67462	0.01776
2431.38885	0.01806
2430.10308	0.01819
2428.81731	0.01802
2427.53155	0.01764
2426.24578	0.01724
2424.96001	0.01699
2423.67424	0.01692
2422.38847	0.01697
2421.10270	0.01707
2419.81693	0.01722
2418.53116	0.01742
2417.24539	0.01761
2415.95963	0.01766
2414.67386	0.01749
2413.38809	0.01723
2412.10232	0.01708
2410.81655	0.01718
2409.53078	0.01750
2408.24501	0.01786
2406.95924	0.01806
2405.67347	0.01801
2404.38771	0.01770
2403.10194	0.01729
2401.81617	0.01701
2400.53040	0.01709
2399.24463	0.01836
2397.95886	0.01938
2396.67309	0.01969
2395.38732	0.01950
2394.10156	0.01902
2392.81579	0.01835
2391.53002	0.01761
2390.24425	0.01696
2388.95848	0.01657
2387.67271	0.01653
2386.38694	0.01678
2385.10117	0.01705
2383.81540	0.01713
2382.52964	0.01693
2381.24387	0.01662
2379.95810	0.01619
2378.67233	0.01580
2377.38656	0.01568
2376.10079	0.01515
2374.81502	0.01408
2373.52925	0.01293
2372.24349	0.01164
2370.95772	0.01066
2369.67195	0.00906
2368.38618	0.00743
2367.10041	0.00743
2365.81464	0.00806
2364.52887	0.00666
2363.24310	0.00409
2361.95733	0.00285
2360.67157	0.00314
2359.38580	0.00302
2358.10003	0.00299
2356.81426	0.00322
2355.52849	0.00297
2354.24272	0.00316
2352.95695	0.00430
2351.67118	0.00772
2350.38542	0.01396
2349.09965	0.01763
2347.81388	0.01398
2346.52811	0.00779
2345.24234	0.00553
2343.95657	0.00688
2342.67080	0.00806
2341.38503	0.00892
2340.09926	0.01039
2338.81350	0.01148
2337.52773	0.01184
2336.24196	0.01063
2334.95619	0.00939
2333.67042	0.00961
2332.38465	0.00989
2331.09888	0.01035
2329.81311	0.01135
2328.52735	0.01163
2327.24158	0.01222
2325.95581	0.01347
2324.67004	0.01423
2323.38427	0.01503
2322.09850	0.01600
2320.81273	0.01607
2319.52696	0.01607
2318.24119	0.01644
2316.95543	0.01650
2315.66966	0.01624
2314.38389	0.01604
2313.09812	0.01622
2311.81235	0.01640
2310.52658	0.01634
2309.24081	0.01637
2307.95504	0.01645
2306.66928	0.01639
2305.38351	0.01642
2304.09774	0.01641
2302.81197	0.01622
2301.52620	0.01602
2300.24043	0.01599
2298.95466	0.01608
2297.66889	0.01608
2296.38312	0.01595
2295.09736	0.01572
2293.81159	0.01558
2292.52582	0.01558
2291.24005	0.01561
2289.95428	0.01566
2288.66851	0.01573
2287.38274	0.01590
2286.09697	0.01615
2284.81121	0.01649
2283.52544	0.01677
2282.23967	0.01684
2280.95390	0.01661
2279.66813	0.01614
2278.38236	0.01566
2277.09659	0.01532
2275.81082	0.01516
2274.52505	0.01495
2273.23929	0.01449
2271.95352	0.01387
2270.66775	0.01332
2269.38198	0.01302
2268.09621	0.01294
2266.81044	0.01295
2265.52467	0.01289
2264.23890	0.01274
2262.95314	0.01263
2261.66737	0.01263
2260.38160	0.01273
2259.09583	0.01286
2257.81006	0.01275
2256.52429	0.01227
2255.23852	0.01149
2253.95275	0.01080
2252.66698	0.01053
2251.38122	0.01076
2250.09545	0.01144
2248.80968	0.01220
2247.52391	0.01196
2246.23814	0.01131
2244.95237	0.01078
2243.66660	0.01077
2242.38083	0.01125
2241.09507	0.01178
2239.80930	0.01197
2238.52353	0.01182
2237.23776	0.01165
2235.95199	0.01164
2234.66622	0.01160
2233.38045	0.01131
2232.09468	0.01089
2230.80891	0.01068
2229.52315	0.01072
2228.23738	0.01070
2226.95161	0.01037
2225.66584	0.00989
2224.38007	0.00950
2223.09430	0.00918
2221.80853	0.00877
2220.52276	0.00828
2219.23700	0.00795
2217.95123	0.00795
2216.66546	0.00824
2215.37969	0.00860
2214.09392	0.00877
2212.80815	0.00856
2211.52238	0.00801
2210.23661	0.00752
2208.95084	0.00754
2207.66508	0.00810
2206.37931	0.00865
2205.09354	0.00850
2203.80777	0.00756
2202.52200	0.00639
2201.23623	0.00568
2199.95046	0.00554
2198.66469	0.00563
2197.37893	0.00567
2196.09316	0.00574
2194.80739	0.00595
2193.52162	0.00628
2192.23585	0.00661
2190.95008	0.00674
2189.66431	0.00637
2188.37854	0.00543
2187.09277	0.00432
2185.80701	0.00359
2184.52124	0.00332
2183.23547	0.00317
2181.94970	0.00297
2180.66393	0.00296
2179.37816	0.00330
2178.09239	0.00365
2176.80662	0.00345
2175.52085	0.00243
2174.23509	0.00089
2172.94932	-0.00038
2171.66355	-0.00066
2170.37778	0.00020
2169.09201	0.00164
2167.80624	0.00279
2166.52047	0.00308
2165.23470	0.00249
2163.94894	0.00146
2162.66317	0.00051
2161.37740	-0.00017
2160.09163	-0.00081
2158.80586	-0.00170
2157.52009	-0.00263
2156.23432	-0.00291
2154.94855	-0.00220
2153.66278	-0.00088
2152.37702	0.00044
2151.09125	0.00172
2149.80548	0.00332
2148.51971	0.00528
2147.23394	0.00698
2145.94817	0.00773
2144.66240	0.00745
2143.37663	0.00683
2142.09087	0.00662
2140.80510	0.00707
2139.51933	0.00769
2138.23356	0.00787
2136.94779	0.00744
2135.66202	0.00675
2134.37625	0.00616
2133.09048	0.00572
2131.80471	0.00539
2130.51895	0.00526
2129.23318	0.00549
2127.94741	0.00599
2126.66164	0.00649
2125.37587	0.00685
2124.09010	0.00710
2122.80433	0.00736
2121.51856	0.00775
2120.23280	0.00829
2118.94703	0.00881
2117.66126	0.00899
2116.37549	0.00870
2115.08972	0.00823
2113.80395	0.00805
2112.51818	0.00819
2111.23241	0.00833
2109.94664	0.00834
2108.66088	0.00841
2107.37511	0.00872
2106.08934	0.00908
2104.80357	0.00911
2103.51780	0.00876
2102.23203	0.00832
2100.94626	0.00809
2099.66049	0.00841
2098.37473	0.00828
2097.08896	0.00762
2095.80319	0.00696
2094.51742	0.00687
2093.23165	0.00750
2091.94588	0.00832
2090.66011	0.00867
2089.37434	0.00836
2088.08857	0.00782
2086.80281	0.00753
2085.51704	0.00757
2084.23127	0.00775
2082.94550	0.00795
2081.65973	0.00823
2080.37396	0.00851
2079.08819	0.00852
2077.80242	0.00803
2076.51666	0.00717
2075.23089	0.00632
2073.94512	0.00586
2072.65935	0.00598
2071.37358	0.00653
2070.08781	0.00716
2068.80204	0.00750
2067.51627	0.00737
2066.23050	0.00680
2064.94474	0.00609
2063.65897	0.00571
2062.37320	0.00596
2061.08743	0.00661
2059.80166	0.00702
2058.51589	0.00671
2057.23012	0.00578
2055.94435	0.00472
2054.65859	0.00407
2053.37282	0.00408
2052.08705	0.00467
2050.80128	0.00551
2049.51551	0.00614
2048.22974	0.00611
2046.94397	0.00521
2045.65820	0.00371
2044.37243	0.00230
2043.08667	0.00166
2041.80090	0.00190
2040.51513	0.00248
2039.22936	0.00274
2037.94359	0.00247
2036.65782	0.00203
2035.37205	0.00202
2034.08628	0.00261
2032.80052	0.00329
2031.51475	0.00333
2030.22898	0.00242
2028.94321	0.00103
2027.65744	-0.00008
2026.37167	-0.00036
2025.08590	0.00018
2023.80013	0.00110
2022.51436	0.00187
2021.22860	0.00221
2019.94283	0.00221
2018.65706	0.00216
2017.37129	0.00223
2016.08552	0.00238
2014.79975	0.00244
2013.51398	0.00236
2012.22821	0.00233
2010.94245	0.00251
2009.65668	0.00271
2008.37091	0.00262
2007.08514	0.00230
2005.79937	0.00230
2004.51360	0.00289
2003.22783	0.00375
2001.94206	0.00426
2000.65629	0.00425
1999.37053	0.00404
1998.08476	0.00405
1996.79899	0.00431
1995.51322	0.00461
1994.22745	0.00475
1992.94168	0.00469
1991.65591	0.00448
1990.37014	0.00413
1989.08438	0.00371
1987.79861	0.00338
1986.51284	0.00323
1985.22707	0.00317
1983.94130	0.00309
1982.65553	0.00313
1981.36976	0.00354
1980.08399	0.00437
1978.79822	0.00539
1977.51246	0.00628
1976.22669	0.00694
1974.94092	0.00741
1973.65515	0.00773
1972.36938	0.00788
1971.08361	0.00791
1969.79784	0.00780
1968.51207	0.00751
1967.22631	0.00705
1965.94054	0.00668
1964.65477	0.00668
1963.36900	0.00714
1962.08323	0.00790
1960.79746	0.00875
1959.51169	0.00942
1958.22592	0.00972
1956.94015	0.00969
1955.65439	0.00961
1954.36862	0.00967
1953.08285	0.00977
1951.79708	0.00968
1950.51131	0.00939
1949.22554	0.00905
1947.93977	0.00872
1946.65400	0.00833
1945.36823	0.00798
1944.08247	0.00793
1942.79670	0.00832
1941.51093	0.00889
1940.22516	0.00929
1938.93939	0.00946
1937.65362	0.00963
1936.36785	0.00995
1935.08208	0.01025
1933.79632	0.01032
1932.51055	0.01011
1931.22478	0.00977
1929.93901	0.00944
1928.65324	0.00915
1927.36747	0.00887
1926.08170	0.00862
1924.79593	0.00847
1923.51016	0.00848
1922.22440	0.00870
1920.93863	0.00910
1919.65286	0.00954
1918.36709	0.00981
1917.08132	0.00978
1915.79555	0.00956
1914.50978	0.00938
1913.22401	0.00937
1911.93825	0.00945
1910.65248	0.00942
1909.36671	0.00921
1908.08094	0.00899
1906.79517	0.00896
1905.50940	0.00918
1904.22363	0.00957
1902.93786	0.00998
1901.65209	0.01036
1900.36633	0.01071
1899.08056	0.01101
1897.79479	0.01125
1896.50902	0.01136
1895.22325	0.01131
1893.93748	0.01113
1892.65171	0.01091
1891.36594	0.01078
1890.08018	0.01077
1888.79441	0.01086
1887.50864	0.01105
1886.22287	0.01130
1884.93710	0.01145
1883.65133	0.01135
1882.36556	0.01098
1881.07979	0.01050
1879.79402	0.01012
1878.50826	0.00999
1877.22249	0.01012
1875.93672	0.01040
1874.65095	0.01071
1873.36518	0.01100
1872.07941	0.01122
1870.79364	0.01134
1869.50787	0.01131
1868.22211	0.01114
1866.93634	0.01092
1865.65057	0.01077
1864.36480	0.01076
1863.07903	0.01084
1861.79326	0.01095
1860.50749	0.01102
1859.22172	0.01108
1857.93595	0.01117
1856.65019	0.01128
1855.36442	0.01137
1854.07865	0.01142
1852.79288	0.01141
1851.50711	0.01135
1850.22134	0.01130
1848.93557	0.01135
1847.64980	0.01156
1846.36404	0.01192
1845.07827	0.01226
1843.79250	0.01237
1842.50673	0.01220
1841.22096	0.01186
1839.93519	0.01156
1838.64942	0.01142
1837.36365	0.01138
1836.07788	0.01131
1834.79212	0.01117
1833.50635	0.01107
1832.22058	0.01113
1830.93481	0.01139
1829.64904	0.01173
1828.36327	0.01196
1827.07750	0.01197
1825.79173	0.01185
1824.50597	0.01173
1823.22020	0.01171
1821.93443	0.01178
1820.64866	0.01179
1819.36289	0.01168
1818.07712	0.01151
1816.79135	0.01143
1815.50558	0.01150
1814.21981	0.01169
1812.93405	0.01190
1811.64828	0.01205
1810.36251	0.01213
1809.07674	0.01216
1807.79097	0.01217
1806.50520	0.01219
1805.21943	0.01222
1803.93366	0.01224
1802.64790	0.01226
1801.36213	0.01228
1800.07636	0.01231
1798.79059	0.01237
1797.50482	0.01249
1796.21905	0.01274
1794.93328	0.01310
1793.64751	0.01346
1792.36174	0.01368
1791.07598	0.01367
1789.79021	0.01348
1788.50444	0.01326
1787.21867	0.01311
1785.93290	0.01303
1784.64713	0.01300
1783.36136	0.01299
1782.07559	0.01302
1780.78983	0.01311
1779.50406	0.01323
1778.21829	0.01339
1776.93252	0.01362
1775.64675	0.01394
1774.36098	0.01424
1773.07521	0.01440
1771.78944	0.01438
1770.50367	0.01427
1769.21791	0.01420
1767.93214	0.01420
1766.64637	0.01424
1765.36060	0.01429
1764.07483	0.01439
1762.78906	0.01452
1761.50329	0.01462
1760.21752	0.01468
1758.93176	0.01469
1757.64599	0.01470
1756.36022	0.01472
1755.07445	0.01481
1753.78868	0.01500
1752.50291	0.01524
1751.21714	0.01538
1749.93137	0.01534
1748.64560	0.01518
1747.35984	0.01504
1746.07407	0.01501
1744.78830	0.01508
1743.50253	0.01525
1742.21676	0.01548
1740.93099	0.01572
1739.64522	0.01594
1738.35945	0.01617
1737.07369	0.01653
1735.78792	0.01704
1734.50215	0.01750
1733.21638	0.01768
1731.93061	0.01753
1730.64484	0.01726
1729.35907	0.01707
1728.07330	0.01706
1726.78753	0.01718
1725.50177	0.01737
1724.21600	0.01754
1722.93023	0.01774
1721.64446	0.01806
1720.35869	0.01861
1719.07292	0.01929
1717.78715	0.01990
1716.50138	0.02030
1715.21561	0.02049
1713.92985	0.02059
1712.64408	0.02070
1711.35831	0.02088
1710.07254	0.02113
1708.78677	0.02147
1707.50100	0.02187
1706.21523	0.02231
1704.92946	0.02279
1703.64370	0.02335
1702.35793	0.02398
1701.07216	0.02457
1699.78639	0.02501
1698.50062	0.02527
1697.21485	0.02542
1695.92908	0.02547
1694.64331	0.02538
1693.35754	0.02524
1692.07178	0.02518
1690.78601	0.02533
1689.50024	0.02570
1688.21447	0.02628
1686.92870	0.02698
1685.64293	0.02762
1684.35716	0.02799
1683.07139	0.02800
1681.78563	0.02785
1680.49986	0.02779
1679.21409	0.02798
1677.92832	0.02841
1676.64255	0.02895
1675.35678	0.02948
1674.07101	0.02993
1672.78524	0.03033
1671.49947	0.03073
1670.21371	0.03111
1668.92794	0.03140
1667.64217	0.03161
1666.35640	0.03184
1665.07063	0.03216
1663.78486	0.03255
1662.49909	0.03291
1661.21332	0.03321
1659.92756	0.03348
1658.64179	0.03384
1657.35602	0.03439
1656.07025	0.03517
1654.78448	0.03605
1653.49871	0.03669
1652.21294	0.03689
1650.92717	0.03676
1649.64140	0.03669
1648.35564	0.03687
1647.06987	0.03713
1645.78410	0.03723
1644.49833	0.03711
1643.21256	0.03695
1641.92679	0.03695
1640.64102	0.03719
1639.35525	0.03764
1638.06949	0.03822
1636.78372	0.03878
1635.49795	0.03915
1634.21218	0.03926
1632.92641	0.03921
1631.64064	0.03924
1630.35487	0.03943
1629.06910	0.03974
1627.78333	0.04008
1626.49757	0.04041
1625.21180	0.04075
1623.92603	0.04105
1622.64026	0.04126
1621.35449	0.04143
1620.06872	0.04167
1618.78295	0.04203
1617.49718	0.04245
1616.21142	0.04275
1614.92565	0.04288
1613.63988	0.04292
1612.35411	0.04303
1611.06834	0.04328
1609.78257	0.04364
1608.49680	0.04404
1607.21103	0.04443
1605.92526	0.04479
1604.63950	0.04510
1603.35373	0.04536
1602.06796	0.04558
1600.78219	0.04578
1599.49642	0.04602
1598.21065	0.04627
1596.92488	0.04653
1595.63911	0.04676
1594.35335	0.04697
1593.06758	0.04717
1591.78181	0.04738
1590.49604	0.04760
1589.21027	0.04782
1587.92450	0.04804
1586.63873	0.04826
1585.35296	0.04846
1584.06719	0.04862
1582.78143	0.04877
1581.49566	0.04894
1580.20989	0.04919
1578.92412	0.04956
1577.63835	0.04997
1576.35258	0.05027
1575.06681	0.05035
1573.78104	0.05031
1572.49528	0.05030
1571.20951	0.05041
1569.92374	0.05051
1568.63797	0.05050
1567.35220	0.05034
1566.06643	0.05013
1564.78066	0.04998
1563.49489	0.05002
1562.20912	0.05034
1560.92336	0.05085
1559.63759	0.05127
1558.35182	0.05131
1557.06605	0.05094
1555.78028	0.05038
1554.49451	0.04986
1553.20874	0.04948
1551.92297	0.04922
1550.63721	0.04905
1549.35144	0.04892
1548.06567	0.04882
1546.77990	0.04880
1545.49413	0.04888
1544.20836	0.04907
1542.92259	0.04934
1541.63682	0.04956
1540.35105	0.04956
1539.06529	0.04924
1537.77952	0.04871
1536.49375	0.04824
1535.20798	0.04803
1533.92221	0.04803
1532.63644	0.04813
1531.35067	0.04827
1530.06490	0.04851
1528.77914	0.04892
1527.49337	0.04948
1526.20760	0.05014
1524.92183	0.05088
1523.63606	0.05172
1522.35029	0.05258
1521.06452	0.05336
1519.77875	0.05400
1518.49298	0.05459
1517.20722	0.05527
1515.92145	0.05611
1514.63568	0.05708
1513.34991	0.05816
1512.06414	0.05938
1510.77837	0.06076
1509.49260	0.06234
1508.20683	0.06401
1506.92107	0.06550
1505.63530	0.06658
1504.34953	0.06730
1503.06376	0.06792
1501.77799	0.06869
1500.49222	0.06967
1499.20645	0.07077
1497.92068	0.07181
1496.63491	0.07267
1495.34915	0.07336
1494.06338	0.07399
1492.77761	0.07473
1491.49184	0.07565
1490.20607	0.07665
1488.92030	0.07760
1487.63453	0.07849
1486.34876	0.07939
1485.06299	0.08042
1483.77723	0.08161
1482.49146	0.08290
1481.20569	0.08423
1479.91992	0.08554
1478.63415	0.08683
1477.34838	0.08814
1476.06261	0.08949
1474.77684	0.09083
1473.49108	0.09200
1472.20531	0.09288
1470.91954	0.09343
1469.63377	0.09378
1468.34800	0.09411
1467.06223	0.09448
1465.77646	0.09486
1464.49069	0.09517
1463.20492	0.09546
1461.91916	0.09585
1460.63339	0.09648
1459.34762	0.09735
1458.06185	0.09833
1456.77608	0.09919
1455.49031	0.09977
1454.20454	0.10013
1452.91877	0.10044
1451.63301	0.10079
1450.34724	0.10116
1449.06147	0.10146
1447.77570	0.10159
1446.48993	0.10152
1445.20416	0.10128
1443.91839	0.10092
1442.63262	0.10053
1441.34685	0.10019
1440.06109	0.09998
1438.77532	0.09995
1437.48955	0.10002
1436.20378	0.10015
1434.91801	0.10035
1433.63224	0.10073
1432.34647	0.10139
1431.06070	0.10235
1429.77494	0.10353
1428.48917	0.10487
1427.20340	0.10630
1425.91763	0.10781
1424.63186	0.10939
1423.34609	0.11105
1422.06032	0.11278
1420.77455	0.11450
1419.48878	0.11607
1418.20302	0.11732
1416.91725	0.11817
1415.63148	0.11870
1414.34571	0.11900
1413.05994	0.11912
1411.77417	0.11905
1410.48840	0.11876
1409.20263	0.11824
1407.91687	0.11751
1406.63110	0.11659
1405.34533	0.11549
1404.05956	0.11424
1402.77379	0.11285
1401.48802	0.11135
1400.20225	0.10973
1398.91648	0.10796
1397.63071	0.10606
1396.34495	0.10406
1395.05918	0.10198
1393.77341	0.09983
1392.48764	0.09767
1391.20187	0.09555
1389.91610	0.09353
1388.63033	0.09156
1387.34456	0.08960
1386.05880	0.08762
1384.77303	0.08565
1383.48726	0.08372
1382.20149	0.08183
1380.91572	0.07997
1379.62995	0.07810
1378.34418	0.07621
1377.05841	0.07430
1375.77264	0.07236
1374.48688	0.07035
1373.20111	0.06824
1371.91534	0.06611
1370.62957	0.06403
1369.34380	0.06209
1368.05803	0.06033
1366.77226	0.05871
1365.48649	0.05718
1364.20073	0.05569
1362.91496	0.05422
1361.62919	0.05278
1360.34342	0.05139
1359.05765	0.05009
1357.77188	0.04886
1356.48611	0.04769
1355.20034	0.04658
1353.91457	0.04551
1352.62881	0.04450
1351.34304	0.04355
1350.05727	0.04266
1348.77150	0.04181
1347.48573	0.04098
1346.19996	0.04019
1344.91419	0.03943
1343.62842	0.03871
1342.34266	0.03802
1341.05689	0.03736
1339.77112	0.03674
1338.48535	0.03615
1337.19958	0.03556
1335.91381	0.03499
1334.62804	0.03443
1333.34227	0.03391
1332.05650	0.03345
1330.77074	0.03306
1329.48497	0.03271
1328.19920	0.03236
1326.91343	0.03199
1325.62766	0.03157
1324.34189	0.03113
1323.05612	0.03073
1321.77035	0.03040
1320.48459	0.03013
1319.19882	0.02986
1317.91305	0.02954
1316.62728	0.02918
1315.34151	0.02883
1314.05574	0.02855
1312.76997	0.02834
1311.48420	0.02815
1310.19843	0.02793
1308.91267	0.02769
1307.62690	0.02746
1306.34113	0.02725
1305.05536	0.02707
1303.76959	0.02689
1302.48382	0.02670
1301.19805	0.02648
1299.91228	0.02625
1298.62652	0.02602
1297.34075	0.02583
1296.05498	0.02569
1294.76921	0.02558
1293.48344	0.02547
1292.19767	0.02535
1290.91190	0.02521
1289.62613	0.02506
1288.34036	0.02492
1287.05460	0.02482
1285.76883	0.02473
1284.48306	0.02462
1283.19729	0.02449
1281.91152	0.02433
1280.62575	0.02414
1279.33998	0.02397
1278.05421	0.02383
1276.76845	0.02372
1275.48268	0.02361
1274.19691	0.02349
1272.91114	0.02336
1271.62537	0.02328
1270.33960	0.02323
1269.05383	0.02318
1267.76806	0.02308
1266.48229	0.02294
1265.19653	0.02281
1263.91076	0.02271
1262.62499	0.02262
1261.33922	0.02252
1260.05345	0.02242
1258.76768	0.02232
1257.48191	0.02223
1256.19614	0.02215
1254.91037	0.02207
1253.62461	0.02202
1252.33884	0.02197
1251.05307	0.02193
1249.76730	0.02187
1248.48153	0.02180
1247.19576	0.02169
1245.90999	0.02154
1244.62422	0.02138
1243.33846	0.02126
1242.05269	0.02121
1240.76692	0.02123
1239.48115	0.02126
1238.19538	0.02126
1236.90961	0.02123
1235.62384	0.02117
1234.33807	0.02109
1233.05230	0.02102
1231.76654	0.02097
1230.48077	0.02095
1229.19500	0.02097
1227.90923	0.02098
1226.62346	0.02098
1225.33769	0.02097
1224.05192	0.02094
1222.76615	0.02089
1221.48039	0.02082
1220.19462	0.02075
1218.90885	0.02069
1217.62308	0.02064
1216.33731	0.02058
1215.05154	0.02055
1213.76577	0.02057
1212.48000	0.02065
1211.19423	0.02075
1209.90847	0.02086
1208.62270	0.02095
1207.33693	0.02103
1206.05116	0.02108
1204.76539	0.02110
1203.47962	0.02108
1202.19385	0.02108
1200.90808	0.02109
1199.62232	0.02114
1198.33655	0.02130
1197.05078	0.02147
1195.76501	0.02160
1194.47924	0.02166
1193.19347	0.02168
1191.90770	0.02169
1190.62193	0.02174
1189.33616	0.02182
1188.05040	0.02190
1186.76463	0.02198
1185.47886	0.02205
1184.19309	0.02214
1182.90732	0.02224
1181.62155	0.02234
1180.33578	0.02245
1179.05001	0.02258
1177.76425	0.02274
1176.47848	0.02293
1175.19271	0.02310
1173.90694	0.02325
1172.62117	0.02338
1171.33540	0.02350
1170.04963	0.02363
1168.76386	0.02379
1167.47809	0.02399
1166.19233	0.02419
1164.90656	0.02436
1163.62079	0.02448
1162.33502	0.02458
1161.04925	0.02473
1159.76348	0.02494
1158.47771	0.02524
1157.19194	0.02558
1155.90618	0.02590
1154.62041	0.02619
1153.33464	0.02649
1152.04887	0.02687
1150.76310	0.02733
1149.47733	0.02785
1148.19156	0.02839
1146.90579	0.02895
1145.62002	0.02953
1144.33426	0.03014
1143.04849	0.03076
1141.76272	0.03143
1140.47695	0.03221
1139.19118	0.03312
1137.90541	0.03419
1136.61964	0.03541
1135.33387	0.03673
1134.04811	0.03816
1132.76234	0.03971
1131.47657	0.04142
1130.19080	0.04335
1128.90503	0.04549
1127.61926	0.04784
1126.33349	0.05042
1125.04772	0.05326
1123.76195	0.05634
1122.47619	0.05958
1121.19042	0.06293
1119.90465	0.06632
1118.61888	0.06975
1117.33311	0.07322
1116.04734	0.07677
1114.76157	0.08035
1113.47580	0.08390
1112.19004	0.08730
1110.90427	0.09052
1109.61850	0.09359
1108.33273	0.09657
1107.04696	0.09948
1105.76119	0.10227
1104.47542	0.10491
1103.18965	0.10743
1101.90388	0.10989
1100.61812	0.11232
1099.33235	0.11470
1098.04658	0.11700
1096.76081	0.11921
1095.47504	0.12133
1094.18927	0.12336
1092.90350	0.12529
1091.61773	0.12712
1090.33197	0.12882
1089.04620	0.13034
1087.76043	0.13169
1086.47466	0.13298
1085.18889	0.13432
1083.90312	0.13580
1082.61735	0.13745
1081.33158	0.13929
1080.04581	0.14134
1078.76005	0.14362
1077.47428	0.14609
1076.18851	0.14869
1074.90274	0.15139
1073.61697	0.15418
1072.33120	0.15711
1071.04543	0.16023
1069.75966	0.16351
1068.47390	0.16686
1067.18813	0.17023
1065.90236	0.17363
1064.61659	0.17713
1063.33082	0.18075
1062.04505	0.18445
1060.75928	0.18814
1059.47351	0.19179
1058.18774	0.19536
1056.90198	0.19887
1055.61621	0.20233
1054.33044	0.20580
1053.04467	0.20930
1051.75890	0.21284
1050.47313	0.21641
1049.18736	0.22004
1047.90159	0.22375
1046.61583	0.22759
1045.33006	0.23156
1044.04429	0.23558
1042.75852	0.23960
1041.47275	0.24362
1040.18698	0.24768
1038.90121	0.25179
1037.61544	0.25591
1036.32967	0.25993
1035.04391	0.26376
1033.75814	0.26735
1032.47237	0.27066
1031.18660	0.27370
1029.90083	0.27646
1028.61506	0.27896
1027.32929	0.28118
1026.04352	0.28307
1024.75775	0.28454
1023.47199	0.28553
1022.18622	0.28603
1020.90045	0.28600
1019.61468	0.28540
1018.32891	0.28415
1017.04314	0.28221
1015.75737	0.27957
1014.47160	0.27629
1013.18584	0.27242
1011.90007	0.26797
1010.61430	0.26293
1009.32853	0.25727
1008.04276	0.25102
1006.75699	0.24424
1005.47122	0.23702
1004.18545	0.22948
1002.89968	0.22171
1001.61392	0.21378
1000.32815	0.20576
999.04238	0.19768
997.75661	0.18959
996.47084	0.18155
995.18507	0.17367
993.89930	0.16605
992.61353	0.15879
991.32777	0.15191
990.04200	0.14536
988.75623	0.13909
987.47046	0.13310
986.18469	0.12741
984.89892	0.12206
983.61315	0.11711
982.32738	0.11262
981.04161	0.10853
979.75585	0.10474
978.47008	0.10120
977.18431	0.09796
975.89854	0.09509
974.61277	0.09267
973.32700	0.09076
972.04123	0.08938
970.75546	0.08853
969.46970	0.08822
968.18393	0.08845
966.89816	0.08919
965.61239	0.09033
964.32662	0.09161
963.04085	0.09270
961.75508	0.09329
960.46931	0.09315
959.18354	0.09220
957.89778	0.09048
956.61201	0.08818
955.32624	0.08557
954.04047	0.08289
952.75470	0.08027
951.46893	0.07774
950.18316	0.07532
948.89739	0.07301
947.61163	0.07081
946.32586	0.06872
945.04009	0.06672
943.75432	0.06481
942.46855	0.06299
941.18278	0.06128
939.89701	0.05970
938.61124	0.05821
937.32547	0.05684
936.03971	0.05562
934.75394	0.05458
933.46817	0.05368
932.18240	0.05281
930.89663	0.05186
929.61086	0.05083
928.32509	0.04980
927.03932	0.04889
925.75356	0.04815
924.46779	0.04753
923.18202	0.04694
921.89625	0.04634
920.61048	0.04577
919.32471	0.04529
918.03894	0.04491
916.75317	0.04459
915.46740	0.04426
914.18164	0.04383
912.89587	0.04330
911.61010	0.04275
910.32433	0.04223
909.03856	0.04177
907.75279	0.04136
906.46702	0.04102
905.18125	0.04075
903.89549	0.04050
902.60972	0.04020
901.32395	0.03987
900.03818	0.03957
898.75241	0.03935
897.46664	0.03919
896.18087	0.03902
894.89510	0.03878
893.60933	0.03852
892.32357	0.03836
891.03780	0.03841
889.75203	0.03878
888.46626	0.03953
887.18049	0.04068
885.89472	0.04232
884.60895	0.04460
883.32318	0.04763
882.03742	0.05122
880.75165	0.05489
879.46588	0.05807
878.18011	0.06058
876.89434	0.06266
875.60857	0.06467
874.32280	0.06664
873.03703	0.06808
871.75126	0.06837
870.46550	0.06719
869.17973	0.06477
867.89396	0.06157
866.60819	0.05804
865.32242	0.05453
864.03665	0.05129
862.75088	0.04850
861.46511	0.04621
860.17935	0.04436
858.89358	0.04285
857.60781	0.04166
856.32204	0.04072
855.03627	0.03994
853.75050	0.03921
852.46473	0.03854
851.17896	0.03801
849.89319	0.03765
848.60743	0.03743
847.32166	0.03721
846.03589	0.03694
844.75012	0.03662
843.46435	0.03632
842.17858	0.03605
840.89281	0.03578
839.60704	0.03552
838.32128	0.03528
837.03551	0.03506
835.74974	0.03488
834.46397	0.03471
833.17820	0.03457
831.89243	0.03449
830.60666	0.03446
829.32089	0.03447
828.03512	0.03444
826.74936	0.03438
825.46359	0.03431
824.17782	0.03426
822.89205	0.03423
821.60628	0.03422
820.32051	0.03425
819.03474	0.03433
817.74897	0.03441
816.46321	0.03439
815.17744	0.03427
813.89167	0.03411
812.60590	0.03399
811.32013	0.03397
810.03436	0.03403
808.74859	0.03412
807.46282	0.03424
806.17705	0.03441
804.89129	0.03463
803.60552	0.03483
802.31975	0.03497
801.03398	0.03508
799.74821	0.03517
798.46244	0.03523
797.17667	0.03522
795.89090	0.03515
794.60513	0.03510
793.31937	0.03512
792.03360	0.03522
790.74783	0.03530
789.46206	0.03532
788.17629	0.03531
786.89052	0.03532
785.60475	0.03537
784.31898	0.03541
783.03322	0.03543
781.74745	0.03543
780.46168	0.03539
779.17591	0.03527
777.89014	0.03508
776.60437	0.03492
775.31860	0.03486
774.03283	0.03487
772.74706	0.03488
771.46130	0.03488
770.17553	0.03487
768.88976	0.03486
767.60399	0.03484
766.31822	0.03478
765.03245	0.03472
763.74668	0.03466
762.46091	0.03459
761.17515	0.03451
759.88938	0.03448
758.60361	0.03454
757.31784	0.03467
756.03207	0.03480
754.74630	0.03484
753.46053	0.03476
752.17476	0.03459
750.88899	0.03443
749.60323	0.03440
748.31746	0.03452
747.03169	0.03467
745.74592	0.03472
744.46015	0.03465
743.17438	0.03450
741.88861	0.03434
740.60284	0.03419
739.31708	0.03410
738.03131	0.03411
736.74554	0.03419
735.45977	0.03430
734.17400	0.03439
732.88823	0.03448
731.60246	0.03457
730.31669	0.03466
729.03092	0.03473
727.74516	0.03479
726.45939	0.03488
725.17362	0.03497
723.88785	0.03501
722.60208	0.03528
721.31631	0.03552
720.03054	0.03579
718.74477	0.03614
717.45901	0.03621
716.17324	0.03607
714.88747	0.03589
713.60170	0.03571
712.31593	0.03553
711.03016	0.03535
709.74439	0.03518
708.45862	0.03500
707.17285	0.03483
705.88709	0.03469
704.60132	0.03460
703.31555	0.03456
702.02978	0.03457
700.74401	0.03461
699.45824	0.03469
698.17247	0.03486
696.88670	0.03509
695.60094	0.03535
694.31517	0.03559
693.02940	0.03577
691.74363	0.03587
690.45786	0.03592
689.17209	0.03594
687.88632	0.03593
686.60055	0.03590
685.31478	0.03584
684.02902	0.03577
682.74325	0.03571
681.45748	0.03567
680.17171	0.03561
678.88594	0.03551
677.60017	0.03535
676.31440	0.03515
675.02863	0.03508
673.74287	0.03564
672.45710	0.03741
671.17133	0.03953
669.88556	0.03864
668.59979	0.03423
667.31402	0.03450
666.02825	0.03836
664.74248	0.03847
663.45671	0.03641
662.17095	0.03506
660.88518	0.03475
659.59941	0.03490
658.31364	0.03512
657.02787	0.03526
655.74210	0.03531
654.45633	0.03539
653.17056	0.03548
651.88480	0.03562
650.59903	0.03577
649.31326	0.03587
648.02749	0.03601
646.74172	0.03610
645.45595	0.03614
644.17018	0.03621
642.88441	0.03638
641.59864	0.03660
640.31288	0.03683
639.02711	0.03699
637.74134	0.03712
636.45557	0.03728
635.16980	0.03750
633.88403	0.03779
632.59826	0.03815
631.31249	0.03865
630.02673	0.03941
628.74096	0.04012
627.45519	0.04032
626.16942	0.04185
624.88365	0.04417
623.59788	0.04641
622.31211	0.04846
621.02634	0.05075
619.74057	0.05346
618.45481	0.05639
617.16904	0.05937
615.88327	0.06255
614.59750	0.06593
613.31173	0.06928
612.02596	0.07243
610.74019	0.07556
609.45442	0.07913
608.16866	0.08342
606.88289	0.08843
605.59712	0.09379
604.31135	0.09877
603.02558	0.10249
601.73981	0.10431
600.45404	0.10395
599.16827	0.10165
597.88250	0.09809
596.59674	0.09416
595.31097	0.09049
594.02520	0.08736
592.73943	0.08481
591.45366	0.08283
590.16789	0.08151
588.88212	0.08095
587.59635	0.08116
586.31059	0.08204
585.02482	0.08344
583.73905	0.08527
582.45328	0.08748
581.16751	0.08997
579.88174	0.09263
578.59597	0.09539
577.31020	0.09821
576.02443	0.10105
574.73867	0.10383
573.45290	0.10648
572.16713	0.10907
570.88136	0.11189
569.59559	0.11524
568.30982	0.11920
567.02405	0.12353
565.73828	0.12775
564.45251	0.13131
563.16675	0.13369
561.88098	0.13445
560.59521	0.13328
559.30944	0.13019
558.02367	0.12554
556.73790	0.11986
555.45213	0.11358
554.16636	0.10696
552.88060	0.10025
551.59483	0.09380
550.30906	0.08794
549.02329	0.08284
547.73752	0.07844
546.45175	0.07463
545.16598	0.07133
543.88021	0.06851
542.59444	0.06610
541.30868	0.06399
540.02291	0.06208
538.73714	0.06034
537.45137	0.05881
536.16560	0.05754
534.87983	0.05650
533.59406	0.05556
532.30829	0.05458
531.02253	0.05353
529.73676	0.05247
528.45099	0.05150
527.16522	0.05065
525.87945	0.04985
524.59368	0.04903
523.30791	0.04820
522.02214	0.04741
520.73637	0.04676
519.45061	0.04626
518.16484	0.04582
516.87907	0.04530
515.59330	0.04465
514.30753	0.04394
513.02176	0.04331
511.73599	0.04279
510.45022	0.04233
509.16446	0.04190
507.87869	0.04150
506.59292	0.04115
505.30715	0.04087
504.02138	0.04062
502.73561	0.04032
501.44984	0.03994
500.16407	0.03952
498.87830	0.03917
497.59254	0.03895
496.30677	0.03881
495.02100	0.03867
493.73523	0.03854
492.44946	0.03851
491.16369	0.03856
489.87792	0.03858
488.59215	0.03849
487.30639	0.03828
486.02062	0.03811
484.73485	0.03811
483.44908	0.03834
482.16331	0.03874
480.87754	0.03921
479.59177	0.03965
478.30600	0.04002
477.02023	0.04034
475.73447	0.04068
474.44870	0.04106
473.16293	0.04142
471.87716	0.04165
470.59139	0.04169
469.30562	0.04162
468.01985	0.04148
466.73408	0.04127
465.44832	0.04094
464.16255	0.04051
462.87678	0.04004
461.59101	0.03963
460.30524	0.03930
459.01947	0.03905
457.73370	0.03879
456.44793	0.03850
455.16216	0.03815
453.87640	0.03777
452.59063	0.03741
451.30486	0.03706
450.01909	0.03670
448.73332	0.03631
447.44755	0.03590
446.16178	0.03552
444.87601	0.03522
443.59025	0.03503
442.30448	0.03491
441.01871	0.03477
439.73294	0.03456
438.44717	0.03429
437.16140	0.03405
435.87563	0.03388
434.58986	0.03379
433.30409	0.03374
432.01833	0.03372
430.73256	0.03368
429.44679	0.03360
428.16102	0.03344
426.87525	0.03324
425.58948	0.03304
424.30371	0.03286
423.01794	0.03270
421.73218	0.03252
420.44641	0.03227
419.16064	0.03197
417.87487	0.03163
416.58910	0.03131
415.30333	0.03099
414.01756	0.03068
412.73179	0.03038
411.44602	0.03012
410.16026	0.02992
408.87449	0.02976
407.58872	0.02966
406.30295	0.02962
405.01718	0.02962
403.73141	0.02966
402.44564	0.02970
401.15987	0.02980
399.87411	0.02995
