3997.45528	0.07004
3996.16951	0.07025
3994.88374	0.07041
3993.59798	0.07042
3992.31221	0.07017
3991.02644	0.06969
3989.74067	0.06922
3988.45490	0.06906
3987.16913	0.06930
3985.88336	0.06981
3984.59759	0.07038
3983.31183	0.07092
3982.02606	0.07140
3980.74029	0.07186
3979.45452	0.07224
3978.16875	0.07242
3976.88298	0.07229
3975.59721	0.07192
3974.31144	0.07155
3973.02567	0.07143
3971.73991	0.07150
3970.45414	0.07153
3969.16837	0.07137
3967.88260	0.07115
3966.59683	0.07102
3965.31106	0.07099
3964.02529	0.07091
3962.73952	0.07079
3961.45376	0.07082
3960.16799	0.07109
3958.88222	0.07144
3957.59645	0.07162
3956.31068	0.07159
3955.02491	0.07145
3953.73914	0.07118
3952.45337	0.07072
3951.16760	0.07015
3949.88184	0.06965
3948.59607	0.06934
3947.31030	0.06926
3946.02453	0.06947
3944.73876	0.06997
3943.45299	0.07057
3942.16722	0.07094
3940.88145	0.07091
3939.59569	0.07046
3938.30992	0.06970
3937.02415	0.06886
3935.73838	0.06828
3934.45261	0.06814
3933.16684	0.06833
3931.88107	0.06850
3930.59530	0.06851
3929.30953	0.06856
3928.02377	0.06878
3926.73800	0.06892
3925.45223	0.06865
3924.16646	0.06803
3922.88069	0.06750
3921.59492	0.06742
3920.30915	0.06777
3919.02338	0.06832
3917.73762	0.06887
3916.45185	0.06918
3915.16608	0.06906
3913.88031	0.06848
3912.59454	0.06759
3911.30877	0.06672
3910.02300	0.06615
3908.73723	0.06599
3907.45146	0.06614
3906.16570	0.06635
3904.87993	0.06632
3903.59416	0.06600
3902.30839	0.06575
3901.02262	0.06603
3899.73685	0.06692
3898.45108	0.06802
3897.16531	0.06890
3895.87955	0.06941
3894.59378	0.06953
3893.30801	0.06923
3892.02224	0.06845
3890.73647	0.06736
3889.45070	0.06647
3888.16493	0.06638
3886.87916	0.06710
3885.59339	0.06794
3884.30763	0.06826
3883.02186	0.06805
3881.73609	0.06776
3880.45032	0.06760
3879.16455	0.06744
3877.87878	0.06715
3876.59301	0.06684
3875.30724	0.06667
3874.02148	0.06665
3872.73571	0.06671
3871.44994	0.06678
3870.16417	0.06685
3868.87840	0.06702
3867.59263	0.06744
3866.30686	0.06807
3865.02109	0.06860
3863.73532	0.06882
3862.44956	0.06884
3861.16379	0.06875
3859.87802	0.06842
3858.59225	0.06768
3857.30648	0.06660
3856.02071	0.06556
3854.73494	0.06488
3853.44917	0.06458
3852.16341	0.06452
3850.87764	0.06457
3849.59187	0.06455
3848.30610	0.06437
3847.02033	0.06416
3845.73456	0.06417
3844.44879	0.06444
3843.16302	0.06477
3841.87725	0.06495
3840.59149	0.06490
3839.30572	0.06464
3838.01995	0.06420
3836.73418	0.06373
3835.44841	0.06348
3834.16264	0.06358
3832.87687	0.06390
3831.59110	0.06419
3830.30534	0.06432
3829.01957	0.06434
3827.73380	0.06442
3826.44803	0.06458
3825.16226	0.06468
3823.87649	0.06454
3822.59072	0.06412
3821.30495	0.06360
3820.01918	0.06334
3818.73342	0.06362
3817.44765	0.06430
3816.16188	0.06479
3814.87611	0.06470
3813.59034	0.06422
3812.30457	0.06373
3811.01880	0.06346
3809.73303	0.06356
3808.44726	0.06400
3807.16150	0.06434
3805.87573	0.06411
3804.58996	0.06342
3803.30419	0.06290
3802.01842	0.06289
3800.73265	0.06317
3799.44688	0.06349
3798.16111	0.06387
3796.87535	0.06427
3795.58958	0.06449
3794.30381	0.06452
3793.01804	0.06457
3791.73227	0.06467
3790.44650	0.06457
3789.16073	0.06410
3787.87496	0.06353
3786.58919	0.06327
3785.30343	0.06340
3784.01766	0.06354
3782.73189	0.06337
3781.44612	0.06292
3780.16035	0.06244
3778.87458	0.06203
3777.58881	0.06174
3776.30304	0.06167
3775.01728	0.06190
3773.73151	0.06240
3772.44574	0.06294
3771.15997	0.06323
3769.87420	0.06306
3768.58843	0.06250
3767.30266	0.06186
3766.01689	0.06132
3764.73112	0.06098
3763.44536	0.06093
3762.15959	0.06130
3760.87382	0.06199
3759.58805	0.06265
3758.30228	0.06289
3757.01651	0.06260
3755.73074	0.06203
3754.44497	0.06166
3753.15921	0.06167
3751.87344	0.06190
3750.58767	0.06203
3749.30190	0.06187
3748.01613	0.06154
3746.73036	0.06138
3745.44459	0.06150
3744.15882	0.06144
3742.87305	0.06087
3741.58729	0.05999
3740.30152	0.05930
3739.01575	0.05919
3737.72998	0.05975
3736.44421	0.06067
3735.15844	0.06139
3733.87267	0.06160
3732.58690	0.06134
3731.30114	0.06086
3730.01537	0.06050
3728.72960	0.06041
3727.44383	0.06040
3726.15806	0.06023
3724.87229	0.06003
3723.58652	0.06002
3722.30075	0.06018
3721.01498	0.06028
3719.72922	0.06027
3718.44345	0.06028
3717.15768	0.06039
3715.87191	0.06052
3714.58614	0.06062
3713.30037	0.06070
3712.01460	0.06083
3710.72883	0.06097
3709.44307	0.06102
3708.15730	0.06088
3706.87153	0.06053
3705.58576	0.06019
3704.29999	0.06006
3703.01422	0.06003
3701.72845	0.05971
3700.44268	0.05898
3699.15691	0.05815
3697.87115	0.05762
3696.58538	0.05744
3695.29961	0.05741
3694.01384	0.05738
3692.72807	0.05725
3691.44230	0.05709
3690.15653	0.05705
3688.87076	0.05718
3687.58500	0.05741
3686.29923	0.05780
3685.01346	0.05837
3683.72769	0.05892
3682.44192	0.05922
3681.15615	0.05919
3679.87038	0.05901
3678.58461	0.05902
3677.29884	0.05936
3676.01308	0.05982
3674.72731	0.06007
3673.44154	0.06014
3672.15577	0.06029
3670.87000	0.06046
3669.58423	0.06046
3668.29846	0.06031
3667.01269	0.06012
3665.72693	0.05990
3664.44116	0.05975
3663.15539	0.05987
3661.86962	0.06032
3660.58385	0.06065
3659.29808	0.06036
3658.01231	0.05946
3656.72654	0.05854
3655.44077	0.05827
3654.15501	0.05894
3652.86924	0.06026
3651.58347	0.06149
3650.29770	0.06201
3649.01193	0.06179
3647.72616	0.06143
3646.44039	0.06157
3645.15462	0.06229
3643.86886	0.06317
3642.58309	0.06387
3641.29732	0.06445
3640.01155	0.06507
3638.72578	0.06566
3637.44001	0.06593
3636.15424	0.06575
3634.86847	0.06526
3633.58270	0.06473
3632.29694	0.06443
3631.01117	0.06449
3629.72540	0.06473
3628.43963	0.06475
3627.15386	0.06450
3625.86809	0.06429
3624.58232	0.06433
3623.29655	0.06436
3622.01079	0.06406
3620.72502	0.06346
3619.43925	0.06286
3618.15348	0.06254
3616.86771	0.06257
3615.58194	0.06290
3614.29617	0.06346
3613.01040	0.06420
3611.72463	0.06509
3610.43887	0.06614
3609.15310	0.06725
3607.86733	0.06822
3606.58156	0.06877
3605.29579	0.06872
3604.01002	0.06811
3602.72425	0.06726
3601.43848	0.06652
3600.15272	0.06616
3598.86695	0.06628
3597.58118	0.06689
3596.29541	0.06784
3595.00964	0.06881
3593.72387	0.06944
3592.43810	0.06959
3591.15233	0.06948
3589.86656	0.06952
3588.58080	0.06984
3587.29503	0.07015
3586.00926	0.07017
3584.72349	0.06996
3583.43772	0.06991
3582.15195	0.07032
3580.86618	0.07115
3579.58041	0.07208
3578.29464	0.07282
3577.00888	0.07326
3575.72311	0.07348
3574.43734	0.07357
3573.15157	0.07360
3571.86580	0.07355
3570.58003	0.07348
3569.29426	0.07354
3568.00849	0.07380
3566.72273	0.07420
3565.43696	0.07462
3564.15119	0.07497
3562.86542	0.07517
3561.57965	0.07509
3560.29388	0.07474
3559.00811	0.07432
3557.72234	0.07418
3556.43657	0.07454
3555.15081	0.07526
3553.86504	0.07594
3552.57927	0.07620
3551.29350	0.07598
3550.00773	0.07564
3548.72196	0.07555
3547.43619	0.07579
3546.15042	0.07612
3544.86466	0.07626
3543.57889	0.07622
3542.29312	0.07623
3541.00735	0.07647
3539.72158	0.07686
3538.43581	0.07723
3537.15004	0.07749
3535.86427	0.07768
3534.57850	0.07780
3533.29274	0.07770
3532.00697	0.07734
3530.72120	0.07702
3529.43543	0.07720
3528.14966	0.07804
3526.86389	0.07918
3525.57812	0.08005
3524.29235	0.08031
3523.00659	0.07997
3521.72082	0.07930
3520.43505	0.07874
3519.14928	0.07865
3517.86351	0.07907
3516.57774	0.07977
3515.29197	0.08046
3514.00620	0.08102
3512.72043	0.08150
3511.43467	0.08191
3510.14890	0.08214
3508.86313	0.08206
3507.57736	0.08176
3506.29159	0.08154
3505.00582	0.08166
3503.72005	0.08208
3502.43428	0.08247
3501.14852	0.08252
3499.86275	0.08223
3498.57698	0.08187
3497.29121	0.08168
3496.00544	0.08161
3494.71967	0.08153
3493.43390	0.08142
3492.14813	0.08149
3490.86236	0.08188
3489.57660	0.08251
3488.29083	0.08316
3487.00506	0.08361
3485.71929	0.08383
3484.43352	0.08395
3483.14775	0.08421
3481.86198	0.08473
3480.57621	0.08536
3479.29045	0.08578
3478.00468	0.08572
3476.71891	0.08523
3475.43314	0.08459
3474.14737	0.08420
3472.86160	0.08421
3471.57583	0.08447
3470.29006	0.08471
3469.00429	0.08483
3467.71853	0.08491
3466.43276	0.08506
3465.14699	0.08529
3463.86122	0.08554
3462.57545	0.08577
3461.28968	0.08601
3460.00391	0.08616
3458.71814	0.08607
3457.43238	0.08572
3456.14661	0.08539
3454.86084	0.08550
3453.57507	0.08611
3452.28930	0.08692
3451.00353	0.08753
3449.71776	0.08781
3448.43199	0.08787
3447.14622	0.08780
3445.86046	0.08753
3444.57469	0.08703
3443.28892	0.08652
3442.00315	0.08630
3440.71738	0.08649
3439.43161	0.08700
3438.14584	0.08761
3436.86007	0.08814
3435.57431	0.08847
3434.28854	0.08862
3433.00277	0.08872
3431.71700	0.08899
3430.43123	0.08954
3429.14546	0.09022
3427.85969	0.09069
3426.57392	0.09074
3425.28815	0.09036
3424.00239	0.08987
3422.71662	0.08962
3421.43085	0.08980
3420.14508	0.09027
3418.85931	0.09073
3417.57354	0.09097
3416.28777	0.09092
3415.00200	0.09071
3413.71624	0.09057
3412.43047	0.09067
3411.14470	0.09099
3409.85893	0.09131
3408.57316	0.09141
3407.28739	0.09129
3406.00162	0.09104
3404.71585	0.09073
3403.43008	0.09042
3402.14432	0.09018
3400.85855	0.09017
3399.57278	0.09048
3398.28701	0.09103
3397.00124	0.09158
3395.71547	0.09193
3394.42970	0.09202
3393.14393	0.09197
3391.85817	0.09199
3390.57240	0.09226
3389.28663	0.09275
3388.00086	0.09320
3386.71509	0.09341
3385.42932	0.09332
3384.14355	0.09308
3382.85778	0.09281
3381.57201	0.09261
3380.28625	0.09260
3379.00048	0.09276
3377.71471	0.09290
3376.42894	0.09280
3375.14317	0.09247
3373.85740	0.09217
3372.57163	0.09213
3371.28586	0.09235
3370.00010	0.09266
3368.71433	0.09290
3367.42856	0.09307
3366.14279	0.09327
3364.85702	0.09352
3363.57125	0.09371
3362.28548	0.09367
3360.99971	0.09344
3359.71394	0.09327
3358.42818	0.09334
3357.14241	0.09355
3355.85664	0.09365
3354.57087	0.09357
3353.28510	0.09352
3351.99933	0.09368
3350.71356	0.09398
3349.42779	0.09411
3348.14202	0.09387
3346.85626	0.09340
3345.57049	0.09302
3344.28472	0.09296
3342.99895	0.09322
3341.71318	0.09361
3340.42741	0.09393
3339.14164	0.09403
3337.85587	0.09389
3336.57011	0.09360
3335.28434	0.09330
3333.99857	0.09314
3332.71280	0.09325
3331.42703	0.09366
3330.14126	0.09413
3328.85549	0.09426
3327.56972	0.09376
3326.28395	0.09289
3324.99819	0.09220
3323.71242	0.09210
3322.42665	0.09248
3321.14088	0.09291
3319.85511	0.09305
3318.56934	0.09282
3317.28357	0.09239
3315.99780	0.09201
3314.71204	0.09184
3313.42627	0.09188
3312.14050	0.09207
3310.85473	0.09244
3309.56896	0.09303
3308.28319	0.09378
3306.99742	0.09446
3305.71165	0.09481
3304.42588	0.09468
3303.14012	0.09417
3301.85435	0.09349
3300.56858	0.09291
3299.28281	0.09255
3297.99704	0.09244
3296.71127	0.09249
3295.42550	0.09271
3294.13973	0.09317
3292.85397	0.09384
3291.56820	0.09443
3290.28243	0.09461
3288.99666	0.09428
3287.71089	0.09371
3286.42512	0.09319
3285.13935	0.09285
3283.85358	0.09268
3282.56781	0.09260
3281.28205	0.09255
3279.99628	0.09251
3278.71051	0.09252
3277.42474	0.09260
3276.13897	0.09276
3274.85320	0.09297
3273.56743	0.09314
3272.28166	0.09320
3270.99590	0.09309
3269.71013	0.09286
3268.42436	0.09268
3267.13859	0.09262
3265.85282	0.09266
3264.56705	0.09265
3263.28128	0.09252
3261.99551	0.09227
3260.70974	0.09201
3259.42398	0.09194
3258.13821	0.09214
3256.85244	0.09249
3255.56667	0.09270
3254.28090	0.09262
3252.99513	0.09237
3251.70936	0.09214
3250.42359	0.09200
3249.13783	0.09184
3247.85206	0.09164
3246.56629	0.09150
3245.28052	0.09149
3243.99475	0.09151
3242.70898	0.09138
3241.42321	0.09109
3240.13744	0.09076
3238.85167	0.09055
3237.56591	0.09049
3236.28014	0.09051
3234.99437	0.09050
3233.70860	0.09037
3232.42283	0.09015
3231.13706	0.08998
3229.85129	0.08994
3228.56552	0.09006
3227.27976	0.09025
3225.99399	0.09047
3224.70822	0.09067
3223.42245	0.09078
3222.13668	0.09078
3220.85091	0.09070
3219.56514	0.09067
3218.27937	0.09075
3216.99360	0.09087
3215.70784	0.09091
3214.42207	0.09076
3213.13630	0.09044
3211.85053	0.09007
3210.56476	0.08979
3209.27899	0.08967
3207.99322	0.08970
3206.70745	0.08980
3205.42169	0.08994
3204.13592	0.09010
3202.85015	0.09019
3201.56438	0.09014
3200.27861	0.08995
3198.99284	0.08975
3197.70707	0.08961
3196.42130	0.08949
3195.13553	0.08931
3193.84977	0.08910
3192.56400	0.08898
3191.27823	0.08901
3189.99246	0.08904
3188.70669	0.08893
3187.42092	0.08871
3186.13515	0.08853
3184.84938	0.08850
3183.56362	0.08861
3182.27785	0.08882
3180.99208	0.08901
3179.70631	0.08902
3178.42054	0.08880
3177.13477	0.08847
3175.84900	0.08829
3174.56323	0.08841
3173.27746	0.08871
3171.99170	0.08899
3170.70593	0.08913
3169.42016	0.08916
3168.13439	0.08915
3166.84862	0.08907
3165.56285	0.08886
3164.27708	0.08846
3162.99131	0.08797
3161.70555	0.08748
3160.41978	0.08708
3159.13401	0.08679
3157.84824	0.08657
3156.56247	0.08643
3155.27670	0.08646
3153.99093	0.08678
3152.70516	0.08735
3151.41939	0.08788
3150.13363	0.08817
3148.84786	0.08815
3147.56209	0.08789
3146.27632	0.08741
3144.99055	0.08676
3143.70478	0.08612
3142.41901	0.08574
3141.13324	0.08570
3139.84748	0.08592
3138.56171	0.08624
3137.27594	0.08654
3135.99017	0.08675
3134.70440	0.08687
3133.41863	0.08686
3132.13286	0.08669
3130.84709	0.08637
3129.56132	0.08596
3128.27556	0.08551
3126.98979	0.08501
3125.70402	0.08442
3124.41825	0.08383
3123.13248	0.08345
3121.84671	0.08341
3120.56094	0.08363
3119.27517	0.08387
3117.98940	0.08396
3116.70364	0.08386
3115.41787	0.08364
3114.13210	0.08331
3112.84633	0.08292
3111.56056	0.08259
3110.27479	0.08251
3108.98902	0.08273
3107.70325	0.08301
3106.41749	0.08308
3105.13172	0.08286
3103.84595	0.08253
3102.56018	0.08232
3101.27441	0.08226
3099.98864	0.08224
3098.70287	0.08212
3097.41710	0.08184
3096.13133	0.08152
3094.84557	0.08133
3093.55980	0.08141
3092.27403	0.08179
3090.98826	0.08230
3089.70249	0.08275
3088.41672	0.08303
3087.13095	0.08314
3085.84518	0.08314
3084.55942	0.08303
3083.27365	0.08283
3081.98788	0.08257
3080.70211	0.08232
3079.41634	0.08202
3078.13057	0.08165
3076.84480	0.08123
3075.55903	0.08089
3074.27326	0.08072
3072.98750	0.08076
3071.70173	0.08100
3070.41596	0.08142
3069.13019	0.08198
3067.84442	0.08251
3066.55865	0.08278
3065.27288	0.08262
3063.98711	0.08209
3062.70135	0.08147
3061.41558	0.08102
3060.12981	0.08078
3058.84404	0.08065
3057.55827	0.08056
3056.27250	0.08054
3054.98673	0.08058
3053.70096	0.08065
3052.41519	0.08068
3051.12943	0.08062
3049.84366	0.08045
3048.55789	0.08015
3047.27212	0.07979
3045.98635	0.07946
3044.70058	0.07927
3043.41481	0.07920
3042.12904	0.07920
3040.84328	0.07924
3039.55751	0.07930
3038.27174	0.07941
3036.98597	0.07956
3035.70020	0.07968
3034.41443	0.07964
3033.12866	0.07939
3031.84289	0.07900
3030.55712	0.07860
3029.27136	0.07824
3027.98559	0.07793
3026.69982	0.07773
3025.41405	0.07770
3024.12828	0.07779
3022.84251	0.07789
3021.55674	0.07791
3020.27097	0.07782
3018.98521	0.07764
3017.69944	0.07743
3016.41367	0.07722
3015.12790	0.07697
3013.84213	0.07667
3012.55636	0.07638
3011.27059	0.07619
3009.98482	0.07618
3008.69905	0.07621
3007.41329	0.07614
3006.12752	0.07589
3004.84175	0.07558
3003.55598	0.07533
3002.27021	0.07522
3000.98444	0.07526
2999.69867	0.07543
2998.41290	0.07569
2997.12714	0.07585
2995.84137	0.07579
2994.55560	0.07553
2993.26983	0.07519
2991.98406	0.07489
2990.69829	0.07477
2989.41252	0.07492
2988.12675	0.07541
2986.84098	0.07612
2985.55522	0.07682
2984.26945	0.07728
2982.98368	0.07749
2981.69791	0.07763
2980.41214	0.07800
2979.12637	0.07870
2977.84060	0.07964
2976.55483	0.08071
2975.26907	0.08194
2973.98330	0.08344
2972.69753	0.08520
2971.41176	0.08704
2970.12599	0.08878
2968.84022	0.09046
2967.55445	0.09228
2966.26868	0.09438
2964.98291	0.09666
2963.69715	0.09885
2962.41138	0.10074
2961.12561	0.10242
2959.83984	0.10409
2958.55407	0.10586
2957.26830	0.10762
2955.98253	0.10925
2954.69676	0.11063
2953.41100	0.11174
2952.12523	0.11258
2950.83946	0.11313
2949.55369	0.11346
2948.26792	0.11365
2946.98215	0.11382
2945.69638	0.11397
2944.41061	0.11404
2943.12484	0.11397
2941.83908	0.11391
2940.55331	0.11407
2939.26754	0.11462
2937.98177	0.11561
2936.69600	0.11705
2935.41023	0.11888
2934.12446	0.12094
2932.83869	0.12305
2931.55293	0.12512
2930.26716	0.12713
2928.98139	0.12902
2927.69562	0.13066
2926.40985	0.13196
2925.12408	0.13291
2923.83831	0.13359
2922.55254	0.13406
2921.26677	0.13427
2919.98101	0.13409
2918.69524	0.13347
2917.40947	0.13244
2916.12370	0.13111
2914.83793	0.12959
2913.55216	0.12798
2912.26639	0.12644
2910.98062	0.12507
2909.69486	0.12381
2908.40909	0.12257
2907.12332	0.12135
2905.83755	0.12021
2904.55178	0.11914
2903.26601	0.11811
2901.98024	0.11710
2900.69447	0.11607
2899.40870	0.11504
2898.12294	0.11400
2896.83717	0.11293
2895.55140	0.11179
2894.26563	0.11057
2892.97986	0.10929
2891.69409	0.10804
2890.40832	0.10691
2889.12255	0.10590
2887.83678	0.10496
2886.55102	0.10399
2885.26525	0.10295
2883.97948	0.10185
2882.69371	0.10080
2881.40794	0.09995
2880.12217	0.09955
2878.83640	0.09973
2877.55063	0.10038
2876.26487	0.10123
2874.97910	0.10207
2873.69333	0.10293
2872.40756	0.10389
2871.12179	0.10490
2869.83602	0.10581
2868.55025	0.10647
2867.26448	0.10688
2865.97871	0.10712
2864.69295	0.10734
2863.40718	0.10751
2862.12141	0.10757
2860.83564	0.10752
2859.54987	0.10756
2858.26410	0.10790
2856.97833	0.10849
2855.69256	0.10905
2854.40680	0.10925
2853.12103	0.10898
2851.83526	0.10829
2850.54949	0.10739
2849.26372	0.10647
2847.97795	0.10556
2846.69218	0.10457
2845.40641	0.10335
2844.12064	0.10186
2842.83488	0.10014
2841.54911	0.09831
2840.26334	0.09653
2838.97757	0.09490
2837.69180	0.09345
2836.40603	0.09208
2835.12026	0.09065
2833.83449	0.08908
2832.54873	0.08739
2831.26296	0.08571
2829.97719	0.08424
2828.69142	0.08312
2827.40565	0.08236
2826.11988	0.08180
2824.83411	0.08121
2823.54834	0.08044
2822.26257	0.07953
2820.97681	0.07864
2819.69104	0.07788
2818.40527	0.07730
2817.11950	0.07691
2815.83373	0.07668
2814.54796	0.07656
2813.26219	0.07643
2811.97642	0.07620
2810.69066	0.07586
2809.40489	0.07545
2808.11912	0.07510
2806.83335	0.07490
2805.54758	0.07478
2804.26181	0.07458
2802.97604	0.07421
2801.69027	0.07376
2800.40450	0.07336
2799.11874	0.07301
2797.83297	0.07266
2796.54720	0.07230
2795.26143	0.07200
2793.97566	0.07179
2792.68989	0.07166
2791.40412	0.07153
2790.11835	0.07128
2788.83259	0.07092
2787.54682	0.07056
2786.26105	0.07034
2784.97528	0.07030
2783.68951	0.07031
2782.40374	0.07029
2781.11797	0.07021
2779.83220	0.07006
2778.54643	0.06988
2777.26067	0.06970
2775.97490	0.06951
2774.68913	0.06925
2773.40336	0.06894
2772.11759	0.06866
2770.83182	0.06852
2769.54605	0.06851
2768.26028	0.06851
2766.97452	0.06845
2765.68875	0.06829
2764.40298	0.06807
2763.11721	0.06784
2761.83144	0.06763
2760.54567	0.06750
2759.25990	0.06745
2757.97413	0.06745
2756.68836	0.06738
2755.40260	0.06720
2754.11683	0.06696
2752.83106	0.06676
2751.54529	0.06661
2750.25952	0.06647
2748.97375	0.06630
2747.68798	0.06609
2746.40221	0.06585
2745.11645	0.06568
2743.83068	0.06567
2742.54491	0.06583
2741.25914	0.06604
2739.97337	0.06613
2738.68760	0.06603
2737.40183	0.06578
2736.11606	0.06555
2734.83029	0.06547
2733.54453	0.06557
2732.25876	0.06574
2730.97299	0.06581
2729.68722	0.06568
2728.40145	0.06541
2727.11568	0.06511
2725.82991	0.06484
2724.54414	0.06461
2723.25838	0.06445
2721.97261	0.06438
2720.68684	0.06436
2719.40107	0.06435
2718.11530	0.06433
2716.82953	0.06435
2715.54376	0.06439
2714.25799	0.06445
2712.97222	0.06449
2711.68646	0.06446
2710.40069	0.06431
2709.11492	0.06406
2707.82915	0.06374
2706.54338	0.06342
2705.25761	0.06317
2703.97184	0.06302
2702.68607	0.06295
2701.40031	0.06293
2700.11454	0.06297
2698.82877	0.06310
2697.54300	0.06327
2696.25723	0.06334
2694.97146	0.06326
2693.68569	0.06308
2692.39992	0.06289
2691.11415	0.06271
2689.82839	0.06252
2688.54262	0.06236
2687.25685	0.06222
2685.97108	0.06214
2684.68531	0.06212
2683.39954	0.06213
2682.11377	0.06211
2680.82800	0.06199
2679.54224	0.06184
2678.25647	0.06172
2676.97070	0.06168
2675.68493	0.06164
2674.39916	0.06155
2673.11339	0.06140
2671.82762	0.06123
2670.54185	0.06107
2669.25608	0.06097
2667.97032	0.06091
2666.68455	0.06088
2665.39878	0.06079
2664.11301	0.06060
2662.82724	0.06038
2661.54147	0.06022
2660.25570	0.06011
2658.96993	0.05996
2657.68417	0.05976
2656.39840	0.05961
2655.11263	0.05960
2653.82686	0.05963
2652.54109	0.05959
2651.25532	0.05944
2649.96955	0.05924
2648.68378	0.05906
2647.39801	0.05896
2646.11225	0.05891
2644.82648	0.05884
2643.54071	0.05867
2642.25494	0.05836
2640.96917	0.05801
2639.68340	0.05768
2638.39763	0.05740
2637.11186	0.05716
2635.82609	0.05692
2634.54033	0.05663
2633.25456	0.05629
2631.96879	0.05590
2630.68302	0.05552
2629.39725	0.05520
2628.11148	0.05500
2626.82571	0.05498
2625.53994	0.05515
2624.25418	0.05539
2622.96841	0.05549
2621.68264	0.05528
2620.39687	0.05482
2619.11110	0.05436
2617.82533	0.05409
2616.53956	0.05402
2615.25379	0.05392
2613.96802	0.05362
2612.68226	0.05317
2611.39649	0.05277
2610.11072	0.05263
2608.82495	0.05282
2607.53918	0.05324
2606.25341	0.05364
2604.96764	0.05371
2603.68187	0.05331
2602.39611	0.05260
2601.11034	0.05195
2599.82457	0.05160
2598.53880	0.05146
2597.25303	0.05129
2595.96726	0.05107
2594.68149	0.05098
2593.39572	0.05110
2592.10995	0.05126
2590.82419	0.05128
2589.53842	0.05118
2588.25265	0.05109
2586.96688	0.05101
2585.68111	0.05088
2584.39534	0.05076
2583.10957	0.05081
2581.82380	0.05102
2580.53804	0.05124
2579.25227	0.05132
2577.96650	0.05126
2576.68073	0.05111
2575.39496	0.05088
2574.10919	0.05058
2572.82342	0.05022
2571.53765	0.04972
2570.25188	0.04911
2568.96612	0.04863
2567.68035	0.04855
2566.39458	0.04888
2565.10881	0.04931
2563.82304	0.04954
2562.53727	0.04951
2561.25150	0.04936
2559.96573	0.04921
2558.67997	0.04912
2557.39420	0.04909
2556.10843	0.04909
2554.82266	0.04905
2553.53689	0.04887
2552.25112	0.04852
2550.96535	0.04810
2549.67958	0.04773
2548.39381	0.04744
2547.10805	0.04724
2545.82228	0.04720
2544.53651	0.04734
2543.25074	0.04759
2541.96497	0.04786
2540.67920	0.04814
2539.39343	0.04837
2538.10766	0.04841
2536.82190	0.04820
2535.53613	0.04789
2534.25036	0.04766
2532.96459	0.04752
2531.67882	0.04739
2530.39305	0.04717
2529.10728	0.04691
2527.82151	0.04670
2526.53574	0.04656
2525.24998	0.04649
2523.96421	0.04648
2522.67844	0.04648
2521.39267	0.04643
2520.10690	0.04629
2518.82113	0.04617
2517.53536	0.04619
2516.24959	0.04625
2514.96383	0.04623
2513.67806	0.04611
2512.39229	0.04596
2511.10652	0.04579
2509.82075	0.04559
2508.53498	0.04543
2507.24921	0.04542
2505.96344	0.04562
2504.67767	0.04598
2503.39191	0.04642
2502.10614	0.04681
2500.82037	0.04700
2499.53460	0.04689
2498.24883	0.04654
2496.96306	0.04613
2495.67729	0.04580
2494.39152	0.04555
2493.10576	0.04525
2491.81999	0.04483
2490.53422	0.04441
2489.24845	0.04424
2487.96268	0.04445
2486.67691	0.04487
2485.39114	0.04519
2484.10537	0.04525
2482.81960	0.04518
2481.53384	0.04515
2480.24807	0.04513
2478.96230	0.04498
2477.67653	0.04474
2476.39076	0.04458
2475.10499	0.04463
2473.81922	0.04480
2472.53345	0.04496
2471.24769	0.04504
2469.96192	0.04501
2468.67615	0.04493
2467.39038	0.04492
2466.10461	0.04511
2464.81884	0.04545
2463.53307	0.04577
2462.24730	0.04593
2460.96153	0.04603
2459.67577	0.04614
2458.39000	0.04622
2457.10423	0.04609
2455.81846	0.04577
2454.53269	0.04540
2453.24692	0.04508
2451.96115	0.04481
2450.67538	0.04457
2449.38962	0.04435
2448.10385	0.04418
2446.81808	0.04412
2445.53231	0.04416
2444.24654	0.04422
2442.96077	0.04417
2441.67500	0.04402
2440.38923	0.04391
2439.10346	0.04391
2437.81770	0.04390
2436.53193	0.04381
2435.24616	0.04376
2433.96039	0.04384
2432.67462	0.04397
2431.38885	0.04397
2430.10308	0.04383
2428.81731	0.04361
2427.53155	0.04334
2426.24578	0.04304
2424.96001	0.04276
2423.67424	0.04261
2422.38847	0.04258
2421.10270	0.04257
2419.81693	0.04253
2418.53116	0.04254
2417.24539	0.04263
2415.95963	0.04274
2414.67386	0.04278
2413.38809	0.04282
2412.10232	0.04300
2410.81655	0.04334
2409.53078	0.04360
2408.24501	0.04350
2406.95924	0.04302
2405.67347	0.04241
2404.38771	0.04194
2403.10194	0.04166
2401.81617	0.04150
2400.53040	0.04143
2399.24463	0.04149
2397.95886	0.04171
2396.67309	0.04195
2395.38732	0.04213
2394.10156	0.04225
2392.81579	0.04238
2391.53002	0.04252
2390.24425	0.04254
2388.95848	0.04239
2387.67271	0.04214
2386.38694	0.04197
2385.10117	0.04202
2383.81540	0.04230
2382.52964	0.04274
2381.24387	0.04315
2379.95810	0.04335
2378.67233	0.04334
2377.38656	0.04326
2376.10079	0.04322
2374.81502	0.04323
2373.52925	0.04318
2372.24349	0.04300
2370.95772	0.04269
2369.67195	0.04240
2368.38618	0.04227
2367.10041	0.04234
2365.81464	0.04260
2364.52887	0.04299
2363.24310	0.04340
2361.95733	0.04368
2360.67157	0.04370
2359.38580	0.04358
2358.10003	0.04346
2356.81426	0.04339
2355.52849	0.04335
2354.24272	0.04334
2352.95695	0.04335
2351.67118	0.04333
2350.38542	0.04334
2349.09965	0.04345
2347.81388	0.04353
2346.52811	0.04339
2345.24234	0.04326
2343.95657	0.04351
2342.67080	0.04401
2341.38503	0.04411
2340.09926	0.04380
2338.81350	0.04387
2337.52773	0.04435
2336.24196	0.04427
2334.95619	0.04376
2333.67042	0.04379
2332.38465	0.04410
2331.09888	0.04368
2329.81311	0.04317
2328.52735	0.04332
2327.24158	0.04330
2325.95581	0.04333
2324.67004	0.04398
2323.38427	0.04434
2322.09850	0.04402
2320.81273	0.04372
2319.52696	0.04319
2318.24119	0.04264
2316.95543	0.04245
2315.66966	0.04223
2314.38389	0.04194
2313.09812	0.04177
2311.81235	0.04151
2310.52658	0.04129
2309.24081	0.04109
2307.95504	0.04080
2306.66928	0.04050
2305.38351	0.04010
2304.09774	0.03972
2302.81197	0.03948
2301.52620	0.03935
2300.24043	0.03932
2298.95466	0.03936
2297.66889	0.03948
2296.38312	0.03960
2295.09736	0.03954
2293.81159	0.03922
2292.52582	0.03869
2291.24005	0.03815
2289.95428	0.03782
2288.66851	0.03780
2287.38274	0.03807
2286.09697	0.03847
2284.81121	0.03868
2283.52544	0.03836
2282.23967	0.03749
2280.95390	0.03642
2279.66813	0.03567
2278.38236	0.03549
2277.09659	0.03570
2275.81082	0.03598
2274.52505	0.03615
2273.23929	0.03622
2271.95352	0.03614
2270.66775	0.03587
2269.38198	0.03544
2268.09621	0.03510
2266.81044	0.03507
2265.52467	0.03532
2264.23890	0.03562
2262.95314	0.03569
2261.66737	0.03542
2260.38160	0.03487
2259.09583	0.03419
2257.81006	0.03352
2256.52429	0.03299
2255.23852	0.03268
2253.95275	0.03263
2252.66698	0.03279
2251.38122	0.03292
2250.09545	0.03274
2248.80968	0.03215
2247.52391	0.03124
2246.23814	0.03080
2244.95237	0.03111
2243.66660	0.03171
2242.38083	0.03188
2241.09507	0.03138
2239.80930	0.03067
2238.52353	0.03031
2237.23776	0.03035
2235.95199	0.03045
2234.66622	0.03035
2233.38045	0.03006
2232.09468	0.02961
2230.80891	0.02899
2229.52315	0.02841
2228.23738	0.02825
2226.95161	0.02857
2225.66584	0.02893
2224.38007	0.02895
2223.09430	0.02878
2221.80853	0.02875
2220.52276	0.02881
2219.23700	0.02859
2217.95123	0.02799
2216.66546	0.02735
2215.37969	0.02705
2214.09392	0.02714
2212.80815	0.02737
2211.52238	0.02747
2210.23661	0.02734
2208.95084	0.02712
2207.66508	0.02707
2206.37931	0.02733
2205.09354	0.02776
2203.80777	0.02801
2202.52200	0.02791
2201.23623	0.02765
2199.95046	0.02744
2198.66469	0.02712
2197.37893	0.02637
2196.09316	0.02527
2194.80739	0.02433
2193.52162	0.02395
2192.23585	0.02402
2190.95008	0.02412
2189.66431	0.02393
2188.37854	0.02353
2187.09277	0.02330
2185.80701	0.02340
2184.52124	0.02351
2183.23547	0.02295
2181.94970	0.02142
2180.66393	0.01950
2179.37816	0.01821
2178.09239	0.01817
2176.80662	0.01906
2175.52085	0.02001
2174.23509	0.02041
2172.94932	0.02024
2171.66355	0.01984
2170.37778	0.01943
2169.09201	0.01919
2167.80624	0.01942
2166.52047	0.02034
2165.23470	0.02157
2163.94894	0.02205
2162.66317	0.02081
2161.37740	0.01795
2160.09163	0.01483
2158.80586	0.01310
2157.52009	0.01325
2156.23432	0.01445
2154.94855	0.01578
2153.66278	0.01695
2152.37702	0.01794
2151.09125	0.01853
2149.80548	0.01853
2148.51971	0.01819
2147.23394	0.01796
2145.94817	0.01809
2144.66240	0.01843
2143.37663	0.01883
2142.09087	0.01931
2140.80510	0.01995
2139.51933	0.02073
2138.23356	0.02167
2136.94779	0.02282
2135.66202	0.02399
2134.37625	0.02470
2133.09048	0.02462
2131.80471	0.02389
2130.51895	0.02307
2129.23318	0.02267
2127.94741	0.02290
2126.66164	0.02363
2125.37587	0.02457
2124.09010	0.02541
2122.80433	0.02600
2121.51856	0.02638
2120.23280	0.02663
2118.94703	0.02677
2117.66126	0.02679
2116.37549	0.02665
2115.08972	0.02635
2113.80395	0.02585
2112.51818	0.02524
2111.23241	0.02475
2109.94664	0.02449
2108.66088	0.02434
2107.37511	0.02417
2106.08934	0.02405
2104.80357	0.02415
2103.51780	0.02448
2102.23203	0.02478
2100.94626	0.02480
2099.66049	0.02378
2098.37473	0.02318
2097.08896	0.02310
2095.80319	0.02316
2094.51742	0.02319
2093.23165	0.02321
2091.94588	0.02340
2090.66011	0.02390
2089.37434	0.02463
2088.08857	0.02519
2086.80281	0.02515
2085.51704	0.02440
2084.23127	0.02335
2082.94550	0.02252
2081.65973	0.02216
2080.37396	0.02218
2079.08819	0.02242
2077.80242	0.02268
2076.51666	0.02276
2075.23089	0.02249
2073.94512	0.02200
2072.65935	0.02151
2071.37358	0.02108
2070.08781	0.02057
2068.80204	0.01992
2067.51627	0.01924
2066.23050	0.01866
2064.94474	0.01823
2063.65897	0.01798
2062.37320	0.01807
2061.08743	0.01858
2059.80166	0.01927
2058.51589	0.01964
2057.23012	0.01944
2055.94435	0.01893
2054.65859	0.01854
2053.37282	0.01840
2052.08705	0.01825
2050.80128	0.01786
2049.51551	0.01736
2048.22974	0.01693
2046.94397	0.01646
2045.65820	0.01563
2044.37243	0.01453
2043.08667	0.01364
2041.80090	0.01338
2040.51513	0.01355
2039.22936	0.01357
2037.94359	0.01313
2036.65782	0.01238
2035.37205	0.01170
2034.08628	0.01119
2032.80052	0.01066
2031.51475	0.01006
2030.22898	0.00978
2028.94321	0.01034
2027.65744	0.01178
2026.37167	0.01348
2025.08590	0.01459
2023.80013	0.01477
2022.51436	0.01429
2021.22860	0.01354
2019.94283	0.01266
2018.65706	0.01172
2017.37129	0.01111
2016.08552	0.01132
2014.79975	0.01235
2013.51398	0.01349
2012.22821	0.01382
2010.94245	0.01299
2009.65668	0.01144
2008.37091	0.01010
2007.08514	0.00973
2005.79937	0.01061
2004.51360	0.01252
2003.22783	0.01495
2001.94206	0.01720
2000.65629	0.01862
1999.37053	0.01897
1998.08476	0.01861
1996.79899	0.01807
1995.51322	0.01758
1994.22745	0.01708
1992.94168	0.01658
1991.65591	0.01631
1990.37014	0.01656
1989.08438	0.01729
1987.79861	0.01806
1986.51284	0.01841
1985.22707	0.01827
1983.94130	0.01785
1982.65553	0.01715
1981.36976	0.01585
1980.08399	0.01387
1978.79822	0.01180
1977.51246	0.01045
1976.22669	0.01017
1974.94092	0.01068
1973.65515	0.01145
1972.36938	0.01207
1971.08361	0.01244
1969.79784	0.01280
1968.51207	0.01347
1967.22631	0.01446
1965.94054	0.01542
1964.65477	0.01598
1963.36900	0.01618
1962.08323	0.01642
1960.79746	0.01704
1959.51169	0.01799
1958.22592	0.01887
1956.94015	0.01931
1955.65439	0.01923
1954.36862	0.01884
1953.08285	0.01846
1951.79708	0.01834
1950.51131	0.01849
1949.22554	0.01876
1947.93977	0.01899
1946.65400	0.01913
1945.36823	0.01922
1944.08247	0.01934
1942.79670	0.01965
1941.51093	0.02025
1940.22516	0.02104
1938.93939	0.02169
1937.65362	0.02190
1936.36785	0.02168
1935.08208	0.02131
1933.79632	0.02107
1932.51055	0.02099
1931.22478	0.02101
1929.93901	0.02110
1928.65324	0.02127
1927.36747	0.02157
1926.08170	0.02203
1924.79593	0.02262
1923.51016	0.02309
1922.22440	0.02320
1920.93863	0.02296
1919.65286	0.02270
1918.36709	0.02268
1917.08132	0.02293
1915.79555	0.02327
1914.50978	0.02354
1913.22401	0.02371
1911.93825	0.02386
1910.65248	0.02408
1909.36671	0.02435
1908.08094	0.02450
1906.79517	0.02442
1905.50940	0.02417
1904.22363	0.02393
1902.93786	0.02385
1901.65209	0.02391
1900.36633	0.02401
1899.08056	0.02404
1897.79479	0.02405
1896.50902	0.02406
1895.22325	0.02407
1893.93748	0.02399
1892.65171	0.02380
1891.36594	0.02359
1890.08018	0.02338
1888.79441	0.02316
1887.50864	0.02291
1886.22287	0.02276
1884.93710	0.02281
1883.65133	0.02304
1882.36556	0.02333
1881.07979	0.02364
1879.79402	0.02400
1878.50826	0.02440
1877.22249	0.02473
1875.93672	0.02487
1874.65095	0.02476
1873.36518	0.02449
1872.07941	0.02417
1870.79364	0.02396
1869.50787	0.02394
1868.22211	0.02411
1866.93634	0.02439
1865.65057	0.02461
1864.36480	0.02464
1863.07903	0.02449
1861.79326	0.02429
1860.50749	0.02417
1859.22172	0.02414
1857.93595	0.02416
1856.65019	0.02418
1855.36442	0.02423
1854.07865	0.02431
1852.79288	0.02437
1851.50711	0.02436
1850.22134	0.02432
1848.93557	0.02432
1847.64980	0.02438
1846.36404	0.02442
1845.07827	0.02439
1843.79250	0.02432
1842.50673	0.02434
1841.22096	0.02453
1839.93519	0.02478
1838.64942	0.02491
1837.36365	0.02489
1836.07788	0.02483
1834.79212	0.02485
1833.50635	0.02493
1832.22058	0.02492
1830.93481	0.02475
1829.64904	0.02453
1828.36327	0.02448
1827.07750	0.02468
1825.79173	0.02503
1824.50597	0.02527
1823.22020	0.02527
1821.93443	0.02507
1820.64866	0.02484
1819.36289	0.02471
1818.07712	0.02479
1816.79135	0.02506
1815.50558	0.02541
1814.21981	0.02571
1812.93405	0.02584
1811.64828	0.02579
1810.36251	0.02566
1809.07674	0.02556
1807.79097	0.02556
1806.50520	0.02562
1805.21943	0.02567
1803.93366	0.02565
1802.64790	0.02564
1801.36213	0.02569
1800.07636	0.02578
1798.79059	0.02587
1797.50482	0.02589
1796.21905	0.02583
1794.93328	0.02572
1793.64751	0.02562
1792.36174	0.02558
1791.07598	0.02561
1789.79021	0.02571
1788.50444	0.02581
1787.21867	0.02584
1785.93290	0.02579
1784.64713	0.02575
1783.36136	0.02579
1782.07559	0.02591
1780.78983	0.02606
1779.50406	0.02617
1778.21829	0.02621
1776.93252	0.02619
1775.64675	0.02611
1774.36098	0.02606
1773.07521	0.02605
1771.78944	0.02610
1770.50367	0.02622
1769.21791	0.02641
1767.93214	0.02663
1766.64637	0.02682
1765.36060	0.02697
1764.07483	0.02713
1762.78906	0.02726
1761.50329	0.02732
1760.21752	0.02728
1758.93176	0.02720
1757.64599	0.02717
1756.36022	0.02719
1755.07445	0.02723
1753.78868	0.02726
1752.50291	0.02726
1751.21714	0.02719
1749.93137	0.02707
1748.64560	0.02696
1747.35984	0.02693
1746.07407	0.02698
1744.78830	0.02705
1743.50253	0.02713
1742.21676	0.02719
1740.93099	0.02726
1739.64522	0.02734
1738.35945	0.02738
1737.07369	0.02743
1735.78792	0.02757
1734.50215	0.02777
1733.21638	0.02795
1731.93061	0.02808
1730.64484	0.02823
1729.35907	0.02843
1728.07330	0.02863
1726.78753	0.02879
1725.50177	0.02890
1724.21600	0.02894
1722.93023	0.02893
1721.64446	0.02892
1720.35869	0.02895
1719.07292	0.02903
1717.78715	0.02915
1716.50138	0.02933
1715.21561	0.02967
1713.92985	0.03015
1712.64408	0.03068
1711.35831	0.03113
1710.07254	0.03147
1708.78677	0.03177
1707.50100	0.03206
1706.21523	0.03233
1704.92946	0.03251
1703.64370	0.03260
1702.35793	0.03272
1701.07216	0.03291
1699.78639	0.03308
1698.50062	0.03327
1697.21485	0.03357
1695.92908	0.03395
1694.64331	0.03429
1693.35754	0.03456
1692.07178	0.03483
1690.78601	0.03502
1689.50024	0.03506
1688.21447	0.03497
1686.92870	0.03489
1685.64293	0.03494
1684.35716	0.03508
1683.07139	0.03529
1681.78563	0.03558
1680.49986	0.03594
1679.21409	0.03625
1677.92832	0.03647
1676.64255	0.03664
1675.35678	0.03678
1674.07101	0.03689
1672.78524	0.03702
1671.49947	0.03720
1670.21371	0.03742
1668.92794	0.03767
1667.64217	0.03794
1666.35640	0.03827
1665.07063	0.03863
1663.78486	0.03895
1662.49909	0.03918
1661.21332	0.03936
1659.92756	0.03954
1658.64179	0.03970
1657.35602	0.03978
1656.07025	0.03980
1654.78448	0.03986
1653.49871	0.03997
1652.21294	0.04004
1650.92717	0.04010
1649.64140	0.04026
1648.35564	0.04055
1647.06987	0.04086
1645.78410	0.04108
1644.49833	0.04119
1643.21256	0.04123
1641.92679	0.04124
1640.64102	0.04122
1639.35525	0.04117
1638.06949	0.04111
1636.78372	0.04107
1635.49795	0.04105
1634.21218	0.04107
1632.92641	0.04119
1631.64064	0.04142
1630.35487	0.04167
1629.06910	0.04185
1627.78333	0.04193
1626.49757	0.04197
1625.21180	0.04206
1623.92603	0.04218
1622.64026	0.04226
1621.35449	0.04229
1620.06872	0.04233
1618.78295	0.04246
1617.49718	0.04267
1616.21142	0.04288
1614.92565	0.04305
1613.63988	0.04325
1612.35411	0.04350
1611.06834	0.04375
1609.78257	0.04395
1608.49680	0.04408
1607.21103	0.04421
1605.92526	0.04436
1604.63950	0.04457
1603.35373	0.04480
1602.06796	0.04505
1600.78219	0.04531
1599.49642	0.04556
1598.21065	0.04578
1596.92488	0.04597
1595.63911	0.04619
1594.35335	0.04645
1593.06758	0.04672
1591.78181	0.04699
1590.49604	0.04722
1589.21027	0.04745
1587.92450	0.04768
1586.63873	0.04793
1585.35296	0.04818
1584.06719	0.04844
1582.78143	0.04872
1581.49566	0.04903
1580.20989	0.04937
1578.92412	0.04972
1577.63835	0.05010
1576.35258	0.05050
1575.06681	0.05094
1573.78104	0.05145
1572.49528	0.05206
1571.20951	0.05265
1569.92374	0.05313
1568.63797	0.05350
1567.35220	0.05386
1566.06643	0.05427
1564.78066	0.05469
1563.49489	0.05500
1562.20912	0.05524
1560.92336	0.05552
1559.63759	0.05591
1558.35182	0.05634
1557.06605	0.05681
1555.78028	0.05734
1554.49451	0.05791
1553.20874	0.05841
1551.92297	0.05881
1550.63721	0.05911
1549.35144	0.05930
1548.06567	0.05941
1546.77990	0.05948
1545.49413	0.05950
1544.20836	0.05939
1542.92259	0.05916
1541.63682	0.05888
1540.35105	0.05865
1539.06529	0.05846
1537.77952	0.05828
1536.49375	0.05814
1535.20798	0.05809
1533.92221	0.05809
1532.63644	0.05808
1531.35067	0.05808
1530.06490	0.05813
1528.77914	0.05827
1527.49337	0.05851
1526.20760	0.05881
1524.92183	0.05914
1523.63606	0.05954
1522.35029	0.06004
1521.06452	0.06063
1519.77875	0.06130
1518.49298	0.06209
1517.20722	0.06300
1515.92145	0.06394
1514.63568	0.06490
1513.34991	0.06592
1512.06414	0.06702
1510.77837	0.06815
1509.49260	0.06934
1508.20683	0.07059
1506.92107	0.07188
1505.63530	0.07316
1504.34953	0.07440
1503.06376	0.07560
1501.77799	0.07668
1500.49222	0.07757
1499.20645	0.07829
1497.92068	0.07895
1496.63491	0.07964
1495.34915	0.08037
1494.06338	0.08111
1492.77761	0.08186
1491.49184	0.08260
1490.20607	0.08333
1488.92030	0.08412
1487.63453	0.08505
1486.34876	0.08615
1485.06299	0.08735
1483.77723	0.08860
1482.49146	0.08984
1481.20569	0.09110
1479.91992	0.09241
1478.63415	0.09380
1477.34838	0.09520
1476.06261	0.09656
1474.77684	0.09786
1473.49108	0.09917
1472.20531	0.10050
1470.91954	0.10186
1469.63377	0.10323
1468.34800	0.10457
1467.06223	0.10582
1465.77646	0.10695
1464.49069	0.10795
1463.20492	0.10880
1461.91916	0.10955
1460.63339	0.11027
1459.34762	0.11103
1458.06185	0.11187
1456.77608	0.11275
1455.49031	0.11360
1454.20454	0.11439
1452.91877	0.11506
1451.63301	0.11553
1450.34724	0.11580
1449.06147	0.11591
1447.77570	0.11592
1446.48993	0.11580
1445.20416	0.11548
1443.91839	0.11492
1442.63262	0.11420
1441.34685	0.11341
1440.06109	0.11270
1438.77532	0.11216
1437.48955	0.11181
1436.20378	0.11166
1434.91801	0.11173
1433.63224	0.11208
1432.34647	0.11273
1431.06070	0.11368
1429.77494	0.11489
1428.48917	0.11628
1427.20340	0.11781
1425.91763	0.11943
1424.63186	0.12111
1423.34609	0.12283
1422.06032	0.12454
1420.77455	0.12619
1419.48878	0.12772
1418.20302	0.12908
1416.91725	0.13025
1415.63148	0.13122
1414.34571	0.13193
1413.05994	0.13236
1411.77417	0.13254
1410.48840	0.13251
1409.20263	0.13224
1407.91687	0.13172
1406.63110	0.13094
1405.34533	0.12991
1404.05956	0.12864
1402.77379	0.12713
1401.48802	0.12536
1400.20225	0.12337
1398.91648	0.12119
1397.63071	0.11893
1396.34495	0.11668
1395.05918	0.11444
1393.77341	0.11214
1392.48764	0.10976
1391.20187	0.10737
1389.91610	0.10508
1388.63033	0.10294
1387.34456	0.10096
1386.05880	0.09909
1384.77303	0.09733
1383.48726	0.09568
1382.20149	0.09408
1380.91572	0.09251
1379.62995	0.09091
1378.34418	0.08924
1377.05841	0.08748
1375.77264	0.08556
1374.48688	0.08342
1373.20111	0.08103
1371.91534	0.07845
1370.62957	0.07581
1369.34380	0.07330
1368.05803	0.07104
1366.77226	0.06904
1365.48649	0.06722
1364.20073	0.06548
1362.91496	0.06374
1361.62919	0.06202
1360.34342	0.06036
1359.05765	0.05885
1357.77188	0.05752
1356.48611	0.05630
1355.20034	0.05517
1353.91457	0.05411
1352.62881	0.05315
1351.34304	0.05225
1350.05727	0.05137
1348.77150	0.05048
1347.48573	0.04963
1346.19996	0.04884
1344.91419	0.04814
1343.62842	0.04749
1342.34266	0.04688
1341.05689	0.04631
1339.77112	0.04578
1338.48535	0.04525
1337.19958	0.04471
1335.91381	0.04416
1334.62804	0.04361
1333.34227	0.04312
1332.05650	0.04268
1330.77074	0.04229
1329.48497	0.04194
1328.19920	0.04161
1326.91343	0.04131
1325.62766	0.04105
1324.34189	0.04083
1323.05612	0.04064
1321.77035	0.04044
1320.48459	0.04018
1319.19882	0.03987
1317.91305	0.03954
1316.62728	0.03920
1315.34151	0.03889
1314.05574	0.03861
1312.76997	0.03838
1311.48420	0.03822
1310.19843	0.03809
1308.91267	0.03794
1307.62690	0.03771
1306.34113	0.03740
1305.05536	0.03705
1303.76959	0.03675
1302.48382	0.03649
1301.19805	0.03627
1299.91228	0.03604
1298.62652	0.03578
1297.34075	0.03552
1296.05498	0.03527
1294.76921	0.03503
1293.48344	0.03480
1292.19767	0.03457
1290.91190	0.03435
1289.62613	0.03416
1288.34036	0.03397
1287.05460	0.03377
1285.76883	0.03354
1284.48306	0.03328
1283.19729	0.03301
1281.91152	0.03277
1280.62575	0.03255
1279.33998	0.03237
1278.05421	0.03222
1276.76845	0.03209
1275.48268	0.03195
1274.19691	0.03177
1272.91114	0.03158
1271.62537	0.03139
1270.33960	0.03121
1269.05383	0.03103
1267.76806	0.03084
1266.48229	0.03063
1265.19653	0.03042
1263.91076	0.03022
1262.62499	0.03003
1261.33922	0.02987
1260.05345	0.02973
1258.76768	0.02960
1257.48191	0.02947
1256.19614	0.02933
1254.91037	0.02919
1253.62461	0.02907
1252.33884	0.02897
1251.05307	0.02886
1249.76730	0.02874
1248.48153	0.02859
1247.19576	0.02845
1245.90999	0.02831
1244.62422	0.02818
1243.33846	0.02804
1242.05269	0.02790
1240.76692	0.02777
1239.48115	0.02763
1238.19538	0.02746
1236.90961	0.02726
1235.62384	0.02707
1234.33807	0.02693
1233.05230	0.02684
1231.76654	0.02676
1230.48077	0.02664
1229.19500	0.02649
1227.90923	0.02630
1226.62346	0.02611
1225.33769	0.02594
1224.05192	0.02583
1222.76615	0.02577
1221.48039	0.02570
1220.19462	0.02559
1218.90885	0.02547
1217.62308	0.02537
1216.33731	0.02531
1215.05154	0.02527
1213.76577	0.02523
1212.48000	0.02515
1211.19423	0.02503
1209.90847	0.02488
1208.62270	0.02473
1207.33693	0.02461
1206.05116	0.02449
1204.76539	0.02435
1203.47962	0.02420
1202.19385	0.02408
1200.90808	0.02406
1199.62232	0.02416
1198.33655	0.02414
1197.05078	0.02408
1195.76501	0.02401
1194.47924	0.02393
1193.19347	0.02385
1191.90770	0.02377
1190.62193	0.02367
1189.33616	0.02353
1188.05040	0.02336
1186.76463	0.02319
1185.47886	0.02308
1184.19309	0.02305
1182.90732	0.02310
1181.62155	0.02315
1180.33578	0.02316
1179.05001	0.02315
1177.76425	0.02314
1176.47848	0.02317
1175.19271	0.02322
1173.90694	0.02329
1172.62117	0.02340
1171.33540	0.02353
1170.04963	0.02363
1168.76386	0.02372
1167.47809	0.02381
1166.19233	0.02392
1164.90656	0.02403
1163.62079	0.02413
1162.33502	0.02425
1161.04925	0.02445
1159.76348	0.02472
1158.47771	0.02501
1157.19194	0.02530
1155.90618	0.02558
1154.62041	0.02585
1153.33464	0.02613
1152.04887	0.02644
1150.76310	0.02681
1149.47733	0.02722
1148.19156	0.02765
1146.90579	0.02815
1145.62002	0.02876
1144.33426	0.02951
1143.04849	0.03033
1141.76272	0.03113
1140.47695	0.03191
1139.19118	0.03279
1137.90541	0.03386
1136.61964	0.03512
1135.33387	0.03653
1134.04811	0.03807
1132.76234	0.03976
1131.47657	0.04166
1130.19080	0.04379
1128.90503	0.04616
1127.61926	0.04875
1126.33349	0.05158
1125.04772	0.05466
1123.76195	0.05801
1122.47619	0.06161
1121.19042	0.06538
1119.90465	0.06917
1118.61888	0.07291
1117.33311	0.07661
1116.04734	0.08034
1114.76157	0.08411
1113.47580	0.08780
1112.19004	0.09134
1110.90427	0.09473
1109.61850	0.09807
1108.33273	0.10142
1107.04696	0.10469
1105.76119	0.10779
1104.47542	0.11068
1103.18965	0.11343
1101.90388	0.11609
1100.61812	0.11871
1099.33235	0.12125
1098.04658	0.12366
1096.76081	0.12588
1095.47504	0.12792
1094.18927	0.12984
1092.90350	0.13166
1091.61773	0.13338
1090.33197	0.13502
1089.04620	0.13663
1087.76043	0.13821
1086.47466	0.13973
1085.18889	0.14115
1083.90312	0.14257
1082.61735	0.14415
1081.33158	0.14595
1080.04581	0.14796
1078.76005	0.15010
1077.47428	0.15235
1076.18851	0.15473
1074.90274	0.15725
1073.61697	0.15990
1072.33120	0.16268
1071.04543	0.16553
1069.75966	0.16844
1068.47390	0.17139
1067.18813	0.17439
1065.90236	0.17744
1064.61659	0.18054
1063.33082	0.18366
1062.04505	0.18685
1060.75928	0.19014
1059.47351	0.19352
1058.18774	0.19689
1056.90198	0.20014
1055.61621	0.20327
1054.33044	0.20634
1053.04467	0.20946
1051.75890	0.21268
1050.47313	0.21598
1049.18736	0.21931
1047.90159	0.22267
1046.61583	0.22611
1045.33006	0.22967
1044.04429	0.23335
1042.75852	0.23715
1041.47275	0.24105
1040.18698	0.24503
1038.90121	0.24906
1037.61544	0.25312
1036.32967	0.25716
1035.04391	0.26115
1033.75814	0.26504
1032.47237	0.26874
1031.18660	0.27214
1029.90083	0.27521
1028.61506	0.27805
1027.32929	0.28072
1026.04352	0.28315
1024.75775	0.28521
1023.47199	0.28683
1022.18622	0.28806
1020.90045	0.28898
1019.61468	0.28959
1018.32891	0.28984
1017.04314	0.28969
1015.75737	0.28912
1014.47160	0.28814
1013.18584	0.28673
1011.90007	0.28482
1010.61430	0.28237
1009.32853	0.27938
1008.04276	0.27594
1006.75699	0.27214
1005.47122	0.26805
1004.18545	0.26366
1002.89968	0.25891
1001.61392	0.25376
1000.32815	0.24827
999.04238	0.24252
997.75661	0.23656
996.47084	0.23038
995.18507	0.22400
993.89930	0.21751
992.61353	0.21103
991.32777	0.20467
990.04200	0.19846
988.75623	0.19244
987.47046	0.18662
986.18469	0.18100
984.89892	0.17562
983.61315	0.17047
982.32738	0.16550
981.04161	0.16066
979.75585	0.15594
978.47008	0.15145
977.18431	0.14732
975.89854	0.14365
974.61277	0.14045
973.32700	0.13771
972.04123	0.13543
970.75546	0.13363
969.46970	0.13236
968.18393	0.13164
966.89816	0.13150
965.61239	0.13187
964.32662	0.13261
963.04085	0.13345
961.75508	0.13410
960.46931	0.13430
959.18354	0.13383
957.89778	0.13259
956.61201	0.13066
955.32624	0.12825
954.04047	0.12561
952.75470	0.12295
951.46893	0.12033
950.18316	0.11778
948.89739	0.11526
947.61163	0.11275
946.32586	0.11025
945.04009	0.10778
943.75432	0.10535
942.46855	0.10297
941.18278	0.10066
939.89701	0.09844
938.61124	0.09633
937.32547	0.09435
936.03971	0.09244
934.75394	0.09059
933.46817	0.08889
932.18240	0.08739
930.89663	0.08604
929.61086	0.08474
928.32509	0.08343
927.03932	0.08217
925.75356	0.08102
924.46779	0.07999
923.18202	0.07903
921.89625	0.07814
920.61048	0.07733
919.32471	0.07655
918.03894	0.07573
916.75317	0.07486
915.46740	0.07396
914.18164	0.07310
912.89587	0.07226
911.61010	0.07144
910.32433	0.07064
909.03856	0.06990
907.75279	0.06924
906.46702	0.06864
905.18125	0.06807
903.89549	0.06749
902.60972	0.06687
901.32395	0.06621
900.03818	0.06559
898.75241	0.06507
897.46664	0.06471
896.18087	0.06443
894.89510	0.06417
893.60933	0.06387
892.32357	0.06352
891.03780	0.06317
889.75203	0.06289
888.46626	0.06282
887.18049	0.06314
885.89472	0.06411
884.60895	0.06599
883.32318	0.06883
882.03742	0.07228
880.75165	0.07566
879.46588	0.07836
878.18011	0.08018
876.89434	0.08150
875.60857	0.08288
874.32280	0.08456
873.03703	0.08620
871.75126	0.08721
870.46550	0.08719
869.17973	0.08616
867.89396	0.08440
866.60819	0.08220
865.32242	0.07977
864.03665	0.07727
862.75088	0.07482
861.46511	0.07251
860.17935	0.07043
858.89358	0.06862
857.60781	0.06707
856.32204	0.06571
855.03627	0.06450
853.75050	0.06342
852.46473	0.06247
851.17896	0.06165
849.89319	0.06090
848.60743	0.06022
847.32166	0.05961
846.03589	0.05905
844.75012	0.05852
843.46435	0.05800
842.17858	0.05748
840.89281	0.05697
839.60704	0.05647
838.32128	0.05596
837.03551	0.05542
835.74974	0.05490
834.46397	0.05445
833.17820	0.05409
831.89243	0.05379
830.60666	0.05352
829.32089	0.05329
828.03512	0.05308
826.74936	0.05284
825.46359	0.05258
824.17782	0.05235
822.89205	0.05221
821.60628	0.05215
820.32051	0.05212
819.03474	0.05208
817.74897	0.05204
816.46321	0.05198
815.17744	0.05183
813.89167	0.05158
812.60590	0.05129
811.32013	0.05102
810.03436	0.05081
808.74859	0.05063
807.46282	0.05050
806.17705	0.05040
804.89129	0.05030
803.60552	0.05018
802.31975	0.05002
801.03398	0.04985
799.74821	0.04969
798.46244	0.04957
797.17667	0.04950
795.89090	0.04942
794.60513	0.04926
793.31937	0.04902
792.03360	0.04877
790.74783	0.04856
789.46206	0.04838
788.17629	0.04819
786.89052	0.04800
785.60475	0.04782
784.31898	0.04767
783.03322	0.04756
781.74745	0.04750
780.46168	0.04747
779.17591	0.04742
777.89014	0.04731
776.60437	0.04714
775.31860	0.04693
774.03283	0.04675
772.74706	0.04663
771.46130	0.04658
770.17553	0.04654
768.88976	0.04645
767.60399	0.04631
766.31822	0.04617
765.03245	0.04609
763.74668	0.04609
762.46091	0.04615
761.17515	0.04626
759.88938	0.04639
758.60361	0.04647
757.31784	0.04643
756.03207	0.04629
754.74630	0.04617
753.46053	0.04615
752.17476	0.04616
750.88899	0.04614
749.60323	0.04604
748.31746	0.04588
747.03169	0.04572
745.74592	0.04559
744.46015	0.04551
743.17438	0.04549
741.88861	0.04546
740.60284	0.04532
739.31708	0.04502
738.03131	0.04461
736.74554	0.04418
735.45977	0.04381
734.17400	0.04358
732.88823	0.04350
731.60246	0.04356
730.31669	0.04367
729.03092	0.04379
727.74516	0.04392
726.45939	0.04404
725.17362	0.04410
723.88785	0.04401
722.60208	0.04389
721.31631	0.04375
720.03054	0.04361
718.74477	0.04348
717.45901	0.04333
716.17324	0.04315
714.88747	0.04293
713.60170	0.04270
712.31593	0.04246
711.03016	0.04223
709.74439	0.04202
708.45862	0.04185
707.17285	0.04172
705.88709	0.04160
704.60132	0.04145
703.31555	0.04126
702.02978	0.04106
700.74401	0.04089
699.45824	0.04076
698.17247	0.04067
696.88670	0.04063
695.60094	0.04062
694.31517	0.04062
693.02940	0.04057
691.74363	0.04047
690.45786	0.04034
689.17209	0.04018
687.88632	0.03999
686.60055	0.03981
685.31478	0.03964
684.02902	0.03948
682.74325	0.03930
681.45748	0.03906
680.17171	0.03881
678.88594	0.03860
677.60017	0.03845
676.31440	0.03834
675.02863	0.03826
673.74287	0.03824
672.45710	0.03831
671.17133	0.03843
669.88556	0.03853
668.59979	0.03859
667.31402	0.03858
666.02825	0.03843
664.74248	0.03822
663.45671	0.03798
662.17095	0.03772
660.88518	0.03747
659.59941	0.03720
658.31364	0.03693
657.02787	0.03665
655.74210	0.03639
654.45633	0.03620
653.17056	0.03606
651.88480	0.03597
650.59903	0.03593
649.31326	0.03589
648.02749	0.03584
646.74172	0.03575
645.45595	0.03567
644.17018	0.03565
642.88441	0.03569
641.59864	0.03576
640.31288	0.03585
639.02711	0.03595
637.74134	0.03607
636.45557	0.03624
635.16980	0.03647
633.88403	0.03678
632.59826	0.03716
631.31249	0.03747
630.02673	0.03723
628.74096	0.03668
627.45519	0.03780
626.16942	0.03743
624.88365	0.03642
623.59788	0.03639
622.31211	0.03792
621.02634	0.04082
619.74057	0.04467
618.45481	0.04929
617.16904	0.05461
615.88327	0.06022
614.59750	0.06537
613.31173	0.06947
612.02596	0.07256
610.74019	0.07544
609.45442	0.07926
608.16866	0.08450
606.88289	0.09060
605.59712	0.09667
604.31135	0.10198
603.02558	0.10588
601.73981	0.10772
600.45404	0.10733
599.16827	0.10517
597.88250	0.10197
596.59674	0.09843
595.31097	0.09507
594.02520	0.09226
592.73943	0.09011
591.45366	0.08854
590.16789	0.08740
588.88212	0.08667
587.59635	0.08651
586.31059	0.08706
585.02482	0.08837
583.73905	0.09026
582.45328	0.09246
581.16751	0.09478
579.88174	0.09718
578.59597	0.09972
577.31020	0.10239
576.02443	0.10500
574.73867	0.10738
573.45290	0.10954
572.16713	0.11170
570.88136	0.11412
569.59559	0.11701
568.30982	0.12051
567.02405	0.12461
565.73828	0.12914
564.45251	0.13364
563.16675	0.13746
561.88098	0.13999
560.59521	0.14082
559.30944	0.13986
558.02367	0.13722
556.73790	0.13318
555.45213	0.12805
554.16636	0.12225
552.88060	0.11620
551.59483	0.11027
550.30906	0.10470
549.02329	0.09956
547.73752	0.09487
546.45175	0.09064
545.16598	0.08691
543.88021	0.08359
542.59444	0.08058
541.30868	0.07778
540.02291	0.07524
538.73714	0.07300
537.45137	0.07103
536.16560	0.06924
534.87983	0.06751
533.59406	0.06578
532.30829	0.06405
531.02253	0.06237
529.73676	0.06080
528.45099	0.05937
527.16522	0.05807
525.87945	0.05686
524.59368	0.05569
523.30791	0.05451
522.02214	0.05330
520.73637	0.05210
519.45061	0.05099
518.16484	0.05002
516.87907	0.04918
515.59330	0.04839
514.30753	0.04755
513.02176	0.04661
511.73599	0.04564
510.45022	0.04476
509.16446	0.04407
507.87869	0.04352
506.59292	0.04306
505.30715	0.04264
504.02138	0.04228
502.73561	0.04193
501.44984	0.04154
500.16407	0.04108
498.87830	0.04053
497.59254	0.03990
496.30677	0.03925
495.02100	0.03867
493.73523	0.03820
492.44946	0.03783
491.16369	0.03749
489.87792	0.03715
488.59215	0.03684
487.30639	0.03661
486.02062	0.03651
484.73485	0.03654
483.44908	0.03670
482.16331	0.03692
480.87754	0.03714
479.59177	0.03736
478.30600	0.03759
477.02023	0.03786
475.73447	0.03820
474.44870	0.03859
473.16293	0.03902
471.87716	0.03942
470.59139	0.03967
469.30562	0.03965
468.01985	0.03939
466.73408	0.03900
465.44832	0.03864
464.16255	0.03835
462.87678	0.03807
461.59101	0.03773
460.30524	0.03734
459.01947	0.03693
457.73370	0.03649
456.44793	0.03598
455.16216	0.03544
453.87640	0.03492
452.59063	0.03450
451.30486	0.03418
450.01909	0.03395
448.73332	0.03375
447.44755	0.03355
446.16178	0.03334
444.87601	0.03313
443.59025	0.03296
442.30448	0.03281
441.01871	0.03268
439.73294	0.03254
438.44717	0.03244
437.16140	0.03237
435.87563	0.03233
434.58986	0.03226
433.30409	0.03217
432.01833	0.03207
430.73256	0.03201
429.44679	0.03197
428.16102	0.03191
426.87525	0.03181
425.58948	0.03164
424.30371	0.03144
423.01794	0.03125
421.73218	0.03107
420.44641	0.03089
419.16064	0.03067
417.87487	0.03043
416.58910	0.03021
415.30333	0.03006
414.01756	0.02993
412.73179	0.02978
411.44602	0.02964
410.16026	0.02955
408.87449	0.02951
407.58872	0.02945
406.30295	0.02936
405.01718	0.02924
403.73141	0.02917
402.44564	0.02923
401.15987	0.02939
399.87411	0.02960
