3997.45528	0.04505
3996.16951	0.04488
3994.88374	0.04482
3993.59798	0.04508
3992.31221	0.04558
3991.02644	0.04581
3989.74067	0.04536
3988.45490	0.04455
3987.16913	0.04430
3985.88336	0.04522
3984.59759	0.04699
3983.31183	0.04864
3982.02606	0.04942
3980.74029	0.04917
3979.45452	0.04812
3978.16875	0.04654
3976.88298	0.04477
3975.59721	0.04331
3974.31144	0.04267
3973.02567	0.04312
3971.73991	0.04442
3970.45414	0.04593
3969.16837	0.04696
3967.88260	0.04718
3966.59683	0.04673
3965.31106	0.04602
3964.02529	0.04531
3962.73952	0.04477
3961.45376	0.04452
3960.16799	0.04468
3958.88222	0.04522
3957.59645	0.04589
3956.31068	0.04630
3955.02491	0.04615
3953.73914	0.04547
3952.45337	0.04461
3951.16760	0.04399
3949.88184	0.04376
3948.59607	0.04373
3947.31030	0.04366
3946.02453	0.04348
3944.73876	0.04350
3943.45299	0.04401
3942.16722	0.04492
3940.88145	0.04568
3939.59569	0.04586
3938.30992	0.04553
3937.02415	0.04514
3935.73838	0.04509
3934.45261	0.04545
3933.16684	0.04608
3931.88107	0.04664
3930.59530	0.04685
3929.30953	0.04662
3928.02377	0.04619
3926.73800	0.04587
3925.45223	0.04579
3924.16646	0.04589
3922.88069	0.04596
3921.59492	0.04582
3920.30915	0.04541
3919.02338	0.04472
3917.73762	0.04392
3916.45185	0.04327
3915.16608	0.04299
3913.88031	0.04310
3912.59454	0.04342
3911.30877	0.04366
3910.02300	0.04360
3908.73723	0.04321
3907.45146	0.04269
3906.16570	0.04234
3904.87993	0.04239
3903.59416	0.04277
3902.30839	0.04316
3901.02262	0.04328
3899.73685	0.04314
3898.45108	0.04306
3897.16531	0.04323
3895.87955	0.04352
3894.59378	0.04366
3893.30801	0.04352
3892.02224	0.04310
3890.73647	0.04247
3889.45070	0.04171
3888.16493	0.04107
3886.87916	0.04084
3885.59339	0.04104
3884.30763	0.04135
3883.02186	0.04149
3881.73609	0.04147
3880.45032	0.04153
3879.16455	0.04176
3877.87878	0.04199
3876.59301	0.04200
3875.30724	0.04183
3874.02148	0.04172
3872.73571	0.04182
3871.44994	0.04203
3870.16417	0.04219
3868.87840	0.04231
3867.59263	0.04256
3866.30686	0.04301
3865.02109	0.04352
3863.73532	0.04384
3862.44956	0.04387
3861.16379	0.04363
3859.87802	0.04336
3858.59225	0.04335
3857.30648	0.04379
3856.02071	0.04451
3854.73494	0.04509
3853.44917	0.04522
3852.16341	0.04498
3850.87764	0.04473
3849.59187	0.04469
3848.30610	0.04483
3847.02033	0.04494
3845.73456	0.04485
3844.44879	0.04445
3843.16302	0.04381
3841.87725	0.04317
3840.59149	0.04276
3839.30572	0.04259
3838.01995	0.04246
3836.73418	0.04224
3835.44841	0.04200
3834.16264	0.04182
3832.87687	0.04164
3831.59110	0.04127
3830.30534	0.04071
3829.01957	0.04019
3827.73380	0.03997
3826.44803	0.04010
3825.16226	0.04051
3823.87649	0.04104
3822.59072	0.04146
3821.30495	0.04159
3820.01918	0.04149
3818.73342	0.04142
3817.44765	0.04150
3816.16188	0.04151
3814.87611	0.04115
3813.59034	0.04051
3812.30457	0.04005
3811.01880	0.04019
3809.73303	0.04088
3808.44726	0.04170
3807.16150	0.04226
3805.87573	0.04251
3804.58996	0.04277
3803.30419	0.04323
3802.01842	0.04364
3800.73265	0.04356
3799.44688	0.04283
3798.16111	0.04174
3796.87535	0.04073
3795.58958	0.04010
3794.30381	0.03984
3793.01804	0.03981
3791.73227	0.03985
3790.44650	0.03999
3789.16073	0.04033
3787.87496	0.04088
3786.58919	0.04145
3785.30343	0.04183
3784.01766	0.04194
3782.73189	0.04190
3781.44612	0.04181
3780.16035	0.04169
3778.87458	0.04141
3777.58881	0.04083
3776.30304	0.03995
3775.01728	0.03906
3773.73151	0.03851
3772.44574	0.03842
3771.15997	0.03856
3769.87420	0.03864
3768.58843	0.03852
3767.30266	0.03826
3766.01689	0.03804
3764.73112	0.03803
3763.44536	0.03831
3762.15959	0.03871
3760.87382	0.03892
3759.58805	0.03867
3758.30228	0.03810
3757.01651	0.03770
3755.73074	0.03785
3754.44497	0.03859
3753.15921	0.03975
3751.87344	0.04110
3750.58767	0.04235
3749.30190	0.04309
3748.01613	0.04303
3746.73036	0.04229
3745.44459	0.04125
3744.15882	0.04009
3742.87305	0.03894
3741.58729	0.03810
3740.30152	0.03797
3739.01575	0.03875
3737.72998	0.04015
3736.44421	0.04144
3735.15844	0.04194
3733.87267	0.04151
3732.58690	0.04075
3731.30114	0.04026
3730.01537	0.04001
3728.72960	0.03968
3727.44383	0.03905
3726.15806	0.03836
3724.87229	0.03798
3723.58652	0.03804
3722.30075	0.03850
3721.01498	0.03895
3719.72922	0.03879
3718.44345	0.03793
3717.15768	0.03700
3715.87191	0.03681
3714.58614	0.03750
3713.30037	0.03853
3712.01460	0.03939
3710.72883	0.03979
3709.44307	0.03972
3708.15730	0.03943
3706.87153	0.03902
3705.58576	0.03869
3704.29999	0.03873
3703.01422	0.03916
3701.72845	0.03960
3700.44268	0.03962
3699.15691	0.03918
3697.87115	0.03865
3696.58538	0.03831
3695.29961	0.03808
3694.01384	0.03777
3692.72807	0.03748
3691.44230	0.03742
3690.15653	0.03771
3688.87076	0.03833
3687.58500	0.03903
3686.29923	0.03949
3685.01346	0.03967
3683.72769	0.03962
3682.44192	0.03945
3681.15615	0.03928
3679.87038	0.03915
3678.58461	0.03903
3677.29884	0.03896
3676.01308	0.03890
3674.72731	0.03879
3673.44154	0.03865
3672.15577	0.03864
3670.87000	0.03892
3669.58423	0.03951
3668.29846	0.04024
3667.01269	0.04087
3665.72693	0.04123
3664.44116	0.04123
3663.15539	0.04096
3661.86962	0.04067
3660.58385	0.04047
3659.29808	0.04031
3658.01231	0.04009
3656.72654	0.03987
3655.44077	0.03977
3654.15501	0.03984
3652.86924	0.03996
3651.58347	0.03997
3650.29770	0.03983
3649.01193	0.03963
3647.72616	0.03952
3646.44039	0.03956
3645.15462	0.03968
3643.86886	0.03975
3642.58309	0.03967
3641.29732	0.03952
3640.01155	0.03955
3638.72578	0.03998
3637.44001	0.04085
3636.15424	0.04196
3634.86847	0.04287
3633.58270	0.04328
3632.29694	0.04323
3631.01117	0.04312
3629.72540	0.04339
3628.43963	0.04408
3627.15386	0.04490
3625.86809	0.04567
3624.58232	0.04639
3623.29655	0.04692
3622.01079	0.04699
3620.72502	0.04652
3619.43925	0.04583
3618.15348	0.04528
3616.86771	0.04507
3615.58194	0.04518
3614.29617	0.04539
3613.01040	0.04535
3611.72463	0.04483
3610.43887	0.04401
3609.15310	0.04318
3607.86733	0.04255
3606.58156	0.04223
3605.29579	0.04251
3604.01002	0.04355
3602.72425	0.04506
3601.43848	0.04656
3600.15272	0.04768
3598.86695	0.04832
3597.58118	0.04853
3596.29541	0.04852
3595.00964	0.04838
3593.72387	0.04824
3592.43810	0.04842
3591.15233	0.04904
3589.86656	0.05006
3588.58080	0.05119
3587.29503	0.05186
3586.00926	0.05185
3584.72349	0.05144
3583.43772	0.05104
3582.15195	0.05078
3580.86618	0.05051
3579.58041	0.05008
3578.29464	0.04959
3577.00888	0.04940
3575.72311	0.04978
3574.43734	0.05065
3573.15157	0.05176
3571.86580	0.05282
3570.58003	0.05366
3569.29426	0.05411
3568.00849	0.05413
3566.72273	0.05393
3565.43696	0.05392
3564.15119	0.05432
3562.86542	0.05493
3561.57965	0.05530
3560.29388	0.05513
3559.00811	0.05455
3557.72234	0.05398
3556.43657	0.05369
3555.15081	0.05367
3553.86504	0.05381
3552.57927	0.05410
3551.29350	0.05458
3550.00773	0.05527
3548.72196	0.05612
3547.43619	0.05702
3546.15042	0.05781
3544.86466	0.05839
3543.57889	0.05882
3542.29312	0.05916
3541.00735	0.05939
3539.72158	0.05947
3538.43581	0.05941
3537.15004	0.05920
3535.86427	0.05880
3534.57850	0.05828
3533.29274	0.05796
3532.00697	0.05822
3530.72120	0.05908
3529.43543	0.06007
3528.14966	0.06065
3526.86389	0.06066
3525.57812	0.06045
3524.29235	0.06050
3523.00659	0.06099
3521.72082	0.06175
3520.43505	0.06245
3519.14928	0.06295
3517.86351	0.06330
3516.57774	0.06359
3515.29197	0.06388
3514.00620	0.06415
3512.72043	0.06439
3511.43467	0.06455
3510.14890	0.06467
3508.86313	0.06489
3507.57736	0.06529
3506.29159	0.06569
3505.00582	0.06587
3503.72005	0.06584
3502.43428	0.06587
3501.14852	0.06606
3499.86275	0.06625
3498.57698	0.06628
3497.29121	0.06617
3496.00544	0.06606
3494.71967	0.06605
3493.43390	0.06610
3492.14813	0.06613
3490.86236	0.06617
3489.57660	0.06642
3488.29083	0.06701
3487.00506	0.06789
3485.71929	0.06873
3484.43352	0.06925
3483.14775	0.06935
3481.86198	0.06904
3480.57621	0.06838
3479.29045	0.06767
3478.00468	0.06731
3476.71891	0.06755
3475.43314	0.06815
3474.14737	0.06872
3472.86160	0.06902
3471.57583	0.06907
3470.29006	0.06902
3469.00429	0.06907
3467.71853	0.06935
3466.43276	0.06987
3465.14699	0.07051
3463.86122	0.07112
3462.57545	0.07156
3461.28968	0.07177
3460.00391	0.07180
3458.71814	0.07183
3457.43238	0.07196
3456.14661	0.07208
3454.86084	0.07205
3453.57507	0.07189
3452.28930	0.07184
3451.00353	0.07206
3449.71776	0.07233
3448.43199	0.07228
3447.14622	0.07186
3445.86046	0.07146
3444.57469	0.07154
3443.28892	0.07214
3442.00315	0.07288
3440.71738	0.07338
3439.43161	0.07352
3438.14584	0.07339
3436.86007	0.07312
3435.57431	0.07290
3434.28854	0.07297
3433.00277	0.07341
3431.71700	0.07407
3430.43123	0.07469
3429.14546	0.07509
3427.85969	0.07522
3426.57392	0.07508
3425.28815	0.07483
3424.00239	0.07471
3422.71662	0.07482
3421.43085	0.07506
3420.14508	0.07530
3418.85931	0.07551
3417.57354	0.07570
3416.28777	0.07578
3415.00200	0.07573
3413.71624	0.07571
3412.43047	0.07590
3411.14470	0.07629
3409.85893	0.07671
3408.57316	0.07698
3407.28739	0.07706
3406.00162	0.07699
3404.71585	0.07683
3403.43008	0.07668
3402.14432	0.07662
3400.85855	0.07671
3399.57278	0.07690
3398.28701	0.07705
3397.00124	0.07707
3395.71547	0.07707
3394.42970	0.07723
3393.14393	0.07756
3391.85817	0.07787
3390.57240	0.07798
3389.28663	0.07800
3388.00086	0.07819
3386.71509	0.07861
3385.42932	0.07906
3384.14355	0.07935
3382.85778	0.07946
3381.57201	0.07953
3380.28625	0.07964
3379.00048	0.07968
3377.71471	0.07948
3376.42894	0.07901
3375.14317	0.07845
3373.85740	0.07808
3372.57163	0.07816
3371.28586	0.07870
3370.00010	0.07954
3368.71433	0.08042
3367.42856	0.08114
3366.14279	0.08160
3364.85702	0.08176
3363.57125	0.08161
3362.28548	0.08131
3360.99971	0.08104
3359.71394	0.08085
3358.42818	0.08071
3357.14241	0.08057
3355.85664	0.08054
3354.57087	0.08070
3353.28510	0.08093
3351.99933	0.08104
3350.71356	0.08097
3349.42779	0.08083
3348.14202	0.08076
3346.85626	0.08080
3345.57049	0.08094
3344.28472	0.08107
3342.99895	0.08112
3341.71318	0.08110
3340.42741	0.08103
3339.14164	0.08094
3337.85587	0.08089
3336.57011	0.08098
3335.28434	0.08131
3333.99857	0.08180
3332.71280	0.08210
3331.42703	0.08198
3330.14126	0.08151
3328.85549	0.08110
3327.56972	0.08108
3326.28395	0.08141
3324.99819	0.08179
3323.71242	0.08197
3322.42665	0.08189
3321.14088	0.08170
3319.85511	0.08154
3318.56934	0.08146
3317.28357	0.08138
3315.99780	0.08120
3314.71204	0.08095
3313.42627	0.08079
3312.14050	0.08085
3310.85473	0.08111
3309.56896	0.08137
3308.28319	0.08144
3306.99742	0.08130
3305.71165	0.08109
3304.42588	0.08104
3303.14012	0.08118
3301.85435	0.08135
3300.56858	0.08135
3299.28281	0.08115
3297.99704	0.08093
3296.71127	0.08086
3295.42550	0.08089
3294.13973	0.08087
3292.85397	0.08071
3291.56820	0.08050
3290.28243	0.08033
3288.99666	0.08015
3287.71089	0.07988
3286.42512	0.07955
3285.13935	0.07930
3283.85358	0.07921
3282.56781	0.07927
3281.28205	0.07939
3279.99628	0.07945
3278.71051	0.07939
3277.42474	0.07919
3276.13897	0.07889
3274.85320	0.07856
3273.56743	0.07823
3272.28166	0.07796
3270.99590	0.07783
3269.71013	0.07799
3268.42436	0.07846
3267.13859	0.07903
3265.85282	0.07937
3264.56705	0.07928
3263.28128	0.07895
3261.99551	0.07875
3260.70974	0.07893
3259.42398	0.07941
3258.13821	0.07983
3256.85244	0.07987
3255.56667	0.07950
3254.28090	0.07901
3252.99513	0.07873
3251.70936	0.07880
3250.42359	0.07906
3249.13783	0.07919
3247.85206	0.07902
3246.56629	0.07868
3245.28052	0.07846
3243.99475	0.07858
3242.70898	0.07897
3241.42321	0.07939
3240.13744	0.07958
3238.85167	0.07950
3237.56591	0.07931
3236.28014	0.07925
3234.99437	0.07937
3233.70860	0.07942
3232.42283	0.07914
3231.13706	0.07852
3229.85129	0.07778
3228.56552	0.07714
3227.27976	0.07672
3225.99399	0.07660
3224.70822	0.07688
3223.42245	0.07748
3222.13668	0.07808
3220.85091	0.07834
3219.56514	0.07811
3218.27937	0.07755
3216.99360	0.07702
3215.70784	0.07675
3214.42207	0.07670
3213.13630	0.07669
3211.85053	0.07659
3210.56476	0.07644
3209.27899	0.07632
3207.99322	0.07625
3206.70745	0.07632
3205.42169	0.07657
3204.13592	0.07690
3202.85015	0.07702
3201.56438	0.07670
3200.27861	0.07609
3198.99284	0.07556
3197.70707	0.07538
3196.42130	0.07546
3195.13553	0.07555
3193.84977	0.07552
3192.56400	0.07546
3191.27823	0.07546
3189.99246	0.07555
3188.70669	0.07572
3187.42092	0.07590
3186.13515	0.07590
3184.84938	0.07554
3183.56362	0.07489
3182.27785	0.07424
3180.99208	0.07387
3179.70631	0.07377
3178.42054	0.07380
3177.13477	0.07386
3175.84900	0.07397
3174.56323	0.07405
3173.27746	0.07394
3171.99170	0.07351
3170.70593	0.07284
3169.42016	0.07223
3168.13439	0.07192
3166.84862	0.07190
3165.56285	0.07199
3164.27708	0.07211
3162.99131	0.07236
3161.70555	0.07281
3160.41978	0.07329
3159.13401	0.07341
3157.84824	0.07289
3156.56247	0.07187
3155.27670	0.07082
3153.99093	0.07019
3152.70516	0.07009
3151.41939	0.07030
3150.13363	0.07052
3148.84786	0.07059
3147.56209	0.07057
3146.27632	0.07058
3144.99055	0.07072
3143.70478	0.07098
3142.41901	0.07128
3141.13324	0.07154
3139.84748	0.07163
3138.56171	0.07143
3137.27594	0.07091
3135.99017	0.07021
3134.70440	0.06957
3133.41863	0.06918
3132.13286	0.06899
3130.84709	0.06883
3129.56132	0.06857
3128.27556	0.06817
3126.98979	0.06776
3125.70402	0.06762
3124.41825	0.06793
3123.13248	0.06863
3121.84671	0.06937
3120.56094	0.06983
3119.27517	0.06995
3117.98940	0.06984
3116.70364	0.06959
3115.41787	0.06926
3114.13210	0.06893
3112.84633	0.06865
3111.56056	0.06842
3110.27479	0.06817
3108.98902	0.06795
3107.70325	0.06787
3106.41749	0.06799
3105.13172	0.06819
3103.84595	0.06826
3102.56018	0.06810
3101.27441	0.06781
3099.98864	0.06750
3098.70287	0.06726
3097.41710	0.06711
3096.13133	0.06707
3094.84557	0.06713
3093.55980	0.06719
3092.27403	0.06719
3090.98826	0.06714
3089.70249	0.06709
3088.41672	0.06715
3087.13095	0.06730
3085.84518	0.06741
3084.55942	0.06734
3083.27365	0.06707
3081.98788	0.06676
3080.70211	0.06655
3079.41634	0.06642
3078.13057	0.06624
3076.84480	0.06596
3075.55903	0.06568
3074.27326	0.06552
3072.98750	0.06552
3071.70173	0.06556
3070.41596	0.06554
3069.13019	0.06546
3067.84442	0.06534
3066.55865	0.06521
3065.27288	0.06508
3063.98711	0.06502
3062.70135	0.06507
3061.41558	0.06517
3060.12981	0.06510
3058.84404	0.06468
3057.55827	0.06403
3056.27250	0.06346
3054.98673	0.06319
3053.70096	0.06317
3052.41519	0.06319
3051.12943	0.06310
3049.84366	0.06296
3048.55789	0.06291
3047.27212	0.06300
3045.98635	0.06314
3044.70058	0.06323
3043.41481	0.06328
3042.12904	0.06329
3040.84328	0.06325
3039.55751	0.06317
3038.27174	0.06307
3036.98597	0.06304
3035.70020	0.06308
3034.41443	0.06312
3033.12866	0.06303
3031.84289	0.06275
3030.55712	0.06228
3029.27136	0.06177
3027.98559	0.06139
3026.69982	0.06129
3025.41405	0.06139
3024.12828	0.06150
3022.84251	0.06138
3021.55674	0.06104
3020.27097	0.06068
3018.98521	0.06050
3017.69944	0.06053
3016.41367	0.06059
3015.12790	0.06056
3013.84213	0.06043
3012.55636	0.06026
3011.27059	0.06005
3009.98482	0.05981
3008.69905	0.05962
3007.41329	0.05954
3006.12752	0.05956
3004.84175	0.05960
3003.55598	0.05964
3002.27021	0.05969
3000.98444	0.05977
2999.69867	0.05982
2998.41290	0.05980
2997.12714	0.05976
2995.84137	0.05974
2994.55560	0.05973
2993.26983	0.05963
2991.98406	0.05942
2990.69829	0.05911
2989.41252	0.05872
2988.12675	0.05834
2986.84098	0.05817
2985.55522	0.05834
2984.26945	0.05876
2982.98368	0.05913
2981.69791	0.05923
2980.41214	0.05911
2979.12637	0.05898
2977.84060	0.05896
2976.55483	0.05903
2975.26907	0.05913
2973.98330	0.05931
2972.69753	0.05963
2971.41176	0.06015
2970.12599	0.06082
2968.84022	0.06150
2967.55445	0.06206
2966.26868	0.06249
2964.98291	0.06285
2963.69715	0.06322
2962.41138	0.06360
2961.12561	0.06390
2959.83984	0.06405
2958.55407	0.06405
2957.26830	0.06400
2955.98253	0.06398
2954.69676	0.06398
2953.41100	0.06398
2952.12523	0.06397
2950.83946	0.06397
2949.55369	0.06398
2948.26792	0.06396
2946.98215	0.06389
2945.69638	0.06376
2944.41061	0.06361
2943.12484	0.06354
2941.83908	0.06353
2940.55331	0.06346
2939.26754	0.06323
2937.98177	0.06294
2936.69600	0.06279
2935.41023	0.06289
2934.12446	0.06311
2932.83869	0.06325
2931.55293	0.06325
2930.26716	0.06321
2928.98139	0.06329
2927.69562	0.06355
2926.40985	0.06391
2925.12408	0.06412
2923.83831	0.06400
2922.55254	0.06360
2921.26677	0.06316
2919.98101	0.06288
2918.69524	0.06279
2917.40947	0.06279
2916.12370	0.06279
2914.83793	0.06276
2913.55216	0.06272
2912.26639	0.06268
2910.98062	0.06260
2909.69486	0.06235
2908.40909	0.06186
2907.12332	0.06129
2905.83755	0.06086
2904.55178	0.06061
2903.26601	0.06036
2901.98024	0.05994
2900.69447	0.05942
2899.40870	0.05900
2898.12294	0.05882
2896.83717	0.05880
2895.55140	0.05875
2894.26563	0.05858
2892.97986	0.05835
2891.69409	0.05811
2890.40832	0.05782
2889.12255	0.05745
2887.83678	0.05710
2886.55102	0.05692
2885.26525	0.05687
2883.97948	0.05680
2882.69371	0.05664
2881.40794	0.05646
2880.12217	0.05633
2878.83640	0.05626
2877.55063	0.05623
2876.26487	0.05629
2874.97910	0.05645
2873.69333	0.05666
2872.40756	0.05683
2871.12179	0.05699
2869.83602	0.05717
2868.55025	0.05729
2867.26448	0.05723
2865.97871	0.05695
2864.69295	0.05661
2863.40718	0.05636
2862.12141	0.05618
2860.83564	0.05595
2859.54987	0.05566
2858.26410	0.05542
2856.97833	0.05538
2855.69256	0.05551
2854.40680	0.05559
2853.12103	0.05551
2851.83526	0.05532
2850.54949	0.05515
2849.26372	0.05499
2847.97795	0.05476
2846.69218	0.05446
2845.40641	0.05417
2844.12064	0.05392
2842.83488	0.05369
2841.54911	0.05341
2840.26334	0.05305
2838.97757	0.05265
2837.69180	0.05224
2836.40603	0.05180
2835.12026	0.05127
2833.83449	0.05070
2832.54873	0.05023
2831.26296	0.05001
2829.97719	0.05001
2828.69142	0.05007
2827.40565	0.05006
2826.11988	0.04995
2824.83411	0.04977
2823.54834	0.04958
2822.26257	0.04940
2820.97681	0.04924
2819.69104	0.04908
2818.40527	0.04891
2817.11950	0.04879
2815.83373	0.04873
2814.54796	0.04868
2813.26219	0.04862
2811.97642	0.04856
2810.69066	0.04857
2809.40489	0.04862
2808.11912	0.04864
2806.83335	0.04856
2805.54758	0.04836
2804.26181	0.04810
2802.97604	0.04781
2801.69027	0.04745
2800.40450	0.04707
2799.11874	0.04685
2797.83297	0.04686
2796.54720	0.04699
2795.26143	0.04704
2793.97566	0.04695
2792.68989	0.04685
2791.40412	0.04684
2790.11835	0.04683
2788.83259	0.04667
2787.54682	0.04636
2786.26105	0.04605
2784.97528	0.04588
2783.68951	0.04585
2782.40374	0.04585
2781.11797	0.04581
2779.83220	0.04578
2778.54643	0.04576
2777.26067	0.04568
2775.97490	0.04551
2774.68913	0.04533
2773.40336	0.04524
2772.11759	0.04523
2770.83182	0.04525
2769.54605	0.04523
2768.26028	0.04519
2766.97452	0.04513
2765.68875	0.04505
2764.40298	0.04496
2763.11721	0.04484
2761.83144	0.04467
2760.54567	0.04445
2759.25990	0.04423
2757.97413	0.04407
2756.68836	0.04401
2755.40260	0.04402
2754.11683	0.04409
2752.83106	0.04421
2751.54529	0.04435
2750.25952	0.04443
2748.97375	0.04436
2747.68798	0.04411
2746.40221	0.04374
2745.11645	0.04341
2743.83068	0.04328
2742.54491	0.04339
2741.25914	0.04365
2739.97337	0.04393
2738.68760	0.04411
2737.40183	0.04411
2736.11606	0.04393
2734.83029	0.04367
2733.54453	0.04349
2732.25876	0.04346
2730.97299	0.04351
2729.68722	0.04348
2728.40145	0.04329
2727.11568	0.04299
2725.82991	0.04268
2724.54414	0.04243
2723.25838	0.04233
2721.97261	0.04237
2720.68684	0.04249
2719.40107	0.04258
2718.11530	0.04260
2716.82953	0.04254
2715.54376	0.04242
2714.25799	0.04224
2712.97222	0.04210
2711.68646	0.04211
2710.40069	0.04228
2709.11492	0.04249
2707.82915	0.04261
2706.54338	0.04262
2705.25761	0.04258
2703.97184	0.04252
2702.68607	0.04241
2701.40031	0.04220
2700.11454	0.04189
2698.82877	0.04152
2697.54300	0.04120
2696.25723	0.04104
2694.97146	0.04103
2693.68569	0.04111
2692.39992	0.04116
2691.11415	0.04112
2689.82839	0.04101
2688.54262	0.04087
2687.25685	0.04075
2685.97108	0.04067
2684.68531	0.04061
2683.39954	0.04056
2682.11377	0.04046
2680.82800	0.04031
2679.54224	0.04019
2678.25647	0.04015
2676.97070	0.04019
2675.68493	0.04023
2674.39916	0.04020
2673.11339	0.04016
2671.82762	0.04015
2670.54185	0.04019
2669.25608	0.04019
2667.97032	0.04012
2666.68455	0.04003
2665.39878	0.03994
2664.11301	0.03988
2662.82724	0.03982
2661.54147	0.03977
2660.25570	0.03972
2658.96993	0.03969
2657.68417	0.03967
2656.39840	0.03965
2655.11263	0.03963
2653.82686	0.03960
2652.54109	0.03949
2651.25532	0.03928
2649.96955	0.03902
2648.68378	0.03882
2647.39801	0.03871
2646.11225	0.03863
2644.82648	0.03852
2643.54071	0.03839
2642.25494	0.03829
2640.96917	0.03819
2639.68340	0.03799
2638.39763	0.03763
2637.11186	0.03728
2635.82609	0.03713
2634.54033	0.03715
2633.25456	0.03712
2631.96879	0.03690
2630.68302	0.03662
2629.39725	0.03645
2628.11148	0.03633
2626.82571	0.03609
2625.53994	0.03574
2624.25418	0.03543
2622.96841	0.03533
2621.68264	0.03535
2620.39687	0.03537
2619.11110	0.03533
2617.82533	0.03530
2616.53956	0.03522
2615.25379	0.03500
2613.96802	0.03462
2612.68226	0.03426
2611.39649	0.03409
2610.11072	0.03410
2608.82495	0.03416
2607.53918	0.03415
2606.25341	0.03400
2604.96764	0.03373
2603.68187	0.03344
2602.39611	0.03317
2601.11034	0.03298
2599.82457	0.03288
2598.53880	0.03293
2597.25303	0.03321
2595.96726	0.03361
2594.68149	0.03392
2593.39572	0.03392
2592.10995	0.03364
2590.82419	0.03329
2589.53842	0.03300
2588.25265	0.03277
2586.96688	0.03264
2585.68111	0.03271
2584.39534	0.03297
2583.10957	0.03317
2581.82380	0.03311
2580.53804	0.03283
2579.25227	0.03258
2577.96650	0.03252
2576.68073	0.03254
2575.39496	0.03246
2574.10919	0.03225
2572.82342	0.03207
2571.53765	0.03199
2570.25188	0.03189
2568.96612	0.03173
2567.68035	0.03163
2566.39458	0.03171
2565.10881	0.03188
2563.82304	0.03202
2562.53727	0.03216
2561.25150	0.03227
2559.96573	0.03222
2558.67997	0.03187
2557.39420	0.03135
2556.10843	0.03087
2554.82266	0.03053
2553.53689	0.03035
2552.25112	0.03044
2550.96535	0.03091
2549.67958	0.03151
2548.39381	0.03177
2547.10805	0.03149
2545.82228	0.03100
2544.53651	0.03075
2543.25074	0.03088
2541.96497	0.03122
2540.67920	0.03154
2539.39343	0.03167
2538.10766	0.03153
2536.82190	0.03104
2535.53613	0.03035
2534.25036	0.02974
2532.96459	0.02948
2531.67882	0.02955
2530.39305	0.02976
2529.10728	0.02988
2527.82151	0.02987
2526.53574	0.02976
2525.24998	0.02963
2523.96421	0.02961
2522.67844	0.02973
2521.39267	0.02988
2520.10690	0.02997
2518.82113	0.02998
2517.53536	0.02997
2516.24959	0.03000
2514.96383	0.03011
2513.67806	0.03031
2512.39229	0.03045
2511.10652	0.03041
2509.82075	0.03017
2508.53498	0.02985
2507.24921	0.02949
2505.96344	0.02906
2504.67767	0.02858
2503.39191	0.02819
2502.10614	0.02811
2500.82037	0.02842
2499.53460	0.02894
2498.24883	0.02928
2496.96306	0.02919
2495.67729	0.02879
2494.39152	0.02841
2493.10576	0.02830
2491.81999	0.02843
2490.53422	0.02858
2489.24845	0.02866
2487.96268	0.02875
2486.67691	0.02888
2485.39114	0.02897
2484.10537	0.02889
2482.81960	0.02871
2481.53384	0.02861
2480.24807	0.02863
2478.96230	0.02867
2477.67653	0.02869
2476.39076	0.02875
2475.10499	0.02888
2473.81922	0.02897
2472.53345	0.02888
2471.24769	0.02863
2469.96192	0.02838
2468.67615	0.02829
2467.39038	0.02833
2466.10461	0.02843
2464.81884	0.02851
2463.53307	0.02859
2462.24730	0.02872
2460.96153	0.02885
2459.67577	0.02892
2458.39000	0.02892
2457.10423	0.02886
2455.81846	0.02879
2454.53269	0.02869
2453.24692	0.02859
2451.96115	0.02851
2450.67538	0.02838
2449.38962	0.02815
2448.10385	0.02784
2446.81808	0.02754
2445.53231	0.02730
2444.24654	0.02715
2442.96077	0.02721
2441.67500	0.02761
2440.38923	0.02819
2439.10346	0.02853
2437.81770	0.02837
2436.53193	0.02790
2435.24616	0.02751
2433.96039	0.02733
2432.67462	0.02727
2431.38885	0.02730
2430.10308	0.02747
2428.81731	0.02773
2427.53155	0.02793
2426.24578	0.02802
2424.96001	0.02805
2423.67424	0.02800
2422.38847	0.02781
2421.10270	0.02755
2419.81693	0.02740
2418.53116	0.02740
2417.24539	0.02739
2415.95963	0.02727
2414.67386	0.02712
2413.38809	0.02710
2412.10232	0.02719
2410.81655	0.02728
2409.53078	0.02732
2408.24501	0.02735
2406.95924	0.02736
2405.67347	0.02731
2404.38771	0.02722
2403.10194	0.02721
2401.81617	0.02736
2400.53040	0.02758
2399.24463	0.02761
2397.95886	0.02744
2396.67309	0.02718
2395.38732	0.02699
2394.10156	0.02690
2392.81579	0.02685
2391.53002	0.02677
2390.24425	0.02668
2388.95848	0.02667
2387.67271	0.02684
2386.38694	0.02719
2385.10117	0.02757
2383.81540	0.02785
2382.52964	0.02795
2381.24387	0.02794
2379.95810	0.02788
2378.67233	0.02788
2377.38656	0.02801
2376.10079	0.02802
2374.81502	0.02779
2373.52925	0.02738
2372.24349	0.02674
2370.95772	0.02602
2369.67195	0.02500
2368.38618	0.02390
2367.10041	0.02334
2365.81464	0.02337
2364.52887	0.02365
2363.24310	0.02443
2361.95733	0.02575
2360.67157	0.02668
2359.38580	0.02632
2358.10003	0.02532
2356.81426	0.02471
2355.52849	0.02474
2354.24272	0.02521
2352.95695	0.02568
2351.67118	0.02639
2350.38542	0.02768
2349.09965	0.02841
2347.81388	0.02740
2346.52811	0.02582
2345.24234	0.02528
2343.95657	0.02548
2342.67080	0.02532
2341.38503	0.02496
2340.09926	0.02503
2338.81350	0.02547
2337.52773	0.02609
2336.24196	0.02636
2334.95619	0.02630
2333.67042	0.02612
2332.38465	0.02565
2331.09888	0.02527
2329.81311	0.02523
2328.52735	0.02522
2327.24158	0.02541
2325.95581	0.02577
2324.67004	0.02589
2323.38427	0.02599
2322.09850	0.02629
2320.81273	0.02672
2319.52696	0.02732
2318.24119	0.02786
2316.95543	0.02784
2315.66966	0.02723
2314.38389	0.02637
2313.09812	0.02568
2311.81235	0.02530
2310.52658	0.02532
2309.24081	0.02583
2307.95504	0.02658
2306.66928	0.02723
2305.38351	0.02754
2304.09774	0.02737
2302.81197	0.02683
2301.52620	0.02628
2300.24043	0.02600
2298.95466	0.02595
2297.66889	0.02590
2296.38312	0.02581
2295.09736	0.02583
2293.81159	0.02610
2292.52582	0.02648
2291.24005	0.02666
2289.95428	0.02646
2288.66851	0.02603
2287.38274	0.02563
2286.09697	0.02546
2284.81121	0.02545
2283.52544	0.02534
2282.23967	0.02493
2280.95390	0.02424
2279.66813	0.02350
2278.38236	0.02293
2277.09659	0.02250
2275.81082	0.02210
2274.52505	0.02174
2273.23929	0.02162
2271.95352	0.02187
2270.66775	0.02232
2269.38198	0.02261
2268.09621	0.02254
2266.81044	0.02227
2265.52467	0.02207
2264.23890	0.02219
2262.95314	0.02261
2261.66737	0.02314
2260.38160	0.02355
2259.09583	0.02369
2257.81006	0.02353
2256.52429	0.02318
2255.23852	0.02270
2253.95275	0.02218
2252.66698	0.02171
2251.38122	0.02139
2250.09545	0.02128
2248.80968	0.02128
2247.52391	0.02126
2246.23814	0.02124
2244.95237	0.02123
2243.66660	0.02103
2242.38083	0.02042
2241.09507	0.01957
2239.80930	0.01900
2238.52353	0.01906
2237.23776	0.01958
2235.95199	0.01992
2234.66622	0.01959
2233.38045	0.01860
2232.09468	0.01745
2230.80891	0.01666
2229.52315	0.01645
2228.23738	0.01680
2226.95161	0.01763
2225.66584	0.01872
2224.38007	0.01967
2223.09430	0.02009
2221.80853	0.01989
2220.52276	0.01938
2219.23700	0.01892
2217.95123	0.01877
2216.66546	0.01899
2215.37969	0.01945
2214.09392	0.01982
2212.80815	0.01965
2211.52238	0.01873
2210.23661	0.01732
2208.95084	0.01604
2207.66508	0.01537
2206.37931	0.01537
2205.09354	0.01565
2203.80777	0.01572
2202.52200	0.01538
2201.23623	0.01486
2199.95046	0.01455
2198.66469	0.01453
2197.37893	0.01451
2196.09316	0.01429
2194.80739	0.01398
2193.52162	0.01387
2192.23585	0.01409
2190.95008	0.01473
2189.66431	0.01581
2188.37854	0.01701
2187.09277	0.01761
2185.80701	0.01701
2184.52124	0.01549
2183.23547	0.01414
2181.94970	0.01385
2180.66393	0.01449
2179.37816	0.01509
2178.09239	0.01483
2176.80662	0.01393
2175.52085	0.01334
2174.23509	0.01384
2172.94932	0.01517
2171.66355	0.01636
2170.37778	0.01660
2169.09201	0.01582
2167.80624	0.01442
2166.52047	0.01280
2165.23470	0.01119
2163.94894	0.00983
2162.66317	0.00891
2161.37740	0.00842
2160.09163	0.00819
2158.80586	0.00810
2157.52009	0.00818
2156.23432	0.00850
2154.94855	0.00903
2153.66278	0.00973
2152.37702	0.01049
2151.09125	0.01110
2149.80548	0.01126
2148.51971	0.01098
2147.23394	0.01060
2145.94817	0.01045
2144.66240	0.01051
2143.37663	0.01046
2142.09087	0.01010
2140.80510	0.00962
2139.51933	0.00938
2138.23356	0.00955
2136.94779	0.00992
2135.66202	0.01033
2134.37625	0.01098
2133.09048	0.01214
2131.80471	0.01358
2130.51895	0.01475
2129.23318	0.01536
2127.94741	0.01556
2126.66164	0.01557
2125.37587	0.01536
2124.09010	0.01488
2122.80433	0.01432
2121.51856	0.01397
2120.23280	0.01394
2118.94703	0.01416
2117.66126	0.01458
2116.37549	0.01511
2115.08972	0.01556
2113.80395	0.01570
2112.51818	0.01548
2111.23241	0.01503
2109.94664	0.01453
2108.66088	0.01404
2107.37511	0.01368
2106.08934	0.01364
2104.80357	0.01397
2103.51780	0.01448
2102.23203	0.01493
2100.94626	0.01533
2099.66049	0.01620
2098.37473	0.01673
2097.08896	0.01673
2095.80319	0.01633
2094.51742	0.01574
2093.23165	0.01522
2091.94588	0.01498
2090.66011	0.01505
2089.37434	0.01526
2088.08857	0.01537
2086.80281	0.01524
2085.51704	0.01497
2084.23127	0.01478
2082.94550	0.01478
2081.65973	0.01491
2080.37396	0.01495
2079.08819	0.01472
2077.80242	0.01420
2076.51666	0.01358
2075.23089	0.01318
2073.94512	0.01323
2072.65935	0.01361
2071.37358	0.01392
2070.08781	0.01384
2068.80204	0.01343
2067.51627	0.01304
2066.23050	0.01291
2064.94474	0.01295
2063.65897	0.01291
2062.37320	0.01274
2061.08743	0.01266
2059.80166	0.01278
2058.51589	0.01286
2057.23012	0.01262
2055.94435	0.01208
2054.65859	0.01153
2053.37282	0.01117
2052.08705	0.01096
2050.80128	0.01076
2049.51551	0.01056
2048.22974	0.01037
2046.94397	0.01005
2045.65820	0.00939
2044.37243	0.00840
2043.08667	0.00740
2041.80090	0.00666
2040.51513	0.00617
2039.22936	0.00582
2037.94359	0.00565
2036.65782	0.00583
2035.37205	0.00621
2034.08628	0.00644
2032.80052	0.00641
2031.51475	0.00637
2030.22898	0.00654
2028.94321	0.00689
2027.65744	0.00723
2026.37167	0.00737
2025.08590	0.00716
2023.80013	0.00651
2022.51436	0.00567
2021.22860	0.00523
2019.94283	0.00563
2018.65706	0.00674
2017.37129	0.00796
2016.08552	0.00878
2014.79975	0.00919
2013.51398	0.00940
2012.22821	0.00951
2010.94245	0.00956
2009.65668	0.00964
2008.37091	0.00979
2007.08514	0.00981
2005.79937	0.00945
2004.51360	0.00885
2003.22783	0.00851
2001.94206	0.00885
2000.65629	0.00980
1999.37053	0.01104
1998.08476	0.01218
1996.79899	0.01287
1995.51322	0.01278
1994.22745	0.01183
1992.94168	0.01043
1991.65591	0.00932
1990.37014	0.00907
1989.08438	0.00974
1987.79861	0.01098
1986.51284	0.01229
1985.22707	0.01316
1983.94130	0.01326
1982.65553	0.01267
1981.36976	0.01176
1980.08399	0.01086
1978.79822	0.01004
1977.51246	0.00936
1976.22669	0.00902
1974.94092	0.00911
1973.65515	0.00955
1972.36938	0.01023
1971.08361	0.01115
1969.79784	0.01213
1968.51207	0.01274
1967.22631	0.01262
1965.94054	0.01187
1964.65477	0.01107
1963.36900	0.01076
1962.08323	0.01114
1960.79746	0.01194
1959.51169	0.01275
1958.22592	0.01329
1956.94015	0.01352
1955.65439	0.01346
1954.36862	0.01310
1953.08285	0.01252
1951.79708	0.01194
1950.51131	0.01162
1949.22554	0.01166
1947.93977	0.01199
1946.65400	0.01249
1945.36823	0.01302
1944.08247	0.01345
1942.79670	0.01364
1941.51093	0.01351
1940.22516	0.01317
1938.93939	0.01294
1937.65362	0.01311
1936.36785	0.01375
1935.08208	0.01461
1933.79632	0.01540
1932.51055	0.01599
1931.22478	0.01637
1929.93901	0.01652
1928.65324	0.01639
1927.36747	0.01601
1926.08170	0.01560
1924.79593	0.01537
1923.51016	0.01536
1922.22440	0.01546
1920.93863	0.01555
1919.65286	0.01562
1918.36709	0.01573
1917.08132	0.01588
1915.79555	0.01595
1914.50978	0.01578
1913.22401	0.01543
1911.93825	0.01514
1910.65248	0.01514
1909.36671	0.01544
1908.08094	0.01583
1906.79517	0.01614
1905.50940	0.01635
1904.22363	0.01646
1902.93786	0.01643
1901.65209	0.01622
1900.36633	0.01596
1899.08056	0.01578
1897.79479	0.01572
1896.50902	0.01568
1895.22325	0.01557
1893.93748	0.01541
1892.65171	0.01527
1891.36594	0.01516
1890.08018	0.01509
1888.79441	0.01503
1887.50864	0.01499
1886.22287	0.01499
1884.93710	0.01498
1883.65133	0.01491
1882.36556	0.01477
1881.07979	0.01465
1879.79402	0.01470
1878.50826	0.01492
1877.22249	0.01519
1875.93672	0.01534
1874.65095	0.01533
1873.36518	0.01525
1872.07941	0.01523
1870.79364	0.01532
1869.50787	0.01547
1868.22211	0.01559
1866.93634	0.01561
1865.65057	0.01557
1864.36480	0.01553
1863.07903	0.01548
1861.79326	0.01537
1860.50749	0.01521
1859.22172	0.01508
1857.93595	0.01508
1856.65019	0.01519
1855.36442	0.01530
1854.07865	0.01538
1852.79288	0.01545
1851.50711	0.01557
1850.22134	0.01569
1848.93557	0.01571
1847.64980	0.01564
1846.36404	0.01556
1845.07827	0.01558
1843.79250	0.01567
1842.50673	0.01575
1841.22096	0.01577
1839.93519	0.01576
1838.64942	0.01576
1837.36365	0.01579
1836.07788	0.01586
1834.79212	0.01596
1833.50635	0.01605
1832.22058	0.01607
1830.93481	0.01599
1829.64904	0.01587
1828.36327	0.01580
1827.07750	0.01588
1825.79173	0.01610
1824.50597	0.01634
1823.22020	0.01648
1821.93443	0.01644
1820.64866	0.01626
1819.36289	0.01604
1818.07712	0.01591
1816.79135	0.01591
1815.50558	0.01599
1814.21981	0.01605
1812.93405	0.01605
1811.64828	0.01599
1810.36251	0.01593
1809.07674	0.01589
1807.79097	0.01583
1806.50520	0.01575
1805.21943	0.01570
1803.93366	0.01572
1802.64790	0.01582
1801.36213	0.01593
1800.07636	0.01604
1798.79059	0.01614
1797.50482	0.01624
1796.21905	0.01635
1794.93328	0.01645
1793.64751	0.01651
1792.36174	0.01648
1791.07598	0.01634
1789.79021	0.01618
1788.50444	0.01610
1787.21867	0.01613
1785.93290	0.01623
1784.64713	0.01631
1783.36136	0.01636
1782.07559	0.01640
1780.78983	0.01650
1779.50406	0.01663
1778.21829	0.01672
1776.93252	0.01676
1775.64675	0.01676
1774.36098	0.01680
1773.07521	0.01691
1771.78944	0.01704
1770.50367	0.01711
1769.21791	0.01708
1767.93214	0.01701
1766.64637	0.01695
1765.36060	0.01695
1764.07483	0.01698
1762.78906	0.01702
1761.50329	0.01705
1760.21752	0.01710
1758.93176	0.01717
1757.64599	0.01727
1756.36022	0.01738
1755.07445	0.01748
1753.78868	0.01757
1752.50291	0.01767
1751.21714	0.01773
1749.93137	0.01775
1748.64560	0.01776
1747.35984	0.01778
1746.07407	0.01782
1744.78830	0.01784
1743.50253	0.01782
1742.21676	0.01776
1740.93099	0.01773
1739.64522	0.01774
1738.35945	0.01783
1737.07369	0.01803
1735.78792	0.01831
1734.50215	0.01854
1733.21638	0.01862
1731.93061	0.01857
1730.64484	0.01851
1729.35907	0.01854
1728.07330	0.01861
1726.78753	0.01868
1725.50177	0.01871
1724.21600	0.01874
1722.93023	0.01884
1721.64446	0.01904
1720.35869	0.01937
1719.07292	0.01981
1717.78715	0.02024
1716.50138	0.02056
1715.21561	0.02074
1713.92985	0.02084
1712.64408	0.02100
1711.35831	0.02126
1710.07254	0.02159
1708.78677	0.02192
1707.50100	0.02226
1706.21523	0.02265
1704.92946	0.02316
1703.64370	0.02383
1702.35793	0.02460
1701.07216	0.02535
1699.78639	0.02600
1698.50062	0.02650
1697.21485	0.02692
1695.92908	0.02730
1694.64331	0.02765
1693.35754	0.02800
1692.07178	0.02841
1690.78601	0.02896
1689.50024	0.02962
1688.21447	0.03039
1686.92870	0.03121
1685.64293	0.03199
1684.35716	0.03264
1683.07139	0.03311
1681.78563	0.03350
1680.49986	0.03397
1679.21409	0.03459
1677.92832	0.03531
1676.64255	0.03605
1675.35678	0.03673
1674.07101	0.03734
1672.78524	0.03792
1671.49947	0.03853
1670.21371	0.03917
1668.92794	0.03981
1667.64217	0.04041
1666.35640	0.04101
1665.07063	0.04163
1663.78486	0.04226
1662.49909	0.04288
1661.21332	0.04344
1659.92756	0.04395
1658.64179	0.04442
1657.35602	0.04489
1656.07025	0.04542
1654.78448	0.04601
1653.49871	0.04653
1652.21294	0.04683
1650.92717	0.04688
1649.64140	0.04686
1648.35564	0.04691
1647.06987	0.04706
1645.78410	0.04720
1644.49833	0.04725
1643.21256	0.04721
1641.92679	0.04715
1640.64102	0.04715
1639.35525	0.04722
1638.06949	0.04734
1636.78372	0.04741
1635.49795	0.04735
1634.21218	0.04713
1632.92641	0.04685
1631.64064	0.04657
1630.35487	0.04632
1629.06910	0.04607
1627.78333	0.04582
1626.49757	0.04559
1625.21180	0.04538
1623.92603	0.04517
1622.64026	0.04491
1621.35449	0.04460
1620.06872	0.04429
1618.78295	0.04405
1617.49718	0.04386
1616.21142	0.04364
1614.92565	0.04339
1613.63988	0.04314
1612.35411	0.04296
1611.06834	0.04285
1609.78257	0.04280
1608.49680	0.04279
1607.21103	0.04279
1605.92526	0.04276
1604.63950	0.04271
1603.35373	0.04263
1602.06796	0.04256
1600.78219	0.04253
1599.49642	0.04255
1598.21065	0.04262
1596.92488	0.04275
1595.63911	0.04291
1594.35335	0.04310
1593.06758	0.04329
1591.78181	0.04348
1590.49604	0.04367
1589.21027	0.04386
1587.92450	0.04408
1586.63873	0.04433
1585.35296	0.04461
1584.06719	0.04489
1582.78143	0.04516
1581.49566	0.04541
1580.20989	0.04568
1578.92412	0.04600
1577.63835	0.04636
1576.35258	0.04670
1575.06681	0.04695
1573.78104	0.04715
1572.49528	0.04737
1571.20951	0.04767
1569.92374	0.04803
1568.63797	0.04837
1567.35220	0.04865
1566.06643	0.04887
1564.78066	0.04905
1563.49489	0.04928
1562.20912	0.04964
1560.92336	0.05014
1559.63759	0.05066
1558.35182	0.05099
1557.06605	0.05105
1555.78028	0.05093
1554.49451	0.05079
1553.20874	0.05074
1551.92297	0.05078
1550.63721	0.05088
1549.35144	0.05098
1548.06567	0.05105
1546.77990	0.05109
1545.49413	0.05116
1544.20836	0.05124
1542.92259	0.05132
1541.63682	0.05134
1540.35105	0.05127
1539.06529	0.05107
1537.77952	0.05078
1536.49375	0.05049
1535.20798	0.05028
1533.92221	0.05016
1532.63644	0.05011
1531.35067	0.05009
1530.06490	0.05016
1528.77914	0.05034
1527.49337	0.05064
1526.20760	0.05102
1524.92183	0.05144
1523.63606	0.05193
1522.35029	0.05251
1521.06452	0.05313
1519.77875	0.05375
1518.49298	0.05435
1517.20722	0.05497
1515.92145	0.05564
1514.63568	0.05634
1513.34991	0.05707
1512.06414	0.05786
1510.77837	0.05874
1509.49260	0.05976
1508.20683	0.06085
1506.92107	0.06190
1505.63530	0.06275
1504.34953	0.06339
1503.06376	0.06395
1501.77799	0.06455
1500.49222	0.06526
1499.20645	0.06604
1497.92068	0.06680
1496.63491	0.06741
1495.34915	0.06786
1494.06338	0.06819
1492.77761	0.06853
1491.49184	0.06897
1490.20607	0.06951
1488.92030	0.07009
1487.63453	0.07067
1486.34876	0.07123
1485.06299	0.07179
1483.77723	0.07239
1482.49146	0.07310
1481.20569	0.07393
1479.91992	0.07486
1478.63415	0.07581
1477.34838	0.07673
1476.06261	0.07761
1474.77684	0.07847
1473.49108	0.07928
1472.20531	0.07998
1470.91954	0.08050
1469.63377	0.08084
1468.34800	0.08106
1467.06223	0.08123
1465.77646	0.08139
1464.49069	0.08156
1463.20492	0.08178
1461.91916	0.08211
1460.63339	0.08257
1459.34762	0.08316
1458.06185	0.08377
1456.77608	0.08429
1455.49031	0.08468
1454.20454	0.08495
1452.91877	0.08520
1451.63301	0.08547
1450.34724	0.08576
1449.06147	0.08606
1447.77570	0.08629
1446.48993	0.08643
1445.20416	0.08647
1443.91839	0.08640
1442.63262	0.08624
1441.34685	0.08605
1440.06109	0.08595
1438.77532	0.08599
1437.48955	0.08618
1436.20378	0.08643
1434.91801	0.08672
1433.63224	0.08708
1432.34647	0.08757
1431.06070	0.08823
1429.77494	0.08908
1428.48917	0.09008
1427.20340	0.09116
1425.91763	0.09228
1424.63186	0.09345
1423.34609	0.09469
1422.06032	0.09599
1420.77455	0.09729
1419.48878	0.09846
1418.20302	0.09942
1416.91725	0.10019
1415.63148	0.10082
1414.34571	0.10134
1413.05994	0.10176
1411.77417	0.10205
1410.48840	0.10218
1409.20263	0.10215
1407.91687	0.10190
1406.63110	0.10142
1405.34533	0.10072
1404.05956	0.09981
1402.77379	0.09873
1401.48802	0.09751
1400.20225	0.09619
1398.91648	0.09479
1397.63071	0.09333
1396.34495	0.09180
1395.05918	0.09021
1393.77341	0.08856
1392.48764	0.08686
1391.20187	0.08517
1389.91610	0.08350
1388.63033	0.08186
1387.34456	0.08022
1386.05880	0.07855
1384.77303	0.07686
1383.48726	0.07516
1382.20149	0.07346
1380.91572	0.07177
1379.62995	0.07008
1378.34418	0.06838
1377.05841	0.06665
1375.77264	0.06489
1374.48688	0.06311
1373.20111	0.06132
1371.91534	0.05957
1370.62957	0.05790
1369.34380	0.05635
1368.05803	0.05489
1366.77226	0.05349
1365.48649	0.05209
1364.20073	0.05070
1362.91496	0.04935
1361.62919	0.04805
1360.34342	0.04683
1359.05765	0.04571
1357.77188	0.04469
1356.48611	0.04376
1355.20034	0.04292
1353.91457	0.04215
1352.62881	0.04141
1351.34304	0.04068
1350.05727	0.03995
1348.77150	0.03925
1347.48573	0.03859
1346.19996	0.03801
1344.91419	0.03751
1343.62842	0.03706
1342.34266	0.03663
1341.05689	0.03619
1339.77112	0.03572
1338.48535	0.03524
1337.19958	0.03475
1335.91381	0.03424
1334.62804	0.03375
1333.34227	0.03329
1332.05650	0.03291
1330.77074	0.03259
1329.48497	0.03228
1328.19920	0.03195
1326.91343	0.03159
1325.62766	0.03125
1324.34189	0.03095
1323.05612	0.03072
1321.77035	0.03051
1320.48459	0.03030
1319.19882	0.03006
1317.91305	0.02983
1316.62728	0.02961
1315.34151	0.02937
1314.05574	0.02909
1312.76997	0.02877
1311.48420	0.02847
1310.19843	0.02820
1308.91267	0.02797
1307.62690	0.02774
1306.34113	0.02751
1305.05536	0.02726
1303.76959	0.02698
1302.48382	0.02668
1301.19805	0.02637
1299.91228	0.02610
1298.62652	0.02590
1297.34075	0.02574
1296.05498	0.02561
1294.76921	0.02551
1293.48344	0.02544
1292.19767	0.02539
1290.91190	0.02532
1289.62613	0.02521
1288.34036	0.02507
1287.05460	0.02491
1285.76883	0.02477
1284.48306	0.02468
1283.19729	0.02462
1281.91152	0.02454
1280.62575	0.02444
1279.33998	0.02432
1278.05421	0.02418
1276.76845	0.02405
1275.48268	0.02389
1274.19691	0.02372
1272.91114	0.02358
1271.62537	0.02353
1270.33960	0.02358
1269.05383	0.02372
1267.76806	0.02392
1266.48229	0.02418
1265.19653	0.02446
1263.91076	0.02474
1262.62499	0.02493
1261.33922	0.02496
1260.05345	0.02484
1258.76768	0.02460
1257.48191	0.02429
1256.19614	0.02396
1254.91037	0.02363
1253.62461	0.02334
1252.33884	0.02306
1251.05307	0.02281
1249.76730	0.02260
1248.48153	0.02245
1247.19576	0.02236
1245.90999	0.02227
1244.62422	0.02216
1243.33846	0.02199
1242.05269	0.02178
1240.76692	0.02158
1239.48115	0.02145
1238.19538	0.02140
1236.90961	0.02140
1235.62384	0.02139
1234.33807	0.02133
1233.05230	0.02120
1231.76654	0.02101
1230.48077	0.02077
1229.19500	0.02052
1227.90923	0.02030
1226.62346	0.02011
1225.33769	0.01994
1224.05192	0.01979
1222.76615	0.01964
1221.48039	0.01950
1220.19462	0.01937
1218.90885	0.01925
1217.62308	0.01912
1216.33731	0.01901
1215.05154	0.01891
1213.76577	0.01883
1212.48000	0.01874
1211.19423	0.01865
1209.90847	0.01857
1208.62270	0.01854
1207.33693	0.01853
1206.05116	0.01855
1204.76539	0.01858
1203.47962	0.01858
1202.19385	0.01854
1200.90808	0.01844
1199.62232	0.01828
1198.33655	0.01819
1197.05078	0.01816
1195.76501	0.01820
1194.47924	0.01826
1193.19347	0.01827
1191.90770	0.01816
1190.62193	0.01797
1189.33616	0.01778
1188.05040	0.01765
1186.76463	0.01759
1185.47886	0.01760
1184.19309	0.01763
1182.90732	0.01762
1181.62155	0.01751
1180.33578	0.01734
1179.05001	0.01718
1177.76425	0.01712
1176.47848	0.01715
1175.19271	0.01718
1173.90694	0.01719
1172.62117	0.01723
1171.33540	0.01733
1170.04963	0.01750
1168.76386	0.01766
1167.47809	0.01778
1166.19233	0.01784
1164.90656	0.01788
1163.62079	0.01796
1162.33502	0.01812
1161.04925	0.01836
1159.76348	0.01861
1158.47771	0.01881
1157.19194	0.01895
1155.90618	0.01907
1154.62041	0.01922
1153.33464	0.01942
1152.04887	0.01966
1150.76310	0.01994
1149.47733	0.02024
1148.19156	0.02061
1146.90579	0.02107
1145.62002	0.02161
1144.33426	0.02221
1143.04849	0.02284
1141.76272	0.02348
1140.47695	0.02417
1139.19118	0.02496
1137.90541	0.02589
1136.61964	0.02695
1135.33387	0.02812
1134.04811	0.02939
1132.76234	0.03075
1131.47657	0.03220
1130.19080	0.03377
1128.90503	0.03555
1127.61926	0.03761
1126.33349	0.03989
1125.04772	0.04230
1123.76195	0.04474
1122.47619	0.04724
1121.19042	0.04990
1119.90465	0.05280
1118.61888	0.05586
1117.33311	0.05896
1116.04734	0.06200
1114.76157	0.06502
1113.47580	0.06806
1112.19004	0.07113
1110.90427	0.07418
1109.61850	0.07719
1108.33273	0.08017
1107.04696	0.08319
1105.76119	0.08624
1104.47542	0.08931
1103.18965	0.09236
1101.90388	0.09531
1100.61812	0.09811
1099.33235	0.10075
1098.04658	0.10326
1096.76081	0.10569
1095.47504	0.10800
1094.18927	0.11016
1092.90350	0.11216
1091.61773	0.11399
1090.33197	0.11565
1089.04620	0.11713
1087.76043	0.11852
1086.47466	0.11993
1085.18889	0.12151
1083.90312	0.12328
1082.61735	0.12522
1081.33158	0.12728
1080.04581	0.12949
1078.76005	0.13188
1077.47428	0.13443
1076.18851	0.13709
1074.90274	0.13979
1073.61697	0.14254
1072.33120	0.14532
1071.04543	0.14816
1069.75966	0.15109
1068.47390	0.15414
1067.18813	0.15730
1065.90236	0.16052
1064.61659	0.16377
1063.33082	0.16702
1062.04505	0.17021
1060.75928	0.17331
1059.47351	0.17630
1058.18774	0.17921
1056.90198	0.18212
1055.61621	0.18505
1054.33044	0.18802
1053.04467	0.19098
1051.75890	0.19389
1050.47313	0.19678
1049.18736	0.19974
1047.90159	0.20285
1046.61583	0.20610
1045.33006	0.20942
1044.04429	0.21275
1042.75852	0.21607
1041.47275	0.21943
1040.18698	0.22279
1038.90121	0.22615
1037.61544	0.22948
1036.32967	0.23277
1035.04391	0.23599
1033.75814	0.23905
1032.47237	0.24192
1031.18660	0.24454
1029.90083	0.24690
1028.61506	0.24895
1027.32929	0.25068
1026.04352	0.25211
1024.75775	0.25325
1023.47199	0.25413
1022.18622	0.25478
1020.90045	0.25512
1019.61468	0.25504
1018.32891	0.25444
1017.04314	0.25336
1015.75737	0.25190
1014.47160	0.25010
1013.18584	0.24790
1011.90007	0.24524
1010.61430	0.24217
1009.32853	0.23873
1008.04276	0.23495
1006.75699	0.23080
1005.47122	0.22627
1004.18545	0.22132
1002.89968	0.21596
1001.61392	0.21029
1000.32815	0.20441
999.04238	0.19837
997.75661	0.19217
996.47084	0.18581
995.18507	0.17936
993.89930	0.17293
992.61353	0.16658
991.32777	0.16036
990.04200	0.15428
988.75623	0.14839
987.47046	0.14273
986.18469	0.13734
984.89892	0.13222
983.61315	0.12733
982.32738	0.12262
981.04161	0.11805
979.75585	0.11372
978.47008	0.10974
977.18431	0.10623
975.89854	0.10316
974.61277	0.10045
973.32700	0.09806
972.04123	0.09605
970.75546	0.09454
969.46970	0.09362
968.18393	0.09328
966.89816	0.09342
965.61239	0.09390
964.32662	0.09451
963.04085	0.09510
961.75508	0.09547
960.46931	0.09545
959.18354	0.09489
957.89778	0.09375
956.61201	0.09210
955.32624	0.09011
954.04047	0.08794
952.75470	0.08577
951.46893	0.08369
950.18316	0.08168
948.89739	0.07966
947.61163	0.07761
946.32586	0.07552
945.04009	0.07346
943.75432	0.07150
942.46855	0.06970
941.18278	0.06806
939.89701	0.06653
938.61124	0.06509
937.32547	0.06370
936.03971	0.06237
934.75394	0.06110
933.46817	0.05989
932.18240	0.05875
930.89663	0.05771
929.61086	0.05678
928.32509	0.05599
927.03932	0.05530
925.75356	0.05467
924.46779	0.05405
923.18202	0.05343
921.89625	0.05280
920.61048	0.05217
919.32471	0.05155
918.03894	0.05095
916.75317	0.05036
915.46740	0.04977
914.18164	0.04920
912.89587	0.04867
911.61010	0.04823
910.32433	0.04786
909.03856	0.04748
907.75279	0.04701
906.46702	0.04647
905.18125	0.04598
903.89549	0.04560
902.60972	0.04527
901.32395	0.04487
900.03818	0.04443
898.75241	0.04406
897.46664	0.04383
896.18087	0.04364
894.89510	0.04339
893.60933	0.04311
892.32357	0.04289
891.03780	0.04282
889.75203	0.04294
888.46626	0.04325
887.18049	0.04382
885.89472	0.04474
884.60895	0.04617
883.32318	0.04817
882.03742	0.05052
880.75165	0.05281
879.46588	0.05471
878.18011	0.05621
876.89434	0.05758
875.60857	0.05910
874.32280	0.06081
873.03703	0.06243
871.75126	0.06354
870.46550	0.06387
869.17973	0.06338
867.89396	0.06220
866.60819	0.06055
865.32242	0.05862
864.03665	0.05656
862.75088	0.05450
861.46511	0.05259
860.17935	0.05096
858.89358	0.04963
857.60781	0.04850
856.32204	0.04747
855.03627	0.04650
853.75050	0.04564
852.46473	0.04493
851.17896	0.04437
849.89319	0.04396
848.60743	0.04369
847.32166	0.04348
846.03589	0.04322
844.75012	0.04287
843.46435	0.04248
842.17858	0.04212
840.89281	0.04184
839.60704	0.04161
838.32128	0.04138
837.03551	0.04114
835.74974	0.04094
834.46397	0.04084
833.17820	0.04080
831.89243	0.04073
830.60666	0.04057
829.32089	0.04040
828.03512	0.04031
826.74936	0.04034
825.46359	0.04045
824.17782	0.04053
822.89205	0.04058
821.60628	0.04066
820.32051	0.04083
819.03474	0.04108
817.74897	0.04132
816.46321	0.04146
815.17744	0.04145
813.89167	0.04136
812.60590	0.04127
811.32013	0.04127
810.03436	0.04140
808.74859	0.04159
807.46282	0.04173
806.17705	0.04181
804.89129	0.04186
803.60552	0.04192
802.31975	0.04197
801.03398	0.04194
799.74821	0.04183
798.46244	0.04171
797.17667	0.04162
795.89090	0.04154
794.60513	0.04142
793.31937	0.04124
792.03360	0.04103
790.74783	0.04083
789.46206	0.04064
788.17629	0.04047
786.89052	0.04034
785.60475	0.04022
784.31898	0.04011
783.03322	0.03998
781.74745	0.03982
780.46168	0.03962
779.17591	0.03942
777.89014	0.03927
776.60437	0.03916
775.31860	0.03904
774.03283	0.03894
772.74706	0.03889
771.46130	0.03889
770.17553	0.03891
768.88976	0.03892
767.60399	0.03891
766.31822	0.03891
765.03245	0.03889
763.74668	0.03885
762.46091	0.03885
761.17515	0.03893
759.88938	0.03908
758.60361	0.03926
757.31784	0.03937
756.03207	0.03932
754.74630	0.03914
753.46053	0.03895
752.17476	0.03887
750.88899	0.03887
749.60323	0.03890
748.31746	0.03894
747.03169	0.03899
745.74592	0.03904
744.46015	0.03904
743.17438	0.03896
741.88861	0.03882
740.60284	0.03868
739.31708	0.03863
738.03131	0.03872
736.74554	0.03889
735.45977	0.03900
734.17400	0.03901
732.88823	0.03898
731.60246	0.03895
730.31669	0.03893
729.03092	0.03893
727.74516	0.03897
726.45939	0.03900
725.17362	0.03897
723.88785	0.03890
722.60208	0.03881
721.31631	0.03873
720.03054	0.03873
718.74477	0.03887
717.45901	0.03897
716.17324	0.03902
714.88747	0.03902
713.60170	0.03901
712.31593	0.03902
711.03016	0.03907
709.74439	0.03915
708.45862	0.03922
707.17285	0.03926
705.88709	0.03929
704.60132	0.03934
703.31555	0.03939
702.02978	0.03943
700.74401	0.03944
699.45824	0.03943
698.17247	0.03942
696.88670	0.03941
695.60094	0.03940
694.31517	0.03936
693.02940	0.03929
691.74363	0.03921
690.45786	0.03917
689.17209	0.03917
687.88632	0.03917
686.60055	0.03913
685.31478	0.03901
684.02902	0.03887
682.74325	0.03876
681.45748	0.03872
680.17171	0.03870
678.88594	0.03867
677.60017	0.03860
676.31440	0.03848
675.02863	0.03837
673.74287	0.03841
672.45710	0.03871
671.17133	0.03906
669.88556	0.03872
668.59979	0.03776
667.31402	0.03818
666.02825	0.03936
664.74248	0.03935
663.45671	0.03861
662.17095	0.03796
660.88518	0.03759
659.59941	0.03744
658.31364	0.03742
657.02787	0.03739
655.74210	0.03730
654.45633	0.03712
653.17056	0.03690
651.88480	0.03672
650.59903	0.03663
649.31326	0.03665
648.02749	0.03676
646.74172	0.03689
645.45595	0.03697
644.17018	0.03701
642.88441	0.03704
641.59864	0.03707
640.31288	0.03710
639.02711	0.03714
637.74134	0.03720
636.45557	0.03731
635.16980	0.03748
633.88403	0.03772
632.59826	0.03803
631.31249	0.03851
630.02673	0.03923
628.74096	0.03979
627.45519	0.03968
626.16942	0.04091
624.88365	0.04326
623.59788	0.04609
622.31211	0.04886
621.02634	0.05089
619.74057	0.05196
618.45481	0.05275
617.16904	0.05411
615.88327	0.05636
614.59750	0.05946
613.31173	0.06348
612.02596	0.06876
610.74019	0.07533
609.45442	0.08235
608.16866	0.08851
606.88289	0.09331
605.59712	0.09729
604.31135	0.10089
603.02558	0.10373
601.73981	0.10502
600.45404	0.10438
599.16827	0.10220
597.88250	0.09921
596.59674	0.09606
595.31097	0.09305
594.02520	0.09027
592.73943	0.08781
591.45366	0.08586
590.16789	0.08461
588.88212	0.08414
587.59635	0.08435
586.31059	0.08510
585.02482	0.08633
583.73905	0.08804
582.45328	0.09016
581.16751	0.09256
579.88174	0.09512
578.59597	0.09777
577.31020	0.10042
576.02443	0.10299
574.73867	0.10545
573.45290	0.10787
572.16713	0.11035
570.88136	0.11309
569.59559	0.11623
568.30982	0.11982
567.02405	0.12371
565.73828	0.12757
564.45251	0.13100
563.16675	0.13357
561.88098	0.13489
560.59521	0.13466
559.30944	0.13273
558.02367	0.12915
556.73790	0.12427
555.45213	0.11868
554.16636	0.11303
552.88060	0.10770
551.59483	0.10274
550.30906	0.09797
549.02329	0.09328
547.73752	0.08879
546.45175	0.08462
545.16598	0.08083
543.88021	0.07743
542.59444	0.07448
541.30868	0.07198
540.02291	0.06982
538.73714	0.06785
537.45137	0.06597
536.16560	0.06419
534.87983	0.06256
533.59406	0.06108
532.30829	0.05969
531.02253	0.05833
529.73676	0.05702
528.45099	0.05581
527.16522	0.05470
525.87945	0.05365
524.59368	0.05262
523.30791	0.05158
522.02214	0.05055
520.73637	0.04953
519.45061	0.04854
518.16484	0.04762
516.87907	0.04679
515.59330	0.04607
514.30753	0.04542
513.02176	0.04480
511.73599	0.04417
510.45022	0.04352
509.16446	0.04286
507.87869	0.04223
506.59292	0.04166
505.30715	0.04116
504.02138	0.04071
502.73561	0.04030
501.44984	0.03990
500.16407	0.03950
498.87830	0.03907
497.59254	0.03860
496.30677	0.03811
495.02100	0.03766
493.73523	0.03731
492.44946	0.03712
491.16369	0.03704
489.87792	0.03696
488.59215	0.03677
487.30639	0.03644
486.02062	0.03602
484.73485	0.03563
483.44908	0.03537
482.16331	0.03525
480.87754	0.03522
479.59177	0.03523
478.30600	0.03527
477.02023	0.03538
475.73447	0.03560
474.44870	0.03588
473.16293	0.03611
471.87716	0.03617
470.59139	0.03604
469.30562	0.03582
468.01985	0.03559
466.73408	0.03538
465.44832	0.03514
464.16255	0.03481
462.87678	0.03442
461.59101	0.03405
460.30524	0.03374
459.01947	0.03347
457.73370	0.03315
456.44793	0.03273
455.16216	0.03226
453.87640	0.03184
452.59063	0.03149
451.30486	0.03118
450.01909	0.03088
448.73332	0.03057
447.44755	0.03030
446.16178	0.03010
444.87601	0.02998
443.59025	0.02992
442.30448	0.02984
441.01871	0.02968
439.73294	0.02942
438.44717	0.02912
437.16140	0.02883
435.87563	0.02860
434.58986	0.02840
433.30409	0.02826
432.01833	0.02818
430.73256	0.02815
429.44679	0.02811
428.16102	0.02802
426.87525	0.02786
425.58948	0.02764
424.30371	0.02741
423.01794	0.02721
421.73218	0.02706
420.44641	0.02697
419.16064	0.02690
417.87487	0.02679
416.58910	0.02661
415.30333	0.02640
414.01756	0.02623
412.73179	0.02613
411.44602	0.02609
410.16026	0.02610
408.87449	0.02615
407.58872	0.02623
406.30295	0.02631
405.01718	0.02633
403.73141	0.02628
402.44564	0.02621
401.15987	0.02616
399.87411	0.02615
