3997.45528	0.04449
3996.16951	0.04474
3994.88374	0.04516
3993.59798	0.04591
3992.31221	0.04668
3991.02644	0.04679
3989.74067	0.04601
3988.45490	0.04493
3987.16913	0.04451
3985.88336	0.04517
3984.59759	0.04648
3983.31183	0.04760
3982.02606	0.04799
3980.74029	0.04758
3979.45452	0.04662
3978.16875	0.04537
3976.88298	0.04417
3975.59721	0.04338
3974.31144	0.04328
3973.02567	0.04388
3971.73991	0.04491
3970.45414	0.04590
3969.16837	0.04651
3967.88260	0.04671
3966.59683	0.04674
3965.31106	0.04677
3964.02529	0.04670
3962.73952	0.04641
3961.45376	0.04593
3960.16799	0.04545
3958.88222	0.04514
3957.59645	0.04509
3956.31068	0.04523
3955.02491	0.04533
3953.73914	0.04512
3952.45337	0.04456
3951.16760	0.04386
3949.88184	0.04326
3948.59607	0.04289
3947.31030	0.04271
3946.02453	0.04258
3944.73876	0.04237
3943.45299	0.04218
3942.16722	0.04218
3940.88145	0.04244
3939.59569	0.04293
3938.30992	0.04357
3937.02415	0.04416
3935.73838	0.04439
3934.45261	0.04416
3933.16684	0.04391
3931.88107	0.04415
3930.59530	0.04476
3929.30953	0.04509
3928.02377	0.04469
3926.73800	0.04396
3925.45223	0.04365
3924.16646	0.04408
3922.88069	0.04473
3921.59492	0.04486
3920.30915	0.04434
3919.02338	0.04374
3917.73762	0.04362
3916.45185	0.04401
3915.16608	0.04441
3913.88031	0.04432
3912.59454	0.04375
3911.30877	0.04317
3910.02300	0.04293
3908.73723	0.04304
3907.45146	0.04316
3906.16570	0.04304
3904.87993	0.04275
3903.59416	0.04270
3902.30839	0.04313
3901.02262	0.04391
3899.73685	0.04464
3898.45108	0.04499
3897.16531	0.04485
3895.87955	0.04427
3894.59378	0.04340
3893.30801	0.04248
3892.02224	0.04180
3890.73647	0.04166
3889.45070	0.04186
3888.16493	0.04191
3886.87916	0.04173
3885.59339	0.04184
3884.30763	0.04251
3883.02186	0.04337
3881.73609	0.04397
3880.45032	0.04429
3879.16455	0.04435
3877.87878	0.04391
3876.59301	0.04299
3875.30724	0.04223
3874.02148	0.04225
3872.73571	0.04273
3871.44994	0.04286
3870.16417	0.04246
3868.87840	0.04201
3867.59263	0.04171
3866.30686	0.04147
3865.02109	0.04136
3863.73532	0.04147
3862.44956	0.04165
3861.16379	0.04179
3859.87802	0.04205
3858.59225	0.04263
3857.30648	0.04325
3856.02071	0.04334
3854.73494	0.04277
3853.44917	0.04218
3852.16341	0.04217
3850.87764	0.04268
3849.59187	0.04335
3848.30610	0.04398
3847.02033	0.04443
3845.73456	0.04460
3844.44879	0.04447
3843.16302	0.04417
3841.87725	0.04387
3840.59149	0.04352
3839.30572	0.04320
3838.01995	0.04315
3836.73418	0.04354
3835.44841	0.04408
3834.16264	0.04429
3832.87687	0.04398
3831.59110	0.04326
3830.30534	0.04233
3829.01957	0.04149
3827.73380	0.04108
3826.44803	0.04129
3825.16226	0.04181
3823.87649	0.04203
3822.59072	0.04173
3821.30495	0.04137
3820.01918	0.04130
3818.73342	0.04117
3817.44765	0.04071
3816.16188	0.04037
3814.87611	0.04061
3813.59034	0.04113
3812.30457	0.04153
3811.01880	0.04186
3809.73303	0.04209
3808.44726	0.04205
3807.16150	0.04200
3805.87573	0.04242
3804.58996	0.04322
3803.30419	0.04393
3802.01842	0.04440
3800.73265	0.04478
3799.44688	0.04477
3798.16111	0.04401
3796.87535	0.04286
3795.58958	0.04196
3794.30381	0.04143
3793.01804	0.04092
3791.73227	0.04031
3790.44650	0.03977
3789.16073	0.03944
3787.87496	0.03923
3786.58919	0.03907
3785.30343	0.03910
3784.01766	0.03951
3782.73189	0.04022
3781.44612	0.04089
3780.16035	0.04126
3778.87458	0.04124
3777.58881	0.04082
3776.30304	0.04007
3775.01728	0.03925
3773.73151	0.03875
3772.44574	0.03869
3771.15997	0.03901
3769.87420	0.03956
3768.58843	0.04004
3767.30266	0.04013
3766.01689	0.03993
3764.73112	0.03988
3763.44536	0.04016
3762.15959	0.04046
3760.87382	0.04042
3759.58805	0.03997
3758.30228	0.03928
3757.01651	0.03859
3755.73074	0.03809
3754.44497	0.03788
3753.15921	0.03803
3751.87344	0.03859
3750.58767	0.03933
3749.30190	0.04004
3748.01613	0.04057
3746.73036	0.04061
3745.44459	0.04025
3744.15882	0.04025
3742.87305	0.04072
3741.58729	0.04085
3740.30152	0.04045
3739.01575	0.04016
3737.72998	0.04032
3736.44421	0.04054
3735.15844	0.04021
3733.87267	0.03934
3732.58690	0.03840
3731.30114	0.03805
3730.01537	0.03830
3728.72960	0.03843
3727.44383	0.03816
3726.15806	0.03763
3724.87229	0.03715
3723.58652	0.03712
3722.30075	0.03756
3721.01498	0.03820
3719.72922	0.03875
3718.44345	0.03892
3717.15768	0.03877
3715.87191	0.03844
3714.58614	0.03801
3713.30037	0.03761
3712.01460	0.03726
3710.72883	0.03734
3709.44307	0.03808
3708.15730	0.03891
3706.87153	0.03948
3705.58576	0.03970
3704.29999	0.03962
3703.01422	0.03945
3701.72845	0.03931
3700.44268	0.03937
3699.15691	0.03967
3697.87115	0.03997
3696.58538	0.03993
3695.29961	0.03928
3694.01384	0.03816
3692.72807	0.03686
3691.44230	0.03606
3690.15653	0.03619
3688.87076	0.03707
3687.58500	0.03827
3686.29923	0.03922
3685.01346	0.03948
3683.72769	0.03939
3682.44192	0.03952
3681.15615	0.04001
3679.87038	0.04056
3678.58461	0.04068
3677.29884	0.04009
3676.01308	0.03931
3674.72731	0.03907
3673.44154	0.03915
3672.15577	0.03886
3670.87000	0.03841
3669.58423	0.03851
3668.29846	0.03913
3667.01269	0.03962
3665.72693	0.03965
3664.44116	0.03947
3663.15539	0.03941
3661.86962	0.03947
3660.58385	0.03945
3659.29808	0.03928
3658.01231	0.03915
3656.72654	0.03940
3655.44077	0.04005
3654.15501	0.04056
3652.86924	0.04036
3651.58347	0.03956
3650.29770	0.03879
3649.01193	0.03848
3647.72616	0.03864
3646.44039	0.03909
3645.15462	0.03964
3643.86886	0.04005
3642.58309	0.04025
3641.29732	0.04028
3640.01155	0.04025
3638.72578	0.04037
3637.44001	0.04088
3636.15424	0.04186
3634.86847	0.04312
3633.58270	0.04423
3632.29694	0.04483
3631.01117	0.04487
3629.72540	0.04471
3628.43963	0.04490
3627.15386	0.04540
3625.86809	0.04558
3624.58232	0.04507
3623.29655	0.04434
3622.01079	0.04382
3620.72502	0.04383
3619.43925	0.04440
3618.15348	0.04559
3616.86771	0.04717
3615.58194	0.04845
3614.29617	0.04894
3613.01040	0.04872
3611.72463	0.04821
3610.43887	0.04756
3609.15310	0.04685
3607.86733	0.04623
3606.58156	0.04594
3605.29579	0.04605
3604.01002	0.04653
3602.72425	0.04727
3601.43848	0.04780
3600.15272	0.04791
3598.86695	0.04789
3597.58118	0.04807
3596.29541	0.04830
3595.00964	0.04872
3593.72387	0.04951
3592.43810	0.05055
3591.15233	0.05185
3589.86656	0.05316
3588.58080	0.05393
3587.29503	0.05416
3586.00926	0.05402
3584.72349	0.05374
3583.43772	0.05364
3582.15195	0.05375
3580.86618	0.05382
3579.58041	0.05371
3578.29464	0.05353
3577.00888	0.05363
3575.72311	0.05426
3574.43734	0.05521
3573.15157	0.05605
3571.86580	0.05656
3570.58003	0.05681
3569.29426	0.05700
3568.00849	0.05722
3566.72273	0.05733
3565.43696	0.05719
3564.15119	0.05694
3562.86542	0.05682
3561.57965	0.05701
3560.29388	0.05739
3559.00811	0.05768
3557.72234	0.05771
3556.43657	0.05746
3555.15081	0.05713
3553.86504	0.05698
3552.57927	0.05723
3551.29350	0.05789
3550.00773	0.05880
3548.72196	0.05983
3547.43619	0.06088
3546.15042	0.06177
3544.86466	0.06221
3543.57889	0.06205
3542.29312	0.06158
3541.00735	0.06124
3539.72158	0.06128
3538.43581	0.06160
3537.15004	0.06193
3535.86427	0.06214
3534.57850	0.06233
3533.29274	0.06270
3532.00697	0.06329
3530.72120	0.06395
3529.43543	0.06445
3528.14966	0.06468
3526.86389	0.06466
3525.57812	0.06457
3524.29235	0.06469
3523.00659	0.06529
3521.72082	0.06637
3520.43505	0.06763
3519.14928	0.06866
3517.86351	0.06925
3516.57774	0.06948
3515.29197	0.06944
3514.00620	0.06916
3512.72043	0.06872
3511.43467	0.06831
3510.14890	0.06818
3508.86313	0.06846
3507.57736	0.06909
3506.29159	0.06987
3505.00582	0.07062
3503.72005	0.07127
3502.43428	0.07177
3501.14852	0.07206
3499.86275	0.07204
3498.57698	0.07173
3497.29121	0.07130
3496.00544	0.07093
3494.71967	0.07070
3493.43390	0.07061
3492.14813	0.07070
3490.86236	0.07102
3489.57660	0.07158
3488.29083	0.07232
3487.00506	0.07312
3485.71929	0.07381
3484.43352	0.07426
3483.14775	0.07441
3481.86198	0.07424
3480.57621	0.07382
3479.29045	0.07334
3478.00468	0.07305
3476.71891	0.07309
3475.43314	0.07338
3474.14737	0.07380
3472.86160	0.07433
3471.57583	0.07490
3470.29006	0.07532
3469.00429	0.07544
3467.71853	0.07538
3466.43276	0.07532
3465.14699	0.07534
3463.86122	0.07540
3462.57545	0.07558
3461.28968	0.07592
3460.00391	0.07629
3458.71814	0.07652
3457.43238	0.07667
3456.14661	0.07696
3454.86084	0.07741
3453.57507	0.07789
3452.28930	0.07827
3451.00353	0.07852
3449.71776	0.07855
3448.43199	0.07824
3447.14622	0.07774
3445.86046	0.07746
3444.57469	0.07766
3443.28892	0.07812
3442.00315	0.07841
3440.71738	0.07839
3439.43161	0.07833
3438.14584	0.07860
3436.86007	0.07926
3435.57431	0.08005
3434.28854	0.08060
3433.00277	0.08072
3431.71700	0.08048
3430.43123	0.08015
3429.14546	0.07991
3427.85969	0.07977
3426.57392	0.07965
3425.28815	0.07959
3424.00239	0.07970
3422.71662	0.08004
3421.43085	0.08058
3420.14508	0.08124
3418.85931	0.08188
3417.57354	0.08231
3416.28777	0.08247
3415.00200	0.08248
3413.71624	0.08252
3412.43047	0.08264
3411.14470	0.08274
3409.85893	0.08272
3408.57316	0.08266
3407.28739	0.08267
3406.00162	0.08278
3404.71585	0.08287
3403.43008	0.08292
3402.14432	0.08306
3400.85855	0.08338
3399.57278	0.08380
3398.28701	0.08417
3397.00124	0.08441
3395.71547	0.08455
3394.42970	0.08458
3393.14393	0.08442
3391.85817	0.08402
3390.57240	0.08344
3389.28663	0.08294
3388.00086	0.08277
3386.71509	0.08305
3385.42932	0.08367
3384.14355	0.08442
3382.85778	0.08502
3381.57201	0.08533
3380.28625	0.08536
3379.00048	0.08526
3377.71471	0.08515
3376.42894	0.08507
3375.14317	0.08498
3373.85740	0.08490
3372.57163	0.08486
3371.28586	0.08488
3370.00010	0.08490
3368.71433	0.08494
3367.42856	0.08503
3366.14279	0.08520
3364.85702	0.08543
3363.57125	0.08567
3362.28548	0.08585
3360.99971	0.08585
3359.71394	0.08554
3358.42818	0.08498
3357.14241	0.08451
3355.85664	0.08453
3354.57087	0.08508
3353.28510	0.08580
3351.99933	0.08625
3350.71356	0.08632
3349.42779	0.08624
3348.14202	0.08618
3346.85626	0.08610
3345.57049	0.08593
3344.28472	0.08580
3342.99895	0.08596
3341.71318	0.08643
3340.42741	0.08685
3339.14164	0.08688
3337.85587	0.08659
3336.57011	0.08639
3335.28434	0.08668
3333.99857	0.08737
3332.71280	0.08797
3331.42703	0.08804
3330.14126	0.08757
3328.85549	0.08697
3327.56972	0.08662
3326.28395	0.08660
3324.99819	0.08675
3323.71242	0.08689
3322.42665	0.08695
3321.14088	0.08693
3319.85511	0.08698
3318.56934	0.08729
3317.28357	0.08788
3315.99780	0.08847
3314.71204	0.08870
3313.42627	0.08842
3312.14050	0.08787
3310.85473	0.08744
3309.56896	0.08730
3308.28319	0.08728
3306.99742	0.08715
3305.71165	0.08688
3304.42588	0.08668
3303.14012	0.08672
3301.85435	0.08690
3300.56858	0.08694
3299.28281	0.08673
3297.99704	0.08649
3296.71127	0.08651
3295.42550	0.08677
3294.13973	0.08696
3292.85397	0.08683
3291.56820	0.08638
3290.28243	0.08581
3288.99666	0.08530
3287.71089	0.08493
3286.42512	0.08469
3285.13935	0.08452
3283.85358	0.08439
3282.56781	0.08434
3281.28205	0.08447
3279.99628	0.08479
3278.71051	0.08521
3277.42474	0.08562
3276.13897	0.08591
3274.85320	0.08598
3273.56743	0.08575
3272.28166	0.08519
3270.99590	0.08452
3269.71013	0.08408
3268.42436	0.08409
3267.13859	0.08446
3265.85282	0.08488
3264.56705	0.08510
3263.28128	0.08508
3261.99551	0.08500
3260.70974	0.08503
3259.42398	0.08513
3258.13821	0.08511
3256.85244	0.08491
3255.56667	0.08470
3254.28090	0.08465
3252.99513	0.08465
3251.70936	0.08447
3250.42359	0.08399
3249.13783	0.08344
3247.85206	0.08316
3246.56629	0.08331
3245.28052	0.08376
3243.99475	0.08421
3242.70898	0.08442
3241.42321	0.08444
3240.13744	0.08447
3238.85167	0.08465
3237.56591	0.08489
3236.28014	0.08499
3234.99437	0.08480
3233.70860	0.08427
3232.42283	0.08350
3231.13706	0.08272
3229.85129	0.08208
3228.56552	0.08159
3227.27976	0.08113
3225.99399	0.08074
3224.70822	0.08055
3223.42245	0.08064
3222.13668	0.08091
3220.85091	0.08124
3219.56514	0.08155
3218.27937	0.08177
3216.99360	0.08177
3215.70784	0.08154
3214.42207	0.08123
3213.13630	0.08107
3211.85053	0.08109
3210.56476	0.08110
3209.27899	0.08098
3207.99322	0.08074
3206.70745	0.08062
3205.42169	0.08079
3204.13592	0.08115
3202.85015	0.08140
3201.56438	0.08129
3200.27861	0.08084
3198.99284	0.08026
3197.70707	0.07966
3196.42130	0.07907
3195.13553	0.07863
3193.84977	0.07855
3192.56400	0.07887
3191.27823	0.07928
3189.99246	0.07938
3188.70669	0.07909
3187.42092	0.07871
3186.13515	0.07862
3184.84938	0.07885
3183.56362	0.07912
3182.27785	0.07913
3180.99208	0.07878
3179.70631	0.07821
3178.42054	0.07771
3177.13477	0.07751
3175.84900	0.07758
3174.56323	0.07776
3173.27746	0.07787
3171.99170	0.07783
3170.70593	0.07762
3169.42016	0.07732
3168.13439	0.07707
3166.84862	0.07697
3165.56285	0.07696
3164.27708	0.07691
3162.99131	0.07676
3161.70555	0.07652
3160.41978	0.07619
3159.13401	0.07571
3157.84824	0.07509
3156.56247	0.07452
3155.27670	0.07420
3153.99093	0.07422
3152.70516	0.07444
3151.41939	0.07463
3150.13363	0.07472
3148.84786	0.07472
3147.56209	0.07470
3146.27632	0.07462
3144.99055	0.07438
3143.70478	0.07394
3142.41901	0.07340
3141.13324	0.07297
3139.84748	0.07280
3138.56171	0.07283
3137.27594	0.07281
3135.99017	0.07267
3134.70440	0.07252
3133.41863	0.07253
3132.13286	0.07267
3130.84709	0.07275
3129.56132	0.07260
3128.27556	0.07217
3126.98979	0.07160
3125.70402	0.07112
3124.41825	0.07100
3123.13248	0.07133
3121.84671	0.07193
3120.56094	0.07250
3119.27517	0.07282
3117.98940	0.07287
3116.70364	0.07273
3115.41787	0.07245
3114.13210	0.07208
3112.84633	0.07167
3111.56056	0.07136
3110.27479	0.07116
3108.98902	0.07104
3107.70325	0.07096
3106.41749	0.07100
3105.13172	0.07120
3103.84595	0.07144
3102.56018	0.07153
3101.27441	0.07142
3099.98864	0.07115
3098.70287	0.07072
3097.41710	0.07020
3096.13133	0.06974
3094.84557	0.06954
3093.55980	0.06966
3092.27403	0.06996
3090.98826	0.07025
3089.70249	0.07046
3088.41672	0.07058
3087.13095	0.07056
3085.84518	0.07032
3084.55942	0.06988
3083.27365	0.06937
3081.98788	0.06894
3080.70211	0.06858
3079.41634	0.06828
3078.13057	0.06802
3076.84480	0.06787
3075.55903	0.06788
3074.27326	0.06806
3072.98750	0.06835
3071.70173	0.06857
3070.41596	0.06860
3069.13019	0.06847
3067.84442	0.06833
3066.55865	0.06829
3065.27288	0.06830
3063.98711	0.06826
3062.70135	0.06813
3061.41558	0.06788
3060.12981	0.06751
3058.84404	0.06706
3057.55827	0.06672
3056.27250	0.06668
3054.98673	0.06690
3053.70096	0.06713
3052.41519	0.06714
3051.12943	0.06692
3049.84366	0.06659
3048.55789	0.06623
3047.27212	0.06588
3045.98635	0.06562
3044.70058	0.06556
3043.41481	0.06567
3042.12904	0.06586
3040.84328	0.06596
3039.55751	0.06595
3038.27174	0.06585
3036.98597	0.06573
3035.70020	0.06564
3034.41443	0.06557
3033.12866	0.06543
3031.84289	0.06514
3030.55712	0.06468
3029.27136	0.06417
3027.98559	0.06376
3026.69982	0.06357
3025.41405	0.06363
3024.12828	0.06386
3022.84251	0.06407
3021.55674	0.06406
3020.27097	0.06380
3018.98521	0.06344
3017.69944	0.06315
3016.41367	0.06293
3015.12790	0.06268
3013.84213	0.06241
3012.55636	0.06217
3011.27059	0.06204
3009.98482	0.06201
3008.69905	0.06203
3007.41329	0.06206
3006.12752	0.06204
3004.84175	0.06193
3003.55598	0.06177
3002.27021	0.06168
3000.98444	0.06176
2999.69867	0.06196
2998.41290	0.06211
2997.12714	0.06205
2995.84137	0.06184
2994.55560	0.06170
2993.26983	0.06171
2991.98406	0.06175
2990.69829	0.06164
2989.41252	0.06134
2988.12675	0.06103
2986.84098	0.06095
2985.55522	0.06122
2984.26945	0.06172
2982.98368	0.06222
2981.69791	0.06255
2980.41214	0.06276
2979.12637	0.06299
2977.84060	0.06329
2976.55483	0.06366
2975.26907	0.06405
2973.98330	0.06446
2972.69753	0.06497
2971.41176	0.06576
2970.12599	0.06691
2968.84022	0.06828
2967.55445	0.06964
2966.26868	0.07081
2964.98291	0.07175
2963.69715	0.07248
2962.41138	0.07303
2961.12561	0.07341
2959.83984	0.07356
2958.55407	0.07347
2957.26830	0.07321
2955.98253	0.07289
2954.69676	0.07261
2953.41100	0.07237
2952.12523	0.07208
2950.83946	0.07163
2949.55369	0.07107
2948.26792	0.07060
2946.98215	0.07036
2945.69638	0.07028
2944.41061	0.07012
2943.12484	0.06981
2941.83908	0.06944
2940.55331	0.06918
2939.26754	0.06911
2937.98177	0.06924
2936.69600	0.06954
2935.41023	0.06991
2934.12446	0.07018
2932.83869	0.07029
2931.55293	0.07032
2930.26716	0.07038
2928.98139	0.07046
2927.69562	0.07049
2926.40985	0.07045
2925.12408	0.07032
2923.83831	0.07005
2922.55254	0.06965
2921.26677	0.06923
2919.98101	0.06899
2918.69524	0.06894
2917.40947	0.06892
2916.12370	0.06879
2914.83793	0.06857
2913.55216	0.06839
2912.26639	0.06830
2910.98062	0.06821
2909.69486	0.06798
2908.40909	0.06761
2907.12332	0.06722
2905.83755	0.06690
2904.55178	0.06666
2903.26601	0.06643
2901.98024	0.06612
2900.69447	0.06574
2899.40870	0.06534
2898.12294	0.06499
2896.83717	0.06463
2895.55140	0.06420
2894.26563	0.06369
2892.97986	0.06314
2891.69409	0.06255
2890.40832	0.06189
2889.12255	0.06126
2887.83678	0.06085
2886.55102	0.06074
2885.26525	0.06080
2883.97948	0.06089
2882.69371	0.06094
2881.40794	0.06098
2880.12217	0.06093
2878.83640	0.06066
2877.55063	0.06026
2876.26487	0.06000
2874.97910	0.06008
2873.69333	0.06040
2872.40756	0.06071
2871.12179	0.06089
2869.83602	0.06097
2868.55025	0.06103
2867.26448	0.06106
2865.97871	0.06106
2864.69295	0.06103
2863.40718	0.06094
2862.12141	0.06076
2860.83564	0.06046
2859.54987	0.06010
2858.26410	0.05981
2856.97833	0.05963
2855.69256	0.05947
2854.40680	0.05920
2853.12103	0.05889
2851.83526	0.05872
2850.54949	0.05874
2849.26372	0.05883
2847.97795	0.05879
2846.69218	0.05852
2845.40641	0.05799
2844.12064	0.05728
2842.83488	0.05654
2841.54911	0.05593
2840.26334	0.05553
2838.97757	0.05529
2837.69180	0.05508
2836.40603	0.05476
2835.12026	0.05432
2833.83449	0.05381
2832.54873	0.05337
2831.26296	0.05309
2829.97719	0.05290
2828.69142	0.05266
2827.40565	0.05232
2826.11988	0.05194
2824.83411	0.05166
2823.54834	0.05154
2822.26257	0.05152
2820.97681	0.05149
2819.69104	0.05139
2818.40527	0.05126
2817.11950	0.05115
2815.83373	0.05105
2814.54796	0.05094
2813.26219	0.05083
2811.97642	0.05074
2810.69066	0.05072
2809.40489	0.05071
2808.11912	0.05061
2806.83335	0.05042
2805.54758	0.05022
2804.26181	0.05015
2802.97604	0.05012
2801.69027	0.04996
2800.40450	0.04961
2799.11874	0.04924
2797.83297	0.04902
2796.54720	0.04896
2795.26143	0.04892
2793.97566	0.04880
2792.68989	0.04862
2791.40412	0.04842
2790.11835	0.04829
2788.83259	0.04826
2787.54682	0.04829
2786.26105	0.04831
2784.97528	0.04825
2783.68951	0.04810
2782.40374	0.04784
2781.11797	0.04752
2779.83220	0.04726
2778.54643	0.04713
2777.26067	0.04711
2775.97490	0.04708
2774.68913	0.04699
2773.40336	0.04691
2772.11759	0.04688
2770.83182	0.04690
2769.54605	0.04693
2768.26028	0.04692
2766.97452	0.04691
2765.68875	0.04693
2764.40298	0.04698
2763.11721	0.04699
2761.83144	0.04689
2760.54567	0.04667
2759.25990	0.04639
2757.97413	0.04609
2756.68836	0.04582
2755.40260	0.04562
2754.11683	0.04555
2752.83106	0.04555
2751.54529	0.04552
2750.25952	0.04542
2748.97375	0.04534
2747.68798	0.04533
2746.40221	0.04535
2745.11645	0.04531
2743.83068	0.04518
2742.54491	0.04502
2741.25914	0.04489
2739.97337	0.04480
2738.68760	0.04473
2737.40183	0.04465
2736.11606	0.04460
2734.83029	0.04464
2733.54453	0.04476
2732.25876	0.04490
2730.97299	0.04499
2729.68722	0.04501
2728.40145	0.04497
2727.11568	0.04480
2725.82991	0.04449
2724.54414	0.04414
2723.25838	0.04392
2721.97261	0.04389
2720.68684	0.04396
2719.40107	0.04402
2718.11530	0.04405
2716.82953	0.04408
2715.54376	0.04407
2714.25799	0.04394
2712.97222	0.04373
2711.68646	0.04354
2710.40069	0.04341
2709.11492	0.04328
2707.82915	0.04310
2706.54338	0.04295
2705.25761	0.04293
2703.97184	0.04301
2702.68607	0.04306
2701.40031	0.04301
2700.11454	0.04285
2698.82877	0.04264
2697.54300	0.04245
2696.25723	0.04236
2694.97146	0.04242
2693.68569	0.04255
2692.39992	0.04259
2691.11415	0.04246
2689.82839	0.04223
2688.54262	0.04209
2687.25685	0.04209
2685.97108	0.04215
2684.68531	0.04212
2683.39954	0.04197
2682.11377	0.04175
2680.82800	0.04155
2679.54224	0.04145
2678.25647	0.04141
2676.97070	0.04134
2675.68493	0.04119
2674.39916	0.04104
2673.11339	0.04100
2671.82762	0.04111
2670.54185	0.04124
2669.25608	0.04126
2667.97032	0.04113
2666.68455	0.04087
2665.39878	0.04060
2664.11301	0.04039
2662.82724	0.04029
2661.54147	0.04031
2660.25570	0.04041
2658.96993	0.04053
2657.68417	0.04063
2656.39840	0.04070
2655.11263	0.04073
2653.82686	0.04072
2652.54109	0.04066
2651.25532	0.04057
2649.96955	0.04048
2648.68378	0.04036
2647.39801	0.04018
2646.11225	0.03989
2644.82648	0.03950
2643.54071	0.03907
2642.25494	0.03872
2640.96917	0.03849
2639.68340	0.03834
2638.39763	0.03825
2637.11186	0.03825
2635.82609	0.03835
2634.54033	0.03846
2633.25456	0.03846
2631.96879	0.03834
2630.68302	0.03820
2629.39725	0.03805
2628.11148	0.03779
2626.82571	0.03739
2625.53994	0.03691
2624.25418	0.03652
2622.96841	0.03632
2621.68264	0.03628
2620.39687	0.03625
2619.11110	0.03620
2617.82533	0.03620
2616.53956	0.03628
2615.25379	0.03626
2613.96802	0.03597
2612.68226	0.03552
2611.39649	0.03524
2610.11072	0.03534
2608.82495	0.03568
2607.53918	0.03592
2606.25341	0.03588
2604.96764	0.03563
2603.68187	0.03532
2602.39611	0.03497
2601.11034	0.03453
2599.82457	0.03412
2598.53880	0.03397
2597.25303	0.03416
2595.96726	0.03445
2594.68149	0.03454
2593.39572	0.03431
2592.10995	0.03392
2590.82419	0.03360
2589.53842	0.03339
2588.25265	0.03328
2586.96688	0.03331
2585.68111	0.03354
2584.39534	0.03389
2583.10957	0.03412
2581.82380	0.03415
2580.53804	0.03415
2579.25227	0.03428
2577.96650	0.03441
2576.68073	0.03418
2575.39496	0.03351
2574.10919	0.03271
2572.82342	0.03224
2571.53765	0.03224
2570.25188	0.03251
2568.96612	0.03277
2567.68035	0.03284
2566.39458	0.03264
2565.10881	0.03218
2563.82304	0.03171
2562.53727	0.03150
2561.25150	0.03160
2559.96573	0.03175
2558.67997	0.03175
2557.39420	0.03166
2556.10843	0.03163
2554.82266	0.03167
2553.53689	0.03168
2552.25112	0.03171
2550.96535	0.03193
2549.67958	0.03231
2548.39381	0.03255
2547.10805	0.03243
2545.82228	0.03204
2544.53651	0.03167
2543.25074	0.03145
2541.96497	0.03127
2540.67920	0.03103
2539.39343	0.03081
2538.10766	0.03072
2536.82190	0.03072
2535.53613	0.03065
2534.25036	0.03047
2532.96459	0.03033
2531.67882	0.03034
2530.39305	0.03042
2529.10728	0.03046
2527.82151	0.03046
2526.53574	0.03048
2525.24998	0.03061
2523.96421	0.03084
2522.67844	0.03104
2521.39267	0.03103
2520.10690	0.03078
2518.82113	0.03039
2517.53536	0.03006
2516.24959	0.02988
2514.96383	0.02982
2513.67806	0.02982
2512.39229	0.02979
2511.10652	0.02970
2509.82075	0.02968
2508.53498	0.02988
2507.24921	0.03020
2505.96344	0.03036
2504.67767	0.03022
2503.39191	0.02998
2502.10614	0.02991
2500.82037	0.03000
2499.53460	0.03004
2498.24883	0.02987
2496.96306	0.02949
2495.67729	0.02904
2494.39152	0.02876
2493.10576	0.02876
2491.81999	0.02891
2490.53422	0.02898
2489.24845	0.02893
2487.96268	0.02898
2486.67691	0.02923
2485.39114	0.02947
2484.10537	0.02947
2482.81960	0.02931
2481.53384	0.02939
2480.24807	0.02986
2478.96230	0.03040
2477.67653	0.03057
2476.39076	0.03023
2475.10499	0.02964
2473.81922	0.02914
2472.53345	0.02885
2471.24769	0.02875
2469.96192	0.02875
2468.67615	0.02882
2467.39038	0.02900
2466.10461	0.02929
2464.81884	0.02956
2463.53307	0.02962
2462.24730	0.02943
2460.96153	0.02917
2459.67577	0.02905
2458.39000	0.02906
2457.10423	0.02907
2455.81846	0.02900
2454.53269	0.02893
2453.24692	0.02890
2451.96115	0.02884
2450.67538	0.02866
2449.38962	0.02838
2448.10385	0.02817
2446.81808	0.02819
2445.53231	0.02840
2444.24654	0.02862
2442.96077	0.02867
2441.67500	0.02859
2440.38923	0.02846
2439.10346	0.02832
2437.81770	0.02807
2436.53193	0.02771
2435.24616	0.02731
2433.96039	0.02705
2432.67462	0.02708
2431.38885	0.02745
2430.10308	0.02802
2428.81731	0.02844
2427.53155	0.02852
2426.24578	0.02836
2424.96001	0.02826
2423.67424	0.02830
2422.38847	0.02833
2421.10270	0.02822
2419.81693	0.02804
2418.53116	0.02787
2417.24539	0.02770
2415.95963	0.02755
2414.67386	0.02752
2413.38809	0.02763
2412.10232	0.02773
2410.81655	0.02766
2409.53078	0.02739
2408.24501	0.02710
2406.95924	0.02702
2405.67347	0.02720
2404.38771	0.02749
2403.10194	0.02765
2401.81617	0.02768
2400.53040	0.02770
2399.24463	0.02780
2397.95886	0.02781
2396.67309	0.02766
2395.38732	0.02744
2394.10156	0.02725
2392.81579	0.02713
2391.53002	0.02704
2390.24425	0.02695
2388.95848	0.02684
2387.67271	0.02669
2386.38694	0.02649
2385.10117	0.02633
2383.81540	0.02630
2382.52964	0.02641
2381.24387	0.02654
2379.95810	0.02681
2378.67233	0.02715
2377.38656	0.02740
2376.10079	0.02780
2374.81502	0.02796
2373.52925	0.02719
2372.24349	0.02578
2370.95772	0.02427
2369.67195	0.02409
2368.38618	0.02491
2367.10041	0.02493
2365.81464	0.02430
2364.52887	0.02476
2363.24310	0.02568
2361.95733	0.02551
2360.67157	0.02485
2359.38580	0.02562
2358.10003	0.02726
2356.81426	0.02879
2355.52849	0.03008
2354.24272	0.03061
2352.95695	0.03019
2351.67118	0.02767
2350.38542	0.02265
2349.09965	0.01957
2347.81388	0.02247
2346.52811	0.02775
2345.24234	0.02990
2343.95657	0.02908
2342.67080	0.02856
2341.38503	0.02851
2340.09926	0.02785
2338.81350	0.02701
2337.52773	0.02614
2336.24196	0.02588
2334.95619	0.02567
2333.67042	0.02518
2332.38465	0.02547
2331.09888	0.02598
2329.81311	0.02612
2328.52735	0.02665
2327.24158	0.02676
2325.95581	0.02638
2324.67004	0.02656
2323.38427	0.02691
2322.09850	0.02731
2320.81273	0.02816
2319.52696	0.02845
2318.24119	0.02772
2316.95543	0.02683
2315.66966	0.02641
2314.38389	0.02636
2313.09812	0.02626
2311.81235	0.02628
2310.52658	0.02654
2309.24081	0.02690
2307.95504	0.02729
2306.66928	0.02743
2305.38351	0.02708
2304.09774	0.02651
2302.81197	0.02619
2301.52620	0.02622
2300.24043	0.02632
2298.95466	0.02638
2297.66889	0.02635
2296.38312	0.02625
2295.09736	0.02614
2293.81159	0.02600
2292.52582	0.02589
2291.24005	0.02581
2289.95428	0.02574
2288.66851	0.02568
2287.38274	0.02573
2286.09697	0.02587
2284.81121	0.02589
2283.52544	0.02563
2282.23967	0.02509
2280.95390	0.02440
2279.66813	0.02379
2278.38236	0.02339
2277.09659	0.02318
2275.81082	0.02301
2274.52505	0.02288
2273.23929	0.02288
2271.95352	0.02299
2270.66775	0.02297
2269.38198	0.02261
2268.09621	0.02205
2266.81044	0.02167
2265.52467	0.02182
2264.23890	0.02240
2262.95314	0.02294
2261.66737	0.02313
2260.38160	0.02298
2259.09583	0.02274
2257.81006	0.02262
2256.52429	0.02248
2255.23852	0.02203
2253.95275	0.02118
2252.66698	0.02032
2251.38122	0.02002
2250.09545	0.02040
2248.80968	0.02114
2247.52391	0.02176
2246.23814	0.02217
2244.95237	0.02236
2243.66660	0.02215
2242.38083	0.02143
2241.09507	0.02045
2239.80930	0.01977
2238.52353	0.01972
2237.23776	0.02002
2235.95199	0.02002
2234.66622	0.01940
2233.38045	0.01841
2232.09468	0.01753
2230.80891	0.01707
2229.52315	0.01706
2228.23738	0.01740
2226.95161	0.01791
2225.66584	0.01838
2224.38007	0.01868
2223.09430	0.01881
2221.80853	0.01886
2220.52276	0.01896
2219.23700	0.01916
2217.95123	0.01939
2216.66546	0.01955
2215.37969	0.01965
2214.09392	0.01971
2212.80815	0.01964
2211.52238	0.01927
2210.23661	0.01850
2208.95084	0.01748
2207.66508	0.01659
2206.37931	0.01621
2205.09354	0.01629
2203.80777	0.01643
2202.52200	0.01634
2201.23623	0.01610
2199.95046	0.01590
2198.66469	0.01572
2197.37893	0.01552
2196.09316	0.01541
2194.80739	0.01545
2193.52162	0.01548
2192.23585	0.01532
2190.95008	0.01502
2189.66431	0.01491
2188.37854	0.01526
2187.09277	0.01600
2185.80701	0.01671
2184.52124	0.01707
2183.23547	0.01708
2181.94970	0.01687
2180.66393	0.01638
2179.37816	0.01540
2178.09239	0.01415
2176.80662	0.01336
2175.52085	0.01378
2174.23509	0.01525
2172.94932	0.01661
2171.66355	0.01668
2170.37778	0.01532
2169.09201	0.01348
2167.80624	0.01204
2166.52047	0.01098
2165.23470	0.00997
2163.94894	0.00909
2162.66317	0.00863
2161.37740	0.00839
2160.09163	0.00784
2158.80586	0.00701
2157.52009	0.00658
2156.23432	0.00705
2154.94855	0.00818
2153.66278	0.00949
2152.37702	0.01059
2151.09125	0.01130
2149.80548	0.01157
2148.51971	0.01142
2147.23394	0.01085
2145.94817	0.00998
2144.66240	0.00930
2143.37663	0.00939
2142.09087	0.01031
2140.80510	0.01139
2139.51933	0.01193
2138.23356	0.01191
2136.94779	0.01175
2135.66202	0.01174
2134.37625	0.01198
2133.09048	0.01252
2131.80471	0.01332
2130.51895	0.01408
2129.23318	0.01451
2127.94741	0.01463
2126.66164	0.01478
2125.37587	0.01508
2124.09010	0.01536
2122.80433	0.01547
2121.51856	0.01543
2120.23280	0.01530
2118.94703	0.01509
2117.66126	0.01487
2116.37549	0.01480
2115.08972	0.01493
2113.80395	0.01522
2112.51818	0.01566
2111.23241	0.01615
2109.94664	0.01649
2108.66088	0.01640
2107.37511	0.01593
2106.08934	0.01547
2104.80357	0.01533
2103.51780	0.01550
2102.23203	0.01573
2100.94626	0.01583
2099.66049	0.01575
2098.37473	0.01552
2097.08896	0.01520
2095.80319	0.01491
2094.51742	0.01484
2093.23165	0.01510
2091.94588	0.01564
2090.66011	0.01624
2089.37434	0.01663
2088.08857	0.01659
2086.80281	0.01618
2085.51704	0.01570
2084.23127	0.01556
2082.94550	0.01585
2081.65973	0.01623
2080.37396	0.01617
2079.08819	0.01536
2077.80242	0.01404
2076.51666	0.01279
2075.23089	0.01209
2073.94512	0.01199
2072.65935	0.01219
2071.37358	0.01222
2070.08781	0.01181
2068.80204	0.01106
2067.51627	0.01048
2066.23050	0.01051
2064.94474	0.01116
2063.65897	0.01195
2062.37320	0.01243
2061.08743	0.01255
2059.80166	0.01241
2058.51589	0.01208
2057.23012	0.01167
2055.94435	0.01148
2054.65859	0.01174
2053.37282	0.01223
2052.08705	0.01234
2050.80128	0.01169
2049.51551	0.01048
2048.22974	0.00934
2046.94397	0.00872
2045.65820	0.00856
2044.37243	0.00848
2043.08667	0.00825
2041.80090	0.00783
2040.51513	0.00719
2039.22936	0.00636
2037.94359	0.00547
2036.65782	0.00476
2035.37205	0.00432
2034.08628	0.00411
2032.80052	0.00419
2031.51475	0.00475
2030.22898	0.00567
2028.94321	0.00641
2027.65744	0.00637
2026.37167	0.00559
2025.08590	0.00471
2023.80013	0.00448
2022.51436	0.00519
2021.22860	0.00657
2019.94283	0.00811
2018.65706	0.00929
2017.37129	0.00984
2016.08552	0.00979
2014.79975	0.00942
2013.51398	0.00904
2012.22821	0.00880
2010.94245	0.00870
2009.65668	0.00864
2008.37091	0.00851
2007.08514	0.00816
2005.79937	0.00764
2004.51360	0.00724
2003.22783	0.00732
2001.94206	0.00801
2000.65629	0.00909
1999.37053	0.01023
1998.08476	0.01113
1996.79899	0.01159
1995.51322	0.01159
1994.22745	0.01130
1992.94168	0.01110
1991.65591	0.01132
1990.37014	0.01183
1989.08438	0.01227
1987.79861	0.01248
1986.51284	0.01264
1985.22707	0.01291
1983.94130	0.01304
1982.65553	0.01258
1981.36976	0.01140
1980.08399	0.00985
1978.79822	0.00845
1977.51246	0.00756
1976.22669	0.00724
1974.94092	0.00741
1973.65515	0.00798
1972.36938	0.00889
1971.08361	0.00993
1969.79784	0.01076
1968.51207	0.01103
1967.22631	0.01066
1965.94054	0.00987
1964.65477	0.00905
1963.36900	0.00856
1962.08323	0.00853
1960.79746	0.00898
1959.51169	0.00987
1958.22592	0.01116
1956.94015	0.01254
1955.65439	0.01351
1954.36862	0.01369
1953.08285	0.01321
1951.79708	0.01254
1950.51131	0.01215
1949.22554	0.01218
1947.93977	0.01254
1946.65400	0.01296
1945.36823	0.01314
1944.08247	0.01297
1942.79670	0.01269
1941.51093	0.01267
1940.22516	0.01306
1938.93939	0.01368
1937.65362	0.01424
1936.36785	0.01457
1935.08208	0.01461
1933.79632	0.01441
1932.51055	0.01417
1931.22478	0.01408
1929.93901	0.01420
1928.65324	0.01439
1927.36747	0.01452
1926.08170	0.01458
1924.79593	0.01464
1923.51016	0.01471
1922.22440	0.01473
1920.93863	0.01467
1919.65286	0.01461
1918.36709	0.01472
1917.08132	0.01501
1915.79555	0.01526
1914.50978	0.01527
1913.22401	0.01507
1911.93825	0.01480
1910.65248	0.01452
1909.36671	0.01426
1908.08094	0.01416
1906.79517	0.01433
1905.50940	0.01472
1904.22363	0.01508
1902.93786	0.01518
1901.65209	0.01504
1900.36633	0.01487
1899.08056	0.01491
1897.79479	0.01518
1896.50902	0.01548
1895.22325	0.01558
1893.93748	0.01536
1892.65171	0.01491
1891.36594	0.01440
1890.08018	0.01401
1888.79441	0.01386
1887.50864	0.01393
1886.22287	0.01415
1884.93710	0.01441
1883.65133	0.01459
1882.36556	0.01464
1881.07979	0.01464
1879.79402	0.01477
1878.50826	0.01507
1877.22249	0.01538
1875.93672	0.01551
1874.65095	0.01542
1873.36518	0.01522
1872.07941	0.01502
1870.79364	0.01489
1869.50787	0.01484
1868.22211	0.01487
1866.93634	0.01493
1865.65057	0.01494
1864.36480	0.01491
1863.07903	0.01492
1861.79326	0.01499
1860.50749	0.01512
1859.22172	0.01527
1857.93595	0.01544
1856.65019	0.01564
1855.36442	0.01582
1854.07865	0.01590
1852.79288	0.01582
1851.50711	0.01565
1850.22134	0.01549
1848.93557	0.01540
1847.64980	0.01541
1846.36404	0.01544
1845.07827	0.01550
1843.79250	0.01562
1842.50673	0.01579
1841.22096	0.01589
1839.93519	0.01589
1838.64942	0.01588
1837.36365	0.01593
1836.07788	0.01599
1834.79212	0.01602
1833.50635	0.01598
1832.22058	0.01585
1830.93481	0.01570
1829.64904	0.01563
1828.36327	0.01566
1827.07750	0.01569
1825.79173	0.01562
1824.50597	0.01550
1823.22020	0.01541
1821.93443	0.01533
1820.64866	0.01530
1819.36289	0.01534
1818.07712	0.01547
1816.79135	0.01567
1815.50558	0.01589
1814.21981	0.01604
1812.93405	0.01608
1811.64828	0.01604
1810.36251	0.01600
1809.07674	0.01600
1807.79097	0.01604
1806.50520	0.01612
1805.21943	0.01622
1803.93366	0.01631
1802.64790	0.01633
1801.36213	0.01624
1800.07636	0.01612
1798.79059	0.01610
1797.50482	0.01623
1796.21905	0.01643
1794.93328	0.01653
1793.64751	0.01645
1792.36174	0.01629
1791.07598	0.01620
1789.79021	0.01623
1788.50444	0.01631
1787.21867	0.01642
1785.93290	0.01654
1784.64713	0.01665
1783.36136	0.01673
1782.07559	0.01677
1780.78983	0.01679
1779.50406	0.01687
1778.21829	0.01702
1776.93252	0.01715
1775.64675	0.01716
1774.36098	0.01703
1773.07521	0.01689
1771.78944	0.01692
1770.50367	0.01706
1769.21791	0.01716
1767.93214	0.01718
1766.64637	0.01723
1765.36060	0.01726
1764.07483	0.01721
1762.78906	0.01714
1761.50329	0.01719
1760.21752	0.01734
1758.93176	0.01743
1757.64599	0.01737
1756.36022	0.01732
1755.07445	0.01735
1753.78868	0.01739
1752.50291	0.01739
1751.21714	0.01747
1749.93137	0.01768
1748.64560	0.01793
1747.35984	0.01812
1746.07407	0.01823
1744.78830	0.01833
1743.50253	0.01841
1742.21676	0.01840
1740.93099	0.01830
1739.64522	0.01824
1738.35945	0.01837
1737.07369	0.01856
1735.78792	0.01863
1734.50215	0.01863
1733.21638	0.01873
1731.93061	0.01887
1730.64484	0.01890
1729.35907	0.01884
1728.07330	0.01884
1726.78753	0.01893
1725.50177	0.01905
1724.21600	0.01925
1722.93023	0.01957
1721.64446	0.01994
1720.35869	0.02020
1719.07292	0.02031
1717.78715	0.02048
1716.50138	0.02083
1715.21561	0.02125
1713.92985	0.02161
1712.64408	0.02191
1711.35831	0.02222
1710.07254	0.02253
1708.78677	0.02280
1707.50100	0.02302
1706.21523	0.02333
1704.92946	0.02389
1703.64370	0.02462
1702.35793	0.02526
1701.07216	0.02583
1699.78639	0.02657
1698.50062	0.02738
1697.21485	0.02794
1695.92908	0.02835
1694.64331	0.02897
1693.35754	0.02974
1692.07178	0.03036
1690.78601	0.03086
1689.50024	0.03147
1688.21447	0.03218
1686.92870	0.03277
1685.64293	0.03319
1684.35716	0.03375
1683.07139	0.03463
1681.78563	0.03559
1680.49986	0.03639
1679.21409	0.03708
1677.92832	0.03775
1676.64255	0.03839
1675.35678	0.03908
1674.07101	0.03989
1672.78524	0.04069
1671.49947	0.04133
1670.21371	0.04190
1668.92794	0.04255
1667.64217	0.04335
1666.35640	0.04414
1665.07063	0.04479
1663.78486	0.04532
1662.49909	0.04587
1661.21332	0.04647
1659.92756	0.04705
1658.64179	0.04761
1657.35602	0.04815
1656.07025	0.04853
1654.78448	0.04867
1653.49871	0.04880
1652.21294	0.04927
1650.92717	0.04988
1649.64140	0.05018
1648.35564	0.05007
1647.06987	0.04987
1645.78410	0.04986
1644.49833	0.04997
1643.21256	0.05004
1641.92679	0.05004
1640.64102	0.05007
1639.35525	0.05011
1638.06949	0.04998
1636.78372	0.04964
1635.49795	0.04929
1634.21218	0.04911
1632.92641	0.04899
1631.64064	0.04874
1630.35487	0.04836
1629.06910	0.04797
1627.78333	0.04764
1626.49757	0.04737
1625.21180	0.04706
1623.92603	0.04670
1622.64026	0.04634
1621.35449	0.04602
1620.06872	0.04562
1618.78295	0.04509
1617.49718	0.04459
1616.21142	0.04436
1614.92565	0.04436
1613.63988	0.04435
1612.35411	0.04417
1611.06834	0.04394
1609.78257	0.04382
1608.49680	0.04382
1607.21103	0.04389
1605.92526	0.04396
1604.63950	0.04397
1603.35373	0.04393
1602.06796	0.04387
1600.78219	0.04385
1599.49642	0.04389
1598.21065	0.04401
1596.92488	0.04422
1595.63911	0.04446
1594.35335	0.04470
1593.06758	0.04489
1591.78181	0.04505
1590.49604	0.04523
1589.21027	0.04545
1587.92450	0.04574
1586.63873	0.04608
1585.35296	0.04646
1584.06719	0.04683
1582.78143	0.04719
1581.49566	0.04756
1580.20989	0.04793
1578.92412	0.04822
1577.63835	0.04840
1576.35258	0.04866
1575.06681	0.04919
1573.78104	0.04986
1572.49528	0.05037
1571.20951	0.05070
1569.92374	0.05104
1568.63797	0.05151
1567.35220	0.05200
1566.06643	0.05237
1564.78066	0.05270
1563.49489	0.05309
1562.20912	0.05343
1560.92336	0.05362
1559.63759	0.05382
1558.35182	0.05425
1557.06605	0.05478
1555.78028	0.05508
1554.49451	0.05514
1553.20874	0.05519
1551.92297	0.05527
1550.63721	0.05531
1549.35144	0.05527
1548.06567	0.05518
1546.77990	0.05504
1545.49413	0.05487
1544.20836	0.05469
1542.92259	0.05445
1541.63682	0.05406
1540.35105	0.05364
1539.06529	0.05343
1537.77952	0.05343
1536.49375	0.05338
1535.20798	0.05313
1533.92221	0.05284
1532.63644	0.05274
1531.35067	0.05281
1530.06490	0.05289
1528.77914	0.05294
1527.49337	0.05307
1526.20760	0.05333
1524.92183	0.05371
1523.63606	0.05411
1522.35029	0.05452
1521.06452	0.05510
1519.77875	0.05589
1518.49298	0.05669
1517.20722	0.05744
1515.92145	0.05823
1514.63568	0.05910
1513.34991	0.06000
1512.06414	0.06093
1510.77837	0.06190
1509.49260	0.06282
1508.20683	0.06364
1506.92107	0.06449
1505.63530	0.06558
1504.34953	0.06680
1503.06376	0.06787
1501.77799	0.06872
1500.49222	0.06947
1499.20645	0.07020
1497.92068	0.07089
1496.63491	0.07158
1495.34915	0.07230
1494.06338	0.07299
1492.77761	0.07355
1491.49184	0.07399
1490.20607	0.07450
1488.92030	0.07518
1487.63453	0.07602
1486.34876	0.07693
1485.06299	0.07784
1483.77723	0.07873
1482.49146	0.07962
1481.20569	0.08058
1479.91992	0.08160
1478.63415	0.08260
1477.34838	0.08351
1476.06261	0.08432
1474.77684	0.08505
1473.49108	0.08574
1472.20531	0.08647
1470.91954	0.08724
1469.63377	0.08793
1468.34800	0.08841
1467.06223	0.08870
1465.77646	0.08892
1464.49069	0.08925
1463.20492	0.08975
1461.91916	0.09035
1460.63339	0.09092
1459.34762	0.09135
1458.06185	0.09172
1456.77608	0.09225
1455.49031	0.09293
1454.20454	0.09350
1452.91877	0.09379
1451.63301	0.09392
1450.34724	0.09406
1449.06147	0.09420
1447.77570	0.09427
1446.48993	0.09425
1445.20416	0.09416
1443.91839	0.09403
1442.63262	0.09393
1441.34685	0.09388
1440.06109	0.09386
1438.77532	0.09381
1437.48955	0.09381
1436.20378	0.09402
1434.91801	0.09447
1433.63224	0.09504
1432.34647	0.09567
1431.06070	0.09644
1429.77494	0.09741
1428.48917	0.09856
1427.20340	0.09979
1425.91763	0.10103
1424.63186	0.10231
1423.34609	0.10366
1422.06032	0.10498
1420.77455	0.10618
1419.48878	0.10729
1418.20302	0.10841
1416.91725	0.10949
1415.63148	0.11039
1414.34571	0.11105
1413.05994	0.11146
1411.77417	0.11170
1410.48840	0.11181
1409.20263	0.11182
1407.91687	0.11167
1406.63110	0.11128
1405.34533	0.11065
1404.05956	0.10983
1402.77379	0.10886
1401.48802	0.10772
1400.20225	0.10642
1398.91648	0.10500
1397.63071	0.10347
1396.34495	0.10178
1395.05918	0.09997
1393.77341	0.09813
1392.48764	0.09629
1391.20187	0.09439
1389.91610	0.09239
1388.63033	0.09033
1387.34456	0.08831
1386.05880	0.08639
1384.77303	0.08450
1383.48726	0.08258
1382.20149	0.08061
1380.91572	0.07862
1379.62995	0.07661
1378.34418	0.07460
1377.05841	0.07260
1375.77264	0.07059
1374.48688	0.06860
1373.20111	0.06663
1371.91534	0.06468
1370.62957	0.06275
1369.34380	0.06089
1368.05803	0.05917
1366.77226	0.05758
1365.48649	0.05608
1364.20073	0.05463
1362.91496	0.05323
1361.62919	0.05188
1360.34342	0.05058
1359.05765	0.04934
1357.77188	0.04819
1356.48611	0.04714
1355.20034	0.04619
1353.91457	0.04530
1352.62881	0.04445
1351.34304	0.04364
1350.05727	0.04289
1348.77150	0.04218
1347.48573	0.04151
1346.19996	0.04088
1344.91419	0.04027
1343.62842	0.03969
1342.34266	0.03911
1341.05689	0.03853
1339.77112	0.03800
1338.48535	0.03755
1337.19958	0.03712
1335.91381	0.03669
1334.62804	0.03622
1333.34227	0.03575
1332.05650	0.03532
1330.77074	0.03492
1329.48497	0.03454
1328.19920	0.03416
1326.91343	0.03376
1325.62766	0.03335
1324.34189	0.03296
1323.05612	0.03261
1321.77035	0.03231
1320.48459	0.03203
1319.19882	0.03177
1317.91305	0.03151
1316.62728	0.03124
1315.34151	0.03094
1314.05574	0.03059
1312.76997	0.03022
1311.48420	0.02988
1310.19843	0.02962
1308.91267	0.02944
1307.62690	0.02925
1306.34113	0.02900
1305.05536	0.02868
1303.76959	0.02833
1302.48382	0.02800
1301.19805	0.02770
1299.91228	0.02744
1298.62652	0.02724
1297.34075	0.02708
1296.05498	0.02694
1294.76921	0.02679
1293.48344	0.02663
1292.19767	0.02645
1290.91190	0.02629
1289.62613	0.02618
1288.34036	0.02612
1287.05460	0.02608
1285.76883	0.02603
1284.48306	0.02596
1283.19729	0.02588
1281.91152	0.02578
1280.62575	0.02568
1279.33998	0.02558
1278.05421	0.02551
1276.76845	0.02548
1275.48268	0.02552
1274.19691	0.02564
1272.91114	0.02592
1271.62537	0.02647
1270.33960	0.02741
1269.05383	0.02889
1267.76806	0.03096
1266.48229	0.03355
1265.19653	0.03645
1263.91076	0.03928
1262.62499	0.04159
1261.33922	0.04296
1260.05345	0.04318
1258.76768	0.04227
1257.48191	0.04046
1256.19614	0.03811
1254.91037	0.03560
1253.62461	0.03326
1252.33884	0.03125
1251.05307	0.02962
1249.76730	0.02833
1248.48153	0.02731
1247.19576	0.02653
1245.90999	0.02591
1244.62422	0.02541
1243.33846	0.02496
1242.05269	0.02456
1240.76692	0.02421
1239.48115	0.02390
1238.19538	0.02364
1236.90961	0.02341
1235.62384	0.02319
1234.33807	0.02297
1233.05230	0.02277
1231.76654	0.02258
1230.48077	0.02239
1229.19500	0.02216
1227.90923	0.02185
1226.62346	0.02147
1225.33769	0.02106
1224.05192	0.02068
1222.76615	0.02038
1221.48039	0.02017
1220.19462	0.02003
1218.90885	0.01994
1217.62308	0.01986
1216.33731	0.01978
1215.05154	0.01967
1213.76577	0.01955
1212.48000	0.01941
1211.19423	0.01927
1209.90847	0.01915
1208.62270	0.01904
1207.33693	0.01895
1206.05116	0.01890
1204.76539	0.01891
1203.47962	0.01893
1202.19385	0.01890
1200.90808	0.01879
1199.62232	0.01861
1198.33655	0.01842
1197.05078	0.01827
1195.76501	0.01819
1194.47924	0.01817
1193.19347	0.01814
1191.90770	0.01807
1190.62193	0.01793
1189.33616	0.01775
1188.05040	0.01756
1186.76463	0.01739
1185.47886	0.01727
1184.19309	0.01723
1182.90732	0.01724
1181.62155	0.01725
1180.33578	0.01724
1179.05001	0.01721
1177.76425	0.01721
1176.47848	0.01723
1175.19271	0.01729
1173.90694	0.01738
1172.62117	0.01748
1171.33540	0.01757
1170.04963	0.01764
1168.76386	0.01769
1167.47809	0.01771
1166.19233	0.01774
1164.90656	0.01781
1163.62079	0.01796
1162.33502	0.01818
1161.04925	0.01843
1159.76348	0.01865
1158.47771	0.01881
1157.19194	0.01888
1155.90618	0.01890
1154.62041	0.01893
1153.33464	0.01904
1152.04887	0.01922
1150.76310	0.01947
1149.47733	0.01977
1148.19156	0.02016
1146.90579	0.02062
1145.62002	0.02114
1144.33426	0.02168
1143.04849	0.02224
1141.76272	0.02282
1140.47695	0.02345
1139.19118	0.02418
1137.90541	0.02506
1136.61964	0.02612
1135.33387	0.02732
1134.04811	0.02859
1132.76234	0.02989
1131.47657	0.03127
1130.19080	0.03283
1128.90503	0.03468
1127.61926	0.03686
1126.33349	0.03928
1125.04772	0.04183
1123.76195	0.04445
1122.47619	0.04716
1121.19042	0.04999
1119.90465	0.05296
1118.61888	0.05603
1117.33311	0.05912
1116.04734	0.06217
1114.76157	0.06518
1113.47580	0.06821
1112.19004	0.07130
1110.90427	0.07446
1109.61850	0.07765
1108.33273	0.08085
1107.04696	0.08400
1105.76119	0.08709
1104.47542	0.09013
1103.18965	0.09317
1101.90388	0.09617
1100.61812	0.09907
1099.33235	0.10184
1098.04658	0.10449
1096.76081	0.10704
1095.47504	0.10947
1094.18927	0.11169
1092.90350	0.11364
1091.61773	0.11534
1090.33197	0.11689
1089.04620	0.11836
1087.76043	0.11977
1086.47466	0.12116
1085.18889	0.12257
1083.90312	0.12406
1082.61735	0.12567
1081.33158	0.12742
1080.04581	0.12935
1078.76005	0.13150
1077.47428	0.13384
1076.18851	0.13632
1074.90274	0.13887
1073.61697	0.14149
1072.33120	0.14418
1071.04543	0.14694
1069.75966	0.14974
1068.47390	0.15256
1067.18813	0.15537
1065.90236	0.15823
1064.61659	0.16122
1063.33082	0.16436
1062.04505	0.16758
1060.75928	0.17076
1059.47351	0.17379
1058.18774	0.17668
1056.90198	0.17952
1055.61621	0.18238
1054.33044	0.18531
1053.04467	0.18830
1051.75890	0.19133
1050.47313	0.19440
1049.18736	0.19751
1047.90159	0.20062
1046.61583	0.20370
1045.33006	0.20678
1044.04429	0.20992
1042.75852	0.21318
1041.47275	0.21655
1040.18698	0.21996
1038.90121	0.22332
1037.61544	0.22660
1036.32967	0.22981
1035.04391	0.23294
1033.75814	0.23594
1032.47237	0.23881
1031.18660	0.24157
1029.90083	0.24420
1028.61506	0.24662
1027.32929	0.24874
1026.04352	0.25057
1024.75775	0.25216
1023.47199	0.25353
1022.18622	0.25466
1020.90045	0.25548
1019.61468	0.25593
1018.32891	0.25595
1017.04314	0.25554
1015.75737	0.25475
1014.47160	0.25363
1013.18584	0.25218
1011.90007	0.25034
1010.61430	0.24805
1009.32853	0.24532
1008.04276	0.24219
1006.75699	0.23869
1005.47122	0.23476
1004.18545	0.23042
1002.89968	0.22573
1001.61392	0.22082
1000.32815	0.21575
999.04238	0.21050
997.75661	0.20505
996.47084	0.19944
995.18507	0.19372
993.89930	0.18797
992.61353	0.18221
991.32777	0.17641
990.04200	0.17060
988.75623	0.16487
987.47046	0.15938
986.18469	0.15417
984.89892	0.14921
983.61315	0.14443
982.32738	0.13982
981.04161	0.13541
979.75585	0.13122
978.47008	0.12727
977.18431	0.12362
975.89854	0.12028
974.61277	0.11729
973.32700	0.11469
972.04123	0.11254
970.75546	0.11088
969.46970	0.10976
968.18393	0.10919
966.89816	0.10913
965.61239	0.10947
964.32662	0.10996
963.04085	0.11038
961.75508	0.11053
960.46931	0.11026
959.18354	0.10948
957.89778	0.10819
956.61201	0.10644
955.32624	0.10435
954.04047	0.10207
952.75470	0.09975
951.46893	0.09745
950.18316	0.09518
948.89739	0.09291
947.61163	0.09065
946.32586	0.08842
945.04009	0.08629
943.75432	0.08429
942.46855	0.08241
941.18278	0.08062
939.89701	0.07890
938.61124	0.07722
937.32547	0.07561
936.03971	0.07408
934.75394	0.07259
933.46817	0.07114
932.18240	0.06972
930.89663	0.06840
929.61086	0.06725
928.32509	0.06627
927.03932	0.06541
925.75356	0.06455
924.46779	0.06365
923.18202	0.06274
921.89625	0.06187
920.61048	0.06109
919.32471	0.06038
918.03894	0.05971
916.75317	0.05899
915.46740	0.05821
914.18164	0.05746
912.89587	0.05681
911.61010	0.05626
910.32433	0.05570
909.03856	0.05509
907.75279	0.05448
906.46702	0.05392
905.18125	0.05338
903.89549	0.05283
902.60972	0.05227
901.32395	0.05173
900.03818	0.05122
898.75241	0.05073
897.46664	0.05023
896.18087	0.04975
894.89510	0.04933
893.60933	0.04900
892.32357	0.04876
891.03780	0.04861
889.75203	0.04859
888.46626	0.04877
887.18049	0.04924
885.89472	0.05013
884.60895	0.05160
883.32318	0.05373
882.03742	0.05632
880.75165	0.05895
879.46588	0.06118
878.18011	0.06291
876.89434	0.06446
875.60857	0.06624
874.32280	0.06827
873.03703	0.07020
871.75126	0.07163
870.46550	0.07232
869.17973	0.07221
867.89396	0.07131
866.60819	0.06973
865.32242	0.06770
864.03665	0.06551
862.75088	0.06331
861.46511	0.06117
860.17935	0.05913
858.89358	0.05726
857.60781	0.05562
856.32204	0.05418
855.03627	0.05293
853.75050	0.05188
852.46473	0.05103
851.17896	0.05038
849.89319	0.04988
848.60743	0.04947
847.32166	0.04908
846.03589	0.04874
844.75012	0.04846
843.46435	0.04824
842.17858	0.04802
840.89281	0.04773
839.60704	0.04739
838.32128	0.04705
837.03551	0.04676
835.74974	0.04651
834.46397	0.04632
833.17820	0.04619
831.89243	0.04616
830.60666	0.04629
829.32089	0.04666
828.03512	0.04734
826.74936	0.04829
825.46359	0.04944
824.17782	0.05071
822.89205	0.05207
821.60628	0.05344
820.32051	0.05471
819.03474	0.05576
817.74897	0.05656
816.46321	0.05722
815.17744	0.05788
813.89167	0.05861
812.60590	0.05944
811.32013	0.06039
810.03436	0.06146
808.74859	0.06259
807.46282	0.06378
806.17705	0.06500
804.89129	0.06619
803.60552	0.06720
802.31975	0.06788
801.03398	0.06819
799.74821	0.06819
798.46244	0.06797
797.17667	0.06758
795.89090	0.06700
794.60513	0.06618
793.31937	0.06512
792.03360	0.06381
790.74783	0.06229
789.46206	0.06065
788.17629	0.05893
786.89052	0.05720
785.60475	0.05551
784.31898	0.05390
783.03322	0.05244
781.74745	0.05119
780.46168	0.05014
779.17591	0.04925
777.89014	0.04849
776.60437	0.04780
775.31860	0.04714
774.03283	0.04647
772.74706	0.04583
771.46130	0.04528
770.17553	0.04486
768.88976	0.04455
767.60399	0.04429
766.31822	0.04404
765.03245	0.04379
763.74668	0.04356
762.46091	0.04337
761.17515	0.04323
759.88938	0.04315
758.60361	0.04313
757.31784	0.04310
756.03207	0.04303
754.74630	0.04294
753.46053	0.04287
752.17476	0.04283
750.88899	0.04276
749.60323	0.04260
748.31746	0.04237
747.03169	0.04213
745.74592	0.04197
744.46015	0.04189
743.17438	0.04180
741.88861	0.04163
740.60284	0.04142
739.31708	0.04125
738.03131	0.04116
736.74554	0.04107
735.45977	0.04093
734.17400	0.04076
732.88823	0.04067
731.60246	0.04073
730.31669	0.04087
729.03092	0.04098
727.74516	0.04095
726.45939	0.04080
725.17362	0.04062
723.88785	0.04040
722.60208	0.04028
721.31631	0.04038
720.03054	0.04043
718.74477	0.04032
717.45901	0.04038
716.17324	0.04055
714.88747	0.04065
713.60170	0.04065
712.31593	0.04060
711.03016	0.04055
709.74439	0.04053
708.45862	0.04056
707.17285	0.04061
705.88709	0.04068
704.60132	0.04074
703.31555	0.04078
702.02978	0.04077
700.74401	0.04070
699.45824	0.04056
698.17247	0.04038
696.88670	0.04019
695.60094	0.04002
694.31517	0.03988
693.02940	0.03978
691.74363	0.03972
690.45786	0.03963
689.17209	0.03950
687.88632	0.03931
686.60055	0.03911
685.31478	0.03889
684.02902	0.03867
682.74325	0.03845
681.45748	0.03824
680.17171	0.03809
678.88594	0.03802
677.60017	0.03805
676.31440	0.03813
675.02863	0.03810
673.74287	0.03763
672.45710	0.03645
671.17133	0.03534
669.88556	0.03657
668.59979	0.03991
667.31402	0.03943
666.02825	0.03635
664.74248	0.03585
663.45671	0.03687
662.17095	0.03743
660.88518	0.03732
659.59941	0.03690
658.31364	0.03641
657.02787	0.03594
655.74210	0.03558
654.45633	0.03532
653.17056	0.03517
651.88480	0.03507
650.59903	0.03499
649.31326	0.03495
648.02749	0.03486
646.74172	0.03479
645.45595	0.03481
644.17018	0.03489
642.88441	0.03499
641.59864	0.03506
640.31288	0.03504
639.02711	0.03490
637.74134	0.03473
636.45557	0.03465
635.16980	0.03475
633.88403	0.03504
632.59826	0.03540
631.31249	0.03571
630.02673	0.03587
628.74096	0.03586
627.45519	0.03575
626.16942	0.03577
624.88365	0.03616
623.59788	0.03725
622.31211	0.03917
621.02634	0.04164
619.74057	0.04420
618.45481	0.04676
617.16904	0.04971
615.88327	0.05337
614.59750	0.05769
613.31173	0.06229
612.02596	0.06694
610.74019	0.07190
609.45442	0.07751
608.16866	0.08352
606.88289	0.08922
605.59712	0.09419
604.31135	0.09823
603.02558	0.10090
601.73981	0.10175
600.45404	0.10083
599.16827	0.09873
597.88250	0.09617
596.59674	0.09357
595.31097	0.09101
594.02520	0.08846
592.73943	0.08604
591.45366	0.08406
590.16789	0.08279
588.88212	0.08229
587.59635	0.08244
586.31059	0.08305
585.02482	0.08410
583.73905	0.08562
582.45328	0.08766
581.16751	0.09010
579.88174	0.09276
578.59597	0.09544
577.31020	0.09799
576.02443	0.10038
574.73867	0.10259
573.45290	0.10464
572.16713	0.10667
570.88136	0.10895
569.59559	0.11177
568.30982	0.11520
567.02405	0.11903
565.73828	0.12286
564.45251	0.12622
563.16675	0.12868
561.88098	0.12992
560.59521	0.12978
559.30944	0.12825
558.02367	0.12539
556.73790	0.12137
555.45213	0.11651
554.16636	0.11125
552.88060	0.10601
551.59483	0.10106
550.30906	0.09645
549.02329	0.09217
547.73752	0.08818
546.45175	0.08444
545.16598	0.08095
543.88021	0.07782
542.59444	0.07514
541.30868	0.07290
540.02291	0.07092
538.73714	0.06899
537.45137	0.06704
536.16560	0.06511
534.87983	0.06332
533.59406	0.06169
532.30829	0.06014
531.02253	0.05861
529.73676	0.05714
528.45099	0.05582
527.16522	0.05471
525.87945	0.05380
524.59368	0.05305
523.30791	0.05239
522.02214	0.05173
520.73637	0.05097
519.45061	0.05010
518.16484	0.04913
516.87907	0.04815
515.59330	0.04719
514.30753	0.04631
513.02176	0.04551
511.73599	0.04480
510.45022	0.04415
509.16446	0.04356
507.87869	0.04304
506.59292	0.04259
505.30715	0.04215
504.02138	0.04162
502.73561	0.04099
501.44984	0.04035
500.16407	0.03981
498.87830	0.03941
497.59254	0.03911
496.30677	0.03880
495.02100	0.03840
493.73523	0.03793
492.44946	0.03746
491.16369	0.03708
489.87792	0.03681
488.59215	0.03656
487.30639	0.03626
486.02062	0.03592
484.73485	0.03561
483.44908	0.03543
482.16331	0.03536
480.87754	0.03533
479.59177	0.03528
478.30600	0.03521
477.02023	0.03516
475.73447	0.03515
474.44870	0.03520
473.16293	0.03529
471.87716	0.03538
470.59139	0.03537
469.30562	0.03524
468.01985	0.03499
466.73408	0.03470
465.44832	0.03440
464.16255	0.03405
462.87678	0.03365
461.59101	0.03321
460.30524	0.03272
459.01947	0.03220
457.73370	0.03167
456.44793	0.03115
455.16216	0.03068
453.87640	0.03027
452.59063	0.02994
451.30486	0.02964
450.01909	0.02930
448.73332	0.02891
447.44755	0.02851
446.16178	0.02819
444.87601	0.02800
443.59025	0.02790
442.30448	0.02782
441.01871	0.02764
439.73294	0.02736
438.44717	0.02703
437.16140	0.02669
435.87563	0.02639
434.58986	0.02613
433.30409	0.02592
432.01833	0.02580
430.73256	0.02576
429.44679	0.02572
428.16102	0.02561
426.87525	0.02543
425.58948	0.02524
424.30371	0.02504
423.01794	0.02481
421.73218	0.02457
420.44641	0.02436
419.16064	0.02427
417.87487	0.02429
416.58910	0.02433
415.30333	0.02430
414.01756	0.02423
412.73179	0.02422
411.44602	0.02430
410.16026	0.02446
408.87449	0.02467
407.58872	0.02486
406.30295	0.02500
405.01718	0.02509
403.73141	0.02516
402.44564	0.02527
401.15987	0.02543
399.87411	0.02561
