3997.45528	0.09057
3996.16951	0.09041
3994.88374	0.09023
3993.59798	0.09007
3992.31221	0.08986
3991.02644	0.08946
3989.74067	0.08885
3988.45490	0.08831
3987.16913	0.08818
3985.88336	0.08843
3984.59759	0.08866
3983.31183	0.08854
3982.02606	0.08812
3980.74029	0.08769
3979.45452	0.08739
3978.16875	0.08710
3976.88298	0.08667
3975.59721	0.08617
3974.31144	0.08585
3973.02567	0.08597
3971.73991	0.08653
3970.45414	0.08727
3969.16837	0.08779
3967.88260	0.08785
3966.59683	0.08745
3965.31106	0.08681
3964.02529	0.08632
3962.73952	0.08639
3961.45376	0.08709
3960.16799	0.08791
3958.88222	0.08805
3957.59645	0.08715
3956.31068	0.08562
3955.02491	0.08413
3953.73914	0.08307
3952.45337	0.08254
3951.16760	0.08253
3949.88184	0.08303
3948.59607	0.08392
3947.31030	0.08483
3946.02453	0.08537
3944.73876	0.08530
3943.45299	0.08471
3942.16722	0.08388
3940.88145	0.08305
3939.59569	0.08243
3938.30992	0.08224
3937.02415	0.08257
3935.73838	0.08315
3934.45261	0.08353
3933.16684	0.08353
3931.88107	0.08345
3930.59530	0.08366
3929.30953	0.08426
3928.02377	0.08511
3926.73800	0.08587
3925.45223	0.08618
3924.16646	0.08585
3922.88069	0.08502
3921.59492	0.08411
3920.30915	0.08356
3919.02338	0.08349
3917.73762	0.08372
3916.45185	0.08408
3915.16608	0.08439
3913.88031	0.08446
3912.59454	0.08410
3911.30877	0.08338
3910.02300	0.08268
3908.73723	0.08242
3907.45146	0.08264
3906.16570	0.08296
3904.87993	0.08309
3903.59416	0.08315
3902.30839	0.08339
3901.02262	0.08384
3899.73685	0.08415
3898.45108	0.08391
3897.16531	0.08301
3895.87955	0.08184
3894.59378	0.08093
3893.30801	0.08056
3892.02224	0.08068
3890.73647	0.08109
3889.45070	0.08149
3888.16493	0.08166
3886.87916	0.08163
3885.59339	0.08174
3884.30763	0.08219
3883.02186	0.08279
3881.73609	0.08313
3880.45032	0.08298
3879.16455	0.08244
3877.87878	0.08188
3876.59301	0.08160
3875.30724	0.08159
3874.02148	0.08148
3872.73571	0.08093
3871.44994	0.08014
3870.16417	0.07972
3868.87840	0.08011
3867.59263	0.08098
3866.30686	0.08167
3865.02109	0.08192
3863.73532	0.08189
3862.44956	0.08182
3861.16379	0.08183
3859.87802	0.08182
3858.59225	0.08161
3857.30648	0.08107
3856.02071	0.08036
3854.73494	0.07991
3853.44917	0.08016
3852.16341	0.08096
3850.87764	0.08158
3849.59187	0.08149
3848.30610	0.08075
3847.02033	0.07973
3845.73456	0.07881
3844.44879	0.07832
3843.16302	0.07838
3841.87725	0.07880
3840.59149	0.07908
3839.30572	0.07896
3838.01995	0.07874
3836.73418	0.07882
3835.44841	0.07906
3834.16264	0.07899
3832.87687	0.07842
3831.59110	0.07763
3830.30534	0.07706
3829.01957	0.07701
3827.73380	0.07751
3826.44803	0.07836
3825.16226	0.07910
3823.87649	0.07927
3822.59072	0.07882
3821.30495	0.07825
3820.01918	0.07799
3818.73342	0.07792
3817.44765	0.07769
3816.16188	0.07725
3814.87611	0.07680
3813.59034	0.07642
3812.30457	0.07627
3811.01880	0.07653
3809.73303	0.07703
3808.44726	0.07724
3807.16150	0.07693
3805.87573	0.07631
3804.58996	0.07561
3803.30419	0.07482
3802.01842	0.07409
3800.73265	0.07380
3799.44688	0.07412
3798.16111	0.07473
3796.87535	0.07516
3795.58958	0.07519
3794.30381	0.07495
3793.01804	0.07486
3791.73227	0.07517
3790.44650	0.07569
3789.16073	0.07606
3787.87496	0.07613
3786.58919	0.07602
3785.30343	0.07578
3784.01766	0.07540
3782.73189	0.07500
3781.44612	0.07480
3780.16035	0.07482
3778.87458	0.07491
3777.58881	0.07497
3776.30304	0.07510
3775.01728	0.07541
3773.73151	0.07569
3772.44574	0.07560
3771.15997	0.07501
3769.87420	0.07426
3768.58843	0.07379
3767.30266	0.07377
3766.01689	0.07408
3764.73112	0.07450
3763.44536	0.07472
3762.15959	0.07457
3760.87382	0.07421
3759.58805	0.07406
3758.30228	0.07431
3757.01651	0.07474
3755.73074	0.07490
3754.44497	0.07453
3753.15921	0.07387
3751.87344	0.07342
3750.58767	0.07354
3749.30190	0.07419
3748.01613	0.07501
3746.73036	0.07547
3745.44459	0.07530
3744.15882	0.07478
3742.87305	0.07430
3741.58729	0.07405
3740.30152	0.07409
3739.01575	0.07431
3737.72998	0.07438
3736.44421	0.07412
3735.15844	0.07364
3733.87267	0.07304
3732.58690	0.07243
3731.30114	0.07197
3730.01537	0.07183
3728.72960	0.07196
3727.44383	0.07225
3726.15806	0.07258
3724.87229	0.07267
3723.58652	0.07236
3722.30075	0.07181
3721.01498	0.07145
3719.72922	0.07154
3718.44345	0.07195
3717.15768	0.07230
3715.87191	0.07232
3714.58614	0.07204
3713.30037	0.07161
3712.01460	0.07113
3710.72883	0.07072
3709.44307	0.07054
3708.15730	0.07082
3706.87153	0.07149
3705.58576	0.07212
3704.29999	0.07239
3703.01422	0.07217
3701.72845	0.07164
3700.44268	0.07122
3699.15691	0.07135
3697.87115	0.07185
3696.58538	0.07226
3695.29961	0.07250
3694.01384	0.07267
3692.72807	0.07264
3691.44230	0.07219
3690.15653	0.07128
3688.87076	0.07020
3687.58500	0.06933
3686.29923	0.06890
3685.01346	0.06866
3683.72769	0.06840
3682.44192	0.06829
3681.15615	0.06843
3679.87038	0.06880
3678.58461	0.06921
3677.29884	0.06944
3676.01308	0.06955
3674.72731	0.06982
3673.44154	0.07032
3672.15577	0.07085
3670.87000	0.07117
3669.58423	0.07110
3668.29846	0.07054
3667.01269	0.06948
3665.72693	0.06828
3664.44116	0.06753
3663.15539	0.06777
3661.86962	0.06901
3660.58385	0.07052
3659.29808	0.07140
3658.01231	0.07140
3656.72654	0.07114
3655.44077	0.07142
3654.15501	0.07230
3652.86924	0.07315
3651.58347	0.07339
3650.29770	0.07300
3649.01193	0.07239
3647.72616	0.07198
3646.44039	0.07194
3645.15462	0.07224
3643.86886	0.07270
3642.58309	0.07303
3641.29732	0.07308
3640.01155	0.07298
3638.72578	0.07303
3637.44001	0.07332
3636.15424	0.07356
3634.86847	0.07340
3633.58270	0.07288
3632.29694	0.07235
3631.01117	0.07207
3629.72540	0.07226
3628.43963	0.07297
3627.15386	0.07394
3625.86809	0.07469
3624.58232	0.07500
3623.29655	0.07511
3622.01079	0.07531
3620.72502	0.07567
3619.43925	0.07603
3618.15348	0.07621
3616.86771	0.07614
3615.58194	0.07586
3614.29617	0.07551
3613.01040	0.07525
3611.72463	0.07515
3610.43887	0.07519
3609.15310	0.07533
3607.86733	0.07547
3606.58156	0.07543
3605.29579	0.07508
3604.01002	0.07471
3602.72425	0.07476
3601.43848	0.07547
3600.15272	0.07667
3598.86695	0.07805
3597.58118	0.07919
3596.29541	0.07982
3595.00964	0.07998
3593.72387	0.07994
3592.43810	0.07965
3591.15233	0.07900
3589.86656	0.07833
3588.58080	0.07811
3587.29503	0.07841
3586.00926	0.07883
3584.72349	0.07907
3583.43772	0.07905
3582.15195	0.07890
3580.86618	0.07879
3579.58041	0.07875
3578.29464	0.07873
3577.00888	0.07874
3575.72311	0.07885
3574.43734	0.07915
3573.15157	0.07961
3571.86580	0.08021
3570.58003	0.08092
3569.29426	0.08161
3568.00849	0.08208
3566.72273	0.08229
3565.43696	0.08242
3564.15119	0.08265
3562.86542	0.08301
3561.57965	0.08332
3560.29388	0.08335
3559.00811	0.08296
3557.72234	0.08220
3556.43657	0.08138
3555.15081	0.08084
3553.86504	0.08079
3552.57927	0.08121
3551.29350	0.08191
3550.00773	0.08268
3548.72196	0.08335
3547.43619	0.08384
3546.15042	0.08409
3544.86466	0.08407
3543.57889	0.08395
3542.29312	0.08407
3541.00735	0.08463
3539.72158	0.08535
3538.43581	0.08569
3537.15004	0.08535
3535.86427	0.08456
3534.57850	0.08383
3533.29274	0.08357
3532.00697	0.08386
3530.72120	0.08448
3529.43543	0.08508
3528.14966	0.08544
3526.86389	0.08559
3525.57812	0.08576
3524.29235	0.08612
3523.00659	0.08665
3521.72082	0.08713
3520.43505	0.08733
3519.14928	0.08727
3517.86351	0.08722
3516.57774	0.08743
3515.29197	0.08789
3514.00620	0.08836
3512.72043	0.08871
3511.43467	0.08894
3510.14890	0.08904
3508.86313	0.08896
3507.57736	0.08879
3506.29159	0.08877
3505.00582	0.08903
3503.72005	0.08947
3502.43428	0.08987
3501.14852	0.09013
3499.86275	0.09022
3498.57698	0.09008
3497.29121	0.08972
3496.00544	0.08922
3494.71967	0.08878
3493.43390	0.08866
3492.14813	0.08901
3490.86236	0.08974
3489.57660	0.09056
3488.29083	0.09125
3487.00506	0.09174
3485.71929	0.09198
3484.43352	0.09185
3483.14775	0.09129
3481.86198	0.09056
3480.57621	0.09008
3479.29045	0.09011
3478.00468	0.09063
3476.71891	0.09145
3475.43314	0.09233
3474.14737	0.09302
3472.86160	0.09327
3471.57583	0.09306
3470.29006	0.09260
3469.00429	0.09225
3467.71853	0.09225
3466.43276	0.09258
3465.14699	0.09302
3463.86122	0.09329
3462.57545	0.09335
3461.28968	0.09338
3460.00391	0.09359
3458.71814	0.09402
3457.43238	0.09451
3456.14661	0.09488
3454.86084	0.09508
3453.57507	0.09523
3452.28930	0.09542
3451.00353	0.09568
3449.71776	0.09592
3448.43199	0.09608
3447.14622	0.09622
3445.86046	0.09645
3444.57469	0.09681
3443.28892	0.09724
3442.00315	0.09753
3440.71738	0.09753
3439.43161	0.09723
3438.14584	0.09678
3436.86007	0.09638
3435.57431	0.09613
3434.28854	0.09605
3433.00277	0.09610
3431.71700	0.09626
3430.43123	0.09656
3429.14546	0.09705
3427.85969	0.09770
3426.57392	0.09833
3425.28815	0.09871
3424.00239	0.09869
3422.71662	0.09825
3421.43085	0.09753
3420.14508	0.09688
3418.85931	0.09663
3417.57354	0.09693
3416.28777	0.09763
3415.00200	0.09837
3413.71624	0.09880
3412.43047	0.09877
3411.14470	0.09846
3409.85893	0.09824
3408.57316	0.09837
3407.28739	0.09886
3406.00162	0.09951
3404.71585	0.10015
3403.43008	0.10069
3402.14432	0.10100
3400.85855	0.10095
3399.57278	0.10054
3398.28701	0.10002
3397.00124	0.09972
3395.71547	0.09978
3394.42970	0.10015
3393.14393	0.10067
3391.85817	0.10120
3390.57240	0.10161
3389.28663	0.10176
3388.00086	0.10158
3386.71509	0.10109
3385.42932	0.10047
3384.14355	0.09996
3382.85778	0.09973
3381.57201	0.09975
3380.28625	0.09994
3379.00048	0.10028
3377.71471	0.10081
3376.42894	0.10141
3375.14317	0.10175
3373.85740	0.10160
3372.57163	0.10105
3371.28586	0.10048
3370.00010	0.10036
3368.71433	0.10086
3367.42856	0.10178
3366.14279	0.10263
3364.85702	0.10301
3363.57125	0.10292
3362.28548	0.10272
3360.99971	0.10277
3359.71394	0.10318
3358.42818	0.10378
3357.14241	0.10429
3355.85664	0.10454
3354.57087	0.10442
3353.28510	0.10390
3351.99933	0.10313
3350.71356	0.10240
3349.42779	0.10203
3348.14202	0.10206
3346.85626	0.10223
3345.57049	0.10223
3344.28472	0.10201
3342.99895	0.10186
3341.71318	0.10206
3340.42741	0.10256
3339.14164	0.10307
3337.85587	0.10336
3336.57011	0.10347
3335.28434	0.10344
3333.99857	0.10326
3332.71280	0.10299
3331.42703	0.10279
3330.14126	0.10285
3328.85549	0.10320
3327.56972	0.10371
3326.28395	0.10422
3324.99819	0.10457
3323.71242	0.10465
3322.42665	0.10446
3321.14088	0.10414
3319.85511	0.10386
3318.56934	0.10370
3317.28357	0.10366
3315.99780	0.10372
3314.71204	0.10384
3313.42627	0.10396
3312.14050	0.10398
3310.85473	0.10396
3309.56896	0.10412
3308.28319	0.10459
3306.99742	0.10516
3305.71165	0.10541
3304.42588	0.10508
3303.14012	0.10437
3301.85435	0.10367
3300.56858	0.10329
3299.28281	0.10318
3297.99704	0.10309
3296.71127	0.10287
3295.42550	0.10258
3294.13973	0.10244
3292.85397	0.10257
3291.56820	0.10288
3290.28243	0.10309
3288.99666	0.10297
3287.71089	0.10252
3286.42512	0.10201
3285.13935	0.10173
3283.85358	0.10188
3282.56781	0.10238
3281.28205	0.10298
3279.99628	0.10340
3278.71051	0.10352
3277.42474	0.10346
3276.13897	0.10337
3274.85320	0.10328
3273.56743	0.10314
3272.28166	0.10294
3270.99590	0.10275
3269.71013	0.10254
3268.42436	0.10226
3267.13859	0.10190
3265.85282	0.10158
3264.56705	0.10137
3263.28128	0.10130
3261.99551	0.10136
3260.70974	0.10154
3259.42398	0.10181
3258.13821	0.10202
3256.85244	0.10195
3255.56667	0.10144
3254.28090	0.10060
3252.99513	0.09976
3251.70936	0.09927
3250.42359	0.09923
3249.13783	0.09943
3247.85206	0.09957
3246.56629	0.09946
3245.28052	0.09918
3243.99475	0.09889
3242.70898	0.09866
3241.42321	0.09846
3240.13744	0.09827
3238.85167	0.09816
3237.56591	0.09816
3236.28014	0.09814
3234.99437	0.09792
3233.70860	0.09748
3232.42283	0.09702
3231.13706	0.09678
3229.85129	0.09685
3228.56552	0.09710
3227.27976	0.09734
3225.99399	0.09746
3224.70822	0.09742
3223.42245	0.09722
3222.13668	0.09693
3220.85091	0.09669
3219.56514	0.09661
3218.27937	0.09664
3216.99360	0.09673
3215.70784	0.09687
3214.42207	0.09705
3213.13630	0.09719
3211.85053	0.09710
3210.56476	0.09676
3209.27899	0.09634
3207.99322	0.09601
3206.70745	0.09568
3205.42169	0.09522
3204.13592	0.09467
3202.85015	0.09434
3201.56438	0.09439
3200.27861	0.09463
3198.99284	0.09475
3197.70707	0.09471
3196.42130	0.09467
3195.13553	0.09466
3193.84977	0.09461
3192.56400	0.09443
3191.27823	0.09421
3189.99246	0.09402
3188.70669	0.09380
3187.42092	0.09349
3186.13515	0.09309
3184.84938	0.09262
3183.56362	0.09218
3182.27785	0.09192
3180.99208	0.09193
3179.70631	0.09211
3178.42054	0.09224
3177.13477	0.09210
3175.84900	0.09170
3174.56323	0.09117
3173.27746	0.09061
3171.99170	0.09002
3170.70593	0.08939
3169.42016	0.08881
3168.13439	0.08841
3166.84862	0.08828
3165.56285	0.08845
3164.27708	0.08883
3162.99131	0.08925
3161.70555	0.08939
3160.41978	0.08903
3159.13401	0.08831
3157.84824	0.08771
3156.56247	0.08765
3155.27670	0.08810
3153.99093	0.08870
3152.70516	0.08910
3151.41939	0.08920
3150.13363	0.08907
3148.84786	0.08874
3147.56209	0.08819
3146.27632	0.08748
3144.99055	0.08675
3143.70478	0.08615
3142.41901	0.08572
3141.13324	0.08551
3139.84748	0.08560
3138.56171	0.08592
3137.27594	0.08627
3135.99017	0.08638
3134.70440	0.08616
3133.41863	0.08572
3132.13286	0.08532
3130.84709	0.08521
3129.56132	0.08546
3128.27556	0.08582
3126.98979	0.08591
3125.70402	0.08559
3124.41825	0.08512
3123.13248	0.08484
3121.84671	0.08486
3120.56094	0.08500
3119.27517	0.08505
3117.98940	0.08496
3116.70364	0.08481
3115.41787	0.08461
3114.13210	0.08433
3112.84633	0.08400
3111.56056	0.08373
3110.27479	0.08366
3108.98902	0.08373
3107.70325	0.08381
3106.41749	0.08383
3105.13172	0.08380
3103.84595	0.08368
3102.56018	0.08343
3101.27441	0.08317
3099.98864	0.08306
3098.70287	0.08315
3097.41710	0.08326
3096.13133	0.08321
3094.84557	0.08294
3093.55980	0.08255
3092.27403	0.08220
3090.98826	0.08199
3089.70249	0.08196
3088.41672	0.08207
3087.13095	0.08226
3085.84518	0.08246
3084.55942	0.08264
3083.27365	0.08279
3081.98788	0.08285
3080.70211	0.08280
3079.41634	0.08269
3078.13057	0.08263
3076.84480	0.08267
3075.55903	0.08276
3074.27326	0.08281
3072.98750	0.08279
3071.70173	0.08274
3070.41596	0.08269
3069.13019	0.08263
3067.84442	0.08245
3066.55865	0.08209
3065.27288	0.08160
3063.98711	0.08121
3062.70135	0.08105
3061.41558	0.08103
3060.12981	0.08086
3058.84404	0.08042
3057.55827	0.07988
3056.27250	0.07957
3054.98673	0.07964
3053.70096	0.07998
3052.41519	0.08039
3051.12943	0.08072
3049.84366	0.08091
3048.55789	0.08091
3047.27212	0.08067
3045.98635	0.08020
3044.70058	0.07959
3043.41481	0.07898
3042.12904	0.07852
3040.84328	0.07828
3039.55751	0.07824
3038.27174	0.07831
3036.98597	0.07838
3035.70020	0.07839
3034.41443	0.07826
3033.12866	0.07800
3031.84289	0.07766
3030.55712	0.07732
3029.27136	0.07709
3027.98559	0.07700
3026.69982	0.07703
3025.41405	0.07712
3024.12828	0.07718
3022.84251	0.07713
3021.55674	0.07695
3020.27097	0.07668
3018.98521	0.07644
3017.69944	0.07636
3016.41367	0.07644
3015.12790	0.07657
3013.84213	0.07659
3012.55636	0.07640
3011.27059	0.07600
3009.98482	0.07548
3008.69905	0.07491
3007.41329	0.07434
3006.12752	0.07386
3004.84175	0.07357
3003.55598	0.07352
3002.27021	0.07369
3000.98444	0.07399
2999.69867	0.07434
2998.41290	0.07470
2997.12714	0.07500
2995.84137	0.07514
2994.55560	0.07510
2993.26983	0.07498
2991.98406	0.07492
2990.69829	0.07498
2989.41252	0.07514
2988.12675	0.07544
2986.84098	0.07593
2985.55522	0.07651
2984.26945	0.07696
2982.98368	0.07715
2981.69791	0.07718
2980.41214	0.07726
2979.12637	0.07752
2977.84060	0.07802
2976.55483	0.07871
2975.26907	0.07948
2973.98330	0.08024
2972.69753	0.08099
2971.41176	0.08179
2970.12599	0.08269
2968.84022	0.08363
2967.55445	0.08452
2966.26868	0.08532
2964.98291	0.08608
2963.69715	0.08683
2962.41138	0.08754
2961.12561	0.08818
2959.83984	0.08875
2958.55407	0.08931
2957.26830	0.08994
2955.98253	0.09066
2954.69676	0.09138
2953.41100	0.09197
2952.12523	0.09231
2950.83946	0.09245
2949.55369	0.09248
2948.26792	0.09255
2946.98215	0.09270
2945.69638	0.09292
2944.41061	0.09311
2943.12484	0.09324
2941.83908	0.09337
2940.55331	0.09359
2939.26754	0.09393
2937.98177	0.09438
2936.69600	0.09489
2935.41023	0.09540
2934.12446	0.09589
2932.83869	0.09642
2931.55293	0.09711
2930.26716	0.09797
2928.98139	0.09887
2927.69562	0.09959
2926.40985	0.10003
2925.12408	0.10027
2923.83831	0.10038
2922.55254	0.10033
2921.26677	0.10002
2919.98101	0.09948
2918.69524	0.09890
2917.40947	0.09835
2916.12370	0.09772
2914.83793	0.09687
2913.55216	0.09590
2912.26639	0.09503
2910.98062	0.09445
2909.69486	0.09414
2908.40909	0.09389
2907.12332	0.09353
2905.83755	0.09298
2904.55178	0.09235
2903.26601	0.09170
2901.98024	0.09104
2900.69447	0.09036
2899.40870	0.08968
2898.12294	0.08910
2896.83717	0.08862
2895.55140	0.08811
2894.26563	0.08745
2892.97986	0.08667
2891.69409	0.08598
2890.40832	0.08557
2889.12255	0.08538
2887.83678	0.08516
2886.55102	0.08478
2885.26525	0.08433
2883.97948	0.08401
2882.69371	0.08381
2881.40794	0.08365
2880.12217	0.08357
2878.83640	0.08373
2877.55063	0.08414
2876.26487	0.08462
2874.97910	0.08503
2873.69333	0.08533
2872.40756	0.08559
2871.12179	0.08584
2869.83602	0.08600
2868.55025	0.08600
2867.26448	0.08589
2865.97871	0.08579
2864.69295	0.08579
2863.40718	0.08576
2862.12141	0.08550
2860.83564	0.08503
2859.54987	0.08461
2858.26410	0.08448
2856.97833	0.08454
2855.69256	0.08450
2854.40680	0.08422
2853.12103	0.08376
2851.83526	0.08325
2850.54949	0.08272
2849.26372	0.08215
2847.97795	0.08147
2846.69218	0.08066
2845.40641	0.07979
2844.12064	0.07904
2842.83488	0.07848
2841.54911	0.07801
2840.26334	0.07740
2838.97757	0.07663
2837.69180	0.07582
2836.40603	0.07506
2835.12026	0.07437
2833.83449	0.07372
2832.54873	0.07308
2831.26296	0.07244
2829.97719	0.07185
2828.69142	0.07141
2827.40565	0.07112
2826.11988	0.07092
2824.83411	0.07070
2823.54834	0.07045
2822.26257	0.07015
2820.97681	0.06977
2819.69104	0.06933
2818.40527	0.06889
2817.11950	0.06855
2815.83373	0.06833
2814.54796	0.06814
2813.26219	0.06790
2811.97642	0.06765
2810.69066	0.06744
2809.40489	0.06721
2808.11912	0.06691
2806.83335	0.06653
2805.54758	0.06621
2804.26181	0.06602
2802.97604	0.06599
2801.69027	0.06607
2800.40450	0.06615
2799.11874	0.06605
2797.83297	0.06570
2796.54720	0.06524
2795.26143	0.06488
2793.97566	0.06470
2792.68989	0.06464
2791.40412	0.06459
2790.11835	0.06450
2788.83259	0.06436
2787.54682	0.06428
2786.26105	0.06434
2784.97528	0.06454
2783.68951	0.06466
2782.40374	0.06451
2781.11797	0.06414
2779.83220	0.06379
2778.54643	0.06369
2777.26067	0.06382
2775.97490	0.06399
2774.68913	0.06404
2773.40336	0.06395
2772.11759	0.06377
2770.83182	0.06358
2769.54605	0.06339
2768.26028	0.06318
2766.97452	0.06293
2765.68875	0.06263
2764.40298	0.06232
2763.11721	0.06205
2761.83144	0.06187
2760.54567	0.06175
2759.25990	0.06166
2757.97413	0.06155
2756.68836	0.06147
2755.40260	0.06144
2754.11683	0.06150
2752.83106	0.06160
2751.54529	0.06169
2750.25952	0.06172
2748.97375	0.06163
2747.68798	0.06140
2746.40221	0.06111
2745.11645	0.06095
2743.83068	0.06097
2742.54491	0.06103
2741.25914	0.06096
2739.97337	0.06075
2738.68760	0.06052
2737.40183	0.06036
2736.11606	0.06028
2734.83029	0.06021
2733.54453	0.06014
2732.25876	0.06007
2730.97299	0.06003
2729.68722	0.06008
2728.40145	0.06022
2727.11568	0.06038
2725.82991	0.06050
2724.54414	0.06049
2723.25838	0.06030
2721.97261	0.05995
2720.68684	0.05957
2719.40107	0.05933
2718.11530	0.05926
2716.82953	0.05931
2715.54376	0.05938
2714.25799	0.05943
2712.97222	0.05941
2711.68646	0.05923
2710.40069	0.05894
2709.11492	0.05868
2707.82915	0.05862
2706.54338	0.05873
2705.25761	0.05885
2703.97184	0.05887
2702.68607	0.05878
2701.40031	0.05864
2700.11454	0.05850
2698.82877	0.05836
2697.54300	0.05823
2696.25723	0.05807
2694.97146	0.05785
2693.68569	0.05766
2692.39992	0.05758
2691.11415	0.05760
2689.82839	0.05761
2688.54262	0.05753
2687.25685	0.05736
2685.97108	0.05720
2684.68531	0.05706
2683.39954	0.05690
2682.11377	0.05670
2680.82800	0.05652
2679.54224	0.05645
2678.25647	0.05652
2676.97070	0.05668
2675.68493	0.05686
2674.39916	0.05693
2673.11339	0.05683
2671.82762	0.05662
2670.54185	0.05646
2669.25608	0.05646
2667.97032	0.05660
2666.68455	0.05675
2665.39878	0.05675
2664.11301	0.05657
2662.82724	0.05633
2661.54147	0.05621
2660.25570	0.05627
2658.96993	0.05649
2657.68417	0.05676
2656.39840	0.05691
2655.11263	0.05680
2653.82686	0.05641
2652.54109	0.05593
2651.25532	0.05555
2649.96955	0.05532
2648.68378	0.05517
2647.39801	0.05503
2646.11225	0.05488
2644.82648	0.05466
2643.54071	0.05437
2642.25494	0.05408
2640.96917	0.05392
2639.68340	0.05383
2638.39763	0.05369
2637.11186	0.05347
2635.82609	0.05330
2634.54033	0.05328
2633.25456	0.05331
2631.96879	0.05325
2630.68302	0.05307
2629.39725	0.05283
2628.11148	0.05256
2626.82571	0.05226
2625.53994	0.05191
2624.25418	0.05159
2622.96841	0.05138
2621.68264	0.05126
2620.39687	0.05113
2619.11110	0.05093
2617.82533	0.05070
2616.53956	0.05052
2615.25379	0.05038
2613.96802	0.05023
2612.68226	0.05000
2611.39649	0.04974
2610.11072	0.04948
2608.82495	0.04930
2607.53918	0.04922
2606.25341	0.04926
2604.96764	0.04934
2603.68187	0.04933
2602.39611	0.04915
2601.11034	0.04889
2599.82457	0.04880
2598.53880	0.04901
2597.25303	0.04941
2595.96726	0.04961
2594.68149	0.04936
2593.39572	0.04874
2592.10995	0.04814
2590.82419	0.04794
2589.53842	0.04815
2588.25265	0.04848
2586.96688	0.04862
2585.68111	0.04853
2584.39534	0.04833
2583.10957	0.04813
2581.82380	0.04793
2580.53804	0.04769
2579.25227	0.04738
2577.96650	0.04705
2576.68073	0.04676
2575.39496	0.04656
2574.10919	0.04649
2572.82342	0.04661
2571.53765	0.04689
2570.25188	0.04719
2568.96612	0.04732
2567.68035	0.04721
2566.39458	0.04692
2565.10881	0.04658
2563.82304	0.04627
2562.53727	0.04604
2561.25150	0.04593
2559.96573	0.04589
2558.67997	0.04579
2557.39420	0.04561
2556.10843	0.04553
2554.82266	0.04575
2553.53689	0.04618
2552.25112	0.04642
2550.96535	0.04626
2549.67958	0.04586
2548.39381	0.04550
2547.10805	0.04531
2545.82228	0.04529
2544.53651	0.04539
2543.25074	0.04549
2541.96497	0.04542
2540.67920	0.04516
2539.39343	0.04487
2538.10766	0.04477
2536.82190	0.04492
2535.53613	0.04521
2534.25036	0.04535
2532.96459	0.04511
2531.67882	0.04459
2530.39305	0.04415
2529.10728	0.04407
2527.82151	0.04427
2526.53574	0.04442
2525.24998	0.04434
2523.96421	0.04411
2522.67844	0.04386
2521.39267	0.04354
2520.10690	0.04314
2518.82113	0.04279
2517.53536	0.04272
2516.24959	0.04298
2514.96383	0.04343
2513.67806	0.04388
2512.39229	0.04422
2511.10652	0.04438
2509.82075	0.04428
2508.53498	0.04388
2507.24921	0.04321
2505.96344	0.04245
2504.67767	0.04191
2503.39191	0.04189
2502.10614	0.04237
2500.82037	0.04296
2499.53460	0.04323
2498.24883	0.04314
2496.96306	0.04295
2495.67729	0.04288
2494.39152	0.04285
2493.10576	0.04270
2491.81999	0.04250
2490.53422	0.04246
2489.24845	0.04258
2487.96268	0.04269
2486.67691	0.04271
2485.39114	0.04271
2484.10537	0.04275
2482.81960	0.04272
2481.53384	0.04264
2480.24807	0.04266
2478.96230	0.04286
2477.67653	0.04307
2476.39076	0.04310
2475.10499	0.04297
2473.81922	0.04282
2472.53345	0.04271
2471.24769	0.04258
2469.96192	0.04241
2468.67615	0.04230
2467.39038	0.04233
2466.10461	0.04242
2464.81884	0.04242
2463.53307	0.04229
2462.24730	0.04219
2460.96153	0.04220
2459.67577	0.04226
2458.39000	0.04222
2457.10423	0.04201
2455.81846	0.04175
2454.53269	0.04154
2453.24692	0.04150
2451.96115	0.04160
2450.67538	0.04170
2449.38962	0.04163
2448.10385	0.04140
2446.81808	0.04115
2445.53231	0.04104
2444.24654	0.04106
2442.96077	0.04115
2441.67500	0.04121
2440.38923	0.04116
2439.10346	0.04097
2437.81770	0.04074
2436.53193	0.04061
2435.24616	0.04063
2433.96039	0.04073
2432.67462	0.04083
2431.38885	0.04093
2430.10308	0.04104
2428.81731	0.04115
2427.53155	0.04123
2426.24578	0.04120
2424.96001	0.04095
2423.67424	0.04048
2422.38847	0.03998
2421.10270	0.03970
2419.81693	0.03978
2418.53116	0.04007
2417.24539	0.04034
2415.95963	0.04040
2414.67386	0.04025
2413.38809	0.03999
2412.10232	0.03973
2410.81655	0.03958
2409.53078	0.03961
2408.24501	0.03974
2406.95924	0.03977
2405.67347	0.03962
2404.38771	0.03941
2403.10194	0.03929
2401.81617	0.03930
2400.53040	0.03937
2399.24463	0.03926
2397.95886	0.03937
2396.67309	0.03966
2395.38732	0.03995
2394.10156	0.04008
2392.81579	0.03993
2391.53002	0.03955
2390.24425	0.03913
2388.95848	0.03886
2387.67271	0.03879
2386.38694	0.03885
2385.10117	0.03897
2383.81540	0.03906
2382.52964	0.03915
2381.24387	0.03933
2379.95810	0.03962
2378.67233	0.03993
2377.38656	0.04016
2376.10079	0.04027
2374.81502	0.04032
2373.52925	0.04033
2372.24349	0.04032
2370.95772	0.04034
2369.67195	0.04041
2368.38618	0.04053
2367.10041	0.04067
2365.81464	0.04079
2364.52887	0.04086
2363.24310	0.04091
2361.95733	0.04096
2360.67157	0.04106
2359.38580	0.04122
2358.10003	0.04137
2356.81426	0.04143
2355.52849	0.04133
2354.24272	0.04112
2352.95695	0.04094
2351.67118	0.04090
2350.38542	0.04100
2349.09965	0.04112
2347.81388	0.04118
2346.52811	0.04113
2345.24234	0.04100
2343.95657	0.04090
2342.67080	0.04090
2341.38503	0.04096
2340.09926	0.04098
2338.81350	0.04088
2337.52773	0.04071
2336.24196	0.04058
2334.95619	0.04052
2333.67042	0.04043
2332.38465	0.04009
2331.09888	0.03947
2329.81311	0.03878
2328.52735	0.03844
2327.24158	0.03875
2325.95581	0.03963
2324.67004	0.04060
2323.38427	0.04120
2322.09850	0.04130
2320.81273	0.04114
2319.52696	0.04095
2318.24119	0.04078
2316.95543	0.04058
2315.66966	0.04040
2314.38389	0.04036
2313.09812	0.04045
2311.81235	0.04053
2310.52658	0.04038
2309.24081	0.03995
2307.95504	0.03939
2306.66928	0.03894
2305.38351	0.03871
2304.09774	0.03861
2302.81197	0.03839
2301.52620	0.03795
2300.24043	0.03738
2298.95466	0.03692
2297.66889	0.03670
2296.38312	0.03669
2295.09736	0.03676
2293.81159	0.03679
2292.52582	0.03675
2291.24005	0.03672
2289.95428	0.03675
2288.66851	0.03676
2287.38274	0.03658
2286.09697	0.03618
2284.81121	0.03577
2283.52544	0.03562
2282.23967	0.03586
2280.95390	0.03630
2279.66813	0.03661
2278.38236	0.03656
2277.09659	0.03613
2275.81082	0.03538
2274.52505	0.03442
2273.23929	0.03338
2271.95352	0.03251
2270.66775	0.03202
2269.38198	0.03199
2268.09621	0.03239
2266.81044	0.03305
2265.52467	0.03362
2264.23890	0.03369
2262.95314	0.03300
2261.66737	0.03181
2260.38160	0.03072
2259.09583	0.03023
2257.81006	0.03042
2256.52429	0.03095
2255.23852	0.03135
2253.95275	0.03125
2252.66698	0.03053
2251.38122	0.02951
2250.09545	0.02899
2248.80968	0.02953
2247.52391	0.03019
2246.23814	0.03089
2244.95237	0.03115
2243.66660	0.03084
2242.38083	0.03009
2241.09507	0.02914
2239.80930	0.02828
2238.52353	0.02772
2237.23776	0.02749
2235.95199	0.02744
2234.66622	0.02752
2233.38045	0.02779
2232.09468	0.02830
2230.80891	0.02894
2229.52315	0.02952
2228.23738	0.02988
2226.95161	0.02998
2225.66584	0.02982
2224.38007	0.02934
2223.09430	0.02855
2221.80853	0.02762
2220.52276	0.02686
2219.23700	0.02653
2217.95123	0.02651
2216.66546	0.02651
2215.37969	0.02636
2214.09392	0.02616
2212.80815	0.02609
2211.52238	0.02622
2210.23661	0.02653
2208.95084	0.02694
2207.66508	0.02714
2206.37931	0.02677
2205.09354	0.02575
2203.80777	0.02444
2202.52200	0.02335
2201.23623	0.02288
2199.95046	0.02323
2198.66469	0.02432
2197.37893	0.02557
2196.09316	0.02606
2194.80739	0.02522
2193.52162	0.02339
2192.23585	0.02158
2190.95008	0.02072
2189.66431	0.02110
2188.37854	0.02234
2187.09277	0.02368
2185.80701	0.02446
2184.52124	0.02438
2183.23547	0.02362
2181.94970	0.02254
2180.66393	0.02144
2179.37816	0.02036
2178.09239	0.01919
2176.80662	0.01812
2175.52085	0.01773
2174.23509	0.01855
2172.94932	0.02030
2171.66355	0.02204
2170.37778	0.02283
2169.09201	0.02244
2167.80624	0.02138
2166.52047	0.02055
2165.23470	0.02055
2163.94894	0.02129
2162.66317	0.02194
2161.37740	0.02137
2160.09163	0.01900
2158.80586	0.01556
2157.52009	0.01279
2156.23432	0.01200
2154.94855	0.01303
2153.66278	0.01470
2152.37702	0.01587
2151.09125	0.01608
2149.80548	0.01563
2148.51971	0.01516
2147.23394	0.01517
2145.94817	0.01562
2144.66240	0.01618
2143.37663	0.01658
2142.09087	0.01689
2140.80510	0.01741
2139.51933	0.01830
2138.23356	0.01943
2136.94779	0.02046
2135.66202	0.02112
2134.37625	0.02137
2133.09048	0.02134
2131.80471	0.02127
2130.51895	0.02132
2129.23318	0.02151
2127.94741	0.02175
2126.66164	0.02203
2125.37587	0.02238
2124.09010	0.02265
2122.80433	0.02257
2121.51856	0.02209
2120.23280	0.02161
2118.94703	0.02165
2117.66126	0.02231
2116.37549	0.02324
2115.08972	0.02400
2113.80395	0.02438
2112.51818	0.02434
2111.23241	0.02399
2109.94664	0.02362
2108.66088	0.02353
2107.37511	0.02381
2106.08934	0.02421
2104.80357	0.02436
2103.51780	0.02405
2102.23203	0.02339
2100.94626	0.02265
2099.66049	0.02187
2098.37473	0.02152
2097.08896	0.02142
2095.80319	0.02134
2094.51742	0.02129
2093.23165	0.02145
2091.94588	0.02186
2090.66011	0.02237
2089.37434	0.02272
2088.08857	0.02285
2086.80281	0.02287
2085.51704	0.02294
2084.23127	0.02307
2082.94550	0.02320
2081.65973	0.02324
2080.37396	0.02308
2079.08819	0.02254
2077.80242	0.02159
2076.51666	0.02044
2075.23089	0.01948
2073.94512	0.01905
2072.65935	0.01924
2071.37358	0.01991
2070.08781	0.02071
2068.80204	0.02121
2067.51627	0.02125
2066.23050	0.02100
2064.94474	0.02075
2063.65897	0.02063
2062.37320	0.02060
2061.08743	0.02062
2059.80166	0.02067
2058.51589	0.02070
2057.23012	0.02070
2055.94435	0.02069
2054.65859	0.02061
2053.37282	0.02029
2052.08705	0.01959
2050.80128	0.01857
2049.51551	0.01741
2048.22974	0.01621
2046.94397	0.01490
2045.65820	0.01338
2044.37243	0.01187
2043.08667	0.01086
2041.80090	0.01083
2040.51513	0.01175
2039.22936	0.01290
2037.94359	0.01340
2036.65782	0.01289
2035.37205	0.01181
2034.08628	0.01090
2032.80052	0.01053
2031.51475	0.01053
2030.22898	0.01064
2028.94321	0.01081
2027.65744	0.01110
2026.37167	0.01141
2025.08590	0.01151
2023.80013	0.01133
2022.51436	0.01110
2021.22860	0.01122
2019.94283	0.01186
2018.65706	0.01269
2017.37129	0.01317
2016.08552	0.01295
2014.79975	0.01217
2013.51398	0.01131
2012.22821	0.01082
2010.94245	0.01086
2009.65668	0.01138
2008.37091	0.01233
2007.08514	0.01369
2005.79937	0.01519
2004.51360	0.01633
2003.22783	0.01672
2001.94206	0.01649
2000.65629	0.01619
1999.37053	0.01631
1998.08476	0.01695
1996.79899	0.01788
1995.51322	0.01860
1994.22745	0.01863
1992.94168	0.01789
1991.65591	0.01680
1990.37014	0.01594
1989.08438	0.01565
1987.79861	0.01590
1986.51284	0.01646
1985.22707	0.01691
1983.94130	0.01685
1982.65553	0.01614
1981.36976	0.01513
1980.08399	0.01428
1978.79822	0.01376
1977.51246	0.01337
1976.22669	0.01291
1974.94092	0.01247
1973.65515	0.01229
1972.36938	0.01256
1971.08361	0.01316
1969.79784	0.01379
1968.51207	0.01416
1967.22631	0.01419
1965.94054	0.01407
1964.65477	0.01420
1963.36900	0.01479
1962.08323	0.01575
1960.79746	0.01670
1959.51169	0.01725
1958.22592	0.01720
1956.94015	0.01666
1955.65439	0.01601
1954.36862	0.01577
1953.08285	0.01629
1951.79708	0.01740
1950.51131	0.01853
1949.22554	0.01915
1947.93977	0.01913
1946.65400	0.01867
1945.36823	0.01823
1944.08247	0.01817
1942.79670	0.01862
1941.51093	0.01933
1940.22516	0.01991
1938.93939	0.02018
1937.65362	0.02020
1936.36785	0.02013
1935.08208	0.02007
1933.79632	0.02013
1932.51055	0.02040
1931.22478	0.02084
1929.93901	0.02128
1928.65324	0.02158
1927.36747	0.02167
1926.08170	0.02156
1924.79593	0.02138
1923.51016	0.02133
1922.22440	0.02151
1920.93863	0.02186
1919.65286	0.02220
1918.36709	0.02242
1917.08132	0.02250
1915.79555	0.02240
1914.50978	0.02207
1913.22401	0.02157
1911.93825	0.02110
1910.65248	0.02089
1909.36671	0.02102
1908.08094	0.02135
1906.79517	0.02169
1905.50940	0.02196
1904.22363	0.02215
1902.93786	0.02220
1901.65209	0.02204
1900.36633	0.02174
1899.08056	0.02157
1897.79479	0.02173
1896.50902	0.02215
1895.22325	0.02250
1893.93748	0.02249
1892.65171	0.02210
1891.36594	0.02160
1890.08018	0.02136
1888.79441	0.02156
1887.50864	0.02202
1886.22287	0.02247
1884.93710	0.02276
1883.65133	0.02292
1882.36556	0.02294
1881.07979	0.02280
1879.79402	0.02252
1878.50826	0.02222
1877.22249	0.02201
1875.93672	0.02192
1874.65095	0.02189
1873.36518	0.02189
1872.07941	0.02192
1870.79364	0.02197
1869.50787	0.02200
1868.22211	0.02194
1866.93634	0.02183
1865.65057	0.02181
1864.36480	0.02194
1863.07903	0.02213
1861.79326	0.02223
1860.50749	0.02218
1859.22172	0.02203
1857.93595	0.02187
1856.65019	0.02176
1855.36442	0.02169
1854.07865	0.02167
1852.79288	0.02170
1851.50711	0.02174
1850.22134	0.02178
1848.93557	0.02175
1847.64980	0.02162
1846.36404	0.02142
1845.07827	0.02128
1843.79250	0.02134
1842.50673	0.02152
1841.22096	0.02165
1839.93519	0.02164
1838.64942	0.02157
1837.36365	0.02157
1836.07788	0.02167
1834.79212	0.02184
1833.50635	0.02202
1832.22058	0.02212
1830.93481	0.02211
1829.64904	0.02199
1828.36327	0.02184
1827.07750	0.02168
1825.79173	0.02153
1824.50597	0.02142
1823.22020	0.02143
1821.93443	0.02156
1820.64866	0.02179
1819.36289	0.02201
1818.07712	0.02213
1816.79135	0.02216
1815.50558	0.02216
1814.21981	0.02218
1812.93405	0.02225
1811.64828	0.02237
1810.36251	0.02256
1809.07674	0.02277
1807.79097	0.02294
1806.50520	0.02307
1805.21943	0.02313
1803.93366	0.02313
1802.64790	0.02302
1801.36213	0.02283
1800.07636	0.02266
1798.79059	0.02258
1797.50482	0.02259
1796.21905	0.02259
1794.93328	0.02251
1793.64751	0.02239
1792.36174	0.02235
1791.07598	0.02244
1789.79021	0.02259
1788.50444	0.02275
1787.21867	0.02291
1785.93290	0.02305
1784.64713	0.02317
1783.36136	0.02322
1782.07559	0.02317
1780.78983	0.02308
1779.50406	0.02297
1778.21829	0.02284
1776.93252	0.02273
1775.64675	0.02267
1774.36098	0.02267
1773.07521	0.02270
1771.78944	0.02275
1770.50367	0.02280
1769.21791	0.02289
1767.93214	0.02305
1766.64637	0.02328
1765.36060	0.02346
1764.07483	0.02350
1762.78906	0.02346
1761.50329	0.02344
1760.21752	0.02346
1758.93176	0.02344
1757.64599	0.02334
1756.36022	0.02321
1755.07445	0.02314
1753.78868	0.02315
1752.50291	0.02320
1751.21714	0.02326
1749.93137	0.02333
1748.64560	0.02335
1747.35984	0.02335
1746.07407	0.02333
1744.78830	0.02334
1743.50253	0.02336
1742.21676	0.02338
1740.93099	0.02342
1739.64522	0.02348
1738.35945	0.02359
1737.07369	0.02368
1735.78792	0.02370
1734.50215	0.02375
1733.21638	0.02393
1731.93061	0.02420
1730.64484	0.02444
1729.35907	0.02460
1728.07330	0.02474
1726.78753	0.02489
1725.50177	0.02506
1724.21600	0.02530
1722.93023	0.02563
1721.64446	0.02597
1720.35869	0.02625
1719.07292	0.02648
1717.78715	0.02677
1716.50138	0.02719
1715.21561	0.02766
1713.92985	0.02811
1712.64408	0.02853
1711.35831	0.02899
1710.07254	0.02955
1708.78677	0.03020
1707.50100	0.03091
1706.21523	0.03167
1704.92946	0.03253
1703.64370	0.03347
1702.35793	0.03445
1701.07216	0.03547
1699.78639	0.03661
1698.50062	0.03776
1697.21485	0.03876
1695.92908	0.03969
1694.64331	0.04075
1693.35754	0.04190
1692.07178	0.04298
1690.78601	0.04396
1689.50024	0.04494
1688.21447	0.04595
1686.92870	0.04694
1685.64293	0.04792
1684.35716	0.04904
1683.07139	0.05033
1681.78563	0.05165
1680.49986	0.05288
1679.21409	0.05402
1677.92832	0.05511
1676.64255	0.05618
1675.35678	0.05730
1674.07101	0.05847
1672.78524	0.05963
1671.49947	0.06073
1670.21371	0.06178
1668.92794	0.06283
1667.64217	0.06386
1666.35640	0.06482
1665.07063	0.06571
1663.78486	0.06660
1662.49909	0.06754
1661.21332	0.06851
1659.92756	0.06941
1658.64179	0.07021
1657.35602	0.07092
1656.07025	0.07150
1654.78448	0.07192
1653.49871	0.07230
1652.21294	0.07279
1650.92717	0.07335
1649.64140	0.07379
1648.35564	0.07406
1647.06987	0.07424
1645.78410	0.07440
1644.49833	0.07450
1643.21256	0.07445
1641.92679	0.07426
1640.64102	0.07397
1639.35525	0.07362
1638.06949	0.07317
1636.78372	0.07257
1635.49795	0.07190
1634.21218	0.07123
1632.92641	0.07055
1631.64064	0.06981
1630.35487	0.06900
1629.06910	0.06811
1627.78333	0.06712
1626.49757	0.06603
1625.21180	0.06487
1623.92603	0.06372
1622.64026	0.06268
1621.35449	0.06176
1620.06872	0.06085
1618.78295	0.05988
1617.49718	0.05890
1616.21142	0.05799
1614.92565	0.05717
1613.63988	0.05636
1612.35411	0.05559
1611.06834	0.05488
1609.78257	0.05425
1608.49680	0.05368
1607.21103	0.05318
1605.92526	0.05277
1604.63950	0.05243
1603.35373	0.05216
1602.06796	0.05196
1600.78219	0.05183
1599.49642	0.05174
1598.21065	0.05169
1596.92488	0.05169
1595.63911	0.05172
1594.35335	0.05175
1593.06758	0.05177
1591.78181	0.05179
1590.49604	0.05186
1589.21027	0.05205
1587.92450	0.05234
1586.63873	0.05272
1585.35296	0.05311
1584.06719	0.05351
1582.78143	0.05392
1581.49566	0.05435
1580.20989	0.05483
1578.92412	0.05530
1577.63835	0.05575
1576.35258	0.05622
1575.06681	0.05679
1573.78104	0.05740
1572.49528	0.05793
1571.20951	0.05840
1569.92374	0.05890
1568.63797	0.05949
1567.35220	0.06013
1566.06643	0.06078
1564.78066	0.06142
1563.49489	0.06201
1562.20912	0.06249
1560.92336	0.06287
1559.63759	0.06328
1558.35182	0.06384
1557.06605	0.06445
1555.78028	0.06494
1554.49451	0.06529
1553.20874	0.06562
1551.92297	0.06597
1550.63721	0.06629
1549.35144	0.06657
1548.06567	0.06681
1546.77990	0.06696
1545.49413	0.06701
1544.20836	0.06697
1542.92259	0.06689
1541.63682	0.06678
1540.35105	0.06668
1539.06529	0.06669
1537.77952	0.06678
1536.49375	0.06682
1535.20798	0.06679
1533.92221	0.06678
1532.63644	0.06686
1531.35067	0.06701
1530.06490	0.06717
1528.77914	0.06734
1527.49337	0.06757
1526.20760	0.06788
1524.92183	0.06825
1523.63606	0.06864
1522.35029	0.06906
1521.06452	0.06958
1519.77875	0.07019
1518.49298	0.07083
1517.20722	0.07147
1515.92145	0.07213
1514.63568	0.07284
1513.34991	0.07360
1512.06414	0.07443
1510.77837	0.07536
1509.49260	0.07629
1508.20683	0.07714
1506.92107	0.07797
1505.63530	0.07886
1504.34953	0.07979
1503.06376	0.08061
1501.77799	0.08126
1500.49222	0.08180
1499.20645	0.08227
1497.92068	0.08267
1496.63491	0.08303
1495.34915	0.08340
1494.06338	0.08380
1492.77761	0.08421
1491.49184	0.08465
1490.20607	0.08519
1488.92030	0.08589
1487.63453	0.08673
1486.34876	0.08767
1485.06299	0.08871
1483.77723	0.08982
1482.49146	0.09104
1481.20569	0.09235
1479.91992	0.09371
1478.63415	0.09506
1477.34838	0.09637
1476.06261	0.09762
1474.77684	0.09874
1473.49108	0.09974
1472.20531	0.10068
1470.91954	0.10162
1469.63377	0.10254
1468.34800	0.10336
1467.06223	0.10406
1465.77646	0.10467
1464.49069	0.10521
1463.20492	0.10572
1461.91916	0.10623
1460.63339	0.10680
1459.34762	0.10745
1458.06185	0.10818
1456.77608	0.10901
1455.49031	0.10994
1454.20454	0.11087
1452.91877	0.11172
1451.63301	0.11244
1450.34724	0.11302
1449.06147	0.11342
1447.77570	0.11364
1446.48993	0.11366
1445.20416	0.11347
1443.91839	0.11309
1442.63262	0.11258
1441.34685	0.11203
1440.06109	0.11150
1438.77532	0.11097
1437.48955	0.11047
1436.20378	0.11005
1434.91801	0.10977
1433.63224	0.10965
1432.34647	0.10975
1431.06070	0.11011
1429.77494	0.11076
1428.48917	0.11169
1427.20340	0.11284
1425.91763	0.11415
1424.63186	0.11556
1423.34609	0.11700
1422.06032	0.11840
1420.77455	0.11972
1419.48878	0.12099
1418.20302	0.12223
1416.91725	0.12336
1415.63148	0.12429
1414.34571	0.12500
1413.05994	0.12551
1411.77417	0.12583
1410.48840	0.12595
1409.20263	0.12589
1407.91687	0.12563
1406.63110	0.12516
1405.34533	0.12445
1404.05956	0.12347
1402.77379	0.12225
1401.48802	0.12080
1400.20225	0.11920
1398.91648	0.11750
1397.63071	0.11572
1396.34495	0.11386
1395.05918	0.11196
1393.77341	0.11008
1392.48764	0.10821
1391.20187	0.10630
1389.91610	0.10433
1388.63033	0.10235
1387.34456	0.10042
1386.05880	0.09856
1384.77303	0.09673
1383.48726	0.09488
1382.20149	0.09303
1380.91572	0.09117
1379.62995	0.08930
1378.34418	0.08739
1377.05841	0.08542
1375.77264	0.08335
1374.48688	0.08119
1373.20111	0.07898
1371.91534	0.07680
1370.62957	0.07465
1369.34380	0.07259
1368.05803	0.07065
1366.77226	0.06887
1365.48649	0.06721
1364.20073	0.06560
1362.91496	0.06401
1361.62919	0.06245
1360.34342	0.06097
1359.05765	0.05959
1357.77188	0.05834
1356.48611	0.05725
1355.20034	0.05628
1353.91457	0.05540
1352.62881	0.05456
1351.34304	0.05374
1350.05727	0.05296
1348.77150	0.05222
1347.48573	0.05155
1346.19996	0.05094
1344.91419	0.05038
1343.62842	0.04986
1342.34266	0.04937
1341.05689	0.04889
1339.77112	0.04845
1338.48535	0.04806
1337.19958	0.04771
1335.91381	0.04738
1334.62804	0.04704
1333.34227	0.04668
1332.05650	0.04630
1330.77074	0.04592
1329.48497	0.04552
1328.19920	0.04510
1326.91343	0.04469
1325.62766	0.04430
1324.34189	0.04394
1323.05612	0.04362
1321.77035	0.04330
1320.48459	0.04294
1319.19882	0.04256
1317.91305	0.04218
1316.62728	0.04184
1315.34151	0.04154
1314.05574	0.04127
1312.76997	0.04101
1311.48420	0.04074
1310.19843	0.04045
1308.91267	0.04015
1307.62690	0.03985
1306.34113	0.03956
1305.05536	0.03926
1303.76959	0.03896
1302.48382	0.03867
1301.19805	0.03840
1299.91228	0.03814
1298.62652	0.03790
1297.34075	0.03767
1296.05498	0.03742
1294.76921	0.03717
1293.48344	0.03694
1292.19767	0.03677
1290.91190	0.03666
1289.62613	0.03656
1288.34036	0.03644
1287.05460	0.03629
1285.76883	0.03611
1284.48306	0.03596
1283.19729	0.03585
1281.91152	0.03578
1280.62575	0.03568
1279.33998	0.03554
1278.05421	0.03537
1276.76845	0.03522
1275.48268	0.03513
1274.19691	0.03506
1272.91114	0.03495
1271.62537	0.03477
1270.33960	0.03454
1269.05383	0.03431
1267.76806	0.03412
1266.48229	0.03398
1265.19653	0.03390
1263.91076	0.03386
1262.62499	0.03382
1261.33922	0.03377
1260.05345	0.03374
1258.76768	0.03374
1257.48191	0.03377
1256.19614	0.03379
1254.91037	0.03375
1253.62461	0.03366
1252.33884	0.03355
1251.05307	0.03346
1249.76730	0.03342
1248.48153	0.03343
1247.19576	0.03345
1245.90999	0.03345
1244.62422	0.03342
1243.33846	0.03334
1242.05269	0.03322
1240.76692	0.03309
1239.48115	0.03296
1238.19538	0.03286
1236.90961	0.03277
1235.62384	0.03267
1234.33807	0.03253
1233.05230	0.03233
1231.76654	0.03208
1230.48077	0.03179
1229.19500	0.03149
1227.90923	0.03119
1226.62346	0.03093
1225.33769	0.03069
1224.05192	0.03046
1222.76615	0.03022
1221.48039	0.02997
1220.19462	0.02971
1218.90885	0.02941
1217.62308	0.02907
1216.33731	0.02874
1215.05154	0.02849
1213.76577	0.02834
1212.48000	0.02825
1211.19423	0.02817
1209.90847	0.02805
1208.62270	0.02789
1207.33693	0.02771
1206.05116	0.02756
1204.76539	0.02748
1203.47962	0.02745
1202.19385	0.02745
1200.90808	0.02743
1199.62232	0.02739
1198.33655	0.02726
1197.05078	0.02712
1195.76501	0.02697
1194.47924	0.02679
1193.19347	0.02658
1191.90770	0.02635
1190.62193	0.02613
1189.33616	0.02594
1188.05040	0.02576
1186.76463	0.02559
1185.47886	0.02544
1184.19309	0.02533
1182.90732	0.02523
1181.62155	0.02514
1180.33578	0.02505
1179.05001	0.02497
1177.76425	0.02491
1176.47848	0.02486
1175.19271	0.02483
1173.90694	0.02486
1172.62117	0.02492
1171.33540	0.02499
1170.04963	0.02504
1168.76386	0.02508
1167.47809	0.02514
1166.19233	0.02522
1164.90656	0.02531
1163.62079	0.02539
1162.33502	0.02546
1161.04925	0.02548
1159.76348	0.02546
1158.47771	0.02544
1157.19194	0.02545
1155.90618	0.02553
1154.62041	0.02564
1153.33464	0.02577
1152.04887	0.02592
1150.76310	0.02615
1149.47733	0.02646
1148.19156	0.02679
1146.90579	0.02709
1145.62002	0.02740
1144.33426	0.02779
1143.04849	0.02828
1141.76272	0.02884
1140.47695	0.02947
1139.19118	0.03018
1137.90541	0.03099
1136.61964	0.03197
1135.33387	0.03315
1134.04811	0.03453
1132.76234	0.03607
1131.47657	0.03777
1130.19080	0.03967
1128.90503	0.04180
1127.61926	0.04418
1126.33349	0.04675
1125.04772	0.04947
1123.76195	0.05233
1122.47619	0.05539
1121.19042	0.05865
1119.90465	0.06209
1118.61888	0.06566
1117.33311	0.06932
1116.04734	0.07301
1114.76157	0.07670
1113.47580	0.08033
1112.19004	0.08388
1110.90427	0.08732
1109.61850	0.09067
1108.33273	0.09390
1107.04696	0.09703
1105.76119	0.10003
1104.47542	0.10295
1103.18965	0.10587
1101.90388	0.10884
1100.61812	0.11181
1099.33235	0.11466
1098.04658	0.11729
1096.76081	0.11971
1095.47504	0.12200
1094.18927	0.12419
1092.90350	0.12623
1091.61773	0.12811
1090.33197	0.12983
1089.04620	0.13145
1087.76043	0.13298
1086.47466	0.13444
1085.18889	0.13586
1083.90312	0.13733
1082.61735	0.13897
1081.33158	0.14086
1080.04581	0.14296
1078.76005	0.14521
1077.47428	0.14761
1076.18851	0.15014
1074.90274	0.15284
1073.61697	0.15569
1072.33120	0.15873
1071.04543	0.16196
1069.75966	0.16530
1068.47390	0.16867
1067.18813	0.17204
1065.90236	0.17548
1064.61659	0.17903
1063.33082	0.18270
1062.04505	0.18643
1060.75928	0.19015
1059.47351	0.19379
1058.18774	0.19732
1056.90198	0.20076
1055.61621	0.20414
1054.33044	0.20751
1053.04467	0.21090
1051.75890	0.21437
1050.47313	0.21792
1049.18736	0.22154
1047.90159	0.22521
1046.61583	0.22894
1045.33006	0.23272
1044.04429	0.23658
1042.75852	0.24050
1041.47275	0.24446
1040.18698	0.24843
1038.90121	0.25237
1037.61544	0.25625
1036.32967	0.26008
1035.04391	0.26388
1033.75814	0.26766
1032.47237	0.27136
1031.18660	0.27487
1029.90083	0.27806
1028.61506	0.28089
1027.32929	0.28337
1026.04352	0.28555
1024.75775	0.28745
1023.47199	0.28903
1022.18622	0.29021
1020.90045	0.29097
1019.61468	0.29133
1018.32891	0.29127
1017.04314	0.29074
1015.75737	0.28965
1014.47160	0.28802
1013.18584	0.28588
1011.90007	0.28323
1010.61430	0.28004
1009.32853	0.27628
1008.04276	0.27196
1006.75699	0.26717
1005.47122	0.26201
1004.18545	0.25652
1002.89968	0.25072
1001.61392	0.24459
1000.32815	0.23811
999.04238	0.23138
997.75661	0.22451
996.47084	0.21757
995.18507	0.21053
993.89930	0.20343
992.61353	0.19638
991.32777	0.18950
990.04200	0.18288
988.75623	0.17649
987.47046	0.17031
986.18469	0.16436
984.89892	0.15867
983.61315	0.15328
982.32738	0.14820
981.04161	0.14344
979.75585	0.13899
978.47008	0.13488
977.18431	0.13108
975.89854	0.12755
974.61277	0.12430
973.32700	0.12146
972.04123	0.11917
970.75546	0.11749
969.46970	0.11647
968.18393	0.11609
966.89816	0.11630
965.61239	0.11698
964.32662	0.11795
963.04085	0.11902
961.75508	0.11990
960.46931	0.12025
959.18354	0.11984
957.89778	0.11863
956.61201	0.11673
955.32624	0.11436
954.04047	0.11171
952.75470	0.10893
951.46893	0.10617
950.18316	0.10351
948.89739	0.10099
947.61163	0.09860
946.32586	0.09631
945.04009	0.09406
943.75432	0.09181
942.46855	0.08958
941.18278	0.08742
939.89701	0.08537
938.61124	0.08343
937.32547	0.08161
936.03971	0.07993
934.75394	0.07844
933.46817	0.07710
932.18240	0.07582
930.89663	0.07453
929.61086	0.07324
928.32509	0.07203
927.03932	0.07093
925.75356	0.06992
924.46779	0.06897
923.18202	0.06809
921.89625	0.06725
920.61048	0.06645
919.32471	0.06567
918.03894	0.06489
916.75317	0.06414
915.46740	0.06345
914.18164	0.06281
912.89587	0.06217
911.61010	0.06148
910.32433	0.06078
909.03856	0.06014
907.75279	0.05959
906.46702	0.05906
905.18125	0.05848
903.89549	0.05784
902.60972	0.05719
901.32395	0.05656
900.03818	0.05595
898.75241	0.05537
897.46664	0.05488
896.18087	0.05449
894.89510	0.05412
893.60933	0.05370
892.32357	0.05330
891.03780	0.05307
889.75203	0.05309
888.46626	0.05336
887.18049	0.05389
885.89472	0.05480
884.60895	0.05635
883.32318	0.05872
882.03742	0.06178
880.75165	0.06500
879.46588	0.06778
878.18011	0.06985
876.89434	0.07143
875.60857	0.07299
874.32280	0.07475
873.03703	0.07649
871.75126	0.07765
870.46550	0.07781
869.17973	0.07688
867.89396	0.07505
866.60819	0.07259
865.32242	0.06975
864.03665	0.06677
862.75088	0.06392
861.46511	0.06138
860.17935	0.05922
858.89358	0.05736
857.60781	0.05574
856.32204	0.05437
855.03627	0.05332
853.75050	0.05255
852.46473	0.05195
851.17896	0.05138
849.89319	0.05080
848.60743	0.05024
847.32166	0.04972
846.03589	0.04926
844.75012	0.04881
843.46435	0.04835
842.17858	0.04789
840.89281	0.04744
839.60704	0.04699
838.32128	0.04653
837.03551	0.04608
835.74974	0.04566
834.46397	0.04529
833.17820	0.04498
831.89243	0.04470
830.60666	0.04446
829.32089	0.04428
828.03512	0.04419
826.74936	0.04415
825.46359	0.04409
824.17782	0.04394
822.89205	0.04370
821.60628	0.04343
820.32051	0.04322
819.03474	0.04307
817.74897	0.04290
816.46321	0.04269
815.17744	0.04247
813.89167	0.04229
812.60590	0.04218
811.32013	0.04213
810.03436	0.04210
808.74859	0.04206
807.46282	0.04197
806.17705	0.04186
804.89129	0.04179
803.60552	0.04178
802.31975	0.04178
801.03398	0.04173
799.74821	0.04159
798.46244	0.04143
797.17667	0.04133
795.89090	0.04129
794.60513	0.04129
793.31937	0.04124
792.03360	0.04115
790.74783	0.04108
789.46206	0.04111
788.17629	0.04121
786.89052	0.04132
785.60475	0.04136
784.31898	0.04129
783.03322	0.04115
781.74745	0.04102
780.46168	0.04094
779.17591	0.04087
777.89014	0.04077
776.60437	0.04065
775.31860	0.04051
774.03283	0.04037
772.74706	0.04020
771.46130	0.04003
770.17553	0.03992
768.88976	0.03993
767.60399	0.04004
766.31822	0.04017
765.03245	0.04021
763.74668	0.04016
762.46091	0.04009
761.17515	0.04011
759.88938	0.04026
758.60361	0.04050
757.31784	0.04071
756.03207	0.04079
754.74630	0.04072
753.46053	0.04057
752.17476	0.04040
750.88899	0.04025
749.60323	0.04011
748.31746	0.03997
747.03169	0.03981
745.74592	0.03962
744.46015	0.03939
743.17438	0.03916
741.88861	0.03900
740.60284	0.03894
739.31708	0.03899
738.03131	0.03909
736.74554	0.03918
735.45977	0.03923
734.17400	0.03922
732.88823	0.03911
731.60246	0.03892
730.31669	0.03872
729.03092	0.03865
727.74516	0.03875
726.45939	0.03890
725.17362	0.03893
723.88785	0.03865
722.60208	0.03867
721.31631	0.03893
720.03054	0.03924
718.74477	0.03951
717.45901	0.03966
716.17324	0.03965
714.88747	0.03950
713.60170	0.03928
712.31593	0.03905
711.03016	0.03886
709.74439	0.03873
708.45862	0.03866
707.17285	0.03864
705.88709	0.03862
704.60132	0.03858
703.31555	0.03852
702.02978	0.03846
700.74401	0.03844
699.45824	0.03847
698.17247	0.03854
696.88670	0.03858
695.60094	0.03858
694.31517	0.03858
693.02940	0.03864
691.74363	0.03876
690.45786	0.03886
689.17209	0.03886
687.88632	0.03876
686.60055	0.03859
685.31478	0.03841
684.02902	0.03823
682.74325	0.03805
681.45748	0.03786
680.17171	0.03769
678.88594	0.03754
677.60017	0.03743
676.31440	0.03736
675.02863	0.03734
673.74287	0.03734
672.45710	0.03737
671.17133	0.03745
669.88556	0.03759
668.59979	0.03779
667.31402	0.03796
666.02825	0.03800
664.74248	0.03786
663.45671	0.03761
662.17095	0.03736
660.88518	0.03719
659.59941	0.03712
658.31364	0.03710
657.02787	0.03709
655.74210	0.03701
654.45633	0.03687
653.17056	0.03669
651.88480	0.03657
650.59903	0.03654
649.31326	0.03659
648.02749	0.03665
646.74172	0.03668
645.45595	0.03667
644.17018	0.03667
642.88441	0.03673
641.59864	0.03687
640.31288	0.03706
639.02711	0.03725
637.74134	0.03740
636.45557	0.03752
635.16980	0.03769
633.88403	0.03795
632.59826	0.03829
631.31249	0.03864
630.02673	0.03886
628.74096	0.03904
627.45519	0.03973
626.16942	0.03973
624.88365	0.03914
623.59788	0.03862
622.31211	0.03912
621.02634	0.04151
619.74057	0.04580
618.45481	0.05104
617.16904	0.05616
615.88327	0.06064
614.59750	0.06466
613.31173	0.06876
612.02596	0.07347
610.74019	0.07885
609.45442	0.08428
608.16866	0.08898
606.88289	0.09296
605.59712	0.09701
604.31135	0.10148
603.02558	0.10551
601.73981	0.10778
600.45404	0.10771
599.16827	0.10584
597.88250	0.10306
596.59674	0.09999
595.31097	0.09682
594.02520	0.09360
592.73943	0.09052
591.45366	0.08799
590.16789	0.08632
588.88212	0.08556
587.59635	0.08552
586.31059	0.08605
585.02482	0.08721
583.73905	0.08906
582.45328	0.09151
581.16751	0.09432
579.88174	0.09726
578.59597	0.10029
577.31020	0.10336
576.02443	0.10639
574.73867	0.10927
573.45290	0.11198
572.16713	0.11467
570.88136	0.11752
569.59559	0.12071
568.30982	0.12440
567.02405	0.12860
565.73828	0.13312
564.45251	0.13745
563.16675	0.14095
561.88098	0.14303
560.59521	0.14324
559.30944	0.14141
558.02367	0.13768
556.73790	0.13247
555.45213	0.12635
554.16636	0.11992
552.88060	0.11362
551.59483	0.10767
550.30906	0.10213
549.02329	0.09695
547.73752	0.09215
546.45175	0.08778
545.16598	0.08387
543.88021	0.08045
542.59444	0.07755
541.30868	0.07514
540.02291	0.07308
538.73714	0.07115
537.45137	0.06922
536.16560	0.06728
534.87983	0.06540
533.59406	0.06363
532.30829	0.06201
531.02253	0.06055
529.73676	0.05930
528.45099	0.05824
527.16522	0.05729
525.87945	0.05639
524.59368	0.05549
523.30791	0.05458
522.02214	0.05363
520.73637	0.05263
519.45061	0.05158
518.16484	0.05053
516.87907	0.04951
515.59330	0.04859
514.30753	0.04779
513.02176	0.04712
511.73599	0.04655
510.45022	0.04605
509.16446	0.04554
507.87869	0.04493
506.59292	0.04419
505.30715	0.04339
504.02138	0.04268
502.73561	0.04217
501.44984	0.04183
500.16407	0.04155
498.87830	0.04126
497.59254	0.04094
496.30677	0.04061
495.02100	0.04025
493.73523	0.03983
492.44946	0.03936
491.16369	0.03893
489.87792	0.03862
488.59215	0.03846
487.30639	0.03838
486.02062	0.03833
484.73485	0.03829
483.44908	0.03826
482.16331	0.03826
480.87754	0.03828
479.59177	0.03837
478.30600	0.03855
477.02023	0.03882
475.73447	0.03917
474.44870	0.03959
473.16293	0.04002
471.87716	0.04041
470.59139	0.04065
469.30562	0.04069
468.01985	0.04052
466.73408	0.04018
465.44832	0.03970
464.16255	0.03910
462.87678	0.03848
461.59101	0.03792
460.30524	0.03744
459.01947	0.03701
457.73370	0.03656
456.44793	0.03609
455.16216	0.03564
453.87640	0.03525
452.59063	0.03490
451.30486	0.03454
450.01909	0.03415
448.73332	0.03375
447.44755	0.03335
446.16178	0.03295
444.87601	0.03253
443.59025	0.03211
442.30448	0.03173
441.01871	0.03142
439.73294	0.03120
438.44717	0.03105
437.16140	0.03094
435.87563	0.03083
434.58986	0.03070
433.30409	0.03056
432.01833	0.03042
430.73256	0.03027
429.44679	0.03010
428.16102	0.02990
426.87525	0.02967
425.58948	0.02941
424.30371	0.02914
423.01794	0.02889
421.73218	0.02863
420.44641	0.02837
419.16064	0.02812
417.87487	0.02789
416.58910	0.02765
415.30333	0.02735
414.01756	0.02703
412.73179	0.02675
411.44602	0.02655
410.16026	0.02644
408.87449	0.02636
407.58872	0.02631
406.30295	0.02627
405.01718	0.02624
403.73141	0.02623
402.44564	0.02623
401.15987	0.02623
399.87411	0.02621
