3997.45528	0.03555
3996.16951	0.03643
3994.88374	0.03716
3993.59798	0.03742
3992.31221	0.03711
3991.02644	0.03664
3989.74067	0.03652
3988.45490	0.03698
3987.16913	0.03770
3985.88336	0.03822
3984.59759	0.03836
3983.31183	0.03828
3982.02606	0.03818
3980.74029	0.03801
3979.45452	0.03772
3978.16875	0.03744
3976.88298	0.03740
3975.59721	0.03761
3974.31144	0.03789
3973.02567	0.03797
3971.73991	0.03774
3970.45414	0.03722
3969.16837	0.03662
3967.88260	0.03624
3966.59683	0.03637
3965.31106	0.03692
3964.02529	0.03753
3962.73952	0.03789
3961.45376	0.03801
3960.16799	0.03806
3958.88222	0.03808
3957.59645	0.03786
3956.31068	0.03732
3955.02491	0.03670
3953.73914	0.03644
3952.45337	0.03670
3951.16760	0.03725
3949.88184	0.03776
3948.59607	0.03807
3947.31030	0.03821
3946.02453	0.03826
3944.73876	0.03823
3943.45299	0.03819
3942.16722	0.03816
3940.88145	0.03800
3939.59569	0.03761
3938.30992	0.03715
3937.02415	0.03691
3935.73838	0.03698
3934.45261	0.03720
3933.16684	0.03734
3931.88107	0.03728
3930.59530	0.03699
3929.30953	0.03659
3928.02377	0.03630
3926.73800	0.03616
3925.45223	0.03608
3924.16646	0.03597
3922.88069	0.03590
3921.59492	0.03594
3920.30915	0.03605
3919.02338	0.03600
3917.73762	0.03570
3916.45185	0.03539
3915.16608	0.03530
3913.88031	0.03542
3912.59454	0.03568
3911.30877	0.03607
3910.02300	0.03656
3908.73723	0.03689
3907.45146	0.03681
3906.16570	0.03633
3904.87993	0.03578
3903.59416	0.03555
3902.30839	0.03571
3901.02262	0.03617
3899.73685	0.03685
3898.45108	0.03758
3897.16531	0.03811
3895.87955	0.03830
3894.59378	0.03821
3893.30801	0.03781
3892.02224	0.03711
3890.73647	0.03649
3889.45070	0.03630
3888.16493	0.03643
3886.87916	0.03671
3885.59339	0.03716
3884.30763	0.03756
3883.02186	0.03743
3881.73609	0.03676
3880.45032	0.03618
3879.16455	0.03607
3877.87878	0.03605
3876.59301	0.03560
3875.30724	0.03490
3874.02148	0.03456
3872.73571	0.03471
3871.44994	0.03505
3870.16417	0.03561
3868.87840	0.03662
3867.59263	0.03765
3866.30686	0.03816
3865.02109	0.03818
3863.73532	0.03800
3862.44956	0.03763
3861.16379	0.03716
3859.87802	0.03686
3858.59225	0.03680
3857.30648	0.03672
3856.02071	0.03631
3854.73494	0.03585
3853.44917	0.03603
3852.16341	0.03687
3850.87764	0.03756
3849.59187	0.03753
3848.30610	0.03685
3847.02033	0.03577
3845.73456	0.03457
3844.44879	0.03359
3843.16302	0.03319
3841.87725	0.03344
3840.59149	0.03396
3839.30572	0.03440
3838.01995	0.03490
3836.73418	0.03560
3835.44841	0.03608
3834.16264	0.03591
3832.87687	0.03535
3831.59110	0.03504
3830.30534	0.03522
3829.01957	0.03557
3827.73380	0.03584
3826.44803	0.03620
3825.16226	0.03666
3823.87649	0.03673
3822.59072	0.03611
3821.30495	0.03539
3820.01918	0.03519
3818.73342	0.03510
3817.44765	0.03455
3816.16188	0.03395
3814.87611	0.03386
3813.59034	0.03400
3812.30457	0.03388
3811.01880	0.03366
3809.73303	0.03350
3808.44726	0.03328
3807.16150	0.03315
3805.87573	0.03341
3804.58996	0.03391
3803.30419	0.03425
3802.01842	0.03458
3800.73265	0.03517
3799.44688	0.03563
3798.16111	0.03539
3796.87535	0.03475
3795.58958	0.03442
3794.30381	0.03458
3793.01804	0.03504
3791.73227	0.03554
3790.44650	0.03578
3789.16073	0.03547
3787.87496	0.03464
3786.58919	0.03369
3785.30343	0.03304
3784.01766	0.03278
3782.73189	0.03269
3781.44612	0.03257
3780.16035	0.03250
3778.87458	0.03267
3777.58881	0.03299
3776.30304	0.03323
3775.01728	0.03334
3773.73151	0.03343
3772.44574	0.03354
3771.15997	0.03359
3769.87420	0.03351
3768.58843	0.03309
3767.30266	0.03220
3766.01689	0.03132
3764.73112	0.03123
3763.44536	0.03207
3762.15959	0.03315
3760.87382	0.03377
3759.58805	0.03381
3758.30228	0.03351
3757.01651	0.03328
3755.73074	0.03333
3754.44497	0.03360
3753.15921	0.03405
3751.87344	0.03462
3750.58767	0.03504
3749.30190	0.03517
3748.01613	0.03495
3746.73036	0.03404
3745.44459	0.03268
3744.15882	0.03200
3742.87305	0.03238
3741.58729	0.03291
3740.30152	0.03306
3739.01575	0.03305
3737.72998	0.03314
3736.44421	0.03349
3735.15844	0.03408
3733.87267	0.03452
3732.58690	0.03458
3731.30114	0.03445
3730.01537	0.03429
3728.72960	0.03394
3727.44383	0.03334
3726.15806	0.03265
3724.87229	0.03196
3723.58652	0.03127
3722.30075	0.03083
3721.01498	0.03094
3719.72922	0.03165
3718.44345	0.03259
3717.15768	0.03335
3715.87191	0.03369
3714.58614	0.03363
3713.30037	0.03339
3712.01460	0.03325
3710.72883	0.03335
3709.44307	0.03355
3708.15730	0.03358
3706.87153	0.03331
3705.58576	0.03289
3704.29999	0.03267
3703.01422	0.03281
3701.72845	0.03296
3700.44268	0.03268
3699.15691	0.03192
3697.87115	0.03110
3696.58538	0.03074
3695.29961	0.03088
3694.01384	0.03114
3692.72807	0.03123
3691.44230	0.03111
3690.15653	0.03087
3688.87076	0.03066
3687.58500	0.03068
3686.29923	0.03083
3685.01346	0.03081
3683.72769	0.03064
3682.44192	0.03051
3681.15615	0.03052
3679.87038	0.03083
3678.58461	0.03137
3677.29884	0.03180
3676.01308	0.03214
3674.72731	0.03273
3673.44154	0.03341
3672.15577	0.03373
3670.87000	0.03380
3669.58423	0.03399
3668.29846	0.03409
3667.01269	0.03379
3665.72693	0.03335
3664.44116	0.03311
3663.15539	0.03306
3661.86962	0.03291
3660.58385	0.03253
3659.29808	0.03201
3658.01231	0.03157
3656.72654	0.03156
3655.44077	0.03216
3654.15501	0.03309
3652.86924	0.03379
3651.58347	0.03409
3650.29770	0.03418
3649.01193	0.03425
3647.72616	0.03437
3646.44039	0.03462
3645.15462	0.03500
3643.86886	0.03537
3642.58309	0.03561
3641.29732	0.03580
3640.01155	0.03615
3638.72578	0.03663
3637.44001	0.03693
3636.15424	0.03668
3634.86847	0.03596
3633.58270	0.03537
3632.29694	0.03529
3631.01117	0.03549
3629.72540	0.03559
3628.43963	0.03550
3627.15386	0.03519
3625.86809	0.03469
3624.58232	0.03435
3623.29655	0.03440
3622.01079	0.03452
3620.72502	0.03446
3619.43925	0.03451
3618.15348	0.03503
3616.86771	0.03598
3615.58194	0.03703
3614.29617	0.03804
3613.01040	0.03899
3611.72463	0.03973
3610.43887	0.04006
3609.15310	0.03998
3607.86733	0.03963
3606.58156	0.03902
3605.29579	0.03822
3604.01002	0.03742
3602.72425	0.03686
3601.43848	0.03664
3600.15272	0.03694
3598.86695	0.03790
3597.58118	0.03935
3596.29541	0.04072
3595.00964	0.04140
3593.72387	0.04125
3592.43810	0.04069
3591.15233	0.04025
3589.86656	0.04018
3588.58080	0.04039
3587.29503	0.04057
3586.00926	0.04043
3584.72349	0.03999
3583.43772	0.03962
3582.15195	0.03984
3580.86618	0.04075
3579.58041	0.04190
3578.29464	0.04271
3577.00888	0.04309
3575.72311	0.04351
3574.43734	0.04441
3573.15157	0.04569
3571.86580	0.04685
3570.58003	0.04748
3569.29426	0.04759
3568.00849	0.04740
3566.72273	0.04712
3565.43696	0.04683
3564.15119	0.04654
3562.86542	0.04627
3561.57965	0.04596
3560.29388	0.04547
3559.00811	0.04475
3557.72234	0.04398
3556.43657	0.04350
3555.15081	0.04354
3553.86504	0.04409
3552.57927	0.04488
3551.29350	0.04559
3550.00773	0.04597
3548.72196	0.04604
3547.43619	0.04594
3546.15042	0.04581
3544.86466	0.04573
3543.57889	0.04584
3542.29312	0.04634
3541.00735	0.04720
3539.72158	0.04802
3538.43581	0.04837
3537.15004	0.04815
3535.86427	0.04769
3534.57850	0.04734
3533.29274	0.04713
3532.00697	0.04702
3530.72120	0.04718
3529.43543	0.04791
3528.14966	0.04910
3526.86389	0.05023
3525.57812	0.05068
3524.29235	0.05033
3523.00659	0.04952
3521.72082	0.04876
3520.43505	0.04840
3519.14928	0.04846
3517.86351	0.04876
3516.57774	0.04908
3515.29197	0.04939
3514.00620	0.04985
3512.72043	0.05051
3511.43467	0.05112
3510.14890	0.05138
3508.86313	0.05122
3507.57736	0.05090
3506.29159	0.05079
3505.00582	0.05105
3503.72005	0.05154
3502.43428	0.05189
3501.14852	0.05173
3499.86275	0.05113
3498.57698	0.05057
3497.29121	0.05044
3496.00544	0.05062
3494.71967	0.05076
3493.43390	0.05082
3492.14813	0.05105
3490.86236	0.05151
3489.57660	0.05191
3488.29083	0.05199
3487.00506	0.05177
3485.71929	0.05152
3484.43352	0.05148
3483.14775	0.05181
3481.86198	0.05248
3480.57621	0.05322
3479.29045	0.05370
3478.00468	0.05375
3476.71891	0.05346
3475.43314	0.05314
3474.14737	0.05303
3472.86160	0.05324
3471.57583	0.05376
3470.29006	0.05447
3469.00429	0.05512
3467.71853	0.05531
3466.43276	0.05480
3465.14699	0.05378
3463.86122	0.05286
3462.57545	0.05257
3461.28968	0.05302
3460.00391	0.05387
3458.71814	0.05471
3457.43238	0.05529
3456.14661	0.05560
3454.86084	0.05573
3453.57507	0.05575
3452.28930	0.05563
3451.00353	0.05539
3449.71776	0.05513
3448.43199	0.05501
3447.14622	0.05505
3445.86046	0.05511
3444.57469	0.05499
3443.28892	0.05464
3442.00315	0.05418
3440.71738	0.05381
3439.43161	0.05380
3438.14584	0.05432
3436.86007	0.05522
3435.57431	0.05616
3434.28854	0.05680
3433.00277	0.05709
3431.71700	0.05721
3430.43123	0.05733
3429.14546	0.05745
3427.85969	0.05742
3426.57392	0.05712
3425.28815	0.05661
3424.00239	0.05621
3422.71662	0.05618
3421.43085	0.05655
3420.14508	0.05712
3418.85931	0.05759
3417.57354	0.05780
3416.28777	0.05767
3415.00200	0.05727
3413.71624	0.05678
3412.43047	0.05652
3411.14470	0.05671
3409.85893	0.05729
3408.57316	0.05789
3407.28739	0.05814
3406.00162	0.05798
3404.71585	0.05771
3403.43008	0.05768
3402.14432	0.05797
3400.85855	0.05836
3399.57278	0.05859
3398.28701	0.05861
3397.00124	0.05860
3395.71547	0.05874
3394.42970	0.05901
3393.14393	0.05930
3391.85817	0.05952
3390.57240	0.05967
3389.28663	0.05984
3388.00086	0.06003
3386.71509	0.06014
3385.42932	0.06001
3384.14355	0.05961
3382.85778	0.05911
3381.57201	0.05870
3380.28625	0.05851
3379.00048	0.05847
3377.71471	0.05845
3376.42894	0.05840
3375.14317	0.05842
3373.85740	0.05857
3372.57163	0.05876
3371.28586	0.05884
3370.00010	0.05879
3368.71433	0.05881
3367.42856	0.05906
3366.14279	0.05941
3364.85702	0.05963
3363.57125	0.05955
3362.28548	0.05918
3360.99971	0.05875
3359.71394	0.05861
3358.42818	0.05896
3357.14241	0.05966
3355.85664	0.06026
3354.57087	0.06035
3353.28510	0.05994
3351.99933	0.05933
3350.71356	0.05885
3349.42779	0.05857
3348.14202	0.05844
3346.85626	0.05846
3345.57049	0.05865
3344.28472	0.05898
3342.99895	0.05928
3341.71318	0.05947
3340.42741	0.05956
3339.14164	0.05954
3337.85587	0.05935
3336.57011	0.05903
3335.28434	0.05877
3333.99857	0.05873
3332.71280	0.05893
3331.42703	0.05915
3330.14126	0.05917
3328.85549	0.05892
3327.56972	0.05852
3326.28395	0.05823
3324.99819	0.05826
3323.71242	0.05865
3322.42665	0.05921
3321.14088	0.05957
3319.85511	0.05939
3318.56934	0.05864
3317.28357	0.05767
3315.99780	0.05694
3314.71204	0.05675
3313.42627	0.05707
3312.14050	0.05768
3310.85473	0.05835
3309.56896	0.05898
3308.28319	0.05954
3306.99742	0.05998
3305.71165	0.06025
3304.42588	0.06027
3303.14012	0.06002
3301.85435	0.05963
3300.56858	0.05930
3299.28281	0.05912
3297.99704	0.05899
3296.71127	0.05884
3295.42550	0.05874
3294.13973	0.05883
3292.85397	0.05904
3291.56820	0.05911
3290.28243	0.05889
3288.99666	0.05848
3287.71089	0.05816
3286.42512	0.05806
3285.13935	0.05812
3283.85358	0.05817
3282.56781	0.05815
3281.28205	0.05811
3279.99628	0.05815
3278.71051	0.05832
3277.42474	0.05859
3276.13897	0.05877
3274.85320	0.05872
3273.56743	0.05839
3272.28166	0.05796
3270.99590	0.05765
3269.71013	0.05755
3268.42436	0.05755
3267.13859	0.05749
3265.85282	0.05735
3264.56705	0.05722
3263.28128	0.05723
3261.99551	0.05737
3260.70974	0.05756
3259.42398	0.05771
3258.13821	0.05779
3256.85244	0.05777
3255.56667	0.05765
3254.28090	0.05750
3252.99513	0.05742
3251.70936	0.05747
3250.42359	0.05757
3249.13783	0.05755
3247.85206	0.05731
3246.56629	0.05686
3245.28052	0.05641
3243.99475	0.05620
3242.70898	0.05640
3241.42321	0.05688
3240.13744	0.05733
3238.85167	0.05744
3237.56591	0.05716
3236.28014	0.05667
3234.99437	0.05622
3233.70860	0.05598
3232.42283	0.05597
3231.13706	0.05611
3229.85129	0.05630
3228.56552	0.05643
3227.27976	0.05647
3225.99399	0.05642
3224.70822	0.05641
3223.42245	0.05653
3222.13668	0.05673
3220.85091	0.05685
3219.56514	0.05678
3218.27937	0.05667
3216.99360	0.05667
3215.70784	0.05672
3214.42207	0.05657
3213.13630	0.05612
3211.85053	0.05552
3210.56476	0.05509
3209.27899	0.05497
3207.99322	0.05509
3206.70745	0.05528
3205.42169	0.05545
3204.13592	0.05552
3202.85015	0.05542
3201.56438	0.05515
3200.27861	0.05485
3198.99284	0.05467
3197.70707	0.05465
3196.42130	0.05470
3195.13553	0.05467
3193.84977	0.05457
3192.56400	0.05453
3191.27823	0.05466
3189.99246	0.05493
3188.70669	0.05517
3187.42092	0.05521
3186.13515	0.05504
3184.84938	0.05471
3183.56362	0.05432
3182.27785	0.05396
3180.99208	0.05369
3179.70631	0.05350
3178.42054	0.05340
3177.13477	0.05346
3175.84900	0.05369
3174.56323	0.05389
3173.27746	0.05384
3171.99170	0.05354
3170.70593	0.05323
3169.42016	0.05320
3168.13439	0.05347
3166.84862	0.05380
3165.56285	0.05390
3164.27708	0.05367
3162.99131	0.05326
3161.70555	0.05291
3160.41978	0.05278
3159.13401	0.05287
3157.84824	0.05304
3156.56247	0.05312
3155.27670	0.05312
3153.99093	0.05315
3152.70516	0.05322
3151.41939	0.05321
3150.13363	0.05299
3148.84786	0.05262
3147.56209	0.05227
3146.27632	0.05208
3144.99055	0.05201
3143.70478	0.05198
3142.41901	0.05200
3141.13324	0.05212
3139.84748	0.05238
3138.56171	0.05271
3137.27594	0.05292
3135.99017	0.05289
3134.70440	0.05267
3133.41863	0.05243
3132.13286	0.05230
3130.84709	0.05222
3129.56132	0.05208
3128.27556	0.05177
3126.98979	0.05132
3125.70402	0.05085
3124.41825	0.05051
3123.13248	0.05033
3121.84671	0.05026
3120.56094	0.05027
3119.27517	0.05041
3117.98940	0.05070
3116.70364	0.05097
3115.41787	0.05098
3114.13210	0.05065
3112.84633	0.05014
3111.56056	0.04968
3110.27479	0.04943
3108.98902	0.04939
3107.70325	0.04948
3106.41749	0.04955
3105.13172	0.04957
3103.84595	0.04962
3102.56018	0.04985
3101.27441	0.05021
3099.98864	0.05042
3098.70287	0.05022
3097.41710	0.04961
3096.13133	0.04893
3094.84557	0.04856
3093.55980	0.04863
3092.27403	0.04900
3090.98826	0.04949
3089.70249	0.04999
3088.41672	0.05044
3087.13095	0.05080
3085.84518	0.05101
3084.55942	0.05093
3083.27365	0.05053
3081.98788	0.04988
3080.70211	0.04917
3079.41634	0.04859
3078.13057	0.04821
3076.84480	0.04802
3075.55903	0.04799
3074.27326	0.04802
3072.98750	0.04798
3071.70173	0.04785
3070.41596	0.04778
3069.13019	0.04793
3067.84442	0.04825
3066.55865	0.04845
3065.27288	0.04831
3063.98711	0.04788
3062.70135	0.04741
3061.41558	0.04708
3060.12981	0.04691
3058.84404	0.04679
3057.55827	0.04673
3056.27250	0.04686
3054.98673	0.04715
3053.70096	0.04741
3052.41519	0.04740
3051.12943	0.04715
3049.84366	0.04683
3048.55789	0.04656
3047.27212	0.04637
3045.98635	0.04628
3044.70058	0.04633
3043.41481	0.04648
3042.12904	0.04661
3040.84328	0.04667
3039.55751	0.04675
3038.27174	0.04696
3036.98597	0.04728
3035.70020	0.04756
3034.41443	0.04767
3033.12866	0.04755
3031.84289	0.04725
3030.55712	0.04680
3029.27136	0.04631
3027.98559	0.04589
3026.69982	0.04564
3025.41405	0.04554
3024.12828	0.04551
3022.84251	0.04547
3021.55674	0.04548
3020.27097	0.04560
3018.98521	0.04580
3017.69944	0.04595
3016.41367	0.04591
3015.12790	0.04561
3013.84213	0.04513
3012.55636	0.04462
3011.27059	0.04429
3009.98482	0.04427
3008.69905	0.04454
3007.41329	0.04492
3006.12752	0.04517
3004.84175	0.04521
3003.55598	0.04513
3002.27021	0.04508
3000.98444	0.04513
2999.69867	0.04525
2998.41290	0.04539
2997.12714	0.04553
2995.84137	0.04559
2994.55560	0.04546
2993.26983	0.04511
2991.98406	0.04466
2990.69829	0.04430
2989.41252	0.04417
2988.12675	0.04430
2986.84098	0.04463
2985.55522	0.04508
2984.26945	0.04544
2982.98368	0.04559
2981.69791	0.04565
2980.41214	0.04589
2979.12637	0.04642
2977.84060	0.04707
2976.55483	0.04764
2975.26907	0.04813
2973.98330	0.04871
2972.69753	0.04941
2971.41176	0.05006
2970.12599	0.05050
2968.84022	0.05077
2967.55445	0.05114
2966.26868	0.05182
2964.98291	0.05274
2963.69715	0.05358
2962.41138	0.05415
2961.12561	0.05456
2959.83984	0.05509
2958.55407	0.05582
2957.26830	0.05653
2955.98253	0.05693
2954.69676	0.05696
2953.41100	0.05688
2952.12523	0.05697
2950.83946	0.05728
2949.55369	0.05756
2948.26792	0.05761
2946.98215	0.05745
2945.69638	0.05728
2944.41061	0.05721
2943.12484	0.05721
2941.83908	0.05721
2940.55331	0.05720
2939.26754	0.05720
2937.98177	0.05730
2936.69600	0.05765
2935.41023	0.05834
2934.12446	0.05919
2932.83869	0.05988
2931.55293	0.06024
2930.26716	0.06041
2928.98139	0.06060
2927.69562	0.06088
2926.40985	0.06116
2925.12408	0.06132
2923.83831	0.06136
2922.55254	0.06130
2921.26677	0.06118
2919.98101	0.06094
2918.69524	0.06052
2917.40947	0.05991
2916.12370	0.05919
2914.83793	0.05852
2913.55216	0.05798
2912.26639	0.05758
2910.98062	0.05721
2909.69486	0.05677
2908.40909	0.05625
2907.12332	0.05574
2905.83755	0.05530
2904.55178	0.05493
2903.26601	0.05460
2901.98024	0.05425
2900.69447	0.05387
2899.40870	0.05350
2898.12294	0.05321
2896.83717	0.05297
2895.55140	0.05273
2894.26563	0.05243
2892.97986	0.05203
2891.69409	0.05154
2890.40832	0.05094
2889.12255	0.05030
2887.83678	0.04969
2886.55102	0.04916
2885.26525	0.04868
2883.97948	0.04823
2882.69371	0.04786
2881.40794	0.04759
2880.12217	0.04753
2878.83640	0.04774
2877.55063	0.04821
2876.26487	0.04883
2874.97910	0.04944
2873.69333	0.04991
2872.40756	0.05017
2871.12179	0.05030
2869.83602	0.05045
2868.55025	0.05066
2867.26448	0.05081
2865.97871	0.05076
2864.69295	0.05051
2863.40718	0.05020
2862.12141	0.04992
2860.83564	0.04967
2859.54987	0.04937
2858.26410	0.04899
2856.97833	0.04858
2855.69256	0.04825
2854.40680	0.04809
2853.12103	0.04806
2851.83526	0.04804
2850.54949	0.04789
2849.26372	0.04760
2847.97795	0.04722
2846.69218	0.04681
2845.40641	0.04638
2844.12064	0.04588
2842.83488	0.04529
2841.54911	0.04461
2840.26334	0.04387
2838.97757	0.04310
2837.69180	0.04242
2836.40603	0.04197
2835.12026	0.04177
2833.83449	0.04159
2832.54873	0.04121
2831.26296	0.04064
2829.97719	0.04016
2828.69142	0.03995
2827.40565	0.03990
2826.11988	0.03975
2824.83411	0.03941
2823.54834	0.03895
2822.26257	0.03852
2820.97681	0.03818
2819.69104	0.03800
2818.40527	0.03796
2817.11950	0.03799
2815.83373	0.03795
2814.54796	0.03780
2813.26219	0.03760
2811.97642	0.03744
2810.69066	0.03731
2809.40489	0.03718
2808.11912	0.03707
2806.83335	0.03702
2805.54758	0.03704
2804.26181	0.03706
2802.97604	0.03704
2801.69027	0.03696
2800.40450	0.03678
2799.11874	0.03647
2797.83297	0.03605
2796.54720	0.03567
2795.26143	0.03545
2793.97566	0.03541
2792.68989	0.03547
2791.40412	0.03551
2790.11835	0.03546
2788.83259	0.03533
2787.54682	0.03523
2786.26105	0.03520
2784.97528	0.03519
2783.68951	0.03514
2782.40374	0.03499
2781.11797	0.03478
2779.83220	0.03461
2778.54643	0.03459
2777.26067	0.03475
2775.97490	0.03498
2774.68913	0.03509
2773.40336	0.03500
2772.11759	0.03479
2770.83182	0.03467
2769.54605	0.03478
2768.26028	0.03505
2766.97452	0.03529
2765.68875	0.03531
2764.40298	0.03511
2763.11721	0.03483
2761.83144	0.03464
2760.54567	0.03452
2759.25990	0.03434
2757.97413	0.03406
2756.68836	0.03375
2755.40260	0.03351
2754.11683	0.03333
2752.83106	0.03321
2751.54529	0.03317
2750.25952	0.03326
2748.97375	0.03348
2747.68798	0.03373
2746.40221	0.03386
2745.11645	0.03379
2743.83068	0.03359
2742.54491	0.03338
2741.25914	0.03328
2739.97337	0.03327
2738.68760	0.03331
2737.40183	0.03332
2736.11606	0.03325
2734.83029	0.03312
2733.54453	0.03303
2732.25876	0.03306
2730.97299	0.03315
2729.68722	0.03317
2728.40145	0.03307
2727.11568	0.03285
2725.82991	0.03259
2724.54414	0.03238
2723.25838	0.03230
2721.97261	0.03234
2720.68684	0.03238
2719.40107	0.03234
2718.11530	0.03224
2716.82953	0.03220
2715.54376	0.03225
2714.25799	0.03230
2712.97222	0.03227
2711.68646	0.03217
2710.40069	0.03204
2709.11492	0.03189
2707.82915	0.03167
2706.54338	0.03141
2705.25761	0.03116
2703.97184	0.03101
2702.68607	0.03100
2701.40031	0.03108
2700.11454	0.03122
2698.82877	0.03138
2697.54300	0.03149
2696.25723	0.03150
2694.97146	0.03142
2693.68569	0.03131
2692.39992	0.03124
2691.11415	0.03120
2689.82839	0.03112
2688.54262	0.03099
2687.25685	0.03088
2685.97108	0.03087
2684.68531	0.03097
2683.39954	0.03109
2682.11377	0.03109
2680.82800	0.03098
2679.54224	0.03091
2678.25647	0.03101
2676.97070	0.03121
2675.68493	0.03129
2674.39916	0.03111
2673.11339	0.03077
2671.82762	0.03048
2670.54185	0.03035
2669.25608	0.03034
2667.97032	0.03038
2666.68455	0.03045
2665.39878	0.03047
2664.11301	0.03036
2662.82724	0.03017
2661.54147	0.02999
2660.25570	0.02990
2658.96993	0.02989
2657.68417	0.02992
2656.39840	0.02998
2655.11263	0.03007
2653.82686	0.03008
2652.54109	0.02999
2651.25532	0.02985
2649.96955	0.02979
2648.68378	0.02981
2647.39801	0.02986
2646.11225	0.02988
2644.82648	0.02986
2643.54071	0.02978
2642.25494	0.02960
2640.96917	0.02936
2639.68340	0.02908
2638.39763	0.02880
2637.11186	0.02849
2635.82609	0.02822
2634.54033	0.02805
2633.25456	0.02796
2631.96879	0.02780
2630.68302	0.02749
2629.39725	0.02712
2628.11148	0.02689
2626.82571	0.02694
2625.53994	0.02722
2624.25418	0.02756
2622.96841	0.02781
2621.68264	0.02794
2620.39687	0.02801
2619.11110	0.02802
2617.82533	0.02790
2616.53956	0.02758
2615.25379	0.02712
2613.96802	0.02670
2612.68226	0.02646
2611.39649	0.02644
2610.11072	0.02657
2608.82495	0.02670
2607.53918	0.02676
2606.25341	0.02670
2604.96764	0.02652
2603.68187	0.02624
2602.39611	0.02594
2601.11034	0.02568
2599.82457	0.02546
2598.53880	0.02522
2597.25303	0.02500
2595.96726	0.02492
2594.68149	0.02506
2593.39572	0.02530
2592.10995	0.02541
2590.82419	0.02533
2589.53842	0.02520
2588.25265	0.02517
2586.96688	0.02525
2585.68111	0.02533
2584.39534	0.02541
2583.10957	0.02557
2581.82380	0.02579
2580.53804	0.02599
2579.25227	0.02611
2577.96650	0.02618
2576.68073	0.02615
2575.39496	0.02590
2574.10919	0.02542
2572.82342	0.02486
2571.53765	0.02435
2570.25188	0.02391
2568.96612	0.02356
2567.68035	0.02334
2566.39458	0.02334
2565.10881	0.02349
2563.82304	0.02367
2562.53727	0.02375
2561.25150	0.02379
2559.96573	0.02391
2558.67997	0.02415
2557.39420	0.02439
2556.10843	0.02452
2554.82266	0.02449
2553.53689	0.02437
2552.25112	0.02421
2550.96535	0.02401
2549.67958	0.02379
2548.39381	0.02362
2547.10805	0.02362
2545.82228	0.02381
2544.53651	0.02405
2543.25074	0.02421
2541.96497	0.02427
2540.67920	0.02421
2539.39343	0.02395
2538.10766	0.02356
2536.82190	0.02330
2535.53613	0.02333
2534.25036	0.02353
2532.96459	0.02355
2531.67882	0.02322
2530.39305	0.02267
2529.10728	0.02217
2527.82151	0.02191
2526.53574	0.02192
2525.24998	0.02210
2523.96421	0.02233
2522.67844	0.02255
2521.39267	0.02276
2520.10690	0.02296
2518.82113	0.02312
2517.53536	0.02315
2516.24959	0.02297
2514.96383	0.02254
2513.67806	0.02207
2512.39229	0.02181
2511.10652	0.02183
2509.82075	0.02197
2508.53498	0.02205
2507.24921	0.02204
2505.96344	0.02210
2504.67767	0.02236
2503.39191	0.02283
2502.10614	0.02335
2500.82037	0.02372
2499.53460	0.02381
2498.24883	0.02363
2496.96306	0.02335
2495.67729	0.02312
2494.39152	0.02293
2493.10576	0.02265
2491.81999	0.02216
2490.53422	0.02153
2489.24845	0.02106
2487.96268	0.02108
2486.67691	0.02166
2485.39114	0.02245
2484.10537	0.02296
2482.81960	0.02298
2481.53384	0.02267
2480.24807	0.02231
2478.96230	0.02201
2477.67653	0.02169
2476.39076	0.02136
2475.10499	0.02118
2473.81922	0.02130
2472.53345	0.02167
2471.24769	0.02196
2469.96192	0.02193
2468.67615	0.02158
2467.39038	0.02116
2466.10461	0.02095
2464.81884	0.02107
2463.53307	0.02148
2462.24730	0.02196
2460.96153	0.02233
2459.67577	0.02253
2458.39000	0.02257
2457.10423	0.02243
2455.81846	0.02217
2454.53269	0.02195
2453.24692	0.02194
2451.96115	0.02206
2450.67538	0.02208
2449.38962	0.02185
2448.10385	0.02143
2446.81808	0.02110
2445.53231	0.02105
2444.24654	0.02122
2442.96077	0.02135
2441.67500	0.02127
2440.38923	0.02105
2439.10346	0.02085
2437.81770	0.02068
2436.53193	0.02053
2435.24616	0.02045
2433.96039	0.02056
2432.67462	0.02088
2431.38885	0.02130
2430.10308	0.02154
2428.81731	0.02138
2427.53155	0.02088
2426.24578	0.02044
2424.96001	0.02029
2423.67424	0.02031
2422.38847	0.02024
2421.10270	0.02004
2419.81693	0.01991
2418.53116	0.02003
2417.24539	0.02035
2415.95963	0.02067
2414.67386	0.02083
2413.38809	0.02074
2412.10232	0.02050
2410.81655	0.02028
2409.53078	0.02014
2408.24501	0.02003
2406.95924	0.01985
2405.67347	0.01966
2404.38771	0.01951
2403.10194	0.01941
2401.81617	0.01928
2400.53040	0.01917
2399.24463	0.01918
2397.95886	0.01937
2396.67309	0.01967
2395.38732	0.01998
2394.10156	0.02028
2392.81579	0.02054
2391.53002	0.02069
2390.24425	0.02067
2388.95848	0.02051
2387.67271	0.02031
2386.38694	0.02015
2385.10117	0.02005
2383.81540	0.02003
2382.52964	0.02009
2381.24387	0.02020
2379.95810	0.02024
2378.67233	0.02021
2377.38656	0.02018
2376.10079	0.02024
2374.81502	0.02039
2373.52925	0.02044
2372.24349	0.02022
2370.95772	0.01980
2369.67195	0.01943
2368.38618	0.01933
2367.10041	0.01948
2365.81464	0.01976
2364.52887	0.01999
2363.24310	0.02007
2361.95733	0.01998
2360.67157	0.01976
2359.38580	0.01966
2358.10003	0.01982
2356.81426	0.02017
2355.52849	0.02057
2354.24272	0.02089
2352.95695	0.02101
2351.67118	0.02082
2350.38542	0.02052
2349.09965	0.02037
2347.81388	0.02037
2346.52811	0.02028
2345.24234	0.02020
2343.95657	0.02046
2342.67080	0.02089
2341.38503	0.02083
2340.09926	0.02038
2338.81350	0.02046
2337.52773	0.02101
2336.24196	0.02087
2334.95619	0.02028
2333.67042	0.02048
2332.38465	0.02106
2331.09888	0.02079
2329.81311	0.02036
2328.52735	0.02064
2327.24158	0.02072
2325.95581	0.02088
2324.67004	0.02178
2323.38427	0.02236
2322.09850	0.02208
2320.81273	0.02173
2319.52696	0.02118
2318.24119	0.02075
2316.95543	0.02084
2315.66966	0.02092
2314.38389	0.02082
2313.09812	0.02068
2311.81235	0.02034
2310.52658	0.02005
2309.24081	0.01989
2307.95504	0.01973
2306.66928	0.01959
2305.38351	0.01942
2304.09774	0.01933
2302.81197	0.01943
2301.52620	0.01965
2300.24043	0.01989
2298.95466	0.02008
2297.66889	0.02019
2296.38312	0.02014
2295.09736	0.01983
2293.81159	0.01926
2292.52582	0.01861
2291.24005	0.01814
2289.95428	0.01806
2288.66851	0.01845
2287.38274	0.01915
2286.09697	0.01976
2284.81121	0.01986
2283.52544	0.01934
2282.23967	0.01855
2280.95390	0.01796
2279.66813	0.01783
2278.38236	0.01803
2277.09659	0.01819
2275.81082	0.01807
2274.52505	0.01764
2273.23929	0.01710
2271.95352	0.01667
2270.66775	0.01648
2269.38198	0.01659
2268.09621	0.01703
2266.81044	0.01775
2265.52467	0.01858
2264.23890	0.01922
2262.95314	0.01930
2261.66737	0.01863
2260.38160	0.01744
2259.09583	0.01628
2257.81006	0.01562
2256.52429	0.01557
2255.23852	0.01586
2253.95275	0.01612
2252.66698	0.01614
2251.38122	0.01597
2250.09545	0.01573
2248.80968	0.01553
2247.52391	0.01534
2246.23814	0.01518
2244.95237	0.01499
2243.66660	0.01469
2242.38083	0.01413
2241.09507	0.01330
2239.80930	0.01249
2238.52353	0.01217
2237.23776	0.01255
2235.95199	0.01340
2234.66622	0.01425
2233.38045	0.01468
2232.09468	0.01453
2230.80891	0.01390
2229.52315	0.01318
2228.23738	0.01274
2226.95161	0.01274
2225.66584	0.01305
2224.38007	0.01348
2223.09430	0.01387
2221.80853	0.01409
2220.52276	0.01407
2219.23700	0.01384
2217.95123	0.01345
2216.66546	0.01294
2215.37969	0.01244
2214.09392	0.01211
2212.80815	0.01200
2211.52238	0.01197
2210.23661	0.01182
2208.95084	0.01152
2207.66508	0.01120
2206.37931	0.01107
2205.09354	0.01110
2203.80777	0.01108
2202.52200	0.01085
2201.23623	0.01057
2199.95046	0.01051
2198.66469	0.01079
2197.37893	0.01123
2196.09316	0.01161
2194.80739	0.01182
2193.52162	0.01178
2192.23585	0.01145
2190.95008	0.01101
2189.66431	0.01075
2188.37854	0.01080
2187.09277	0.01088
2185.80701	0.01063
2184.52124	0.00990
2183.23547	0.00885
2181.94970	0.00773
2180.66393	0.00688
2179.37816	0.00658
2178.09239	0.00669
2176.80662	0.00669
2175.52085	0.00633
2174.23509	0.00600
2172.94932	0.00617
2171.66355	0.00670
2170.37778	0.00703
2169.09201	0.00700
2167.80624	0.00693
2166.52047	0.00712
2165.23470	0.00744
2163.94894	0.00750
2162.66317	0.00672
2161.37740	0.00470
2160.09163	0.00191
2158.80586	-0.00001
2157.52009	0.00036
2156.23432	0.00265
2154.94855	0.00527
2153.66278	0.00705
2152.37702	0.00780
2151.09125	0.00780
2149.80548	0.00739
2148.51971	0.00698
2147.23394	0.00693
2145.94817	0.00731
2144.66240	0.00786
2143.37663	0.00829
2142.09087	0.00842
2140.80510	0.00824
2139.51933	0.00797
2138.23356	0.00807
2136.94779	0.00887
2135.66202	0.01019
2134.37625	0.01127
2133.09048	0.01142
2131.80471	0.01059
2130.51895	0.00940
2129.23318	0.00856
2127.94741	0.00842
2126.66164	0.00898
2125.37587	0.01004
2124.09010	0.01120
2122.80433	0.01205
2121.51856	0.01236
2120.23280	0.01220
2118.94703	0.01180
2117.66126	0.01136
2116.37549	0.01106
2115.08972	0.01111
2113.80395	0.01145
2112.51818	0.01173
2111.23241	0.01153
2109.94664	0.01072
2108.66088	0.00959
2107.37511	0.00868
2106.08934	0.00838
2104.80357	0.00870
2103.51780	0.00938
2102.23203	0.01012
2100.94626	0.01074
2099.66049	0.01209
2098.37473	0.01254
2097.08896	0.01224
2095.80319	0.01172
2094.51742	0.01115
2093.23165	0.01054
2091.94588	0.00997
2090.66011	0.00966
2089.37434	0.00973
2088.08857	0.01009
2086.80281	0.01043
2085.51704	0.01039
2084.23127	0.00993
2082.94550	0.00937
2081.65973	0.00913
2080.37396	0.00941
2079.08819	0.01007
2077.80242	0.01069
2076.51666	0.01093
2075.23089	0.01077
2073.94512	0.01048
2072.65935	0.01033
2071.37358	0.01031
2070.08781	0.01012
2068.80204	0.00951
2067.51627	0.00854
2066.23050	0.00754
2064.94474	0.00689
2063.65897	0.00673
2062.37320	0.00697
2061.08743	0.00738
2059.80166	0.00771
2058.51589	0.00770
2057.23012	0.00721
2055.94435	0.00635
2054.65859	0.00555
2053.37282	0.00528
2052.08705	0.00569
2050.80128	0.00649
2049.51551	0.00716
2048.22974	0.00727
2046.94397	0.00672
2045.65820	0.00575
2044.37243	0.00474
2043.08667	0.00401
2041.80090	0.00364
2040.51513	0.00352
2039.22936	0.00354
2037.94359	0.00374
2036.65782	0.00410
2035.37205	0.00434
2034.08628	0.00404
2032.80052	0.00308
2031.51475	0.00197
2030.22898	0.00162
2028.94321	0.00258
2027.65744	0.00446
2026.37167	0.00609
2025.08590	0.00645
2023.80013	0.00561
2022.51436	0.00464
2021.22860	0.00452
2019.94283	0.00524
2018.65706	0.00608
2017.37129	0.00646
2016.08552	0.00638
2014.79975	0.00607
2013.51398	0.00557
2012.22821	0.00476
2010.94245	0.00357
2009.65668	0.00227
2008.37091	0.00143
2007.08514	0.00151
2005.79937	0.00239
2004.51360	0.00354
2003.22783	0.00453
2001.94206	0.00535
2000.65629	0.00612
1999.37053	0.00685
1998.08476	0.00746
1996.79899	0.00791
1995.51322	0.00812
1994.22745	0.00805
1992.94168	0.00774
1991.65591	0.00739
1990.37014	0.00719
1989.08438	0.00716
1987.79861	0.00724
1986.51284	0.00736
1985.22707	0.00764
1983.94130	0.00826
1982.65553	0.00916
1981.36976	0.00989
1980.08399	0.00993
1978.79822	0.00935
1977.51246	0.00868
1976.22669	0.00841
1974.94092	0.00844
1973.65515	0.00835
1972.36938	0.00795
1971.08361	0.00756
1969.79784	0.00770
1968.51207	0.00854
1967.22631	0.00962
1965.94054	0.01023
1964.65477	0.01011
1963.36900	0.00958
1962.08323	0.00915
1960.79746	0.00907
1959.51169	0.00918
1958.22592	0.00921
1956.94015	0.00897
1955.65439	0.00851
1954.36862	0.00800
1953.08285	0.00757
1951.79708	0.00721
1950.51131	0.00695
1949.22554	0.00703
1947.93977	0.00767
1946.65400	0.00871
1945.36823	0.00963
1944.08247	0.01003
1942.79670	0.01005
1941.51093	0.01011
1940.22516	0.01042
1938.93939	0.01088
1937.65362	0.01131
1936.36785	0.01161
1935.08208	0.01170
1933.79632	0.01152
1932.51055	0.01114
1931.22478	0.01078
1929.93901	0.01063
1928.65324	0.01067
1927.36747	0.01075
1926.08170	0.01083
1924.79593	0.01100
1923.51016	0.01128
1922.22440	0.01159
1920.93863	0.01174
1919.65286	0.01170
1918.36709	0.01158
1917.08132	0.01159
1915.79555	0.01173
1914.50978	0.01184
1913.22401	0.01172
1911.93825	0.01136
1910.65248	0.01099
1909.36671	0.01084
1908.08094	0.01089
1906.79517	0.01095
1905.50940	0.01094
1904.22363	0.01099
1902.93786	0.01122
1901.65209	0.01157
1900.36633	0.01185
1899.08056	0.01190
1897.79479	0.01175
1896.50902	0.01157
1895.22325	0.01154
1893.93748	0.01170
1892.65171	0.01195
1891.36594	0.01210
1890.08018	0.01205
1888.79441	0.01184
1887.50864	0.01155
1886.22287	0.01126
1884.93710	0.01099
1883.65133	0.01078
1882.36556	0.01065
1881.07979	0.01073
1879.79402	0.01108
1878.50826	0.01162
1877.22249	0.01208
1875.93672	0.01223
1874.65095	0.01210
1873.36518	0.01185
1872.07941	0.01162
1870.79364	0.01140
1869.50787	0.01123
1868.22211	0.01117
1866.93634	0.01121
1865.65057	0.01122
1864.36480	0.01109
1863.07903	0.01086
1861.79326	0.01066
1860.50749	0.01067
1859.22172	0.01092
1857.93595	0.01128
1856.65019	0.01156
1855.36442	0.01164
1854.07865	0.01149
1852.79288	0.01123
1851.50711	0.01098
1850.22134	0.01084
1848.93557	0.01089
1847.64980	0.01114
1846.36404	0.01146
1845.07827	0.01169
1843.79250	0.01184
1842.50673	0.01195
1841.22096	0.01198
1839.93519	0.01183
1838.64942	0.01152
1837.36365	0.01116
1836.07788	0.01093
1834.79212	0.01097
1833.50635	0.01124
1832.22058	0.01154
1830.93481	0.01171
1829.64904	0.01180
1828.36327	0.01197
1827.07750	0.01225
1825.79173	0.01258
1824.50597	0.01289
1823.22020	0.01310
1821.93443	0.01313
1820.64866	0.01302
1819.36289	0.01281
1818.07712	0.01258
1816.79135	0.01237
1815.50558	0.01220
1814.21981	0.01204
1812.93405	0.01188
1811.64828	0.01178
1810.36251	0.01178
1809.07674	0.01184
1807.79097	0.01191
1806.50520	0.01194
1805.21943	0.01198
1803.93366	0.01202
1802.64790	0.01210
1801.36213	0.01222
1800.07636	0.01237
1798.79059	0.01250
1797.50482	0.01259
1796.21905	0.01269
1794.93328	0.01275
1793.64751	0.01272
1792.36174	0.01265
1791.07598	0.01263
1789.79021	0.01266
1788.50444	0.01266
1787.21867	0.01258
1785.93290	0.01248
1784.64713	0.01245
1783.36136	0.01251
1782.07559	0.01260
1780.78983	0.01265
1779.50406	0.01269
1778.21829	0.01278
1776.93252	0.01293
1775.64675	0.01308
1774.36098	0.01312
1773.07521	0.01308
1771.78944	0.01309
1770.50367	0.01313
1769.21791	0.01307
1767.93214	0.01297
1766.64637	0.01298
1765.36060	0.01309
1764.07483	0.01320
1762.78906	0.01328
1761.50329	0.01340
1760.21752	0.01352
1758.93176	0.01353
1757.64599	0.01346
1756.36022	0.01343
1755.07445	0.01347
1753.78868	0.01341
1752.50291	0.01322
1751.21714	0.01306
1749.93137	0.01305
1748.64560	0.01314
1747.35984	0.01323
1746.07407	0.01333
1744.78830	0.01349
1743.50253	0.01368
1742.21676	0.01384
1740.93099	0.01394
1739.64522	0.01410
1738.35945	0.01439
1737.07369	0.01462
1735.78792	0.01457
1734.50215	0.01441
1733.21638	0.01444
1731.93061	0.01461
1730.64484	0.01465
1729.35907	0.01458
1728.07330	0.01457
1726.78753	0.01462
1725.50177	0.01468
1724.21600	0.01477
1722.93023	0.01500
1721.64446	0.01534
1720.35869	0.01562
1719.07292	0.01570
1717.78715	0.01575
1716.50138	0.01594
1715.21561	0.01622
1713.92985	0.01644
1712.64408	0.01661
1711.35831	0.01680
1710.07254	0.01705
1708.78677	0.01735
1707.50100	0.01765
1706.21523	0.01795
1704.92946	0.01837
1703.64370	0.01883
1702.35793	0.01910
1701.07216	0.01927
1699.78639	0.01968
1698.50062	0.02019
1697.21485	0.02040
1695.92908	0.02041
1694.64331	0.02065
1693.35754	0.02103
1692.07178	0.02123
1690.78601	0.02132
1689.50024	0.02159
1688.21447	0.02204
1686.92870	0.02238
1685.64293	0.02249
1684.35716	0.02264
1683.07139	0.02300
1681.78563	0.02330
1680.49986	0.02341
1679.21409	0.02352
1677.92832	0.02372
1676.64255	0.02395
1675.35678	0.02424
1674.07101	0.02463
1672.78524	0.02497
1671.49947	0.02514
1670.21371	0.02523
1668.92794	0.02543
1667.64217	0.02580
1666.35640	0.02621
1665.07063	0.02658
1663.78486	0.02688
1662.49909	0.02716
1661.21332	0.02740
1659.92756	0.02758
1658.64179	0.02782
1657.35602	0.02823
1656.07025	0.02862
1654.78448	0.02871
1653.49871	0.02867
1652.21294	0.02889
1650.92717	0.02930
1649.64140	0.02945
1648.35564	0.02926
1647.06987	0.02906
1645.78410	0.02906
1644.49833	0.02914
1643.21256	0.02911
1641.92679	0.02899
1640.64102	0.02897
1639.35525	0.02913
1638.06949	0.02927
1636.78372	0.02922
1635.49795	0.02910
1634.21218	0.02905
1632.92641	0.02905
1631.64064	0.02900
1630.35487	0.02895
1629.06910	0.02895
1627.78333	0.02899
1626.49757	0.02901
1625.21180	0.02896
1623.92603	0.02888
1622.64026	0.02891
1621.35449	0.02908
1620.06872	0.02924
1618.78295	0.02923
1617.49718	0.02913
1616.21142	0.02918
1614.92565	0.02940
1613.63988	0.02957
1612.35411	0.02964
1611.06834	0.02969
1609.78257	0.02980
1608.49680	0.02992
1607.21103	0.03004
1605.92526	0.03017
1604.63950	0.03031
1603.35373	0.03047
1602.06796	0.03065
1600.78219	0.03085
1599.49642	0.03108
1598.21065	0.03132
1596.92488	0.03158
1595.63911	0.03186
1594.35335	0.03217
1593.06758	0.03249
1591.78181	0.03277
1590.49604	0.03301
1589.21027	0.03323
1587.92450	0.03348
1586.63873	0.03375
1585.35296	0.03402
1584.06719	0.03430
1582.78143	0.03460
1581.49566	0.03502
1580.20989	0.03558
1578.92412	0.03612
1577.63835	0.03647
1576.35258	0.03674
1575.06681	0.03720
1573.78104	0.03779
1572.49528	0.03825
1571.20951	0.03855
1569.92374	0.03885
1568.63797	0.03925
1567.35220	0.03968
1566.06643	0.04005
1564.78066	0.04047
1563.49489	0.04098
1562.20912	0.04144
1560.92336	0.04168
1559.63759	0.04188
1558.35182	0.04228
1557.06605	0.04276
1555.78028	0.04300
1554.49451	0.04307
1553.20874	0.04322
1551.92297	0.04348
1550.63721	0.04371
1549.35144	0.04386
1548.06567	0.04395
1546.77990	0.04398
1545.49413	0.04398
1544.20836	0.04404
1542.92259	0.04408
1541.63682	0.04397
1540.35105	0.04374
1539.06529	0.04359
1537.77952	0.04359
1536.49375	0.04353
1535.20798	0.04330
1533.92221	0.04311
1532.63644	0.04316
1531.35067	0.04339
1530.06490	0.04364
1528.77914	0.04395
1527.49337	0.04440
1526.20760	0.04503
1524.92183	0.04580
1523.63606	0.04653
1522.35029	0.04715
1521.06452	0.04784
1519.77875	0.04866
1518.49298	0.04947
1517.20722	0.05021
1515.92145	0.05102
1514.63568	0.05198
1513.34991	0.05301
1512.06414	0.05418
1510.77837	0.05553
1509.49260	0.05692
1508.20683	0.05818
1506.92107	0.05933
1505.63530	0.06052
1504.34953	0.06170
1503.06376	0.06270
1501.77799	0.06355
1500.49222	0.06444
1499.20645	0.06536
1497.92068	0.06620
1496.63491	0.06696
1495.34915	0.06774
1494.06338	0.06853
1492.77761	0.06923
1491.49184	0.06984
1490.20607	0.07050
1488.92030	0.07124
1487.63453	0.07204
1486.34876	0.07288
1485.06299	0.07376
1483.77723	0.07463
1482.49146	0.07550
1481.20569	0.07643
1479.91992	0.07748
1478.63415	0.07861
1477.34838	0.07977
1476.06261	0.08088
1474.77684	0.08183
1473.49108	0.08261
1472.20531	0.08336
1470.91954	0.08411
1469.63377	0.08478
1468.34800	0.08526
1467.06223	0.08558
1465.77646	0.08585
1464.49069	0.08619
1463.20492	0.08665
1461.91916	0.08722
1460.63339	0.08784
1459.34762	0.08843
1458.06185	0.08896
1456.77608	0.08960
1455.49031	0.09038
1454.20454	0.09108
1452.91877	0.09154
1451.63301	0.09181
1450.34724	0.09202
1449.06147	0.09217
1447.77570	0.09230
1446.48993	0.09237
1445.20416	0.09231
1443.91839	0.09206
1442.63262	0.09170
1441.34685	0.09136
1440.06109	0.09110
1438.77532	0.09088
1437.48955	0.09076
1436.20378	0.09086
1434.91801	0.09122
1433.63224	0.09167
1432.34647	0.09217
1431.06070	0.09284
1429.77494	0.09378
1428.48917	0.09495
1427.20340	0.09621
1425.91763	0.09748
1424.63186	0.09881
1423.34609	0.10025
1422.06032	0.10170
1420.77455	0.10298
1419.48878	0.10414
1418.20302	0.10524
1416.91725	0.10622
1415.63148	0.10694
1414.34571	0.10738
1413.05994	0.10760
1411.77417	0.10764
1410.48840	0.10755
1409.20263	0.10730
1407.91687	0.10683
1406.63110	0.10608
1405.34533	0.10508
1404.05956	0.10389
1402.77379	0.10257
1401.48802	0.10107
1400.20225	0.09939
1398.91648	0.09759
1397.63071	0.09572
1396.34495	0.09377
1395.05918	0.09176
1393.77341	0.08974
1392.48764	0.08767
1391.20187	0.08553
1389.91610	0.08332
1388.63033	0.08115
1387.34456	0.07911
1386.05880	0.07721
1384.77303	0.07532
1383.48726	0.07337
1382.20149	0.07137
1380.91572	0.06935
1379.62995	0.06733
1378.34418	0.06533
1377.05841	0.06332
1375.77264	0.06128
1374.48688	0.05919
1373.20111	0.05710
1371.91534	0.05499
1370.62957	0.05288
1369.34380	0.05083
1368.05803	0.04895
1366.77226	0.04727
1365.48649	0.04574
1364.20073	0.04427
1362.91496	0.04284
1361.62919	0.04145
1360.34342	0.04013
1359.05765	0.03891
1357.77188	0.03781
1356.48611	0.03682
1355.20034	0.03592
1353.91457	0.03507
1352.62881	0.03421
1351.34304	0.03335
1350.05727	0.03249
1348.77150	0.03169
1347.48573	0.03098
1346.19996	0.03036
1344.91419	0.02978
1343.62842	0.02925
1342.34266	0.02877
1341.05689	0.02834
1339.77112	0.02796
1338.48535	0.02762
1337.19958	0.02728
1335.91381	0.02692
1334.62804	0.02655
1333.34227	0.02617
1332.05650	0.02578
1330.77074	0.02540
1329.48497	0.02503
1328.19920	0.02472
1326.91343	0.02447
1325.62766	0.02426
1324.34189	0.02404
1323.05612	0.02383
1321.77035	0.02363
1320.48459	0.02342
1319.19882	0.02320
1317.91305	0.02293
1316.62728	0.02265
1315.34151	0.02238
1314.05574	0.02218
1312.76997	0.02205
1311.48420	0.02195
1310.19843	0.02181
1308.91267	0.02163
1307.62690	0.02145
1306.34113	0.02132
1305.05536	0.02122
1303.76959	0.02113
1302.48382	0.02096
1301.19805	0.02072
1299.91228	0.02044
1298.62652	0.02018
1297.34075	0.01999
1296.05498	0.01988
1294.76921	0.01984
1293.48344	0.01981
1292.19767	0.01975
1290.91190	0.01963
1289.62613	0.01943
1288.34036	0.01916
1287.05460	0.01888
1285.76883	0.01864
1284.48306	0.01847
1283.19729	0.01835
1281.91152	0.01825
1280.62575	0.01815
1279.33998	0.01808
1278.05421	0.01805
1276.76845	0.01805
1275.48268	0.01806
1274.19691	0.01801
1272.91114	0.01789
1271.62537	0.01771
1270.33960	0.01752
1269.05383	0.01737
1267.76806	0.01727
1266.48229	0.01719
1265.19653	0.01712
1263.91076	0.01705
1262.62499	0.01696
1261.33922	0.01686
1260.05345	0.01678
1258.76768	0.01671
1257.48191	0.01663
1256.19614	0.01654
1254.91037	0.01646
1253.62461	0.01640
1252.33884	0.01638
1251.05307	0.01635
1249.76730	0.01630
1248.48153	0.01623
1247.19576	0.01617
1245.90999	0.01612
1244.62422	0.01608
1243.33846	0.01601
1242.05269	0.01593
1240.76692	0.01585
1239.48115	0.01577
1238.19538	0.01570
1236.90961	0.01562
1235.62384	0.01554
1234.33807	0.01547
1233.05230	0.01540
1231.76654	0.01530
1230.48077	0.01517
1229.19500	0.01502
1227.90923	0.01487
1226.62346	0.01475
1225.33769	0.01467
1224.05192	0.01463
1222.76615	0.01462
1221.48039	0.01461
1220.19462	0.01459
1218.90885	0.01454
1217.62308	0.01447
1216.33731	0.01440
1215.05154	0.01434
1213.76577	0.01433
1212.48000	0.01433
1211.19423	0.01434
1209.90847	0.01432
1208.62270	0.01431
1207.33693	0.01430
1206.05116	0.01431
1204.76539	0.01431
1203.47962	0.01431
1202.19385	0.01431
1200.90808	0.01425
1199.62232	0.01412
1198.33655	0.01416
1197.05078	0.01419
1195.76501	0.01418
1194.47924	0.01413
1193.19347	0.01406
1191.90770	0.01399
1190.62193	0.01393
1189.33616	0.01388
1188.05040	0.01381
1186.76463	0.01376
1185.47886	0.01378
1184.19309	0.01386
1182.90732	0.01396
1181.62155	0.01401
1180.33578	0.01399
1179.05001	0.01394
1177.76425	0.01393
1176.47848	0.01398
1175.19271	0.01404
1173.90694	0.01409
1172.62117	0.01413
1171.33540	0.01420
1170.04963	0.01432
1168.76386	0.01449
1167.47809	0.01469
1166.19233	0.01487
1164.90656	0.01499
1163.62079	0.01507
1162.33502	0.01518
1161.04925	0.01535
1159.76348	0.01557
1158.47771	0.01582
1157.19194	0.01609
1155.90618	0.01636
1154.62041	0.01662
1153.33464	0.01686
1152.04887	0.01708
1150.76310	0.01730
1149.47733	0.01754
1148.19156	0.01782
1146.90579	0.01817
1145.62002	0.01862
1144.33426	0.01920
1143.04849	0.01989
1141.76272	0.02063
1140.47695	0.02141
1139.19118	0.02230
1137.90541	0.02333
1136.61964	0.02448
1135.33387	0.02571
1134.04811	0.02703
1132.76234	0.02849
1131.47657	0.03014
1130.19080	0.03198
1128.90503	0.03400
1127.61926	0.03619
1126.33349	0.03854
1125.04772	0.04104
1123.76195	0.04372
1122.47619	0.04656
1121.19042	0.04951
1119.90465	0.05249
1118.61888	0.05546
1117.33311	0.05845
1116.04734	0.06150
1114.76157	0.06461
1113.47580	0.06770
1112.19004	0.07071
1110.90427	0.07364
1109.61850	0.07657
1108.33273	0.07957
1107.04696	0.08258
1105.76119	0.08550
1104.47542	0.08825
1103.18965	0.09084
1101.90388	0.09337
1100.61812	0.09591
1099.33235	0.09848
1098.04658	0.10100
1096.76081	0.10339
1095.47504	0.10560
1094.18927	0.10766
1092.90350	0.10963
1091.61773	0.11150
1090.33197	0.11329
1089.04620	0.11496
1087.76043	0.11654
1086.47466	0.11806
1085.18889	0.11962
1083.90312	0.12126
1082.61735	0.12300
1081.33158	0.12486
1080.04581	0.12686
1078.76005	0.12903
1077.47428	0.13137
1076.18851	0.13384
1074.90274	0.13640
1073.61697	0.13906
1072.33120	0.14186
1071.04543	0.14479
1069.75966	0.14778
1068.47390	0.15077
1067.18813	0.15377
1065.90236	0.15682
1064.61659	0.15996
1063.33082	0.16317
1062.04505	0.16640
1060.75928	0.16960
1059.47351	0.17271
1058.18774	0.17572
1056.90198	0.17865
1055.61621	0.18150
1054.33044	0.18430
1053.04467	0.18708
1051.75890	0.18990
1050.47313	0.19279
1049.18736	0.19572
1047.90159	0.19867
1046.61583	0.20166
1045.33006	0.20470
1044.04429	0.20778
1042.75852	0.21087
1041.47275	0.21391
1040.18698	0.21690
1038.90121	0.21987
1037.61544	0.22284
1036.32967	0.22582
1035.04391	0.22876
1033.75814	0.23156
1032.47237	0.23412
1031.18660	0.23640
1029.90083	0.23844
1028.61506	0.24032
1027.32929	0.24209
1026.04352	0.24373
1024.75775	0.24514
1023.47199	0.24625
1022.18622	0.24695
1020.90045	0.24716
1019.61468	0.24692
1018.32891	0.24630
1017.04314	0.24534
1015.75737	0.24399
1014.47160	0.24219
1013.18584	0.23997
1011.90007	0.23737
1010.61430	0.23439
1009.32853	0.23094
1008.04276	0.22699
1006.75699	0.22261
1005.47122	0.21796
1004.18545	0.21313
1002.89968	0.20810
1001.61392	0.20281
1000.32815	0.19723
999.04238	0.19139
997.75661	0.18537
996.47084	0.17928
995.18507	0.17321
993.89930	0.16723
992.61353	0.16132
991.32777	0.15546
990.04200	0.14966
988.75623	0.14397
987.47046	0.13845
986.18469	0.13312
984.89892	0.12800
983.61315	0.12312
982.32738	0.11848
981.04161	0.11409
979.75585	0.10996
978.47008	0.10610
977.18431	0.10254
975.89854	0.09932
974.61277	0.09653
973.32700	0.09424
972.04123	0.09245
970.75546	0.09114
969.46970	0.09036
968.18393	0.09017
966.89816	0.09056
965.61239	0.09140
964.32662	0.09245
963.04085	0.09345
961.75508	0.09419
960.46931	0.09446
959.18354	0.09410
957.89778	0.09304
956.61201	0.09132
955.32624	0.08913
954.04047	0.08674
952.75470	0.08432
951.46893	0.08193
950.18316	0.07954
948.89739	0.07714
947.61163	0.07480
946.32586	0.07255
945.04009	0.07038
943.75432	0.06825
942.46855	0.06618
941.18278	0.06418
939.89701	0.06227
938.61124	0.06044
937.32547	0.05867
936.03971	0.05700
934.75394	0.05546
933.46817	0.05408
932.18240	0.05286
930.89663	0.05177
929.61086	0.05073
928.32509	0.04972
927.03932	0.04874
925.75356	0.04782
924.46779	0.04697
923.18202	0.04621
921.89625	0.04552
920.61048	0.04489
919.32471	0.04429
918.03894	0.04367
916.75317	0.04303
915.46740	0.04238
914.18164	0.04178
912.89587	0.04127
911.61010	0.04086
910.32433	0.04048
909.03856	0.04009
907.75279	0.03969
906.46702	0.03930
905.18125	0.03893
903.89549	0.03858
902.60972	0.03821
901.32395	0.03780
900.03818	0.03739
898.75241	0.03704
897.46664	0.03679
896.18087	0.03663
894.89510	0.03654
893.60933	0.03653
892.32357	0.03660
891.03780	0.03670
889.75203	0.03683
888.46626	0.03709
887.18049	0.03771
885.89472	0.03896
884.60895	0.04104
883.32318	0.04388
882.03742	0.04712
880.75165	0.05026
879.46588	0.05286
878.18011	0.05480
876.89434	0.05637
875.60857	0.05793
874.32280	0.05959
873.03703	0.06105
871.75126	0.06188
870.46550	0.06181
869.17973	0.06083
867.89396	0.05911
866.60819	0.05684
865.32242	0.05423
864.03665	0.05148
862.75088	0.04881
861.46511	0.04640
860.17935	0.04433
858.89358	0.04259
857.60781	0.04113
856.32204	0.03989
855.03627	0.03883
853.75050	0.03792
852.46473	0.03716
851.17896	0.03655
849.89319	0.03610
848.60743	0.03574
847.32166	0.03542
846.03589	0.03511
844.75012	0.03476
843.46435	0.03436
842.17858	0.03392
840.89281	0.03345
839.60704	0.03302
838.32128	0.03265
837.03551	0.03233
835.74974	0.03206
834.46397	0.03184
833.17820	0.03166
831.89243	0.03146
830.60666	0.03123
829.32089	0.03097
828.03512	0.03076
826.74936	0.03060
825.46359	0.03047
824.17782	0.03035
822.89205	0.03025
821.60628	0.03016
820.32051	0.03008
819.03474	0.03004
817.74897	0.03003
816.46321	0.03001
815.17744	0.02989
813.89167	0.02967
812.60590	0.02944
811.32013	0.02927
810.03436	0.02914
808.74859	0.02903
807.46282	0.02895
806.17705	0.02888
804.89129	0.02878
803.60552	0.02866
802.31975	0.02856
801.03398	0.02849
799.74821	0.02845
798.46244	0.02840
797.17667	0.02835
795.89090	0.02828
794.60513	0.02819
793.31937	0.02811
792.03360	0.02807
790.74783	0.02808
789.46206	0.02811
788.17629	0.02808
786.89052	0.02797
785.60475	0.02781
784.31898	0.02766
783.03322	0.02764
781.74745	0.02775
780.46168	0.02790
779.17591	0.02796
777.89014	0.02790
776.60437	0.02779
775.31860	0.02772
774.03283	0.02768
772.74706	0.02759
771.46130	0.02744
770.17553	0.02727
768.88976	0.02714
767.60399	0.02705
766.31822	0.02695
765.03245	0.02685
763.74668	0.02683
762.46091	0.02696
761.17515	0.02723
759.88938	0.02749
758.60361	0.02762
757.31784	0.02761
756.03207	0.02755
754.74630	0.02751
753.46053	0.02748
752.17476	0.02744
750.88899	0.02737
749.60323	0.02727
748.31746	0.02711
747.03169	0.02695
745.74592	0.02688
744.46015	0.02690
743.17438	0.02696
741.88861	0.02700
740.60284	0.02698
739.31708	0.02689
738.03131	0.02679
736.74554	0.02669
735.45977	0.02656
734.17400	0.02641
732.88823	0.02634
731.60246	0.02642
730.31669	0.02662
729.03092	0.02681
727.74516	0.02692
726.45939	0.02696
725.17362	0.02698
723.88785	0.02697
722.60208	0.02698
721.31631	0.02701
720.03054	0.02708
718.74477	0.02714
717.45901	0.02714
716.17324	0.02706
714.88747	0.02696
713.60170	0.02689
712.31593	0.02686
711.03016	0.02684
709.74439	0.02682
708.45862	0.02676
707.17285	0.02666
705.88709	0.02652
704.60132	0.02639
703.31555	0.02633
702.02978	0.02632
700.74401	0.02635
699.45824	0.02641
698.17247	0.02650
696.88670	0.02661
695.60094	0.02673
694.31517	0.02683
693.02940	0.02687
691.74363	0.02686
690.45786	0.02680
689.17209	0.02673
687.88632	0.02667
686.60055	0.02663
685.31478	0.02657
684.02902	0.02648
682.74325	0.02635
681.45748	0.02621
680.17171	0.02610
678.88594	0.02602
677.60017	0.02601
676.31440	0.02605
675.02863	0.02613
673.74287	0.02621
672.45710	0.02629
671.17133	0.02638
669.88556	0.02648
668.59979	0.02659
667.31402	0.02669
666.02825	0.02666
664.74248	0.02654
663.45671	0.02636
662.17095	0.02615
660.88518	0.02595
659.59941	0.02577
658.31364	0.02564
657.02787	0.02557
655.74210	0.02555
654.45633	0.02555
653.17056	0.02558
651.88480	0.02566
650.59903	0.02578
649.31326	0.02586
648.02749	0.02588
646.74172	0.02585
645.45595	0.02585
644.17018	0.02592
642.88441	0.02605
641.59864	0.02619
640.31288	0.02632
639.02711	0.02647
637.74134	0.02665
636.45557	0.02688
635.16980	0.02715
633.88403	0.02741
632.59826	0.02764
631.31249	0.02797
630.02673	0.02903
628.74096	0.03056
627.45519	0.03017
626.16942	0.03223
624.88365	0.03608
623.59788	0.03999
622.31211	0.04320
621.02634	0.04563
619.74057	0.04755
618.45481	0.04921
617.16904	0.05066
615.88327	0.05219
614.59750	0.05442
613.31173	0.05801
612.02596	0.06329
610.74019	0.06994
609.45442	0.07676
608.16866	0.08236
606.88289	0.08636
605.59712	0.08948
604.31135	0.09239
603.02558	0.09478
601.73981	0.09576
600.45404	0.09494
599.16827	0.09276
597.88250	0.08989
596.59674	0.08675
595.31097	0.08357
594.02520	0.08056
592.73943	0.07800
591.45366	0.07610
590.16789	0.07494
588.88212	0.07453
587.59635	0.07480
586.31059	0.07565
585.02482	0.07699
583.73905	0.07877
582.45328	0.08091
581.16751	0.08328
579.88174	0.08573
578.59597	0.08821
577.31020	0.09073
576.02443	0.09328
574.73867	0.09586
573.45290	0.09845
572.16713	0.10111
570.88136	0.10387
569.59559	0.10676
568.30982	0.10978
567.02405	0.11281
565.73828	0.11566
564.45251	0.11803
563.16675	0.11965
561.88098	0.12026
560.59521	0.11962
559.30944	0.11755
558.02367	0.11410
556.73790	0.10955
555.45213	0.10430
554.16636	0.09875
552.88060	0.09321
551.59483	0.08789
550.30906	0.08291
549.02329	0.07828
547.73752	0.07401
546.45175	0.07013
545.16598	0.06667
543.88021	0.06358
542.59444	0.06079
541.30868	0.05826
540.02291	0.05595
538.73714	0.05383
537.45137	0.05184
536.16560	0.05000
534.87983	0.04832
533.59406	0.04682
532.30829	0.04544
531.02253	0.04413
529.73676	0.04287
528.45099	0.04168
527.16522	0.04060
525.87945	0.03963
524.59368	0.03871
523.30791	0.03780
522.02214	0.03691
520.73637	0.03608
519.45061	0.03536
518.16484	0.03476
516.87907	0.03424
515.59330	0.03372
514.30753	0.03310
513.02176	0.03235
511.73599	0.03154
510.45022	0.03081
509.16446	0.03025
507.87869	0.02981
506.59292	0.02941
505.30715	0.02898
504.02138	0.02854
502.73561	0.02814
501.44984	0.02784
500.16407	0.02765
498.87830	0.02748
497.59254	0.02725
496.30677	0.02693
495.02100	0.02653
493.73523	0.02613
492.44946	0.02575
491.16369	0.02541
489.87792	0.02515
488.59215	0.02498
487.30639	0.02491
486.02062	0.02487
484.73485	0.02481
483.44908	0.02469
482.16331	0.02452
480.87754	0.02441
479.59177	0.02442
478.30600	0.02459
477.02023	0.02483
475.73447	0.02509
474.44870	0.02533
473.16293	0.02560
471.87716	0.02589
470.59139	0.02614
469.30562	0.02621
468.01985	0.02607
466.73408	0.02578
465.44832	0.02543
464.16255	0.02510
462.87678	0.02476
461.59101	0.02440
460.30524	0.02402
459.01947	0.02360
457.73370	0.02317
456.44793	0.02276
455.16216	0.02236
453.87640	0.02202
452.59063	0.02177
451.30486	0.02162
450.01909	0.02152
448.73332	0.02139
447.44755	0.02122
446.16178	0.02102
444.87601	0.02087
443.59025	0.02076
442.30448	0.02065
441.01871	0.02051
439.73294	0.02032
438.44717	0.02013
437.16140	0.01996
435.87563	0.01985
434.58986	0.01976
433.30409	0.01966
432.01833	0.01956
430.73256	0.01948
429.44679	0.01941
428.16102	0.01934
426.87525	0.01924
425.58948	0.01915
424.30371	0.01907
423.01794	0.01902
421.73218	0.01895
420.44641	0.01882
419.16064	0.01865
417.87487	0.01851
416.58910	0.01838
415.30333	0.01824
414.01756	0.01811
412.73179	0.01801
411.44602	0.01796
410.16026	0.01796
408.87449	0.01801
407.58872	0.01808
406.30295	0.01816
405.01718	0.01822
403.73141	0.01828
402.44564	0.01837
401.15987	0.01850
399.87411	0.01865
