3997.45528	0.01748
3996.16951	0.01718
3994.88374	0.01694
3993.59798	0.01692
3992.31221	0.01715
3991.02644	0.01740
3989.74067	0.01734
3988.45490	0.01693
3987.16913	0.01657
3985.88336	0.01663
3984.59759	0.01705
3983.31183	0.01743
3982.02606	0.01763
3980.74029	0.01791
3979.45452	0.01848
3978.16875	0.01916
3976.88298	0.01962
3975.59721	0.01975
3974.31144	0.01962
3973.02567	0.01923
3971.73991	0.01851
3970.45414	0.01756
3969.16837	0.01673
3967.88260	0.01638
3966.59683	0.01649
3965.31106	0.01662
3964.02529	0.01637
3962.73952	0.01592
3961.45376	0.01584
3960.16799	0.01644
3958.88222	0.01745
3957.59645	0.01827
3956.31068	0.01858
3955.02491	0.01852
3953.73914	0.01839
3952.45337	0.01828
3951.16760	0.01804
3949.88184	0.01757
3948.59607	0.01706
3947.31030	0.01678
3946.02453	0.01670
3944.73876	0.01665
3943.45299	0.01677
3942.16722	0.01733
3940.88145	0.01816
3939.59569	0.01879
3938.30992	0.01905
3937.02415	0.01909
3935.73838	0.01893
3934.45261	0.01843
3933.16684	0.01775
3931.88107	0.01723
3930.59530	0.01710
3929.30953	0.01735
3928.02377	0.01787
3926.73800	0.01836
3925.45223	0.01862
3924.16646	0.01868
3922.88069	0.01859
3921.59492	0.01834
3920.30915	0.01799
3919.02338	0.01767
3917.73762	0.01759
3916.45185	0.01795
3915.16608	0.01849
3913.88031	0.01852
3912.59454	0.01774
3911.30877	0.01652
3910.02300	0.01556
3908.73723	0.01529
3907.45146	0.01556
3906.16570	0.01596
3904.87993	0.01640
3903.59416	0.01710
3902.30839	0.01792
3901.02262	0.01836
3899.73685	0.01824
3898.45108	0.01789
3897.16531	0.01761
3895.87955	0.01752
3894.59378	0.01757
3893.30801	0.01761
3892.02224	0.01790
3890.73647	0.01897
3889.45070	0.02042
3888.16493	0.02078
3886.87916	0.01980
3885.59339	0.01893
3884.30763	0.01899
3883.02186	0.01899
3881.73609	0.01805
3880.45032	0.01689
3879.16455	0.01641
3877.87878	0.01623
3876.59301	0.01575
3875.30724	0.01547
3874.02148	0.01608
3872.73571	0.01687
3871.44994	0.01673
3870.16417	0.01641
3868.87840	0.01717
3867.59263	0.01832
3866.30686	0.01846
3865.02109	0.01780
3863.73532	0.01724
3862.44956	0.01688
3861.16379	0.01659
3859.87802	0.01676
3858.59225	0.01759
3857.30648	0.01819
3856.02071	0.01744
3854.73494	0.01595
3853.44917	0.01585
3852.16341	0.01763
3850.87764	0.01924
3849.59187	0.01920
3848.30610	0.01811
3847.02033	0.01709
3845.73456	0.01651
3844.44879	0.01636
3843.16302	0.01664
3841.87725	0.01714
3840.59149	0.01712
3839.30572	0.01642
3838.01995	0.01594
3836.73418	0.01652
3835.44841	0.01762
3834.16264	0.01829
3832.87687	0.01855
3831.59110	0.01886
3830.30534	0.01897
3829.01957	0.01822
3827.73380	0.01674
3826.44803	0.01564
3825.16226	0.01561
3823.87649	0.01590
3822.59072	0.01605
3821.30495	0.01686
3820.01918	0.01850
3818.73342	0.01912
3817.44765	0.01767
3816.16188	0.01619
3814.87611	0.01678
3813.59034	0.01841
3812.30457	0.01913
3811.01880	0.01857
3809.73303	0.01717
3808.44726	0.01550
3807.16150	0.01494
3805.87573	0.01627
3804.58996	0.01778
3803.30419	0.01756
3802.01842	0.01661
3800.73265	0.01720
3799.44688	0.01884
3798.16111	0.01917
3796.87535	0.01786
3795.58958	0.01658
3794.30381	0.01632
3793.01804	0.01684
3791.73227	0.01770
3790.44650	0.01853
3789.16073	0.01888
3787.87496	0.01847
3786.58919	0.01745
3785.30343	0.01638
3784.01766	0.01579
3782.73189	0.01559
3781.44612	0.01532
3780.16035	0.01489
3778.87458	0.01467
3777.58881	0.01474
3776.30304	0.01487
3775.01728	0.01510
3773.73151	0.01548
3772.44574	0.01563
3771.15997	0.01537
3769.87420	0.01525
3768.58843	0.01564
3767.30266	0.01600
3766.01689	0.01596
3764.73112	0.01596
3763.44536	0.01642
3762.15959	0.01705
3760.87382	0.01747
3759.58805	0.01756
3758.30228	0.01733
3757.01651	0.01704
3755.73074	0.01680
3754.44497	0.01629
3753.15921	0.01551
3751.87344	0.01493
3750.58767	0.01505
3749.30190	0.01617
3748.01613	0.01758
3746.73036	0.01740
3745.44459	0.01558
3744.15882	0.01482
3742.87305	0.01604
3741.58729	0.01695
3740.30152	0.01625
3739.01575	0.01494
3737.72998	0.01422
3736.44421	0.01461
3735.15844	0.01586
3733.87267	0.01693
3732.58690	0.01716
3731.30114	0.01700
3730.01537	0.01683
3728.72960	0.01630
3727.44383	0.01559
3726.15806	0.01528
3724.87229	0.01527
3723.58652	0.01506
3722.30075	0.01467
3721.01498	0.01450
3719.72922	0.01474
3718.44345	0.01525
3717.15768	0.01589
3715.87191	0.01628
3714.58614	0.01595
3713.30037	0.01511
3712.01460	0.01451
3710.72883	0.01472
3709.44307	0.01540
3708.15730	0.01585
3706.87153	0.01598
3705.58576	0.01590
3704.29999	0.01555
3703.01422	0.01511
3701.72845	0.01496
3700.44268	0.01535
3699.15691	0.01602
3697.87115	0.01652
3696.58538	0.01689
3695.29961	0.01728
3694.01384	0.01768
3692.72807	0.01791
3691.44230	0.01773
3690.15653	0.01697
3688.87076	0.01612
3687.58500	0.01603
3686.29923	0.01647
3685.01346	0.01651
3683.72769	0.01624
3682.44192	0.01641
3681.15615	0.01718
3679.87038	0.01806
3678.58461	0.01811
3677.29884	0.01691
3676.01308	0.01594
3674.72731	0.01674
3673.44154	0.01814
3672.15577	0.01782
3670.87000	0.01619
3669.58423	0.01554
3668.29846	0.01630
3667.01269	0.01713
3665.72693	0.01735
3664.44116	0.01730
3663.15539	0.01734
3661.86962	0.01750
3660.58385	0.01753
3659.29808	0.01707
3658.01231	0.01620
3656.72654	0.01595
3655.44077	0.01730
3654.15501	0.01940
3652.86924	0.02012
3651.58347	0.01871
3650.29770	0.01654
3649.01193	0.01544
3647.72616	0.01598
3646.44039	0.01737
3645.15462	0.01845
3643.86886	0.01861
3642.58309	0.01809
3641.29732	0.01739
3640.01155	0.01678
3638.72578	0.01638
3637.44001	0.01633
3636.15424	0.01675
3634.86847	0.01766
3633.58270	0.01881
3632.29694	0.01927
3631.01117	0.01815
3629.72540	0.01626
3628.43963	0.01551
3627.15386	0.01621
3625.86809	0.01686
3624.58232	0.01672
3623.29655	0.01653
3622.01079	0.01666
3620.72502	0.01686
3619.43925	0.01695
3618.15348	0.01702
3616.86771	0.01694
3615.58194	0.01648
3614.29617	0.01600
3613.01040	0.01624
3611.72463	0.01719
3610.43887	0.01807
3609.15310	0.01851
3607.86733	0.01888
3606.58156	0.01942
3605.29579	0.01978
3604.01002	0.01960
3602.72425	0.01895
3601.43848	0.01825
3600.15272	0.01793
3598.86695	0.01815
3597.58118	0.01865
3596.29541	0.01908
3595.00964	0.01954
3593.72387	0.02021
3592.43810	0.02077
3591.15233	0.02085
3589.86656	0.02036
3588.58080	0.01972
3587.29503	0.01953
3586.00926	0.01969
3584.72349	0.01973
3583.43772	0.01951
3582.15195	0.01930
3580.86618	0.01936
3579.58041	0.01968
3578.29464	0.02004
3577.00888	0.02018
3575.72311	0.01994
3574.43734	0.01930
3573.15157	0.01840
3571.86580	0.01749
3570.58003	0.01680
3569.29426	0.01650
3568.00849	0.01687
3566.72273	0.01778
3565.43696	0.01865
3564.15119	0.01899
3562.86542	0.01899
3561.57965	0.01924
3560.29388	0.01998
3559.00811	0.02091
3557.72234	0.02169
3556.43657	0.02221
3555.15081	0.02250
3553.86504	0.02263
3552.57927	0.02273
3551.29350	0.02291
3550.00773	0.02308
3548.72196	0.02303
3547.43619	0.02271
3546.15042	0.02222
3544.86466	0.02161
3543.57889	0.02091
3542.29312	0.02032
3541.00735	0.02002
3539.72158	0.02002
3538.43581	0.02021
3537.15004	0.02061
3535.86427	0.02124
3534.57850	0.02190
3533.29274	0.02230
3532.00697	0.02236
3530.72120	0.02229
3529.43543	0.02232
3528.14966	0.02249
3526.86389	0.02266
3525.57812	0.02265
3524.29235	0.02243
3523.00659	0.02206
3521.72082	0.02162
3520.43505	0.02116
3519.14928	0.02081
3517.86351	0.02071
3516.57774	0.02091
3515.29197	0.02136
3514.00620	0.02197
3512.72043	0.02261
3511.43467	0.02303
3510.14890	0.02310
3508.86313	0.02287
3507.57736	0.02247
3506.29159	0.02189
3505.00582	0.02112
3503.72005	0.02032
3502.43428	0.01983
3501.14852	0.01986
3499.86275	0.02037
3498.57698	0.02110
3497.29121	0.02176
3496.00544	0.02215
3494.71967	0.02219
3493.43390	0.02205
3492.14813	0.02198
3490.86236	0.02211
3489.57660	0.02222
3488.29083	0.02200
3487.00506	0.02144
3485.71929	0.02086
3484.43352	0.02064
3483.14775	0.02085
3481.86198	0.02136
3480.57621	0.02187
3479.29045	0.02214
3478.00468	0.02212
3476.71891	0.02201
3475.43314	0.02210
3474.14737	0.02245
3472.86160	0.02279
3471.57583	0.02291
3470.29006	0.02286
3469.00429	0.02291
3467.71853	0.02318
3466.43276	0.02348
3465.14699	0.02342
3463.86122	0.02279
3462.57545	0.02187
3461.28968	0.02126
3460.00391	0.02132
3458.71814	0.02184
3457.43238	0.02230
3456.14661	0.02238
3454.86084	0.02212
3453.57507	0.02180
3452.28930	0.02162
3451.00353	0.02167
3449.71776	0.02190
3448.43199	0.02228
3447.14622	0.02275
3445.86046	0.02322
3444.57469	0.02355
3443.28892	0.02366
3442.00315	0.02363
3440.71738	0.02347
3439.43161	0.02313
3438.14584	0.02258
3436.86007	0.02192
3435.57431	0.02139
3434.28854	0.02129
3433.00277	0.02175
3431.71700	0.02263
3430.43123	0.02353
3429.14546	0.02408
3427.85969	0.02416
3426.57392	0.02394
3425.28815	0.02362
3424.00239	0.02332
3422.71662	0.02312
3421.43085	0.02308
3420.14508	0.02329
3418.85931	0.02367
3417.57354	0.02400
3416.28777	0.02416
3415.00200	0.02417
3413.71624	0.02413
3412.43047	0.02412
3411.14470	0.02414
3409.85893	0.02420
3408.57316	0.02428
3407.28739	0.02435
3406.00162	0.02434
3404.71585	0.02424
3403.43008	0.02409
3402.14432	0.02393
3400.85855	0.02381
3399.57278	0.02377
3398.28701	0.02388
3397.00124	0.02417
3395.71547	0.02458
3394.42970	0.02496
3393.14393	0.02510
3391.85817	0.02490
3390.57240	0.02444
3389.28663	0.02394
3388.00086	0.02364
3386.71509	0.02360
3385.42932	0.02373
3384.14355	0.02385
3382.85778	0.02392
3381.57201	0.02397
3380.28625	0.02408
3379.00048	0.02421
3377.71471	0.02427
3376.42894	0.02419
3375.14317	0.02394
3373.85740	0.02356
3372.57163	0.02317
3371.28586	0.02295
3370.00010	0.02297
3368.71433	0.02299
3367.42856	0.02274
3366.14279	0.02224
3364.85702	0.02185
3363.57125	0.02185
3362.28548	0.02220
3360.99971	0.02260
3359.71394	0.02290
3358.42818	0.02314
3357.14241	0.02342
3355.85664	0.02364
3354.57087	0.02367
3353.28510	0.02354
3351.99933	0.02349
3350.71356	0.02362
3349.42779	0.02371
3348.14202	0.02344
3346.85626	0.02277
3345.57049	0.02206
3344.28472	0.02173
3342.99895	0.02200
3341.71318	0.02274
3340.42741	0.02363
3339.14164	0.02438
3337.85587	0.02489
3336.57011	0.02521
3335.28434	0.02536
3333.99857	0.02530
3332.71280	0.02502
3331.42703	0.02469
3330.14126	0.02447
3328.85549	0.02440
3327.56972	0.02433
3326.28395	0.02417
3324.99819	0.02401
3323.71242	0.02404
3322.42665	0.02437
3321.14088	0.02490
3319.85511	0.02535
3318.56934	0.02547
3317.28357	0.02520
3315.99780	0.02469
3314.71204	0.02419
3313.42627	0.02381
3312.14050	0.02352
3310.85473	0.02322
3309.56896	0.02291
3308.28319	0.02277
3306.99742	0.02295
3305.71165	0.02339
3304.42588	0.02388
3303.14012	0.02420
3301.85435	0.02433
3300.56858	0.02441
3299.28281	0.02460
3297.99704	0.02489
3296.71127	0.02503
3295.42550	0.02475
3294.13973	0.02410
3292.85397	0.02340
3291.56820	0.02293
3290.28243	0.02266
3288.99666	0.02246
3287.71089	0.02235
3286.42512	0.02250
3285.13935	0.02293
3283.85358	0.02334
3282.56781	0.02343
3281.28205	0.02311
3279.99628	0.02263
3278.71051	0.02241
3277.42474	0.02266
3276.13897	0.02325
3274.85320	0.02387
3273.56743	0.02439
3272.28166	0.02483
3270.99590	0.02520
3269.71013	0.02539
3268.42436	0.02536
3267.13859	0.02525
3265.85282	0.02521
3264.56705	0.02523
3263.28128	0.02517
3261.99551	0.02499
3260.70974	0.02481
3259.42398	0.02469
3258.13821	0.02455
3256.85244	0.02429
3255.56667	0.02392
3254.28090	0.02358
3252.99513	0.02341
3251.70936	0.02341
3250.42359	0.02352
3249.13783	0.02363
3247.85206	0.02368
3246.56629	0.02365
3245.28052	0.02360
3243.99475	0.02361
3242.70898	0.02376
3241.42321	0.02402
3240.13744	0.02433
3238.85167	0.02462
3237.56591	0.02482
3236.28014	0.02486
3234.99437	0.02467
3233.70860	0.02430
3232.42283	0.02392
3231.13706	0.02362
3229.85129	0.02335
3228.56552	0.02305
3227.27976	0.02274
3225.99399	0.02258
3224.70822	0.02274
3223.42245	0.02321
3222.13668	0.02378
3220.85091	0.02413
3219.56514	0.02407
3218.27937	0.02373
3216.99360	0.02341
3215.70784	0.02333
3214.42207	0.02356
3213.13630	0.02405
3211.85053	0.02460
3210.56476	0.02501
3209.27899	0.02510
3207.99322	0.02487
3206.70745	0.02445
3205.42169	0.02406
3204.13592	0.02385
3202.85015	0.02387
3201.56438	0.02407
3200.27861	0.02427
3198.99284	0.02436
3197.70707	0.02435
3196.42130	0.02440
3195.13553	0.02451
3193.84977	0.02452
3192.56400	0.02428
3191.27823	0.02388
3189.99246	0.02357
3188.70669	0.02348
3187.42092	0.02357
3186.13515	0.02370
3184.84938	0.02376
3183.56362	0.02367
3182.27785	0.02341
3180.99208	0.02309
3179.70631	0.02292
3178.42054	0.02304
3177.13477	0.02335
3175.84900	0.02362
3174.56323	0.02368
3173.27746	0.02358
3171.99170	0.02351
3170.70593	0.02363
3169.42016	0.02385
3168.13439	0.02401
3166.84862	0.02400
3165.56285	0.02382
3164.27708	0.02355
3162.99131	0.02329
3161.70555	0.02312
3160.41978	0.02313
3159.13401	0.02336
3157.84824	0.02376
3156.56247	0.02418
3155.27670	0.02444
3153.99093	0.02444
3152.70516	0.02419
3151.41939	0.02380
3150.13363	0.02341
3148.84786	0.02313
3147.56209	0.02303
3146.27632	0.02314
3144.99055	0.02341
3143.70478	0.02377
3142.41901	0.02404
3141.13324	0.02408
3139.84748	0.02387
3138.56171	0.02353
3137.27594	0.02328
3135.99017	0.02327
3134.70440	0.02351
3133.41863	0.02384
3132.13286	0.02405
3130.84709	0.02398
3129.56132	0.02362
3128.27556	0.02316
3126.98979	0.02280
3125.70402	0.02268
3124.41825	0.02274
3123.13248	0.02279
3121.84671	0.02274
3120.56094	0.02262
3119.27517	0.02250
3117.98940	0.02237
3116.70364	0.02223
3115.41787	0.02214
3114.13210	0.02217
3112.84633	0.02230
3111.56056	0.02246
3110.27479	0.02258
3108.98902	0.02257
3107.70325	0.02236
3106.41749	0.02206
3105.13172	0.02189
3103.84595	0.02195
3102.56018	0.02214
3101.27441	0.02230
3099.98864	0.02242
3098.70287	0.02260
3097.41710	0.02289
3096.13133	0.02317
3094.84557	0.02332
3093.55980	0.02326
3092.27403	0.02303
3090.98826	0.02266
3089.70249	0.02221
3088.41672	0.02176
3087.13095	0.02153
3085.84518	0.02168
3084.55942	0.02217
3083.27365	0.02265
3081.98788	0.02279
3080.70211	0.02250
3079.41634	0.02204
3078.13057	0.02175
3076.84480	0.02180
3075.55903	0.02208
3074.27326	0.02237
3072.98750	0.02252
3071.70173	0.02249
3070.41596	0.02238
3069.13019	0.02230
3067.84442	0.02226
3066.55865	0.02223
3065.27288	0.02218
3063.98711	0.02211
3062.70135	0.02209
3061.41558	0.02220
3060.12981	0.02248
3058.84404	0.02282
3057.55827	0.02311
3056.27250	0.02328
3054.98673	0.02333
3053.70096	0.02320
3052.41519	0.02281
3051.12943	0.02219
3049.84366	0.02156
3048.55789	0.02122
3047.27212	0.02127
3045.98635	0.02153
3044.70058	0.02171
3043.41481	0.02165
3042.12904	0.02138
3040.84328	0.02112
3039.55751	0.02104
3038.27174	0.02122
3036.98597	0.02161
3035.70020	0.02201
3034.41443	0.02223
3033.12866	0.02213
3031.84289	0.02181
3030.55712	0.02145
3029.27136	0.02115
3027.98559	0.02096
3026.69982	0.02091
3025.41405	0.02107
3024.12828	0.02139
3022.84251	0.02170
3021.55674	0.02185
3020.27097	0.02185
3018.98521	0.02176
3017.69944	0.02159
3016.41367	0.02134
3015.12790	0.02106
3013.84213	0.02088
3012.55636	0.02088
3011.27059	0.02101
3009.98482	0.02111
3008.69905	0.02104
3007.41329	0.02081
3006.12752	0.02057
3004.84175	0.02046
3003.55598	0.02051
3002.27021	0.02062
3000.98444	0.02072
2999.69867	0.02077
2998.41290	0.02083
2997.12714	0.02095
2995.84137	0.02107
2994.55560	0.02109
2993.26983	0.02098
2991.98406	0.02079
2990.69829	0.02058
2989.41252	0.02045
2988.12675	0.02051
2986.84098	0.02082
2985.55522	0.02119
2984.26945	0.02140
2982.98368	0.02130
2981.69791	0.02100
2980.41214	0.02080
2979.12637	0.02094
2977.84060	0.02138
2976.55483	0.02180
2975.26907	0.02198
2973.98330	0.02204
2972.69753	0.02221
2971.41176	0.02255
2970.12599	0.02290
2968.84022	0.02315
2967.55445	0.02329
2966.26868	0.02330
2964.98291	0.02318
2963.69715	0.02301
2962.41138	0.02299
2961.12561	0.02326
2959.83984	0.02375
2958.55407	0.02428
2957.26830	0.02461
2955.98253	0.02464
2954.69676	0.02452
2953.41100	0.02452
2952.12523	0.02478
2950.83946	0.02523
2949.55369	0.02562
2948.26792	0.02573
2946.98215	0.02551
2945.69638	0.02518
2944.41061	0.02494
2943.12484	0.02479
2941.83908	0.02457
2940.55331	0.02420
2939.26754	0.02377
2937.98177	0.02343
2936.69600	0.02323
2935.41023	0.02320
2934.12446	0.02339
2932.83869	0.02375
2931.55293	0.02415
2930.26716	0.02438
2928.98139	0.02432
2927.69562	0.02401
2926.40985	0.02357
2925.12408	0.02316
2923.83831	0.02287
2922.55254	0.02277
2921.26677	0.02289
2919.98101	0.02318
2918.69524	0.02344
2917.40947	0.02349
2916.12370	0.02335
2914.83793	0.02321
2913.55216	0.02328
2912.26639	0.02356
2910.98062	0.02391
2909.69486	0.02423
2908.40909	0.02448
2907.12332	0.02461
2905.83755	0.02453
2904.55178	0.02425
2903.26601	0.02398
2901.98024	0.02394
2900.69447	0.02404
2899.40870	0.02398
2898.12294	0.02359
2896.83717	0.02306
2895.55140	0.02276
2894.26563	0.02286
2892.97986	0.02329
2891.69409	0.02380
2890.40832	0.02419
2889.12255	0.02433
2887.83678	0.02416
2886.55102	0.02375
2885.26525	0.02329
2883.97948	0.02300
2882.69371	0.02295
2881.40794	0.02304
2880.12217	0.02316
2878.83640	0.02330
2877.55063	0.02348
2876.26487	0.02363
2874.97910	0.02365
2873.69333	0.02352
2872.40756	0.02326
2871.12179	0.02302
2869.83602	0.02296
2868.55025	0.02309
2867.26448	0.02320
2865.97871	0.02308
2864.69295	0.02273
2863.40718	0.02235
2862.12141	0.02207
2860.83564	0.02187
2859.54987	0.02165
2858.26410	0.02136
2856.97833	0.02096
2855.69256	0.02051
2854.40680	0.02012
2853.12103	0.01992
2851.83526	0.01995
2850.54949	0.02011
2849.26372	0.02023
2847.97795	0.02025
2846.69218	0.02028
2845.40641	0.02044
2844.12064	0.02075
2842.83488	0.02104
2841.54911	0.02112
2840.26334	0.02096
2838.97757	0.02071
2837.69180	0.02050
2836.40603	0.02033
2835.12026	0.02016
2833.83449	0.02002
2832.54873	0.01997
2831.26296	0.02001
2829.97719	0.02007
2828.69142	0.02005
2827.40565	0.01990
2826.11988	0.01961
2824.83411	0.01925
2823.54834	0.01899
2822.26257	0.01893
2820.97681	0.01901
2819.69104	0.01913
2818.40527	0.01923
2817.11950	0.01931
2815.83373	0.01936
2814.54796	0.01932
2813.26219	0.01921
2811.97642	0.01912
2810.69066	0.01912
2809.40489	0.01913
2808.11912	0.01904
2806.83335	0.01886
2805.54758	0.01870
2804.26181	0.01865
2802.97604	0.01868
2801.69027	0.01873
2800.40450	0.01876
2799.11874	0.01877
2797.83297	0.01870
2796.54720	0.01852
2795.26143	0.01829
2793.97566	0.01815
2792.68989	0.01818
2791.40412	0.01833
2790.11835	0.01846
2788.83259	0.01848
2787.54682	0.01840
2786.26105	0.01823
2784.97528	0.01803
2783.68951	0.01790
2782.40374	0.01793
2781.11797	0.01807
2779.83220	0.01824
2778.54643	0.01838
2777.26067	0.01847
2775.97490	0.01851
2774.68913	0.01847
2773.40336	0.01839
2772.11759	0.01830
2770.83182	0.01824
2769.54605	0.01818
2768.26028	0.01808
2766.97452	0.01792
2765.68875	0.01776
2764.40298	0.01764
2763.11721	0.01753
2761.83144	0.01745
2760.54567	0.01742
2759.25990	0.01744
2757.97413	0.01739
2756.68836	0.01722
2755.40260	0.01704
2754.11683	0.01698
2752.83106	0.01701
2751.54529	0.01701
2750.25952	0.01693
2748.97375	0.01689
2747.68798	0.01695
2746.40221	0.01697
2745.11645	0.01687
2743.83068	0.01674
2742.54491	0.01676
2741.25914	0.01698
2739.97337	0.01724
2738.68760	0.01736
2737.40183	0.01729
2736.11606	0.01710
2734.83029	0.01693
2733.54453	0.01686
2732.25876	0.01691
2730.97299	0.01696
2729.68722	0.01694
2728.40145	0.01683
2727.11568	0.01673
2725.82991	0.01674
2724.54414	0.01688
2723.25838	0.01706
2721.97261	0.01723
2720.68684	0.01739
2719.40107	0.01753
2718.11530	0.01759
2716.82953	0.01748
2715.54376	0.01725
2714.25799	0.01703
2712.97222	0.01691
2711.68646	0.01695
2710.40069	0.01709
2709.11492	0.01725
2707.82915	0.01725
2706.54338	0.01700
2705.25761	0.01661
2703.97184	0.01632
2702.68607	0.01629
2701.40031	0.01647
2700.11454	0.01669
2698.82877	0.01684
2697.54300	0.01694
2696.25723	0.01704
2694.97146	0.01712
2693.68569	0.01706
2692.39992	0.01682
2691.11415	0.01647
2689.82839	0.01614
2688.54262	0.01591
2687.25685	0.01582
2685.97108	0.01584
2684.68531	0.01593
2683.39954	0.01603
2682.11377	0.01608
2680.82800	0.01612
2679.54224	0.01624
2678.25647	0.01647
2676.97070	0.01669
2675.68493	0.01680
2674.39916	0.01679
2673.11339	0.01675
2671.82762	0.01675
2670.54185	0.01673
2669.25608	0.01656
2667.97032	0.01627
2666.68455	0.01599
2665.39878	0.01586
2664.11301	0.01591
2662.82724	0.01605
2661.54147	0.01622
2660.25570	0.01641
2658.96993	0.01664
2657.68417	0.01687
2656.39840	0.01703
2655.11263	0.01706
2653.82686	0.01698
2652.54109	0.01685
2651.25532	0.01676
2649.96955	0.01673
2648.68378	0.01669
2647.39801	0.01657
2646.11225	0.01640
2644.82648	0.01624
2643.54071	0.01614
2642.25494	0.01605
2640.96917	0.01592
2639.68340	0.01572
2638.39763	0.01548
2637.11186	0.01525
2635.82609	0.01506
2634.54033	0.01491
2633.25456	0.01481
2631.96879	0.01479
2630.68302	0.01486
2629.39725	0.01490
2628.11148	0.01482
2626.82571	0.01467
2625.53994	0.01456
2624.25418	0.01454
2622.96841	0.01463
2621.68264	0.01477
2620.39687	0.01489
2619.11110	0.01489
2617.82533	0.01471
2616.53956	0.01446
2615.25379	0.01429
2613.96802	0.01427
2612.68226	0.01428
2611.39649	0.01415
2610.11072	0.01393
2608.82495	0.01384
2607.53918	0.01413
2606.25341	0.01474
2604.96764	0.01529
2603.68187	0.01545
2602.39611	0.01519
2601.11034	0.01473
2599.82457	0.01436
2598.53880	0.01418
2597.25303	0.01407
2595.96726	0.01388
2594.68149	0.01357
2593.39572	0.01328
2592.10995	0.01319
2590.82419	0.01336
2589.53842	0.01367
2588.25265	0.01390
2586.96688	0.01393
2585.68111	0.01381
2584.39534	0.01363
2583.10957	0.01342
2581.82380	0.01325
2580.53804	0.01319
2579.25227	0.01327
2577.96650	0.01343
2576.68073	0.01365
2575.39496	0.01390
2574.10919	0.01403
2572.82342	0.01378
2571.53765	0.01314
2570.25188	0.01241
2568.96612	0.01202
2567.68035	0.01206
2566.39458	0.01224
2565.10881	0.01229
2563.82304	0.01224
2562.53727	0.01232
2561.25150	0.01264
2559.96573	0.01308
2558.67997	0.01334
2557.39420	0.01324
2556.10843	0.01286
2554.82266	0.01245
2553.53689	0.01228
2552.25112	0.01241
2550.96535	0.01266
2549.67958	0.01285
2548.39381	0.01293
2547.10805	0.01300
2545.82228	0.01316
2544.53651	0.01332
2543.25074	0.01335
2541.96497	0.01326
2540.67920	0.01318
2539.39343	0.01311
2538.10766	0.01289
2536.82190	0.01249
2535.53613	0.01209
2534.25036	0.01197
2532.96459	0.01215
2531.67882	0.01247
2530.39305	0.01276
2529.10728	0.01298
2527.82151	0.01314
2526.53574	0.01317
2525.24998	0.01308
2523.96421	0.01296
2522.67844	0.01288
2521.39267	0.01281
2520.10690	0.01268
2518.82113	0.01249
2517.53536	0.01228
2516.24959	0.01200
2514.96383	0.01160
2513.67806	0.01120
2512.39229	0.01110
2511.10652	0.01141
2509.82075	0.01194
2508.53498	0.01233
2507.24921	0.01247
2505.96344	0.01254
2504.67767	0.01274
2503.39191	0.01296
2502.10614	0.01294
2500.82037	0.01264
2499.53460	0.01227
2498.24883	0.01199
2496.96306	0.01172
2495.67729	0.01146
2494.39152	0.01140
2493.10576	0.01165
2491.81999	0.01206
2490.53422	0.01225
2489.24845	0.01205
2487.96268	0.01159
2486.67691	0.01122
2485.39114	0.01127
2484.10537	0.01175
2482.81960	0.01232
2481.53384	0.01255
2480.24807	0.01234
2478.96230	0.01203
2477.67653	0.01206
2476.39076	0.01247
2475.10499	0.01292
2473.81922	0.01316
2472.53345	0.01324
2471.24769	0.01327
2469.96192	0.01324
2468.67615	0.01306
2467.39038	0.01272
2466.10461	0.01232
2464.81884	0.01193
2463.53307	0.01167
2462.24730	0.01161
2460.96153	0.01167
2459.67577	0.01171
2458.39000	0.01171
2457.10423	0.01182
2455.81846	0.01219
2454.53269	0.01263
2453.24692	0.01282
2451.96115	0.01260
2450.67538	0.01214
2449.38962	0.01170
2448.10385	0.01136
2446.81808	0.01110
2445.53231	0.01096
2444.24654	0.01101
2442.96077	0.01122
2441.67500	0.01138
2440.38923	0.01141
2439.10346	0.01141
2437.81770	0.01148
2436.53193	0.01160
2435.24616	0.01168
2433.96039	0.01169
2432.67462	0.01162
2431.38885	0.01150
2430.10308	0.01136
2428.81731	0.01123
2427.53155	0.01110
2426.24578	0.01105
2424.96001	0.01115
2423.67424	0.01128
2422.38847	0.01130
2421.10270	0.01122
2419.81693	0.01119
2418.53116	0.01134
2417.24539	0.01160
2415.95963	0.01184
2414.67386	0.01195
2413.38809	0.01183
2412.10232	0.01148
2410.81655	0.01112
2409.53078	0.01103
2408.24501	0.01123
2406.95924	0.01149
2405.67347	0.01153
2404.38771	0.01130
2403.10194	0.01094
2401.81617	0.01065
2400.53040	0.01054
2399.24463	0.01109
2397.95886	0.01154
2396.67309	0.01167
2395.38732	0.01165
2394.10156	0.01158
2392.81579	0.01144
2391.53002	0.01119
2390.24425	0.01083
2388.95848	0.01040
2387.67271	0.00999
2386.38694	0.00964
2385.10117	0.00932
2383.81540	0.00898
2382.52964	0.00862
2381.24387	0.00834
2379.95810	0.00829
2378.67233	0.00844
2377.38656	0.00860
2376.10079	0.00875
2374.81502	0.00880
2373.52925	0.00865
2372.24349	0.00843
2370.95772	0.00818
2369.67195	0.00821
2368.38618	0.00838
2367.10041	0.00813
2365.81464	0.00747
2364.52887	0.00691
2363.24310	0.00637
2361.95733	0.00560
2360.67157	0.00490
2359.38580	0.00485
2358.10003	0.00513
2356.81426	0.00539
2355.52849	0.00565
2354.24272	0.00589
2352.95695	0.00608
2351.67118	0.00571
2350.38542	0.00442
2349.09965	0.00352
2347.81388	0.00448
2346.52811	0.00635
2345.24234	0.00734
2343.95657	0.00734
2342.67080	0.00718
2341.38503	0.00682
2340.09926	0.00609
2338.81350	0.00555
2337.52773	0.00540
2336.24196	0.00565
2334.95619	0.00595
2333.67042	0.00622
2332.38465	0.00688
2331.09888	0.00761
2329.81311	0.00799
2328.52735	0.00821
2327.24158	0.00823
2325.95581	0.00819
2324.67004	0.00846
2323.38427	0.00873
2322.09850	0.00880
2320.81273	0.00886
2319.52696	0.00884
2318.24119	0.00876
2316.95543	0.00890
2315.66966	0.00927
2314.38389	0.00971
2313.09812	0.01002
2311.81235	0.01026
2310.52658	0.01045
2309.24081	0.01048
2307.95504	0.01036
2306.66928	0.01014
2305.38351	0.00993
2304.09774	0.00993
2302.81197	0.01024
2301.52620	0.01067
2300.24043	0.01089
2298.95466	0.01079
2297.66889	0.01052
2296.38312	0.01026
2295.09736	0.01010
2293.81159	0.00999
2292.52582	0.00988
2291.24005	0.00979
2289.95428	0.00978
2288.66851	0.00992
2287.38274	0.01022
2286.09697	0.01057
2284.81121	0.01081
2283.52544	0.01082
2282.23967	0.01065
2280.95390	0.01052
2279.66813	0.01062
2278.38236	0.01090
2277.09659	0.01113
2275.81082	0.01108
2274.52505	0.01062
2273.23929	0.00990
2271.95352	0.00920
2270.66775	0.00883
2269.38198	0.00890
2268.09621	0.00924
2266.81044	0.00947
2265.52467	0.00937
2264.23890	0.00894
2262.95314	0.00835
2261.66737	0.00778
2260.38160	0.00736
2259.09583	0.00720
2257.81006	0.00738
2256.52429	0.00782
2255.23852	0.00829
2253.95275	0.00864
2252.66698	0.00885
2251.38122	0.00897
2250.09545	0.00912
2248.80968	0.00925
2247.52391	0.00896
2246.23814	0.00866
2244.95237	0.00855
2243.66660	0.00855
2242.38083	0.00844
2241.09507	0.00830
2239.80930	0.00852
2238.52353	0.00923
2237.23776	0.01007
2235.95199	0.01060
2234.66622	0.01070
2233.38045	0.01050
2232.09468	0.01024
2230.80891	0.01019
2229.52315	0.01031
2228.23738	0.01026
2226.95161	0.00966
2225.66584	0.00852
2224.38007	0.00714
2223.09430	0.00593
2221.80853	0.00526
2220.52276	0.00524
2219.23700	0.00560
2217.95123	0.00595
2216.66546	0.00616
2215.37969	0.00629
2214.09392	0.00633
2212.80815	0.00614
2211.52238	0.00569
2210.23661	0.00514
2208.95084	0.00481
2207.66508	0.00491
2206.37931	0.00552
2205.09354	0.00651
2203.80777	0.00760
2202.52200	0.00827
2201.23623	0.00803
2199.95046	0.00696
2198.66469	0.00587
2197.37893	0.00556
2196.09316	0.00598
2194.80739	0.00630
2193.52162	0.00574
2192.23585	0.00435
2190.95008	0.00300
2189.66431	0.00260
2188.37854	0.00328
2187.09277	0.00450
2185.80701	0.00579
2184.52124	0.00701
2183.23547	0.00786
2181.94970	0.00795
2180.66393	0.00736
2179.37816	0.00687
2178.09239	0.00721
2176.80662	0.00815
2175.52085	0.00867
2174.23509	0.00802
2172.94932	0.00660
2171.66355	0.00548
2170.37778	0.00504
2169.09201	0.00460
2167.80624	0.00369
2166.52047	0.00285
2165.23470	0.00304
2163.94894	0.00436
2162.66317	0.00593
2161.37740	0.00681
2160.09163	0.00657
2158.80586	0.00542
2157.52009	0.00392
2156.23432	0.00266
2154.94855	0.00207
2153.66278	0.00233
2152.37702	0.00328
2151.09125	0.00443
2149.80548	0.00518
2148.51971	0.00527
2147.23394	0.00482
2145.94817	0.00415
2144.66240	0.00354
2143.37663	0.00313
2142.09087	0.00297
2140.80510	0.00309
2139.51933	0.00328
2138.23356	0.00320
2136.94779	0.00281
2135.66202	0.00255
2134.37625	0.00290
2133.09048	0.00368
2131.80471	0.00424
2130.51895	0.00431
2129.23318	0.00422
2127.94741	0.00439
2126.66164	0.00475
2125.37587	0.00497
2124.09010	0.00485
2122.80433	0.00451
2121.51856	0.00427
2120.23280	0.00442
2118.94703	0.00498
2117.66126	0.00568
2116.37549	0.00605
2115.08972	0.00592
2113.80395	0.00558
2112.51818	0.00548
2111.23241	0.00564
2109.94664	0.00576
2108.66088	0.00564
2107.37511	0.00553
2106.08934	0.00565
2104.80357	0.00586
2103.51780	0.00579
2102.23203	0.00541
2100.94626	0.00506
2099.66049	0.00502
2098.37473	0.00529
2097.08896	0.00566
2095.80319	0.00596
2094.51742	0.00615
2093.23165	0.00627
2091.94588	0.00629
2090.66011	0.00617
2089.37434	0.00588
2088.08857	0.00552
2086.80281	0.00523
2085.51704	0.00506
2084.23127	0.00502
2082.94550	0.00517
2081.65973	0.00564
2080.37396	0.00640
2079.08819	0.00712
2077.80242	0.00735
2076.51666	0.00692
2075.23089	0.00611
2073.94512	0.00539
2072.65935	0.00498
2071.37358	0.00476
2070.08781	0.00451
2068.80204	0.00418
2067.51627	0.00383
2066.23050	0.00359
2064.94474	0.00353
2063.65897	0.00360
2062.37320	0.00367
2061.08743	0.00362
2059.80166	0.00338
2058.51589	0.00294
2057.23012	0.00244
2055.94435	0.00218
2054.65859	0.00239
2053.37282	0.00295
2052.08705	0.00334
2050.80128	0.00321
2049.51551	0.00277
2048.22974	0.00262
2046.94397	0.00300
2045.65820	0.00354
2044.37243	0.00361
2043.08667	0.00306
2041.80090	0.00228
2040.51513	0.00166
2039.22936	0.00123
2037.94359	0.00077
2036.65782	0.00025
2035.37205	-0.00021
2034.08628	-0.00060
2032.80052	-0.00094
2031.51475	-0.00110
2030.22898	-0.00099
2028.94321	-0.00066
2027.65744	-0.00028
2026.37167	0.00016
2025.08590	0.00064
2023.80013	0.00099
2022.51436	0.00103
2021.22860	0.00089
2019.94283	0.00077
2018.65706	0.00072
2017.37129	0.00074
2016.08552	0.00104
2014.79975	0.00180
2013.51398	0.00286
2012.22821	0.00373
2010.94245	0.00397
2009.65668	0.00363
2008.37091	0.00316
2007.08514	0.00295
2005.79937	0.00299
2004.51360	0.00304
2003.22783	0.00299
2001.94206	0.00304
2000.65629	0.00336
1999.37053	0.00377
1998.08476	0.00386
1996.79899	0.00341
1995.51322	0.00276
1994.22745	0.00254
1992.94168	0.00313
1991.65591	0.00438
1990.37014	0.00569
1989.08438	0.00647
1987.79861	0.00647
1986.51284	0.00588
1985.22707	0.00512
1983.94130	0.00456
1982.65553	0.00427
1981.36976	0.00405
1980.08399	0.00362
1978.79822	0.00291
1977.51246	0.00222
1976.22669	0.00195
1974.94092	0.00216
1973.65515	0.00244
1972.36938	0.00238
1971.08361	0.00202
1969.79784	0.00168
1968.51207	0.00158
1967.22631	0.00171
1965.94054	0.00194
1964.65477	0.00215
1963.36900	0.00232
1962.08323	0.00257
1960.79746	0.00305
1959.51169	0.00375
1958.22592	0.00449
1956.94015	0.00499
1955.65439	0.00514
1954.36862	0.00500
1953.08285	0.00483
1951.79708	0.00490
1950.51131	0.00530
1949.22554	0.00584
1947.93977	0.00616
1946.65400	0.00598
1945.36823	0.00529
1944.08247	0.00446
1942.79670	0.00398
1941.51093	0.00406
1940.22516	0.00442
1938.93939	0.00464
1937.65362	0.00461
1936.36785	0.00456
1935.08208	0.00466
1933.79632	0.00492
1932.51055	0.00523
1931.22478	0.00553
1929.93901	0.00574
1928.65324	0.00569
1927.36747	0.00529
1926.08170	0.00472
1924.79593	0.00441
1923.51016	0.00474
1922.22440	0.00563
1920.93863	0.00646
1919.65286	0.00666
1918.36709	0.00631
1917.08132	0.00600
1915.79555	0.00608
1914.50978	0.00646
1913.22401	0.00689
1911.93825	0.00723
1910.65248	0.00738
1909.36671	0.00732
1908.08094	0.00708
1906.79517	0.00675
1905.50940	0.00651
1904.22363	0.00653
1902.93786	0.00674
1901.65209	0.00692
1900.36633	0.00688
1899.08056	0.00661
1897.79479	0.00631
1896.50902	0.00616
1895.22325	0.00622
1893.93748	0.00638
1892.65171	0.00651
1891.36594	0.00655
1890.08018	0.00662
1888.79441	0.00677
1887.50864	0.00686
1886.22287	0.00680
1884.93710	0.00672
1883.65133	0.00684
1882.36556	0.00709
1881.07979	0.00724
1879.79402	0.00714
1878.50826	0.00686
1877.22249	0.00665
1875.93672	0.00665
1874.65095	0.00681
1873.36518	0.00698
1872.07941	0.00694
1870.79364	0.00662
1869.50787	0.00623
1868.22211	0.00609
1866.93634	0.00628
1865.65057	0.00666
1864.36480	0.00702
1863.07903	0.00726
1861.79326	0.00734
1860.50749	0.00724
1859.22172	0.00700
1857.93595	0.00665
1856.65019	0.00627
1855.36442	0.00594
1854.07865	0.00580
1852.79288	0.00586
1851.50711	0.00607
1850.22134	0.00635
1848.93557	0.00672
1847.64980	0.00707
1846.36404	0.00714
1845.07827	0.00692
1843.79250	0.00679
1842.50673	0.00693
1841.22096	0.00705
1839.93519	0.00697
1838.64942	0.00684
1837.36365	0.00687
1836.07788	0.00702
1834.79212	0.00720
1833.50635	0.00728
1832.22058	0.00708
1830.93481	0.00666
1829.64904	0.00640
1828.36327	0.00643
1827.07750	0.00648
1825.79173	0.00643
1824.50597	0.00647
1823.22020	0.00668
1821.93443	0.00690
1820.64866	0.00697
1819.36289	0.00690
1818.07712	0.00678
1816.79135	0.00672
1815.50558	0.00678
1814.21981	0.00689
1812.93405	0.00693
1811.64828	0.00693
1810.36251	0.00699
1809.07674	0.00712
1807.79097	0.00720
1806.50520	0.00717
1805.21943	0.00708
1803.93366	0.00699
1802.64790	0.00690
1801.36213	0.00687
1800.07636	0.00697
1798.79059	0.00721
1797.50482	0.00754
1796.21905	0.00781
1794.93328	0.00778
1793.64751	0.00746
1792.36174	0.00720
1791.07598	0.00733
1789.79021	0.00767
1788.50444	0.00781
1787.21867	0.00765
1785.93290	0.00742
1784.64713	0.00737
1783.36136	0.00753
1782.07559	0.00767
1780.78983	0.00772
1779.50406	0.00776
1778.21829	0.00783
1776.93252	0.00788
1775.64675	0.00773
1774.36098	0.00729
1773.07521	0.00694
1771.78944	0.00714
1770.50367	0.00769
1769.21791	0.00802
1767.93214	0.00808
1766.64637	0.00821
1765.36060	0.00836
1764.07483	0.00822
1762.78906	0.00790
1761.50329	0.00781
1760.21752	0.00796
1758.93176	0.00795
1757.64599	0.00770
1756.36022	0.00764
1755.07445	0.00788
1753.78868	0.00797
1752.50291	0.00767
1751.21714	0.00733
1749.93137	0.00728
1748.64560	0.00739
1747.35984	0.00743
1746.07407	0.00741
1744.78830	0.00741
1743.50253	0.00738
1742.21676	0.00725
1740.93099	0.00711
1739.64522	0.00734
1738.35945	0.00799
1737.07369	0.00833
1735.78792	0.00777
1734.50215	0.00705
1733.21638	0.00719
1731.93061	0.00800
1730.64484	0.00847
1729.35907	0.00838
1728.07330	0.00822
1726.78753	0.00823
1725.50177	0.00827
1724.21600	0.00837
1722.93023	0.00867
1721.64446	0.00904
1720.35869	0.00902
1719.07292	0.00846
1717.78715	0.00802
1716.50138	0.00822
1715.21561	0.00885
1713.92985	0.00938
1712.64408	0.00971
1711.35831	0.00995
1710.07254	0.01017
1708.78677	0.01030
1707.50100	0.01028
1706.21523	0.01030
1704.92946	0.01065
1703.64370	0.01103
1702.35793	0.01077
1701.07216	0.01032
1699.78639	0.01073
1698.50062	0.01161
1697.21485	0.01170
1695.92908	0.01122
1694.64331	0.01138
1693.35754	0.01210
1692.07178	0.01241
1690.78601	0.01231
1689.50024	0.01248
1688.21447	0.01284
1686.92870	0.01263
1685.64293	0.01180
1684.35716	0.01147
1683.07139	0.01225
1681.78563	0.01327
1680.49986	0.01371
1679.21409	0.01369
1677.92832	0.01346
1676.64255	0.01309
1675.35678	0.01297
1674.07101	0.01340
1672.78524	0.01395
1671.49947	0.01401
1670.21371	0.01376
1668.92794	0.01379
1667.64217	0.01428
1666.35640	0.01472
1665.07063	0.01468
1663.78486	0.01436
1662.49909	0.01427
1661.21332	0.01457
1659.92756	0.01505
1658.64179	0.01558
1657.35602	0.01605
1656.07025	0.01591
1654.78448	0.01482
1653.49871	0.01392
1652.21294	0.01461
1650.92717	0.01634
1649.64140	0.01721
1648.35564	0.01660
1647.06987	0.01565
1645.78410	0.01546
1644.49833	0.01594
1643.21256	0.01640
1641.92679	0.01653
1640.64102	0.01659
1639.35525	0.01665
1638.06949	0.01639
1636.78372	0.01583
1635.49795	0.01566
1634.21218	0.01623
1632.92641	0.01700
1631.64064	0.01724
1630.35487	0.01695
1629.06910	0.01660
1627.78333	0.01648
1626.49757	0.01646
1625.21180	0.01628
1623.92603	0.01604
1622.64026	0.01614
1621.35449	0.01665
1620.06872	0.01697
1618.78295	0.01660
1617.49718	0.01593
1616.21142	0.01580
1614.92565	0.01629
1613.63988	0.01667
1612.35411	0.01657
1611.06834	0.01630
1609.78257	0.01620
1608.49680	0.01627
1607.21103	0.01641
1605.92526	0.01654
1604.63950	0.01661
1603.35373	0.01664
1602.06796	0.01666
1600.78219	0.01671
1599.49642	0.01679
1598.21065	0.01688
1596.92488	0.01697
1595.63911	0.01710
1594.35335	0.01727
1593.06758	0.01745
1591.78181	0.01761
1590.49604	0.01774
1589.21027	0.01788
1587.92450	0.01803
1586.63873	0.01817
1585.35296	0.01829
1584.06719	0.01839
1582.78143	0.01857
1581.49566	0.01896
1580.20989	0.01948
1578.92412	0.01971
1577.63835	0.01944
1576.35258	0.01928
1575.06681	0.01995
1573.78104	0.02099
1572.49528	0.02142
1571.20951	0.02110
1569.92374	0.02079
1568.63797	0.02101
1567.35220	0.02152
1566.06643	0.02193
1564.78066	0.02238
1563.49489	0.02294
1562.20912	0.02309
1560.92336	0.02246
1559.63759	0.02183
1558.35182	0.02223
1557.06605	0.02334
1555.78028	0.02396
1554.49451	0.02385
1553.20874	0.02368
1551.92297	0.02371
1550.63721	0.02374
1549.35144	0.02381
1548.06567	0.02397
1546.77990	0.02410
1545.49413	0.02423
1544.20836	0.02439
1542.92259	0.02437
1541.63682	0.02390
1540.35105	0.02338
1539.06529	0.02360
1537.77952	0.02452
1536.49375	0.02514
1535.20798	0.02489
1533.92221	0.02436
1532.63644	0.02436
1531.35067	0.02482
1530.06490	0.02519
1528.77914	0.02530
1527.49337	0.02537
1526.20760	0.02569
1524.92183	0.02615
1523.63606	0.02638
1522.35029	0.02636
1521.06452	0.02672
1519.77875	0.02763
1518.49298	0.02850
1517.20722	0.02900
1515.92145	0.02942
1514.63568	0.02999
1513.34991	0.03064
1512.06414	0.03144
1510.77837	0.03241
1509.49260	0.03308
1508.20683	0.03320
1506.92107	0.03336
1505.63530	0.03438
1504.34953	0.03600
1503.06376	0.03724
1501.77799	0.03776
1500.49222	0.03799
1499.20645	0.03823
1497.92068	0.03847
1496.63491	0.03884
1495.34915	0.03956
1494.06338	0.04041
1492.77761	0.04092
1491.49184	0.04106
1490.20607	0.04125
1488.92030	0.04170
1487.63453	0.04229
1486.34876	0.04287
1485.06299	0.04342
1483.77723	0.04392
1482.49146	0.04443
1481.20569	0.04505
1479.91992	0.04580
1478.63415	0.04656
1477.34838	0.04722
1476.06261	0.04772
1474.77684	0.04796
1473.49108	0.04805
1472.20531	0.04836
1470.91954	0.04900
1469.63377	0.04964
1468.34800	0.04992
1467.06223	0.04985
1465.77646	0.04976
1464.49069	0.04999
1463.20492	0.05060
1461.91916	0.05133
1460.63339	0.05181
1459.34762	0.05176
1458.06185	0.05140
1456.77608	0.05150
1455.49031	0.05234
1454.20454	0.05326
1452.91877	0.05363
1451.63301	0.05360
1450.34724	0.05351
1449.06147	0.05349
1447.77570	0.05359
1446.48993	0.05382
1445.20416	0.05404
1443.91839	0.05416
1442.63262	0.05423
1441.34685	0.05437
1440.06109	0.05444
1438.77532	0.05419
1437.48955	0.05381
1436.20378	0.05385
1434.91801	0.05442
1433.63224	0.05502
1432.34647	0.05537
1431.06070	0.05567
1429.77494	0.05619
1428.48917	0.05692
1427.20340	0.05763
1425.91763	0.05825
1424.63186	0.05888
1423.34609	0.05964
1422.06032	0.06024
1420.77455	0.06046
1419.48878	0.06068
1418.20302	0.06128
1416.91725	0.06208
1415.63148	0.06258
1414.34571	0.06269
1413.05994	0.06265
1411.77417	0.06261
1410.48840	0.06257
1409.20263	0.06248
1407.91687	0.06224
1406.63110	0.06183
1405.34533	0.06130
1404.05956	0.06076
1402.77379	0.06014
1401.48802	0.05928
1400.20225	0.05824
1398.91648	0.05721
1397.63071	0.05625
1396.34495	0.05519
1395.05918	0.05405
1393.77341	0.05306
1392.48764	0.05221
1391.20187	0.05125
1389.91610	0.05000
1388.63033	0.04860
1387.34456	0.04736
1386.05880	0.04641
1384.77303	0.04555
1383.48726	0.04457
1382.20149	0.04350
1380.91572	0.04244
1379.62995	0.04143
1378.34418	0.04044
1377.05841	0.03939
1375.77264	0.03824
1374.48688	0.03705
1373.20111	0.03594
1371.91534	0.03489
1370.62957	0.03381
1369.34380	0.03274
1368.05803	0.03181
1366.77226	0.03101
1365.48649	0.03021
1364.20073	0.02929
1362.91496	0.02838
1361.62919	0.02763
1360.34342	0.02704
1359.05765	0.02650
1357.77188	0.02593
1356.48611	0.02532
1355.20034	0.02473
1353.91457	0.02420
1352.62881	0.02375
1351.34304	0.02335
1350.05727	0.02300
1348.77150	0.02265
1347.48573	0.02230
1346.19996	0.02196
1344.91419	0.02165
1343.62842	0.02139
1342.34266	0.02111
1341.05689	0.02076
1339.77112	0.02038
1338.48535	0.02007
1337.19958	0.01983
1335.91381	0.01961
1334.62804	0.01937
1333.34227	0.01913
1332.05650	0.01890
1330.77074	0.01868
1329.48497	0.01846
1328.19920	0.01821
1326.91343	0.01796
1325.62766	0.01771
1324.34189	0.01750
1323.05612	0.01735
1321.77035	0.01723
1320.48459	0.01710
1319.19882	0.01692
1317.91305	0.01673
1316.62728	0.01656
1315.34151	0.01643
1314.05574	0.01633
1312.76997	0.01622
1311.48420	0.01607
1310.19843	0.01588
1308.91267	0.01570
1307.62690	0.01555
1306.34113	0.01545
1305.05536	0.01537
1303.76959	0.01529
1302.48382	0.01521
1301.19805	0.01513
1299.91228	0.01503
1298.62652	0.01490
1297.34075	0.01477
1296.05498	0.01467
1294.76921	0.01460
1293.48344	0.01452
1292.19767	0.01442
1290.91190	0.01429
1289.62613	0.01414
1288.34036	0.01401
1287.05460	0.01392
1285.76883	0.01386
1284.48306	0.01381
1283.19729	0.01378
1281.91152	0.01376
1280.62575	0.01372
1279.33998	0.01365
1278.05421	0.01352
1276.76845	0.01336
1275.48268	0.01320
1274.19691	0.01307
1272.91114	0.01297
1271.62537	0.01289
1270.33960	0.01282
1269.05383	0.01275
1267.76806	0.01268
1266.48229	0.01262
1265.19653	0.01254
1263.91076	0.01246
1262.62499	0.01235
1261.33922	0.01225
1260.05345	0.01217
1258.76768	0.01214
1257.48191	0.01216
1256.19614	0.01219
1254.91037	0.01221
1253.62461	0.01218
1252.33884	0.01210
1251.05307	0.01199
1249.76730	0.01188
1248.48153	0.01181
1247.19576	0.01176
1245.90999	0.01172
1244.62422	0.01167
1243.33846	0.01162
1242.05269	0.01158
1240.76692	0.01157
1239.48115	0.01158
1238.19538	0.01159
1236.90961	0.01159
1235.62384	0.01157
1234.33807	0.01153
1233.05230	0.01145
1231.76654	0.01134
1230.48077	0.01121
1229.19500	0.01109
1227.90923	0.01100
1226.62346	0.01093
1225.33769	0.01088
1224.05192	0.01082
1222.76615	0.01074
1221.48039	0.01066
1220.19462	0.01059
1218.90885	0.01054
1217.62308	0.01052
1216.33731	0.01053
1215.05154	0.01054
1213.76577	0.01052
1212.48000	0.01046
1211.19423	0.01035
1209.90847	0.01023
1208.62270	0.01013
1207.33693	0.01008
1206.05116	0.01012
1204.76539	0.01022
1203.47962	0.01032
1202.19385	0.01035
1200.90808	0.01031
1199.62232	0.01027
1198.33655	0.01027
1197.05078	0.01030
1195.76501	0.01031
1194.47924	0.01024
1193.19347	0.01012
1191.90770	0.01002
1190.62193	0.00999
1189.33616	0.01004
1188.05040	0.01012
1186.76463	0.01015
1185.47886	0.01011
1184.19309	0.01002
1182.90732	0.00994
1181.62155	0.00990
1180.33578	0.00987
1179.05001	0.00980
1177.76425	0.00970
1176.47848	0.00958
1175.19271	0.00951
1173.90694	0.00950
1172.62117	0.00955
1171.33540	0.00961
1170.04963	0.00965
1168.76386	0.00968
1167.47809	0.00978
1166.19233	0.00994
1164.90656	0.01010
1163.62079	0.01019
1162.33502	0.01023
1161.04925	0.01024
1159.76348	0.01026
1158.47771	0.01029
1157.19194	0.01037
1155.90618	0.01049
1154.62041	0.01060
1153.33464	0.01067
1152.04887	0.01072
1150.76310	0.01080
1149.47733	0.01092
1148.19156	0.01105
1146.90579	0.01122
1145.62002	0.01146
1144.33426	0.01180
1143.04849	0.01218
1141.76272	0.01253
1140.47695	0.01285
1139.19118	0.01323
1137.90541	0.01372
1136.61964	0.01432
1135.33387	0.01499
1134.04811	0.01576
1132.76234	0.01666
1131.47657	0.01771
1130.19080	0.01886
1128.90503	0.02011
1127.61926	0.02148
1126.33349	0.02301
1125.04772	0.02475
1123.76195	0.02668
1122.47619	0.02874
1121.19042	0.03082
1119.90465	0.03282
1118.61888	0.03476
1117.33311	0.03672
1116.04734	0.03876
1114.76157	0.04084
1113.47580	0.04289
1112.19004	0.04481
1110.90427	0.04657
1109.61850	0.04819
1108.33273	0.04970
1107.04696	0.05118
1105.76119	0.05264
1104.47542	0.05407
1103.18965	0.05546
1101.90388	0.05683
1100.61812	0.05819
1099.33235	0.05952
1098.04658	0.06078
1096.76081	0.06198
1095.47504	0.06309
1094.18927	0.06409
1092.90350	0.06497
1091.61773	0.06576
1090.33197	0.06649
1089.04620	0.06722
1087.76043	0.06798
1086.47466	0.06880
1085.18889	0.06974
1083.90312	0.07080
1082.61735	0.07195
1081.33158	0.07315
1080.04581	0.07435
1078.76005	0.07557
1077.47428	0.07687
1076.18851	0.07830
1074.90274	0.07983
1073.61697	0.08135
1072.33120	0.08284
1071.04543	0.08436
1069.75966	0.08595
1068.47390	0.08761
1067.18813	0.08933
1065.90236	0.09111
1064.61659	0.09297
1063.33082	0.09485
1062.04505	0.09668
1060.75928	0.09841
1059.47351	0.10006
1058.18774	0.10167
1056.90198	0.10324
1055.61621	0.10479
1054.33044	0.10636
1053.04467	0.10795
1051.75890	0.10957
1050.47313	0.11119
1049.18736	0.11281
1047.90159	0.11444
1046.61583	0.11609
1045.33006	0.11776
1044.04429	0.11947
1042.75852	0.12125
1041.47275	0.12306
1040.18698	0.12481
1038.90121	0.12643
1037.61544	0.12794
1036.32967	0.12940
1035.04391	0.13084
1033.75814	0.13223
1032.47237	0.13349
1031.18660	0.13454
1029.90083	0.13534
1028.61506	0.13593
1027.32929	0.13635
1026.04352	0.13660
1024.75775	0.13663
1023.47199	0.13636
1022.18622	0.13578
1020.90045	0.13490
1019.61468	0.13378
1018.32891	0.13249
1017.04314	0.13105
1015.75737	0.12946
1014.47160	0.12767
1013.18584	0.12565
1011.90007	0.12337
1010.61430	0.12084
1009.32853	0.11808
1008.04276	0.11516
1006.75699	0.11213
1005.47122	0.10903
1004.18545	0.10586
1002.89968	0.10260
1001.61392	0.09922
1000.32815	0.09572
999.04238	0.09218
997.75661	0.08869
996.47084	0.08535
995.18507	0.08217
993.89930	0.07909
992.61353	0.07606
991.32777	0.07311
990.04200	0.07030
988.75623	0.06768
987.47046	0.06525
986.18469	0.06294
984.89892	0.06071
983.61315	0.05857
982.32738	0.05655
981.04161	0.05463
979.75585	0.05278
978.47008	0.05103
977.18431	0.04948
975.89854	0.04821
974.61277	0.04722
973.32700	0.04645
972.04123	0.04590
970.75546	0.04559
969.46970	0.04554
968.18393	0.04573
966.89816	0.04610
965.61239	0.04657
964.32662	0.04701
963.04085	0.04732
961.75508	0.04742
960.46931	0.04729
959.18354	0.04695
957.89778	0.04639
956.61201	0.04563
955.32624	0.04470
954.04047	0.04365
952.75470	0.04256
951.46893	0.04151
950.18316	0.04052
948.89739	0.03957
947.61163	0.03863
946.32586	0.03766
945.04009	0.03668
943.75432	0.03570
942.46855	0.03475
941.18278	0.03388
939.89701	0.03315
938.61124	0.03252
937.32547	0.03194
936.03971	0.03136
934.75394	0.03077
933.46817	0.03023
932.18240	0.02976
930.89663	0.02934
929.61086	0.02892
928.32509	0.02846
927.03932	0.02798
925.75356	0.02750
924.46779	0.02705
923.18202	0.02666
921.89625	0.02636
920.61048	0.02619
919.32471	0.02607
918.03894	0.02589
916.75317	0.02561
915.46740	0.02530
914.18164	0.02503
912.89587	0.02482
911.61010	0.02464
910.32433	0.02443
909.03856	0.02412
907.75279	0.02370
906.46702	0.02324
905.18125	0.02288
903.89549	0.02273
902.60972	0.02273
901.32395	0.02277
900.03818	0.02274
898.75241	0.02261
897.46664	0.02243
896.18087	0.02223
894.89510	0.02207
893.60933	0.02203
892.32357	0.02213
891.03780	0.02231
889.75203	0.02247
888.46626	0.02266
887.18049	0.02301
885.89472	0.02372
884.60895	0.02493
883.32318	0.02661
882.03742	0.02856
880.75165	0.03050
879.46588	0.03220
878.18011	0.03359
876.89434	0.03474
875.60857	0.03580
874.32280	0.03681
873.03703	0.03760
871.75126	0.03791
870.46550	0.03754
869.17973	0.03656
867.89396	0.03518
866.60819	0.03365
865.32242	0.03211
864.03665	0.03064
862.75088	0.02929
861.46511	0.02805
860.17935	0.02693
858.89358	0.02592
857.60781	0.02509
856.32204	0.02445
855.03627	0.02400
853.75050	0.02367
852.46473	0.02340
851.17896	0.02317
849.89319	0.02293
848.60743	0.02263
847.32166	0.02230
846.03589	0.02197
844.75012	0.02168
843.46435	0.02144
842.17858	0.02126
840.89281	0.02112
839.60704	0.02101
838.32128	0.02088
837.03551	0.02075
835.74974	0.02063
834.46397	0.02056
833.17820	0.02049
831.89243	0.02039
830.60666	0.02023
829.32089	0.02007
828.03512	0.01995
826.74936	0.01991
825.46359	0.01991
824.17782	0.01992
822.89205	0.01990
821.60628	0.01986
820.32051	0.01977
819.03474	0.01964
817.74897	0.01948
816.46321	0.01935
815.17744	0.01929
813.89167	0.01931
812.60590	0.01935
811.32013	0.01936
810.03436	0.01931
808.74859	0.01919
807.46282	0.01906
806.17705	0.01894
804.89129	0.01891
803.60552	0.01899
802.31975	0.01912
801.03398	0.01920
799.74821	0.01919
798.46244	0.01914
797.17667	0.01909
795.89090	0.01904
794.60513	0.01900
793.31937	0.01892
792.03360	0.01883
790.74783	0.01873
789.46206	0.01863
788.17629	0.01856
786.89052	0.01854
785.60475	0.01855
784.31898	0.01855
783.03322	0.01851
781.74745	0.01843
780.46168	0.01837
779.17591	0.01842
777.89014	0.01856
776.60437	0.01873
775.31860	0.01880
774.03283	0.01870
772.74706	0.01852
771.46130	0.01838
770.17553	0.01836
768.88976	0.01839
767.60399	0.01840
766.31822	0.01835
765.03245	0.01828
763.74668	0.01825
762.46091	0.01832
761.17515	0.01847
759.88938	0.01866
758.60361	0.01882
757.31784	0.01892
756.03207	0.01901
754.74630	0.01909
753.46053	0.01917
752.17476	0.01919
750.88899	0.01914
749.60323	0.01899
748.31746	0.01878
747.03169	0.01858
745.74592	0.01844
744.46015	0.01839
743.17438	0.01841
741.88861	0.01840
740.60284	0.01834
739.31708	0.01827
738.03131	0.01829
736.74554	0.01846
735.45977	0.01871
734.17400	0.01891
732.88823	0.01895
731.60246	0.01882
730.31669	0.01860
729.03092	0.01841
727.74516	0.01832
726.45939	0.01832
725.17362	0.01836
723.88785	0.01829
722.60208	0.01837
721.31631	0.01862
720.03054	0.01886
718.74477	0.01899
717.45901	0.01911
716.17324	0.01921
714.88747	0.01921
713.60170	0.01909
712.31593	0.01891
711.03016	0.01872
709.74439	0.01855
708.45862	0.01843
707.17285	0.01835
705.88709	0.01829
704.60132	0.01824
703.31555	0.01819
702.02978	0.01814
700.74401	0.01810
699.45824	0.01806
698.17247	0.01804
696.88670	0.01804
695.60094	0.01804
694.31517	0.01801
693.02940	0.01794
691.74363	0.01784
690.45786	0.01775
689.17209	0.01766
687.88632	0.01756
686.60055	0.01741
685.31478	0.01722
684.02902	0.01704
682.74325	0.01692
681.45748	0.01689
680.17171	0.01688
678.88594	0.01686
677.60017	0.01682
676.31440	0.01680
675.02863	0.01681
673.74287	0.01680
672.45710	0.01672
671.17133	0.01678
669.88556	0.01748
668.59979	0.01854
667.31402	0.01804
666.02825	0.01673
664.74248	0.01635
663.45671	0.01652
662.17095	0.01663
660.88518	0.01661
659.59941	0.01656
658.31364	0.01653
657.02787	0.01655
655.74210	0.01662
654.45633	0.01667
653.17056	0.01667
651.88480	0.01662
650.59903	0.01655
649.31326	0.01649
648.02749	0.01644
646.74172	0.01643
645.45595	0.01647
644.17018	0.01654
642.88441	0.01664
641.59864	0.01676
640.31288	0.01690
639.02711	0.01702
637.74134	0.01708
636.45557	0.01708
635.16980	0.01705
633.88403	0.01704
632.59826	0.01713
631.31249	0.01735
630.02673	0.01771
628.74096	0.01822
627.45519	0.01886
626.16942	0.01950
624.88365	0.02008
623.59788	0.02072
622.31211	0.02179
621.02634	0.02362
619.74057	0.02607
618.45481	0.02861
617.16904	0.03072
615.88327	0.03230
614.59750	0.03378
613.31173	0.03589
612.02596	0.03913
610.74019	0.04332
609.45442	0.04757
608.16866	0.05100
606.88289	0.05343
605.59712	0.05515
604.31135	0.05631
603.02558	0.05677
601.73981	0.05642
600.45404	0.05531
599.16827	0.05365
597.88250	0.05172
596.59674	0.04967
595.31097	0.04761
594.02520	0.04566
592.73943	0.04411
591.45366	0.04323
590.16789	0.04312
588.88212	0.04359
587.59635	0.04433
586.31059	0.04511
585.02482	0.04594
583.73905	0.04697
582.45328	0.04826
581.16751	0.04973
579.88174	0.05123
578.59597	0.05264
577.31020	0.05393
576.02443	0.05510
574.73867	0.05619
573.45290	0.05729
572.16713	0.05855
570.88136	0.06009
569.59559	0.06191
568.30982	0.06395
567.02405	0.06603
565.73828	0.06791
564.45251	0.06933
563.16675	0.07008
561.88098	0.07006
560.59521	0.06921
559.30944	0.06747
558.02367	0.06483
556.73790	0.06147
555.45213	0.05777
554.16636	0.05413
552.88060	0.05076
551.59483	0.04770
550.30906	0.04492
549.02329	0.04240
547.73752	0.04013
546.45175	0.03810
545.16598	0.03633
543.88021	0.03484
542.59444	0.03356
541.30868	0.03238
540.02291	0.03124
538.73714	0.03015
537.45137	0.02921
536.16560	0.02843
534.87983	0.02777
533.59406	0.02720
532.30829	0.02669
531.02253	0.02622
529.73676	0.02575
528.45099	0.02528
527.16522	0.02481
525.87945	0.02438
524.59368	0.02397
523.30791	0.02353
522.02214	0.02303
520.73637	0.02251
519.45061	0.02204
518.16484	0.02168
516.87907	0.02143
515.59330	0.02125
514.30753	0.02111
513.02176	0.02100
511.73599	0.02086
510.45022	0.02063
509.16446	0.02029
507.87869	0.01993
506.59292	0.01966
505.30715	0.01950
504.02138	0.01934
502.73561	0.01911
501.44984	0.01885
500.16407	0.01860
498.87830	0.01837
497.59254	0.01818
496.30677	0.01805
495.02100	0.01801
493.73523	0.01803
492.44946	0.01802
491.16369	0.01788
489.87792	0.01762
488.59215	0.01733
487.30639	0.01710
486.02062	0.01699
484.73485	0.01697
483.44908	0.01703
482.16331	0.01713
480.87754	0.01724
479.59177	0.01731
478.30600	0.01735
477.02023	0.01740
475.73447	0.01750
474.44870	0.01765
473.16293	0.01782
471.87716	0.01801
470.59139	0.01813
469.30562	0.01810
468.01985	0.01788
466.73408	0.01753
465.44832	0.01713
464.16255	0.01677
462.87678	0.01654
461.59101	0.01645
460.30524	0.01641
459.01947	0.01633
457.73370	0.01620
456.44793	0.01601
455.16216	0.01577
453.87640	0.01552
452.59063	0.01536
451.30486	0.01531
450.01909	0.01528
448.73332	0.01521
447.44755	0.01510
446.16178	0.01500
444.87601	0.01490
443.59025	0.01481
442.30448	0.01472
441.01871	0.01466
439.73294	0.01460
438.44717	0.01454
437.16140	0.01449
435.87563	0.01450
434.58986	0.01454
433.30409	0.01454
432.01833	0.01446
430.73256	0.01433
429.44679	0.01422
428.16102	0.01414
426.87525	0.01411
425.58948	0.01409
424.30371	0.01406
423.01794	0.01398
421.73218	0.01381
420.44641	0.01359
419.16064	0.01347
417.87487	0.01353
416.58910	0.01363
415.30333	0.01359
414.01756	0.01342
412.73179	0.01325
411.44602	0.01316
410.16026	0.01314
408.87449	0.01317
407.58872	0.01325
406.30295	0.01335
405.01718	0.01347
403.73141	0.01362
402.44564	0.01377
401.15987	0.01388
399.87411	0.01392
