3997.45528	0.01080
3996.16951	0.01086
3994.88374	0.01089
3993.59798	0.01096
3992.31221	0.01106
3991.02644	0.01107
3989.74067	0.01093
3988.45490	0.01060
3987.16913	0.01003
3985.88336	0.00924
3984.59759	0.00855
3983.31183	0.00851
3982.02606	0.00935
3980.74029	0.01071
3979.45452	0.01191
3978.16875	0.01255
3976.88298	0.01266
3975.59721	0.01237
3974.31144	0.01182
3973.02567	0.01125
3971.73991	0.01108
3970.45414	0.01149
3969.16837	0.01213
3967.88260	0.01244
3966.59683	0.01221
3965.31106	0.01170
3964.02529	0.01131
3962.73952	0.01119
3961.45376	0.01126
3960.16799	0.01150
3958.88222	0.01182
3957.59645	0.01202
3956.31068	0.01182
3955.02491	0.01120
3953.73914	0.01052
3952.45337	0.01029
3951.16760	0.01068
3949.88184	0.01147
3948.59607	0.01227
3947.31030	0.01278
3946.02453	0.01286
3944.73876	0.01247
3943.45299	0.01181
3942.16722	0.01132
3940.88145	0.01137
3939.59569	0.01193
3938.30992	0.01265
3937.02415	0.01311
3935.73838	0.01315
3934.45261	0.01281
3933.16684	0.01225
3931.88107	0.01158
3930.59530	0.01094
3929.30953	0.01055
3928.02377	0.01058
3926.73800	0.01100
3925.45223	0.01166
3924.16646	0.01242
3922.88069	0.01312
3921.59492	0.01349
3920.30915	0.01338
3919.02338	0.01293
3917.73762	0.01256
3916.45185	0.01261
3915.16608	0.01306
3913.88031	0.01362
3912.59454	0.01403
3911.30877	0.01427
3910.02300	0.01429
3908.73723	0.01406
3907.45146	0.01362
3906.16570	0.01319
3904.87993	0.01298
3903.59416	0.01301
3902.30839	0.01312
3901.02262	0.01323
3899.73685	0.01340
3898.45108	0.01367
3897.16531	0.01386
3895.87955	0.01382
3894.59378	0.01349
3893.30801	0.01289
3892.02224	0.01224
3890.73647	0.01193
3889.45070	0.01209
3888.16493	0.01232
3886.87916	0.01225
3885.59339	0.01205
3884.30763	0.01207
3883.02186	0.01234
3881.73609	0.01252
3880.45032	0.01252
3879.16455	0.01248
3877.87878	0.01260
3876.59301	0.01289
3875.30724	0.01333
3874.02148	0.01393
3872.73571	0.01456
3871.44994	0.01506
3870.16417	0.01545
3868.87840	0.01581
3867.59263	0.01599
3866.30686	0.01588
3865.02109	0.01567
3863.73532	0.01560
3862.44956	0.01558
3861.16379	0.01534
3859.87802	0.01480
3858.59225	0.01411
3857.30648	0.01348
3856.02071	0.01307
3854.73494	0.01318
3853.44917	0.01410
3852.16341	0.01553
3850.87764	0.01664
3849.59187	0.01680
3848.30610	0.01611
3847.02033	0.01505
3845.73456	0.01401
3844.44879	0.01321
3843.16302	0.01275
3841.87725	0.01260
3840.59149	0.01254
3839.30572	0.01238
3838.01995	0.01220
3836.73418	0.01223
3835.44841	0.01256
3834.16264	0.01313
3832.87687	0.01391
3831.59110	0.01479
3830.30534	0.01549
3829.01957	0.01568
3827.73380	0.01534
3826.44803	0.01476
3825.16226	0.01419
3823.87649	0.01359
3822.59072	0.01297
3821.30495	0.01262
3820.01918	0.01274
3818.73342	0.01302
3817.44765	0.01309
3816.16188	0.01303
3814.87611	0.01309
3813.59034	0.01324
3812.30457	0.01341
3811.01880	0.01373
3809.73303	0.01419
3808.44726	0.01455
3807.16150	0.01467
3805.87573	0.01453
3804.58996	0.01401
3803.30419	0.01313
3802.01842	0.01241
3800.73265	0.01247
3799.44688	0.01323
3798.16111	0.01407
3796.87535	0.01458
3795.58958	0.01477
3794.30381	0.01470
3793.01804	0.01443
3791.73227	0.01420
3790.44650	0.01421
3789.16073	0.01449
3787.87496	0.01488
3786.58919	0.01521
3785.30343	0.01540
3784.01766	0.01546
3782.73189	0.01537
3781.44612	0.01512
3780.16035	0.01476
3778.87458	0.01443
3777.58881	0.01416
3776.30304	0.01393
3775.01728	0.01377
3773.73151	0.01380
3772.44574	0.01402
3771.15997	0.01429
3769.87420	0.01441
3768.58843	0.01421
3767.30266	0.01363
3766.01689	0.01287
3764.73112	0.01237
3763.44536	0.01246
3762.15959	0.01318
3760.87382	0.01422
3759.58805	0.01510
3758.30228	0.01540
3757.01651	0.01510
3755.73074	0.01461
3754.44497	0.01424
3753.15921	0.01390
3751.87344	0.01336
3750.58767	0.01272
3749.30190	0.01252
3748.01613	0.01310
3746.73036	0.01397
3745.44459	0.01452
3744.15882	0.01466
3742.87305	0.01440
3741.58729	0.01366
3740.30152	0.01263
3739.01575	0.01175
3737.72998	0.01120
3736.44421	0.01100
3735.15844	0.01117
3733.87267	0.01162
3732.58690	0.01222
3731.30114	0.01287
3730.01537	0.01338
3728.72960	0.01360
3727.44383	0.01367
3726.15806	0.01385
3724.87229	0.01411
3723.58652	0.01420
3722.30075	0.01404
3721.01498	0.01372
3719.72922	0.01337
3718.44345	0.01307
3717.15768	0.01293
3715.87191	0.01304
3714.58614	0.01335
3713.30037	0.01368
3712.01460	0.01383
3710.72883	0.01363
3709.44307	0.01317
3708.15730	0.01282
3706.87153	0.01281
3705.58576	0.01305
3704.29999	0.01325
3703.01422	0.01336
3701.72845	0.01363
3700.44268	0.01419
3699.15691	0.01483
3697.87115	0.01522
3696.58538	0.01527
3695.29961	0.01508
3694.01384	0.01480
3692.72807	0.01468
3691.44230	0.01478
3690.15653	0.01496
3688.87076	0.01503
3687.58500	0.01487
3686.29923	0.01443
3685.01346	0.01376
3683.72769	0.01306
3682.44192	0.01252
3681.15615	0.01230
3679.87038	0.01258
3678.58461	0.01330
3677.29884	0.01411
3676.01308	0.01478
3674.72731	0.01533
3673.44154	0.01568
3672.15577	0.01574
3670.87000	0.01566
3669.58423	0.01554
3668.29846	0.01521
3667.01269	0.01462
3665.72693	0.01411
3664.44116	0.01403
3663.15539	0.01419
3661.86962	0.01423
3660.58385	0.01408
3659.29808	0.01399
3658.01231	0.01417
3656.72654	0.01464
3655.44077	0.01528
3654.15501	0.01588
3652.86924	0.01626
3651.58347	0.01649
3650.29770	0.01677
3649.01193	0.01710
3647.72616	0.01723
3646.44039	0.01689
3645.15462	0.01613
3643.86886	0.01527
3642.58309	0.01464
3641.29732	0.01440
3640.01155	0.01462
3638.72578	0.01527
3637.44001	0.01617
3636.15424	0.01692
3634.86847	0.01731
3633.58270	0.01752
3632.29694	0.01786
3631.01117	0.01840
3629.72540	0.01897
3628.43963	0.01941
3627.15386	0.01963
3625.86809	0.01962
3624.58232	0.01951
3623.29655	0.01944
3622.01079	0.01947
3620.72502	0.01970
3619.43925	0.02014
3618.15348	0.02057
3616.86771	0.02067
3615.58194	0.02037
3614.29617	0.01996
3613.01040	0.01978
3611.72463	0.01991
3610.43887	0.02023
3609.15310	0.02064
3607.86733	0.02109
3606.58156	0.02144
3605.29579	0.02149
3604.01002	0.02128
3602.72425	0.02105
3601.43848	0.02114
3600.15272	0.02170
3598.86695	0.02257
3597.58118	0.02333
3596.29541	0.02370
3595.00964	0.02368
3593.72387	0.02356
3592.43810	0.02369
3591.15233	0.02423
3589.86656	0.02501
3588.58080	0.02564
3587.29503	0.02585
3586.00926	0.02557
3584.72349	0.02489
3583.43772	0.02404
3582.15195	0.02327
3580.86618	0.02281
3579.58041	0.02281
3578.29464	0.02326
3577.00888	0.02389
3575.72311	0.02451
3574.43734	0.02510
3573.15157	0.02567
3571.86580	0.02610
3570.58003	0.02622
3569.29426	0.02606
3568.00849	0.02591
3566.72273	0.02596
3565.43696	0.02615
3564.15119	0.02622
3562.86542	0.02599
3561.57965	0.02556
3560.29388	0.02533
3559.00811	0.02560
3557.72234	0.02627
3556.43657	0.02697
3555.15081	0.02746
3553.86504	0.02774
3552.57927	0.02789
3551.29350	0.02792
3550.00773	0.02792
3548.72196	0.02808
3547.43619	0.02852
3546.15042	0.02915
3544.86466	0.02969
3543.57889	0.02987
3542.29312	0.02961
3541.00735	0.02905
3539.72158	0.02849
3538.43581	0.02824
3537.15004	0.02847
3535.86427	0.02917
3534.57850	0.03014
3533.29274	0.03111
3532.00697	0.03182
3530.72120	0.03210
3529.43543	0.03189
3528.14966	0.03141
3526.86389	0.03104
3525.57812	0.03105
3524.29235	0.03134
3523.00659	0.03164
3521.72082	0.03178
3520.43505	0.03185
3519.14928	0.03200
3517.86351	0.03231
3516.57774	0.03278
3515.29197	0.03338
3514.00620	0.03396
3512.72043	0.03438
3511.43467	0.03453
3510.14890	0.03447
3508.86313	0.03427
3507.57736	0.03394
3506.29159	0.03352
3505.00582	0.03322
3503.72005	0.03327
3502.43428	0.03369
3501.14852	0.03424
3499.86275	0.03459
3498.57698	0.03458
3497.29121	0.03421
3496.00544	0.03372
3494.71967	0.03347
3493.43390	0.03375
3492.14813	0.03461
3490.86236	0.03574
3489.57660	0.03676
3488.29083	0.03741
3487.00506	0.03766
3485.71929	0.03758
3484.43352	0.03721
3483.14775	0.03664
3481.86198	0.03609
3480.57621	0.03577
3479.29045	0.03574
3478.00468	0.03588
3476.71891	0.03607
3475.43314	0.03622
3474.14737	0.03633
3472.86160	0.03639
3471.57583	0.03647
3470.29006	0.03671
3469.00429	0.03721
3467.71853	0.03783
3466.43276	0.03826
3465.14699	0.03828
3463.86122	0.03802
3462.57545	0.03789
3461.28968	0.03810
3460.00391	0.03857
3458.71814	0.03907
3457.43238	0.03949
3456.14661	0.03973
3454.86084	0.03967
3453.57507	0.03915
3452.28930	0.03834
3451.00353	0.03782
3449.71776	0.03807
3448.43199	0.03900
3447.14622	0.04003
3445.86046	0.04053
3444.57469	0.04030
3443.28892	0.03964
3442.00315	0.03906
3440.71738	0.03887
3439.43161	0.03899
3438.14584	0.03914
3436.86007	0.03913
3435.57431	0.03898
3434.28854	0.03890
3433.00277	0.03913
3431.71700	0.03974
3430.43123	0.04058
3429.14546	0.04133
3427.85969	0.04169
3426.57392	0.04166
3425.28815	0.04145
3424.00239	0.04126
3422.71662	0.04120
3421.43085	0.04130
3420.14508	0.04164
3418.85931	0.04212
3417.57354	0.04248
3416.28777	0.04246
3415.00200	0.04212
3413.71624	0.04177
3412.43047	0.04169
3411.14470	0.04194
3409.85893	0.04239
3408.57316	0.04279
3407.28739	0.04290
3406.00162	0.04261
3404.71585	0.04206
3403.43008	0.04154
3402.14432	0.04131
3400.85855	0.04151
3399.57278	0.04205
3398.28701	0.04273
3397.00124	0.04329
3395.71547	0.04362
3394.42970	0.04374
3393.14393	0.04371
3391.85817	0.04353
3390.57240	0.04322
3389.28663	0.04298
3388.00086	0.04299
3386.71509	0.04325
3385.42932	0.04362
3384.14355	0.04400
3382.85778	0.04440
3381.57201	0.04478
3380.28625	0.04506
3379.00048	0.04515
3377.71471	0.04508
3376.42894	0.04499
3375.14317	0.04500
3373.85740	0.04508
3372.57163	0.04511
3371.28586	0.04498
3370.00010	0.04472
3368.71433	0.04443
3367.42856	0.04427
3366.14279	0.04430
3364.85702	0.04451
3363.57125	0.04483
3362.28548	0.04507
3360.99971	0.04514
3359.71394	0.04508
3358.42818	0.04506
3357.14241	0.04511
3355.85664	0.04516
3354.57087	0.04512
3353.28510	0.04504
3351.99933	0.04509
3350.71356	0.04535
3349.42779	0.04575
3348.14202	0.04611
3346.85626	0.04620
3345.57049	0.04583
3344.28472	0.04506
3342.99895	0.04415
3341.71318	0.04346
3340.42741	0.04320
3339.14164	0.04335
3337.85587	0.04368
3336.57011	0.04395
3335.28434	0.04398
3333.99857	0.04380
3332.71280	0.04363
3331.42703	0.04377
3330.14126	0.04427
3328.85549	0.04482
3327.56972	0.04504
3326.28395	0.04483
3324.99819	0.04448
3323.71242	0.04428
3322.42665	0.04431
3321.14088	0.04448
3319.85511	0.04475
3318.56934	0.04512
3317.28357	0.04559
3315.99780	0.04603
3314.71204	0.04632
3313.42627	0.04643
3312.14050	0.04648
3310.85473	0.04655
3309.56896	0.04659
3308.28319	0.04641
3306.99742	0.04594
3305.71165	0.04527
3304.42588	0.04467
3303.14012	0.04435
3301.85435	0.04432
3300.56858	0.04446
3299.28281	0.04462
3297.99704	0.04477
3296.71127	0.04488
3295.42550	0.04496
3294.13973	0.04497
3292.85397	0.04490
3291.56820	0.04478
3290.28243	0.04467
3288.99666	0.04461
3287.71089	0.04455
3286.42512	0.04444
3285.13935	0.04429
3283.85358	0.04415
3282.56781	0.04400
3281.28205	0.04383
3279.99628	0.04364
3278.71051	0.04351
3277.42474	0.04341
3276.13897	0.04331
3274.85320	0.04322
3273.56743	0.04324
3272.28166	0.04348
3270.99590	0.04392
3269.71013	0.04441
3268.42436	0.04470
3267.13859	0.04466
3265.85282	0.04440
3264.56705	0.04425
3263.28128	0.04443
3261.99551	0.04486
3260.70974	0.04528
3259.42398	0.04545
3258.13821	0.04530
3256.85244	0.04490
3255.56667	0.04440
3254.28090	0.04393
3252.99513	0.04362
3251.70936	0.04355
3250.42359	0.04372
3249.13783	0.04400
3247.85206	0.04425
3246.56629	0.04448
3245.28052	0.04476
3243.99475	0.04510
3242.70898	0.04530
3241.42321	0.04520
3240.13744	0.04478
3238.85167	0.04427
3237.56591	0.04392
3236.28014	0.04385
3234.99437	0.04396
3233.70860	0.04403
3232.42283	0.04390
3231.13706	0.04360
3229.85129	0.04337
3228.56552	0.04343
3227.27976	0.04377
3225.99399	0.04417
3224.70822	0.04440
3223.42245	0.04441
3222.13668	0.04424
3220.85091	0.04388
3219.56514	0.04336
3218.27937	0.04287
3216.99360	0.04268
3215.70784	0.04291
3214.42207	0.04340
3213.13630	0.04381
3211.85053	0.04387
3210.56476	0.04359
3209.27899	0.04320
3207.99322	0.04292
3206.70745	0.04284
3205.42169	0.04292
3204.13592	0.04312
3202.85015	0.04334
3201.56438	0.04344
3200.27861	0.04336
3198.99284	0.04314
3197.70707	0.04289
3196.42130	0.04268
3195.13553	0.04253
3193.84977	0.04239
3192.56400	0.04217
3191.27823	0.04191
3189.99246	0.04179
3188.70669	0.04196
3187.42092	0.04235
3186.13515	0.04274
3184.84938	0.04301
3183.56362	0.04316
3182.27785	0.04323
3180.99208	0.04315
3179.70631	0.04282
3178.42054	0.04228
3177.13477	0.04164
3175.84900	0.04106
3174.56323	0.04065
3173.27746	0.04044
3171.99170	0.04040
3170.70593	0.04050
3169.42016	0.04072
3168.13439	0.04105
3166.84862	0.04138
3165.56285	0.04165
3164.27708	0.04187
3162.99131	0.04210
3161.70555	0.04233
3160.41978	0.04250
3159.13401	0.04250
3157.84824	0.04223
3156.56247	0.04171
3155.27670	0.04116
3153.99093	0.04082
3152.70516	0.04084
3151.41939	0.04114
3150.13363	0.04152
3148.84786	0.04180
3147.56209	0.04187
3146.27632	0.04172
3144.99055	0.04138
3143.70478	0.04094
3142.41901	0.04054
3141.13324	0.04026
3139.84748	0.04016
3138.56171	0.04019
3137.27594	0.04031
3135.99017	0.04052
3134.70440	0.04076
3133.41863	0.04100
3132.13286	0.04119
3130.84709	0.04132
3129.56132	0.04138
3128.27556	0.04132
3126.98979	0.04114
3125.70402	0.04086
3124.41825	0.04057
3123.13248	0.04031
3121.84671	0.04013
3120.56094	0.04008
3119.27517	0.04019
3117.98940	0.04046
3116.70364	0.04082
3115.41787	0.04109
3114.13210	0.04107
3112.84633	0.04074
3111.56056	0.04030
3110.27479	0.04000
3108.98902	0.03992
3107.70325	0.04005
3106.41749	0.04034
3105.13172	0.04068
3103.84595	0.04088
3102.56018	0.04080
3101.27441	0.04053
3099.98864	0.04026
3098.70287	0.04009
3097.41710	0.03995
3096.13133	0.03976
3094.84557	0.03955
3093.55980	0.03940
3092.27403	0.03936
3090.98826	0.03943
3089.70249	0.03960
3088.41672	0.03987
3087.13095	0.04010
3085.84518	0.04008
3084.55942	0.03966
3083.27365	0.03902
3081.98788	0.03851
3080.70211	0.03843
3079.41634	0.03877
3078.13057	0.03928
3076.84480	0.03968
3075.55903	0.03979
3074.27326	0.03961
3072.98750	0.03922
3071.70173	0.03873
3070.41596	0.03827
3069.13019	0.03793
3067.84442	0.03779
3066.55865	0.03789
3065.27288	0.03816
3063.98711	0.03850
3062.70135	0.03876
3061.41558	0.03887
3060.12981	0.03887
3058.84404	0.03881
3057.55827	0.03873
3056.27250	0.03866
3054.98673	0.03860
3053.70096	0.03854
3052.41519	0.03845
3051.12943	0.03833
3049.84366	0.03817
3048.55789	0.03796
3047.27212	0.03774
3045.98635	0.03760
3044.70058	0.03755
3043.41481	0.03753
3042.12904	0.03745
3040.84328	0.03734
3039.55751	0.03728
3038.27174	0.03727
3036.98597	0.03718
3035.70020	0.03694
3034.41443	0.03662
3033.12866	0.03642
3031.84289	0.03644
3030.55712	0.03660
3029.27136	0.03675
3027.98559	0.03683
3026.69982	0.03688
3025.41405	0.03690
3024.12828	0.03686
3022.84251	0.03675
3021.55674	0.03665
3020.27097	0.03665
3018.98521	0.03681
3017.69944	0.03705
3016.41367	0.03722
3015.12790	0.03719
3013.84213	0.03697
3012.55636	0.03665
3011.27059	0.03633
3009.98482	0.03612
3008.69905	0.03609
3007.41329	0.03629
3006.12752	0.03659
3004.84175	0.03680
3003.55598	0.03678
3002.27021	0.03654
3000.98444	0.03617
2999.69867	0.03577
2998.41290	0.03554
2997.12714	0.03558
2995.84137	0.03583
2994.55560	0.03602
2993.26983	0.03595
2991.98406	0.03566
2990.69829	0.03540
2989.41252	0.03534
2988.12675	0.03539
2986.84098	0.03539
2985.55522	0.03537
2984.26945	0.03547
2982.98368	0.03581
2981.69791	0.03636
2980.41214	0.03691
2979.12637	0.03717
2977.84060	0.03701
2976.55483	0.03660
2975.26907	0.03630
2973.98330	0.03633
2972.69753	0.03664
2971.41176	0.03702
2970.12599	0.03730
2968.84022	0.03746
2967.55445	0.03756
2966.26868	0.03767
2964.98291	0.03786
2963.69715	0.03819
2962.41138	0.03856
2961.12561	0.03881
2959.83984	0.03891
2958.55407	0.03905
2957.26830	0.03944
2955.98253	0.04001
2954.69676	0.04055
2953.41100	0.04092
2952.12523	0.04115
2950.83946	0.04128
2949.55369	0.04131
2948.26792	0.04131
2946.98215	0.04129
2945.69638	0.04116
2944.41061	0.04085
2943.12484	0.04042
2941.83908	0.04006
2940.55331	0.03988
2939.26754	0.03987
2937.98177	0.03996
2936.69600	0.04014
2935.41023	0.04035
2934.12446	0.04058
2932.83869	0.04080
2931.55293	0.04100
2930.26716	0.04116
2928.98139	0.04130
2927.69562	0.04151
2926.40985	0.04174
2925.12408	0.04186
2923.83831	0.04171
2922.55254	0.04128
2921.26677	0.04075
2919.98101	0.04030
2918.69524	0.04006
2917.40947	0.04005
2916.12370	0.04013
2914.83793	0.04012
2913.55216	0.03997
2912.26639	0.03975
2910.98062	0.03959
2909.69486	0.03948
2908.40909	0.03936
2907.12332	0.03925
2905.83755	0.03917
2904.55178	0.03912
2903.26601	0.03906
2901.98024	0.03902
2900.69447	0.03902
2899.40870	0.03900
2898.12294	0.03888
2896.83717	0.03863
2895.55140	0.03826
2894.26563	0.03780
2892.97986	0.03728
2891.69409	0.03680
2890.40832	0.03649
2889.12255	0.03638
2887.83678	0.03643
2886.55102	0.03656
2885.26525	0.03669
2883.97948	0.03672
2882.69371	0.03663
2881.40794	0.03644
2880.12217	0.03625
2878.83640	0.03619
2877.55063	0.03631
2876.26487	0.03653
2874.97910	0.03668
2873.69333	0.03672
2872.40756	0.03677
2871.12179	0.03698
2869.83602	0.03727
2868.55025	0.03746
2867.26448	0.03745
2865.97871	0.03729
2864.69295	0.03708
2863.40718	0.03684
2862.12141	0.03657
2860.83564	0.03626
2859.54987	0.03592
2858.26410	0.03561
2856.97833	0.03539
2855.69256	0.03528
2854.40680	0.03522
2853.12103	0.03513
2851.83526	0.03501
2850.54949	0.03487
2849.26372	0.03476
2847.97795	0.03468
2846.69218	0.03462
2845.40641	0.03456
2844.12064	0.03447
2842.83488	0.03436
2841.54911	0.03432
2840.26334	0.03442
2838.97757	0.03456
2837.69180	0.03457
2836.40603	0.03432
2835.12026	0.03376
2833.83449	0.03302
2832.54873	0.03231
2831.26296	0.03187
2829.97719	0.03177
2828.69142	0.03185
2827.40565	0.03192
2826.11988	0.03191
2824.83411	0.03182
2823.54834	0.03167
2822.26257	0.03143
2820.97681	0.03111
2819.69104	0.03082
2818.40527	0.03064
2817.11950	0.03055
2815.83373	0.03050
2814.54796	0.03041
2813.26219	0.03033
2811.97642	0.03033
2810.69066	0.03042
2809.40489	0.03050
2808.11912	0.03048
2806.83335	0.03036
2805.54758	0.03027
2804.26181	0.03026
2802.97604	0.03031
2801.69027	0.03029
2800.40450	0.03017
2799.11874	0.03002
2797.83297	0.02993
2796.54720	0.02998
2795.26143	0.03015
2793.97566	0.03039
2792.68989	0.03061
2791.40412	0.03071
2790.11835	0.03064
2788.83259	0.03041
2787.54682	0.03008
2786.26105	0.02972
2784.97528	0.02940
2783.68951	0.02919
2782.40374	0.02908
2781.11797	0.02899
2779.83220	0.02883
2778.54643	0.02857
2777.26067	0.02836
2775.97490	0.02831
2774.68913	0.02844
2773.40336	0.02864
2772.11759	0.02886
2770.83182	0.02903
2769.54605	0.02908
2768.26028	0.02898
2766.97452	0.02883
2765.68875	0.02880
2764.40298	0.02898
2763.11721	0.02923
2761.83144	0.02930
2760.54567	0.02910
2759.25990	0.02878
2757.97413	0.02853
2756.68836	0.02842
2755.40260	0.02838
2754.11683	0.02831
2752.83106	0.02821
2751.54529	0.02809
2750.25952	0.02800
2748.97375	0.02795
2747.68798	0.02798
2746.40221	0.02806
2745.11645	0.02811
2743.83068	0.02810
2742.54491	0.02800
2741.25914	0.02788
2739.97337	0.02782
2738.68760	0.02786
2737.40183	0.02797
2736.11606	0.02810
2734.83029	0.02822
2733.54453	0.02829
2732.25876	0.02827
2730.97299	0.02814
2729.68722	0.02799
2728.40145	0.02789
2727.11568	0.02783
2725.82991	0.02771
2724.54414	0.02755
2723.25838	0.02744
2721.97261	0.02740
2720.68684	0.02738
2719.40107	0.02726
2718.11530	0.02704
2716.82953	0.02687
2715.54376	0.02683
2714.25799	0.02687
2712.97222	0.02688
2711.68646	0.02684
2710.40069	0.02682
2709.11492	0.02687
2707.82915	0.02697
2706.54338	0.02705
2705.25761	0.02705
2703.97184	0.02700
2702.68607	0.02693
2701.40031	0.02689
2700.11454	0.02689
2698.82877	0.02694
2697.54300	0.02706
2696.25723	0.02718
2694.97146	0.02720
2693.68569	0.02706
2692.39992	0.02684
2691.11415	0.02667
2689.82839	0.02661
2688.54262	0.02662
2687.25685	0.02661
2685.97108	0.02658
2684.68531	0.02655
2683.39954	0.02657
2682.11377	0.02656
2680.82800	0.02645
2679.54224	0.02627
2678.25647	0.02613
2676.97070	0.02609
2675.68493	0.02610
2674.39916	0.02613
2673.11339	0.02620
2671.82762	0.02627
2670.54185	0.02627
2669.25608	0.02615
2667.97032	0.02600
2666.68455	0.02596
2665.39878	0.02606
2664.11301	0.02624
2662.82724	0.02638
2661.54147	0.02644
2660.25570	0.02640
2658.96993	0.02629
2657.68417	0.02615
2656.39840	0.02599
2655.11263	0.02578
2653.82686	0.02551
2652.54109	0.02522
2651.25532	0.02498
2649.96955	0.02489
2648.68378	0.02500
2647.39801	0.02526
2646.11225	0.02550
2644.82648	0.02556
2643.54071	0.02537
2642.25494	0.02504
2640.96917	0.02477
2639.68340	0.02472
2638.39763	0.02485
2637.11186	0.02496
2635.82609	0.02484
2634.54033	0.02449
2633.25456	0.02407
2631.96879	0.02375
2630.68302	0.02355
2629.39725	0.02341
2628.11148	0.02326
2626.82571	0.02313
2625.53994	0.02307
2624.25418	0.02307
2622.96841	0.02310
2621.68264	0.02312
2620.39687	0.02308
2619.11110	0.02293
2617.82533	0.02271
2616.53956	0.02252
2615.25379	0.02242
2613.96802	0.02231
2612.68226	0.02210
2611.39649	0.02187
2610.11072	0.02179
2608.82495	0.02181
2607.53918	0.02178
2606.25341	0.02175
2604.96764	0.02194
2603.68187	0.02232
2602.39611	0.02255
2601.11034	0.02237
2599.82457	0.02196
2598.53880	0.02162
2597.25303	0.02145
2595.96726	0.02137
2594.68149	0.02134
2593.39572	0.02140
2592.10995	0.02152
2590.82419	0.02161
2589.53842	0.02160
2588.25265	0.02148
2586.96688	0.02130
2585.68111	0.02115
2584.39534	0.02101
2583.10957	0.02078
2581.82380	0.02038
2580.53804	0.01994
2579.25227	0.01972
2577.96650	0.01984
2576.68073	0.02015
2575.39496	0.02040
2574.10919	0.02035
2572.82342	0.02006
2571.53765	0.01972
2570.25188	0.01955
2568.96612	0.01953
2567.68035	0.01950
2566.39458	0.01939
2565.10881	0.01928
2563.82304	0.01936
2562.53727	0.01966
2561.25150	0.01998
2559.96573	0.02003
2558.67997	0.01976
2557.39420	0.01942
2556.10843	0.01930
2554.82266	0.01951
2553.53689	0.01990
2552.25112	0.02021
2550.96535	0.02027
2549.67958	0.02013
2548.39381	0.02002
2547.10805	0.02016
2545.82228	0.02053
2544.53651	0.02089
2543.25074	0.02095
2541.96497	0.02066
2540.67920	0.02019
2539.39343	0.01977
2538.10766	0.01948
2536.82190	0.01925
2535.53613	0.01900
2534.25036	0.01874
2532.96459	0.01862
2531.67882	0.01875
2530.39305	0.01904
2529.10728	0.01914
2527.82151	0.01885
2526.53574	0.01844
2525.24998	0.01832
2523.96421	0.01860
2522.67844	0.01895
2521.39267	0.01904
2520.10690	0.01886
2518.82113	0.01869
2517.53536	0.01875
2516.24959	0.01904
2514.96383	0.01930
2513.67806	0.01934
2512.39229	0.01919
2511.10652	0.01900
2509.82075	0.01886
2508.53498	0.01876
2507.24921	0.01868
2505.96344	0.01865
2504.67767	0.01872
2503.39191	0.01890
2502.10614	0.01906
2500.82037	0.01908
2499.53460	0.01897
2498.24883	0.01883
2496.96306	0.01869
2495.67729	0.01852
2494.39152	0.01843
2493.10576	0.01856
2491.81999	0.01887
2490.53422	0.01907
2489.24845	0.01896
2487.96268	0.01864
2486.67691	0.01842
2485.39114	0.01847
2484.10537	0.01866
2482.81960	0.01876
2481.53384	0.01864
2480.24807	0.01834
2478.96230	0.01800
2477.67653	0.01779
2476.39076	0.01781
2475.10499	0.01801
2473.81922	0.01820
2472.53345	0.01825
2471.24769	0.01813
2469.96192	0.01795
2468.67615	0.01788
2467.39038	0.01809
2466.10461	0.01853
2464.81884	0.01892
2463.53307	0.01899
2462.24730	0.01877
2460.96153	0.01862
2459.67577	0.01874
2458.39000	0.01897
2457.10423	0.01898
2455.81846	0.01867
2454.53269	0.01827
2453.24692	0.01800
2451.96115	0.01792
2450.67538	0.01800
2449.38962	0.01823
2448.10385	0.01852
2446.81808	0.01869
2445.53231	0.01859
2444.24654	0.01832
2442.96077	0.01805
2441.67500	0.01783
2440.38923	0.01753
2439.10346	0.01710
2437.81770	0.01674
2436.53193	0.01679
2435.24616	0.01731
2433.96039	0.01802
2432.67462	0.01851
2431.38885	0.01864
2430.10308	0.01854
2428.81731	0.01839
2427.53155	0.01830
2426.24578	0.01828
2424.96001	0.01826
2423.67424	0.01821
2422.38847	0.01814
2421.10270	0.01812
2419.81693	0.01807
2418.53116	0.01791
2417.24539	0.01771
2415.95963	0.01762
2414.67386	0.01764
2413.38809	0.01762
2412.10232	0.01750
2410.81655	0.01737
2409.53078	0.01728
2408.24501	0.01721
2406.95924	0.01713
2405.67347	0.01709
2404.38771	0.01711
2403.10194	0.01719
2401.81617	0.01733
2400.53040	0.01756
2399.24463	0.01775
2397.95886	0.01794
2396.67309	0.01806
2395.38732	0.01811
2394.10156	0.01813
2392.81579	0.01815
2391.53002	0.01816
2390.24425	0.01817
2388.95848	0.01819
2387.67271	0.01819
2386.38694	0.01812
2385.10117	0.01794
2383.81540	0.01768
2382.52964	0.01749
2381.24387	0.01751
2379.95810	0.01772
2378.67233	0.01794
2377.38656	0.01801
2376.10079	0.01787
2374.81502	0.01759
2373.52925	0.01737
2372.24349	0.01730
2370.95772	0.01729
2369.67195	0.01707
2368.38618	0.01657
2367.10041	0.01592
2365.81464	0.01538
2364.52887	0.01501
2363.24310	0.01492
2361.95733	0.01518
2360.67157	0.01575
2359.38580	0.01630
2358.10003	0.01669
2356.81426	0.01697
2355.52849	0.01721
2354.24272	0.01746
2352.95695	0.01775
2351.67118	0.01814
2350.38542	0.01847
2349.09965	0.01847
2347.81388	0.01819
2346.52811	0.01811
2345.24234	0.01824
2343.95657	0.01820
2342.67080	0.01787
2341.38503	0.01775
2340.09926	0.01784
2338.81350	0.01737
2337.52773	0.01645
2336.24196	0.01630
2334.95619	0.01672
2333.67042	0.01638
2332.38465	0.01550
2331.09888	0.01536
2329.81311	0.01522
2328.52735	0.01441
2327.24158	0.01463
2325.95581	0.01578
2324.67004	0.01667
2323.38427	0.01782
2322.09850	0.01909
2320.81273	0.01939
2319.52696	0.01955
2318.24119	0.01967
2316.95543	0.01932
2315.66966	0.01911
2314.38389	0.01900
2313.09812	0.01872
2311.81235	0.01865
2310.52658	0.01850
2309.24081	0.01822
2307.95504	0.01786
2306.66928	0.01730
2305.38351	0.01689
2304.09774	0.01672
2302.81197	0.01678
2301.52620	0.01693
2300.24043	0.01688
2298.95466	0.01655
2297.66889	0.01603
2296.38312	0.01560
2295.09736	0.01550
2293.81159	0.01570
2292.52582	0.01604
2291.24005	0.01636
2289.95428	0.01669
2288.66851	0.01705
2287.38274	0.01737
2286.09697	0.01753
2284.81121	0.01749
2283.52544	0.01735
2282.23967	0.01714
2280.95390	0.01685
2279.66813	0.01643
2278.38236	0.01590
2277.09659	0.01540
2275.81082	0.01502
2274.52505	0.01485
2273.23929	0.01492
2271.95352	0.01517
2270.66775	0.01547
2269.38198	0.01557
2268.09621	0.01532
2266.81044	0.01473
2265.52467	0.01397
2264.23890	0.01320
2262.95314	0.01263
2261.66737	0.01246
2260.38160	0.01272
2259.09583	0.01320
2257.81006	0.01361
2256.52429	0.01374
2255.23852	0.01354
2253.95275	0.01312
2252.66698	0.01256
2251.38122	0.01201
2250.09545	0.01197
2248.80968	0.01272
2247.52391	0.01309
2246.23814	0.01366
2244.95237	0.01418
2243.66660	0.01434
2242.38083	0.01405
2241.09507	0.01346
2239.80930	0.01282
2238.52353	0.01235
2237.23776	0.01201
2235.95199	0.01165
2234.66622	0.01119
2233.38045	0.01078
2232.09468	0.01063
2230.80891	0.01080
2229.52315	0.01116
2228.23738	0.01145
2226.95161	0.01151
2225.66584	0.01134
2224.38007	0.01100
2223.09430	0.01046
2221.80853	0.00955
2220.52276	0.00837
2219.23700	0.00744
2217.95123	0.00736
2216.66546	0.00820
2215.37969	0.00948
2214.09392	0.01068
2212.80815	0.01154
2211.52238	0.01185
2210.23661	0.01149
2208.95084	0.01074
2207.66508	0.01039
2206.37931	0.01092
2205.09354	0.01184
2203.80777	0.01207
2202.52200	0.01117
2201.23623	0.00970
2199.95046	0.00856
2198.66469	0.00811
2197.37893	0.00816
2196.09316	0.00842
2194.80739	0.00872
2193.52162	0.00901
2192.23585	0.00919
2190.95008	0.00913
2189.66431	0.00882
2188.37854	0.00838
2187.09277	0.00800
2185.80701	0.00780
2184.52124	0.00777
2183.23547	0.00780
2181.94970	0.00783
2180.66393	0.00786
2179.37816	0.00794
2178.09239	0.00807
2176.80662	0.00807
2175.52085	0.00770
2174.23509	0.00679
2172.94932	0.00555
2171.66355	0.00457
2170.37778	0.00432
2169.09201	0.00470
2167.80624	0.00513
2166.52047	0.00522
2165.23470	0.00506
2163.94894	0.00475
2162.66317	0.00396
2161.37740	0.00239
2160.09163	0.00041
2158.80586	-0.00105
2157.52009	-0.00130
2156.23432	-0.00040
2154.94855	0.00108
2153.66278	0.00242
2152.37702	0.00322
2151.09125	0.00348
2149.80548	0.00346
2148.51971	0.00333
2147.23394	0.00308
2145.94817	0.00276
2144.66240	0.00253
2143.37663	0.00248
2142.09087	0.00272
2140.80510	0.00339
2139.51933	0.00448
2138.23356	0.00556
2136.94779	0.00609
2135.66202	0.00596
2134.37625	0.00560
2133.09048	0.00552
2131.80471	0.00584
2130.51895	0.00639
2129.23318	0.00695
2127.94741	0.00742
2126.66164	0.00777
2125.37587	0.00804
2124.09010	0.00831
2122.80433	0.00865
2121.51856	0.00905
2120.23280	0.00941
2118.94703	0.00964
2117.66126	0.00970
2116.37549	0.00966
2115.08972	0.00950
2113.80395	0.00912
2112.51818	0.00859
2111.23241	0.00825
2109.94664	0.00845
2108.66088	0.00904
2107.37511	0.00946
2106.08934	0.00920
2104.80357	0.00839
2103.51780	0.00759
2102.23203	0.00722
2100.94626	0.00729
2099.66049	0.01004
2098.37473	0.01110
2097.08896	0.01054
2095.80319	0.00960
2094.51742	0.00883
2093.23165	0.00846
2091.94588	0.00847
2090.66011	0.00856
2089.37434	0.00837
2088.08857	0.00781
2086.80281	0.00716
2085.51704	0.00682
2084.23127	0.00700
2082.94550	0.00760
2081.65973	0.00832
2080.37396	0.00882
2079.08819	0.00896
2077.80242	0.00883
2076.51666	0.00867
2075.23089	0.00865
2073.94512	0.00886
2072.65935	0.00932
2071.37358	0.00991
2070.08781	0.01045
2068.80204	0.01071
2067.51627	0.01057
2066.23050	0.00993
2064.94474	0.00883
2063.65897	0.00749
2062.37320	0.00631
2061.08743	0.00556
2059.80166	0.00520
2058.51589	0.00502
2057.23012	0.00485
2055.94435	0.00465
2054.65859	0.00454
2053.37282	0.00479
2052.08705	0.00563
2050.80128	0.00704
2049.51551	0.00864
2048.22974	0.00997
2046.94397	0.01065
2045.65820	0.01044
2044.37243	0.00936
2043.08667	0.00770
2041.80090	0.00600
2040.51513	0.00470
2039.22936	0.00401
2037.94359	0.00390
2036.65782	0.00426
2035.37205	0.00488
2034.08628	0.00552
2032.80052	0.00588
2031.51475	0.00580
2030.22898	0.00532
2028.94321	0.00464
2027.65744	0.00406
2026.37167	0.00381
2025.08590	0.00400
2023.80013	0.00448
2022.51436	0.00489
2021.22860	0.00489
2019.94283	0.00451
2018.65706	0.00416
2017.37129	0.00435
2016.08552	0.00516
2014.79975	0.00633
2013.51398	0.00763
2012.22821	0.00903
2010.94245	0.01040
2009.65668	0.01130
2008.37091	0.01123
2007.08514	0.01015
2005.79937	0.00864
2004.51360	0.00748
2003.22783	0.00703
2001.94206	0.00702
2000.65629	0.00690
1999.37053	0.00638
1998.08476	0.00574
1996.79899	0.00547
1995.51322	0.00579
1994.22745	0.00642
1992.94168	0.00683
1991.65591	0.00673
1990.37014	0.00625
1989.08438	0.00570
1987.79861	0.00532
1986.51284	0.00532
1985.22707	0.00583
1983.94130	0.00700
1982.65553	0.00888
1981.36976	0.01128
1980.08399	0.01359
1978.79822	0.01508
1977.51246	0.01539
1976.22669	0.01481
1974.94092	0.01403
1973.65515	0.01362
1972.36938	0.01373
1971.08361	0.01407
1969.79784	0.01417
1968.51207	0.01373
1967.22631	0.01288
1965.94054	0.01194
1964.65477	0.01112
1963.36900	0.01051
1962.08323	0.01015
1960.79746	0.01002
1959.51169	0.01001
1958.22592	0.00989
1956.94015	0.00953
1955.65439	0.00916
1954.36862	0.00917
1953.08285	0.00971
1951.79708	0.01051
1950.51131	0.01109
1949.22554	0.01118
1947.93977	0.01092
1946.65400	0.01064
1945.36823	0.01055
1944.08247	0.01073
1942.79670	0.01110
1941.51093	0.01147
1940.22516	0.01156
1938.93939	0.01117
1937.65362	0.01041
1936.36785	0.00982
1935.08208	0.00989
1933.79632	0.01066
1932.51055	0.01157
1931.22478	0.01204
1929.93901	0.01198
1928.65324	0.01172
1927.36747	0.01165
1926.08170	0.01184
1924.79593	0.01205
1923.51016	0.01205
1922.22440	0.01184
1920.93863	0.01159
1919.65286	0.01149
1918.36709	0.01162
1917.08132	0.01186
1915.79555	0.01203
1914.50978	0.01200
1913.22401	0.01183
1911.93825	0.01169
1910.65248	0.01164
1909.36671	0.01164
1908.08094	0.01163
1906.79517	0.01157
1905.50940	0.01153
1904.22363	0.01157
1902.93786	0.01167
1901.65209	0.01178
1900.36633	0.01186
1899.08056	0.01184
1897.79479	0.01174
1896.50902	0.01166
1895.22325	0.01171
1893.93748	0.01189
1892.65171	0.01201
1891.36594	0.01196
1890.08018	0.01180
1888.79441	0.01165
1887.50864	0.01159
1886.22287	0.01165
1884.93710	0.01181
1883.65133	0.01204
1882.36556	0.01227
1881.07979	0.01246
1879.79402	0.01256
1878.50826	0.01255
1877.22249	0.01236
1875.93672	0.01200
1874.65095	0.01158
1873.36518	0.01128
1872.07941	0.01123
1870.79364	0.01146
1869.50787	0.01185
1868.22211	0.01219
1866.93634	0.01234
1865.65057	0.01230
1864.36480	0.01223
1863.07903	0.01223
1861.79326	0.01225
1860.50749	0.01221
1859.22172	0.01211
1857.93595	0.01198
1856.65019	0.01187
1855.36442	0.01178
1854.07865	0.01174
1852.79288	0.01177
1851.50711	0.01183
1850.22134	0.01190
1848.93557	0.01202
1847.64980	0.01223
1846.36404	0.01244
1845.07827	0.01256
1843.79250	0.01255
1842.50673	0.01246
1841.22096	0.01230
1839.93519	0.01211
1838.64942	0.01193
1837.36365	0.01177
1836.07788	0.01165
1834.79212	0.01164
1833.50635	0.01176
1832.22058	0.01197
1830.93481	0.01219
1829.64904	0.01238
1828.36327	0.01255
1827.07750	0.01277
1825.79173	0.01311
1824.50597	0.01360
1823.22020	0.01413
1821.93443	0.01453
1820.64866	0.01466
1819.36289	0.01441
1818.07712	0.01378
1816.79135	0.01290
1815.50558	0.01201
1814.21981	0.01135
1812.93405	0.01103
1811.64828	0.01101
1810.36251	0.01117
1809.07674	0.01139
1807.79097	0.01158
1806.50520	0.01168
1805.21943	0.01171
1803.93366	0.01165
1802.64790	0.01156
1801.36213	0.01150
1800.07636	0.01158
1798.79059	0.01182
1797.50482	0.01215
1796.21905	0.01242
1794.93328	0.01251
1793.64751	0.01243
1792.36174	0.01236
1791.07598	0.01242
1789.79021	0.01258
1788.50444	0.01275
1787.21867	0.01284
1785.93290	0.01287
1784.64713	0.01289
1783.36136	0.01293
1782.07559	0.01298
1780.78983	0.01301
1779.50406	0.01300
1778.21829	0.01293
1776.93252	0.01283
1775.64675	0.01271
1774.36098	0.01260
1773.07521	0.01255
1771.78944	0.01260
1770.50367	0.01264
1769.21791	0.01260
1767.93214	0.01257
1766.64637	0.01265
1765.36060	0.01283
1764.07483	0.01293
1762.78906	0.01290
1761.50329	0.01282
1760.21752	0.01276
1758.93176	0.01270
1757.64599	0.01265
1756.36022	0.01263
1755.07445	0.01266
1753.78868	0.01268
1752.50291	0.01270
1751.21714	0.01277
1749.93137	0.01289
1748.64560	0.01298
1747.35984	0.01297
1746.07407	0.01292
1744.78830	0.01290
1743.50253	0.01296
1742.21676	0.01308
1740.93099	0.01323
1739.64522	0.01341
1738.35945	0.01364
1737.07369	0.01379
1735.78792	0.01378
1734.50215	0.01371
1733.21638	0.01371
1731.93061	0.01377
1730.64484	0.01374
1729.35907	0.01361
1728.07330	0.01350
1726.78753	0.01347
1725.50177	0.01354
1724.21600	0.01374
1722.93023	0.01403
1721.64446	0.01436
1720.35869	0.01463
1719.07292	0.01480
1717.78715	0.01494
1716.50138	0.01509
1715.21561	0.01522
1713.92985	0.01526
1712.64408	0.01529
1711.35831	0.01536
1710.07254	0.01552
1708.78677	0.01577
1707.50100	0.01610
1706.21523	0.01652
1704.92946	0.01706
1703.64370	0.01758
1702.35793	0.01789
1701.07216	0.01801
1699.78639	0.01817
1698.50062	0.01841
1697.21485	0.01855
1695.92908	0.01859
1694.64331	0.01872
1693.35754	0.01893
1692.07178	0.01912
1690.78601	0.01935
1689.50024	0.01975
1688.21447	0.02025
1686.92870	0.02065
1685.64293	0.02085
1684.35716	0.02099
1683.07139	0.02121
1681.78563	0.02146
1680.49986	0.02170
1679.21409	0.02199
1677.92832	0.02231
1676.64255	0.02256
1675.35678	0.02279
1674.07101	0.02311
1672.78524	0.02353
1671.49947	0.02393
1670.21371	0.02425
1668.92794	0.02451
1667.64217	0.02476
1666.35640	0.02500
1665.07063	0.02523
1663.78486	0.02547
1662.49909	0.02572
1661.21332	0.02593
1659.92756	0.02610
1658.64179	0.02628
1657.35602	0.02660
1656.07025	0.02699
1654.78448	0.02728
1653.49871	0.02747
1652.21294	0.02764
1650.92717	0.02777
1649.64140	0.02774
1648.35564	0.02760
1647.06987	0.02756
1645.78410	0.02768
1644.49833	0.02785
1643.21256	0.02790
1641.92679	0.02785
1640.64102	0.02785
1639.35525	0.02796
1638.06949	0.02811
1636.78372	0.02820
1635.49795	0.02826
1634.21218	0.02831
1632.92641	0.02832
1631.64064	0.02827
1630.35487	0.02823
1629.06910	0.02826
1627.78333	0.02835
1626.49757	0.02844
1625.21180	0.02845
1623.92603	0.02838
1622.64026	0.02831
1621.35449	0.02829
1620.06872	0.02831
1618.78295	0.02831
1617.49718	0.02833
1616.21142	0.02844
1614.92565	0.02862
1613.63988	0.02877
1612.35411	0.02887
1611.06834	0.02898
1609.78257	0.02913
1608.49680	0.02926
1607.21103	0.02936
1605.92526	0.02944
1604.63950	0.02952
1603.35373	0.02961
1602.06796	0.02972
1600.78219	0.02985
1599.49642	0.02999
1598.21065	0.03015
1596.92488	0.03033
1595.63911	0.03050
1594.35335	0.03063
1593.06758	0.03073
1591.78181	0.03084
1590.49604	0.03099
1589.21027	0.03117
1587.92450	0.03134
1586.63873	0.03148
1585.35296	0.03158
1584.06719	0.03168
1582.78143	0.03181
1581.49566	0.03200
1580.20989	0.03225
1578.92412	0.03248
1577.63835	0.03259
1576.35258	0.03264
1575.06681	0.03277
1573.78104	0.03295
1572.49528	0.03306
1571.20951	0.03309
1569.92374	0.03315
1568.63797	0.03329
1567.35220	0.03345
1566.06643	0.03356
1564.78066	0.03372
1563.49489	0.03399
1562.20912	0.03433
1560.92336	0.03458
1559.63759	0.03475
1558.35182	0.03491
1557.06605	0.03500
1555.78028	0.03489
1554.49451	0.03465
1553.20874	0.03445
1551.92297	0.03434
1550.63721	0.03433
1549.35144	0.03442
1548.06567	0.03458
1546.77990	0.03472
1545.49413	0.03480
1544.20836	0.03488
1542.92259	0.03492
1541.63682	0.03488
1540.35105	0.03474
1539.06529	0.03461
1537.77952	0.03451
1536.49375	0.03437
1535.20798	0.03417
1533.92221	0.03404
1532.63644	0.03409
1531.35067	0.03426
1530.06490	0.03445
1528.77914	0.03464
1527.49337	0.03487
1526.20760	0.03519
1524.92183	0.03559
1523.63606	0.03602
1522.35029	0.03648
1521.06452	0.03701
1519.77875	0.03760
1518.49298	0.03817
1517.20722	0.03869
1515.92145	0.03926
1514.63568	0.03990
1513.34991	0.04057
1512.06414	0.04130
1510.77837	0.04213
1509.49260	0.04301
1508.20683	0.04384
1506.92107	0.04462
1505.63530	0.04541
1504.34953	0.04617
1503.06376	0.04682
1501.77799	0.04740
1500.49222	0.04802
1499.20645	0.04866
1497.92068	0.04925
1496.63491	0.04973
1495.34915	0.05018
1494.06338	0.05062
1492.77761	0.05104
1491.49184	0.05147
1490.20607	0.05196
1488.92030	0.05251
1487.63453	0.05308
1486.34876	0.05365
1485.06299	0.05425
1483.77723	0.05491
1482.49146	0.05563
1481.20569	0.05640
1479.91992	0.05715
1478.63415	0.05787
1477.34838	0.05856
1476.06261	0.05922
1474.77684	0.05985
1473.49108	0.06042
1472.20531	0.06096
1470.91954	0.06147
1469.63377	0.06190
1468.34800	0.06221
1467.06223	0.06243
1465.77646	0.06263
1464.49069	0.06288
1463.20492	0.06326
1461.91916	0.06378
1460.63339	0.06440
1459.34762	0.06499
1458.06185	0.06549
1456.77608	0.06595
1455.49031	0.06642
1454.20454	0.06676
1452.91877	0.06691
1451.63301	0.06697
1450.34724	0.06705
1449.06147	0.06715
1447.77570	0.06721
1446.48993	0.06718
1445.20416	0.06701
1443.91839	0.06672
1442.63262	0.06639
1441.34685	0.06611
1440.06109	0.06589
1438.77532	0.06572
1437.48955	0.06562
1436.20378	0.06567
1434.91801	0.06590
1433.63224	0.06625
1432.34647	0.06671
1431.06070	0.06731
1429.77494	0.06808
1428.48917	0.06895
1427.20340	0.06985
1425.91763	0.07076
1424.63186	0.07174
1423.34609	0.07281
1422.06032	0.07390
1420.77455	0.07487
1419.48878	0.07568
1418.20302	0.07638
1416.91725	0.07693
1415.63148	0.07727
1414.34571	0.07741
1413.05994	0.07742
1411.77417	0.07731
1410.48840	0.07705
1409.20263	0.07662
1407.91687	0.07599
1406.63110	0.07523
1405.34533	0.07437
1404.05956	0.07344
1402.77379	0.07239
1401.48802	0.07119
1400.20225	0.06984
1398.91648	0.06840
1397.63071	0.06691
1396.34495	0.06536
1395.05918	0.06379
1393.77341	0.06226
1392.48764	0.06081
1391.20187	0.05940
1389.91610	0.05800
1388.63033	0.05662
1387.34456	0.05525
1386.05880	0.05387
1384.77303	0.05247
1383.48726	0.05106
1382.20149	0.04969
1380.91572	0.04838
1379.62995	0.04709
1378.34418	0.04579
1377.05841	0.04446
1375.77264	0.04310
1374.48688	0.04175
1373.20111	0.04045
1371.91534	0.03918
1370.62957	0.03796
1369.34380	0.03679
1368.05803	0.03572
1366.77226	0.03475
1365.48649	0.03385
1364.20073	0.03298
1362.91496	0.03213
1361.62919	0.03132
1360.34342	0.03052
1359.05765	0.02974
1357.77188	0.02899
1356.48611	0.02829
1355.20034	0.02768
1353.91457	0.02714
1352.62881	0.02663
1351.34304	0.02613
1350.05727	0.02565
1348.77150	0.02519
1347.48573	0.02474
1346.19996	0.02430
1344.91419	0.02387
1343.62842	0.02347
1342.34266	0.02311
1341.05689	0.02281
1339.77112	0.02258
1338.48535	0.02241
1337.19958	0.02225
1335.91381	0.02206
1334.62804	0.02184
1333.34227	0.02160
1332.05650	0.02136
1330.77074	0.02110
1329.48497	0.02083
1328.19920	0.02057
1326.91343	0.02034
1325.62766	0.02016
1324.34189	0.02004
1323.05612	0.01994
1321.77035	0.01982
1320.48459	0.01965
1319.19882	0.01946
1317.91305	0.01928
1316.62728	0.01914
1315.34151	0.01900
1314.05574	0.01885
1312.76997	0.01868
1311.48420	0.01855
1310.19843	0.01847
1308.91267	0.01845
1307.62690	0.01847
1306.34113	0.01847
1305.05536	0.01841
1303.76959	0.01828
1302.48382	0.01812
1301.19805	0.01796
1299.91228	0.01781
1298.62652	0.01766
1297.34075	0.01748
1296.05498	0.01729
1294.76921	0.01711
1293.48344	0.01697
1292.19767	0.01687
1290.91190	0.01681
1289.62613	0.01679
1288.34036	0.01679
1287.05460	0.01676
1285.76883	0.01671
1284.48306	0.01664
1283.19729	0.01659
1281.91152	0.01654
1280.62575	0.01647
1279.33998	0.01638
1278.05421	0.01628
1276.76845	0.01618
1275.48268	0.01608
1274.19691	0.01597
1272.91114	0.01586
1271.62537	0.01577
1270.33960	0.01570
1269.05383	0.01564
1267.76806	0.01558
1266.48229	0.01553
1265.19653	0.01551
1263.91076	0.01550
1262.62499	0.01549
1261.33922	0.01547
1260.05345	0.01544
1258.76768	0.01540
1257.48191	0.01534
1256.19614	0.01529
1254.91037	0.01525
1253.62461	0.01523
1252.33884	0.01521
1251.05307	0.01517
1249.76730	0.01510
1248.48153	0.01501
1247.19576	0.01493
1245.90999	0.01485
1244.62422	0.01477
1243.33846	0.01470
1242.05269	0.01468
1240.76692	0.01469
1239.48115	0.01473
1238.19538	0.01476
1236.90961	0.01476
1235.62384	0.01472
1234.33807	0.01466
1233.05230	0.01461
1231.76654	0.01456
1230.48077	0.01451
1229.19500	0.01446
1227.90923	0.01439
1226.62346	0.01431
1225.33769	0.01421
1224.05192	0.01410
1222.76615	0.01401
1221.48039	0.01397
1220.19462	0.01396
1218.90885	0.01396
1217.62308	0.01394
1216.33731	0.01390
1215.05154	0.01387
1213.76577	0.01386
1212.48000	0.01387
1211.19423	0.01387
1209.90847	0.01388
1208.62270	0.01391
1207.33693	0.01400
1206.05116	0.01415
1204.76539	0.01435
1203.47962	0.01458
1202.19385	0.01476
1200.90808	0.01471
1199.62232	0.01436
1198.33655	0.01435
1197.05078	0.01432
1195.76501	0.01428
1194.47924	0.01425
1193.19347	0.01426
1191.90770	0.01430
1190.62193	0.01438
1189.33616	0.01447
1188.05040	0.01456
1186.76463	0.01466
1185.47886	0.01477
1184.19309	0.01490
1182.90732	0.01502
1181.62155	0.01513
1180.33578	0.01519
1179.05001	0.01524
1177.76425	0.01530
1176.47848	0.01539
1175.19271	0.01551
1173.90694	0.01565
1172.62117	0.01580
1171.33540	0.01598
1170.04963	0.01621
1168.76386	0.01645
1167.47809	0.01671
1166.19233	0.01695
1164.90656	0.01717
1163.62079	0.01739
1162.33502	0.01761
1161.04925	0.01787
1159.76348	0.01818
1158.47771	0.01850
1157.19194	0.01883
1155.90618	0.01918
1154.62041	0.01954
1153.33464	0.01994
1152.04887	0.02036
1150.76310	0.02080
1149.47733	0.02127
1148.19156	0.02175
1146.90579	0.02228
1145.62002	0.02285
1144.33426	0.02347
1143.04849	0.02412
1141.76272	0.02483
1140.47695	0.02565
1139.19118	0.02658
1137.90541	0.02759
1136.61964	0.02868
1135.33387	0.02992
1134.04811	0.03136
1132.76234	0.03297
1131.47657	0.03474
1130.19080	0.03663
1128.90503	0.03865
1127.61926	0.04080
1126.33349	0.04309
1125.04772	0.04554
1123.76195	0.04818
1122.47619	0.05100
1121.19042	0.05394
1119.90465	0.05692
1118.61888	0.05990
1117.33311	0.06287
1116.04734	0.06587
1114.76157	0.06890
1113.47580	0.07194
1112.19004	0.07491
1110.90427	0.07779
1109.61850	0.08058
1108.33273	0.08325
1107.04696	0.08582
1105.76119	0.08834
1104.47542	0.09087
1103.18965	0.09341
1101.90388	0.09591
1100.61812	0.09826
1099.33235	0.10044
1098.04658	0.10247
1096.76081	0.10441
1095.47504	0.10635
1094.18927	0.10828
1092.90350	0.11017
1091.61773	0.11196
1090.33197	0.11360
1089.04620	0.11514
1087.76043	0.11662
1086.47466	0.11814
1085.18889	0.11977
1083.90312	0.12155
1082.61735	0.12344
1081.33158	0.12543
1080.04581	0.12750
1078.76005	0.12965
1077.47428	0.13190
1076.18851	0.13425
1074.90274	0.13671
1073.61697	0.13924
1072.33120	0.14181
1071.04543	0.14445
1069.75966	0.14722
1068.47390	0.15015
1067.18813	0.15324
1065.90236	0.15641
1064.61659	0.15959
1063.33082	0.16272
1062.04505	0.16577
1060.75928	0.16876
1059.47351	0.17170
1058.18774	0.17461
1056.90198	0.17751
1055.61621	0.18044
1054.33044	0.18344
1053.04467	0.18648
1051.75890	0.18958
1050.47313	0.19275
1049.18736	0.19600
1047.90159	0.19928
1046.61583	0.20254
1045.33006	0.20578
1044.04429	0.20907
1042.75852	0.21243
1041.47275	0.21586
1040.18698	0.21934
1038.90121	0.22288
1037.61544	0.22648
1036.32967	0.23008
1035.04391	0.23353
1033.75814	0.23672
1032.47237	0.23961
1031.18660	0.24215
1029.90083	0.24434
1028.61506	0.24617
1027.32929	0.24767
1026.04352	0.24882
1024.75775	0.24959
1023.47199	0.24989
1022.18622	0.24972
1020.90045	0.24910
1019.61468	0.24802
1018.32891	0.24647
1017.04314	0.24445
1015.75737	0.24198
1014.47160	0.23911
1013.18584	0.23580
1011.90007	0.23198
1010.61430	0.22759
1009.32853	0.22272
1008.04276	0.21748
1006.75699	0.21196
1005.47122	0.20618
1004.18545	0.20017
1002.89968	0.19388
1001.61392	0.18731
1000.32815	0.18050
999.04238	0.17353
997.75661	0.16651
996.47084	0.15952
995.18507	0.15266
993.89930	0.14602
992.61353	0.13963
991.32777	0.13349
990.04200	0.12759
988.75623	0.12192
987.47046	0.11650
986.18469	0.11133
984.89892	0.10644
983.61315	0.10192
982.32738	0.09781
981.04161	0.09408
979.75585	0.09065
978.47008	0.08747
977.18431	0.08456
975.89854	0.08199
974.61277	0.07981
973.32700	0.07806
972.04123	0.07674
970.75546	0.07590
969.46970	0.07551
968.18393	0.07549
966.89816	0.07577
965.61239	0.07628
964.32662	0.07695
963.04085	0.07765
961.75508	0.07817
960.46931	0.07825
959.18354	0.07775
957.89778	0.07665
956.61201	0.07507
955.32624	0.07317
954.04047	0.07105
952.75470	0.06886
951.46893	0.06672
950.18316	0.06472
948.89739	0.06287
947.61163	0.06107
946.32586	0.05931
945.04009	0.05762
943.75432	0.05605
942.46855	0.05459
941.18278	0.05318
939.89701	0.05182
938.61124	0.05053
937.32547	0.04936
936.03971	0.04830
934.75394	0.04734
933.46817	0.04647
932.18240	0.04565
930.89663	0.04483
929.61086	0.04401
928.32509	0.04324
927.03932	0.04259
925.75356	0.04201
924.46779	0.04145
923.18202	0.04088
921.89625	0.04033
920.61048	0.03985
919.32471	0.03945
918.03894	0.03906
916.75317	0.03863
915.46740	0.03813
914.18164	0.03762
912.89587	0.03720
911.61010	0.03693
910.32433	0.03673
909.03856	0.03650
907.75279	0.03621
906.46702	0.03587
905.18125	0.03555
903.89549	0.03529
902.60972	0.03510
901.32395	0.03490
900.03818	0.03463
898.75241	0.03432
897.46664	0.03405
896.18087	0.03391
894.89510	0.03392
893.60933	0.03401
892.32357	0.03409
891.03780	0.03414
889.75203	0.03418
888.46626	0.03431
887.18049	0.03465
885.89472	0.03537
884.60895	0.03663
883.32318	0.03850
882.03742	0.04081
880.75165	0.04315
879.46588	0.04504
878.18011	0.04631
876.89434	0.04716
875.60857	0.04795
874.32280	0.04877
873.03703	0.04942
871.75126	0.04962
870.46550	0.04924
869.17973	0.04839
867.89396	0.04720
866.60819	0.04580
865.32242	0.04421
864.03665	0.04250
862.75088	0.04078
861.46511	0.03924
860.17935	0.03796
858.89358	0.03693
857.60781	0.03604
856.32204	0.03522
855.03627	0.03443
853.75050	0.03367
852.46473	0.03297
851.17896	0.03239
849.89319	0.03194
848.60743	0.03161
847.32166	0.03135
846.03589	0.03114
844.75012	0.03094
843.46435	0.03078
842.17858	0.03065
840.89281	0.03054
839.60704	0.03043
838.32128	0.03026
837.03551	0.03001
835.74974	0.02970
834.46397	0.02940
833.17820	0.02918
831.89243	0.02906
830.60666	0.02901
829.32089	0.02897
828.03512	0.02890
826.74936	0.02882
825.46359	0.02875
824.17782	0.02873
822.89205	0.02873
821.60628	0.02874
820.32051	0.02871
819.03474	0.02861
817.74897	0.02843
816.46321	0.02827
815.17744	0.02823
813.89167	0.02833
812.60590	0.02848
811.32013	0.02857
810.03436	0.02853
808.74859	0.02836
807.46282	0.02813
806.17705	0.02795
804.89129	0.02789
803.60552	0.02796
802.31975	0.02808
801.03398	0.02816
799.74821	0.02820
798.46244	0.02822
797.17667	0.02827
795.89090	0.02834
794.60513	0.02843
793.31937	0.02855
792.03360	0.02867
790.74783	0.02878
789.46206	0.02886
788.17629	0.02891
786.89052	0.02889
785.60475	0.02880
784.31898	0.02864
783.03322	0.02842
781.74745	0.02822
780.46168	0.02810
779.17591	0.02810
777.89014	0.02819
776.60437	0.02831
775.31860	0.02842
774.03283	0.02850
772.74706	0.02854
771.46130	0.02856
770.17553	0.02855
768.88976	0.02854
767.60399	0.02858
766.31822	0.02875
765.03245	0.02902
763.74668	0.02929
762.46091	0.02948
761.17515	0.02960
759.88938	0.02969
758.60361	0.02974
757.31784	0.02972
756.03207	0.02965
754.74630	0.02959
753.46053	0.02957
752.17476	0.02960
750.88899	0.02964
749.60323	0.02966
748.31746	0.02964
747.03169	0.02958
745.74592	0.02949
744.46015	0.02936
743.17438	0.02922
741.88861	0.02906
740.60284	0.02889
739.31708	0.02874
738.03131	0.02869
736.74554	0.02880
735.45977	0.02900
734.17400	0.02913
732.88823	0.02907
731.60246	0.02888
730.31669	0.02871
729.03092	0.02870
727.74516	0.02884
726.45939	0.02902
725.17362	0.02910
723.88785	0.02885
722.60208	0.02904
721.31631	0.02945
720.03054	0.02980
718.74477	0.03000
717.45901	0.03003
716.17324	0.02995
714.88747	0.02980
713.60170	0.02961
712.31593	0.02940
711.03016	0.02920
709.74439	0.02903
708.45862	0.02891
707.17285	0.02881
705.88709	0.02869
704.60132	0.02855
703.31555	0.02842
702.02978	0.02835
700.74401	0.02835
699.45824	0.02841
698.17247	0.02852
696.88670	0.02866
695.60094	0.02881
694.31517	0.02891
693.02940	0.02895
691.74363	0.02893
690.45786	0.02892
689.17209	0.02892
687.88632	0.02889
686.60055	0.02876
685.31478	0.02851
684.02902	0.02820
682.74325	0.02793
681.45748	0.02773
680.17171	0.02757
678.88594	0.02744
677.60017	0.02735
676.31440	0.02732
675.02863	0.02735
673.74287	0.02743
672.45710	0.02756
671.17133	0.02774
669.88556	0.02797
668.59979	0.02812
667.31402	0.02820
666.02825	0.02827
664.74248	0.02818
663.45671	0.02803
662.17095	0.02791
660.88518	0.02785
659.59941	0.02784
658.31364	0.02788
657.02787	0.02800
655.74210	0.02815
654.45633	0.02832
653.17056	0.02844
651.88480	0.02853
650.59903	0.02861
649.31326	0.02872
648.02749	0.02885
646.74172	0.02895
645.45595	0.02900
644.17018	0.02898
642.88441	0.02895
641.59864	0.02897
640.31288	0.02903
639.02711	0.02914
637.74134	0.02927
636.45557	0.02945
635.16980	0.02974
633.88403	0.03009
632.59826	0.03038
631.31249	0.03093
630.02673	0.03333
628.74096	0.03691
627.45519	0.03559
626.16942	0.04033
624.88365	0.04940
623.59788	0.05821
622.31211	0.06427
621.02634	0.06658
619.74057	0.06600
618.45481	0.06456
617.16904	0.06343
615.88327	0.06267
614.59750	0.06251
613.31173	0.06414
612.02596	0.06859
610.74019	0.07527
609.45442	0.08221
608.16866	0.08796
606.88289	0.09246
605.59712	0.09605
604.31135	0.09875
603.02558	0.10024
601.73981	0.10020
600.45404	0.09853
599.16827	0.09552
597.88250	0.09178
596.59674	0.08798
595.31097	0.08462
594.02520	0.08193
592.73943	0.07998
591.45366	0.07870
590.16789	0.07800
588.88212	0.07780
587.59635	0.07810
586.31059	0.07896
585.02482	0.08033
583.73905	0.08209
582.45328	0.08417
581.16751	0.08656
579.88174	0.08924
578.59597	0.09207
577.31020	0.09479
576.02443	0.09725
574.73867	0.09951
573.45290	0.10176
572.16713	0.10416
570.88136	0.10682
569.59559	0.10984
568.30982	0.11326
567.02405	0.11689
565.73828	0.12037
564.45251	0.12322
563.16675	0.12497
561.88098	0.12524
560.59521	0.12379
559.30944	0.12063
558.02367	0.11602
556.73790	0.11040
555.45213	0.10427
554.16636	0.09804
552.88060	0.09200
551.59483	0.08625
550.30906	0.08088
549.02329	0.07595
547.73752	0.07157
546.45175	0.06782
545.16598	0.06463
543.88021	0.06184
542.59444	0.05936
541.30868	0.05714
540.02291	0.05521
538.73714	0.05349
537.45137	0.05187
536.16560	0.05027
534.87983	0.04870
533.59406	0.04723
532.30829	0.04587
531.02253	0.04463
529.73676	0.04350
528.45099	0.04244
527.16522	0.04149
525.87945	0.04065
524.59368	0.03993
523.30791	0.03922
522.02214	0.03843
520.73637	0.03756
519.45061	0.03667
518.16484	0.03581
516.87907	0.03501
515.59330	0.03425
514.30753	0.03351
513.02176	0.03279
511.73599	0.03212
510.45022	0.03154
509.16446	0.03108
507.87869	0.03067
506.59292	0.03022
505.30715	0.02966
504.02138	0.02907
502.73561	0.02855
501.44984	0.02816
500.16407	0.02786
498.87830	0.02763
497.59254	0.02749
496.30677	0.02742
495.02100	0.02736
493.73523	0.02727
492.44946	0.02715
491.16369	0.02708
489.87792	0.02710
488.59215	0.02719
487.30639	0.02728
486.02062	0.02728
484.73485	0.02717
483.44908	0.02705
482.16331	0.02702
480.87754	0.02707
479.59177	0.02714
478.30600	0.02721
477.02023	0.02736
475.73447	0.02765
474.44870	0.02805
473.16293	0.02844
471.87716	0.02876
470.59139	0.02897
469.30562	0.02905
468.01985	0.02901
466.73408	0.02888
465.44832	0.02870
464.16255	0.02848
462.87678	0.02823
461.59101	0.02794
460.30524	0.02760
459.01947	0.02722
457.73370	0.02686
456.44793	0.02653
455.16216	0.02620
453.87640	0.02584
452.59063	0.02545
451.30486	0.02509
450.01909	0.02485
448.73332	0.02478
447.44755	0.02482
446.16178	0.02488
444.87601	0.02484
443.59025	0.02470
442.30448	0.02454
441.01871	0.02442
439.73294	0.02435
438.44717	0.02435
437.16140	0.02441
435.87563	0.02452
434.58986	0.02461
433.30409	0.02464
432.01833	0.02464
430.73256	0.02466
429.44679	0.02476
428.16102	0.02490
426.87525	0.02502
425.58948	0.02508
424.30371	0.02506
423.01794	0.02501
421.73218	0.02495
420.44641	0.02485
419.16064	0.02473
417.87487	0.02461
416.58910	0.02452
415.30333	0.02443
414.01756	0.02434
412.73179	0.02424
411.44602	0.02415
410.16026	0.02411
408.87449	0.02414
407.58872	0.02425
406.30295	0.02439
405.01718	0.02450
403.73141	0.02456
402.44564	0.02458
401.15987	0.02461
399.87411	0.02466
