3997.45528	0.07955
3996.16951	0.08037
3994.88374	0.08083
3993.59798	0.08063
3992.31221	0.07989
3991.02644	0.07914
3989.74067	0.07875
3988.45490	0.07867
3987.16913	0.07854
3985.88336	0.07816
3984.59759	0.07770
3983.31183	0.07751
3982.02606	0.07772
3980.74029	0.07828
3979.45452	0.07895
3978.16875	0.07949
3976.88298	0.07972
3975.59721	0.07971
3974.31144	0.07976
3973.02567	0.08006
3971.73991	0.08048
3970.45414	0.08077
3969.16837	0.08088
3967.88260	0.08087
3966.59683	0.08067
3965.31106	0.08014
3964.02529	0.07928
3962.73952	0.07844
3961.45376	0.07808
3960.16799	0.07833
3958.88222	0.07881
3957.59645	0.07893
3956.31068	0.07843
3955.02491	0.07761
3953.73914	0.07695
3952.45337	0.07676
3951.16760	0.07698
3949.88184	0.07737
3948.59607	0.07768
3947.31030	0.07789
3946.02453	0.07816
3944.73876	0.07861
3943.45299	0.07910
3942.16722	0.07924
3940.88145	0.07873
3939.59569	0.07774
3938.30992	0.07673
3937.02415	0.07611
3935.73838	0.07595
3934.45261	0.07600
3933.16684	0.07597
3931.88107	0.07584
3930.59530	0.07584
3929.30953	0.07621
3928.02377	0.07691
3926.73800	0.07755
3925.45223	0.07768
3924.16646	0.07720
3922.88069	0.07648
3921.59492	0.07606
3920.30915	0.07614
3919.02338	0.07637
3917.73762	0.07625
3916.45185	0.07575
3915.16608	0.07532
3913.88031	0.07535
3912.59454	0.07565
3911.30877	0.07577
3910.02300	0.07558
3908.73723	0.07535
3907.45146	0.07533
3906.16570	0.07556
3904.87993	0.07589
3903.59416	0.07617
3902.30839	0.07634
3901.02262	0.07640
3899.73685	0.07632
3898.45108	0.07607
3897.16531	0.07566
3895.87955	0.07518
3894.59378	0.07477
3893.30801	0.07458
3892.02224	0.07468
3890.73647	0.07503
3889.45070	0.07560
3888.16493	0.07640
3886.87916	0.07713
3885.59339	0.07729
3884.30763	0.07671
3883.02186	0.07572
3881.73609	0.07475
3880.45032	0.07394
3879.16455	0.07335
3877.87878	0.07305
3876.59301	0.07302
3875.30724	0.07302
3874.02148	0.07290
3872.73571	0.07283
3871.44994	0.07312
3870.16417	0.07380
3868.87840	0.07462
3867.59263	0.07531
3866.30686	0.07562
3865.02109	0.07535
3863.73532	0.07460
3862.44956	0.07385
3861.16379	0.07341
3859.87802	0.07328
3858.59225	0.07330
3857.30648	0.07355
3856.02071	0.07412
3854.73494	0.07479
3853.44917	0.07510
3852.16341	0.07496
3850.87764	0.07472
3849.59187	0.07456
3848.30610	0.07439
3847.02033	0.07419
3845.73456	0.07413
3844.44879	0.07428
3843.16302	0.07440
3841.87725	0.07424
3840.59149	0.07382
3839.30572	0.07342
3838.01995	0.07325
3836.73418	0.07327
3835.44841	0.07340
3834.16264	0.07357
3832.87687	0.07376
3831.59110	0.07401
3830.30534	0.07439
3829.01957	0.07474
3827.73380	0.07471
3826.44803	0.07406
3825.16226	0.07302
3823.87649	0.07204
3822.59072	0.07129
3821.30495	0.07054
3820.01918	0.06984
3818.73342	0.06970
3817.44765	0.07038
3816.16188	0.07135
3814.87611	0.07198
3813.59034	0.07228
3812.30457	0.07257
3811.01880	0.07291
3809.73303	0.07327
3808.44726	0.07363
3807.16150	0.07383
3805.87573	0.07358
3804.58996	0.07298
3803.30419	0.07246
3802.01842	0.07221
3800.73265	0.07202
3799.44688	0.07175
3798.16111	0.07155
3796.87535	0.07148
3795.58958	0.07134
3794.30381	0.07087
3793.01804	0.07004
3791.73227	0.06917
3790.44650	0.06882
3789.16073	0.06925
3787.87496	0.07011
3786.58919	0.07075
3785.30343	0.07077
3784.01766	0.07027
3782.73189	0.06965
3781.44612	0.06928
3780.16035	0.06936
3778.87458	0.06988
3777.58881	0.07057
3776.30304	0.07092
3775.01728	0.07048
3773.73151	0.06932
3772.44574	0.06810
3771.15997	0.06763
3769.87420	0.06812
3768.58843	0.06920
3767.30266	0.07032
3766.01689	0.07106
3764.73112	0.07124
3763.44536	0.07091
3762.15959	0.07019
3760.87382	0.06926
3759.58805	0.06839
3758.30228	0.06791
3757.01651	0.06793
3755.73074	0.06830
3754.44497	0.06883
3753.15921	0.06935
3751.87344	0.06971
3750.58767	0.06979
3749.30190	0.06955
3748.01613	0.06915
3746.73036	0.06898
3745.44459	0.06911
3744.15882	0.06912
3742.87305	0.06876
3741.58729	0.06829
3740.30152	0.06795
3739.01575	0.06779
3737.72998	0.06782
3736.44421	0.06792
3735.15844	0.06791
3733.87267	0.06784
3732.58690	0.06793
3731.30114	0.06827
3730.01537	0.06870
3728.72960	0.06897
3727.44383	0.06895
3726.15806	0.06885
3724.87229	0.06895
3723.58652	0.06910
3722.30075	0.06876
3721.01498	0.06770
3719.72922	0.06634
3718.44345	0.06530
3717.15768	0.06483
3715.87191	0.06492
3714.58614	0.06546
3713.30037	0.06624
3712.01460	0.06683
3710.72883	0.06688
3709.44307	0.06647
3708.15730	0.06608
3706.87153	0.06612
3705.58576	0.06662
3704.29999	0.06711
3703.01422	0.06714
3701.72845	0.06669
3700.44268	0.06617
3699.15691	0.06597
3697.87115	0.06606
3696.58538	0.06621
3695.29961	0.06627
3694.01384	0.06632
3692.72807	0.06644
3691.44230	0.06654
3690.15653	0.06650
3688.87076	0.06624
3687.58500	0.06582
3686.29923	0.06556
3685.01346	0.06570
3683.72769	0.06602
3682.44192	0.06605
3681.15615	0.06564
3679.87038	0.06505
3678.58461	0.06468
3677.29884	0.06474
3676.01308	0.06503
3674.72731	0.06526
3673.44154	0.06547
3672.15577	0.06577
3670.87000	0.06593
3669.58423	0.06573
3668.29846	0.06546
3667.01269	0.06566
3665.72693	0.06634
3664.44116	0.06692
3663.15539	0.06679
3661.86962	0.06592
3660.58385	0.06484
3659.29808	0.06423
3658.01231	0.06430
3656.72654	0.06474
3655.44077	0.06527
3654.15501	0.06596
3652.86924	0.06692
3651.58347	0.06780
3650.29770	0.06802
3649.01193	0.06742
3647.72616	0.06642
3646.44039	0.06561
3645.15462	0.06535
3643.86886	0.06561
3642.58309	0.06608
3641.29732	0.06641
3640.01155	0.06641
3638.72578	0.06612
3637.44001	0.06578
3636.15424	0.06561
3634.86847	0.06570
3633.58270	0.06596
3632.29694	0.06625
3631.01117	0.06653
3629.72540	0.06683
3628.43963	0.06719
3627.15386	0.06774
3625.86809	0.06853
3624.58232	0.06930
3623.29655	0.06967
3622.01079	0.06958
3620.72502	0.06935
3619.43925	0.06936
3618.15348	0.06984
3616.86771	0.07055
3615.58194	0.07094
3614.29617	0.07056
3613.01040	0.06956
3611.72463	0.06863
3610.43887	0.06829
3609.15310	0.06842
3607.86733	0.06857
3606.58156	0.06858
3605.29579	0.06867
3604.01002	0.06907
3602.72425	0.06973
3601.43848	0.07036
3600.15272	0.07078
3598.86695	0.07101
3597.58118	0.07121
3596.29541	0.07162
3595.00964	0.07241
3593.72387	0.07350
3592.43810	0.07454
3591.15233	0.07511
3589.86656	0.07499
3588.58080	0.07425
3587.29503	0.07322
3586.00926	0.07231
3584.72349	0.07187
3583.43772	0.07203
3582.15195	0.07268
3580.86618	0.07351
3579.58041	0.07428
3578.29464	0.07484
3577.00888	0.07509
3575.72311	0.07506
3574.43734	0.07490
3573.15157	0.07485
3571.86580	0.07507
3570.58003	0.07561
3569.29426	0.07630
3568.00849	0.07687
3566.72273	0.07705
3565.43696	0.07686
3564.15119	0.07650
3562.86542	0.07618
3561.57965	0.07602
3560.29388	0.07605
3559.00811	0.07627
3557.72234	0.07658
3556.43657	0.07680
3555.15081	0.07680
3553.86504	0.07667
3552.57927	0.07664
3551.29350	0.07694
3550.00773	0.07761
3548.72196	0.07856
3547.43619	0.07953
3546.15042	0.08019
3544.86466	0.08035
3543.57889	0.08005
3542.29312	0.07953
3541.00735	0.07903
3539.72158	0.07871
3538.43581	0.07863
3537.15004	0.07874
3535.86427	0.07890
3534.57850	0.07896
3533.29274	0.07890
3532.00697	0.07884
3530.72120	0.07899
3529.43543	0.07941
3528.14966	0.07997
3526.86389	0.08047
3525.57812	0.08083
3524.29235	0.08111
3523.00659	0.08139
3521.72082	0.08170
3520.43505	0.08204
3519.14928	0.08241
3517.86351	0.08275
3516.57774	0.08294
3515.29197	0.08299
3514.00620	0.08300
3512.72043	0.08303
3511.43467	0.08302
3510.14890	0.08295
3508.86313	0.08286
3507.57736	0.08288
3506.29159	0.08312
3505.00582	0.08356
3503.72005	0.08411
3502.43428	0.08465
3501.14852	0.08511
3499.86275	0.08531
3498.57698	0.08515
3497.29121	0.08478
3496.00544	0.08454
3494.71967	0.08462
3493.43390	0.08486
3492.14813	0.08501
3490.86236	0.08501
3489.57660	0.08504
3488.29083	0.08524
3487.00506	0.08563
3485.71929	0.08613
3484.43352	0.08661
3483.14775	0.08689
3481.86198	0.08684
3480.57621	0.08662
3479.29045	0.08656
3478.00468	0.08688
3476.71891	0.08750
3475.43314	0.08809
3474.14737	0.08838
3472.86160	0.08827
3471.57583	0.08790
3470.29006	0.08755
3469.00429	0.08751
3467.71853	0.08780
3466.43276	0.08812
3465.14699	0.08810
3463.86122	0.08762
3462.57545	0.08693
3461.28968	0.08643
3460.00391	0.08640
3458.71814	0.08689
3457.43238	0.08767
3456.14661	0.08838
3454.86084	0.08876
3453.57507	0.08888
3452.28930	0.08905
3451.00353	0.08943
3449.71776	0.08990
3448.43199	0.09024
3447.14622	0.09032
3445.86046	0.09017
3444.57469	0.08988
3443.28892	0.08955
3442.00315	0.08932
3440.71738	0.08938
3439.43161	0.08971
3438.14584	0.09014
3436.86007	0.09047
3435.57431	0.09071
3434.28854	0.09095
3433.00277	0.09126
3431.71700	0.09151
3430.43123	0.09165
3429.14546	0.09177
3427.85969	0.09195
3426.57392	0.09212
3425.28815	0.09211
3424.00239	0.09204
3422.71662	0.09215
3421.43085	0.09255
3420.14508	0.09301
3418.85931	0.09330
3417.57354	0.09352
3416.28777	0.09394
3415.00200	0.09470
3413.71624	0.09549
3412.43047	0.09582
3411.14470	0.09548
3409.85893	0.09479
3408.57316	0.09432
3407.28739	0.09428
3406.00162	0.09444
3404.71585	0.09451
3403.43008	0.09444
3402.14432	0.09436
3400.85855	0.09438
3399.57278	0.09449
3398.28701	0.09468
3397.00124	0.09497
3395.71547	0.09533
3394.42970	0.09563
3393.14393	0.09582
3391.85817	0.09602
3390.57240	0.09640
3389.28663	0.09692
3388.00086	0.09732
3386.71509	0.09738
3385.42932	0.09713
3384.14355	0.09682
3382.85778	0.09671
3381.57201	0.09685
3380.28625	0.09707
3379.00048	0.09718
3377.71471	0.09714
3376.42894	0.09713
3375.14317	0.09725
3373.85740	0.09744
3372.57163	0.09754
3371.28586	0.09751
3370.00010	0.09742
3368.71433	0.09738
3367.42856	0.09740
3366.14279	0.09748
3364.85702	0.09769
3363.57125	0.09812
3362.28548	0.09876
3360.99971	0.09936
3359.71394	0.09955
3358.42818	0.09921
3357.14241	0.09860
3355.85664	0.09816
3354.57087	0.09814
3353.28510	0.09840
3351.99933	0.09865
3350.71356	0.09881
3349.42779	0.09898
3348.14202	0.09923
3346.85626	0.09953
3345.57049	0.09984
3344.28472	0.10012
3342.99895	0.10038
3341.71318	0.10061
3340.42741	0.10085
3339.14164	0.10109
3337.85587	0.10119
3336.57011	0.10103
3335.28434	0.10065
3333.99857	0.10028
3332.71280	0.10020
3331.42703	0.10054
3330.14126	0.10124
3328.85549	0.10201
3327.56972	0.10250
3326.28395	0.10249
3324.99819	0.10211
3323.71242	0.10167
3322.42665	0.10134
3321.14088	0.10104
3319.85511	0.10069
3318.56934	0.10043
3317.28357	0.10056
3315.99780	0.10117
3314.71204	0.10199
3313.42627	0.10256
3312.14050	0.10262
3310.85473	0.10228
3309.56896	0.10190
3308.28319	0.10179
3306.99742	0.10198
3305.71165	0.10228
3304.42588	0.10247
3303.14012	0.10249
3301.85435	0.10247
3300.56858	0.10252
3299.28281	0.10256
3297.99704	0.10249
3296.71127	0.10239
3295.42550	0.10255
3294.13973	0.10312
3292.85397	0.10385
3291.56820	0.10426
3290.28243	0.10409
3288.99666	0.10360
3287.71089	0.10323
3286.42512	0.10322
3285.13935	0.10344
3283.85358	0.10364
3282.56781	0.10367
3281.28205	0.10354
3279.99628	0.10330
3278.71051	0.10298
3277.42474	0.10264
3276.13897	0.10242
3274.85320	0.10238
3273.56743	0.10240
3272.28166	0.10225
3270.99590	0.10182
3269.71013	0.10130
3268.42436	0.10093
3267.13859	0.10071
3265.85282	0.10044
3264.56705	0.10005
3263.28128	0.09970
3261.99551	0.09958
3260.70974	0.09966
3259.42398	0.09979
3258.13821	0.10001
3256.85244	0.10040
3255.56667	0.10082
3254.28090	0.10093
3252.99513	0.10053
3251.70936	0.09981
3250.42359	0.09922
3249.13783	0.09901
3247.85206	0.09905
3246.56629	0.09906
3245.28052	0.09888
3243.99475	0.09864
3242.70898	0.09846
3241.42321	0.09836
3240.13744	0.09823
3238.85167	0.09804
3237.56591	0.09790
3236.28014	0.09798
3234.99437	0.09825
3233.70860	0.09843
3232.42283	0.09817
3231.13706	0.09739
3229.85129	0.09642
3228.56552	0.09577
3227.27976	0.09571
3225.99399	0.09617
3224.70822	0.09684
3223.42245	0.09734
3222.13668	0.09738
3220.85091	0.09696
3219.56514	0.09643
3218.27937	0.09616
3216.99360	0.09620
3215.70784	0.09621
3214.42207	0.09588
3213.13630	0.09530
3211.85053	0.09484
3210.56476	0.09477
3209.27899	0.09502
3207.99322	0.09527
3206.70745	0.09515
3205.42169	0.09461
3204.13592	0.09397
3202.85015	0.09369
3201.56438	0.09388
3200.27861	0.09419
3198.99284	0.09416
3197.70707	0.09368
3196.42130	0.09304
3195.13553	0.09258
3193.84977	0.09240
3192.56400	0.09236
3191.27823	0.09229
3189.99246	0.09215
3188.70669	0.09194
3187.42092	0.09171
3186.13515	0.09155
3184.84938	0.09157
3183.56362	0.09177
3182.27785	0.09201
3180.99208	0.09211
3179.70631	0.09199
3178.42054	0.09168
3177.13477	0.09139
3175.84900	0.09126
3174.56323	0.09121
3173.27746	0.09093
3171.99170	0.09018
3170.70593	0.08910
3169.42016	0.08812
3168.13439	0.08768
3166.84862	0.08786
3165.56285	0.08834
3164.27708	0.08871
3162.99131	0.08881
3161.70555	0.08871
3160.41978	0.08852
3159.13401	0.08824
3157.84824	0.08786
3156.56247	0.08747
3155.27670	0.08725
3153.99093	0.08726
3152.70516	0.08741
3151.41939	0.08754
3150.13363	0.08753
3148.84786	0.08737
3147.56209	0.08707
3146.27632	0.08663
3144.99055	0.08614
3143.70478	0.08578
3142.41901	0.08558
3141.13324	0.08539
3139.84748	0.08509
3138.56171	0.08484
3137.27594	0.08487
3135.99017	0.08518
3134.70440	0.08550
3133.41863	0.08553
3132.13286	0.08518
3130.84709	0.08455
3129.56132	0.08383
3128.27556	0.08321
3126.98979	0.08281
3125.70402	0.08268
3124.41825	0.08279
3123.13248	0.08299
3121.84671	0.08310
3120.56094	0.08296
3119.27517	0.08260
3117.98940	0.08220
3116.70364	0.08190
3115.41787	0.08170
3114.13210	0.08161
3112.84633	0.08166
3111.56056	0.08190
3110.27479	0.08226
3108.98902	0.08262
3107.70325	0.08291
3106.41749	0.08311
3105.13172	0.08323
3103.84595	0.08327
3102.56018	0.08322
3101.27441	0.08303
3099.98864	0.08269
3098.70287	0.08229
3097.41710	0.08193
3096.13133	0.08171
3094.84557	0.08165
3093.55980	0.08176
3092.27403	0.08198
3090.98826	0.08219
3089.70249	0.08226
3088.41672	0.08219
3087.13095	0.08218
3085.84518	0.08237
3084.55942	0.08264
3083.27365	0.08268
3081.98788	0.08240
3080.70211	0.08200
3079.41634	0.08180
3078.13057	0.08186
3076.84480	0.08194
3075.55903	0.08179
3074.27326	0.08139
3072.98750	0.08099
3071.70173	0.08088
3070.41596	0.08112
3069.13019	0.08151
3067.84442	0.08179
3066.55865	0.08179
3065.27288	0.08154
3063.98711	0.08117
3062.70135	0.08082
3061.41558	0.08057
3060.12981	0.08044
3058.84404	0.08042
3057.55827	0.08048
3056.27250	0.08055
3054.98673	0.08055
3053.70096	0.08045
3052.41519	0.08026
3051.12943	0.08004
3049.84366	0.07984
3048.55789	0.07971
3047.27212	0.07961
3045.98635	0.07950
3044.70058	0.07935
3043.41481	0.07915
3042.12904	0.07890
3040.84328	0.07862
3039.55751	0.07830
3038.27174	0.07797
3036.98597	0.07766
3035.70020	0.07739
3034.41443	0.07714
3033.12866	0.07689
3031.84289	0.07666
3030.55712	0.07643
3029.27136	0.07622
3027.98559	0.07607
3026.69982	0.07603
3025.41405	0.07607
3024.12828	0.07613
3022.84251	0.07614
3021.55674	0.07605
3020.27097	0.07587
3018.98521	0.07567
3017.69944	0.07556
3016.41367	0.07556
3015.12790	0.07557
3013.84213	0.07551
3012.55636	0.07538
3011.27059	0.07519
3009.98482	0.07492
3008.69905	0.07451
3007.41329	0.07401
3006.12752	0.07351
3004.84175	0.07317
3003.55598	0.07310
3002.27021	0.07329
3000.98444	0.07360
2999.69867	0.07387
2998.41290	0.07404
2997.12714	0.07422
2995.84137	0.07447
2994.55560	0.07476
2993.26983	0.07500
2991.98406	0.07516
2990.69829	0.07529
2989.41252	0.07545
2988.12675	0.07561
2986.84098	0.07574
2985.55522	0.07588
2984.26945	0.07608
2982.98368	0.07631
2981.69791	0.07648
2980.41214	0.07660
2979.12637	0.07682
2977.84060	0.07731
2976.55483	0.07810
2975.26907	0.07905
2973.98330	0.08001
2972.69753	0.08087
2971.41176	0.08169
2970.12599	0.08256
2968.84022	0.08338
2967.55445	0.08401
2966.26868	0.08450
2964.98291	0.08504
2963.69715	0.08576
2962.41138	0.08658
2961.12561	0.08741
2959.83984	0.08824
2958.55407	0.08912
2957.26830	0.09001
2955.98253	0.09080
2954.69676	0.09141
2953.41100	0.09185
2952.12523	0.09214
2950.83946	0.09226
2949.55369	0.09220
2948.26792	0.09201
2946.98215	0.09178
2945.69638	0.09155
2944.41061	0.09136
2943.12484	0.09124
2941.83908	0.09125
2940.55331	0.09145
2939.26754	0.09187
2937.98177	0.09250
2936.69600	0.09326
2935.41023	0.09399
2934.12446	0.09464
2932.83869	0.09529
2931.55293	0.09613
2930.26716	0.09721
2928.98139	0.09831
2927.69562	0.09917
2926.40985	0.09966
2925.12408	0.09986
2923.83831	0.09984
2922.55254	0.09963
2921.26677	0.09931
2919.98101	0.09894
2918.69524	0.09850
2917.40947	0.09790
2916.12370	0.09711
2914.83793	0.09625
2913.55216	0.09539
2912.26639	0.09452
2910.98062	0.09364
2909.69486	0.09278
2908.40909	0.09204
2907.12332	0.09145
2905.83755	0.09099
2904.55178	0.09059
2903.26601	0.09018
2901.98024	0.08970
2900.69447	0.08916
2899.40870	0.08858
2898.12294	0.08797
2896.83717	0.08732
2895.55140	0.08663
2894.26563	0.08599
2892.97986	0.08546
2891.69409	0.08500
2890.40832	0.08456
2889.12255	0.08415
2887.83678	0.08386
2886.55102	0.08369
2885.26525	0.08356
2883.97948	0.08339
2882.69371	0.08318
2881.40794	0.08292
2880.12217	0.08269
2878.83640	0.08259
2877.55063	0.08267
2876.26487	0.08294
2874.97910	0.08337
2873.69333	0.08392
2872.40756	0.08449
2871.12179	0.08494
2869.83602	0.08519
2868.55025	0.08525
2867.26448	0.08514
2865.97871	0.08492
2864.69295	0.08465
2863.40718	0.08440
2862.12141	0.08418
2860.83564	0.08398
2859.54987	0.08378
2858.26410	0.08357
2856.97833	0.08333
2855.69256	0.08311
2854.40680	0.08296
2853.12103	0.08289
2851.83526	0.08282
2850.54949	0.08266
2849.26372	0.08233
2847.97795	0.08183
2846.69218	0.08119
2845.40641	0.08048
2844.12064	0.07976
2842.83488	0.07901
2841.54911	0.07818
2840.26334	0.07725
2838.97757	0.07629
2837.69180	0.07542
2836.40603	0.07470
2835.12026	0.07403
2833.83449	0.07334
2832.54873	0.07270
2831.26296	0.07222
2829.97719	0.07192
2828.69142	0.07168
2827.40565	0.07137
2826.11988	0.07100
2824.83411	0.07061
2823.54834	0.07023
2822.26257	0.06983
2820.97681	0.06937
2819.69104	0.06889
2818.40527	0.06846
2817.11950	0.06816
2815.83373	0.06803
2814.54796	0.06800
2813.26219	0.06792
2811.97642	0.06765
2810.69066	0.06724
2809.40489	0.06685
2808.11912	0.06661
2806.83335	0.06651
2805.54758	0.06642
2804.26181	0.06631
2802.97604	0.06626
2801.69027	0.06630
2800.40450	0.06632
2799.11874	0.06612
2797.83297	0.06565
2796.54720	0.06514
2795.26143	0.06488
2793.97566	0.06501
2792.68989	0.06534
2791.40412	0.06556
2790.11835	0.06547
2788.83259	0.06511
2787.54682	0.06471
2786.26105	0.06442
2784.97528	0.06429
2783.68951	0.06426
2782.40374	0.06428
2781.11797	0.06434
2779.83220	0.06438
2778.54643	0.06431
2777.26067	0.06413
2775.97490	0.06394
2774.68913	0.06385
2773.40336	0.06382
2772.11759	0.06372
2770.83182	0.06346
2769.54605	0.06307
2768.26028	0.06273
2766.97452	0.06255
2765.68875	0.06250
2764.40298	0.06246
2763.11721	0.06233
2761.83144	0.06212
2760.54567	0.06191
2759.25990	0.06178
2757.97413	0.06181
2756.68836	0.06196
2755.40260	0.06210
2754.11683	0.06210
2752.83106	0.06192
2751.54529	0.06165
2750.25952	0.06142
2748.97375	0.06126
2747.68798	0.06118
2746.40221	0.06116
2745.11645	0.06117
2743.83068	0.06116
2742.54491	0.06108
2741.25914	0.06099
2739.97337	0.06096
2738.68760	0.06102
2737.40183	0.06106
2736.11606	0.06099
2734.83029	0.06082
2733.54453	0.06063
2732.25876	0.06045
2730.97299	0.06025
2729.68722	0.06003
2728.40145	0.05981
2727.11568	0.05966
2725.82991	0.05959
2724.54414	0.05958
2723.25838	0.05956
2721.97261	0.05942
2720.68684	0.05917
2719.40107	0.05894
2718.11530	0.05885
2716.82953	0.05889
2715.54376	0.05892
2714.25799	0.05885
2712.97222	0.05871
2711.68646	0.05855
2710.40069	0.05847
2709.11492	0.05849
2707.82915	0.05854
2706.54338	0.05855
2705.25761	0.05848
2703.97184	0.05843
2702.68607	0.05842
2701.40031	0.05837
2700.11454	0.05819
2698.82877	0.05787
2697.54300	0.05756
2696.25723	0.05736
2694.97146	0.05729
2693.68569	0.05727
2692.39992	0.05722
2691.11415	0.05719
2689.82839	0.05723
2688.54262	0.05733
2687.25685	0.05741
2685.97108	0.05742
2684.68531	0.05738
2683.39954	0.05731
2682.11377	0.05720
2680.82800	0.05706
2679.54224	0.05695
2678.25647	0.05692
2676.97070	0.05694
2675.68493	0.05697
2674.39916	0.05691
2673.11339	0.05677
2671.82762	0.05659
2670.54185	0.05647
2669.25608	0.05639
2667.97032	0.05631
2666.68455	0.05619
2665.39878	0.05609
2664.11301	0.05608
2662.82724	0.05613
2661.54147	0.05612
2660.25570	0.05594
2658.96993	0.05558
2657.68417	0.05520
2656.39840	0.05494
2655.11263	0.05485
2653.82686	0.05481
2652.54109	0.05471
2651.25532	0.05454
2649.96955	0.05429
2648.68378	0.05400
2647.39801	0.05369
2646.11225	0.05343
2644.82648	0.05333
2643.54071	0.05342
2642.25494	0.05368
2640.96917	0.05398
2639.68340	0.05411
2638.39763	0.05393
2637.11186	0.05345
2635.82609	0.05295
2634.54033	0.05268
2633.25456	0.05264
2631.96879	0.05254
2630.68302	0.05214
2629.39725	0.05153
2628.11148	0.05094
2626.82571	0.05054
2625.53994	0.05031
2624.25418	0.05019
2622.96841	0.05015
2621.68264	0.05013
2620.39687	0.05004
2619.11110	0.04989
2617.82533	0.04973
2616.53956	0.04961
2615.25379	0.04953
2613.96802	0.04945
2612.68226	0.04936
2611.39649	0.04927
2610.11072	0.04918
2608.82495	0.04912
2607.53918	0.04912
2606.25341	0.04921
2604.96764	0.04929
2603.68187	0.04924
2602.39611	0.04903
2601.11034	0.04874
2599.82457	0.04846
2598.53880	0.04825
2597.25303	0.04810
2595.96726	0.04797
2594.68149	0.04774
2593.39572	0.04737
2592.10995	0.04700
2590.82419	0.04680
2589.53842	0.04670
2588.25265	0.04649
2586.96688	0.04611
2585.68111	0.04574
2584.39534	0.04566
2583.10957	0.04588
2581.82380	0.04624
2580.53804	0.04656
2579.25227	0.04677
2577.96650	0.04693
2576.68073	0.04708
2575.39496	0.04713
2574.10919	0.04687
2572.82342	0.04624
2571.53765	0.04552
2570.25188	0.04513
2568.96612	0.04520
2567.68035	0.04545
2566.39458	0.04551
2565.10881	0.04528
2563.82304	0.04495
2562.53727	0.04480
2561.25150	0.04488
2559.96573	0.04500
2558.67997	0.04498
2557.39420	0.04479
2556.10843	0.04461
2554.82266	0.04465
2553.53689	0.04492
2552.25112	0.04521
2550.96535	0.04512
2549.67958	0.04448
2548.39381	0.04358
2547.10805	0.04306
2545.82228	0.04320
2544.53651	0.04375
2543.25074	0.04421
2541.96497	0.04440
2540.67920	0.04443
2539.39343	0.04438
2538.10766	0.04425
2536.82190	0.04407
2535.53613	0.04393
2534.25036	0.04386
2532.96459	0.04380
2531.67882	0.04373
2530.39305	0.04365
2529.10728	0.04358
2527.82151	0.04350
2526.53574	0.04340
2525.24998	0.04326
2523.96421	0.04305
2522.67844	0.04279
2521.39267	0.04263
2520.10690	0.04270
2518.82113	0.04296
2517.53536	0.04320
2516.24959	0.04320
2514.96383	0.04294
2513.67806	0.04251
2512.39229	0.04210
2511.10652	0.04178
2509.82075	0.04157
2508.53498	0.04143
2507.24921	0.04135
2505.96344	0.04141
2504.67767	0.04160
2503.39191	0.04179
2502.10614	0.04181
2500.82037	0.04170
2499.53460	0.04162
2498.24883	0.04171
2496.96306	0.04190
2495.67729	0.04194
2494.39152	0.04167
2493.10576	0.04123
2491.81999	0.04089
2490.53422	0.04080
2489.24845	0.04091
2487.96268	0.04108
2486.67691	0.04125
2485.39114	0.04141
2484.10537	0.04154
2482.81960	0.04166
2481.53384	0.04172
2480.24807	0.04163
2478.96230	0.04125
2477.67653	0.04063
2476.39076	0.04004
2475.10499	0.03990
2473.81922	0.04036
2472.53345	0.04118
2471.24769	0.04177
2469.96192	0.04169
2468.67615	0.04108
2467.39038	0.04043
2466.10461	0.04016
2464.81884	0.04026
2463.53307	0.04055
2462.24730	0.04085
2460.96153	0.04115
2459.67577	0.04137
2458.39000	0.04140
2457.10423	0.04117
2455.81846	0.04075
2454.53269	0.04028
2453.24692	0.03990
2451.96115	0.03969
2450.67538	0.03964
2449.38962	0.03963
2448.10385	0.03953
2446.81808	0.03929
2445.53231	0.03903
2444.24654	0.03890
2442.96077	0.03896
2441.67500	0.03917
2440.38923	0.03945
2439.10346	0.03964
2437.81770	0.03965
2436.53193	0.03958
2435.24616	0.03968
2433.96039	0.03996
2432.67462	0.04012
2431.38885	0.03993
2430.10308	0.03953
2428.81731	0.03918
2427.53155	0.03900
2426.24578	0.03893
2424.96001	0.03893
2423.67424	0.03906
2422.38847	0.03931
2421.10270	0.03952
2419.81693	0.03954
2418.53116	0.03934
2417.24539	0.03910
2415.95963	0.03896
2414.67386	0.03893
2413.38809	0.03893
2412.10232	0.03893
2410.81655	0.03896
2409.53078	0.03903
2408.24501	0.03904
2406.95924	0.03893
2405.67347	0.03868
2404.38771	0.03836
2403.10194	0.03809
2401.81617	0.03807
2400.53040	0.03838
2399.24463	0.03874
2397.95886	0.03905
2396.67309	0.03910
2395.38732	0.03885
2394.10156	0.03847
2392.81579	0.03814
2391.53002	0.03798
2390.24425	0.03800
2388.95848	0.03817
2387.67271	0.03842
2386.38694	0.03867
2385.10117	0.03890
2383.81540	0.03908
2382.52964	0.03920
2381.24387	0.03922
2379.95810	0.03913
2378.67233	0.03897
2377.38656	0.03881
2376.10079	0.03871
2374.81502	0.03865
2373.52925	0.03862
2372.24349	0.03859
2370.95772	0.03857
2369.67195	0.03859
2368.38618	0.03870
2367.10041	0.03890
2365.81464	0.03915
2364.52887	0.03939
2363.24310	0.03957
2361.95733	0.03965
2360.67157	0.03968
2359.38580	0.03966
2358.10003	0.03958
2356.81426	0.03945
2355.52849	0.03930
2354.24272	0.03918
2352.95695	0.03918
2351.67118	0.03934
2350.38542	0.03950
2349.09965	0.03948
2347.81388	0.03936
2346.52811	0.03938
2345.24234	0.03955
2343.95657	0.03962
2342.67080	0.03962
2341.38503	0.03985
2340.09926	0.04019
2338.81350	0.04002
2337.52773	0.03942
2336.24196	0.03921
2334.95619	0.03938
2333.67042	0.03919
2332.38465	0.03874
2331.09888	0.03862
2329.81311	0.03848
2328.52735	0.03811
2327.24158	0.03835
2325.95581	0.03908
2324.67004	0.03960
2323.38427	0.04006
2322.09850	0.04046
2320.81273	0.04039
2319.52696	0.04027
2318.24119	0.04020
2316.95543	0.03993
2315.66966	0.03966
2314.38389	0.03932
2313.09812	0.03881
2311.81235	0.03834
2310.52658	0.03796
2309.24081	0.03770
2307.95504	0.03751
2306.66928	0.03720
2305.38351	0.03681
2304.09774	0.03647
2302.81197	0.03637
2301.52620	0.03651
2300.24043	0.03664
2298.95466	0.03654
2297.66889	0.03618
2296.38312	0.03577
2295.09736	0.03549
2293.81159	0.03533
2292.52582	0.03522
2291.24005	0.03515
2289.95428	0.03515
2288.66851	0.03525
2287.38274	0.03537
2286.09697	0.03537
2284.81121	0.03516
2283.52544	0.03481
2282.23967	0.03448
2280.95390	0.03424
2279.66813	0.03409
2278.38236	0.03403
2277.09659	0.03405
2275.81082	0.03409
2274.52505	0.03401
2273.23929	0.03377
2271.95352	0.03339
2270.66775	0.03298
2269.38198	0.03259
2268.09621	0.03222
2266.81044	0.03183
2265.52467	0.03139
2264.23890	0.03095
2262.95314	0.03069
2261.66737	0.03070
2260.38160	0.03085
2259.09583	0.03091
2257.81006	0.03074
2256.52429	0.03042
2255.23852	0.03004
2253.95275	0.02959
2252.66698	0.02894
2251.38122	0.02808
2250.09545	0.02737
2248.80968	0.02716
2247.52391	0.02717
2246.23814	0.02747
2244.95237	0.02782
2243.66660	0.02805
2242.38083	0.02805
2241.09507	0.02773
2239.80930	0.02712
2238.52353	0.02662
2237.23776	0.02665
2235.95199	0.02721
2234.66622	0.02780
2233.38045	0.02796
2232.09468	0.02768
2230.80891	0.02727
2229.52315	0.02697
2228.23738	0.02688
2226.95161	0.02701
2225.66584	0.02736
2224.38007	0.02781
2223.09430	0.02808
2221.80853	0.02795
2220.52276	0.02741
2219.23700	0.02678
2217.95123	0.02629
2216.66546	0.02582
2215.37969	0.02510
2214.09392	0.02417
2212.80815	0.02331
2211.52238	0.02282
2210.23661	0.02280
2208.95084	0.02305
2207.66508	0.02317
2206.37931	0.02287
2205.09354	0.02232
2203.80777	0.02200
2202.52200	0.02219
2201.23623	0.02276
2199.95046	0.02338
2198.66469	0.02368
2197.37893	0.02344
2196.09316	0.02284
2194.80739	0.02225
2193.52162	0.02177
2192.23585	0.02123
2190.95008	0.02067
2189.66431	0.02047
2188.37854	0.02082
2187.09277	0.02139
2185.80701	0.02173
2184.52124	0.02170
2183.23547	0.02151
2181.94970	0.02135
2180.66393	0.02127
2179.37816	0.02115
2178.09239	0.02093
2176.80662	0.02069
2175.52085	0.02048
2174.23509	0.02019
2172.94932	0.01974
2171.66355	0.01921
2170.37778	0.01884
2169.09201	0.01879
2167.80624	0.01895
2166.52047	0.01892
2165.23470	0.01834
2163.94894	0.01712
2162.66317	0.01558
2161.37740	0.01416
2160.09163	0.01327
2158.80586	0.01316
2157.52009	0.01372
2156.23432	0.01455
2154.94855	0.01523
2153.66278	0.01566
2152.37702	0.01584
2151.09125	0.01587
2149.80548	0.01593
2148.51971	0.01633
2147.23394	0.01726
2145.94817	0.01852
2144.66240	0.01956
2143.37663	0.01998
2142.09087	0.01993
2140.80510	0.01984
2139.51933	0.01989
2138.23356	0.01986
2136.94779	0.01973
2135.66202	0.01986
2134.37625	0.02048
2133.09048	0.02128
2131.80471	0.02178
2130.51895	0.02185
2129.23318	0.02171
2127.94741	0.02156
2126.66164	0.02139
2125.37587	0.02115
2124.09010	0.02093
2122.80433	0.02093
2121.51856	0.02126
2120.23280	0.02192
2118.94703	0.02276
2117.66126	0.02348
2116.37549	0.02376
2115.08972	0.02345
2113.80395	0.02276
2112.51818	0.02213
2111.23241	0.02191
2109.94664	0.02204
2108.66088	0.02222
2107.37511	0.02220
2106.08934	0.02202
2104.80357	0.02190
2103.51780	0.02193
2102.23203	0.02200
2100.94626	0.02201
2099.66049	0.02176
2098.37473	0.02130
2097.08896	0.02062
2095.80319	0.01988
2094.51742	0.01943
2093.23165	0.01944
2091.94588	0.01978
2090.66011	0.02011
2089.37434	0.02022
2088.08857	0.02015
2086.80281	0.02006
2085.51704	0.02002
2084.23127	0.01996
2082.94550	0.01989
2081.65973	0.01997
2080.37396	0.02035
2079.08819	0.02080
2077.80242	0.02090
2076.51666	0.02037
2075.23089	0.01941
2073.94512	0.01852
2072.65935	0.01808
2071.37358	0.01810
2070.08781	0.01825
2068.80204	0.01818
2067.51627	0.01776
2066.23050	0.01713
2064.94474	0.01650
2063.65897	0.01601
2062.37320	0.01580
2061.08743	0.01597
2059.80166	0.01644
2058.51589	0.01684
2057.23012	0.01686
2055.94435	0.01649
2054.65859	0.01604
2053.37282	0.01571
2052.08705	0.01533
2050.80128	0.01460
2049.51551	0.01355
2048.22974	0.01266
2046.94397	0.01240
2045.65820	0.01273
2044.37243	0.01310
2043.08667	0.01289
2041.80090	0.01199
2040.51513	0.01079
2039.22936	0.00977
2037.94359	0.00911
2036.65782	0.00875
2035.37205	0.00867
2034.08628	0.00901
2032.80052	0.00986
2031.51475	0.01086
2030.22898	0.01140
2028.94321	0.01111
2027.65744	0.01016
2026.37167	0.00909
2025.08590	0.00834
2023.80013	0.00804
2022.51436	0.00804
2021.22860	0.00823
2019.94283	0.00868
2018.65706	0.00935
2017.37129	0.00991
2016.08552	0.00992
2014.79975	0.00941
2013.51398	0.00896
2012.22821	0.00910
2010.94245	0.00975
2009.65668	0.01034
2008.37091	0.01050
2007.08514	0.01050
2005.79937	0.01099
2004.51360	0.01228
2003.22783	0.01394
2001.94206	0.01517
2000.65629	0.01550
1999.37053	0.01514
1998.08476	0.01469
1996.79899	0.01467
1995.51322	0.01520
1994.22745	0.01605
1992.94168	0.01683
1991.65591	0.01711
1990.37014	0.01671
1989.08438	0.01581
1987.79861	0.01494
1986.51284	0.01461
1985.22707	0.01495
1983.94130	0.01547
1982.65553	0.01549
1981.36976	0.01483
1980.08399	0.01390
1978.79822	0.01329
1977.51246	0.01316
1976.22669	0.01324
1974.94092	0.01323
1973.65515	0.01314
1972.36938	0.01313
1971.08361	0.01330
1969.79784	0.01363
1968.51207	0.01406
1967.22631	0.01464
1965.94054	0.01541
1964.65477	0.01624
1963.36900	0.01686
1962.08323	0.01699
1960.79746	0.01650
1959.51169	0.01559
1958.22592	0.01473
1956.94015	0.01443
1955.65439	0.01486
1954.36862	0.01569
1953.08285	0.01631
1951.79708	0.01637
1950.51131	0.01596
1949.22554	0.01552
1947.93977	0.01551
1946.65400	0.01611
1945.36823	0.01710
1944.08247	0.01804
1942.79670	0.01856
1941.51093	0.01862
1940.22516	0.01849
1938.93939	0.01837
1937.65362	0.01830
1936.36785	0.01831
1935.08208	0.01859
1933.79632	0.01926
1932.51055	0.02013
1931.22478	0.02085
1929.93901	0.02116
1928.65324	0.02106
1927.36747	0.02067
1926.08170	0.02014
1924.79593	0.01964
1923.51016	0.01934
1922.22440	0.01927
1920.93863	0.01934
1919.65286	0.01941
1918.36709	0.01942
1917.08132	0.01941
1915.79555	0.01939
1914.50978	0.01940
1913.22401	0.01946
1911.93825	0.01960
1910.65248	0.01981
1909.36671	0.01997
1908.08094	0.01995
1906.79517	0.01979
1905.50940	0.01969
1904.22363	0.01983
1902.93786	0.02023
1901.65209	0.02073
1900.36633	0.02106
1899.08056	0.02111
1897.79479	0.02094
1896.50902	0.02075
1895.22325	0.02070
1893.93748	0.02078
1892.65171	0.02095
1891.36594	0.02116
1890.08018	0.02136
1888.79441	0.02147
1887.50864	0.02142
1886.22287	0.02128
1884.93710	0.02112
1883.65133	0.02103
1882.36556	0.02100
1881.07979	0.02101
1879.79402	0.02097
1878.50826	0.02083
1877.22249	0.02062
1875.93672	0.02049
1874.65095	0.02056
1873.36518	0.02080
1872.07941	0.02106
1870.79364	0.02122
1869.50787	0.02125
1868.22211	0.02121
1866.93634	0.02123
1865.65057	0.02134
1864.36480	0.02143
1863.07903	0.02139
1861.79326	0.02121
1860.50749	0.02102
1859.22172	0.02093
1857.93595	0.02093
1856.65019	0.02090
1855.36442	0.02080
1854.07865	0.02068
1852.79288	0.02067
1851.50711	0.02080
1850.22134	0.02103
1848.93557	0.02127
1847.64980	0.02149
1846.36404	0.02164
1845.07827	0.02168
1843.79250	0.02156
1842.50673	0.02141
1841.22096	0.02138
1839.93519	0.02145
1838.64942	0.02151
1837.36365	0.02150
1836.07788	0.02147
1834.79212	0.02149
1833.50635	0.02157
1832.22058	0.02169
1830.93481	0.02181
1829.64904	0.02184
1828.36327	0.02180
1827.07750	0.02175
1825.79173	0.02174
1824.50597	0.02173
1823.22020	0.02163
1821.93443	0.02143
1820.64866	0.02114
1819.36289	0.02087
1818.07712	0.02070
1816.79135	0.02066
1815.50558	0.02075
1814.21981	0.02093
1812.93405	0.02115
1811.64828	0.02138
1810.36251	0.02157
1809.07674	0.02168
1807.79097	0.02171
1806.50520	0.02170
1805.21943	0.02170
1803.93366	0.02173
1802.64790	0.02179
1801.36213	0.02181
1800.07636	0.02176
1798.79059	0.02165
1797.50482	0.02150
1796.21905	0.02135
1794.93328	0.02127
1793.64751	0.02124
1792.36174	0.02123
1791.07598	0.02118
1789.79021	0.02116
1788.50444	0.02124
1787.21867	0.02140
1785.93290	0.02156
1784.64713	0.02166
1783.36136	0.02167
1782.07559	0.02165
1780.78983	0.02165
1779.50406	0.02167
1778.21829	0.02170
1776.93252	0.02173
1775.64675	0.02175
1774.36098	0.02175
1773.07521	0.02174
1771.78944	0.02168
1770.50367	0.02162
1769.21791	0.02163
1767.93214	0.02168
1766.64637	0.02173
1765.36060	0.02178
1764.07483	0.02189
1762.78906	0.02202
1761.50329	0.02208
1760.21752	0.02205
1758.93176	0.02197
1757.64599	0.02189
1756.36022	0.02180
1755.07445	0.02173
1753.78868	0.02178
1752.50291	0.02191
1751.21714	0.02196
1749.93137	0.02185
1748.64560	0.02170
1747.35984	0.02163
1746.07407	0.02169
1744.78830	0.02182
1743.50253	0.02194
1742.21676	0.02202
1740.93099	0.02207
1739.64522	0.02209
1738.35945	0.02207
1737.07369	0.02208
1735.78792	0.02220
1734.50215	0.02232
1733.21638	0.02231
1731.93061	0.02223
1730.64484	0.02225
1729.35907	0.02241
1728.07330	0.02260
1726.78753	0.02280
1725.50177	0.02301
1724.21600	0.02321
1722.93023	0.02340
1721.64446	0.02360
1720.35869	0.02388
1719.07292	0.02426
1717.78715	0.02465
1716.50138	0.02498
1715.21561	0.02527
1713.92985	0.02564
1712.64408	0.02614
1711.35831	0.02677
1710.07254	0.02751
1708.78677	0.02833
1707.50100	0.02920
1706.21523	0.03011
1704.92946	0.03104
1703.64370	0.03209
1702.35793	0.03339
1701.07216	0.03487
1699.78639	0.03633
1698.50062	0.03781
1697.21485	0.03944
1695.92908	0.04115
1694.64331	0.04271
1693.35754	0.04412
1692.07178	0.04554
1690.78601	0.04699
1689.50024	0.04838
1688.21447	0.04979
1686.92870	0.05138
1685.64293	0.05314
1684.35716	0.05483
1683.07139	0.05630
1681.78563	0.05765
1680.49986	0.05904
1679.21409	0.06048
1677.92832	0.06195
1676.64255	0.06346
1675.35678	0.06497
1674.07101	0.06639
1672.78524	0.06777
1671.49947	0.06922
1670.21371	0.07074
1668.92794	0.07222
1667.64217	0.07361
1666.35640	0.07496
1665.07063	0.07634
1663.78486	0.07778
1662.49909	0.07918
1661.21332	0.08050
1659.92756	0.08170
1658.64179	0.08273
1657.35602	0.08361
1656.07025	0.08446
1654.78448	0.08545
1653.49871	0.08645
1652.21294	0.08721
1650.92717	0.08776
1649.64140	0.08834
1648.35564	0.08904
1647.06987	0.08966
1645.78410	0.08998
1644.49833	0.09000
1643.21256	0.08982
1641.92679	0.08952
1640.64102	0.08910
1639.35525	0.08859
1638.06949	0.08809
1636.78372	0.08760
1635.49795	0.08699
1634.21218	0.08615
1632.92641	0.08515
1631.64064	0.08411
1630.35487	0.08303
1629.06910	0.08186
1627.78333	0.08057
1626.49757	0.07919
1625.21180	0.07784
1623.92603	0.07656
1622.64026	0.07529
1621.35449	0.07399
1620.06872	0.07270
1618.78295	0.07150
1617.49718	0.07037
1616.21142	0.06924
1614.92565	0.06814
1613.63988	0.06717
1612.35411	0.06637
1611.06834	0.06565
1609.78257	0.06494
1608.49680	0.06423
1607.21103	0.06359
1605.92526	0.06306
1604.63950	0.06266
1603.35373	0.06234
1602.06796	0.06206
1600.78219	0.06183
1599.49642	0.06169
1598.21065	0.06163
1596.92488	0.06159
1595.63911	0.06155
1594.35335	0.06149
1593.06758	0.06150
1591.78181	0.06163
1590.49604	0.06190
1589.21027	0.06226
1587.92450	0.06264
1586.63873	0.06298
1585.35296	0.06332
1584.06719	0.06369
1582.78143	0.06411
1581.49566	0.06457
1580.20989	0.06506
1578.92412	0.06563
1577.63835	0.06635
1576.35258	0.06713
1575.06681	0.06786
1573.78104	0.06857
1572.49528	0.06936
1571.20951	0.07023
1569.92374	0.07106
1568.63797	0.07177
1567.35220	0.07240
1566.06643	0.07298
1564.78066	0.07347
1563.49489	0.07388
1562.20912	0.07435
1560.92336	0.07499
1559.63759	0.07569
1558.35182	0.07624
1557.06605	0.07665
1555.78028	0.07706
1554.49451	0.07753
1553.20874	0.07797
1551.92297	0.07832
1550.63721	0.07856
1549.35144	0.07866
1548.06567	0.07865
1546.77990	0.07863
1545.49413	0.07864
1544.20836	0.07864
1542.92259	0.07861
1541.63682	0.07856
1540.35105	0.07841
1539.06529	0.07808
1537.77952	0.07758
1536.49375	0.07712
1535.20798	0.07682
1533.92221	0.07660
1532.63644	0.07634
1531.35067	0.07604
1530.06490	0.07575
1528.77914	0.07550
1527.49337	0.07526
1526.20760	0.07500
1524.92183	0.07474
1523.63606	0.07456
1522.35029	0.07447
1521.06452	0.07434
1519.77875	0.07414
1518.49298	0.07394
1517.20722	0.07383
1515.92145	0.07377
1514.63568	0.07377
1513.34991	0.07387
1512.06414	0.07401
1510.77837	0.07417
1509.49260	0.07435
1508.20683	0.07460
1506.92107	0.07483
1505.63530	0.07490
1504.34953	0.07482
1503.06376	0.07469
1501.77799	0.07458
1500.49222	0.07446
1499.20645	0.07432
1497.92068	0.07415
1496.63491	0.07393
1495.34915	0.07360
1494.06338	0.07322
1492.77761	0.07291
1491.49184	0.07271
1490.20607	0.07258
1488.92030	0.07252
1487.63453	0.07261
1486.34876	0.07289
1485.06299	0.07339
1483.77723	0.07409
1482.49146	0.07494
1481.20569	0.07593
1479.91992	0.07700
1478.63415	0.07815
1477.34838	0.07932
1476.06261	0.08054
1474.77684	0.08185
1473.49108	0.08327
1472.20531	0.08474
1470.91954	0.08616
1469.63377	0.08748
1468.34800	0.08868
1467.06223	0.08977
1465.77646	0.09078
1464.49069	0.09173
1463.20492	0.09266
1461.91916	0.09366
1460.63339	0.09486
1459.34762	0.09631
1458.06185	0.09795
1456.77608	0.09953
1455.49031	0.10087
1454.20454	0.10194
1452.91877	0.10282
1451.63301	0.10352
1450.34724	0.10404
1449.06147	0.10438
1447.77570	0.10452
1446.48993	0.10442
1445.20416	0.10404
1443.91839	0.10342
1442.63262	0.10260
1441.34685	0.10165
1440.06109	0.10067
1438.77532	0.09976
1437.48955	0.09898
1436.20378	0.09829
1434.91801	0.09769
1433.63224	0.09727
1432.34647	0.09711
1431.06070	0.09722
1429.77494	0.09758
1428.48917	0.09814
1427.20340	0.09890
1425.91763	0.09982
1424.63186	0.10083
1423.34609	0.10187
1422.06032	0.10292
1420.77455	0.10399
1419.48878	0.10498
1418.20302	0.10582
1416.91725	0.10648
1415.63148	0.10701
1414.34571	0.10735
1413.05994	0.10745
1411.77417	0.10726
1410.48840	0.10683
1409.20263	0.10622
1407.91687	0.10546
1406.63110	0.10453
1405.34533	0.10339
1404.05956	0.10203
1402.77379	0.10048
1401.48802	0.09878
1400.20225	0.09696
1398.91648	0.09502
1397.63071	0.09302
1396.34495	0.09102
1395.05918	0.08904
1393.77341	0.08709
1392.48764	0.08519
1391.20187	0.08343
1389.91610	0.08183
1388.63033	0.08036
1387.34456	0.07895
1386.05880	0.07755
1384.77303	0.07618
1383.48726	0.07486
1382.20149	0.07359
1380.91572	0.07234
1379.62995	0.07107
1378.34418	0.06975
1377.05841	0.06835
1375.77264	0.06687
1374.48688	0.06528
1373.20111	0.06360
1371.91534	0.06191
1370.62957	0.06033
1369.34380	0.05887
1368.05803	0.05753
1366.77226	0.05625
1365.48649	0.05503
1364.20073	0.05387
1362.91496	0.05277
1361.62919	0.05174
1360.34342	0.05082
1359.05765	0.05006
1357.77188	0.04943
1356.48611	0.04890
1355.20034	0.04842
1353.91457	0.04800
1352.62881	0.04759
1351.34304	0.04719
1350.05727	0.04679
1348.77150	0.04642
1347.48573	0.04613
1346.19996	0.04592
1344.91419	0.04576
1343.62842	0.04559
1342.34266	0.04543
1341.05689	0.04528
1339.77112	0.04515
1338.48535	0.04497
1337.19958	0.04469
1335.91381	0.04431
1334.62804	0.04386
1333.34227	0.04345
1332.05650	0.04312
1330.77074	0.04288
1329.48497	0.04266
1328.19920	0.04242
1326.91343	0.04211
1325.62766	0.04177
1324.34189	0.04142
1323.05612	0.04110
1321.77035	0.04081
1320.48459	0.04056
1319.19882	0.04035
1317.91305	0.04013
1316.62728	0.03990
1315.34151	0.03966
1314.05574	0.03945
1312.76997	0.03925
1311.48420	0.03905
1310.19843	0.03881
1308.91267	0.03854
1307.62690	0.03829
1306.34113	0.03805
1305.05536	0.03782
1303.76959	0.03758
1302.48382	0.03732
1301.19805	0.03706
1299.91228	0.03682
1298.62652	0.03660
1297.34075	0.03639
1296.05498	0.03618
1294.76921	0.03599
1293.48344	0.03583
1292.19767	0.03568
1290.91190	0.03555
1289.62613	0.03544
1288.34036	0.03538
1287.05460	0.03541
1285.76883	0.03552
1284.48306	0.03564
1283.19729	0.03567
1281.91152	0.03558
1280.62575	0.03542
1279.33998	0.03528
1278.05421	0.03521
1276.76845	0.03520
1275.48268	0.03520
1274.19691	0.03516
1272.91114	0.03505
1271.62537	0.03487
1270.33960	0.03466
1269.05383	0.03450
1267.76806	0.03442
1266.48229	0.03443
1265.19653	0.03447
1263.91076	0.03450
1262.62499	0.03449
1261.33922	0.03445
1260.05345	0.03442
1258.76768	0.03445
1257.48191	0.03453
1256.19614	0.03465
1254.91037	0.03479
1253.62461	0.03493
1252.33884	0.03505
1251.05307	0.03513
1249.76730	0.03516
1248.48153	0.03517
1247.19576	0.03518
1245.90999	0.03524
1244.62422	0.03532
1243.33846	0.03538
1242.05269	0.03538
1240.76692	0.03534
1239.48115	0.03527
1238.19538	0.03521
1236.90961	0.03515
1235.62384	0.03511
1234.33807	0.03508
1233.05230	0.03504
1231.76654	0.03496
1230.48077	0.03480
1229.19500	0.03458
1227.90923	0.03433
1226.62346	0.03409
1225.33769	0.03387
1224.05192	0.03369
1222.76615	0.03354
1221.48039	0.03340
1220.19462	0.03327
1218.90885	0.03310
1217.62308	0.03293
1216.33731	0.03276
1215.05154	0.03264
1213.76577	0.03258
1212.48000	0.03258
1211.19423	0.03264
1209.90847	0.03278
1208.62270	0.03298
1207.33693	0.03319
1206.05116	0.03337
1204.76539	0.03351
1203.47962	0.03364
1202.19385	0.03380
1200.90808	0.03400
1199.62232	0.03420
1198.33655	0.03432
1197.05078	0.03437
1195.76501	0.03439
1194.47924	0.03440
1193.19347	0.03441
1191.90770	0.03443
1190.62193	0.03451
1189.33616	0.03466
1188.05040	0.03484
1186.76463	0.03498
1185.47886	0.03510
1184.19309	0.03520
1182.90732	0.03529
1181.62155	0.03537
1180.33578	0.03543
1179.05001	0.03554
1177.76425	0.03570
1176.47848	0.03592
1175.19271	0.03617
1173.90694	0.03644
1172.62117	0.03670
1171.33540	0.03695
1170.04963	0.03721
1168.76386	0.03749
1167.47809	0.03782
1166.19233	0.03815
1164.90656	0.03844
1163.62079	0.03865
1162.33502	0.03881
1161.04925	0.03894
1159.76348	0.03903
1158.47771	0.03910
1157.19194	0.03918
1155.90618	0.03931
1154.62041	0.03950
1153.33464	0.03978
1152.04887	0.04012
1150.76310	0.04049
1149.47733	0.04080
1148.19156	0.04104
1146.90579	0.04123
1145.62002	0.04146
1144.33426	0.04185
1143.04849	0.04242
1141.76272	0.04316
1140.47695	0.04405
1139.19118	0.04504
1137.90541	0.04610
1136.61964	0.04722
1135.33387	0.04840
1134.04811	0.04964
1132.76234	0.05100
1131.47657	0.05251
1130.19080	0.05422
1128.90503	0.05615
1127.61926	0.05831
1126.33349	0.06071
1125.04772	0.06339
1123.76195	0.06638
1122.47619	0.06969
1121.19042	0.07330
1119.90465	0.07714
1118.61888	0.08117
1117.33311	0.08536
1116.04734	0.08966
1114.76157	0.09401
1113.47580	0.09838
1112.19004	0.10270
1110.90427	0.10692
1109.61850	0.11099
1108.33273	0.11496
1107.04696	0.11888
1105.76119	0.12269
1104.47542	0.12631
1103.18965	0.12967
1101.90388	0.13282
1100.61812	0.13582
1099.33235	0.13866
1098.04658	0.14130
1096.76081	0.14374
1095.47504	0.14603
1094.18927	0.14816
1092.90350	0.15011
1091.61773	0.15180
1090.33197	0.15321
1089.04620	0.15436
1087.76043	0.15536
1086.47466	0.15635
1085.18889	0.15743
1083.90312	0.15863
1082.61735	0.15996
1081.33158	0.16149
1080.04581	0.16326
1078.76005	0.16532
1077.47428	0.16768
1076.18851	0.17033
1074.90274	0.17319
1073.61697	0.17613
1072.33120	0.17908
1071.04543	0.18207
1069.75966	0.18521
1068.47390	0.18857
1067.18813	0.19214
1065.90236	0.19590
1064.61659	0.19982
1063.33082	0.20388
1062.04505	0.20805
1060.75928	0.21229
1059.47351	0.21654
1058.18774	0.22077
1056.90198	0.22495
1055.61621	0.22907
1054.33044	0.23313
1053.04467	0.23718
1051.75890	0.24132
1050.47313	0.24559
1049.18736	0.24994
1047.90159	0.25432
1046.61583	0.25873
1045.33006	0.26321
1044.04429	0.26772
1042.75852	0.27221
1041.47275	0.27665
1040.18698	0.28105
1038.90121	0.28537
1037.61544	0.28958
1036.32967	0.29370
1035.04391	0.29776
1033.75814	0.30172
1032.47237	0.30545
1031.18660	0.30887
1029.90083	0.31194
1028.61506	0.31462
1027.32929	0.31686
1026.04352	0.31858
1024.75775	0.31972
1023.47199	0.32020
1022.18622	0.31999
1020.90045	0.31909
1019.61468	0.31753
1018.32891	0.31527
1017.04314	0.31230
1015.75737	0.30865
1014.47160	0.30440
1013.18584	0.29963
1011.90007	0.29436
1010.61430	0.28861
1009.32853	0.28238
1008.04276	0.27574
1006.75699	0.26878
1005.47122	0.26165
1004.18545	0.25444
1002.89968	0.24719
1001.61392	0.23986
1000.32815	0.23243
999.04238	0.22495
997.75661	0.21755
996.47084	0.21033
995.18507	0.20331
993.89930	0.19651
992.61353	0.18995
991.32777	0.18365
990.04200	0.17762
988.75623	0.17182
987.47046	0.16620
986.18469	0.16075
984.89892	0.15553
983.61315	0.15060
982.32738	0.14601
981.04161	0.14174
979.75585	0.13778
978.47008	0.13410
977.18431	0.13066
975.89854	0.12745
974.61277	0.12448
973.32700	0.12184
972.04123	0.11965
970.75546	0.11800
969.46970	0.11696
968.18393	0.11653
966.89816	0.11665
965.61239	0.11721
964.32662	0.11802
963.04085	0.11880
961.75508	0.11920
960.46931	0.11896
959.18354	0.11800
957.89778	0.11638
956.61201	0.11425
955.32624	0.11177
954.04047	0.10912
952.75470	0.10647
951.46893	0.10393
950.18316	0.10155
948.89739	0.09931
947.61163	0.09717
946.32586	0.09505
945.04009	0.09293
943.75432	0.09082
942.46855	0.08875
941.18278	0.08674
939.89701	0.08482
938.61124	0.08301
937.32547	0.08135
936.03971	0.07982
934.75394	0.07841
933.46817	0.07707
932.18240	0.07579
930.89663	0.07459
929.61086	0.07351
928.32509	0.07254
927.03932	0.07163
925.75356	0.07070
924.46779	0.06976
923.18202	0.06885
921.89625	0.06795
920.61048	0.06706
919.32471	0.06614
918.03894	0.06526
916.75317	0.06448
915.46740	0.06378
914.18164	0.06307
912.89587	0.06233
911.61010	0.06157
910.32433	0.06086
909.03856	0.06019
907.75279	0.05952
906.46702	0.05884
905.18125	0.05814
903.89549	0.05741
902.60972	0.05667
901.32395	0.05599
900.03818	0.05542
898.75241	0.05491
897.46664	0.05437
896.18087	0.05382
894.89510	0.05334
893.60933	0.05300
892.32357	0.05275
891.03780	0.05253
889.75203	0.05233
888.46626	0.05227
887.18049	0.05252
885.89472	0.05322
884.60895	0.05445
883.32318	0.05625
882.03742	0.05848
880.75165	0.06074
879.46588	0.06249
878.18011	0.06352
876.89434	0.06411
875.60857	0.06479
874.32280	0.06579
873.03703	0.06679
871.75126	0.06720
870.46550	0.06669
869.17973	0.06536
867.89396	0.06351
866.60819	0.06144
865.32242	0.05929
864.03665	0.05719
862.75088	0.05525
861.46511	0.05355
860.17935	0.05209
858.89358	0.05086
857.60781	0.04983
856.32204	0.04899
855.03627	0.04832
853.75050	0.04776
852.46473	0.04720
851.17896	0.04661
849.89319	0.04601
848.60743	0.04552
847.32166	0.04515
846.03589	0.04483
844.75012	0.04447
843.46435	0.04403
842.17858	0.04356
840.89281	0.04312
839.60704	0.04275
838.32128	0.04243
837.03551	0.04210
835.74974	0.04176
834.46397	0.04141
833.17820	0.04110
831.89243	0.04084
830.60666	0.04061
829.32089	0.04040
828.03512	0.04024
826.74936	0.04014
825.46359	0.04007
824.17782	0.04003
822.89205	0.03997
821.60628	0.03985
820.32051	0.03968
819.03474	0.03952
817.74897	0.03944
816.46321	0.03947
815.17744	0.03958
813.89167	0.03972
812.60590	0.03989
811.32013	0.04013
810.03436	0.04052
808.74859	0.04105
807.46282	0.04164
806.17705	0.04226
804.89129	0.04293
803.60552	0.04366
802.31975	0.04439
801.03398	0.04502
799.74821	0.04553
798.46244	0.04592
797.17667	0.04619
795.89090	0.04627
794.60513	0.04612
793.31937	0.04580
792.03360	0.04546
790.74783	0.04526
789.46206	0.04522
788.17629	0.04531
786.89052	0.04549
785.60475	0.04570
784.31898	0.04593
783.03322	0.04619
781.74745	0.04646
780.46168	0.04674
779.17591	0.04699
777.89014	0.04714
776.60437	0.04715
775.31860	0.04700
774.03283	0.04674
772.74706	0.04643
771.46130	0.04612
770.17553	0.04586
768.88976	0.04564
767.60399	0.04550
766.31822	0.04543
765.03245	0.04537
763.74668	0.04530
762.46091	0.04523
761.17515	0.04518
759.88938	0.04513
758.60361	0.04504
757.31784	0.04492
756.03207	0.04481
754.74630	0.04474
753.46053	0.04471
752.17476	0.04467
750.88899	0.04456
749.60323	0.04443
748.31746	0.04434
747.03169	0.04433
745.74592	0.04436
744.46015	0.04432
743.17438	0.04416
741.88861	0.04391
740.60284	0.04363
739.31708	0.04343
738.03131	0.04335
736.74554	0.04338
735.45977	0.04341
734.17400	0.04337
732.88823	0.04327
731.60246	0.04319
730.31669	0.04320
729.03092	0.04329
727.74516	0.04341
726.45939	0.04351
725.17362	0.04358
723.88785	0.04355
722.60208	0.04362
721.31631	0.04369
720.03054	0.04367
718.74477	0.04361
717.45901	0.04355
716.17324	0.04346
714.88747	0.04331
713.60170	0.04309
712.31593	0.04285
711.03016	0.04264
709.74439	0.04252
708.45862	0.04249
707.17285	0.04252
705.88709	0.04259
704.60132	0.04266
703.31555	0.04270
702.02978	0.04272
700.74401	0.04275
699.45824	0.04287
698.17247	0.04309
696.88670	0.04334
695.60094	0.04349
694.31517	0.04351
693.02940	0.04342
691.74363	0.04332
690.45786	0.04323
689.17209	0.04311
687.88632	0.04294
686.60055	0.04274
685.31478	0.04255
684.02902	0.04237
682.74325	0.04220
681.45748	0.04203
680.17171	0.04186
678.88594	0.04173
677.60017	0.04165
676.31440	0.04164
675.02863	0.04170
673.74287	0.04181
672.45710	0.04198
671.17133	0.04222
669.88556	0.04250
668.59979	0.04275
667.31402	0.04293
666.02825	0.04307
664.74248	0.04311
663.45671	0.04309
662.17095	0.04301
660.88518	0.04291
659.59941	0.04281
658.31364	0.04276
657.02787	0.04278
655.74210	0.04285
654.45633	0.04297
653.17056	0.04313
651.88480	0.04332
650.59903	0.04357
649.31326	0.04389
648.02749	0.04424
646.74172	0.04459
645.45595	0.04491
644.17018	0.04522
642.88441	0.04556
641.59864	0.04594
640.31288	0.04634
639.02711	0.04668
637.74134	0.04692
636.45557	0.04708
635.16980	0.04728
633.88403	0.04759
632.59826	0.04796
631.31249	0.04828
630.02673	0.04838
628.74096	0.04826
627.45519	0.04820
626.16942	0.04797
624.88365	0.04793
623.59788	0.04862
622.31211	0.05031
621.02634	0.05279
619.74057	0.05547
618.45481	0.05792
617.16904	0.06002
615.88327	0.06181
614.59750	0.06349
613.31173	0.06569
612.02596	0.06941
610.74019	0.07526
609.45442	0.08270
608.16866	0.09022
606.88289	0.09665
605.59712	0.10178
604.31135	0.10584
603.02558	0.10887
601.73981	0.11063
600.45404	0.11091
599.16827	0.10975
597.88250	0.10737
596.59674	0.10415
595.31097	0.10061
594.02520	0.09734
592.73943	0.09474
591.45366	0.09292
590.16789	0.09177
588.88212	0.09116
587.59635	0.09105
586.31059	0.09150
585.02482	0.09257
583.73905	0.09427
582.45328	0.09645
581.16751	0.09896
579.88174	0.10164
578.59597	0.10442
577.31020	0.10727
576.02443	0.11021
574.73867	0.11320
573.45290	0.11617
572.16713	0.11910
570.88136	0.12217
569.59559	0.12567
568.30982	0.12980
567.02405	0.13447
565.73828	0.13926
564.45251	0.14354
563.16675	0.14653
561.88098	0.14751
560.59521	0.14606
559.30944	0.14223
558.02367	0.13653
556.73790	0.12972
555.45213	0.12255
554.16636	0.11554
552.88060	0.10894
551.59483	0.10287
550.30906	0.09744
549.02329	0.09272
547.73752	0.08873
546.45175	0.08538
545.16598	0.08254
543.88021	0.08007
542.59444	0.07790
541.30868	0.07603
540.02291	0.07443
538.73714	0.07302
537.45137	0.07171
536.16560	0.07046
534.87983	0.06929
533.59406	0.06824
532.30829	0.06727
531.02253	0.06634
529.73676	0.06541
528.45099	0.06451
527.16522	0.06364
525.87945	0.06279
524.59368	0.06195
523.30791	0.06114
522.02214	0.06040
520.73637	0.05970
519.45061	0.05900
518.16484	0.05831
516.87907	0.05765
515.59330	0.05699
514.30753	0.05625
513.02176	0.05539
511.73599	0.05449
510.45022	0.05373
509.16446	0.05315
507.87869	0.05266
506.59292	0.05216
505.30715	0.05166
504.02138	0.05118
502.73561	0.05075
501.44984	0.05030
500.16407	0.04978
498.87830	0.04919
497.59254	0.04865
496.30677	0.04826
495.02100	0.04806
493.73523	0.04799
492.44946	0.04792
491.16369	0.04781
489.87792	0.04775
488.59215	0.04788
487.30639	0.04817
486.02062	0.04851
484.73485	0.04877
483.44908	0.04896
482.16331	0.04922
480.87754	0.04969
479.59177	0.05040
478.30600	0.05121
477.02023	0.05202
475.73447	0.05276
474.44870	0.05346
473.16293	0.05413
471.87716	0.05475
470.59139	0.05525
469.30562	0.05558
468.01985	0.05571
466.73408	0.05566
465.44832	0.05548
464.16255	0.05522
462.87678	0.05492
461.59101	0.05455
460.30524	0.05407
459.01947	0.05346
457.73370	0.05278
456.44793	0.05209
455.16216	0.05139
453.87640	0.05065
452.59063	0.04988
451.30486	0.04911
450.01909	0.04841
448.73332	0.04779
447.44755	0.04728
446.16178	0.04687
444.87601	0.04655
443.59025	0.04629
442.30448	0.04603
441.01871	0.04576
439.73294	0.04548
438.44717	0.04523
437.16140	0.04506
435.87563	0.04502
434.58986	0.04507
433.30409	0.04516
432.01833	0.04521
430.73256	0.04518
429.44679	0.04507
428.16102	0.04486
426.87525	0.04458
425.58948	0.04422
424.30371	0.04382
423.01794	0.04342
421.73218	0.04304
420.44641	0.04269
419.16064	0.04231
417.87487	0.04182
416.58910	0.04122
415.30333	0.04052
414.01756	0.03979
412.73179	0.03907
411.44602	0.03842
410.16026	0.03785
408.87449	0.03738
407.58872	0.03700
406.30295	0.03677
405.01718	0.03675
403.73141	0.03700
402.44564	0.03753
401.15987	0.03829
399.87411	0.03913
