3997.45528	0.02379
3996.16951	0.02339
3994.88374	0.02289
3993.59798	0.02255
3992.31221	0.02262
3991.02644	0.02294
3989.74067	0.02305
3988.45490	0.02268
3987.16913	0.02200
3985.88336	0.02136
3984.59759	0.02101
3983.31183	0.02110
3982.02606	0.02174
3980.74029	0.02289
3979.45452	0.02426
3978.16875	0.02543
3976.88298	0.02610
3975.59721	0.02619
3974.31144	0.02581
3973.02567	0.02534
3971.73991	0.02514
3970.45414	0.02539
3969.16837	0.02592
3967.88260	0.02647
3966.59683	0.02681
3965.31106	0.02682
3964.02529	0.02650
3962.73952	0.02600
3961.45376	0.02554
3960.16799	0.02526
3958.88222	0.02510
3957.59645	0.02495
3956.31068	0.02475
3955.02491	0.02450
3953.73914	0.02430
3952.45337	0.02428
3951.16760	0.02448
3949.88184	0.02482
3948.59607	0.02513
3947.31030	0.02527
3946.02453	0.02525
3944.73876	0.02520
3943.45299	0.02526
3942.16722	0.02541
3940.88145	0.02554
3939.59569	0.02563
3938.30992	0.02582
3937.02415	0.02621
3935.73838	0.02663
3934.45261	0.02684
3933.16684	0.02671
3931.88107	0.02633
3930.59530	0.02586
3929.30953	0.02549
3928.02377	0.02539
3926.73800	0.02553
3925.45223	0.02579
3924.16646	0.02614
3922.88069	0.02649
3921.59492	0.02665
3920.30915	0.02640
3919.02338	0.02579
3917.73762	0.02527
3916.45185	0.02532
3915.16608	0.02595
3913.88031	0.02667
3912.59454	0.02711
3911.30877	0.02734
3910.02300	0.02749
3908.73723	0.02748
3907.45146	0.02713
3906.16570	0.02642
3904.87993	0.02571
3903.59416	0.02531
3902.30839	0.02517
3901.02262	0.02502
3899.73685	0.02485
3898.45108	0.02490
3897.16531	0.02534
3895.87955	0.02606
3894.59378	0.02679
3893.30801	0.02725
3892.02224	0.02740
3890.73647	0.02748
3889.45070	0.02747
3888.16493	0.02706
3886.87916	0.02629
3885.59339	0.02584
3884.30763	0.02604
3883.02186	0.02652
3881.73609	0.02687
3880.45032	0.02718
3879.16455	0.02759
3877.87878	0.02785
3876.59301	0.02774
3875.30724	0.02744
3874.02148	0.02725
3872.73571	0.02713
3871.44994	0.02689
3870.16417	0.02677
3868.87840	0.02698
3867.59263	0.02718
3866.30686	0.02708
3865.02109	0.02692
3863.73532	0.02689
3862.44956	0.02679
3861.16379	0.02661
3859.87802	0.02662
3858.59225	0.02696
3857.30648	0.02722
3856.02071	0.02704
3854.73494	0.02671
3853.44917	0.02699
3852.16341	0.02792
3850.87764	0.02867
3849.59187	0.02886
3848.30610	0.02884
3847.02033	0.02898
3845.73456	0.02917
3844.44879	0.02913
3843.16302	0.02870
3841.87725	0.02789
3840.59149	0.02676
3839.30572	0.02571
3838.01995	0.02541
3836.73418	0.02612
3835.44841	0.02726
3834.16264	0.02804
3832.87687	0.02829
3831.59110	0.02824
3830.30534	0.02793
3829.01957	0.02724
3827.73380	0.02627
3826.44803	0.02550
3825.16226	0.02524
3823.87649	0.02533
3822.59072	0.02562
3821.30495	0.02632
3820.01918	0.02726
3818.73342	0.02762
3817.44765	0.02703
3816.16188	0.02639
3814.87611	0.02658
3813.59034	0.02716
3812.30457	0.02727
3811.01880	0.02678
3809.73303	0.02596
3808.44726	0.02515
3807.16150	0.02497
3805.87573	0.02573
3804.58996	0.02685
3803.30419	0.02750
3802.01842	0.02777
3800.73265	0.02825
3799.44688	0.02872
3798.16111	0.02852
3796.87535	0.02770
3795.58958	0.02689
3794.30381	0.02642
3793.01804	0.02631
3791.73227	0.02657
3790.44650	0.02711
3789.16073	0.02766
3787.87496	0.02796
3786.58919	0.02796
3785.30343	0.02778
3784.01766	0.02749
3782.73189	0.02712
3781.44612	0.02676
3780.16035	0.02657
3778.87458	0.02657
3777.58881	0.02662
3776.30304	0.02668
3775.01728	0.02695
3773.73151	0.02746
3772.44574	0.02778
3771.15997	0.02759
3769.87420	0.02709
3768.58843	0.02661
3767.30266	0.02621
3766.01689	0.02600
3764.73112	0.02613
3763.44536	0.02651
3762.15959	0.02681
3760.87382	0.02693
3759.58805	0.02700
3758.30228	0.02695
3757.01651	0.02668
3755.73074	0.02619
3754.44497	0.02562
3753.15921	0.02538
3751.87344	0.02587
3750.58767	0.02699
3749.30190	0.02835
3748.01613	0.02941
3746.73036	0.02944
3745.44459	0.02843
3744.15882	0.02753
3742.87305	0.02717
3741.58729	0.02658
3740.30152	0.02553
3739.01575	0.02469
3737.72998	0.02449
3736.44421	0.02485
3735.15844	0.02533
3733.87267	0.02579
3732.58690	0.02611
3731.30114	0.02642
3730.01537	0.02664
3728.72960	0.02626
3727.44383	0.02552
3726.15806	0.02496
3724.87229	0.02475
3723.58652	0.02469
3722.30075	0.02413
3721.01498	0.02295
3719.72922	0.02192
3718.44345	0.02166
3717.15768	0.02234
3715.87191	0.02345
3714.58614	0.02445
3713.30037	0.02525
3712.01460	0.02559
3710.72883	0.02550
3709.44307	0.02518
3708.15730	0.02430
3706.87153	0.02317
3705.58576	0.02223
3704.29999	0.02177
3703.01422	0.02202
3701.72845	0.02281
3700.44268	0.02364
3699.15691	0.02403
3697.87115	0.02398
3696.58538	0.02394
3695.29961	0.02416
3694.01384	0.02471
3692.72807	0.02516
3691.44230	0.02544
3690.15653	0.02554
3688.87076	0.02535
3687.58500	0.02512
3686.29923	0.02505
3685.01346	0.02476
3683.72769	0.02441
3682.44192	0.02435
3681.15615	0.02465
3679.87038	0.02528
3678.58461	0.02600
3677.29884	0.02639
3676.01308	0.02675
3674.72731	0.02733
3673.44154	0.02751
3672.15577	0.02665
3670.87000	0.02540
3669.58423	0.02508
3668.29846	0.02583
3667.01269	0.02676
3665.72693	0.02720
3664.44116	0.02706
3663.15539	0.02667
3661.86962	0.02626
3660.58385	0.02605
3659.29808	0.02613
3658.01231	0.02656
3656.72654	0.02756
3655.44077	0.02920
3654.15501	0.03092
3652.86924	0.03178
3651.58347	0.03147
3650.29770	0.03055
3649.01193	0.02983
3647.72616	0.02961
3646.44039	0.02965
3645.15462	0.02951
3643.86886	0.02892
3642.58309	0.02813
3641.29732	0.02759
3640.01155	0.02756
3638.72578	0.02800
3637.44001	0.02860
3636.15424	0.02908
3634.86847	0.02954
3633.58270	0.03021
3632.29694	0.03114
3631.01117	0.03202
3629.72540	0.03249
3628.43963	0.03290
3627.15386	0.03323
3625.86809	0.03316
3624.58232	0.03235
3623.29655	0.03145
3622.01079	0.03087
3620.72502	0.03104
3619.43925	0.03179
3618.15348	0.03286
3616.86771	0.03383
3615.58194	0.03435
3614.29617	0.03455
3613.01040	0.03481
3611.72463	0.03516
3610.43887	0.03507
3609.15310	0.03453
3607.86733	0.03412
3606.58156	0.03438
3605.29579	0.03503
3604.01002	0.03557
3602.72425	0.03602
3601.43848	0.03645
3600.15272	0.03692
3598.86695	0.03734
3597.58118	0.03768
3596.29541	0.03770
3595.00964	0.03790
3593.72387	0.03853
3592.43810	0.03895
3591.15233	0.03893
3589.86656	0.03843
3588.58080	0.03762
3587.29503	0.03733
3586.00926	0.03771
3584.72349	0.03832
3583.43772	0.03882
3582.15195	0.03920
3580.86618	0.03954
3579.58041	0.03991
3578.29464	0.04025
3577.00888	0.04050
3575.72311	0.04056
3574.43734	0.04053
3573.15157	0.04062
3571.86580	0.04105
3570.58003	0.04175
3569.29426	0.04240
3568.00849	0.04278
3566.72273	0.04292
3565.43696	0.04300
3564.15119	0.04334
3562.86542	0.04398
3561.57965	0.04469
3560.29388	0.04510
3559.00811	0.04502
3557.72234	0.04470
3556.43657	0.04456
3555.15081	0.04475
3553.86504	0.04507
3552.57927	0.04527
3551.29350	0.04534
3550.00773	0.04548
3548.72196	0.04575
3547.43619	0.04602
3546.15042	0.04604
3544.86466	0.04568
3543.57889	0.04510
3542.29312	0.04471
3541.00735	0.04483
3539.72158	0.04551
3538.43581	0.04652
3537.15004	0.04754
3535.86427	0.04834
3534.57850	0.04881
3533.29274	0.04896
3532.00697	0.04887
3530.72120	0.04870
3529.43543	0.04857
3528.14966	0.04859
3526.86389	0.04888
3525.57812	0.04955
3524.29235	0.05055
3523.00659	0.05160
3521.72082	0.05230
3520.43505	0.05237
3519.14928	0.05178
3517.86351	0.05087
3516.57774	0.05011
3515.29197	0.04994
3514.00620	0.05044
3512.72043	0.05129
3511.43467	0.05200
3510.14890	0.05223
3508.86313	0.05206
3507.57736	0.05180
3506.29159	0.05172
3505.00582	0.05191
3503.72005	0.05230
3502.43428	0.05282
3501.14852	0.05349
3499.86275	0.05429
3498.57698	0.05507
3497.29121	0.05555
3496.00544	0.05564
3494.71967	0.05555
3493.43390	0.05559
3492.14813	0.05577
3490.86236	0.05583
3489.57660	0.05554
3488.29083	0.05504
3487.00506	0.05471
3485.71929	0.05490
3484.43352	0.05561
3483.14775	0.05656
3481.86198	0.05729
3480.57621	0.05753
3479.29045	0.05735
3478.00468	0.05710
3476.71891	0.05708
3475.43314	0.05732
3474.14737	0.05767
3472.86160	0.05797
3471.57583	0.05822
3470.29006	0.05843
3469.00429	0.05849
3467.71853	0.05819
3466.43276	0.05748
3465.14699	0.05663
3463.86122	0.05621
3462.57545	0.05657
3461.28968	0.05752
3460.00391	0.05842
3458.71814	0.05881
3457.43238	0.05873
3456.14661	0.05857
3454.86084	0.05866
3453.57507	0.05901
3452.28930	0.05950
3451.00353	0.06003
3449.71776	0.06049
3448.43199	0.06073
3447.14622	0.06064
3445.86046	0.06024
3444.57469	0.05981
3443.28892	0.05973
3442.00315	0.06021
3440.71738	0.06103
3439.43161	0.06166
3438.14584	0.06169
3436.86007	0.06118
3435.57431	0.06058
3434.28854	0.06030
3433.00277	0.06050
3431.71700	0.06103
3430.43123	0.06163
3429.14546	0.06210
3427.85969	0.06241
3426.57392	0.06268
3425.28815	0.06301
3424.00239	0.06335
3422.71662	0.06361
3421.43085	0.06385
3420.14508	0.06427
3418.85931	0.06489
3417.57354	0.06542
3416.28777	0.06542
3415.00200	0.06479
3413.71624	0.06390
3412.43047	0.06332
3411.14470	0.06338
3409.85893	0.06388
3408.57316	0.06435
3407.28739	0.06455
3406.00162	0.06460
3404.71585	0.06472
3403.43008	0.06488
3402.14432	0.06492
3400.85855	0.06478
3399.57278	0.06455
3398.28701	0.06439
3397.00124	0.06438
3395.71547	0.06461
3394.42970	0.06510
3393.14393	0.06578
3391.85817	0.06644
3390.57240	0.06684
3389.28663	0.06688
3388.00086	0.06666
3386.71509	0.06648
3385.42932	0.06654
3384.14355	0.06681
3382.85778	0.06706
3381.57201	0.06713
3380.28625	0.06701
3379.00048	0.06681
3377.71471	0.06662
3376.42894	0.06644
3375.14317	0.06630
3373.85740	0.06629
3372.57163	0.06645
3371.28586	0.06669
3370.00010	0.06683
3368.71433	0.06687
3367.42856	0.06689
3366.14279	0.06688
3364.85702	0.06679
3363.57125	0.06663
3362.28548	0.06652
3360.99971	0.06644
3359.71394	0.06631
3358.42818	0.06615
3357.14241	0.06624
3355.85664	0.06675
3354.57087	0.06756
3353.28510	0.06829
3351.99933	0.06865
3350.71356	0.06865
3349.42779	0.06847
3348.14202	0.06828
3346.85626	0.06807
3345.57049	0.06783
3344.28472	0.06760
3342.99895	0.06749
3341.71318	0.06761
3340.42741	0.06793
3339.14164	0.06826
3337.85587	0.06843
3336.57011	0.06837
3335.28434	0.06821
3333.99857	0.06810
3332.71280	0.06801
3331.42703	0.06782
3330.14126	0.06751
3328.85549	0.06727
3327.56972	0.06737
3326.28395	0.06794
3324.99819	0.06883
3323.71242	0.06970
3322.42665	0.07025
3321.14088	0.07041
3319.85511	0.07028
3318.56934	0.07006
3317.28357	0.06983
3315.99780	0.06960
3314.71204	0.06932
3313.42627	0.06905
3312.14050	0.06889
3310.85473	0.06888
3309.56896	0.06894
3308.28319	0.06891
3306.99742	0.06867
3305.71165	0.06818
3304.42588	0.06753
3303.14012	0.06687
3301.85435	0.06637
3300.56858	0.06611
3299.28281	0.06612
3297.99704	0.06637
3296.71127	0.06683
3295.42550	0.06745
3294.13973	0.06804
3292.85397	0.06830
3291.56820	0.06812
3290.28243	0.06770
3288.99666	0.06730
3287.71089	0.06699
3286.42512	0.06670
3285.13935	0.06653
3283.85358	0.06662
3282.56781	0.06689
3281.28205	0.06703
3279.99628	0.06685
3278.71051	0.06655
3277.42474	0.06640
3276.13897	0.06653
3274.85320	0.06682
3273.56743	0.06718
3272.28166	0.06752
3270.99590	0.06769
3269.71013	0.06748
3268.42436	0.06690
3267.13859	0.06626
3265.85282	0.06597
3264.56705	0.06620
3263.28128	0.06672
3261.99551	0.06710
3260.70974	0.06705
3259.42398	0.06670
3258.13821	0.06647
3256.85244	0.06665
3255.56667	0.06705
3254.28090	0.06720
3252.99513	0.06688
3251.70936	0.06628
3250.42359	0.06580
3249.13783	0.06562
3247.85206	0.06564
3246.56629	0.06573
3245.28052	0.06584
3243.99475	0.06597
3242.70898	0.06602
3241.42321	0.06581
3240.13744	0.06533
3238.85167	0.06478
3237.56591	0.06441
3236.28014	0.06435
3234.99437	0.06458
3233.70860	0.06498
3232.42283	0.06536
3231.13706	0.06555
3229.85129	0.06554
3228.56552	0.06545
3227.27976	0.06535
3225.99399	0.06525
3224.70822	0.06514
3223.42245	0.06501
3222.13668	0.06480
3220.85091	0.06444
3219.56514	0.06402
3218.27937	0.06375
3216.99360	0.06375
3215.70784	0.06397
3214.42207	0.06427
3213.13630	0.06452
3211.85053	0.06460
3210.56476	0.06440
3209.27899	0.06393
3207.99322	0.06330
3206.70745	0.06271
3205.42169	0.06235
3204.13592	0.06232
3202.85015	0.06252
3201.56438	0.06277
3200.27861	0.06295
3198.99284	0.06304
3197.70707	0.06312
3196.42130	0.06329
3195.13553	0.06357
3193.84977	0.06384
3192.56400	0.06390
3191.27823	0.06372
3189.99246	0.06340
3188.70669	0.06305
3187.42092	0.06268
3186.13515	0.06227
3184.84938	0.06180
3183.56362	0.06131
3182.27785	0.06099
3180.99208	0.06103
3179.70631	0.06139
3178.42054	0.06177
3177.13477	0.06187
3175.84900	0.06172
3174.56323	0.06159
3173.27746	0.06164
3171.99170	0.06179
3170.70593	0.06186
3169.42016	0.06172
3168.13439	0.06141
3166.84862	0.06108
3165.56285	0.06090
3164.27708	0.06089
3162.99131	0.06094
3161.70555	0.06094
3160.41978	0.06093
3159.13401	0.06094
3157.84824	0.06091
3156.56247	0.06075
3155.27670	0.06047
3153.99093	0.06014
3152.70516	0.05982
3151.41939	0.05944
3150.13363	0.05907
3148.84786	0.05889
3147.56209	0.05902
3146.27632	0.05935
3144.99055	0.05965
3143.70478	0.05976
3142.41901	0.05970
3141.13324	0.05949
3139.84748	0.05922
3138.56171	0.05896
3137.27594	0.05874
3135.99017	0.05856
3134.70440	0.05844
3133.41863	0.05838
3132.13286	0.05834
3130.84709	0.05826
3129.56132	0.05814
3128.27556	0.05806
3126.98979	0.05810
3125.70402	0.05820
3124.41825	0.05826
3123.13248	0.05825
3121.84671	0.05822
3120.56094	0.05812
3119.27517	0.05787
3117.98940	0.05745
3116.70364	0.05705
3115.41787	0.05688
3114.13210	0.05694
3112.84633	0.05702
3111.56056	0.05695
3110.27479	0.05674
3108.98902	0.05658
3107.70325	0.05654
3106.41749	0.05653
3105.13172	0.05643
3103.84595	0.05625
3102.56018	0.05612
3101.27441	0.05617
3099.98864	0.05638
3098.70287	0.05663
3097.41710	0.05680
3096.13133	0.05687
3094.84557	0.05693
3093.55980	0.05698
3092.27403	0.05690
3090.98826	0.05661
3089.70249	0.05619
3088.41672	0.05593
3087.13095	0.05600
3085.84518	0.05630
3084.55942	0.05659
3083.27365	0.05670
3081.98788	0.05660
3080.70211	0.05635
3079.41634	0.05605
3078.13057	0.05584
3076.84480	0.05575
3075.55903	0.05568
3074.27326	0.05544
3072.98750	0.05502
3071.70173	0.05464
3070.41596	0.05453
3069.13019	0.05473
3067.84442	0.05507
3066.55865	0.05535
3065.27288	0.05544
3063.98711	0.05529
3062.70135	0.05496
3061.41558	0.05459
3060.12981	0.05439
3058.84404	0.05442
3057.55827	0.05456
3056.27250	0.05464
3054.98673	0.05458
3053.70096	0.05440
3052.41519	0.05420
3051.12943	0.05405
3049.84366	0.05394
3048.55789	0.05385
3047.27212	0.05372
3045.98635	0.05351
3044.70058	0.05317
3043.41481	0.05273
3042.12904	0.05232
3040.84328	0.05213
3039.55751	0.05224
3038.27174	0.05254
3036.98597	0.05279
3035.70020	0.05288
3034.41443	0.05286
3033.12866	0.05289
3031.84289	0.05296
3030.55712	0.05299
3029.27136	0.05292
3027.98559	0.05275
3026.69982	0.05250
3025.41405	0.05222
3024.12828	0.05192
3022.84251	0.05173
3021.55674	0.05178
3020.27097	0.05209
3018.98521	0.05250
3017.69944	0.05277
3016.41367	0.05278
3015.12790	0.05263
3013.84213	0.05242
3012.55636	0.05213
3011.27059	0.05177
3009.98482	0.05144
3008.69905	0.05132
3007.41329	0.05142
3006.12752	0.05153
3004.84175	0.05146
3003.55598	0.05112
3002.27021	0.05062
3000.98444	0.05013
2999.69867	0.04983
2998.41290	0.04984
2997.12714	0.05008
2995.84137	0.05044
2994.55560	0.05079
2993.26983	0.05107
2991.98406	0.05130
2990.69829	0.05156
2989.41252	0.05179
2988.12675	0.05188
2986.84098	0.05183
2985.55522	0.05172
2984.26945	0.05164
2982.98368	0.05161
2981.69791	0.05168
2980.41214	0.05193
2979.12637	0.05237
2977.84060	0.05293
2976.55483	0.05357
2975.26907	0.05425
2973.98330	0.05491
2972.69753	0.05543
2971.41176	0.05576
2970.12599	0.05598
2968.84022	0.05628
2967.55445	0.05681
2966.26868	0.05756
2964.98291	0.05839
2963.69715	0.05917
2962.41138	0.05990
2961.12561	0.06067
2959.83984	0.06156
2958.55407	0.06248
2957.26830	0.06325
2955.98253	0.06368
2954.69676	0.06378
2953.41100	0.06370
2952.12523	0.06368
2950.83946	0.06387
2949.55369	0.06426
2948.26792	0.06470
2946.98215	0.06496
2945.69638	0.06487
2944.41061	0.06444
2943.12484	0.06390
2941.83908	0.06358
2940.55331	0.06368
2939.26754	0.06420
2937.98177	0.06498
2936.69600	0.06579
2935.41023	0.06646
2934.12446	0.06696
2932.83869	0.06737
2931.55293	0.06781
2930.26716	0.06833
2928.98139	0.06888
2927.69562	0.06943
2926.40985	0.06998
2925.12408	0.07050
2923.83831	0.07089
2922.55254	0.07113
2921.26677	0.07126
2919.98101	0.07127
2918.69524	0.07108
2917.40947	0.07061
2916.12370	0.06989
2914.83793	0.06899
2913.55216	0.06802
2912.26639	0.06708
2910.98062	0.06632
2909.69486	0.06580
2908.40909	0.06545
2907.12332	0.06515
2905.83755	0.06481
2904.55178	0.06441
2903.26601	0.06396
2901.98024	0.06350
2900.69447	0.06304
2899.40870	0.06255
2898.12294	0.06208
2896.83717	0.06169
2895.55140	0.06141
2894.26563	0.06110
2892.97986	0.06050
2891.69409	0.05963
2890.40832	0.05877
2889.12255	0.05826
2887.83678	0.05812
2886.55102	0.05812
2885.26525	0.05793
2883.97948	0.05747
2882.69371	0.05691
2881.40794	0.05657
2880.12217	0.05665
2878.83640	0.05712
2877.55063	0.05773
2876.26487	0.05816
2874.97910	0.05824
2873.69333	0.05810
2872.40756	0.05806
2871.12179	0.05827
2869.83602	0.05863
2868.55025	0.05891
2867.26448	0.05899
2865.97871	0.05899
2864.69295	0.05905
2863.40718	0.05921
2862.12141	0.05941
2860.83564	0.05952
2859.54987	0.05952
2858.26410	0.05945
2856.97833	0.05939
2855.69256	0.05934
2854.40680	0.05923
2853.12103	0.05906
2851.83526	0.05880
2850.54949	0.05843
2849.26372	0.05792
2847.97795	0.05726
2846.69218	0.05648
2845.40641	0.05562
2844.12064	0.05474
2842.83488	0.05395
2841.54911	0.05332
2840.26334	0.05287
2838.97757	0.05248
2837.69180	0.05207
2836.40603	0.05162
2835.12026	0.05116
2833.83449	0.05065
2832.54873	0.05006
2831.26296	0.04941
2829.97719	0.04885
2828.69142	0.04852
2827.40565	0.04840
2826.11988	0.04830
2824.83411	0.04805
2823.54834	0.04768
2822.26257	0.04734
2820.97681	0.04712
2819.69104	0.04695
2818.40527	0.04671
2817.11950	0.04636
2815.83373	0.04602
2814.54796	0.04579
2813.26219	0.04567
2811.97642	0.04560
2810.69066	0.04553
2809.40489	0.04544
2808.11912	0.04534
2806.83335	0.04522
2805.54758	0.04504
2804.26181	0.04484
2802.97604	0.04466
2801.69027	0.04453
2800.40450	0.04439
2799.11874	0.04422
2797.83297	0.04402
2796.54720	0.04386
2795.26143	0.04377
2793.97566	0.04373
2792.68989	0.04368
2791.40412	0.04362
2790.11835	0.04360
2788.83259	0.04367
2787.54682	0.04378
2786.26105	0.04379
2784.97528	0.04358
2783.68951	0.04317
2782.40374	0.04274
2781.11797	0.04248
2779.83220	0.04241
2778.54643	0.04240
2777.26067	0.04232
2775.97490	0.04218
2774.68913	0.04217
2773.40336	0.04238
2772.11759	0.04268
2770.83182	0.04281
2769.54605	0.04262
2768.26028	0.04222
2766.97452	0.04188
2765.68875	0.04182
2764.40298	0.04201
2763.11721	0.04219
2761.83144	0.04210
2760.54567	0.04180
2759.25990	0.04157
2757.97413	0.04166
2756.68836	0.04197
2755.40260	0.04219
2754.11683	0.04211
2752.83106	0.04174
2751.54529	0.04128
2750.25952	0.04089
2748.97375	0.04064
2747.68798	0.04055
2746.40221	0.04057
2745.11645	0.04063
2743.83068	0.04069
2742.54491	0.04072
2741.25914	0.04070
2739.97337	0.04065
2738.68760	0.04063
2737.40183	0.04067
2736.11606	0.04071
2734.83029	0.04070
2733.54453	0.04067
2732.25876	0.04065
2730.97299	0.04057
2729.68722	0.04038
2728.40145	0.04016
2727.11568	0.04006
2725.82991	0.04010
2724.54414	0.04010
2723.25838	0.03993
2721.97261	0.03967
2720.68684	0.03956
2719.40107	0.03972
2718.11530	0.03999
2716.82953	0.04016
2715.54376	0.04014
2714.25799	0.04002
2712.97222	0.03989
2711.68646	0.03972
2710.40069	0.03949
2709.11492	0.03922
2707.82915	0.03900
2706.54338	0.03892
2705.25761	0.03900
2703.97184	0.03914
2702.68607	0.03919
2701.40031	0.03906
2700.11454	0.03885
2698.82877	0.03873
2697.54300	0.03879
2696.25723	0.03893
2694.97146	0.03903
2693.68569	0.03904
2692.39992	0.03898
2691.11415	0.03885
2689.82839	0.03866
2688.54262	0.03846
2687.25685	0.03833
2685.97108	0.03833
2684.68531	0.03839
2683.39954	0.03839
2682.11377	0.03828
2680.82800	0.03808
2679.54224	0.03788
2678.25647	0.03777
2676.97070	0.03779
2675.68493	0.03791
2674.39916	0.03801
2673.11339	0.03802
2671.82762	0.03795
2670.54185	0.03793
2669.25608	0.03799
2667.97032	0.03808
2666.68455	0.03807
2665.39878	0.03797
2664.11301	0.03787
2662.82724	0.03788
2661.54147	0.03800
2660.25570	0.03817
2658.96993	0.03824
2657.68417	0.03813
2656.39840	0.03789
2655.11263	0.03760
2653.82686	0.03730
2652.54109	0.03704
2651.25532	0.03687
2649.96955	0.03682
2648.68378	0.03682
2647.39801	0.03676
2646.11225	0.03656
2644.82648	0.03622
2643.54071	0.03579
2642.25494	0.03542
2640.96917	0.03525
2639.68340	0.03534
2638.39763	0.03555
2637.11186	0.03568
2635.82609	0.03564
2634.54033	0.03542
2633.25456	0.03513
2631.96879	0.03485
2630.68302	0.03466
2629.39725	0.03463
2628.11148	0.03465
2626.82571	0.03458
2625.53994	0.03432
2624.25418	0.03398
2622.96841	0.03365
2621.68264	0.03336
2620.39687	0.03311
2619.11110	0.03296
2617.82533	0.03295
2616.53956	0.03309
2615.25379	0.03336
2613.96802	0.03367
2612.68226	0.03384
2611.39649	0.03369
2610.11072	0.03324
2608.82495	0.03267
2607.53918	0.03224
2606.25341	0.03209
2604.96764	0.03217
2603.68187	0.03226
2602.39611	0.03219
2601.11034	0.03194
2599.82457	0.03165
2598.53880	0.03147
2597.25303	0.03146
2595.96726	0.03154
2594.68149	0.03163
2593.39572	0.03168
2592.10995	0.03170
2590.82419	0.03170
2589.53842	0.03172
2588.25265	0.03173
2586.96688	0.03166
2585.68111	0.03152
2584.39534	0.03140
2583.10957	0.03136
2581.82380	0.03135
2580.53804	0.03123
2579.25227	0.03094
2577.96650	0.03051
2576.68073	0.03013
2575.39496	0.02998
2574.10919	0.03014
2572.82342	0.03043
2571.53765	0.03047
2570.25188	0.03014
2568.96612	0.02963
2567.68035	0.02932
2566.39458	0.02928
2565.10881	0.02936
2563.82304	0.02945
2562.53727	0.02966
2561.25150	0.03003
2559.96573	0.03036
2558.67997	0.03039
2557.39420	0.03018
2556.10843	0.03004
2554.82266	0.03015
2553.53689	0.03040
2552.25112	0.03059
2550.96535	0.03055
2549.67958	0.03012
2548.39381	0.02932
2547.10805	0.02844
2545.82228	0.02791
2544.53651	0.02785
2543.25074	0.02804
2541.96497	0.02817
2540.67920	0.02812
2539.39343	0.02802
2538.10766	0.02795
2536.82190	0.02789
2535.53613	0.02779
2534.25036	0.02766
2532.96459	0.02759
2531.67882	0.02755
2530.39305	0.02750
2529.10728	0.02749
2527.82151	0.02766
2526.53574	0.02808
2525.24998	0.02864
2523.96421	0.02910
2522.67844	0.02929
2521.39267	0.02922
2520.10690	0.02900
2518.82113	0.02868
2517.53536	0.02834
2516.24959	0.02815
2514.96383	0.02814
2513.67806	0.02815
2512.39229	0.02796
2511.10652	0.02768
2509.82075	0.02750
2508.53498	0.02749
2507.24921	0.02746
2505.96344	0.02738
2504.67767	0.02739
2503.39191	0.02757
2502.10614	0.02773
2500.82037	0.02766
2499.53460	0.02745
2498.24883	0.02742
2496.96306	0.02773
2495.67729	0.02815
2494.39152	0.02837
2493.10576	0.02826
2491.81999	0.02795
2490.53422	0.02764
2489.24845	0.02754
2487.96268	0.02775
2486.67691	0.02808
2485.39114	0.02829
2484.10537	0.02828
2482.81960	0.02815
2481.53384	0.02799
2480.24807	0.02779
2478.96230	0.02757
2477.67653	0.02739
2476.39076	0.02717
2475.10499	0.02683
2473.81922	0.02648
2472.53345	0.02639
2471.24769	0.02665
2469.96192	0.02708
2468.67615	0.02742
2467.39038	0.02760
2466.10461	0.02770
2464.81884	0.02771
2463.53307	0.02756
2462.24730	0.02722
2460.96153	0.02683
2459.67577	0.02657
2458.39000	0.02653
2457.10423	0.02671
2455.81846	0.02707
2454.53269	0.02748
2453.24692	0.02777
2451.96115	0.02790
2450.67538	0.02793
2449.38962	0.02790
2448.10385	0.02771
2446.81808	0.02736
2445.53231	0.02694
2444.24654	0.02658
2442.96077	0.02627
2441.67500	0.02598
2440.38923	0.02576
2439.10346	0.02571
2437.81770	0.02578
2436.53193	0.02582
2435.24616	0.02570
2433.96039	0.02555
2432.67462	0.02561
2431.38885	0.02594
2430.10308	0.02639
2428.81731	0.02671
2427.53155	0.02682
2426.24578	0.02676
2424.96001	0.02660
2423.67424	0.02644
2422.38847	0.02645
2421.10270	0.02668
2419.81693	0.02699
2418.53116	0.02714
2417.24539	0.02699
2415.95963	0.02659
2414.67386	0.02607
2413.38809	0.02565
2412.10232	0.02554
2410.81655	0.02583
2409.53078	0.02628
2408.24501	0.02655
2406.95924	0.02647
2405.67347	0.02620
2404.38771	0.02595
2403.10194	0.02585
2401.81617	0.02587
2400.53040	0.02596
2399.24463	0.02653
2397.95886	0.02688
2396.67309	0.02683
2395.38732	0.02657
2394.10156	0.02627
2392.81579	0.02599
2391.53002	0.02573
2390.24425	0.02544
2388.95848	0.02509
2387.67271	0.02470
2386.38694	0.02428
2385.10117	0.02393
2383.81540	0.02364
2382.52964	0.02344
2381.24387	0.02321
2379.95810	0.02307
2378.67233	0.02290
2377.38656	0.02245
2376.10079	0.02241
2374.81502	0.02273
2373.52925	0.02257
2372.24349	0.02201
2370.95772	0.02068
2369.67195	0.02019
2368.38618	0.02027
2367.10041	0.01911
2365.81464	0.01726
2364.52887	0.01717
2363.24310	0.01771
2361.95733	0.01696
2360.67157	0.01577
2359.38580	0.01694
2358.10003	0.01926
2356.81426	0.02106
2355.52849	0.02228
2354.24272	0.02248
2352.95695	0.02206
2351.67118	0.01991
2350.38542	0.01471
2349.09965	0.01142
2347.81388	0.01550
2346.52811	0.02204
2345.24234	0.02415
2343.95657	0.02221
2342.67080	0.02113
2341.38503	0.02169
2340.09926	0.02219
2338.81350	0.02236
2337.52773	0.02179
2336.24196	0.02177
2334.95619	0.02160
2333.67042	0.02049
2332.38465	0.02040
2331.09888	0.02078
2329.81311	0.02053
2328.52735	0.02114
2327.24158	0.02163
2325.95581	0.02168
2324.67004	0.02261
2323.38427	0.02365
2322.09850	0.02416
2320.81273	0.02505
2319.52696	0.02487
2318.24119	0.02356
2316.95543	0.02276
2315.66966	0.02267
2314.38389	0.02303
2313.09812	0.02329
2311.81235	0.02324
2310.52658	0.02345
2309.24081	0.02358
2307.95504	0.02363
2306.66928	0.02401
2305.38351	0.02404
2304.09774	0.02396
2302.81197	0.02405
2301.52620	0.02405
2300.24043	0.02382
2298.95466	0.02328
2297.66889	0.02282
2296.38312	0.02254
2295.09736	0.02246
2293.81159	0.02252
2292.52582	0.02263
2291.24005	0.02284
2289.95428	0.02301
2288.66851	0.02306
2287.38274	0.02299
2286.09697	0.02294
2284.81121	0.02295
2283.52544	0.02307
2282.23967	0.02321
2280.95390	0.02317
2279.66813	0.02289
2278.38236	0.02243
2277.09659	0.02206
2275.81082	0.02185
2274.52505	0.02175
2273.23929	0.02164
2271.95352	0.02143
2270.66775	0.02117
2269.38198	0.02095
2268.09621	0.02088
2266.81044	0.02089
2265.52467	0.02085
2264.23890	0.02065
2262.95314	0.02026
2261.66737	0.01988
2260.38160	0.01961
2259.09583	0.01934
2257.81006	0.01906
2256.52429	0.01872
2255.23852	0.01850
2253.95275	0.01855
2252.66698	0.01894
2251.38122	0.01949
2250.09545	0.01993
2248.80968	0.02012
2247.52391	0.01965
2246.23814	0.01880
2244.95237	0.01778
2243.66660	0.01701
2242.38083	0.01683
2241.09507	0.01720
2239.80930	0.01773
2238.52353	0.01804
2237.23776	0.01809
2235.95199	0.01796
2234.66622	0.01760
2233.38045	0.01706
2232.09468	0.01670
2230.80891	0.01701
2229.52315	0.01787
2228.23738	0.01856
2226.95161	0.01850
2225.66584	0.01781
2224.38007	0.01700
2223.09430	0.01617
2221.80853	0.01514
2220.52276	0.01403
2219.23700	0.01348
2217.95123	0.01411
2216.66546	0.01571
2215.37969	0.01721
2214.09392	0.01751
2212.80815	0.01646
2211.52238	0.01501
2210.23661	0.01430
2208.95084	0.01462
2207.66508	0.01539
2206.37931	0.01593
2205.09354	0.01607
2203.80777	0.01596
2202.52200	0.01577
2201.23623	0.01548
2199.95046	0.01500
2198.66469	0.01439
2197.37893	0.01381
2196.09316	0.01353
2194.80739	0.01364
2193.52162	0.01400
2192.23585	0.01427
2190.95008	0.01410
2189.66431	0.01327
2188.37854	0.01194
2187.09277	0.01053
2185.80701	0.00941
2184.52124	0.00877
2183.23547	0.00868
2181.94970	0.00920
2180.66393	0.01011
2179.37816	0.01084
2178.09239	0.01088
2176.80662	0.01018
2175.52085	0.00925
2174.23509	0.00866
2172.94932	0.00864
2171.66355	0.00897
2170.37778	0.00926
2169.09201	0.00925
2167.80624	0.00898
2166.52047	0.00862
2165.23470	0.00837
2163.94894	0.00834
2162.66317	0.00850
2161.37740	0.00853
2160.09163	0.00805
2158.80586	0.00686
2157.52009	0.00522
2156.23432	0.00377
2154.94855	0.00323
2153.66278	0.00392
2152.37702	0.00552
2151.09125	0.00725
2149.80548	0.00853
2148.51971	0.00924
2147.23394	0.00947
2145.94817	0.00910
2144.66240	0.00818
2143.37663	0.00735
2142.09087	0.00758
2140.80510	0.00916
2139.51933	0.01124
2138.23356	0.01264
2136.94779	0.01286
2135.66202	0.01238
2134.37625	0.01186
2133.09048	0.01159
2131.80471	0.01148
2130.51895	0.01148
2129.23318	0.01160
2127.94741	0.01174
2126.66164	0.01176
2125.37587	0.01167
2124.09010	0.01171
2122.80433	0.01209
2121.51856	0.01278
2120.23280	0.01363
2118.94703	0.01444
2117.66126	0.01501
2116.37549	0.01531
2115.08972	0.01553
2113.80395	0.01585
2112.51818	0.01609
2111.23241	0.01585
2109.94664	0.01511
2108.66088	0.01437
2107.37511	0.01408
2106.08934	0.01420
2104.80357	0.01445
2103.51780	0.01467
2102.23203	0.01486
2100.94626	0.01485
2099.66049	0.01492
2098.37473	0.01446
2097.08896	0.01380
2095.80319	0.01338
2094.51742	0.01319
2093.23165	0.01305
2091.94588	0.01288
2090.66011	0.01269
2089.37434	0.01255
2088.08857	0.01250
2086.80281	0.01258
2085.51704	0.01273
2084.23127	0.01282
2082.94550	0.01284
2081.65973	0.01288
2080.37396	0.01301
2079.08819	0.01307
2077.80242	0.01286
2076.51666	0.01230
2075.23089	0.01156
2073.94512	0.01089
2072.65935	0.01050
2071.37358	0.01049
2070.08781	0.01082
2068.80204	0.01139
2067.51627	0.01202
2066.23050	0.01247
2064.94474	0.01264
2063.65897	0.01263
2062.37320	0.01251
2061.08743	0.01223
2059.80166	0.01173
2058.51589	0.01112
2057.23012	0.01053
2055.94435	0.01001
2054.65859	0.00962
2053.37282	0.00968
2052.08705	0.01038
2050.80128	0.01132
2049.51551	0.01176
2048.22974	0.01130
2046.94397	0.01025
2045.65820	0.00926
2044.37243	0.00867
2043.08667	0.00844
2041.80090	0.00837
2040.51513	0.00821
2039.22936	0.00782
2037.94359	0.00726
2036.65782	0.00677
2035.37205	0.00656
2034.08628	0.00659
2032.80052	0.00653
2031.51475	0.00606
2030.22898	0.00523
2028.94321	0.00456
2027.65744	0.00456
2026.37167	0.00524
2025.08590	0.00616
2023.80013	0.00688
2022.51436	0.00724
2021.22860	0.00738
2019.94283	0.00744
2018.65706	0.00747
2017.37129	0.00742
2016.08552	0.00721
2014.79975	0.00684
2013.51398	0.00651
2012.22821	0.00665
2010.94245	0.00748
2009.65668	0.00856
2008.37091	0.00919
2007.08514	0.00907
2005.79937	0.00858
2004.51360	0.00816
2003.22783	0.00781
2001.94206	0.00740
2000.65629	0.00701
1999.37053	0.00694
1998.08476	0.00733
1996.79899	0.00801
1995.51322	0.00859
1994.22745	0.00875
1992.94168	0.00846
1991.65591	0.00795
1990.37014	0.00752
1989.08438	0.00742
1987.79861	0.00774
1986.51284	0.00837
1985.22707	0.00906
1983.94130	0.00969
1982.65553	0.01028
1981.36976	0.01079
1980.08399	0.01106
1978.79822	0.01101
1977.51246	0.01076
1976.22669	0.01048
1974.94092	0.01017
1973.65515	0.00987
1972.36938	0.00980
1971.08361	0.01016
1969.79784	0.01090
1968.51207	0.01169
1967.22631	0.01221
1965.94054	0.01236
1964.65477	0.01211
1963.36900	0.01147
1962.08323	0.01066
1960.79746	0.01015
1959.51169	0.01026
1958.22592	0.01081
1956.94015	0.01129
1955.65439	0.01146
1954.36862	0.01149
1953.08285	0.01176
1951.79708	0.01242
1950.51131	0.01329
1949.22554	0.01398
1947.93977	0.01410
1946.65400	0.01370
1945.36823	0.01322
1944.08247	0.01314
1942.79670	0.01358
1941.51093	0.01424
1940.22516	0.01470
1938.93939	0.01483
1937.65362	0.01480
1936.36785	0.01478
1935.08208	0.01472
1933.79632	0.01453
1932.51055	0.01428
1931.22478	0.01415
1929.93901	0.01415
1928.65324	0.01415
1927.36747	0.01402
1926.08170	0.01378
1924.79593	0.01356
1923.51016	0.01347
1922.22440	0.01351
1920.93863	0.01368
1919.65286	0.01387
1918.36709	0.01399
1917.08132	0.01393
1915.79555	0.01366
1914.50978	0.01335
1913.22401	0.01324
1911.93825	0.01343
1910.65248	0.01374
1909.36671	0.01393
1908.08094	0.01396
1906.79517	0.01394
1905.50940	0.01397
1904.22363	0.01407
1902.93786	0.01423
1901.65209	0.01445
1900.36633	0.01470
1899.08056	0.01498
1897.79479	0.01522
1896.50902	0.01535
1895.22325	0.01532
1893.93748	0.01515
1892.65171	0.01492
1891.36594	0.01475
1890.08018	0.01477
1888.79441	0.01502
1887.50864	0.01539
1886.22287	0.01570
1884.93710	0.01580
1883.65133	0.01560
1882.36556	0.01516
1881.07979	0.01462
1879.79402	0.01422
1878.50826	0.01412
1877.22249	0.01433
1875.93672	0.01473
1874.65095	0.01516
1873.36518	0.01554
1872.07941	0.01586
1870.79364	0.01605
1869.50787	0.01604
1868.22211	0.01585
1866.93634	0.01558
1865.65057	0.01537
1864.36480	0.01533
1863.07903	0.01541
1861.79326	0.01543
1860.50749	0.01533
1859.22172	0.01518
1857.93595	0.01514
1856.65019	0.01524
1855.36442	0.01540
1854.07865	0.01547
1852.79288	0.01541
1851.50711	0.01529
1850.22134	0.01522
1848.93557	0.01534
1847.64980	0.01560
1846.36404	0.01582
1845.07827	0.01582
1843.79250	0.01567
1842.50673	0.01550
1841.22096	0.01538
1839.93519	0.01535
1838.64942	0.01546
1837.36365	0.01559
1836.07788	0.01559
1834.79212	0.01544
1833.50635	0.01533
1832.22058	0.01537
1830.93481	0.01556
1829.64904	0.01580
1828.36327	0.01597
1827.07750	0.01597
1825.79173	0.01585
1824.50597	0.01582
1823.22020	0.01594
1821.93443	0.01613
1820.64866	0.01622
1819.36289	0.01611
1818.07712	0.01582
1816.79135	0.01553
1815.50558	0.01542
1814.21981	0.01547
1812.93405	0.01556
1811.64828	0.01562
1810.36251	0.01569
1809.07674	0.01583
1807.79097	0.01598
1806.50520	0.01607
1805.21943	0.01606
1803.93366	0.01601
1802.64790	0.01599
1801.36213	0.01605
1800.07636	0.01614
1798.79059	0.01622
1797.50482	0.01633
1796.21905	0.01656
1794.93328	0.01685
1793.64751	0.01709
1792.36174	0.01723
1791.07598	0.01728
1789.79021	0.01724
1788.50444	0.01708
1787.21867	0.01684
1785.93290	0.01662
1784.64713	0.01650
1783.36136	0.01648
1782.07559	0.01649
1780.78983	0.01649
1779.50406	0.01647
1778.21829	0.01651
1776.93252	0.01664
1775.64675	0.01686
1774.36098	0.01703
1773.07521	0.01714
1771.78944	0.01726
1770.50367	0.01734
1769.21791	0.01728
1767.93214	0.01715
1766.64637	0.01711
1765.36060	0.01712
1764.07483	0.01710
1762.78906	0.01709
1761.50329	0.01720
1760.21752	0.01743
1758.93176	0.01759
1757.64599	0.01760
1756.36022	0.01760
1755.07445	0.01765
1753.78868	0.01766
1752.50291	0.01759
1751.21714	0.01754
1749.93137	0.01755
1748.64560	0.01753
1747.35984	0.01744
1746.07407	0.01733
1744.78830	0.01729
1743.50253	0.01732
1742.21676	0.01737
1740.93099	0.01739
1739.64522	0.01749
1738.35945	0.01773
1737.07369	0.01797
1735.78792	0.01806
1734.50215	0.01815
1733.21638	0.01843
1731.93061	0.01875
1730.64484	0.01880
1729.35907	0.01864
1728.07330	0.01849
1726.78753	0.01844
1725.50177	0.01845
1724.21600	0.01848
1722.93023	0.01863
1721.64446	0.01892
1720.35869	0.01924
1719.07292	0.01948
1717.78715	0.01970
1716.50138	0.01997
1715.21561	0.02021
1713.92985	0.02032
1712.64408	0.02043
1711.35831	0.02065
1710.07254	0.02104
1708.78677	0.02153
1707.50100	0.02201
1706.21523	0.02250
1704.92946	0.02312
1703.64370	0.02380
1702.35793	0.02430
1701.07216	0.02469
1699.78639	0.02529
1698.50062	0.02597
1697.21485	0.02631
1695.92908	0.02636
1694.64331	0.02654
1693.35754	0.02686
1692.07178	0.02709
1690.78601	0.02734
1689.50024	0.02782
1688.21447	0.02849
1686.92870	0.02904
1685.64293	0.02937
1684.35716	0.02975
1683.07139	0.03030
1681.78563	0.03079
1680.49986	0.03110
1679.21409	0.03142
1677.92832	0.03186
1676.64255	0.03235
1675.35678	0.03293
1674.07101	0.03363
1672.78524	0.03434
1671.49947	0.03488
1670.21371	0.03529
1668.92794	0.03571
1667.64217	0.03616
1666.35640	0.03655
1665.07063	0.03684
1663.78486	0.03713
1662.49909	0.03753
1661.21332	0.03802
1659.92756	0.03852
1658.64179	0.03909
1657.35602	0.03979
1656.07025	0.04045
1654.78448	0.04082
1653.49871	0.04101
1652.21294	0.04133
1650.92717	0.04171
1649.64140	0.04176
1648.35564	0.04145
1647.06987	0.04112
1645.78410	0.04100
1644.49833	0.04100
1643.21256	0.04096
1641.92679	0.04090
1640.64102	0.04095
1639.35525	0.04112
1638.06949	0.04123
1636.78372	0.04115
1635.49795	0.04097
1634.21218	0.04083
1632.92641	0.04068
1631.64064	0.04046
1630.35487	0.04022
1629.06910	0.04005
1627.78333	0.03997
1626.49757	0.03990
1625.21180	0.03975
1623.92603	0.03952
1622.64026	0.03933
1621.35449	0.03926
1620.06872	0.03920
1618.78295	0.03900
1617.49718	0.03870
1616.21142	0.03849
1614.92565	0.03835
1613.63988	0.03816
1612.35411	0.03792
1611.06834	0.03781
1609.78257	0.03788
1608.49680	0.03802
1607.21103	0.03812
1605.92526	0.03815
1604.63950	0.03814
1603.35373	0.03812
1602.06796	0.03810
1600.78219	0.03811
1599.49642	0.03815
1598.21065	0.03823
1596.92488	0.03834
1595.63911	0.03846
1594.35335	0.03858
1593.06758	0.03871
1591.78181	0.03887
1590.49604	0.03906
1589.21027	0.03931
1587.92450	0.03962
1586.63873	0.03998
1585.35296	0.04034
1584.06719	0.04066
1582.78143	0.04094
1581.49566	0.04127
1580.20989	0.04170
1578.92412	0.04214
1577.63835	0.04247
1576.35258	0.04278
1575.06681	0.04322
1573.78104	0.04371
1572.49528	0.04403
1571.20951	0.04422
1569.92374	0.04444
1568.63797	0.04477
1567.35220	0.04508
1566.06643	0.04534
1564.78066	0.04570
1563.49489	0.04632
1562.20912	0.04705
1560.92336	0.04765
1559.63759	0.04813
1558.35182	0.04863
1557.06605	0.04903
1555.78028	0.04908
1554.49451	0.04894
1553.20874	0.04891
1551.92297	0.04904
1550.63721	0.04920
1549.35144	0.04936
1548.06567	0.04958
1546.77990	0.04985
1545.49413	0.05017
1544.20836	0.05058
1542.92259	0.05095
1541.63682	0.05109
1540.35105	0.05100
1539.06529	0.05089
1537.77952	0.05087
1536.49375	0.05080
1535.20798	0.05060
1533.92221	0.05043
1532.63644	0.05049
1531.35067	0.05074
1530.06490	0.05104
1528.77914	0.05139
1527.49337	0.05185
1526.20760	0.05246
1524.92183	0.05317
1523.63606	0.05385
1522.35029	0.05447
1521.06452	0.05519
1519.77875	0.05602
1518.49298	0.05680
1517.20722	0.05752
1515.92145	0.05832
1514.63568	0.05924
1513.34991	0.06024
1512.06414	0.06135
1510.77837	0.06264
1509.49260	0.06397
1508.20683	0.06519
1506.92107	0.06631
1505.63530	0.06744
1504.34953	0.06852
1503.06376	0.06940
1501.77799	0.07018
1500.49222	0.07104
1499.20645	0.07200
1497.92068	0.07291
1496.63491	0.07370
1495.34915	0.07444
1494.06338	0.07515
1492.77761	0.07582
1491.49184	0.07650
1490.20607	0.07730
1488.92030	0.07815
1487.63453	0.07896
1486.34876	0.07976
1485.06299	0.08065
1483.77723	0.08165
1482.49146	0.08276
1481.20569	0.08394
1479.91992	0.08518
1478.63415	0.08641
1477.34838	0.08762
1476.06261	0.08881
1474.77684	0.08994
1473.49108	0.09097
1472.20531	0.09195
1470.91954	0.09284
1469.63377	0.09357
1468.34800	0.09410
1467.06223	0.09450
1465.77646	0.09490
1464.49069	0.09538
1463.20492	0.09598
1461.91916	0.09666
1460.63339	0.09737
1459.34762	0.09806
1458.06185	0.09874
1456.77608	0.09951
1455.49031	0.10033
1454.20454	0.10101
1452.91877	0.10145
1451.63301	0.10179
1450.34724	0.10218
1449.06147	0.10255
1447.77570	0.10282
1446.48993	0.10298
1445.20416	0.10300
1443.91839	0.10292
1442.63262	0.10284
1441.34685	0.10287
1440.06109	0.10298
1438.77532	0.10301
1437.48955	0.10296
1436.20378	0.10299
1434.91801	0.10319
1433.63224	0.10351
1432.34647	0.10396
1431.06070	0.10460
1429.77494	0.10549
1428.48917	0.10658
1427.20340	0.10777
1425.91763	0.10901
1424.63186	0.11033
1423.34609	0.11176
1422.06032	0.11318
1420.77455	0.11447
1419.48878	0.11565
1418.20302	0.11675
1416.91725	0.11765
1415.63148	0.11823
1414.34571	0.11857
1413.05994	0.11880
1411.77417	0.11895
1410.48840	0.11900
1409.20263	0.11890
1407.91687	0.11860
1406.63110	0.11806
1405.34533	0.11729
1404.05956	0.11634
1402.77379	0.11522
1401.48802	0.11388
1400.20225	0.11235
1398.91648	0.11075
1397.63071	0.10912
1396.34495	0.10742
1395.05918	0.10561
1393.77341	0.10373
1392.48764	0.10179
1391.20187	0.09977
1389.91610	0.09769
1388.63033	0.09565
1387.34456	0.09371
1386.05880	0.09187
1384.77303	0.09007
1383.48726	0.08827
1382.20149	0.08651
1380.91572	0.08480
1379.62995	0.08309
1378.34418	0.08134
1377.05841	0.07954
1375.77264	0.07764
1374.48688	0.07565
1373.20111	0.07360
1371.91534	0.07151
1370.62957	0.06945
1369.34380	0.06751
1368.05803	0.06577
1366.77226	0.06419
1365.48649	0.06267
1364.20073	0.06114
1362.91496	0.05959
1361.62919	0.05808
1360.34342	0.05663
1359.05765	0.05526
1357.77188	0.05397
1356.48611	0.05278
1355.20034	0.05172
1353.91457	0.05075
1352.62881	0.04986
1351.34304	0.04901
1350.05727	0.04823
1348.77150	0.04749
1347.48573	0.04680
1346.19996	0.04613
1344.91419	0.04549
1343.62842	0.04488
1342.34266	0.04431
1341.05689	0.04375
1339.77112	0.04322
1338.48535	0.04275
1337.19958	0.04232
1335.91381	0.04189
1334.62804	0.04144
1333.34227	0.04097
1332.05650	0.04048
1330.77074	0.04001
1329.48497	0.03956
1328.19920	0.03912
1326.91343	0.03868
1325.62766	0.03825
1324.34189	0.03785
1323.05612	0.03747
1321.77035	0.03712
1320.48459	0.03680
1319.19882	0.03649
1317.91305	0.03615
1316.62728	0.03580
1315.34151	0.03544
1314.05574	0.03512
1312.76997	0.03484
1311.48420	0.03458
1310.19843	0.03431
1308.91267	0.03403
1307.62690	0.03378
1306.34113	0.03355
1305.05536	0.03335
1303.76959	0.03315
1302.48382	0.03293
1301.19805	0.03265
1299.91228	0.03234
1298.62652	0.03200
1297.34075	0.03169
1296.05498	0.03141
1294.76921	0.03120
1293.48344	0.03105
1292.19767	0.03093
1290.91190	0.03079
1289.62613	0.03063
1288.34036	0.03048
1287.05460	0.03034
1285.76883	0.03021
1284.48306	0.03007
1283.19729	0.02992
1281.91152	0.02978
1280.62575	0.02964
1279.33998	0.02947
1278.05421	0.02926
1276.76845	0.02902
1275.48268	0.02877
1274.19691	0.02855
1272.91114	0.02837
1271.62537	0.02823
1270.33960	0.02811
1269.05383	0.02798
1267.76806	0.02782
1266.48229	0.02766
1265.19653	0.02751
1263.91076	0.02739
1262.62499	0.02729
1261.33922	0.02718
1260.05345	0.02705
1258.76768	0.02690
1257.48191	0.02674
1256.19614	0.02662
1254.91037	0.02655
1253.62461	0.02654
1252.33884	0.02653
1251.05307	0.02647
1249.76730	0.02636
1248.48153	0.02621
1247.19576	0.02606
1245.90999	0.02591
1244.62422	0.02576
1243.33846	0.02561
1242.05269	0.02547
1240.76692	0.02534
1239.48115	0.02520
1238.19538	0.02503
1236.90961	0.02487
1235.62384	0.02473
1234.33807	0.02460
1233.05230	0.02448
1231.76654	0.02436
1230.48077	0.02427
1229.19500	0.02420
1227.90923	0.02414
1226.62346	0.02407
1225.33769	0.02396
1224.05192	0.02380
1222.76615	0.02361
1221.48039	0.02341
1220.19462	0.02321
1218.90885	0.02303
1217.62308	0.02287
1216.33731	0.02274
1215.05154	0.02266
1213.76577	0.02264
1212.48000	0.02265
1211.19423	0.02266
1209.90847	0.02267
1208.62270	0.02267
1207.33693	0.02266
1206.05116	0.02262
1204.76539	0.02255
1203.47962	0.02247
1202.19385	0.02239
1200.90808	0.02229
1199.62232	0.02218
1198.33655	0.02217
1197.05078	0.02217
1195.76501	0.02218
1194.47924	0.02219
1193.19347	0.02222
1191.90770	0.02223
1190.62193	0.02220
1189.33616	0.02210
1188.05040	0.02200
1186.76463	0.02196
1185.47886	0.02196
1184.19309	0.02196
1182.90732	0.02192
1181.62155	0.02185
1180.33578	0.02176
1179.05001	0.02168
1177.76425	0.02164
1176.47848	0.02162
1175.19271	0.02160
1173.90694	0.02155
1172.62117	0.02151
1171.33540	0.02150
1170.04963	0.02154
1168.76386	0.02160
1167.47809	0.02168
1166.19233	0.02178
1164.90656	0.02189
1163.62079	0.02199
1162.33502	0.02206
1161.04925	0.02209
1159.76348	0.02211
1158.47771	0.02214
1157.19194	0.02222
1155.90618	0.02235
1154.62041	0.02251
1153.33464	0.02269
1152.04887	0.02288
1150.76310	0.02311
1149.47733	0.02335
1148.19156	0.02361
1146.90579	0.02388
1145.62002	0.02417
1144.33426	0.02450
1143.04849	0.02490
1141.76272	0.02537
1140.47695	0.02595
1139.19118	0.02665
1137.90541	0.02750
1136.61964	0.02849
1135.33387	0.02960
1134.04811	0.03079
1132.76234	0.03209
1131.47657	0.03359
1130.19080	0.03534
1128.90503	0.03733
1127.61926	0.03950
1126.33349	0.04185
1125.04772	0.04442
1123.76195	0.04719
1122.47619	0.05007
1121.19042	0.05298
1119.90465	0.05588
1118.61888	0.05880
1117.33311	0.06178
1116.04734	0.06482
1114.76157	0.06788
1113.47580	0.07091
1112.19004	0.07386
1110.90427	0.07671
1109.61850	0.07941
1108.33273	0.08194
1107.04696	0.08433
1105.76119	0.08663
1104.47542	0.08885
1103.18965	0.09099
1101.90388	0.09307
1100.61812	0.09511
1099.33235	0.09710
1098.04658	0.09902
1096.76081	0.10082
1095.47504	0.10250
1094.18927	0.10406
1092.90350	0.10557
1091.61773	0.10705
1090.33197	0.10852
1089.04620	0.10992
1087.76043	0.11124
1086.47466	0.11250
1085.18889	0.11377
1083.90312	0.11510
1082.61735	0.11653
1081.33158	0.11811
1080.04581	0.11984
1078.76005	0.12169
1077.47428	0.12360
1076.18851	0.12558
1074.90274	0.12768
1073.61697	0.12995
1072.33120	0.13238
1071.04543	0.13489
1069.75966	0.13742
1068.47390	0.13996
1067.18813	0.14251
1065.90236	0.14514
1064.61659	0.14784
1063.33082	0.15061
1062.04505	0.15340
1060.75928	0.15622
1059.47351	0.15907
1058.18774	0.16192
1056.90198	0.16472
1055.61621	0.16747
1054.33044	0.17016
1053.04467	0.17281
1051.75890	0.17543
1050.47313	0.17804
1049.18736	0.18072
1047.90159	0.18353
1046.61583	0.18650
1045.33006	0.18956
1044.04429	0.19263
1042.75852	0.19564
1041.47275	0.19864
1040.18698	0.20171
1038.90121	0.20491
1037.61544	0.20818
1036.32967	0.21144
1035.04391	0.21461
1033.75814	0.21761
1032.47237	0.22038
1031.18660	0.22289
1029.90083	0.22514
1028.61506	0.22718
1027.32929	0.22904
1026.04352	0.23068
1024.75775	0.23200
1023.47199	0.23292
1022.18622	0.23343
1020.90045	0.23358
1019.61468	0.23340
1018.32891	0.23280
1017.04314	0.23167
1015.75737	0.22996
1014.47160	0.22778
1013.18584	0.22521
1011.90007	0.22221
1010.61430	0.21872
1009.32853	0.21472
1008.04276	0.21032
1006.75699	0.20559
1005.47122	0.20057
1004.18545	0.19525
1002.89968	0.18964
1001.61392	0.18384
1000.32815	0.17792
999.04238	0.17191
997.75661	0.16584
996.47084	0.15969
995.18507	0.15354
993.89930	0.14747
992.61353	0.14159
991.32777	0.13597
990.04200	0.13063
988.75623	0.12557
987.47046	0.12080
986.18469	0.11627
984.89892	0.11193
983.61315	0.10776
982.32738	0.10383
981.04161	0.10021
979.75585	0.09691
978.47008	0.09387
977.18431	0.09107
975.89854	0.08853
974.61277	0.08634
973.32700	0.08455
972.04123	0.08316
970.75546	0.08214
969.46970	0.08151
968.18393	0.08134
966.89816	0.08168
965.61239	0.08244
964.32662	0.08342
963.04085	0.08433
961.75508	0.08491
960.46931	0.08501
959.18354	0.08459
957.89778	0.08366
956.61201	0.08223
955.32624	0.08039
954.04047	0.07832
952.75470	0.07620
951.46893	0.07414
950.18316	0.07215
948.89739	0.07026
947.61163	0.06845
946.32586	0.06670
945.04009	0.06498
943.75432	0.06329
942.46855	0.06167
941.18278	0.06020
939.89701	0.05888
938.61124	0.05766
937.32547	0.05649
936.03971	0.05534
934.75394	0.05421
933.46817	0.05316
932.18240	0.05221
930.89663	0.05135
929.61086	0.05055
928.32509	0.04980
927.03932	0.04910
925.75356	0.04847
924.46779	0.04789
923.18202	0.04731
921.89625	0.04670
920.61048	0.04612
919.32471	0.04561
918.03894	0.04522
916.75317	0.04487
915.46740	0.04447
914.18164	0.04399
912.89587	0.04347
911.61010	0.04295
910.32433	0.04248
909.03856	0.04206
907.75279	0.04172
906.46702	0.04149
905.18125	0.04133
903.89549	0.04113
902.60972	0.04084
901.32395	0.04049
900.03818	0.04018
898.75241	0.03995
897.46664	0.03973
896.18087	0.03946
894.89510	0.03910
893.60933	0.03873
892.32357	0.03850
891.03780	0.03855
889.75203	0.03900
888.46626	0.03989
887.18049	0.04121
885.89472	0.04294
884.60895	0.04518
883.32318	0.04800
882.03742	0.05126
880.75165	0.05457
879.46588	0.05748
878.18011	0.05984
876.89434	0.06185
875.60857	0.06384
874.32280	0.06589
873.03703	0.06762
871.75126	0.06844
870.46550	0.06801
869.17973	0.06639
867.89396	0.06390
866.60819	0.06089
865.32242	0.05769
864.03665	0.05461
862.75088	0.05189
861.46511	0.04960
860.17935	0.04770
858.89358	0.04607
857.60781	0.04469
856.32204	0.04353
855.03627	0.04260
853.75050	0.04187
852.46473	0.04126
851.17896	0.04072
849.89319	0.04023
848.60743	0.03977
847.32166	0.03932
846.03589	0.03888
844.75012	0.03845
843.46435	0.03807
842.17858	0.03775
840.89281	0.03745
839.60704	0.03717
838.32128	0.03689
837.03551	0.03665
835.74974	0.03642
834.46397	0.03619
833.17820	0.03596
831.89243	0.03579
830.60666	0.03569
829.32089	0.03563
828.03512	0.03553
826.74936	0.03534
825.46359	0.03506
824.17782	0.03475
822.89205	0.03453
821.60628	0.03444
820.32051	0.03444
819.03474	0.03448
817.74897	0.03448
816.46321	0.03443
815.17744	0.03434
813.89167	0.03425
812.60590	0.03418
811.32013	0.03415
810.03436	0.03411
808.74859	0.03402
807.46282	0.03391
806.17705	0.03383
804.89129	0.03380
803.60552	0.03377
802.31975	0.03370
801.03398	0.03363
799.74821	0.03358
798.46244	0.03352
797.17667	0.03343
795.89090	0.03331
794.60513	0.03322
793.31937	0.03320
792.03360	0.03322
790.74783	0.03325
789.46206	0.03326
788.17629	0.03324
786.89052	0.03321
785.60475	0.03314
784.31898	0.03302
783.03322	0.03289
781.74745	0.03277
780.46168	0.03268
779.17591	0.03260
777.89014	0.03252
776.60437	0.03248
775.31860	0.03249
774.03283	0.03253
772.74706	0.03259
771.46130	0.03265
770.17553	0.03272
768.88976	0.03281
767.60399	0.03287
766.31822	0.03284
765.03245	0.03270
763.74668	0.03249
762.46091	0.03231
761.17515	0.03223
759.88938	0.03228
758.60361	0.03240
757.31784	0.03251
756.03207	0.03259
754.74630	0.03266
753.46053	0.03275
752.17476	0.03287
750.88899	0.03303
749.60323	0.03320
748.31746	0.03330
747.03169	0.03322
745.74592	0.03301
744.46015	0.03280
743.17438	0.03264
741.88861	0.03250
740.60284	0.03233
739.31708	0.03217
738.03131	0.03210
736.74554	0.03212
735.45977	0.03215
734.17400	0.03210
732.88823	0.03198
731.60246	0.03188
730.31669	0.03189
729.03092	0.03203
727.74516	0.03226
726.45939	0.03252
725.17362	0.03275
723.88785	0.03276
722.60208	0.03289
721.31631	0.03333
720.03054	0.03372
718.74477	0.03381
717.45901	0.03401
716.17324	0.03421
714.88747	0.03423
713.60170	0.03408
712.31593	0.03385
711.03016	0.03358
709.74439	0.03328
708.45862	0.03299
707.17285	0.03273
705.88709	0.03251
704.60132	0.03232
703.31555	0.03213
702.02978	0.03194
700.74401	0.03176
699.45824	0.03163
698.17247	0.03154
696.88670	0.03148
695.60094	0.03140
694.31517	0.03129
693.02940	0.03114
691.74363	0.03097
690.45786	0.03079
689.17209	0.03061
687.88632	0.03040
686.60055	0.03016
685.31478	0.02988
684.02902	0.02959
682.74325	0.02934
681.45748	0.02915
680.17171	0.02903
678.88594	0.02898
677.60017	0.02900
676.31440	0.02907
675.02863	0.02910
673.74287	0.02880
672.45710	0.02778
671.17133	0.02676
669.88556	0.02836
668.59979	0.03271
667.31402	0.03190
666.02825	0.02781
664.74248	0.02734
663.45671	0.02859
662.17095	0.02925
660.88518	0.02919
659.59941	0.02885
658.31364	0.02848
657.02787	0.02823
655.74210	0.02815
654.45633	0.02818
653.17056	0.02829
651.88480	0.02839
650.59903	0.02850
649.31326	0.02864
648.02749	0.02868
646.74172	0.02870
645.45595	0.02880
644.17018	0.02896
642.88441	0.02917
641.59864	0.02941
640.31288	0.02962
639.02711	0.02977
637.74134	0.02987
636.45557	0.02997
635.16980	0.03011
633.88403	0.03033
632.59826	0.03067
631.31249	0.03129
630.02673	0.03229
628.74096	0.03319
627.45519	0.03335
626.16942	0.03466
624.88365	0.03650
623.59788	0.03827
622.31211	0.04045
621.02634	0.04366
619.74057	0.04746
618.45481	0.05080
617.16904	0.05315
615.88327	0.05482
614.59750	0.05639
613.31173	0.05837
612.02596	0.06128
610.74019	0.06544
609.45442	0.07055
608.16866	0.07571
606.88289	0.08028
605.59712	0.08416
604.31135	0.08726
603.02558	0.08923
601.73981	0.08983
600.45404	0.08918
599.16827	0.08756
597.88250	0.08531
596.59674	0.08273
595.31097	0.08011
594.02520	0.07767
592.73943	0.07556
591.45366	0.07387
590.16789	0.07269
588.88212	0.07211
587.59635	0.07215
586.31059	0.07280
585.02482	0.07401
583.73905	0.07573
582.45328	0.07784
581.16751	0.08013
579.88174	0.08242
578.59597	0.08460
577.31020	0.08669
576.02443	0.08872
574.73867	0.09069
573.45290	0.09254
572.16713	0.09433
570.88136	0.09629
569.59559	0.09876
568.30982	0.10191
567.02405	0.10554
565.73828	0.10919
564.45251	0.11230
563.16675	0.11437
561.88098	0.11506
560.59521	0.11421
559.30944	0.11182
558.02367	0.10815
556.73790	0.10362
555.45213	0.09861
554.16636	0.09342
552.88060	0.08827
551.59483	0.08334
550.30906	0.07878
549.02329	0.07461
547.73752	0.07076
546.45175	0.06722
545.16598	0.06399
543.88021	0.06111
542.59444	0.05855
541.30868	0.05627
540.02291	0.05425
538.73714	0.05253
537.45137	0.05108
536.16560	0.04986
534.87983	0.04878
533.59406	0.04773
532.30829	0.04665
531.02253	0.04549
529.73676	0.04432
528.45099	0.04319
527.16522	0.04219
525.87945	0.04135
524.59368	0.04068
523.30791	0.04010
522.02214	0.03950
520.73637	0.03885
519.45061	0.03822
518.16484	0.03766
516.87907	0.03717
515.59330	0.03670
514.30753	0.03620
513.02176	0.03566
511.73599	0.03515
510.45022	0.03472
509.16446	0.03441
507.87869	0.03416
506.59292	0.03389
505.30715	0.03346
504.02138	0.03285
502.73561	0.03214
501.44984	0.03147
500.16407	0.03096
498.87830	0.03066
497.59254	0.03048
496.30677	0.03029
495.02100	0.02997
493.73523	0.02957
492.44946	0.02922
491.16369	0.02900
489.87792	0.02885
488.59215	0.02869
487.30639	0.02846
486.02062	0.02822
484.73485	0.02801
483.44908	0.02790
482.16331	0.02792
480.87754	0.02806
479.59177	0.02826
478.30600	0.02844
477.02023	0.02857
475.73447	0.02870
474.44870	0.02886
473.16293	0.02907
471.87716	0.02927
470.59139	0.02938
469.30562	0.02939
468.01985	0.02930
466.73408	0.02915
465.44832	0.02893
464.16255	0.02866
462.87678	0.02837
461.59101	0.02806
460.30524	0.02772
459.01947	0.02736
457.73370	0.02703
456.44793	0.02676
455.16216	0.02652
453.87640	0.02632
452.59063	0.02617
451.30486	0.02607
450.01909	0.02593
448.73332	0.02571
447.44755	0.02541
446.16178	0.02506
444.87601	0.02471
443.59025	0.02442
442.30448	0.02421
441.01871	0.02408
439.73294	0.02398
438.44717	0.02388
437.16140	0.02376
435.87563	0.02360
434.58986	0.02343
433.30409	0.02327
432.01833	0.02319
430.73256	0.02317
429.44679	0.02318
428.16102	0.02317
426.87525	0.02310
425.58948	0.02298
424.30371	0.02284
423.01794	0.02269
421.73218	0.02252
420.44641	0.02234
419.16064	0.02218
417.87487	0.02209
416.58910	0.02203
415.30333	0.02196
414.01756	0.02184
412.73179	0.02168
411.44602	0.02151
410.16026	0.02137
408.87449	0.02130
407.58872	0.02132
406.30295	0.02141
405.01718	0.02156
403.73141	0.02173
402.44564	0.02191
401.15987	0.02209
399.87411	0.02228
