3997.45528	0.08047
3996.16951	0.08032
3994.88374	0.08026
3993.59798	0.08042
3992.31221	0.08087
3991.02644	0.08139
3989.74067	0.08156
3988.45490	0.08122
3987.16913	0.08064
3985.88336	0.08026
3984.59759	0.08025
3983.31183	0.08047
3982.02606	0.08063
3980.74029	0.08041
3979.45452	0.07967
3978.16875	0.07866
3976.88298	0.07788
3975.59721	0.07772
3974.31144	0.07816
3973.02567	0.07882
3971.73991	0.07925
3970.45414	0.07921
3969.16837	0.07874
3967.88260	0.07822
3966.59683	0.07804
3965.31106	0.07825
3964.02529	0.07852
3962.73952	0.07846
3961.45376	0.07806
3960.16799	0.07762
3958.88222	0.07733
3957.59645	0.07712
3956.31068	0.07695
3955.02491	0.07702
3953.73914	0.07750
3952.45337	0.07817
3951.16760	0.07858
3949.88184	0.07844
3948.59607	0.07782
3947.31030	0.07704
3946.02453	0.07636
3944.73876	0.07588
3943.45299	0.07556
3942.16722	0.07537
3940.88145	0.07531
3939.59569	0.07544
3938.30992	0.07573
3937.02415	0.07600
3935.73838	0.07614
3934.45261	0.07620
3933.16684	0.07627
3931.88107	0.07634
3930.59530	0.07634
3929.30953	0.07622
3928.02377	0.07600
3926.73800	0.07567
3925.45223	0.07529
3924.16646	0.07496
3922.88069	0.07471
3921.59492	0.07452
3920.30915	0.07439
3919.02338	0.07431
3917.73762	0.07422
3916.45185	0.07408
3915.16608	0.07389
3913.88031	0.07371
3912.59454	0.07353
3911.30877	0.07335
3910.02300	0.07326
3908.73723	0.07330
3907.45146	0.07331
3906.16570	0.07308
3904.87993	0.07269
3903.59416	0.07244
3902.30839	0.07248
3901.02262	0.07256
3899.73685	0.07233
3898.45108	0.07181
3897.16531	0.07132
3895.87955	0.07112
3894.59378	0.07117
3893.30801	0.07128
3892.02224	0.07139
3890.73647	0.07164
3889.45070	0.07213
3888.16493	0.07273
3886.87916	0.07310
3885.59339	0.07291
3884.30763	0.07208
3883.02186	0.07079
3881.73609	0.06945
3880.45032	0.06848
3879.16455	0.06810
3877.87878	0.06830
3876.59301	0.06884
3875.30724	0.06941
3874.02148	0.06981
3872.73571	0.06999
3871.44994	0.07006
3870.16417	0.07013
3868.87840	0.07016
3867.59263	0.07001
3866.30686	0.06968
3865.02109	0.06935
3863.73532	0.06925
3862.44956	0.06946
3861.16379	0.06976
3859.87802	0.06993
3858.59225	0.06989
3857.30648	0.06960
3856.02071	0.06899
3854.73494	0.06809
3853.44917	0.06725
3852.16341	0.06693
3850.87764	0.06730
3849.59187	0.06810
3848.30610	0.06885
3847.02033	0.06921
3845.73456	0.06919
3844.44879	0.06895
3843.16302	0.06869
3841.87725	0.06850
3840.59149	0.06842
3839.30572	0.06844
3838.01995	0.06842
3836.73418	0.06824
3835.44841	0.06794
3834.16264	0.06762
3832.87687	0.06730
3831.59110	0.06694
3830.30534	0.06672
3829.01957	0.06691
3827.73380	0.06760
3826.44803	0.06848
3825.16226	0.06906
3823.87649	0.06905
3822.59072	0.06853
3821.30495	0.06784
3820.01918	0.06724
3818.73342	0.06675
3817.44765	0.06633
3816.16188	0.06601
3814.87611	0.06594
3813.59034	0.06614
3812.30457	0.06654
3811.01880	0.06705
3809.73303	0.06750
3808.44726	0.06756
3807.16150	0.06702
3805.87573	0.06611
3804.58996	0.06531
3803.30419	0.06489
3802.01842	0.06475
3800.73265	0.06468
3799.44688	0.06461
3798.16111	0.06453
3796.87535	0.06451
3795.58958	0.06461
3794.30381	0.06490
3793.01804	0.06527
3791.73227	0.06553
3790.44650	0.06568
3789.16073	0.06582
3787.87496	0.06588
3786.58919	0.06563
3785.30343	0.06504
3784.01766	0.06447
3782.73189	0.06433
3781.44612	0.06467
3780.16035	0.06506
3778.87458	0.06503
3777.58881	0.06444
3776.30304	0.06349
3775.01728	0.06256
3773.73151	0.06204
3772.44574	0.06211
3771.15997	0.06275
3769.87420	0.06367
3768.58843	0.06449
3767.30266	0.06491
3766.01689	0.06498
3764.73112	0.06500
3763.44536	0.06519
3762.15959	0.06542
3760.87382	0.06535
3759.58805	0.06482
3758.30228	0.06417
3757.01651	0.06383
3755.73074	0.06394
3754.44497	0.06417
3753.15921	0.06416
3751.87344	0.06397
3750.58767	0.06393
3749.30190	0.06425
3748.01613	0.06483
3746.73036	0.06551
3745.44459	0.06606
3744.15882	0.06627
3742.87305	0.06603
3741.58729	0.06555
3740.30152	0.06519
3739.01575	0.06512
3737.72998	0.06514
3736.44421	0.06498
3735.15844	0.06463
3733.87267	0.06446
3732.58690	0.06478
3731.30114	0.06540
3730.01537	0.06574
3728.72960	0.06534
3727.44383	0.06423
3726.15806	0.06288
3724.87229	0.06183
3723.58652	0.06148
3722.30075	0.06175
3721.01498	0.06213
3719.72922	0.06219
3718.44345	0.06196
3717.15768	0.06183
3715.87191	0.06202
3714.58614	0.06236
3713.30037	0.06253
3712.01460	0.06237
3710.72883	0.06203
3709.44307	0.06182
3708.15730	0.06189
3706.87153	0.06209
3705.58576	0.06212
3704.29999	0.06193
3703.01422	0.06169
3701.72845	0.06157
3700.44268	0.06156
3699.15691	0.06155
3697.87115	0.06143
3696.58538	0.06123
3695.29961	0.06112
3694.01384	0.06130
3692.72807	0.06170
3691.44230	0.06201
3690.15653	0.06197
3688.87076	0.06150
3687.58500	0.06081
3686.29923	0.06010
3685.01346	0.05948
3683.72769	0.05909
3682.44192	0.05912
3681.15615	0.05946
3679.87038	0.05967
3678.58461	0.05933
3677.29884	0.05856
3676.01308	0.05790
3674.72731	0.05778
3673.44154	0.05822
3672.15577	0.05896
3670.87000	0.05965
3669.58423	0.05995
3668.29846	0.05968
3667.01269	0.05898
3665.72693	0.05829
3664.44116	0.05800
3663.15539	0.05817
3661.86962	0.05856
3660.58385	0.05894
3659.29808	0.05928
3658.01231	0.05965
3656.72654	0.05998
3655.44077	0.06016
3654.15501	0.06020
3652.86924	0.06024
3651.58347	0.06035
3650.29770	0.06045
3649.01193	0.06037
3647.72616	0.05996
3646.44039	0.05926
3645.15462	0.05851
3643.86886	0.05809
3642.58309	0.05819
3641.29732	0.05862
3640.01155	0.05891
3638.72578	0.05885
3637.44001	0.05865
3636.15424	0.05874
3634.86847	0.05926
3633.58270	0.05994
3632.29694	0.06043
3631.01117	0.06059
3629.72540	0.06053
3628.43963	0.06043
3627.15386	0.06035
3625.86809	0.06032
3624.58232	0.06040
3623.29655	0.06061
3622.01079	0.06088
3620.72502	0.06105
3619.43925	0.06100
3618.15348	0.06085
3616.86771	0.06092
3615.58194	0.06137
3614.29617	0.06200
3613.01040	0.06234
3611.72463	0.06216
3610.43887	0.06161
3609.15310	0.06105
3607.86733	0.06072
3606.58156	0.06062
3605.29579	0.06077
3604.01002	0.06125
3602.72425	0.06202
3601.43848	0.06282
3600.15272	0.06330
3598.86695	0.06328
3597.58118	0.06298
3596.29541	0.06276
3595.00964	0.06291
3593.72387	0.06331
3592.43810	0.06356
3591.15233	0.06346
3589.86656	0.06325
3588.58080	0.06330
3587.29503	0.06368
3586.00926	0.06425
3584.72349	0.06482
3583.43772	0.06538
3582.15195	0.06588
3580.86618	0.06618
3579.58041	0.06616
3578.29464	0.06583
3577.00888	0.06544
3575.72311	0.06530
3574.43734	0.06554
3573.15157	0.06600
3571.86580	0.06644
3570.58003	0.06677
3569.29426	0.06700
3568.00849	0.06706
3566.72273	0.06689
3565.43696	0.06661
3564.15119	0.06645
3562.86542	0.06648
3561.57965	0.06655
3560.29388	0.06651
3559.00811	0.06644
3557.72234	0.06646
3556.43657	0.06656
3555.15081	0.06659
3553.86504	0.06646
3552.57927	0.06617
3551.29350	0.06576
3550.00773	0.06532
3548.72196	0.06508
3547.43619	0.06527
3546.15042	0.06587
3544.86466	0.06646
3543.57889	0.06658
3542.29312	0.06614
3541.00735	0.06551
3539.72158	0.06526
3538.43581	0.06561
3537.15004	0.06640
3535.86427	0.06729
3534.57850	0.06807
3533.29274	0.06862
3532.00697	0.06892
3530.72120	0.06901
3529.43543	0.06895
3528.14966	0.06868
3526.86389	0.06815
3525.57812	0.06761
3524.29235	0.06752
3523.00659	0.06805
3521.72082	0.06881
3520.43505	0.06926
3519.14928	0.06922
3517.86351	0.06893
3516.57774	0.06871
3515.29197	0.06861
3514.00620	0.06855
3512.72043	0.06846
3511.43467	0.06845
3510.14890	0.06862
3508.86313	0.06893
3507.57736	0.06928
3506.29159	0.06962
3505.00582	0.06992
3503.72005	0.07007
3502.43428	0.07003
3501.14852	0.06990
3499.86275	0.06987
3498.57698	0.07001
3497.29121	0.07018
3496.00544	0.07018
3494.71967	0.06994
3493.43390	0.06966
3492.14813	0.06958
3490.86236	0.06976
3489.57660	0.06998
3488.29083	0.06998
3487.00506	0.06976
3485.71929	0.06954
3484.43352	0.06960
3483.14775	0.07003
3481.86198	0.07069
3480.57621	0.07125
3479.29045	0.07138
3478.00468	0.07100
3476.71891	0.07046
3475.43314	0.07026
3474.14737	0.07059
3472.86160	0.07114
3471.57583	0.07151
3470.29006	0.07167
3469.00429	0.07183
3467.71853	0.07211
3466.43276	0.07239
3465.14699	0.07255
3463.86122	0.07262
3462.57545	0.07264
3461.28968	0.07259
3460.00391	0.07243
3458.71814	0.07224
3457.43238	0.07210
3456.14661	0.07202
3454.86084	0.07197
3453.57507	0.07195
3452.28930	0.07202
3451.00353	0.07221
3449.71776	0.07249
3448.43199	0.07277
3447.14622	0.07293
3445.86046	0.07288
3444.57469	0.07265
3443.28892	0.07240
3442.00315	0.07235
3440.71738	0.07256
3439.43161	0.07286
3438.14584	0.07298
3436.86007	0.07290
3435.57431	0.07286
3434.28854	0.07305
3433.00277	0.07332
3431.71700	0.07338
3430.43123	0.07323
3429.14546	0.07321
3427.85969	0.07356
3426.57392	0.07411
3425.28815	0.07446
3424.00239	0.07442
3422.71662	0.07411
3421.43085	0.07372
3420.14508	0.07335
3418.85931	0.07306
3417.57354	0.07295
3416.28777	0.07308
3415.00200	0.07339
3413.71624	0.07378
3412.43047	0.07414
3411.14470	0.07437
3409.85893	0.07441
3408.57316	0.07438
3407.28739	0.07446
3406.00162	0.07469
3404.71585	0.07490
3403.43008	0.07491
3402.14432	0.07478
3400.85855	0.07473
3399.57278	0.07483
3398.28701	0.07499
3397.00124	0.07506
3395.71547	0.07500
3394.42970	0.07481
3393.14393	0.07451
3391.85817	0.07418
3390.57240	0.07402
3389.28663	0.07414
3388.00086	0.07450
3386.71509	0.07498
3385.42932	0.07550
3384.14355	0.07597
3382.85778	0.07634
3381.57201	0.07658
3380.28625	0.07675
3379.00048	0.07689
3377.71471	0.07693
3376.42894	0.07683
3375.14317	0.07666
3373.85740	0.07657
3372.57163	0.07661
3371.28586	0.07671
3370.00010	0.07677
3368.71433	0.07679
3367.42856	0.07685
3366.14279	0.07697
3364.85702	0.07708
3363.57125	0.07714
3362.28548	0.07717
3360.99971	0.07725
3359.71394	0.07738
3358.42818	0.07748
3357.14241	0.07746
3355.85664	0.07736
3354.57087	0.07727
3353.28510	0.07730
3351.99933	0.07748
3350.71356	0.07777
3349.42779	0.07802
3348.14202	0.07811
3346.85626	0.07799
3345.57049	0.07771
3344.28472	0.07738
3342.99895	0.07711
3341.71318	0.07694
3340.42741	0.07679
3339.14164	0.07665
3337.85587	0.07659
3336.57011	0.07679
3335.28434	0.07730
3333.99857	0.07796
3332.71280	0.07851
3331.42703	0.07876
3330.14126	0.07865
3328.85549	0.07831
3327.56972	0.07805
3326.28395	0.07816
3324.99819	0.07864
3323.71242	0.07926
3322.42665	0.07973
3321.14088	0.07993
3319.85511	0.07995
3318.56934	0.07986
3317.28357	0.07972
3315.99780	0.07957
3314.71204	0.07947
3313.42627	0.07955
3312.14050	0.07982
3310.85473	0.08014
3309.56896	0.08036
3308.28319	0.08035
3306.99742	0.08012
3305.71165	0.07981
3304.42588	0.07964
3303.14012	0.07971
3301.85435	0.07996
3300.56858	0.08017
3299.28281	0.08015
3297.99704	0.07986
3296.71127	0.07940
3295.42550	0.07900
3294.13973	0.07881
3292.85397	0.07881
3291.56820	0.07877
3290.28243	0.07847
3288.99666	0.07796
3287.71089	0.07745
3286.42512	0.07716
3285.13935	0.07722
3283.85358	0.07768
3282.56781	0.07853
3281.28205	0.07952
3279.99628	0.08032
3278.71051	0.08065
3277.42474	0.08053
3276.13897	0.08022
3274.85320	0.07996
3273.56743	0.07984
3272.28166	0.07974
3270.99590	0.07947
3269.71013	0.07896
3268.42436	0.07827
3267.13859	0.07758
3265.85282	0.07716
3264.56705	0.07719
3263.28128	0.07767
3261.99551	0.07834
3260.70974	0.07888
3259.42398	0.07909
3258.13821	0.07898
3256.85244	0.07869
3255.56667	0.07836
3254.28090	0.07801
3252.99513	0.07763
3251.70936	0.07727
3250.42359	0.07698
3249.13783	0.07678
3247.85206	0.07666
3246.56629	0.07668
3245.28052	0.07685
3243.99475	0.07708
3242.70898	0.07716
3241.42321	0.07696
3240.13744	0.07662
3238.85167	0.07640
3237.56591	0.07646
3236.28014	0.07667
3234.99437	0.07673
3233.70860	0.07650
3232.42283	0.07610
3231.13706	0.07578
3229.85129	0.07575
3228.56552	0.07598
3227.27976	0.07630
3225.99399	0.07646
3224.70822	0.07631
3223.42245	0.07589
3222.13668	0.07545
3220.85091	0.07515
3219.56514	0.07500
3218.27937	0.07483
3216.99360	0.07460
3215.70784	0.07443
3214.42207	0.07449
3213.13630	0.07475
3211.85053	0.07496
3210.56476	0.07490
3209.27899	0.07455
3207.99322	0.07407
3206.70745	0.07364
3205.42169	0.07335
3204.13592	0.07325
3202.85015	0.07330
3201.56438	0.07342
3200.27861	0.07348
3198.99284	0.07340
3197.70707	0.07320
3196.42130	0.07296
3195.13553	0.07273
3193.84977	0.07252
3192.56400	0.07233
3191.27823	0.07211
3189.99246	0.07193
3188.70669	0.07184
3187.42092	0.07184
3186.13515	0.07179
3184.84938	0.07164
3183.56362	0.07155
3182.27785	0.07171
3180.99208	0.07204
3179.70631	0.07225
3178.42054	0.07209
3177.13477	0.07153
3175.84900	0.07074
3174.56323	0.06998
3173.27746	0.06950
3171.99170	0.06946
3170.70593	0.06978
3169.42016	0.07018
3168.13439	0.07041
3166.84862	0.07038
3165.56285	0.07019
3164.27708	0.06998
3162.99131	0.06983
3161.70555	0.06980
3160.41978	0.06988
3159.13401	0.06997
3157.84824	0.06993
3156.56247	0.06967
3155.27670	0.06930
3153.99093	0.06893
3152.70516	0.06865
3151.41939	0.06842
3150.13363	0.06817
3148.84786	0.06784
3147.56209	0.06737
3146.27632	0.06682
3144.99055	0.06635
3143.70478	0.06610
3142.41901	0.06616
3141.13324	0.06649
3139.84748	0.06695
3138.56171	0.06733
3137.27594	0.06748
3135.99017	0.06735
3134.70440	0.06703
3133.41863	0.06664
3132.13286	0.06628
3130.84709	0.06596
3129.56132	0.06569
3128.27556	0.06545
3126.98979	0.06523
3125.70402	0.06503
3124.41825	0.06491
3123.13248	0.06485
3121.84671	0.06482
3120.56094	0.06480
3119.27517	0.06486
3117.98940	0.06508
3116.70364	0.06544
3115.41787	0.06577
3114.13210	0.06586
3112.84633	0.06565
3111.56056	0.06525
3110.27479	0.06485
3108.98902	0.06456
3107.70325	0.06439
3106.41749	0.06426
3105.13172	0.06404
3103.84595	0.06375
3102.56018	0.06349
3101.27441	0.06347
3099.98864	0.06375
3098.70287	0.06418
3097.41710	0.06450
3096.13133	0.06454
3094.84557	0.06438
3093.55980	0.06418
3092.27403	0.06403
3090.98826	0.06397
3089.70249	0.06395
3088.41672	0.06396
3087.13095	0.06395
3085.84518	0.06387
3084.55942	0.06372
3083.27365	0.06357
3081.98788	0.06349
3080.70211	0.06342
3079.41634	0.06329
3078.13057	0.06311
3076.84480	0.06297
3075.55903	0.06297
3074.27326	0.06309
3072.98750	0.06327
3071.70173	0.06345
3070.41596	0.06358
3069.13019	0.06354
3067.84442	0.06326
3066.55865	0.06281
3065.27288	0.06240
3063.98711	0.06221
3062.70135	0.06216
3061.41558	0.06214
3060.12981	0.06210
3058.84404	0.06211
3057.55827	0.06224
3056.27250	0.06244
3054.98673	0.06262
3053.70096	0.06270
3052.41519	0.06265
3051.12943	0.06247
3049.84366	0.06217
3048.55789	0.06179
3047.27212	0.06143
3045.98635	0.06122
3044.70058	0.06113
3043.41481	0.06107
3042.12904	0.06099
3040.84328	0.06095
3039.55751	0.06097
3038.27174	0.06094
3036.98597	0.06075
3035.70020	0.06041
3034.41443	0.06004
3033.12866	0.05974
3031.84289	0.05954
3030.55712	0.05944
3029.27136	0.05944
3027.98559	0.05945
3026.69982	0.05929
3025.41405	0.05894
3024.12828	0.05853
3022.84251	0.05822
3021.55674	0.05808
3020.27097	0.05802
3018.98521	0.05797
3017.69944	0.05789
3016.41367	0.05783
3015.12790	0.05786
3013.84213	0.05797
3012.55636	0.05808
3011.27059	0.05812
3009.98482	0.05807
3008.69905	0.05799
3007.41329	0.05790
3006.12752	0.05777
3004.84175	0.05757
3003.55598	0.05733
3002.27021	0.05703
3000.98444	0.05669
2999.69867	0.05636
2998.41290	0.05615
2997.12714	0.05618
2995.84137	0.05637
2994.55560	0.05662
2993.26983	0.05685
2991.98406	0.05702
2990.69829	0.05709
2989.41252	0.05701
2988.12675	0.05692
2986.84098	0.05698
2985.55522	0.05729
2984.26945	0.05768
2982.98368	0.05792
2981.69791	0.05789
2980.41214	0.05772
2979.12637	0.05763
2977.84060	0.05778
2976.55483	0.05813
2975.26907	0.05846
2973.98330	0.05857
2972.69753	0.05843
2971.41176	0.05812
2970.12599	0.05777
2968.84022	0.05752
2967.55445	0.05750
2966.26868	0.05782
2964.98291	0.05838
2963.69715	0.05888
2962.41138	0.05907
2961.12561	0.05895
2959.83984	0.05867
2958.55407	0.05838
2957.26830	0.05815
2955.98253	0.05805
2954.69676	0.05814
2953.41100	0.05835
2952.12523	0.05850
2950.83946	0.05844
2949.55369	0.05823
2948.26792	0.05802
2946.98215	0.05796
2945.69638	0.05804
2944.41061	0.05815
2943.12484	0.05813
2941.83908	0.05793
2940.55331	0.05766
2939.26754	0.05745
2937.98177	0.05736
2936.69600	0.05733
2935.41023	0.05728
2934.12446	0.05718
2932.83869	0.05709
2931.55293	0.05706
2930.26716	0.05711
2928.98139	0.05716
2927.69562	0.05705
2926.40985	0.05674
2925.12408	0.05630
2923.83831	0.05588
2922.55254	0.05550
2921.26677	0.05515
2919.98101	0.05487
2918.69524	0.05474
2917.40947	0.05476
2916.12370	0.05483
2914.83793	0.05482
2913.55216	0.05466
2912.26639	0.05439
2910.98062	0.05415
2909.69486	0.05401
2908.40909	0.05395
2907.12332	0.05386
2905.83755	0.05370
2904.55178	0.05360
2903.26601	0.05371
2901.98024	0.05395
2900.69447	0.05403
2899.40870	0.05376
2898.12294	0.05325
2896.83717	0.05282
2895.55140	0.05269
2894.26563	0.05281
2892.97986	0.05297
2891.69409	0.05301
2890.40832	0.05293
2889.12255	0.05282
2887.83678	0.05277
2886.55102	0.05278
2885.26525	0.05278
2883.97948	0.05270
2882.69371	0.05250
2881.40794	0.05227
2880.12217	0.05210
2878.83640	0.05199
2877.55063	0.05185
2876.26487	0.05166
2874.97910	0.05152
2873.69333	0.05150
2872.40756	0.05158
2871.12179	0.05169
2869.83602	0.05179
2868.55025	0.05183
2867.26448	0.05166
2865.97871	0.05122
2864.69295	0.05066
2863.40718	0.05018
2862.12141	0.04991
2860.83564	0.04977
2859.54987	0.04968
2858.26410	0.04966
2856.97833	0.04974
2855.69256	0.04978
2854.40680	0.04965
2853.12103	0.04934
2851.83526	0.04893
2850.54949	0.04854
2849.26372	0.04822
2847.97795	0.04802
2846.69218	0.04798
2845.40641	0.04801
2844.12064	0.04795
2842.83488	0.04768
2841.54911	0.04730
2840.26334	0.04701
2838.97757	0.04693
2837.69180	0.04699
2836.40603	0.04702
2835.12026	0.04697
2833.83449	0.04693
2832.54873	0.04697
2831.26296	0.04700
2829.97719	0.04690
2828.69142	0.04670
2827.40565	0.04654
2826.11988	0.04651
2824.83411	0.04654
2823.54834	0.04654
2822.26257	0.04650
2820.97681	0.04644
2819.69104	0.04634
2818.40527	0.04616
2817.11950	0.04597
2815.83373	0.04578
2814.54796	0.04552
2813.26219	0.04514
2811.97642	0.04477
2810.69066	0.04457
2809.40489	0.04452
2808.11912	0.04445
2806.83335	0.04433
2805.54758	0.04431
2804.26181	0.04451
2802.97604	0.04478
2801.69027	0.04488
2800.40450	0.04473
2799.11874	0.04449
2797.83297	0.04428
2796.54720	0.04408
2795.26143	0.04381
2793.97566	0.04352
2792.68989	0.04326
2791.40412	0.04311
2790.11835	0.04308
2788.83259	0.04316
2787.54682	0.04324
2786.26105	0.04320
2784.97528	0.04303
2783.68951	0.04286
2782.40374	0.04280
2781.11797	0.04291
2779.83220	0.04313
2778.54643	0.04331
2777.26067	0.04330
2775.97490	0.04311
2774.68913	0.04287
2773.40336	0.04269
2772.11759	0.04253
2770.83182	0.04234
2769.54605	0.04213
2768.26028	0.04198
2766.97452	0.04190
2765.68875	0.04185
2764.40298	0.04182
2763.11721	0.04178
2761.83144	0.04171
2760.54567	0.04164
2759.25990	0.04169
2757.97413	0.04190
2756.68836	0.04215
2755.40260	0.04227
2754.11683	0.04217
2752.83106	0.04189
2751.54529	0.04157
2750.25952	0.04133
2748.97375	0.04121
2747.68798	0.04123
2746.40221	0.04129
2745.11645	0.04127
2743.83068	0.04110
2742.54491	0.04085
2741.25914	0.04068
2739.97337	0.04066
2738.68760	0.04068
2737.40183	0.04061
2736.11606	0.04047
2734.83029	0.04040
2733.54453	0.04047
2732.25876	0.04052
2730.97299	0.04037
2729.68722	0.04002
2728.40145	0.03963
2727.11568	0.03936
2725.82991	0.03930
2724.54414	0.03940
2723.25838	0.03954
2721.97261	0.03960
2720.68684	0.03956
2719.40107	0.03948
2718.11530	0.03944
2716.82953	0.03948
2715.54376	0.03955
2714.25799	0.03961
2712.97222	0.03956
2711.68646	0.03932
2710.40069	0.03894
2709.11492	0.03850
2707.82915	0.03812
2706.54338	0.03788
2705.25761	0.03782
2703.97184	0.03798
2702.68607	0.03827
2701.40031	0.03854
2700.11454	0.03865
2698.82877	0.03858
2697.54300	0.03840
2696.25723	0.03824
2694.97146	0.03812
2693.68569	0.03804
2692.39992	0.03801
2691.11415	0.03803
2689.82839	0.03810
2688.54262	0.03815
2687.25685	0.03810
2685.97108	0.03799
2684.68531	0.03787
2683.39954	0.03778
2682.11377	0.03771
2680.82800	0.03760
2679.54224	0.03744
2678.25647	0.03728
2676.97070	0.03722
2675.68493	0.03728
2674.39916	0.03739
2673.11339	0.03742
2671.82762	0.03734
2670.54185	0.03725
2669.25608	0.03727
2667.97032	0.03741
2666.68455	0.03756
2665.39878	0.03759
2664.11301	0.03747
2662.82724	0.03728
2661.54147	0.03713
2660.25570	0.03707
2658.96993	0.03709
2657.68417	0.03708
2656.39840	0.03695
2655.11263	0.03668
2653.82686	0.03638
2652.54109	0.03619
2651.25532	0.03616
2649.96955	0.03626
2648.68378	0.03638
2647.39801	0.03646
2646.11225	0.03648
2644.82648	0.03643
2643.54071	0.03632
2642.25494	0.03617
2640.96917	0.03599
2639.68340	0.03576
2638.39763	0.03545
2637.11186	0.03510
2635.82609	0.03476
2634.54033	0.03453
2633.25456	0.03450
2631.96879	0.03463
2630.68302	0.03478
2629.39725	0.03475
2628.11148	0.03454
2626.82571	0.03434
2625.53994	0.03433
2624.25418	0.03447
2622.96841	0.03460
2621.68264	0.03460
2620.39687	0.03444
2619.11110	0.03417
2617.82533	0.03393
2616.53956	0.03378
2615.25379	0.03372
2613.96802	0.03365
2612.68226	0.03354
2611.39649	0.03341
2610.11072	0.03332
2608.82495	0.03332
2607.53918	0.03339
2606.25341	0.03338
2604.96764	0.03314
2603.68187	0.03282
2602.39611	0.03271
2601.11034	0.03288
2599.82457	0.03309
2598.53880	0.03309
2597.25303	0.03285
2595.96726	0.03258
2594.68149	0.03238
2593.39572	0.03230
2592.10995	0.03231
2590.82419	0.03240
2589.53842	0.03254
2588.25265	0.03264
2586.96688	0.03264
2585.68111	0.03247
2584.39534	0.03218
2583.10957	0.03188
2581.82380	0.03164
2580.53804	0.03147
2579.25227	0.03128
2577.96650	0.03105
2576.68073	0.03083
2575.39496	0.03063
2574.10919	0.03048
2572.82342	0.03045
2571.53765	0.03060
2570.25188	0.03089
2568.96612	0.03114
2567.68035	0.03127
2566.39458	0.03139
2565.10881	0.03151
2563.82304	0.03154
2562.53727	0.03137
2561.25150	0.03117
2559.96573	0.03109
2558.67997	0.03105
2557.39420	0.03088
2556.10843	0.03057
2554.82266	0.03030
2553.53689	0.03018
2552.25112	0.03005
2550.96535	0.02984
2549.67958	0.02967
2548.39381	0.02976
2547.10805	0.03004
2545.82228	0.03021
2544.53651	0.03008
2543.25074	0.02976
2541.96497	0.02952
2540.67920	0.02952
2539.39343	0.02967
2538.10766	0.02979
2536.82190	0.02976
2535.53613	0.02955
2534.25036	0.02925
2532.96459	0.02896
2531.67882	0.02872
2530.39305	0.02855
2529.10728	0.02847
2527.82151	0.02853
2526.53574	0.02869
2525.24998	0.02890
2523.96421	0.02908
2522.67844	0.02914
2521.39267	0.02901
2520.10690	0.02873
2518.82113	0.02850
2517.53536	0.02849
2516.24959	0.02873
2514.96383	0.02902
2513.67806	0.02910
2512.39229	0.02890
2511.10652	0.02855
2509.82075	0.02824
2508.53498	0.02814
2507.24921	0.02832
2505.96344	0.02875
2504.67767	0.02911
2503.39191	0.02910
2502.10614	0.02869
2500.82037	0.02826
2499.53460	0.02815
2498.24883	0.02831
2496.96306	0.02840
2495.67729	0.02819
2494.39152	0.02778
2493.10576	0.02748
2491.81999	0.02751
2490.53422	0.02775
2489.24845	0.02793
2487.96268	0.02797
2486.67691	0.02799
2485.39114	0.02805
2484.10537	0.02797
2482.81960	0.02770
2481.53384	0.02742
2480.24807	0.02736
2478.96230	0.02749
2477.67653	0.02764
2476.39076	0.02772
2475.10499	0.02778
2473.81922	0.02789
2472.53345	0.02804
2471.24769	0.02813
2469.96192	0.02806
2468.67615	0.02783
2467.39038	0.02757
2466.10461	0.02746
2464.81884	0.02759
2463.53307	0.02784
2462.24730	0.02799
2460.96153	0.02796
2459.67577	0.02791
2458.39000	0.02801
2457.10423	0.02828
2455.81846	0.02849
2454.53269	0.02843
2453.24692	0.02812
2451.96115	0.02773
2450.67538	0.02740
2449.38962	0.02712
2448.10385	0.02684
2446.81808	0.02654
2445.53231	0.02628
2444.24654	0.02609
2442.96077	0.02598
2441.67500	0.02590
2440.38923	0.02587
2439.10346	0.02594
2437.81770	0.02613
2436.53193	0.02632
2435.24616	0.02632
2433.96039	0.02612
2432.67462	0.02594
2431.38885	0.02605
2430.10308	0.02642
2428.81731	0.02667
2427.53155	0.02651
2426.24578	0.02605
2424.96001	0.02569
2423.67424	0.02565
2422.38847	0.02576
2421.10270	0.02581
2419.81693	0.02571
2418.53116	0.02561
2417.24539	0.02561
2415.95963	0.02571
2414.67386	0.02590
2413.38809	0.02612
2412.10232	0.02634
2410.81655	0.02648
2409.53078	0.02654
2408.24501	0.02660
2406.95924	0.02672
2405.67347	0.02685
2404.38771	0.02693
2403.10194	0.02694
2401.81617	0.02693
2400.53040	0.02686
2399.24463	0.02663
2397.95886	0.02625
2396.67309	0.02581
2395.38732	0.02545
2394.10156	0.02524
2392.81579	0.02518
2391.53002	0.02523
2390.24425	0.02540
2388.95848	0.02570
2387.67271	0.02605
2386.38694	0.02632
2385.10117	0.02640
2383.81540	0.02633
2382.52964	0.02618
2381.24387	0.02604
2379.95810	0.02594
2378.67233	0.02585
2377.38656	0.02573
2376.10079	0.02555
2374.81502	0.02540
2373.52925	0.02534
2372.24349	0.02542
2370.95772	0.02552
2369.67195	0.02556
2368.38618	0.02548
2367.10041	0.02531
2365.81464	0.02512
2364.52887	0.02503
2363.24310	0.02506
2361.95733	0.02515
2360.67157	0.02522
2359.38580	0.02529
2358.10003	0.02542
2356.81426	0.02565
2355.52849	0.02599
2354.24272	0.02633
2352.95695	0.02644
2351.67118	0.02625
2350.38542	0.02598
2349.09965	0.02592
2347.81388	0.02605
2346.52811	0.02605
2345.24234	0.02599
2343.95657	0.02619
2342.67080	0.02655
2341.38503	0.02644
2340.09926	0.02579
2338.81350	0.02542
2337.52773	0.02557
2336.24196	0.02546
2334.95619	0.02518
2333.67042	0.02551
2332.38465	0.02608
2331.09888	0.02591
2329.81311	0.02568
2328.52735	0.02617
2327.24158	0.02651
2325.95581	0.02680
2324.67004	0.02747
2323.38427	0.02759
2322.09850	0.02696
2320.81273	0.02648
2319.52696	0.02598
2318.24119	0.02562
2316.95543	0.02574
2315.66966	0.02586
2314.38389	0.02588
2313.09812	0.02592
2311.81235	0.02576
2310.52658	0.02558
2309.24081	0.02542
2307.95504	0.02520
2306.66928	0.02502
2305.38351	0.02482
2304.09774	0.02471
2302.81197	0.02476
2301.52620	0.02485
2300.24043	0.02490
2298.95466	0.02476
2297.66889	0.02442
2296.38312	0.02402
2295.09736	0.02380
2293.81159	0.02389
2292.52582	0.02413
2291.24005	0.02425
2289.95428	0.02412
2288.66851	0.02386
2287.38274	0.02369
2286.09697	0.02372
2284.81121	0.02390
2283.52544	0.02408
2282.23967	0.02409
2280.95390	0.02385
2279.66813	0.02341
2278.38236	0.02292
2277.09659	0.02247
2275.81082	0.02213
2274.52505	0.02194
2273.23929	0.02188
2271.95352	0.02185
2270.66775	0.02170
2269.38198	0.02137
2268.09621	0.02101
2266.81044	0.02078
2265.52467	0.02074
2264.23890	0.02078
2262.95314	0.02076
2261.66737	0.02066
2260.38160	0.02061
2259.09583	0.02065
2257.81006	0.02069
2256.52429	0.02061
2255.23852	0.02032
2253.95275	0.01986
2252.66698	0.01943
2251.38122	0.01925
2250.09545	0.01943
2248.80968	0.01985
2247.52391	0.02018
2246.23814	0.02057
2244.95237	0.02112
2243.66660	0.02172
2242.38083	0.02198
2241.09507	0.02168
2239.80930	0.02092
2238.52353	0.02005
2237.23776	0.01929
2235.95199	0.01870
2234.66622	0.01831
2233.38045	0.01816
2232.09468	0.01811
2230.80891	0.01789
2229.52315	0.01750
2228.23738	0.01726
2226.95161	0.01757
2225.66584	0.01844
2224.38007	0.01945
2223.09430	0.02006
2221.80853	0.01992
2220.52276	0.01907
2219.23700	0.01784
2217.95123	0.01673
2216.66546	0.01615
2215.37969	0.01632
2214.09392	0.01717
2212.80815	0.01827
2211.52238	0.01901
2210.23661	0.01888
2208.95084	0.01795
2207.66508	0.01693
2206.37931	0.01665
2205.09354	0.01725
2203.80777	0.01798
2202.52200	0.01797
2201.23623	0.01710
2199.95046	0.01614
2198.66469	0.01591
2197.37893	0.01650
2196.09316	0.01722
2194.80739	0.01738
2193.52162	0.01684
2192.23585	0.01599
2190.95008	0.01515
2189.66431	0.01440
2188.37854	0.01379
2187.09277	0.01357
2185.80701	0.01389
2184.52124	0.01453
2183.23547	0.01507
2181.94970	0.01527
2180.66393	0.01508
2179.37816	0.01442
2178.09239	0.01325
2176.80662	0.01187
2175.52085	0.01073
2174.23509	0.01008
2172.94932	0.00980
2171.66355	0.00976
2170.37778	0.00994
2169.09201	0.01021
2167.80624	0.01026
2166.52047	0.00990
2165.23470	0.00944
2163.94894	0.00933
2162.66317	0.00957
2161.37740	0.00959
2160.09163	0.00886
2158.80586	0.00766
2157.52009	0.00681
2156.23432	0.00682
2154.94855	0.00744
2153.66278	0.00829
2152.37702	0.00926
2151.09125	0.01032
2149.80548	0.01123
2148.51971	0.01175
2147.23394	0.01190
2145.94817	0.01204
2144.66240	0.01233
2143.37663	0.01258
2142.09087	0.01251
2140.80510	0.01219
2139.51933	0.01197
2138.23356	0.01191
2136.94779	0.01162
2135.66202	0.01089
2134.37625	0.01009
2133.09048	0.00979
2131.80471	0.01006
2130.51895	0.01046
2129.23318	0.01073
2127.94741	0.01111
2126.66164	0.01189
2125.37587	0.01293
2124.09010	0.01379
2122.80433	0.01425
2121.51856	0.01443
2120.23280	0.01453
2118.94703	0.01451
2117.66126	0.01422
2116.37549	0.01381
2115.08972	0.01366
2113.80395	0.01403
2112.51818	0.01467
2111.23241	0.01507
2109.94664	0.01495
2108.66088	0.01444
2107.37511	0.01392
2106.08934	0.01371
2104.80357	0.01397
2103.51780	0.01460
2102.23203	0.01513
2100.94626	0.01506
2099.66049	0.01371
2098.37473	0.01257
2097.08896	0.01202
2095.80319	0.01193
2094.51742	0.01215
2093.23165	0.01257
2091.94588	0.01305
2090.66011	0.01343
2089.37434	0.01355
2088.08857	0.01338
2086.80281	0.01318
2085.51704	0.01332
2084.23127	0.01393
2082.94550	0.01462
2081.65973	0.01484
2080.37396	0.01439
2079.08819	0.01361
2077.80242	0.01290
2076.51666	0.01241
2075.23089	0.01208
2073.94512	0.01179
2072.65935	0.01155
2071.37358	0.01143
2070.08781	0.01143
2068.80204	0.01148
2067.51627	0.01153
2066.23050	0.01151
2064.94474	0.01147
2063.65897	0.01155
2062.37320	0.01190
2061.08743	0.01252
2059.80166	0.01302
2058.51589	0.01290
2057.23012	0.01199
2055.94435	0.01073
2054.65859	0.00984
2053.37282	0.00967
2052.08705	0.00995
2050.80128	0.01005
2049.51551	0.00950
2048.22974	0.00829
2046.94397	0.00681
2045.65820	0.00549
2044.37243	0.00448
2043.08667	0.00374
2041.80090	0.00327
2040.51513	0.00325
2039.22936	0.00383
2037.94359	0.00480
2036.65782	0.00567
2035.37205	0.00613
2034.08628	0.00630
2032.80052	0.00632
2031.51475	0.00607
2030.22898	0.00534
2028.94321	0.00439
2027.65744	0.00386
2026.37167	0.00425
2025.08590	0.00538
2023.80013	0.00651
2022.51436	0.00694
2021.22860	0.00657
2019.94283	0.00584
2018.65706	0.00533
2017.37129	0.00531
2016.08552	0.00569
2014.79975	0.00621
2013.51398	0.00660
2012.22821	0.00671
2010.94245	0.00665
2009.65668	0.00665
2008.37091	0.00675
2007.08514	0.00674
2005.79937	0.00653
2004.51360	0.00642
2003.22783	0.00674
2001.94206	0.00743
2000.65629	0.00815
1999.37053	0.00868
1998.08476	0.00914
1996.79899	0.00979
1995.51322	0.01064
1994.22745	0.01138
1992.94168	0.01168
1991.65591	0.01152
1990.37014	0.01127
1989.08438	0.01122
1987.79861	0.01125
1986.51284	0.01106
1985.22707	0.01050
1983.94130	0.00972
1982.65553	0.00899
1981.36976	0.00849
1980.08399	0.00814
1978.79822	0.00765
1977.51246	0.00682
1976.22669	0.00594
1974.94092	0.00563
1973.65515	0.00615
1972.36938	0.00704
1971.08361	0.00751
1969.79784	0.00731
1968.51207	0.00698
1967.22631	0.00726
1965.94054	0.00815
1964.65477	0.00896
1963.36900	0.00904
1962.08323	0.00845
1960.79746	0.00783
1959.51169	0.00770
1958.22592	0.00800
1956.94015	0.00831
1955.65439	0.00835
1954.36862	0.00824
1953.08285	0.00838
1951.79708	0.00893
1950.51131	0.00966
1949.22554	0.01020
1947.93977	0.01042
1946.65400	0.01054
1945.36823	0.01083
1944.08247	0.01129
1942.79670	0.01168
1941.51093	0.01179
1940.22516	0.01172
1938.93939	0.01175
1937.65362	0.01199
1936.36785	0.01222
1935.08208	0.01215
1933.79632	0.01174
1932.51055	0.01128
1931.22478	0.01109
1929.93901	0.01134
1928.65324	0.01190
1927.36747	0.01246
1926.08170	0.01279
1924.79593	0.01287
1923.51016	0.01278
1922.22440	0.01258
1920.93863	0.01240
1919.65286	0.01237
1918.36709	0.01255
1917.08132	0.01286
1915.79555	0.01317
1914.50978	0.01344
1913.22401	0.01361
1911.93825	0.01359
1910.65248	0.01330
1909.36671	0.01288
1908.08094	0.01257
1906.79517	0.01249
1905.50940	0.01257
1904.22363	0.01264
1902.93786	0.01257
1901.65209	0.01233
1900.36633	0.01200
1899.08056	0.01174
1897.79479	0.01165
1896.50902	0.01176
1895.22325	0.01197
1893.93748	0.01222
1892.65171	0.01254
1891.36594	0.01292
1890.08018	0.01328
1888.79441	0.01349
1887.50864	0.01352
1886.22287	0.01350
1884.93710	0.01351
1883.65133	0.01349
1882.36556	0.01337
1881.07979	0.01316
1879.79402	0.01297
1878.50826	0.01290
1877.22249	0.01299
1875.93672	0.01314
1874.65095	0.01315
1873.36518	0.01297
1872.07941	0.01276
1870.79364	0.01273
1869.50787	0.01292
1868.22211	0.01316
1866.93634	0.01333
1865.65057	0.01342
1864.36480	0.01347
1863.07903	0.01349
1861.79326	0.01346
1860.50749	0.01343
1859.22172	0.01349
1857.93595	0.01361
1856.65019	0.01372
1855.36442	0.01373
1854.07865	0.01363
1852.79288	0.01346
1851.50711	0.01327
1850.22134	0.01313
1848.93557	0.01311
1847.64980	0.01321
1846.36404	0.01331
1845.07827	0.01332
1843.79250	0.01327
1842.50673	0.01324
1841.22096	0.01326
1839.93519	0.01334
1838.64942	0.01348
1837.36365	0.01366
1836.07788	0.01385
1834.79212	0.01394
1833.50635	0.01389
1832.22058	0.01374
1830.93481	0.01360
1829.64904	0.01352
1828.36327	0.01350
1827.07750	0.01347
1825.79173	0.01337
1824.50597	0.01318
1823.22020	0.01296
1821.93443	0.01278
1820.64866	0.01263
1819.36289	0.01251
1818.07712	0.01245
1816.79135	0.01254
1815.50558	0.01281
1814.21981	0.01319
1812.93405	0.01358
1811.64828	0.01385
1810.36251	0.01401
1809.07674	0.01411
1807.79097	0.01421
1806.50520	0.01429
1805.21943	0.01430
1803.93366	0.01420
1802.64790	0.01402
1801.36213	0.01386
1800.07636	0.01379
1798.79059	0.01383
1797.50482	0.01393
1796.21905	0.01404
1794.93328	0.01409
1793.64751	0.01405
1792.36174	0.01393
1791.07598	0.01383
1789.79021	0.01383
1788.50444	0.01391
1787.21867	0.01399
1785.93290	0.01400
1784.64713	0.01394
1783.36136	0.01386
1782.07559	0.01383
1780.78983	0.01386
1779.50406	0.01387
1778.21829	0.01382
1776.93252	0.01371
1775.64675	0.01359
1774.36098	0.01350
1773.07521	0.01345
1771.78944	0.01347
1770.50367	0.01359
1769.21791	0.01383
1767.93214	0.01416
1766.64637	0.01446
1765.36060	0.01463
1764.07483	0.01467
1762.78906	0.01464
1761.50329	0.01461
1760.21752	0.01456
1758.93176	0.01446
1757.64599	0.01436
1756.36022	0.01433
1755.07445	0.01439
1753.78868	0.01446
1752.50291	0.01445
1751.21714	0.01436
1749.93137	0.01426
1748.64560	0.01423
1747.35984	0.01426
1746.07407	0.01431
1744.78830	0.01433
1743.50253	0.01431
1742.21676	0.01427
1740.93099	0.01424
1739.64522	0.01424
1738.35945	0.01426
1737.07369	0.01429
1735.78792	0.01430
1734.50215	0.01431
1733.21638	0.01439
1731.93061	0.01454
1730.64484	0.01473
1729.35907	0.01490
1728.07330	0.01504
1726.78753	0.01518
1725.50177	0.01535
1724.21600	0.01557
1722.93023	0.01579
1721.64446	0.01598
1720.35869	0.01611
1719.07292	0.01622
1717.78715	0.01639
1716.50138	0.01667
1715.21561	0.01705
1713.92985	0.01745
1712.64408	0.01781
1711.35831	0.01813
1710.07254	0.01844
1708.78677	0.01879
1707.50100	0.01921
1706.21523	0.01972
1704.92946	0.02033
1703.64370	0.02098
1702.35793	0.02168
1701.07216	0.02246
1699.78639	0.02337
1698.50062	0.02442
1697.21485	0.02554
1695.92908	0.02672
1694.64331	0.02794
1693.35754	0.02917
1692.07178	0.03038
1690.78601	0.03157
1689.50024	0.03270
1688.21447	0.03373
1686.92870	0.03462
1685.64293	0.03541
1684.35716	0.03624
1683.07139	0.03722
1681.78563	0.03833
1680.49986	0.03948
1679.21409	0.04061
1677.92832	0.04168
1676.64255	0.04271
1675.35678	0.04372
1674.07101	0.04473
1672.78524	0.04569
1671.49947	0.04662
1670.21371	0.04754
1668.92794	0.04850
1667.64217	0.04950
1666.35640	0.05048
1665.07063	0.05139
1663.78486	0.05221
1662.49909	0.05300
1661.21332	0.05380
1659.92756	0.05459
1658.64179	0.05532
1657.35602	0.05591
1656.07025	0.05629
1654.78448	0.05653
1653.49871	0.05681
1652.21294	0.05727
1650.92717	0.05789
1649.64140	0.05846
1648.35564	0.05880
1647.06987	0.05891
1645.78410	0.05894
1644.49833	0.05903
1643.21256	0.05919
1641.92679	0.05933
1640.64102	0.05933
1639.35525	0.05911
1638.06949	0.05869
1636.78372	0.05817
1635.49795	0.05764
1634.21218	0.05715
1632.92641	0.05665
1631.64064	0.05606
1630.35487	0.05533
1629.06910	0.05450
1627.78333	0.05363
1626.49757	0.05272
1625.21180	0.05177
1623.92603	0.05079
1622.64026	0.04982
1621.35449	0.04886
1620.06872	0.04789
1618.78295	0.04691
1617.49718	0.04595
1616.21142	0.04507
1614.92565	0.04427
1613.63988	0.04352
1612.35411	0.04280
1611.06834	0.04213
1609.78257	0.04151
1608.49680	0.04090
1607.21103	0.04031
1605.92526	0.03978
1604.63950	0.03935
1603.35373	0.03901
1602.06796	0.03869
1600.78219	0.03835
1599.49642	0.03801
1598.21065	0.03773
1596.92488	0.03756
1595.63911	0.03752
1594.35335	0.03759
1593.06758	0.03772
1591.78181	0.03787
1590.49604	0.03797
1589.21027	0.03803
1587.92450	0.03811
1586.63873	0.03827
1585.35296	0.03854
1584.06719	0.03888
1582.78143	0.03925
1581.49566	0.03965
1580.20989	0.04007
1578.92412	0.04048
1577.63835	0.04093
1576.35258	0.04145
1575.06681	0.04207
1573.78104	0.04275
1572.49528	0.04339
1571.20951	0.04397
1569.92374	0.04455
1568.63797	0.04516
1567.35220	0.04580
1566.06643	0.04635
1564.78066	0.04674
1563.49489	0.04694
1562.20912	0.04700
1560.92336	0.04705
1559.63759	0.04723
1558.35182	0.04765
1557.06605	0.04825
1555.78028	0.04893
1554.49451	0.04956
1553.20874	0.05011
1551.92297	0.05059
1550.63721	0.05099
1549.35144	0.05131
1548.06567	0.05154
1546.77990	0.05169
1545.49413	0.05177
1544.20836	0.05177
1542.92259	0.05168
1541.63682	0.05152
1540.35105	0.05137
1539.06529	0.05130
1537.77952	0.05126
1536.49375	0.05120
1535.20798	0.05105
1533.92221	0.05083
1532.63644	0.05056
1531.35067	0.05028
1530.06490	0.04999
1528.77914	0.04970
1527.49337	0.04942
1526.20760	0.04916
1524.92183	0.04893
1523.63606	0.04872
1522.35029	0.04855
1521.06452	0.04844
1519.77875	0.04843
1518.49298	0.04850
1517.20722	0.04861
1515.92145	0.04871
1514.63568	0.04881
1513.34991	0.04889
1512.06414	0.04894
1510.77837	0.04895
1509.49260	0.04890
1508.20683	0.04883
1506.92107	0.04884
1505.63530	0.04902
1504.34953	0.04934
1503.06376	0.04968
1501.77799	0.04991
1500.49222	0.04998
1499.20645	0.04993
1497.92068	0.04983
1496.63491	0.04973
1495.34915	0.04965
1494.06338	0.04960
1492.77761	0.04960
1491.49184	0.04965
1490.20607	0.04978
1488.92030	0.05001
1487.63453	0.05035
1486.34876	0.05078
1485.06299	0.05133
1483.77723	0.05199
1482.49146	0.05276
1481.20569	0.05361
1479.91992	0.05453
1478.63415	0.05552
1477.34838	0.05658
1476.06261	0.05766
1474.77684	0.05872
1473.49108	0.05973
1472.20531	0.06074
1470.91954	0.06174
1469.63377	0.06271
1468.34800	0.06360
1467.06223	0.06441
1465.77646	0.06521
1464.49069	0.06605
1463.20492	0.06694
1461.91916	0.06787
1460.63339	0.06882
1459.34762	0.06985
1458.06185	0.07100
1456.77608	0.07221
1455.49031	0.07338
1454.20454	0.07435
1452.91877	0.07501
1451.63301	0.07537
1450.34724	0.07549
1449.06147	0.07547
1447.77570	0.07534
1446.48993	0.07507
1445.20416	0.07464
1443.91839	0.07402
1442.63262	0.07325
1441.34685	0.07236
1440.06109	0.07140
1438.77532	0.07048
1437.48955	0.06969
1436.20378	0.06910
1434.91801	0.06873
1433.63224	0.06856
1432.34647	0.06855
1431.06070	0.06870
1429.77494	0.06899
1428.48917	0.06944
1427.20340	0.07005
1425.91763	0.07087
1424.63186	0.07185
1423.34609	0.07293
1422.06032	0.07404
1420.77455	0.07513
1419.48878	0.07616
1418.20302	0.07709
1416.91725	0.07787
1415.63148	0.07848
1414.34571	0.07892
1413.05994	0.07920
1411.77417	0.07929
1410.48840	0.07917
1409.20263	0.07881
1407.91687	0.07819
1406.63110	0.07734
1405.34533	0.07631
1404.05956	0.07516
1402.77379	0.07390
1401.48802	0.07246
1400.20225	0.07083
1398.91648	0.06904
1397.63071	0.06720
1396.34495	0.06540
1395.05918	0.06370
1393.77341	0.06206
1392.48764	0.06046
1391.20187	0.05887
1389.91610	0.05732
1388.63033	0.05581
1387.34456	0.05433
1386.05880	0.05286
1384.77303	0.05139
1383.48726	0.04993
1382.20149	0.04850
1380.91572	0.04712
1379.62995	0.04577
1378.34418	0.04447
1377.05841	0.04321
1375.77264	0.04199
1374.48688	0.04080
1373.20111	0.03964
1371.91534	0.03852
1370.62957	0.03744
1369.34380	0.03638
1368.05803	0.03534
1366.77226	0.03438
1365.48649	0.03352
1364.20073	0.03275
1362.91496	0.03205
1361.62919	0.03138
1360.34342	0.03077
1359.05765	0.03022
1357.77188	0.02975
1356.48611	0.02935
1355.20034	0.02902
1353.91457	0.02872
1352.62881	0.02845
1351.34304	0.02819
1350.05727	0.02792
1348.77150	0.02767
1347.48573	0.02748
1346.19996	0.02735
1344.91419	0.02727
1343.62842	0.02718
1342.34266	0.02703
1341.05689	0.02685
1339.77112	0.02666
1338.48535	0.02648
1337.19958	0.02633
1335.91381	0.02619
1334.62804	0.02604
1333.34227	0.02585
1332.05650	0.02565
1330.77074	0.02546
1329.48497	0.02531
1328.19920	0.02517
1326.91343	0.02502
1325.62766	0.02483
1324.34189	0.02464
1323.05612	0.02445
1321.77035	0.02427
1320.48459	0.02410
1319.19882	0.02395
1317.91305	0.02381
1316.62728	0.02368
1315.34151	0.02355
1314.05574	0.02338
1312.76997	0.02318
1311.48420	0.02296
1310.19843	0.02275
1308.91267	0.02254
1307.62690	0.02235
1306.34113	0.02218
1305.05536	0.02205
1303.76959	0.02194
1302.48382	0.02184
1301.19805	0.02171
1299.91228	0.02156
1298.62652	0.02139
1297.34075	0.02125
1296.05498	0.02113
1294.76921	0.02104
1293.48344	0.02096
1292.19767	0.02090
1290.91190	0.02083
1289.62613	0.02077
1288.34036	0.02074
1287.05460	0.02075
1285.76883	0.02077
1284.48306	0.02079
1283.19729	0.02077
1281.91152	0.02070
1280.62575	0.02058
1279.33998	0.02045
1278.05421	0.02035
1276.76845	0.02029
1275.48268	0.02026
1274.19691	0.02024
1272.91114	0.02022
1271.62537	0.02020
1270.33960	0.02019
1269.05383	0.02017
1267.76806	0.02012
1266.48229	0.02006
1265.19653	0.02002
1263.91076	0.02004
1262.62499	0.02011
1261.33922	0.02021
1260.05345	0.02028
1258.76768	0.02028
1257.48191	0.02021
1256.19614	0.02010
1254.91037	0.01999
1253.62461	0.01992
1252.33884	0.01991
1251.05307	0.01994
1249.76730	0.01998
1248.48153	0.02002
1247.19576	0.02003
1245.90999	0.02002
1244.62422	0.01998
1243.33846	0.01994
1242.05269	0.01988
1240.76692	0.01979
1239.48115	0.01967
1238.19538	0.01953
1236.90961	0.01939
1235.62384	0.01925
1234.33807	0.01911
1233.05230	0.01896
1231.76654	0.01877
1230.48077	0.01856
1229.19500	0.01834
1227.90923	0.01812
1226.62346	0.01790
1225.33769	0.01765
1224.05192	0.01739
1222.76615	0.01715
1221.48039	0.01697
1220.19462	0.01683
1218.90885	0.01669
1217.62308	0.01655
1216.33731	0.01642
1215.05154	0.01630
1213.76577	0.01619
1212.48000	0.01609
1211.19423	0.01600
1209.90847	0.01597
1208.62270	0.01597
1207.33693	0.01598
1206.05116	0.01597
1204.76539	0.01594
1203.47962	0.01587
1202.19385	0.01580
1200.90808	0.01577
1199.62232	0.01581
1198.33655	0.01574
1197.05078	0.01563
1195.76501	0.01551
1194.47924	0.01542
1193.19347	0.01537
1191.90770	0.01534
1190.62193	0.01531
1189.33616	0.01529
1188.05040	0.01528
1186.76463	0.01529
1185.47886	0.01530
1184.19309	0.01533
1182.90732	0.01534
1181.62155	0.01534
1180.33578	0.01534
1179.05001	0.01536
1177.76425	0.01538
1176.47848	0.01540
1175.19271	0.01546
1173.90694	0.01559
1172.62117	0.01578
1171.33540	0.01600
1170.04963	0.01621
1168.76386	0.01642
1167.47809	0.01665
1166.19233	0.01691
1164.90656	0.01717
1163.62079	0.01739
1162.33502	0.01758
1161.04925	0.01775
1159.76348	0.01790
1158.47771	0.01810
1157.19194	0.01839
1155.90618	0.01878
1154.62041	0.01920
1153.33464	0.01956
1152.04887	0.01986
1150.76310	0.02014
1149.47733	0.02048
1148.19156	0.02095
1146.90579	0.02152
1145.62002	0.02213
1144.33426	0.02270
1143.04849	0.02324
1141.76272	0.02385
1140.47695	0.02456
1139.19118	0.02537
1137.90541	0.02622
1136.61964	0.02712
1135.33387	0.02810
1134.04811	0.02918
1132.76234	0.03040
1131.47657	0.03179
1130.19080	0.03330
1128.90503	0.03494
1127.61926	0.03668
1126.33349	0.03854
1125.04772	0.04057
1123.76195	0.04278
1122.47619	0.04522
1121.19042	0.04786
1119.90465	0.05065
1118.61888	0.05353
1117.33311	0.05644
1116.04734	0.05938
1114.76157	0.06237
1113.47580	0.06543
1112.19004	0.06855
1110.90427	0.07176
1109.61850	0.07503
1108.33273	0.07829
1107.04696	0.08150
1105.76119	0.08464
1104.47542	0.08777
1103.18965	0.09092
1101.90388	0.09409
1100.61812	0.09719
1099.33235	0.10017
1098.04658	0.10302
1096.76081	0.10578
1095.47504	0.10854
1094.18927	0.11127
1092.90350	0.11389
1091.61773	0.11632
1090.33197	0.11854
1089.04620	0.12057
1087.76043	0.12246
1086.47466	0.12417
1085.18889	0.12569
1083.90312	0.12708
1082.61735	0.12847
1081.33158	0.13006
1080.04581	0.13193
1078.76005	0.13410
1077.47428	0.13651
1076.18851	0.13912
1074.90274	0.14190
1073.61697	0.14481
1072.33120	0.14780
1071.04543	0.15083
1069.75966	0.15392
1068.47390	0.15713
1067.18813	0.16054
1065.90236	0.16412
1064.61659	0.16778
1063.33082	0.17143
1062.04505	0.17498
1060.75928	0.17845
1059.47351	0.18189
1058.18774	0.18535
1056.90198	0.18883
1055.61621	0.19232
1054.33044	0.19580
1053.04467	0.19925
1051.75890	0.20265
1050.47313	0.20601
1049.18736	0.20939
1047.90159	0.21283
1046.61583	0.21629
1045.33006	0.21972
1044.04429	0.22308
1042.75852	0.22641
1041.47275	0.22966
1040.18698	0.23280
1038.90121	0.23582
1037.61544	0.23877
1036.32967	0.24176
1035.04391	0.24481
1033.75814	0.24785
1032.47237	0.25075
1031.18660	0.25343
1029.90083	0.25588
1028.61506	0.25812
1027.32929	0.26021
1026.04352	0.26219
1024.75775	0.26407
1023.47199	0.26574
1022.18622	0.26700
1020.90045	0.26764
1019.61468	0.26760
1018.32891	0.26701
1017.04314	0.26604
1015.75737	0.26474
1014.47160	0.26305
1013.18584	0.26089
1011.90007	0.25828
1010.61430	0.25529
1009.32853	0.25198
1008.04276	0.24833
1006.75699	0.24437
1005.47122	0.24014
1004.18545	0.23573
1002.89968	0.23113
1001.61392	0.22634
1000.32815	0.22136
999.04238	0.21624
997.75661	0.21103
996.47084	0.20575
995.18507	0.20040
993.89930	0.19505
992.61353	0.18973
991.32777	0.18443
990.04200	0.17915
988.75623	0.17391
987.47046	0.16872
986.18469	0.16357
984.89892	0.15848
983.61315	0.15348
982.32738	0.14867
981.04161	0.14407
979.75585	0.13970
978.47008	0.13553
977.18431	0.13155
975.89854	0.12773
974.61277	0.12411
973.32700	0.12077
972.04123	0.11785
970.75546	0.11548
969.46970	0.11374
968.18393	0.11266
966.89816	0.11227
965.61239	0.11254
964.32662	0.11338
963.04085	0.11454
961.75508	0.11562
960.46931	0.11623
959.18354	0.11607
957.89778	0.11512
956.61201	0.11353
955.32624	0.11155
954.04047	0.10935
952.75470	0.10703
951.46893	0.10459
950.18316	0.10205
948.89739	0.09949
947.61163	0.09699
946.32586	0.09461
945.04009	0.09232
943.75432	0.09006
942.46855	0.08780
941.18278	0.08560
939.89701	0.08348
938.61124	0.08144
937.32547	0.07945
936.03971	0.07746
934.75394	0.07552
933.46817	0.07374
932.18240	0.07217
930.89663	0.07074
929.61086	0.06940
928.32509	0.06812
927.03932	0.06691
925.75356	0.06580
924.46779	0.06478
923.18202	0.06381
921.89625	0.06286
920.61048	0.06192
919.32471	0.06098
918.03894	0.06004
916.75317	0.05909
915.46740	0.05813
914.18164	0.05715
912.89587	0.05620
911.61010	0.05538
910.32433	0.05472
909.03856	0.05420
907.75279	0.05373
906.46702	0.05323
905.18125	0.05269
903.89549	0.05213
902.60972	0.05160
901.32395	0.05110
900.03818	0.05064
898.75241	0.05016
897.46664	0.04964
896.18087	0.04909
894.89510	0.04862
893.60933	0.04829
892.32357	0.04807
891.03780	0.04786
889.75203	0.04758
888.46626	0.04728
887.18049	0.04718
885.89472	0.04758
884.60895	0.04876
883.32318	0.05083
882.03742	0.05350
880.75165	0.05616
879.46588	0.05822
878.18011	0.05948
876.89434	0.06027
875.60857	0.06101
874.32280	0.06185
873.03703	0.06248
871.75126	0.06250
870.46550	0.06171
869.17973	0.06028
867.89396	0.05850
866.60819	0.05660
865.32242	0.05476
864.03665	0.05305
862.75088	0.05153
861.46511	0.05017
860.17935	0.04895
858.89358	0.04787
857.60781	0.04692
856.32204	0.04611
855.03627	0.04539
853.75050	0.04474
852.46473	0.04417
851.17896	0.04364
849.89319	0.04310
848.60743	0.04255
847.32166	0.04203
846.03589	0.04160
844.75012	0.04120
843.46435	0.04076
842.17858	0.04029
840.89281	0.03982
839.60704	0.03940
838.32128	0.03903
837.03551	0.03868
835.74974	0.03834
834.46397	0.03803
833.17820	0.03777
831.89243	0.03755
830.60666	0.03734
829.32089	0.03711
828.03512	0.03687
826.74936	0.03666
825.46359	0.03647
824.17782	0.03631
822.89205	0.03615
821.60628	0.03595
820.32051	0.03573
819.03474	0.03549
817.74897	0.03524
816.46321	0.03503
815.17744	0.03487
813.89167	0.03478
812.60590	0.03473
811.32013	0.03470
810.03436	0.03465
808.74859	0.03458
807.46282	0.03449
806.17705	0.03437
804.89129	0.03425
803.60552	0.03413
802.31975	0.03402
801.03398	0.03390
799.74821	0.03373
798.46244	0.03349
797.17667	0.03327
795.89090	0.03316
794.60513	0.03320
793.31937	0.03333
792.03360	0.03346
790.74783	0.03351
789.46206	0.03348
788.17629	0.03339
786.89052	0.03331
785.60475	0.03324
784.31898	0.03312
783.03322	0.03295
781.74745	0.03275
780.46168	0.03260
779.17591	0.03257
777.89014	0.03264
776.60437	0.03272
775.31860	0.03276
774.03283	0.03272
772.74706	0.03262
771.46130	0.03251
770.17553	0.03239
768.88976	0.03227
767.60399	0.03213
766.31822	0.03200
765.03245	0.03190
763.74668	0.03182
762.46091	0.03175
761.17515	0.03169
759.88938	0.03167
758.60361	0.03174
757.31784	0.03187
756.03207	0.03197
754.74630	0.03198
753.46053	0.03191
752.17476	0.03187
750.88899	0.03194
749.60323	0.03208
748.31746	0.03219
747.03169	0.03220
745.74592	0.03208
744.46015	0.03188
743.17438	0.03165
741.88861	0.03146
740.60284	0.03138
739.31708	0.03146
738.03131	0.03165
736.74554	0.03185
735.45977	0.03196
734.17400	0.03199
732.88823	0.03197
731.60246	0.03191
730.31669	0.03176
729.03092	0.03156
727.74516	0.03145
726.45939	0.03149
725.17362	0.03162
723.88785	0.03172
722.60208	0.03185
721.31631	0.03197
720.03054	0.03206
718.74477	0.03208
717.45901	0.03207
716.17324	0.03205
714.88747	0.03202
713.60170	0.03198
712.31593	0.03192
711.03016	0.03188
709.74439	0.03186
708.45862	0.03186
707.17285	0.03186
705.88709	0.03184
704.60132	0.03179
703.31555	0.03174
702.02978	0.03171
700.74401	0.03167
699.45824	0.03162
698.17247	0.03154
696.88670	0.03146
695.60094	0.03142
694.31517	0.03142
693.02940	0.03149
691.74363	0.03158
690.45786	0.03165
689.17209	0.03168
687.88632	0.03167
686.60055	0.03162
685.31478	0.03161
684.02902	0.03163
682.74325	0.03168
681.45748	0.03170
680.17171	0.03166
678.88594	0.03158
677.60017	0.03150
676.31440	0.03146
675.02863	0.03150
673.74287	0.03163
672.45710	0.03181
671.17133	0.03202
669.88556	0.03221
668.59979	0.03237
667.31402	0.03245
666.02825	0.03239
664.74248	0.03230
663.45671	0.03221
662.17095	0.03213
660.88518	0.03209
659.59941	0.03211
658.31364	0.03217
657.02787	0.03228
655.74210	0.03239
654.45633	0.03247
653.17056	0.03254
651.88480	0.03268
650.59903	0.03292
649.31326	0.03326
648.02749	0.03364
646.74172	0.03403
645.45595	0.03445
644.17018	0.03495
642.88441	0.03554
641.59864	0.03618
640.31288	0.03678
639.02711	0.03728
637.74134	0.03773
636.45557	0.03816
635.16980	0.03862
633.88403	0.03909
632.59826	0.03954
631.31249	0.03985
630.02673	0.03961
628.74096	0.03900
627.45519	0.03962
626.16942	0.03842
624.88365	0.03580
623.59788	0.03327
622.31211	0.03239
621.02634	0.03411
619.74057	0.03777
618.45481	0.04171
617.16904	0.04501
615.88327	0.04806
614.59750	0.05165
613.31173	0.05597
612.02596	0.06062
610.74019	0.06536
609.45442	0.07049
608.16866	0.07644
606.88289	0.08299
605.59712	0.08954
604.31135	0.09546
603.02558	0.10014
601.73981	0.10296
600.45404	0.10361
599.16827	0.10227
597.88250	0.09951
596.59674	0.09605
595.31097	0.09250
594.02520	0.08925
592.73943	0.08652
591.45366	0.08438
590.16789	0.08285
588.88212	0.08193
587.59635	0.08162
586.31059	0.08192
585.02482	0.08277
583.73905	0.08417
582.45328	0.08617
581.16751	0.08878
579.88174	0.09194
578.59597	0.09555
577.31020	0.09949
576.02443	0.10356
574.73867	0.10751
573.45290	0.11110
572.16713	0.11430
570.88136	0.11735
569.59559	0.12057
568.30982	0.12418
567.02405	0.12822
565.73828	0.13247
564.45251	0.13646
563.16675	0.13947
561.88098	0.14095
560.59521	0.14073
559.30944	0.13902
558.02367	0.13611
556.73790	0.13214
555.45213	0.12717
554.16636	0.12142
552.88060	0.11537
551.59483	0.10954
550.30906	0.10428
549.02329	0.09965
547.73752	0.09549
546.45175	0.09160
545.16598	0.08788
543.88021	0.08435
542.59444	0.08108
541.30868	0.07813
540.02291	0.07550
538.73714	0.07315
537.45137	0.07103
536.16560	0.06911
534.87983	0.06732
533.59406	0.06557
532.30829	0.06382
531.02253	0.06206
529.73676	0.06027
528.45099	0.05849
527.16522	0.05674
525.87945	0.05508
524.59368	0.05355
523.30791	0.05222
522.02214	0.05110
520.73637	0.05015
519.45061	0.04929
518.16484	0.04837
516.87907	0.04730
515.59330	0.04610
514.30753	0.04487
513.02176	0.04370
511.73599	0.04268
510.45022	0.04185
509.16446	0.04118
507.87869	0.04057
506.59292	0.03988
505.30715	0.03909
504.02138	0.03830
502.73561	0.03763
501.44984	0.03714
500.16407	0.03674
498.87830	0.03633
497.59254	0.03586
496.30677	0.03534
495.02100	0.03487
493.73523	0.03447
492.44946	0.03414
491.16369	0.03388
489.87792	0.03366
488.59215	0.03345
487.30639	0.03317
486.02062	0.03283
484.73485	0.03253
483.44908	0.03236
482.16331	0.03232
480.87754	0.03237
479.59177	0.03245
478.30600	0.03255
477.02023	0.03262
475.73447	0.03268
474.44870	0.03276
473.16293	0.03288
471.87716	0.03301
470.59139	0.03309
469.30562	0.03301
468.01985	0.03270
466.73408	0.03222
465.44832	0.03167
464.16255	0.03116
462.87678	0.03072
461.59101	0.03032
460.30524	0.02995
459.01947	0.02962
457.73370	0.02930
456.44793	0.02897
455.16216	0.02858
453.87640	0.02815
452.59063	0.02770
451.30486	0.02728
450.01909	0.02689
448.73332	0.02649
447.44755	0.02609
446.16178	0.02574
444.87601	0.02550
443.59025	0.02537
442.30448	0.02526
441.01871	0.02508
439.73294	0.02480
438.44717	0.02449
437.16140	0.02427
435.87563	0.02415
434.58986	0.02408
433.30409	0.02399
432.01833	0.02388
430.73256	0.02377
429.44679	0.02364
428.16102	0.02345
426.87525	0.02317
425.58948	0.02285
424.30371	0.02253
423.01794	0.02224
421.73218	0.02198
420.44641	0.02174
419.16064	0.02156
417.87487	0.02143
416.58910	0.02133
415.30333	0.02123
414.01756	0.02111
412.73179	0.02101
411.44602	0.02096
410.16026	0.02094
408.87449	0.02091
407.58872	0.02086
406.30295	0.02081
405.01718	0.02077
403.73141	0.02074
402.44564	0.02072
401.15987	0.02070
399.87411	0.02070
