3997.45528	-0.01241
3996.16951	-0.01196
3994.88374	-0.01142
3993.59798	-0.01090
3992.31221	-0.01044
3991.02644	-0.01001
3989.74067	-0.00971
3988.45490	-0.00965
3987.16913	-0.00981
3985.88336	-0.00996
3984.59759	-0.00987
3983.31183	-0.00947
3982.02606	-0.00881
3980.74029	-0.00797
3979.45452	-0.00707
3978.16875	-0.00636
3976.88298	-0.00623
3975.59721	-0.00682
3974.31144	-0.00778
3973.02567	-0.00845
3971.73991	-0.00838
3970.45414	-0.00772
3969.16837	-0.00702
3967.88260	-0.00673
3966.59683	-0.00683
3965.31106	-0.00701
3964.02529	-0.00701
3962.73952	-0.00675
3961.45376	-0.00633
3960.16799	-0.00593
3958.88222	-0.00566
3957.59645	-0.00548
3956.31068	-0.00528
3955.02491	-0.00489
3953.73914	-0.00427
3952.45337	-0.00355
3951.16760	-0.00301
3949.88184	-0.00299
3948.59607	-0.00360
3947.31030	-0.00463
3946.02453	-0.00565
3944.73876	-0.00629
3943.45299	-0.00652
3942.16722	-0.00654
3940.88145	-0.00642
3939.59569	-0.00610
3938.30992	-0.00558
3937.02415	-0.00492
3935.73838	-0.00417
3934.45261	-0.00346
3933.16684	-0.00308
3931.88107	-0.00325
3930.59530	-0.00373
3929.30953	-0.00394
3928.02377	-0.00360
3926.73800	-0.00292
3925.45223	-0.00226
3924.16646	-0.00183
3922.88069	-0.00156
3921.59492	-0.00146
3920.30915	-0.00158
3919.02338	-0.00186
3917.73762	-0.00205
3916.45185	-0.00205
3915.16608	-0.00196
3913.88031	-0.00197
3912.59454	-0.00214
3911.30877	-0.00245
3910.02300	-0.00272
3908.73723	-0.00283
3907.45146	-0.00276
3906.16570	-0.00261
3904.87993	-0.00260
3903.59416	-0.00288
3902.30839	-0.00337
3901.02262	-0.00379
3899.73685	-0.00395
3898.45108	-0.00383
3897.16531	-0.00355
3895.87955	-0.00320
3894.59378	-0.00270
3893.30801	-0.00189
3892.02224	-0.00093
3890.73647	-0.00027
3889.45070	0.00001
3888.16493	0.00032
3886.87916	0.00076
3885.59339	0.00088
3884.30763	0.00062
3883.02186	0.00048
3881.73609	0.00069
3880.45032	0.00070
3879.16455	0.00009
3877.87878	-0.00069
3876.59301	-0.00100
3875.30724	-0.00089
3874.02148	-0.00079
3872.73571	-0.00058
3871.44994	0.00014
3870.16417	0.00108
3868.87840	0.00148
3867.59263	0.00130
3866.30686	0.00105
3865.02109	0.00085
3863.73532	0.00056
3862.44956	0.00029
3861.16379	0.00020
3859.87802	0.00019
3858.59225	0.00007
3857.30648	0.00010
3856.02071	0.00078
3854.73494	0.00193
3853.44917	0.00255
3852.16341	0.00214
3850.87764	0.00146
3849.59187	0.00140
3848.30610	0.00200
3847.02033	0.00272
3845.73456	0.00311
3844.44879	0.00302
3843.16302	0.00257
3841.87725	0.00198
3840.59149	0.00161
3839.30572	0.00164
3838.01995	0.00188
3836.73418	0.00204
3835.44841	0.00214
3834.16264	0.00234
3832.87687	0.00256
3831.59110	0.00260
3830.30534	0.00254
3829.01957	0.00263
3827.73380	0.00291
3826.44803	0.00306
3825.16226	0.00300
3823.87649	0.00319
3822.59072	0.00385
3821.30495	0.00439
3820.01918	0.00420
3818.73342	0.00366
3817.44765	0.00339
3816.16188	0.00316
3814.87611	0.00244
3813.59034	0.00141
3812.30457	0.00054
3811.01880	0.00001
3809.73303	-0.00005
3808.44726	0.00038
3807.16150	0.00084
3805.87573	0.00081
3804.58996	0.00065
3803.30419	0.00096
3802.01842	0.00157
3800.73265	0.00181
3799.44688	0.00175
3798.16111	0.00195
3796.87535	0.00240
3795.58958	0.00264
3794.30381	0.00258
3793.01804	0.00251
3791.73227	0.00250
3790.44650	0.00243
3789.16073	0.00227
3787.87496	0.00216
3786.58919	0.00223
3785.30343	0.00240
3784.01766	0.00255
3782.73189	0.00265
3781.44612	0.00277
3780.16035	0.00279
3778.87458	0.00255
3777.58881	0.00220
3776.30304	0.00207
3775.01728	0.00222
3773.73151	0.00236
3772.44574	0.00233
3771.15997	0.00213
3769.87420	0.00188
3768.58843	0.00179
3767.30266	0.00208
3766.01689	0.00260
3764.73112	0.00282
3763.44536	0.00260
3762.15959	0.00232
3760.87382	0.00238
3759.58805	0.00271
3758.30228	0.00294
3757.01651	0.00281
3755.73074	0.00254
3754.44497	0.00270
3753.15921	0.00357
3751.87344	0.00477
3750.58767	0.00561
3749.30190	0.00558
3748.01613	0.00496
3746.73036	0.00463
3745.44459	0.00466
3744.15882	0.00401
3742.87305	0.00231
3741.58729	0.00058
3740.30152	-0.00027
3739.01575	-0.00022
3737.72998	0.00036
3736.44421	0.00094
3735.15844	0.00114
3733.87267	0.00101
3732.58690	0.00076
3731.30114	0.00038
3730.01537	-0.00005
3728.72960	-0.00029
3727.44383	-0.00030
3726.15806	-0.00028
3724.87229	-0.00030
3723.58652	-0.00039
3722.30075	-0.00078
3721.01498	-0.00149
3719.72922	-0.00203
3718.44345	-0.00201
3717.15768	-0.00159
3715.87191	-0.00112
3714.58614	-0.00057
3713.30037	0.00018
3712.01460	0.00099
3710.72883	0.00153
3709.44307	0.00167
3708.15730	0.00135
3706.87153	0.00061
3705.58576	-0.00020
3704.29999	-0.00052
3703.01422	-0.00012
3701.72845	0.00062
3700.44268	0.00116
3699.15691	0.00142
3697.87115	0.00156
3696.58538	0.00152
3695.29961	0.00115
3694.01384	0.00064
3692.72807	0.00048
3691.44230	0.00121
3690.15653	0.00278
3688.87076	0.00431
3687.58500	0.00487
3686.29923	0.00453
3685.01346	0.00403
3683.72769	0.00375
3682.44192	0.00355
3681.15615	0.00325
3679.87038	0.00289
3678.58461	0.00287
3677.29884	0.00358
3676.01308	0.00468
3674.72731	0.00535
3673.44154	0.00540
3672.15577	0.00537
3670.87000	0.00541
3669.58423	0.00518
3668.29846	0.00473
3667.01269	0.00447
3665.72693	0.00467
3664.44116	0.00522
3663.15539	0.00579
3661.86962	0.00602
3660.58385	0.00589
3659.29808	0.00594
3658.01231	0.00675
3656.72654	0.00801
3655.44077	0.00874
3654.15501	0.00845
3652.86924	0.00777
3651.58347	0.00756
3650.29770	0.00800
3649.01193	0.00858
3647.72616	0.00881
3646.44039	0.00867
3645.15462	0.00847
3643.86886	0.00840
3642.58309	0.00830
3641.29732	0.00807
3640.01155	0.00791
3638.72578	0.00808
3637.44001	0.00858
3636.15424	0.00922
3634.86847	0.00982
3633.58270	0.01032
3632.29694	0.01089
3631.01117	0.01166
3629.72540	0.01225
3628.43963	0.01207
3627.15386	0.01125
3625.86809	0.01057
3624.58232	0.01038
3623.29655	0.01049
3622.01079	0.01078
3620.72502	0.01137
3619.43925	0.01215
3618.15348	0.01278
3616.86771	0.01308
3615.58194	0.01323
3614.29617	0.01351
3613.01040	0.01401
3611.72463	0.01456
3610.43887	0.01488
3609.15310	0.01470
3607.86733	0.01407
3606.58156	0.01340
3605.29579	0.01314
3604.01002	0.01344
3602.72425	0.01415
3601.43848	0.01496
3600.15272	0.01551
3598.86695	0.01571
3597.58118	0.01569
3596.29541	0.01565
3595.00964	0.01563
3593.72387	0.01550
3592.43810	0.01528
3591.15233	0.01525
3589.86656	0.01568
3588.58080	0.01648
3587.29503	0.01726
3586.00926	0.01762
3584.72349	0.01747
3583.43772	0.01712
3582.15195	0.01698
3580.86618	0.01725
3579.58041	0.01787
3578.29464	0.01867
3577.00888	0.01940
3575.72311	0.01981
3574.43734	0.01973
3573.15157	0.01938
3571.86580	0.01922
3570.58003	0.01962
3569.29426	0.02043
3568.00849	0.02113
3566.72273	0.02135
3565.43696	0.02127
3564.15119	0.02139
3562.86542	0.02197
3561.57965	0.02289
3560.29388	0.02383
3559.00811	0.02452
3557.72234	0.02483
3556.43657	0.02488
3555.15081	0.02492
3553.86504	0.02510
3552.57927	0.02531
3551.29350	0.02528
3550.00773	0.02497
3548.72196	0.02459
3547.43619	0.02432
3546.15042	0.02416
3544.86466	0.02403
3543.57889	0.02391
3542.29312	0.02388
3541.00735	0.02407
3539.72158	0.02459
3538.43581	0.02535
3537.15004	0.02617
3535.86427	0.02682
3534.57850	0.02719
3533.29274	0.02728
3532.00697	0.02716
3530.72120	0.02695
3529.43543	0.02684
3528.14966	0.02703
3526.86389	0.02755
3525.57812	0.02829
3524.29235	0.02912
3523.00659	0.02989
3521.72082	0.03039
3520.43505	0.03036
3519.14928	0.02977
3517.86351	0.02901
3516.57774	0.02867
3515.29197	0.02913
3514.00620	0.03017
3512.72043	0.03128
3511.43467	0.03206
3510.14890	0.03237
3508.86313	0.03224
3507.57736	0.03177
3506.29159	0.03118
3505.00582	0.03072
3503.72005	0.03049
3502.43428	0.03054
3501.14852	0.03093
3499.86275	0.03171
3498.57698	0.03268
3497.29121	0.03349
3496.00544	0.03396
3494.71967	0.03416
3493.43390	0.03416
3492.14813	0.03399
3490.86236	0.03368
3489.57660	0.03337
3488.29083	0.03317
3487.00506	0.03303
3485.71929	0.03294
3484.43352	0.03300
3483.14775	0.03332
3481.86198	0.03378
3480.57621	0.03417
3479.29045	0.03449
3478.00468	0.03487
3476.71891	0.03532
3475.43314	0.03566
3474.14737	0.03572
3472.86160	0.03564
3471.57583	0.03571
3470.29006	0.03608
3469.00429	0.03658
3467.71853	0.03681
3466.43276	0.03660
3465.14699	0.03609
3463.86122	0.03564
3462.57545	0.03547
3461.28968	0.03550
3460.00391	0.03556
3458.71814	0.03558
3457.43238	0.03566
3456.14661	0.03586
3454.86084	0.03619
3453.57507	0.03661
3452.28930	0.03708
3451.00353	0.03757
3449.71776	0.03797
3448.43199	0.03803
3447.14622	0.03765
3445.86046	0.03705
3444.57469	0.03672
3443.28892	0.03697
3442.00315	0.03773
3440.71738	0.03864
3439.43161	0.03939
3438.14584	0.03978
3436.86007	0.03974
3435.57431	0.03945
3434.28854	0.03914
3433.00277	0.03898
3431.71700	0.03889
3430.43123	0.03883
3429.14546	0.03887
3427.85969	0.03912
3426.57392	0.03955
3425.28815	0.04004
3424.00239	0.04047
3422.71662	0.04085
3421.43085	0.04120
3420.14508	0.04160
3418.85931	0.04204
3417.57354	0.04246
3416.28777	0.04272
3415.00200	0.04272
3413.71624	0.04250
3412.43047	0.04228
3411.14470	0.04217
3409.85893	0.04206
3408.57316	0.04184
3407.28739	0.04159
3406.00162	0.04155
3404.71585	0.04179
3403.43008	0.04216
3402.14432	0.04248
3400.85855	0.04265
3399.57278	0.04251
3398.28701	0.04205
3397.00124	0.04142
3395.71547	0.04102
3394.42970	0.04115
3393.14393	0.04168
3391.85817	0.04226
3390.57240	0.04271
3389.28663	0.04314
3388.00086	0.04366
3386.71509	0.04411
3385.42932	0.04425
3384.14355	0.04402
3382.85778	0.04365
3381.57201	0.04338
3380.28625	0.04330
3379.00048	0.04330
3377.71471	0.04334
3376.42894	0.04340
3375.14317	0.04347
3373.85740	0.04359
3372.57163	0.04383
3371.28586	0.04419
3370.00010	0.04458
3368.71433	0.04490
3367.42856	0.04509
3366.14279	0.04506
3364.85702	0.04475
3363.57125	0.04429
3362.28548	0.04396
3360.99971	0.04399
3359.71394	0.04429
3358.42818	0.04457
3357.14241	0.04466
3355.85664	0.04460
3354.57087	0.04460
3353.28510	0.04485
3351.99933	0.04535
3350.71356	0.04586
3349.42779	0.04605
3348.14202	0.04578
3346.85626	0.04521
3345.57049	0.04469
3344.28472	0.04446
3342.99895	0.04454
3341.71318	0.04477
3340.42741	0.04498
3339.14164	0.04519
3337.85587	0.04547
3336.57011	0.04582
3335.28434	0.04609
3333.99857	0.04612
3332.71280	0.04587
3331.42703	0.04551
3330.14126	0.04528
3328.85549	0.04532
3327.56972	0.04561
3326.28395	0.04602
3324.99819	0.04643
3323.71242	0.04677
3322.42665	0.04702
3321.14088	0.04721
3319.85511	0.04735
3318.56934	0.04741
3317.28357	0.04728
3315.99780	0.04686
3314.71204	0.04627
3313.42627	0.04583
3312.14050	0.04577
3310.85473	0.04600
3309.56896	0.04617
3308.28319	0.04605
3306.99742	0.04573
3305.71165	0.04553
3304.42588	0.04556
3303.14012	0.04571
3301.85435	0.04582
3300.56858	0.04591
3299.28281	0.04609
3297.99704	0.04633
3296.71127	0.04650
3295.42550	0.04658
3294.13973	0.04658
3292.85397	0.04651
3291.56820	0.04639
3290.28243	0.04629
3288.99666	0.04626
3287.71089	0.04621
3286.42512	0.04603
3285.13935	0.04574
3283.85358	0.04548
3282.56781	0.04535
3281.28205	0.04536
3279.99628	0.04548
3278.71051	0.04567
3277.42474	0.04588
3276.13897	0.04605
3274.85320	0.04617
3273.56743	0.04630
3272.28166	0.04654
3270.99590	0.04686
3269.71013	0.04708
3268.42436	0.04700
3267.13859	0.04668
3265.85282	0.04637
3264.56705	0.04627
3263.28128	0.04625
3261.99551	0.04613
3260.70974	0.04593
3259.42398	0.04590
3258.13821	0.04624
3256.85244	0.04680
3255.56667	0.04714
3254.28090	0.04693
3252.99513	0.04622
3251.70936	0.04541
3250.42359	0.04485
3249.13783	0.04457
3247.85206	0.04438
3246.56629	0.04415
3245.28052	0.04398
3243.99475	0.04403
3242.70898	0.04435
3241.42321	0.04480
3240.13744	0.04516
3238.85167	0.04528
3237.56591	0.04520
3236.28014	0.04513
3234.99437	0.04529
3233.70860	0.04566
3232.42283	0.04603
3231.13706	0.04615
3229.85129	0.04598
3228.56552	0.04560
3227.27976	0.04513
3225.99399	0.04472
3224.70822	0.04446
3223.42245	0.04439
3222.13668	0.04443
3220.85091	0.04442
3219.56514	0.04424
3218.27937	0.04388
3216.99360	0.04348
3215.70784	0.04333
3214.42207	0.04359
3213.13630	0.04417
3211.85053	0.04466
3210.56476	0.04475
3209.27899	0.04443
3207.99322	0.04398
3206.70745	0.04364
3205.42169	0.04347
3204.13592	0.04341
3202.85015	0.04344
3201.56438	0.04360
3200.27861	0.04385
3198.99284	0.04409
3197.70707	0.04419
3196.42130	0.04408
3195.13553	0.04391
3193.84977	0.04380
3192.56400	0.04377
3191.27823	0.04367
3189.99246	0.04338
3188.70669	0.04294
3187.42092	0.04248
3186.13515	0.04212
3184.84938	0.04186
3183.56362	0.04168
3182.27785	0.04167
3180.99208	0.04188
3179.70631	0.04221
3178.42054	0.04236
3177.13477	0.04218
3175.84900	0.04181
3174.56323	0.04153
3173.27746	0.04151
3171.99170	0.04167
3170.70593	0.04193
3169.42016	0.04224
3168.13439	0.04260
3166.84862	0.04292
3165.56285	0.04303
3164.27708	0.04276
3162.99131	0.04208
3161.70555	0.04121
3160.41978	0.04048
3159.13401	0.04010
3157.84824	0.04002
3156.56247	0.04003
3155.27670	0.03993
3153.99093	0.03972
3152.70516	0.03956
3151.41939	0.03957
3150.13363	0.03979
3148.84786	0.04016
3147.56209	0.04052
3146.27632	0.04076
3144.99055	0.04083
3143.70478	0.04075
3142.41901	0.04058
3141.13324	0.04039
3139.84748	0.04023
3138.56171	0.04011
3137.27594	0.03994
3135.99017	0.03974
3134.70440	0.03964
3133.41863	0.03976
3132.13286	0.03995
3130.84709	0.03994
3129.56132	0.03971
3128.27556	0.03957
3126.98979	0.03977
3125.70402	0.04021
3124.41825	0.04056
3123.13248	0.04062
3121.84671	0.04041
3120.56094	0.04007
3119.27517	0.03976
3117.98940	0.03962
3116.70364	0.03964
3115.41787	0.03965
3114.13210	0.03948
3112.84633	0.03921
3111.56056	0.03911
3110.27479	0.03930
3108.98902	0.03964
3107.70325	0.03988
3106.41749	0.03987
3105.13172	0.03964
3103.84595	0.03933
3102.56018	0.03908
3101.27441	0.03900
3099.98864	0.03915
3098.70287	0.03938
3097.41710	0.03945
3096.13133	0.03925
3094.84557	0.03890
3093.55980	0.03864
3092.27403	0.03861
3090.98826	0.03874
3089.70249	0.03899
3088.41672	0.03935
3087.13095	0.03983
3085.84518	0.04035
3084.55942	0.04080
3083.27365	0.04099
3081.98788	0.04077
3080.70211	0.04012
3079.41634	0.03927
3078.13057	0.03858
3076.84480	0.03820
3075.55903	0.03805
3074.27326	0.03794
3072.98750	0.03789
3071.70173	0.03797
3070.41596	0.03813
3069.13019	0.03825
3067.84442	0.03822
3066.55865	0.03811
3065.27288	0.03803
3063.98711	0.03805
3062.70135	0.03820
3061.41558	0.03835
3060.12981	0.03831
3058.84404	0.03800
3057.55827	0.03756
3056.27250	0.03717
3054.98673	0.03697
3053.70096	0.03696
3052.41519	0.03712
3051.12943	0.03743
3049.84366	0.03781
3048.55789	0.03808
3047.27212	0.03808
3045.98635	0.03775
3044.70058	0.03720
3043.41481	0.03657
3042.12904	0.03605
3040.84328	0.03580
3039.55751	0.03588
3038.27174	0.03616
3036.98597	0.03647
3035.70020	0.03673
3034.41443	0.03691
3033.12866	0.03702
3031.84289	0.03709
3030.55712	0.03716
3029.27136	0.03723
3027.98559	0.03725
3026.69982	0.03715
3025.41405	0.03692
3024.12828	0.03660
3022.84251	0.03631
3021.55674	0.03624
3020.27097	0.03641
3018.98521	0.03671
3017.69944	0.03697
3016.41367	0.03708
3015.12790	0.03705
3013.84213	0.03694
3012.55636	0.03680
3011.27059	0.03669
3009.98482	0.03667
3008.69905	0.03678
3007.41329	0.03698
3006.12752	0.03716
3004.84175	0.03714
3003.55598	0.03686
3002.27021	0.03637
3000.98444	0.03587
2999.69867	0.03553
2998.41290	0.03552
2997.12714	0.03581
2995.84137	0.03623
2994.55560	0.03659
2993.26983	0.03677
2991.98406	0.03676
2990.69829	0.03663
2989.41252	0.03647
2988.12675	0.03637
2986.84098	0.03647
2985.55522	0.03685
2984.26945	0.03740
2982.98368	0.03793
2981.69791	0.03834
2980.41214	0.03865
2979.12637	0.03897
2977.84060	0.03941
2976.55483	0.04000
2975.26907	0.04062
2973.98330	0.04104
2972.69753	0.04121
2971.41176	0.04133
2970.12599	0.04160
2968.84022	0.04207
2967.55445	0.04269
2966.26868	0.04347
2964.98291	0.04436
2963.69715	0.04519
2962.41138	0.04584
2961.12561	0.04633
2959.83984	0.04675
2958.55407	0.04713
2957.26830	0.04745
2955.98253	0.04776
2954.69676	0.04811
2953.41100	0.04847
2952.12523	0.04877
2950.83946	0.04898
2949.55369	0.04919
2948.26792	0.04942
2946.98215	0.04962
2945.69638	0.04967
2944.41061	0.04959
2943.12484	0.04947
2941.83908	0.04947
2940.55331	0.04967
2939.26754	0.05012
2937.98177	0.05077
2936.69600	0.05152
2935.41023	0.05219
2934.12446	0.05265
2932.83869	0.05291
2931.55293	0.05313
2930.26716	0.05348
2928.98139	0.05400
2927.69562	0.05460
2926.40985	0.05511
2925.12408	0.05541
2923.83831	0.05549
2922.55254	0.05544
2921.26677	0.05538
2919.98101	0.05534
2918.69524	0.05521
2917.40947	0.05486
2916.12370	0.05426
2914.83793	0.05350
2913.55216	0.05269
2912.26639	0.05199
2910.98062	0.05154
2909.69486	0.05137
2908.40909	0.05134
2907.12332	0.05127
2905.83755	0.05102
2904.55178	0.05063
2903.26601	0.05019
2901.98024	0.04981
2900.69447	0.04948
2899.40870	0.04905
2898.12294	0.04848
2896.83717	0.04796
2895.55140	0.04770
2894.26563	0.04761
2892.97986	0.04733
2891.69409	0.04665
2890.40832	0.04583
2889.12255	0.04530
2887.83678	0.04523
2886.55102	0.04536
2885.26525	0.04536
2883.97948	0.04513
2882.69371	0.04481
2881.40794	0.04456
2880.12217	0.04449
2878.83640	0.04464
2877.55063	0.04499
2876.26487	0.04542
2874.97910	0.04581
2873.69333	0.04610
2872.40756	0.04634
2871.12179	0.04659
2869.83602	0.04681
2868.55025	0.04693
2867.26448	0.04691
2865.97871	0.04682
2864.69295	0.04675
2863.40718	0.04677
2862.12141	0.04686
2860.83564	0.04700
2859.54987	0.04715
2858.26410	0.04725
2856.97833	0.04723
2855.69256	0.04703
2854.40680	0.04670
2853.12103	0.04633
2851.83526	0.04601
2850.54949	0.04569
2849.26372	0.04530
2847.97795	0.04480
2846.69218	0.04426
2845.40641	0.04374
2844.12064	0.04329
2842.83488	0.04288
2841.54911	0.04249
2840.26334	0.04203
2838.97757	0.04147
2837.69180	0.04085
2836.40603	0.04028
2835.12026	0.03980
2833.83449	0.03938
2832.54873	0.03890
2831.26296	0.03838
2829.97719	0.03796
2828.69142	0.03779
2827.40565	0.03783
2826.11988	0.03790
2824.83411	0.03783
2823.54834	0.03760
2822.26257	0.03732
2820.97681	0.03701
2819.69104	0.03667
2818.40527	0.03630
2817.11950	0.03600
2815.83373	0.03583
2814.54796	0.03580
2813.26219	0.03581
2811.97642	0.03575
2810.69066	0.03559
2809.40489	0.03540
2808.11912	0.03521
2806.83335	0.03503
2805.54758	0.03488
2804.26181	0.03479
2802.97604	0.03476
2801.69027	0.03472
2800.40450	0.03462
2799.11874	0.03452
2797.83297	0.03446
2796.54720	0.03441
2795.26143	0.03430
2793.97566	0.03415
2792.68989	0.03403
2791.40412	0.03396
2790.11835	0.03390
2788.83259	0.03383
2787.54682	0.03375
2786.26105	0.03361
2784.97528	0.03341
2783.68951	0.03319
2782.40374	0.03309
2781.11797	0.03317
2779.83220	0.03334
2778.54643	0.03344
2777.26067	0.03335
2775.97490	0.03313
2774.68913	0.03294
2773.40336	0.03289
2772.11759	0.03293
2770.83182	0.03289
2769.54605	0.03269
2768.26028	0.03239
2766.97452	0.03218
2765.68875	0.03219
2764.40298	0.03239
2763.11721	0.03262
2761.83144	0.03272
2760.54567	0.03262
2759.25990	0.03247
2757.97413	0.03246
2756.68836	0.03259
2755.40260	0.03269
2754.11683	0.03264
2752.83106	0.03251
2751.54529	0.03244
2750.25952	0.03245
2748.97375	0.03251
2747.68798	0.03255
2746.40221	0.03248
2745.11645	0.03226
2743.83068	0.03198
2742.54491	0.03180
2741.25914	0.03173
2739.97337	0.03166
2738.68760	0.03155
2737.40183	0.03144
2736.11606	0.03142
2734.83029	0.03147
2733.54453	0.03153
2732.25876	0.03150
2730.97299	0.03133
2729.68722	0.03108
2728.40145	0.03093
2727.11568	0.03101
2725.82991	0.03122
2724.54414	0.03131
2723.25838	0.03112
2721.97261	0.03079
2720.68684	0.03060
2719.40107	0.03070
2718.11530	0.03097
2716.82953	0.03123
2715.54376	0.03139
2714.25799	0.03151
2712.97222	0.03161
2711.68646	0.03163
2710.40069	0.03151
2709.11492	0.03124
2707.82915	0.03092
2706.54338	0.03069
2705.25761	0.03068
2703.97184	0.03084
2702.68607	0.03099
2701.40031	0.03100
2700.11454	0.03086
2698.82877	0.03065
2697.54300	0.03047
2696.25723	0.03035
2694.97146	0.03033
2693.68569	0.03036
2692.39992	0.03036
2691.11415	0.03030
2689.82839	0.03026
2688.54262	0.03029
2687.25685	0.03036
2685.97108	0.03037
2684.68531	0.03024
2683.39954	0.02998
2682.11377	0.02970
2680.82800	0.02953
2679.54224	0.02949
2678.25647	0.02954
2676.97070	0.02962
2675.68493	0.02974
2674.39916	0.02987
2673.11339	0.03001
2671.82762	0.03014
2670.54185	0.03027
2669.25608	0.03038
2667.97032	0.03040
2666.68455	0.03030
2665.39878	0.03011
2664.11301	0.02988
2662.82724	0.02966
2661.54147	0.02952
2660.25570	0.02951
2658.96993	0.02963
2657.68417	0.02977
2656.39840	0.02984
2655.11263	0.02983
2653.82686	0.02981
2652.54109	0.02980
2651.25532	0.02979
2649.96955	0.02972
2648.68378	0.02959
2647.39801	0.02947
2646.11225	0.02941
2644.82648	0.02933
2643.54071	0.02908
2642.25494	0.02862
2640.96917	0.02812
2639.68340	0.02781
2638.39763	0.02773
2637.11186	0.02770
2635.82609	0.02753
2634.54033	0.02723
2633.25456	0.02698
2631.96879	0.02690
2630.68302	0.02700
2629.39725	0.02716
2628.11148	0.02723
2626.82571	0.02712
2625.53994	0.02687
2624.25418	0.02661
2622.96841	0.02640
2621.68264	0.02624
2620.39687	0.02609
2619.11110	0.02596
2617.82533	0.02584
2616.53956	0.02572
2615.25379	0.02571
2613.96802	0.02587
2612.68226	0.02612
2611.39649	0.02626
2610.11072	0.02622
2608.82495	0.02605
2607.53918	0.02587
2606.25341	0.02570
2604.96764	0.02554
2603.68187	0.02537
2602.39611	0.02517
2601.11034	0.02489
2599.82457	0.02456
2598.53880	0.02429
2597.25303	0.02422
2595.96726	0.02440
2594.68149	0.02471
2593.39572	0.02494
2592.10995	0.02499
2590.82419	0.02496
2589.53842	0.02492
2588.25265	0.02485
2586.96688	0.02472
2585.68111	0.02458
2584.39534	0.02453
2583.10957	0.02455
2581.82380	0.02451
2580.53804	0.02426
2579.25227	0.02378
2577.96650	0.02324
2576.68073	0.02287
2575.39496	0.02276
2574.10919	0.02281
2572.82342	0.02279
2571.53765	0.02253
2570.25188	0.02204
2568.96612	0.02157
2567.68035	0.02135
2566.39458	0.02144
2565.10881	0.02172
2563.82304	0.02208
2562.53727	0.02252
2561.25150	0.02303
2559.96573	0.02343
2558.67997	0.02348
2557.39420	0.02322
2556.10843	0.02292
2554.82266	0.02286
2553.53689	0.02301
2552.25112	0.02311
2550.96535	0.02298
2549.67958	0.02265
2548.39381	0.02230
2547.10805	0.02209
2545.82228	0.02200
2544.53651	0.02197
2543.25074	0.02191
2541.96497	0.02182
2540.67920	0.02166
2539.39343	0.02136
2538.10766	0.02093
2536.82190	0.02047
2535.53613	0.02017
2534.25036	0.02018
2532.96459	0.02048
2531.67882	0.02088
2530.39305	0.02114
2529.10728	0.02121
2527.82151	0.02120
2526.53574	0.02127
2525.24998	0.02149
2523.96421	0.02184
2522.67844	0.02217
2521.39267	0.02223
2520.10690	0.02183
2518.82113	0.02114
2517.53536	0.02058
2516.24959	0.02046
2514.96383	0.02074
2513.67806	0.02115
2512.39229	0.02147
2511.10652	0.02160
2509.82075	0.02145
2508.53498	0.02106
2507.24921	0.02062
2505.96344	0.02053
2504.67767	0.02097
2503.39191	0.02162
2502.10614	0.02189
2500.82037	0.02149
2499.53460	0.02072
2498.24883	0.02016
2496.96306	0.02007
2495.67729	0.02032
2494.39152	0.02064
2493.10576	0.02090
2491.81999	0.02108
2490.53422	0.02116
2489.24845	0.02115
2487.96268	0.02116
2486.67691	0.02123
2485.39114	0.02127
2484.10537	0.02117
2482.81960	0.02092
2481.53384	0.02065
2480.24807	0.02053
2478.96230	0.02065
2477.67653	0.02092
2476.39076	0.02102
2475.10499	0.02075
2473.81922	0.02020
2472.53345	0.01975
2471.24769	0.01968
2469.96192	0.01998
2468.67615	0.02043
2467.39038	0.02086
2466.10461	0.02122
2464.81884	0.02151
2463.53307	0.02162
2462.24730	0.02140
2460.96153	0.02095
2459.67577	0.02058
2458.39000	0.02053
2457.10423	0.02071
2455.81846	0.02085
2454.53269	0.02087
2453.24692	0.02086
2451.96115	0.02089
2450.67538	0.02094
2449.38962	0.02102
2448.10385	0.02112
2446.81808	0.02116
2445.53231	0.02107
2444.24654	0.02083
2442.96077	0.02057
2441.67500	0.02040
2440.38923	0.02035
2439.10346	0.02043
2437.81770	0.02050
2436.53193	0.02044
2435.24616	0.02019
2433.96039	0.01996
2432.67462	0.01995
2431.38885	0.02018
2430.10308	0.02044
2428.81731	0.02061
2427.53155	0.02070
2426.24578	0.02082
2424.96001	0.02092
2423.67424	0.02089
2422.38847	0.02073
2421.10270	0.02056
2419.81693	0.02053
2418.53116	0.02063
2417.24539	0.02069
2415.95963	0.02059
2414.67386	0.02030
2413.38809	0.01996
2412.10232	0.01973
2410.81655	0.01973
2409.53078	0.01996
2408.24501	0.02032
2406.95924	0.02062
2405.67347	0.02071
2404.38771	0.02054
2403.10194	0.02018
2401.81617	0.01981
2400.53040	0.01966
2399.24463	0.02065
2397.95886	0.02150
2396.67309	0.02182
2395.38732	0.02177
2394.10156	0.02148
2392.81579	0.02097
2391.53002	0.02031
2390.24425	0.01961
2388.95848	0.01902
2387.67271	0.01863
2386.38694	0.01840
2385.10117	0.01827
2383.81540	0.01816
2382.52964	0.01804
2381.24387	0.01793
2379.95810	0.01789
2378.67233	0.01798
2377.38656	0.01816
2376.10079	0.01831
2374.81502	0.01818
2373.52925	0.01758
2372.24349	0.01656
2370.95772	0.01542
2369.67195	0.01453
2368.38618	0.01415
2367.10041	0.01431
2365.81464	0.01479
2364.52887	0.01515
2363.24310	0.01493
2361.95733	0.01404
2360.67157	0.01297
2359.38580	0.01242
2358.10003	0.01267
2356.81426	0.01334
2355.52849	0.01391
2354.24272	0.01429
2352.95695	0.01450
2351.67118	0.01452
2350.38542	0.01440
2349.09965	0.01425
2347.81388	0.01430
2346.52811	0.01455
2345.24234	0.01470
2343.95657	0.01471
2342.67080	0.01497
2341.38503	0.01567
2340.09926	0.01657
2338.81350	0.01724
2337.52773	0.01737
2336.24196	0.01693
2334.95619	0.01629
2333.67042	0.01594
2332.38465	0.01601
2331.09888	0.01631
2329.81311	0.01654
2328.52735	0.01661
2327.24158	0.01677
2325.95581	0.01729
2324.67004	0.01826
2323.38427	0.01945
2322.09850	0.02039
2320.81273	0.02068
2319.52696	0.02026
2318.24119	0.01949
2316.95543	0.01883
2315.66966	0.01857
2314.38389	0.01868
2313.09812	0.01894
2311.81235	0.01916
2310.52658	0.01926
2309.24081	0.01928
2307.95504	0.01930
2306.66928	0.01932
2305.38351	0.01928
2304.09774	0.01911
2302.81197	0.01886
2301.52620	0.01859
2300.24043	0.01836
2298.95466	0.01817
2297.66889	0.01800
2296.38312	0.01786
2295.09736	0.01781
2293.81159	0.01787
2292.52582	0.01797
2291.24005	0.01802
2289.95428	0.01794
2288.66851	0.01780
2287.38274	0.01767
2286.09697	0.01759
2284.81121	0.01753
2283.52544	0.01749
2282.23967	0.01750
2280.95390	0.01755
2279.66813	0.01761
2278.38236	0.01766
2277.09659	0.01769
2275.81082	0.01767
2274.52505	0.01746
2273.23929	0.01701
2271.95352	0.01639
2270.66775	0.01586
2269.38198	0.01561
2268.09621	0.01560
2266.81044	0.01562
2265.52467	0.01543
2264.23890	0.01496
2262.95314	0.01437
2261.66737	0.01392
2260.38160	0.01380
2259.09583	0.01393
2257.81006	0.01410
2256.52429	0.01412
2255.23852	0.01398
2253.95275	0.01376
2252.66698	0.01347
2251.38122	0.01307
2250.09545	0.01278
2248.80968	0.01279
2247.52391	0.01260
2246.23814	0.01270
2244.95237	0.01313
2243.66660	0.01379
2242.38083	0.01452
2241.09507	0.01506
2239.80930	0.01518
2238.52353	0.01486
2237.23776	0.01436
2235.95199	0.01388
2234.66622	0.01337
2233.38045	0.01276
2232.09468	0.01231
2230.80891	0.01234
2229.52315	0.01276
2228.23738	0.01312
2226.95161	0.01321
2225.66584	0.01316
2224.38007	0.01294
2223.09430	0.01224
2221.80853	0.01101
2220.52276	0.00976
2219.23700	0.00926
2217.95123	0.00977
2216.66546	0.01080
2215.37969	0.01148
2214.09392	0.01128
2212.80815	0.01037
2211.52238	0.00944
2210.23661	0.00911
2208.95084	0.00938
2207.66508	0.00976
2206.37931	0.00981
2205.09354	0.00955
2203.80777	0.00937
2202.52200	0.00945
2201.23623	0.00957
2199.95046	0.00940
2198.66469	0.00891
2197.37893	0.00835
2196.09316	0.00810
2194.80739	0.00838
2193.52162	0.00913
2192.23585	0.00994
2190.95008	0.01024
2189.66431	0.00969
2188.37854	0.00852
2187.09277	0.00721
2185.80701	0.00612
2184.52124	0.00539
2183.23547	0.00527
2181.94970	0.00608
2180.66393	0.00758
2179.37816	0.00880
2178.09239	0.00880
2176.80662	0.00755
2175.52085	0.00597
2174.23509	0.00500
2172.94932	0.00491
2171.66355	0.00534
2170.37778	0.00579
2169.09201	0.00590
2167.80624	0.00556
2166.52047	0.00496
2165.23470	0.00463
2163.94894	0.00497
2162.66317	0.00566
2161.37740	0.00585
2160.09163	0.00508
2158.80586	0.00378
2157.52009	0.00271
2156.23432	0.00234
2154.94855	0.00271
2153.66278	0.00369
2152.37702	0.00497
2151.09125	0.00620
2149.80548	0.00716
2148.51971	0.00782
2147.23394	0.00821
2145.94817	0.00837
2144.66240	0.00842
2143.37663	0.00846
2142.09087	0.00860
2140.80510	0.00898
2139.51933	0.00966
2138.23356	0.01036
2136.94779	0.01056
2135.66202	0.01008
2134.37625	0.00922
2133.09048	0.00852
2131.80471	0.00835
2130.51895	0.00879
2129.23318	0.00956
2127.94741	0.01019
2126.66164	0.01038
2125.37587	0.01025
2124.09010	0.01005
2122.80433	0.00984
2121.51856	0.00966
2120.23280	0.00971
2118.94703	0.01010
2117.66126	0.01059
2116.37549	0.01076
2115.08972	0.01055
2113.80395	0.01025
2112.51818	0.01015
2111.23241	0.01020
2109.94664	0.01023
2108.66088	0.01018
2107.37511	0.01016
2106.08934	0.01034
2104.80357	0.01078
2103.51780	0.01131
2102.23203	0.01173
2100.94626	0.01188
2099.66049	0.01212
2098.37473	0.01166
2097.08896	0.01073
2095.80319	0.00997
2094.51742	0.00978
2093.23165	0.01016
2091.94588	0.01070
2090.66011	0.01102
2089.37434	0.01106
2088.08857	0.01102
2086.80281	0.01113
2085.51704	0.01135
2084.23127	0.01153
2082.94550	0.01163
2081.65973	0.01177
2080.37396	0.01206
2079.08819	0.01237
2077.80242	0.01243
2076.51666	0.01212
2075.23089	0.01156
2073.94512	0.01106
2072.65935	0.01080
2071.37358	0.01067
2070.08781	0.01055
2068.80204	0.01052
2067.51627	0.01076
2066.23050	0.01122
2064.94474	0.01158
2063.65897	0.01160
2062.37320	0.01121
2061.08743	0.01046
2059.80166	0.00957
2058.51589	0.00891
2057.23012	0.00864
2055.94435	0.00852
2054.65859	0.00823
2053.37282	0.00792
2052.08705	0.00809
2050.80128	0.00894
2049.51551	0.00996
2048.22974	0.01031
2046.94397	0.00955
2045.65820	0.00800
2044.37243	0.00641
2043.08667	0.00539
2041.80090	0.00522
2040.51513	0.00574
2039.22936	0.00658
2037.94359	0.00736
2036.65782	0.00802
2035.37205	0.00871
2034.08628	0.00938
2032.80052	0.00952
2031.51475	0.00860
2030.22898	0.00670
2028.94321	0.00450
2027.65744	0.00282
2026.37167	0.00220
2025.08590	0.00272
2023.80013	0.00401
2022.51436	0.00543
2021.22860	0.00643
2019.94283	0.00685
2018.65706	0.00688
2017.37129	0.00684
2016.08552	0.00692
2014.79975	0.00697
2013.51398	0.00683
2012.22821	0.00658
2010.94245	0.00646
2009.65668	0.00641
2008.37091	0.00626
2007.08514	0.00612
2005.79937	0.00640
2004.51360	0.00720
2003.22783	0.00808
2001.94206	0.00856
2000.65629	0.00852
1999.37053	0.00819
1998.08476	0.00782
1996.79899	0.00765
1995.51322	0.00781
1994.22745	0.00807
1992.94168	0.00797
1991.65591	0.00733
1990.37014	0.00652
1989.08438	0.00622
1987.79861	0.00681
1986.51284	0.00802
1985.22707	0.00928
1983.94130	0.01017
1982.65553	0.01053
1981.36976	0.01044
1980.08399	0.01010
1978.79822	0.00976
1977.51246	0.00959
1976.22669	0.00951
1974.94092	0.00932
1973.65515	0.00903
1972.36938	0.00898
1971.08361	0.00938
1969.79784	0.00996
1968.51207	0.01022
1967.22631	0.00999
1965.94054	0.00947
1964.65477	0.00890
1963.36900	0.00829
1962.08323	0.00766
1960.79746	0.00727
1959.51169	0.00728
1958.22592	0.00756
1956.94015	0.00787
1955.65439	0.00814
1954.36862	0.00848
1953.08285	0.00892
1951.79708	0.00937
1950.51131	0.00974
1949.22554	0.00997
1947.93977	0.01002
1946.65400	0.00993
1945.36823	0.00991
1944.08247	0.01014
1942.79670	0.01059
1941.51093	0.01102
1940.22516	0.01124
1938.93939	0.01132
1937.65362	0.01144
1936.36785	0.01172
1935.08208	0.01208
1933.79632	0.01229
1932.51055	0.01219
1931.22478	0.01180
1929.93901	0.01134
1928.65324	0.01100
1927.36747	0.01084
1926.08170	0.01084
1924.79593	0.01099
1923.51016	0.01121
1922.22440	0.01142
1920.93863	0.01156
1919.65286	0.01163
1918.36709	0.01161
1917.08132	0.01147
1915.79555	0.01132
1914.50978	0.01132
1913.22401	0.01147
1911.93825	0.01162
1910.65248	0.01161
1909.36671	0.01145
1908.08094	0.01132
1906.79517	0.01138
1905.50940	0.01164
1904.22363	0.01196
1902.93786	0.01221
1901.65209	0.01237
1900.36633	0.01245
1899.08056	0.01249
1897.79479	0.01250
1896.50902	0.01250
1895.22325	0.01249
1893.93748	0.01249
1892.65171	0.01253
1891.36594	0.01261
1890.08018	0.01268
1888.79441	0.01269
1887.50864	0.01272
1886.22287	0.01282
1884.93710	0.01294
1883.65133	0.01296
1882.36556	0.01283
1881.07979	0.01261
1879.79402	0.01238
1878.50826	0.01223
1877.22249	0.01226
1875.93672	0.01245
1874.65095	0.01268
1873.36518	0.01287
1872.07941	0.01305
1870.79364	0.01331
1869.50787	0.01355
1868.22211	0.01359
1866.93634	0.01340
1865.65057	0.01313
1864.36480	0.01294
1863.07903	0.01284
1861.79326	0.01279
1860.50749	0.01273
1859.22172	0.01268
1857.93595	0.01270
1856.65019	0.01280
1855.36442	0.01294
1854.07865	0.01304
1852.79288	0.01306
1851.50711	0.01302
1850.22134	0.01298
1848.93557	0.01300
1847.64980	0.01314
1846.36404	0.01341
1845.07827	0.01368
1843.79250	0.01372
1842.50673	0.01347
1841.22096	0.01313
1839.93519	0.01292
1838.64942	0.01283
1837.36365	0.01276
1836.07788	0.01260
1834.79212	0.01239
1833.50635	0.01225
1832.22058	0.01232
1830.93481	0.01258
1829.64904	0.01281
1828.36327	0.01292
1827.07750	0.01297
1825.79173	0.01302
1824.50597	0.01302
1823.22020	0.01298
1821.93443	0.01293
1820.64866	0.01286
1819.36289	0.01269
1818.07712	0.01244
1816.79135	0.01222
1815.50558	0.01217
1814.21981	0.01234
1812.93405	0.01266
1811.64828	0.01299
1810.36251	0.01318
1809.07674	0.01319
1807.79097	0.01307
1806.50520	0.01294
1805.21943	0.01287
1803.93366	0.01290
1802.64790	0.01299
1801.36213	0.01307
1800.07636	0.01309
1798.79059	0.01307
1797.50482	0.01306
1796.21905	0.01315
1794.93328	0.01341
1793.64751	0.01378
1792.36174	0.01404
1791.07598	0.01401
1789.79021	0.01379
1788.50444	0.01358
1787.21867	0.01348
1785.93290	0.01344
1784.64713	0.01337
1783.36136	0.01327
1782.07559	0.01324
1780.78983	0.01330
1779.50406	0.01336
1778.21829	0.01342
1776.93252	0.01354
1775.64675	0.01379
1774.36098	0.01417
1773.07521	0.01446
1771.78944	0.01445
1770.50367	0.01426
1769.21791	0.01413
1767.93214	0.01408
1766.64637	0.01401
1765.36060	0.01399
1764.07483	0.01417
1762.78906	0.01447
1761.50329	0.01465
1760.21752	0.01466
1758.93176	0.01463
1757.64599	0.01460
1756.36022	0.01447
1755.07445	0.01428
1753.78868	0.01425
1752.50291	0.01444
1751.21714	0.01460
1749.93137	0.01455
1748.64560	0.01436
1747.35984	0.01422
1746.07407	0.01419
1744.78830	0.01423
1743.50253	0.01433
1742.21676	0.01452
1740.93099	0.01475
1739.64522	0.01487
1738.35945	0.01487
1737.07369	0.01509
1735.78792	0.01574
1734.50215	0.01642
1733.21638	0.01658
1731.93061	0.01623
1730.64484	0.01586
1729.35907	0.01569
1728.07330	0.01565
1726.78753	0.01570
1725.50177	0.01583
1724.21600	0.01598
1722.93023	0.01605
1721.64446	0.01620
1720.35869	0.01668
1719.07292	0.01749
1717.78715	0.01819
1716.50138	0.01843
1715.21561	0.01829
1713.92985	0.01810
1712.64408	0.01808
1711.35831	0.01824
1710.07254	0.01854
1708.78677	0.01895
1707.50100	0.01943
1706.21523	0.01989
1704.92946	0.02026
1703.64370	0.02073
1702.35793	0.02155
1701.07216	0.02247
1699.78639	0.02299
1698.50062	0.02317
1697.21485	0.02349
1695.92908	0.02393
1694.64331	0.02407
1693.35754	0.02400
1692.07178	0.02416
1690.78601	0.02461
1689.50024	0.02511
1688.21447	0.02566
1686.92870	0.02650
1685.64293	0.02756
1684.35716	0.02826
1683.07139	0.02828
1681.78563	0.02801
1680.49986	0.02797
1679.21409	0.02829
1677.92832	0.02890
1676.64255	0.02968
1675.35678	0.03034
1674.07101	0.03071
1672.78524	0.03102
1671.49947	0.03154
1670.21371	0.03218
1668.92794	0.03263
1667.64217	0.03283
1666.35640	0.03302
1665.07063	0.03343
1663.78486	0.03400
1662.49909	0.03449
1661.21332	0.03479
1659.92756	0.03500
1658.64179	0.03524
1657.35602	0.03565
1656.07025	0.03651
1654.78448	0.03782
1653.49871	0.03890
1652.21294	0.03899
1650.92717	0.03831
1649.64140	0.03782
1648.35564	0.03801
1647.06987	0.03844
1645.78410	0.03853
1644.49833	0.03822
1643.21256	0.03783
1641.92679	0.03763
1640.64102	0.03762
1639.35525	0.03778
1638.06949	0.03812
1636.78372	0.03851
1635.49795	0.03856
1634.21218	0.03812
1632.92641	0.03749
1631.64064	0.03711
1630.35487	0.03706
1629.06910	0.03709
1627.78333	0.03699
1626.49757	0.03676
1625.21180	0.03650
1623.92603	0.03622
1622.64026	0.03577
1621.35449	0.03517
1620.06872	0.03475
1618.78295	0.03472
1617.49718	0.03484
1616.21142	0.03459
1614.92565	0.03387
1613.63988	0.03308
1612.35411	0.03258
1611.06834	0.03237
1609.78257	0.03227
1608.49680	0.03216
1607.21103	0.03196
1605.92526	0.03170
1604.63950	0.03144
1603.35373	0.03121
1602.06796	0.03098
1600.78219	0.03079
1599.49642	0.03065
1598.21065	0.03056
1596.92488	0.03048
1595.63911	0.03037
1594.35335	0.03023
1593.06758	0.03013
1591.78181	0.03008
1590.49604	0.03009
1589.21027	0.03012
1587.92450	0.03016
1586.63873	0.03023
1585.35296	0.03032
1584.06719	0.03043
1582.78143	0.03050
1581.49566	0.03055
1580.20989	0.03065
1578.92412	0.03100
1577.63835	0.03158
1576.35258	0.03200
1575.06681	0.03191
1573.78104	0.03156
1572.49528	0.03148
1571.20951	0.03180
1569.92374	0.03220
1568.63797	0.03236
1567.35220	0.03232
1566.06643	0.03228
1564.78066	0.03228
1563.49489	0.03242
1562.20912	0.03295
1560.92336	0.03390
1559.63759	0.03477
1558.35182	0.03493
1557.06605	0.03447
1555.78028	0.03397
1554.49451	0.03373
1553.20874	0.03361
1551.92297	0.03352
1550.63721	0.03348
1549.35144	0.03345
1548.06567	0.03344
1546.77990	0.03350
1545.49413	0.03367
1544.20836	0.03390
1542.92259	0.03425
1541.63682	0.03467
1540.35105	0.03486
1539.06529	0.03446
1537.77952	0.03360
1536.49375	0.03288
1535.20798	0.03267
1533.92221	0.03273
1532.63644	0.03263
1531.35067	0.03233
1530.06490	0.03204
1528.77914	0.03192
1527.49337	0.03192
1526.20760	0.03193
1524.92183	0.03196
1523.63606	0.03214
1522.35029	0.03240
1521.06452	0.03244
1519.77875	0.03218
1518.49298	0.03186
1517.20722	0.03166
1515.92145	0.03153
1514.63568	0.03139
1513.34991	0.03130
1512.06414	0.03126
1510.77837	0.03133
1509.49260	0.03168
1508.20683	0.03229
1506.92107	0.03275
1505.63530	0.03259
1504.34953	0.03196
1503.06376	0.03142
1501.77799	0.03130
1500.49222	0.03148
1499.20645	0.03174
1497.92068	0.03192
1496.63491	0.03193
1495.34915	0.03172
1494.06338	0.03148
1492.77761	0.03148
1491.49184	0.03170
1490.20607	0.03192
1488.92030	0.03197
1487.63453	0.03190
1486.34876	0.03182
1485.06299	0.03183
1483.77723	0.03200
1482.49146	0.03228
1481.20569	0.03262
1479.91992	0.03296
1478.63415	0.03336
1477.34838	0.03384
1476.06261	0.03443
1474.77684	0.03514
1473.49108	0.03585
1472.20531	0.03637
1470.91954	0.03662
1469.63377	0.03676
1468.34800	0.03707
1467.06223	0.03758
1465.77646	0.03814
1464.49069	0.03856
1463.20492	0.03879
1461.91916	0.03902
1460.63339	0.03950
1459.34762	0.04033
1458.06185	0.04130
1456.77608	0.04191
1455.49031	0.04196
1454.20454	0.04177
1452.91877	0.04171
1451.63301	0.04181
1450.34724	0.04193
1449.06147	0.04199
1447.77570	0.04195
1446.48993	0.04178
1445.20416	0.04154
1443.91839	0.04129
1442.63262	0.04106
1441.34685	0.04086
1440.06109	0.04079
1438.77532	0.04089
1437.48955	0.04101
1436.20378	0.04087
1434.91801	0.04046
1433.63224	0.04008
1432.34647	0.03993
1431.06070	0.03999
1429.77494	0.04008
1428.48917	0.04018
1427.20340	0.04034
1425.91763	0.04059
1424.63186	0.04088
1423.34609	0.04116
1422.06032	0.04153
1420.77455	0.04204
1419.48878	0.04250
1418.20302	0.04267
1416.91725	0.04260
1415.63148	0.04250
1414.34571	0.04248
1413.05994	0.04248
1411.77417	0.04247
1410.48840	0.04242
1409.20263	0.04234
1407.91687	0.04225
1406.63110	0.04211
1405.34533	0.04186
1404.05956	0.04146
1402.77379	0.04099
1401.48802	0.04056
1400.20225	0.04017
1398.91648	0.03973
1397.63071	0.03924
1396.34495	0.03878
1395.05918	0.03835
1393.77341	0.03782
1392.48764	0.03718
1391.20187	0.03657
1389.91610	0.03612
1388.63033	0.03582
1387.34456	0.03554
1386.05880	0.03519
1384.77303	0.03481
1383.48726	0.03449
1382.20149	0.03421
1380.91572	0.03395
1379.62995	0.03366
1378.34418	0.03335
1377.05841	0.03301
1375.77264	0.03262
1374.48688	0.03214
1373.20111	0.03151
1371.91534	0.03080
1370.62957	0.03012
1369.34380	0.02954
1368.05803	0.02906
1366.77226	0.02865
1365.48649	0.02830
1364.20073	0.02795
1362.91496	0.02754
1361.62919	0.02704
1360.34342	0.02650
1359.05765	0.02602
1357.77188	0.02563
1356.48611	0.02531
1355.20034	0.02502
1353.91457	0.02473
1352.62881	0.02446
1351.34304	0.02424
1350.05727	0.02408
1348.77150	0.02396
1347.48573	0.02385
1346.19996	0.02374
1344.91419	0.02362
1343.62842	0.02354
1342.34266	0.02349
1341.05689	0.02346
1339.77112	0.02339
1338.48535	0.02328
1337.19958	0.02313
1335.91381	0.02301
1334.62804	0.02290
1333.34227	0.02280
1332.05650	0.02269
1330.77074	0.02259
1329.48497	0.02249
1328.19920	0.02237
1326.91343	0.02226
1325.62766	0.02217
1324.34189	0.02209
1323.05612	0.02200
1321.77035	0.02189
1320.48459	0.02177
1319.19882	0.02165
1317.91305	0.02156
1316.62728	0.02146
1315.34151	0.02136
1314.05574	0.02128
1312.76997	0.02121
1311.48420	0.02116
1310.19843	0.02111
1308.91267	0.02106
1307.62690	0.02102
1306.34113	0.02095
1305.05536	0.02087
1303.76959	0.02077
1302.48382	0.02068
1301.19805	0.02058
1299.91228	0.02048
1298.62652	0.02037
1297.34075	0.02027
1296.05498	0.02019
1294.76921	0.02013
1293.48344	0.02011
1292.19767	0.02012
1290.91190	0.02015
1289.62613	0.02019
1288.34036	0.02025
1287.05460	0.02032
1285.76883	0.02035
1284.48306	0.02034
1283.19729	0.02031
1281.91152	0.02030
1280.62575	0.02030
1279.33998	0.02031
1278.05421	0.02030
1276.76845	0.02025
1275.48268	0.02018
1274.19691	0.02011
1272.91114	0.02009
1271.62537	0.02013
1270.33960	0.02023
1269.05383	0.02035
1267.76806	0.02046
1266.48229	0.02054
1265.19653	0.02061
1263.91076	0.02066
1262.62499	0.02072
1261.33922	0.02079
1260.05345	0.02091
1258.76768	0.02104
1257.48191	0.02119
1256.19614	0.02135
1254.91037	0.02154
1253.62461	0.02177
1252.33884	0.02203
1251.05307	0.02228
1249.76730	0.02250
1248.48153	0.02268
1247.19576	0.02283
1245.90999	0.02295
1244.62422	0.02303
1243.33846	0.02313
1242.05269	0.02325
1240.76692	0.02340
1239.48115	0.02354
1238.19538	0.02365
1236.90961	0.02375
1235.62384	0.02386
1234.33807	0.02398
1233.05230	0.02408
1231.76654	0.02417
1230.48077	0.02427
1229.19500	0.02441
1227.90923	0.02457
1226.62346	0.02471
1225.33769	0.02480
1224.05192	0.02487
1222.76615	0.02493
1221.48039	0.02499
1220.19462	0.02504
1218.90885	0.02508
1217.62308	0.02516
1216.33731	0.02527
1215.05154	0.02545
1213.76577	0.02568
1212.48000	0.02597
1211.19423	0.02627
1209.90847	0.02654
1208.62270	0.02676
1207.33693	0.02696
1206.05116	0.02717
1204.76539	0.02742
1203.47962	0.02772
1202.19385	0.02801
1200.90808	0.02825
1199.62232	0.02840
1198.33655	0.02863
1197.05078	0.02888
1195.76501	0.02909
1194.47924	0.02928
1193.19347	0.02946
1191.90770	0.02967
1190.62193	0.02992
1189.33616	0.03018
1188.05040	0.03045
1186.76463	0.03074
1185.47886	0.03104
1184.19309	0.03134
1182.90732	0.03161
1181.62155	0.03184
1180.33578	0.03204
1179.05001	0.03226
1177.76425	0.03254
1176.47848	0.03289
1175.19271	0.03326
1173.90694	0.03359
1172.62117	0.03388
1171.33540	0.03416
1170.04963	0.03446
1168.76386	0.03482
1167.47809	0.03526
1166.19233	0.03574
1164.90656	0.03617
1163.62079	0.03653
1162.33502	0.03677
1161.04925	0.03692
1159.76348	0.03705
1158.47771	0.03723
1157.19194	0.03750
1155.90618	0.03780
1154.62041	0.03806
1153.33464	0.03831
1152.04887	0.03858
1150.76310	0.03890
1149.47733	0.03925
1148.19156	0.03961
1146.90579	0.03995
1145.62002	0.04027
1144.33426	0.04058
1143.04849	0.04089
1141.76272	0.04121
1140.47695	0.04158
1139.19118	0.04201
1137.90541	0.04252
1136.61964	0.04306
1135.33387	0.04361
1134.04811	0.04413
1132.76234	0.04466
1131.47657	0.04522
1130.19080	0.04587
1128.90503	0.04662
1127.61926	0.04748
1126.33349	0.04846
1125.04772	0.04957
1123.76195	0.05076
1122.47619	0.05198
1121.19042	0.05322
1119.90465	0.05451
1118.61888	0.05589
1117.33311	0.05734
1116.04734	0.05881
1114.76157	0.06027
1113.47580	0.06172
1112.19004	0.06314
1110.90427	0.06456
1109.61850	0.06597
1108.33273	0.06734
1107.04696	0.06867
1105.76119	0.06994
1104.47542	0.07113
1103.18965	0.07224
1101.90388	0.07328
1100.61812	0.07429
1099.33235	0.07529
1098.04658	0.07627
1096.76081	0.07719
1095.47504	0.07803
1094.18927	0.07877
1092.90350	0.07944
1091.61773	0.08007
1090.33197	0.08064
1089.04620	0.08113
1087.76043	0.08156
1086.47466	0.08199
1085.18889	0.08245
1083.90312	0.08292
1082.61735	0.08337
1081.33158	0.08385
1080.04581	0.08437
1078.76005	0.08492
1077.47428	0.08543
1076.18851	0.08588
1074.90274	0.08632
1073.61697	0.08683
1072.33120	0.08749
1071.04543	0.08830
1069.75966	0.08918
1068.47390	0.08999
1067.18813	0.09069
1065.90236	0.09132
1064.61659	0.09199
1063.33082	0.09273
1062.04505	0.09354
1060.75928	0.09441
1059.47351	0.09533
1058.18774	0.09630
1056.90198	0.09728
1055.61621	0.09820
1054.33044	0.09905
1053.04467	0.09986
1051.75890	0.10068
1050.47313	0.10152
1049.18736	0.10239
1047.90159	0.10328
1046.61583	0.10422
1045.33006	0.10523
1044.04429	0.10625
1042.75852	0.10724
1041.47275	0.10818
1040.18698	0.10911
1038.90121	0.11008
1037.61544	0.11108
1036.32967	0.11206
1035.04391	0.11294
1033.75814	0.11369
1032.47237	0.11432
1031.18660	0.11487
1029.90083	0.11538
1028.61506	0.11583
1027.32929	0.11617
1026.04352	0.11637
1024.75775	0.11641
1023.47199	0.11633
1022.18622	0.11614
1020.90045	0.11588
1019.61468	0.11552
1018.32891	0.11503
1017.04314	0.11442
1015.75737	0.11374
1014.47160	0.11300
1013.18584	0.11218
1011.90007	0.11123
1010.61430	0.11015
1009.32853	0.10895
1008.04276	0.10767
1006.75699	0.10629
1005.47122	0.10479
1004.18545	0.10320
1002.89968	0.10159
1001.61392	0.09999
1000.32815	0.09843
999.04238	0.09688
997.75661	0.09530
996.47084	0.09365
995.18507	0.09197
993.89930	0.09031
992.61353	0.08873
991.32777	0.08722
990.04200	0.08572
988.75623	0.08420
987.47046	0.08265
986.18469	0.08110
984.89892	0.07954
983.61315	0.07800
982.32738	0.07656
981.04161	0.07524
979.75585	0.07403
978.47008	0.07283
977.18431	0.07160
975.89854	0.07039
974.61277	0.06923
973.32700	0.06815
972.04123	0.06713
970.75546	0.06616
969.46970	0.06533
968.18393	0.06471
966.89816	0.06427
965.61239	0.06390
964.32662	0.06352
963.04085	0.06313
961.75508	0.06278
960.46931	0.06248
959.18354	0.06214
957.89778	0.06164
956.61201	0.06093
955.32624	0.06007
954.04047	0.05917
952.75470	0.05829
951.46893	0.05744
950.18316	0.05657
948.89739	0.05569
947.61163	0.05487
946.32586	0.05416
945.04009	0.05357
943.75432	0.05297
942.46855	0.05226
941.18278	0.05146
939.89701	0.05072
938.61124	0.05009
937.32547	0.04954
936.03971	0.04898
934.75394	0.04839
933.46817	0.04782
932.18240	0.04725
930.89663	0.04663
929.61086	0.04594
928.32509	0.04526
927.03932	0.04468
925.75356	0.04422
924.46779	0.04383
923.18202	0.04348
921.89625	0.04313
920.61048	0.04277
919.32471	0.04241
918.03894	0.04204
916.75317	0.04170
915.46740	0.04138
914.18164	0.04105
912.89587	0.04070
911.61010	0.04032
910.32433	0.03992
909.03856	0.03947
907.75279	0.03896
906.46702	0.03846
905.18125	0.03804
903.89549	0.03775
902.60972	0.03750
901.32395	0.03718
900.03818	0.03674
898.75241	0.03625
897.46664	0.03583
896.18087	0.03551
894.89510	0.03520
893.60933	0.03484
892.32357	0.03446
891.03780	0.03419
889.75203	0.03406
888.46626	0.03404
887.18049	0.03406
885.89472	0.03407
884.60895	0.03413
883.32318	0.03433
882.03742	0.03470
880.75165	0.03514
879.46588	0.03554
878.18011	0.03589
876.89434	0.03621
875.60857	0.03649
874.32280	0.03665
873.03703	0.03662
871.75126	0.03641
870.46550	0.03606
869.17973	0.03565
867.89396	0.03516
866.60819	0.03454
865.32242	0.03375
864.03665	0.03289
862.75088	0.03215
861.46511	0.03162
860.17935	0.03127
858.89358	0.03095
857.60781	0.03060
856.32204	0.03020
855.03627	0.02980
853.75050	0.02940
852.46473	0.02902
851.17896	0.02866
849.89319	0.02837
848.60743	0.02816
847.32166	0.02799
846.03589	0.02784
844.75012	0.02769
843.46435	0.02759
842.17858	0.02754
840.89281	0.02748
839.60704	0.02736
838.32128	0.02719
837.03551	0.02699
835.74974	0.02680
834.46397	0.02663
833.17820	0.02651
831.89243	0.02648
830.60666	0.02654
829.32089	0.02662
828.03512	0.02667
826.74936	0.02665
825.46359	0.02656
824.17782	0.02646
822.89205	0.02639
821.60628	0.02639
820.32051	0.02645
819.03474	0.02657
817.74897	0.02667
816.46321	0.02672
815.17744	0.02672
813.89167	0.02677
812.60590	0.02692
811.32013	0.02717
810.03436	0.02750
808.74859	0.02784
807.46282	0.02820
806.17705	0.02860
804.89129	0.02907
803.60552	0.02964
802.31975	0.03031
801.03398	0.03104
799.74821	0.03170
798.46244	0.03218
797.17667	0.03243
795.89090	0.03254
794.60513	0.03266
793.31937	0.03286
792.03360	0.03307
790.74783	0.03318
789.46206	0.03318
788.17629	0.03315
786.89052	0.03317
785.60475	0.03324
784.31898	0.03328
783.03322	0.03323
781.74745	0.03311
780.46168	0.03295
779.17591	0.03274
777.89014	0.03247
776.60437	0.03215
775.31860	0.03184
774.03283	0.03157
772.74706	0.03136
771.46130	0.03116
770.17553	0.03094
768.88976	0.03064
767.60399	0.03027
766.31822	0.02988
765.03245	0.02956
763.74668	0.02936
762.46091	0.02927
761.17515	0.02924
759.88938	0.02921
758.60361	0.02915
757.31784	0.02902
756.03207	0.02883
754.74630	0.02862
753.46053	0.02842
752.17476	0.02832
750.88899	0.02832
749.60323	0.02839
748.31746	0.02844
747.03169	0.02838
745.74592	0.02821
744.46015	0.02801
743.17438	0.02786
741.88861	0.02778
740.60284	0.02771
739.31708	0.02761
738.03131	0.02750
736.74554	0.02744
735.45977	0.02741
734.17400	0.02737
732.88823	0.02732
731.60246	0.02731
730.31669	0.02736
729.03092	0.02740
727.74516	0.02740
726.45939	0.02734
725.17362	0.02721
723.88785	0.02690
722.60208	0.02687
721.31631	0.02710
720.03054	0.02736
718.74477	0.02749
717.45901	0.02746
716.17324	0.02729
714.88747	0.02701
713.60170	0.02669
712.31593	0.02637
711.03016	0.02607
709.74439	0.02582
708.45862	0.02563
707.17285	0.02551
705.88709	0.02544
704.60132	0.02538
703.31555	0.02533
702.02978	0.02531
700.74401	0.02535
699.45824	0.02545
698.17247	0.02561
696.88670	0.02579
695.60094	0.02593
694.31517	0.02602
693.02940	0.02605
691.74363	0.02601
690.45786	0.02587
689.17209	0.02565
687.88632	0.02538
686.60055	0.02509
685.31478	0.02481
684.02902	0.02455
682.74325	0.02437
681.45748	0.02427
680.17171	0.02423
678.88594	0.02418
677.60017	0.02406
676.31440	0.02389
675.02863	0.02373
673.74287	0.02377
672.45710	0.02416
671.17133	0.02491
669.88556	0.02560
668.59979	0.02572
667.31402	0.02524
666.02825	0.02465
664.74248	0.02406
663.45671	0.02357
662.17095	0.02330
660.88518	0.02323
659.59941	0.02327
658.31364	0.02338
657.02787	0.02351
655.74210	0.02364
654.45633	0.02371
653.17056	0.02375
651.88480	0.02378
650.59903	0.02388
649.31326	0.02403
648.02749	0.02419
646.74172	0.02431
645.45595	0.02437
644.17018	0.02437
642.88441	0.02435
641.59864	0.02434
640.31288	0.02435
639.02711	0.02438
637.74134	0.02441
636.45557	0.02443
635.16980	0.02440
633.88403	0.02434
632.59826	0.02432
631.31249	0.02451
630.02673	0.02508
628.74096	0.02563
627.45519	0.02553
626.16942	0.02668
624.88365	0.02835
623.59788	0.02956
622.31211	0.03028
621.02634	0.03085
619.74057	0.03126
618.45481	0.03135
617.16904	0.03140
615.88327	0.03176
614.59750	0.03234
613.31173	0.03294
612.02596	0.03398
610.74019	0.03612
609.45442	0.03926
608.16866	0.04224
606.88289	0.04399
605.59712	0.04456
604.31135	0.04477
603.02558	0.04526
601.73981	0.04593
600.45404	0.04624
599.16827	0.04587
597.88250	0.04493
596.59674	0.04374
595.31097	0.04256
594.02520	0.04152
592.73943	0.04062
591.45366	0.03989
590.16789	0.03938
588.88212	0.03915
587.59635	0.03921
586.31059	0.03946
585.02482	0.03981
583.73905	0.04021
582.45328	0.04068
581.16751	0.04123
579.88174	0.04185
578.59597	0.04248
577.31020	0.04310
576.02443	0.04369
574.73867	0.04425
573.45290	0.04477
572.16713	0.04525
570.88136	0.04574
569.59559	0.04634
568.30982	0.04719
567.02405	0.04830
565.73828	0.04951
564.45251	0.05047
563.16675	0.05092
561.88098	0.05082
560.59521	0.05027
559.30944	0.04942
558.02367	0.04838
556.73790	0.04721
555.45213	0.04599
554.16636	0.04479
552.88060	0.04367
551.59483	0.04270
550.30906	0.04187
549.02329	0.04111
547.73752	0.04037
546.45175	0.03965
545.16598	0.03899
543.88021	0.03843
542.59444	0.03797
541.30868	0.03760
540.02291	0.03727
538.73714	0.03699
537.45137	0.03677
536.16560	0.03668
534.87983	0.03675
533.59406	0.03692
532.30829	0.03704
531.02253	0.03701
529.73676	0.03681
528.45099	0.03652
527.16522	0.03630
525.87945	0.03622
524.59368	0.03630
523.30791	0.03644
522.02214	0.03653
520.73637	0.03654
519.45061	0.03648
518.16484	0.03642
516.87907	0.03640
515.59330	0.03642
514.30753	0.03647
513.02176	0.03650
511.73599	0.03647
510.45022	0.03634
509.16446	0.03615
507.87869	0.03598
506.59292	0.03591
505.30715	0.03593
504.02138	0.03597
502.73561	0.03594
501.44984	0.03586
500.16407	0.03582
498.87830	0.03586
497.59254	0.03595
496.30677	0.03599
495.02100	0.03595
493.73523	0.03595
492.44946	0.03615
491.16369	0.03655
489.87792	0.03702
488.59215	0.03744
487.30639	0.03778
486.02062	0.03809
484.73485	0.03845
483.44908	0.03890
482.16331	0.03951
480.87754	0.04029
479.59177	0.04121
478.30600	0.04213
477.02023	0.04298
475.73447	0.04376
474.44870	0.04455
473.16293	0.04533
471.87716	0.04598
470.59139	0.04641
469.30562	0.04666
468.01985	0.04681
466.73408	0.04691
465.44832	0.04698
464.16255	0.04703
462.87678	0.04705
461.59101	0.04700
460.30524	0.04681
459.01947	0.04646
457.73370	0.04604
456.44793	0.04562
455.16216	0.04528
453.87640	0.04496
452.59063	0.04456
451.30486	0.04404
450.01909	0.04346
448.73332	0.04291
447.44755	0.04239
446.16178	0.04192
444.87601	0.04151
443.59025	0.04117
442.30448	0.04090
441.01871	0.04064
439.73294	0.04040
438.44717	0.04021
437.16140	0.04009
435.87563	0.03998
434.58986	0.03987
433.30409	0.03979
432.01833	0.03975
430.73256	0.03973
429.44679	0.03969
428.16102	0.03958
426.87525	0.03939
425.58948	0.03912
424.30371	0.03880
423.01794	0.03847
421.73218	0.03817
420.44641	0.03788
419.16064	0.03752
417.87487	0.03706
416.58910	0.03656
415.30333	0.03607
414.01756	0.03556
412.73179	0.03499
411.44602	0.03436
410.16026	0.03370
408.87449	0.03305
407.58872	0.03249
406.30295	0.03207
405.01718	0.03184
403.73141	0.03178
402.44564	0.03186
401.15987	0.03208
399.87411	0.03238
