3997.45528	0.04837
3996.16951	0.04812
3994.88374	0.04768
3993.59798	0.04700
3992.31221	0.04624
3991.02644	0.04575
3989.74067	0.04577
3988.45490	0.04622
3987.16913	0.04676
3985.88336	0.04705
3984.59759	0.04698
3983.31183	0.04682
3982.02606	0.04700
3980.74029	0.04774
3979.45452	0.04880
3978.16875	0.04977
3976.88298	0.05036
3975.59721	0.05049
3974.31144	0.05027
3973.02567	0.04999
3971.73991	0.05005
3970.45414	0.05063
3969.16837	0.05142
3967.88260	0.05186
3966.59683	0.05162
3965.31106	0.05075
3964.02529	0.04957
3962.73952	0.04845
3961.45376	0.04767
3960.16799	0.04736
3958.88222	0.04745
3957.59645	0.04774
3956.31068	0.04813
3955.02491	0.04876
3953.73914	0.04982
3952.45337	0.05129
3951.16760	0.05281
3949.88184	0.05383
3948.59607	0.05393
3947.31030	0.05314
3946.02453	0.05189
3944.73876	0.05075
3943.45299	0.05013
3942.16722	0.05013
3940.88145	0.05062
3939.59569	0.05137
3938.30992	0.05211
3937.02415	0.05274
3935.73838	0.05327
3934.45261	0.05366
3933.16684	0.05368
3931.88107	0.05312
3930.59530	0.05216
3929.30953	0.05133
3928.02377	0.05111
3926.73800	0.05163
3925.45223	0.05258
3924.16646	0.05352
3922.88069	0.05408
3921.59492	0.05403
3920.30915	0.05334
3919.02338	0.05228
3917.73762	0.05132
3916.45185	0.05086
3915.16608	0.05096
3913.88031	0.05147
3912.59454	0.05214
3911.30877	0.05277
3910.02300	0.05315
3908.73723	0.05321
3907.45146	0.05301
3906.16570	0.05266
3904.87993	0.05224
3903.59416	0.05191
3902.30839	0.05178
3901.02262	0.05172
3899.73685	0.05153
3898.45108	0.05122
3897.16531	0.05098
3895.87955	0.05096
3894.59378	0.05112
3893.30801	0.05144
3892.02224	0.05200
3890.73647	0.05278
3889.45070	0.05351
3888.16493	0.05383
3886.87916	0.05364
3885.59339	0.05318
3884.30763	0.05289
3883.02186	0.05306
3881.73609	0.05362
3880.45032	0.05420
3879.16455	0.05446
3877.87878	0.05423
3876.59301	0.05365
3875.30724	0.05299
3874.02148	0.05253
3872.73571	0.05247
3871.44994	0.05275
3870.16417	0.05312
3868.87840	0.05329
3867.59263	0.05327
3866.30686	0.05315
3865.02109	0.05291
3863.73532	0.05240
3862.44956	0.05177
3861.16379	0.05140
3859.87802	0.05161
3858.59225	0.05230
3857.30648	0.05315
3856.02071	0.05391
3854.73494	0.05442
3853.44917	0.05458
3852.16341	0.05447
3850.87764	0.05435
3849.59187	0.05444
3848.30610	0.05471
3847.02033	0.05497
3845.73456	0.05500
3844.44879	0.05473
3843.16302	0.05430
3841.87725	0.05391
3840.59149	0.05369
3839.30572	0.05360
3838.01995	0.05353
3836.73418	0.05344
3835.44841	0.05337
3834.16264	0.05336
3832.87687	0.05340
3831.59110	0.05346
3830.30534	0.05348
3829.01957	0.05339
3827.73380	0.05318
3826.44803	0.05288
3825.16226	0.05262
3823.87649	0.05257
3822.59072	0.05293
3821.30495	0.05368
3820.01918	0.05447
3818.73342	0.05485
3817.44765	0.05469
3816.16188	0.05418
3814.87611	0.05357
3813.59034	0.05289
3812.30457	0.05208
3811.01880	0.05114
3809.73303	0.05019
3808.44726	0.04941
3807.16150	0.04902
3805.87573	0.04918
3804.58996	0.04991
3803.30419	0.05097
3802.01842	0.05191
3800.73265	0.05238
3799.44688	0.05244
3798.16111	0.05245
3796.87535	0.05271
3795.58958	0.05312
3794.30381	0.05340
3793.01804	0.05334
3791.73227	0.05303
3790.44650	0.05274
3789.16073	0.05263
3787.87496	0.05264
3786.58919	0.05250
3785.30343	0.05205
3784.01766	0.05140
3782.73189	0.05089
3781.44612	0.05073
3780.16035	0.05082
3778.87458	0.05092
3777.58881	0.05095
3776.30304	0.05110
3775.01728	0.05156
3773.73151	0.05213
3772.44574	0.05240
3771.15997	0.05204
3769.87420	0.05112
3768.58843	0.05013
3767.30266	0.04971
3766.01689	0.05012
3764.73112	0.05099
3763.44536	0.05161
3762.15959	0.05159
3760.87382	0.05119
3759.58805	0.05097
3758.30228	0.05115
3757.01651	0.05148
3755.73074	0.05162
3754.44497	0.05149
3753.15921	0.05137
3751.87344	0.05152
3750.58767	0.05191
3749.30190	0.05229
3748.01613	0.05255
3746.73036	0.05267
3745.44459	0.05254
3744.15882	0.05205
3742.87305	0.05133
3741.58729	0.05075
3740.30152	0.05059
3739.01575	0.05072
3737.72998	0.05075
3736.44421	0.05048
3735.15844	0.05008
3733.87267	0.04992
3732.58690	0.05002
3731.30114	0.05006
3730.01537	0.04975
3728.72960	0.04914
3727.44383	0.04856
3726.15806	0.04828
3724.87229	0.04819
3723.58652	0.04796
3722.30075	0.04716
3721.01498	0.04589
3719.72922	0.04489
3718.44345	0.04479
3717.15768	0.04547
3715.87191	0.04625
3714.58614	0.04666
3713.30037	0.04672
3712.01460	0.04652
3710.72883	0.04620
3709.44307	0.04592
3708.15730	0.04571
3706.87153	0.04552
3705.58576	0.04526
3704.29999	0.04510
3703.01422	0.04543
3701.72845	0.04632
3700.44268	0.04742
3699.15691	0.04825
3697.87115	0.04866
3696.58538	0.04880
3695.29961	0.04886
3694.01384	0.04898
3692.72807	0.04922
3691.44230	0.04967
3690.15653	0.05021
3688.87076	0.05047
3687.58500	0.05026
3686.29923	0.04975
3685.01346	0.04926
3683.72769	0.04912
3682.44192	0.04939
3681.15615	0.04979
3679.87038	0.04993
3678.58461	0.04969
3677.29884	0.04942
3676.01308	0.04958
3674.72731	0.05024
3673.44154	0.05092
3672.15577	0.05119
3670.87000	0.05108
3669.58423	0.05098
3668.29846	0.05108
3667.01269	0.05131
3665.72693	0.05151
3664.44116	0.05166
3663.15539	0.05180
3661.86962	0.05188
3660.58385	0.05195
3659.29808	0.05229
3658.01231	0.05303
3656.72654	0.05393
3655.44077	0.05452
3654.15501	0.05467
3652.86924	0.05468
3651.58347	0.05490
3650.29770	0.05538
3649.01193	0.05601
3647.72616	0.05662
3646.44039	0.05710
3645.15462	0.05728
3643.86886	0.05704
3642.58309	0.05644
3641.29732	0.05566
3640.01155	0.05497
3638.72578	0.05461
3637.44001	0.05466
3636.15424	0.05512
3634.86847	0.05600
3633.58270	0.05717
3632.29694	0.05842
3631.01117	0.05948
3629.72540	0.06008
3628.43963	0.06010
3627.15386	0.05966
3625.86809	0.05900
3624.58232	0.05843
3623.29655	0.05827
3622.01079	0.05864
3620.72502	0.05948
3619.43925	0.06046
3618.15348	0.06121
3616.86771	0.06156
3615.58194	0.06168
3614.29617	0.06197
3613.01040	0.06265
3611.72463	0.06343
3610.43887	0.06377
3609.15310	0.06351
3607.86733	0.06300
3606.58156	0.06270
3605.29579	0.06281
3604.01002	0.06337
3602.72425	0.06431
3601.43848	0.06539
3600.15272	0.06627
3598.86695	0.06691
3597.58118	0.06745
3596.29541	0.06798
3595.00964	0.06847
3593.72387	0.06878
3592.43810	0.06870
3591.15233	0.06834
3589.86656	0.06800
3588.58080	0.06799
3587.29503	0.06859
3586.00926	0.06970
3584.72349	0.07089
3583.43772	0.07183
3582.15195	0.07251
3580.86618	0.07305
3579.58041	0.07358
3578.29464	0.07410
3577.00888	0.07460
3575.72311	0.07507
3574.43734	0.07549
3573.15157	0.07583
3571.86580	0.07604
3570.58003	0.07618
3569.29426	0.07629
3568.00849	0.07636
3566.72273	0.07631
3565.43696	0.07622
3564.15119	0.07639
3562.86542	0.07707
3561.57965	0.07817
3560.29388	0.07928
3559.00811	0.08002
3557.72234	0.08031
3556.43657	0.08039
3555.15081	0.08058
3553.86504	0.08104
3552.57927	0.08166
3551.29350	0.08226
3550.00773	0.08279
3548.72196	0.08334
3547.43619	0.08384
3546.15042	0.08403
3544.86466	0.08373
3543.57889	0.08310
3542.29312	0.08255
3541.00735	0.08241
3539.72158	0.08282
3538.43581	0.08376
3537.15004	0.08505
3535.86427	0.08639
3534.57850	0.08741
3533.29274	0.08789
3532.00697	0.08792
3530.72120	0.08784
3529.43543	0.08801
3528.14966	0.08850
3526.86389	0.08911
3525.57812	0.08957
3524.29235	0.08985
3523.00659	0.09012
3521.72082	0.09045
3520.43505	0.09062
3519.14928	0.09041
3517.86351	0.09005
3516.57774	0.09011
3515.29197	0.09093
3514.00620	0.09223
3512.72043	0.09335
3511.43467	0.09384
3510.14890	0.09377
3508.86313	0.09353
3507.57736	0.09352
3506.29159	0.09392
3505.00582	0.09462
3503.72005	0.09533
3502.43428	0.09574
3501.14852	0.09580
3499.86275	0.09576
3498.57698	0.09584
3497.29121	0.09604
3496.00544	0.09620
3494.71967	0.09634
3493.43390	0.09661
3492.14813	0.09711
3490.86236	0.09775
3489.57660	0.09832
3488.29083	0.09875
3487.00506	0.09906
3485.71929	0.09934
3484.43352	0.09967
3483.14775	0.10000
3481.86198	0.10023
3480.57621	0.10032
3479.29045	0.10039
3478.00468	0.10062
3476.71891	0.10103
3475.43314	0.10146
3474.14737	0.10184
3472.86160	0.10227
3471.57583	0.10283
3470.29006	0.10344
3469.00429	0.10391
3467.71853	0.10413
3466.43276	0.10408
3465.14699	0.10379
3463.86122	0.10345
3462.57545	0.10331
3461.28968	0.10362
3460.00391	0.10433
3458.71814	0.10516
3457.43238	0.10577
3456.14661	0.10597
3454.86084	0.10584
3453.57507	0.10569
3452.28930	0.10579
3451.00353	0.10615
3449.71776	0.10652
3448.43199	0.10664
3447.14622	0.10647
3445.86046	0.10622
3444.57469	0.10616
3443.28892	0.10643
3442.00315	0.10698
3440.71738	0.10759
3439.43161	0.10803
3438.14584	0.10815
3436.86007	0.10804
3435.57431	0.10790
3434.28854	0.10795
3433.00277	0.10824
3431.71700	0.10866
3430.43123	0.10916
3429.14546	0.10978
3427.85969	0.11060
3426.57392	0.11156
3425.28815	0.11238
3424.00239	0.11280
3422.71662	0.11278
3421.43085	0.11259
3420.14508	0.11260
3418.85931	0.11301
3417.57354	0.11366
3416.28777	0.11419
3415.00200	0.11432
3413.71624	0.11415
3412.43047	0.11397
3411.14470	0.11404
3409.85893	0.11433
3408.57316	0.11469
3407.28739	0.11500
3406.00162	0.11522
3404.71585	0.11529
3403.43008	0.11517
3402.14432	0.11492
3400.85855	0.11468
3399.57278	0.11451
3398.28701	0.11447
3397.00124	0.11454
3395.71547	0.11474
3394.42970	0.11512
3393.14393	0.11562
3391.85817	0.11609
3390.57240	0.11648
3389.28663	0.11680
3388.00086	0.11712
3386.71509	0.11745
3385.42932	0.11767
3384.14355	0.11769
3382.85778	0.11745
3381.57201	0.11696
3380.28625	0.11636
3379.00048	0.11592
3377.71471	0.11589
3376.42894	0.11627
3375.14317	0.11678
3373.85740	0.11713
3372.57163	0.11722
3371.28586	0.11721
3370.00010	0.11736
3368.71433	0.11777
3367.42856	0.11829
3366.14279	0.11870
3364.85702	0.11895
3363.57125	0.11914
3362.28548	0.11936
3360.99971	0.11955
3359.71394	0.11961
3358.42818	0.11947
3357.14241	0.11921
3355.85664	0.11897
3354.57087	0.11893
3353.28510	0.11914
3351.99933	0.11955
3350.71356	0.11999
3349.42779	0.12038
3348.14202	0.12065
3346.85626	0.12076
3345.57049	0.12073
3344.28472	0.12059
3342.99895	0.12037
3341.71318	0.12004
3340.42741	0.11962
3339.14164	0.11924
3337.85587	0.11908
3336.57011	0.11920
3335.28434	0.11959
3333.99857	0.12014
3332.71280	0.12069
3331.42703	0.12097
3330.14126	0.12085
3328.85549	0.12047
3327.56972	0.12017
3326.28395	0.12027
3324.99819	0.12080
3323.71242	0.12151
3322.42665	0.12207
3321.14088	0.12235
3319.85511	0.12240
3318.56934	0.12224
3317.28357	0.12181
3315.99780	0.12110
3314.71204	0.12036
3313.42627	0.11996
3312.14050	0.12012
3310.85473	0.12063
3309.56896	0.12107
3308.28319	0.12109
3306.99742	0.12070
3305.71165	0.12013
3304.42588	0.11961
3303.14012	0.11924
3301.85435	0.11908
3300.56858	0.11915
3299.28281	0.11943
3297.99704	0.11977
3296.71127	0.12002
3295.42550	0.12009
3294.13973	0.12007
3292.85397	0.12003
3291.56820	0.11997
3290.28243	0.11980
3288.99666	0.11940
3287.71089	0.11873
3286.42512	0.11802
3285.13935	0.11766
3283.85358	0.11792
3282.56781	0.11859
3281.28205	0.11921
3279.99628	0.11947
3278.71051	0.11946
3277.42474	0.11944
3276.13897	0.11960
3274.85320	0.11988
3273.56743	0.12013
3272.28166	0.12029
3270.99590	0.12037
3269.71013	0.12036
3268.42436	0.12019
3267.13859	0.11990
3265.85282	0.11967
3264.56705	0.11965
3263.28128	0.11976
3261.99551	0.11980
3260.70974	0.11963
3259.42398	0.11939
3258.13821	0.11932
3256.85244	0.11952
3255.56667	0.11977
3254.28090	0.11971
3252.99513	0.11926
3251.70936	0.11865
3250.42359	0.11821
3249.13783	0.11809
3247.85206	0.11819
3246.56629	0.11841
3245.28052	0.11867
3243.99475	0.11890
3242.70898	0.11896
3241.42321	0.11874
3240.13744	0.11835
3238.85167	0.11804
3237.56591	0.11805
3236.28014	0.11841
3234.99437	0.11891
3233.70860	0.11920
3232.42283	0.11899
3231.13706	0.11827
3229.85129	0.11735
3228.56552	0.11659
3227.27976	0.11619
3225.99399	0.11608
3224.70822	0.11615
3223.42245	0.11629
3222.13668	0.11642
3220.85091	0.11645
3219.56514	0.11634
3218.27937	0.11612
3216.99360	0.11592
3215.70784	0.11586
3214.42207	0.11595
3213.13630	0.11607
3211.85053	0.11607
3210.56476	0.11593
3209.27899	0.11567
3207.99322	0.11537
3206.70745	0.11513
3205.42169	0.11505
3204.13592	0.11519
3202.85015	0.11546
3201.56438	0.11570
3200.27861	0.11588
3198.99284	0.11606
3197.70707	0.11627
3196.42130	0.11642
3195.13553	0.11633
3193.84977	0.11594
3192.56400	0.11541
3191.27823	0.11500
3189.99246	0.11481
3188.70669	0.11473
3187.42092	0.11461
3186.13515	0.11440
3184.84938	0.11411
3183.56362	0.11380
3182.27785	0.11356
3180.99208	0.11350
3179.70631	0.11369
3178.42054	0.11402
3177.13477	0.11426
3175.84900	0.11427
3174.56323	0.11413
3173.27746	0.11404
3171.99170	0.11401
3170.70593	0.11389
3169.42016	0.11354
3168.13439	0.11312
3166.84862	0.11288
3165.56285	0.11293
3164.27708	0.11300
3162.99131	0.11277
3161.70555	0.11219
3160.41978	0.11157
3159.13401	0.11131
3157.84824	0.11144
3156.56247	0.11167
3155.27670	0.11169
3153.99093	0.11141
3152.70516	0.11099
3151.41939	0.11062
3150.13363	0.11041
3148.84786	0.11040
3147.56209	0.11051
3146.27632	0.11065
3144.99055	0.11075
3143.70478	0.11080
3142.41901	0.11079
3141.13324	0.11067
3139.84748	0.11044
3138.56171	0.11011
3137.27594	0.10972
3135.99017	0.10927
3134.70440	0.10886
3133.41863	0.10864
3132.13286	0.10866
3130.84709	0.10878
3129.56132	0.10878
3128.27556	0.10860
3126.98979	0.10837
3125.70402	0.10828
3124.41825	0.10839
3123.13248	0.10861
3121.84671	0.10875
3120.56094	0.10866
3119.27517	0.10833
3117.98940	0.10788
3116.70364	0.10744
3115.41787	0.10708
3114.13210	0.10681
3112.84633	0.10669
3111.56056	0.10673
3110.27479	0.10691
3108.98902	0.10707
3107.70325	0.10711
3106.41749	0.10695
3105.13172	0.10665
3103.84595	0.10635
3102.56018	0.10617
3101.27441	0.10615
3099.98864	0.10624
3098.70287	0.10634
3097.41710	0.10635
3096.13133	0.10625
3094.84557	0.10607
3093.55980	0.10581
3092.27403	0.10552
3090.98826	0.10527
3089.70249	0.10519
3088.41672	0.10531
3087.13095	0.10551
3085.84518	0.10565
3084.55942	0.10564
3083.27365	0.10552
3081.98788	0.10530
3080.70211	0.10493
3079.41634	0.10439
3078.13057	0.10377
3076.84480	0.10324
3075.55903	0.10291
3074.27326	0.10276
3072.98750	0.10269
3071.70173	0.10258
3070.41596	0.10242
3069.13019	0.10229
3067.84442	0.10229
3066.55865	0.10242
3065.27288	0.10259
3063.98711	0.10271
3062.70135	0.10277
3061.41558	0.10278
3060.12981	0.10272
3058.84404	0.10259
3057.55827	0.10245
3056.27250	0.10235
3054.98673	0.10228
3053.70096	0.10216
3052.41519	0.10193
3051.12943	0.10157
3049.84366	0.10119
3048.55789	0.10090
3047.27212	0.10075
3045.98635	0.10069
3044.70058	0.10057
3043.41481	0.10029
3042.12904	0.09992
3040.84328	0.09965
3039.55751	0.09954
3038.27174	0.09953
3036.98597	0.09952
3035.70020	0.09945
3034.41443	0.09939
3033.12866	0.09943
3031.84289	0.09958
3030.55712	0.09977
3029.27136	0.09981
3027.98559	0.09958
3026.69982	0.09912
3025.41405	0.09864
3024.12828	0.09832
3022.84251	0.09823
3021.55674	0.09831
3020.27097	0.09841
3018.98521	0.09836
3017.69944	0.09808
3016.41367	0.09770
3015.12790	0.09740
3013.84213	0.09725
3012.55636	0.09717
3011.27059	0.09708
3009.98482	0.09699
3008.69905	0.09692
3007.41329	0.09684
3006.12752	0.09661
3004.84175	0.09616
3003.55598	0.09560
3002.27021	0.09512
3000.98444	0.09482
2999.69867	0.09465
2998.41290	0.09453
2997.12714	0.09448
2995.84137	0.09458
2994.55560	0.09487
2993.26983	0.09528
2991.98406	0.09570
2990.69829	0.09605
2989.41252	0.09627
2988.12675	0.09637
2986.84098	0.09646
2985.55522	0.09665
2984.26945	0.09696
2982.98368	0.09742
2981.69791	0.09812
2980.41214	0.09917
2979.12637	0.10059
2977.84060	0.10223
2976.55483	0.10394
2975.26907	0.10561
2973.98330	0.10715
2972.69753	0.10856
2971.41176	0.11000
2970.12599	0.11176
2968.84022	0.11400
2967.55445	0.11666
2966.26868	0.11950
2964.98291	0.12227
2963.69715	0.12484
2962.41138	0.12729
2961.12561	0.12980
2959.83984	0.13235
2958.55407	0.13477
2957.26830	0.13687
2955.98253	0.13861
2954.69676	0.14007
2953.41100	0.14131
2952.12523	0.14237
2950.83946	0.14327
2949.55369	0.14398
2948.26792	0.14445
2946.98215	0.14460
2945.69638	0.14446
2944.41061	0.14420
2943.12484	0.14408
2941.83908	0.14429
2940.55331	0.14492
2939.26754	0.14603
2937.98177	0.14758
2936.69600	0.14944
2935.41023	0.15145
2934.12446	0.15360
2932.83869	0.15601
2931.55293	0.15869
2930.26716	0.16148
2928.98139	0.16409
2927.69562	0.16635
2926.40985	0.16822
2925.12408	0.16970
2923.83831	0.17073
2922.55254	0.17125
2921.26677	0.17129
2919.98101	0.17088
2918.69524	0.17003
2917.40947	0.16866
2916.12370	0.16679
2914.83793	0.16455
2913.55216	0.16213
2912.26639	0.15977
2910.98062	0.15766
2909.69486	0.15587
2908.40909	0.15435
2907.12332	0.15299
2905.83755	0.15167
2904.55178	0.15024
2903.26601	0.14862
2901.98024	0.14690
2900.69447	0.14527
2899.40870	0.14383
2898.12294	0.14255
2896.83717	0.14132
2895.55140	0.14011
2894.26563	0.13882
2892.97986	0.13724
2891.69409	0.13532
2890.40832	0.13329
2889.12255	0.13157
2887.83678	0.13036
2886.55102	0.12953
2885.26525	0.12880
2883.97948	0.12802
2882.69371	0.12720
2881.40794	0.12649
2880.12217	0.12612
2878.83640	0.12633
2877.55063	0.12712
2876.26487	0.12824
2874.97910	0.12940
2873.69333	0.13044
2872.40756	0.13135
2871.12179	0.13219
2869.83602	0.13302
2868.55025	0.13380
2867.26448	0.13441
2865.97871	0.13479
2864.69295	0.13499
2863.40718	0.13521
2862.12141	0.13552
2860.83564	0.13594
2859.54987	0.13646
2858.26410	0.13705
2856.97833	0.13755
2855.69256	0.13772
2854.40680	0.13745
2853.12103	0.13685
2851.83526	0.13609
2850.54949	0.13518
2849.26372	0.13399
2847.97795	0.13246
2846.69218	0.13064
2845.40641	0.12862
2844.12064	0.12647
2842.83488	0.12422
2841.54911	0.12197
2840.26334	0.11980
2838.97757	0.11770
2837.69180	0.11558
2836.40603	0.11347
2835.12026	0.11150
2833.83449	0.10970
2832.54873	0.10803
2831.26296	0.10640
2829.97719	0.10487
2828.69142	0.10354
2827.40565	0.10240
2826.11988	0.10136
2824.83411	0.10032
2823.54834	0.09939
2822.26257	0.09868
2820.97681	0.09814
2819.69104	0.09749
2818.40527	0.09662
2817.11950	0.09573
2815.83373	0.09510
2814.54796	0.09471
2813.26219	0.09433
2811.97642	0.09375
2810.69066	0.09308
2809.40489	0.09246
2808.11912	0.09196
2806.83335	0.09154
2805.54758	0.09115
2804.26181	0.09077
2802.97604	0.09043
2801.69027	0.09017
2800.40450	0.08999
2799.11874	0.08985
2797.83297	0.08969
2796.54720	0.08946
2795.26143	0.08913
2793.97566	0.08870
2792.68989	0.08818
2791.40412	0.08765
2790.11835	0.08727
2788.83259	0.08717
2787.54682	0.08727
2786.26105	0.08736
2784.97528	0.08725
2783.68951	0.08693
2782.40374	0.08653
2781.11797	0.08617
2779.83220	0.08591
2778.54643	0.08569
2777.26067	0.08540
2775.97490	0.08500
2774.68913	0.08458
2773.40336	0.08427
2772.11759	0.08414
2770.83182	0.08409
2769.54605	0.08398
2768.26028	0.08373
2766.97452	0.08343
2765.68875	0.08320
2764.40298	0.08312
2763.11721	0.08308
2761.83144	0.08297
2760.54567	0.08277
2759.25990	0.08258
2757.97413	0.08248
2756.68836	0.08244
2755.40260	0.08235
2754.11683	0.08214
2752.83106	0.08185
2751.54529	0.08152
2750.25952	0.08128
2748.97375	0.08123
2747.68798	0.08136
2746.40221	0.08152
2745.11645	0.08156
2743.83068	0.08143
2742.54491	0.08118
2741.25914	0.08087
2739.97337	0.08056
2738.68760	0.08031
2737.40183	0.08016
2736.11606	0.08010
2734.83029	0.08009
2733.54453	0.08015
2732.25876	0.08023
2730.97299	0.08026
2729.68722	0.08021
2728.40145	0.08017
2727.11568	0.08020
2725.82991	0.08018
2724.54414	0.07991
2723.25838	0.07939
2721.97261	0.07890
2720.68684	0.07868
2719.40107	0.07871
2718.11530	0.07877
2716.82953	0.07867
2715.54376	0.07848
2714.25799	0.07833
2712.97222	0.07825
2711.68646	0.07813
2710.40069	0.07787
2709.11492	0.07753
2707.82915	0.07725
2706.54338	0.07713
2705.25761	0.07716
2703.97184	0.07722
2702.68607	0.07719
2701.40031	0.07701
2700.11454	0.07671
2698.82877	0.07640
2697.54300	0.07612
2696.25723	0.07592
2694.97146	0.07583
2693.68569	0.07585
2692.39992	0.07596
2691.11415	0.07608
2689.82839	0.07613
2688.54262	0.07611
2687.25685	0.07603
2685.97108	0.07589
2684.68531	0.07565
2683.39954	0.07528
2682.11377	0.07487
2680.82800	0.07453
2679.54224	0.07437
2678.25647	0.07435
2676.97070	0.07438
2675.68493	0.07444
2674.39916	0.07450
2673.11339	0.07455
2671.82762	0.07454
2670.54185	0.07450
2669.25608	0.07446
2667.97032	0.07447
2666.68455	0.07448
2665.39878	0.07444
2664.11301	0.07431
2662.82724	0.07415
2661.54147	0.07402
2660.25570	0.07397
2658.96993	0.07392
2657.68417	0.07375
2656.39840	0.07344
2655.11263	0.07309
2653.82686	0.07279
2652.54109	0.07254
2651.25532	0.07227
2649.96955	0.07195
2648.68378	0.07158
2647.39801	0.07117
2646.11225	0.07074
2644.82648	0.07026
2643.54071	0.06970
2642.25494	0.06916
2640.96917	0.06880
2639.68340	0.06868
2638.39763	0.06866
2637.11186	0.06856
2635.82609	0.06836
2634.54033	0.06814
2633.25456	0.06800
2631.96879	0.06789
2630.68302	0.06771
2629.39725	0.06741
2628.11148	0.06698
2626.82571	0.06651
2625.53994	0.06615
2624.25418	0.06594
2622.96841	0.06581
2621.68264	0.06564
2620.39687	0.06540
2619.11110	0.06516
2617.82533	0.06496
2616.53956	0.06478
2615.25379	0.06457
2613.96802	0.06433
2612.68226	0.06413
2611.39649	0.06402
2610.11072	0.06399
2608.82495	0.06393
2607.53918	0.06369
2606.25341	0.06322
2604.96764	0.06262
2603.68187	0.06204
2602.39611	0.06163
2601.11034	0.06139
2599.82457	0.06129
2598.53880	0.06126
2597.25303	0.06123
2595.96726	0.06115
2594.68149	0.06095
2593.39572	0.06070
2592.10995	0.06052
2590.82419	0.06051
2589.53842	0.06062
2588.25265	0.06068
2586.96688	0.06058
2585.68111	0.06035
2584.39534	0.06009
2583.10957	0.05993
2581.82380	0.05989
2580.53804	0.05983
2579.25227	0.05958
2577.96650	0.05911
2576.68073	0.05860
2575.39496	0.05834
2574.10919	0.05843
2572.82342	0.05865
2571.53765	0.05863
2570.25188	0.05815
2568.96612	0.05739
2567.68035	0.05675
2566.39458	0.05653
2565.10881	0.05675
2563.82304	0.05723
2562.53727	0.05774
2561.25150	0.05803
2559.96573	0.05798
2558.67997	0.05767
2557.39420	0.05738
2556.10843	0.05731
2554.82266	0.05742
2553.53689	0.05757
2552.25112	0.05766
2550.96535	0.05762
2549.67958	0.05736
2548.39381	0.05686
2547.10805	0.05624
2545.82228	0.05573
2544.53651	0.05544
2543.25074	0.05531
2541.96497	0.05517
2540.67920	0.05495
2539.39343	0.05470
2538.10766	0.05449
2536.82190	0.05436
2535.53613	0.05428
2534.25036	0.05429
2532.96459	0.05440
2531.67882	0.05461
2530.39305	0.05482
2529.10728	0.05497
2527.82151	0.05506
2526.53574	0.05511
2525.24998	0.05517
2523.96421	0.05526
2522.67844	0.05536
2521.39267	0.05537
2520.10690	0.05517
2518.82113	0.05477
2517.53536	0.05437
2516.24959	0.05417
2514.96383	0.05414
2513.67806	0.05408
2512.39229	0.05379
2511.10652	0.05339
2509.82075	0.05316
2508.53498	0.05320
2507.24921	0.05340
2505.96344	0.05363
2504.67767	0.05395
2503.39191	0.05437
2502.10614	0.05465
2500.82037	0.05454
2499.53460	0.05410
2498.24883	0.05364
2496.96306	0.05342
2495.67729	0.05342
2494.39152	0.05353
2493.10576	0.05372
2491.81999	0.05389
2490.53422	0.05393
2489.24845	0.05384
2487.96268	0.05374
2486.67691	0.05369
2485.39114	0.05357
2484.10537	0.05331
2482.81960	0.05297
2481.53384	0.05270
2480.24807	0.05266
2478.96230	0.05290
2477.67653	0.05328
2476.39076	0.05353
2475.10499	0.05351
2473.81922	0.05335
2472.53345	0.05331
2471.24769	0.05348
2469.96192	0.05371
2468.67615	0.05383
2467.39038	0.05384
2466.10461	0.05382
2464.81884	0.05374
2463.53307	0.05350
2462.24730	0.05303
2460.96153	0.05245
2459.67577	0.05202
2458.39000	0.05194
2457.10423	0.05221
2455.81846	0.05252
2454.53269	0.05256
2453.24692	0.05234
2451.96115	0.05212
2450.67538	0.05210
2449.38962	0.05220
2448.10385	0.05222
2446.81808	0.05210
2445.53231	0.05187
2444.24654	0.05156
2442.96077	0.05122
2441.67500	0.05097
2440.38923	0.05092
2439.10346	0.05101
2437.81770	0.05100
2436.53193	0.05070
2435.24616	0.05017
2433.96039	0.04972
2432.67462	0.04961
2431.38885	0.04978
2430.10308	0.04998
2428.81731	0.05012
2427.53155	0.05024
2426.24578	0.05040
2424.96001	0.05055
2423.67424	0.05070
2422.38847	0.05087
2421.10270	0.05108
2419.81693	0.05126
2418.53116	0.05132
2417.24539	0.05116
2415.95963	0.05077
2414.67386	0.05025
2413.38809	0.04980
2412.10232	0.04961
2410.81655	0.04977
2409.53078	0.05021
2408.24501	0.05070
2406.95924	0.05103
2405.67347	0.05106
2404.38771	0.05084
2403.10194	0.05052
2401.81617	0.05031
2400.53040	0.05039
2399.24463	0.05133
2397.95886	0.05196
2396.67309	0.05194
2395.38732	0.05155
2394.10156	0.05106
2392.81579	0.05057
2391.53002	0.05011
2390.24425	0.04976
2388.95848	0.04959
2387.67271	0.04954
2386.38694	0.04943
2385.10117	0.04910
2383.81540	0.04856
2382.52964	0.04801
2381.24387	0.04765
2379.95810	0.04757
2378.67233	0.04757
2377.38656	0.04737
2376.10079	0.04700
2374.81502	0.04644
2373.52925	0.04565
2372.24349	0.04474
2370.95772	0.04388
2369.67195	0.04352
2368.38618	0.04357
2367.10041	0.04329
2365.81464	0.04241
2364.52887	0.04125
2363.24310	0.03984
2361.95733	0.03828
2360.67157	0.03741
2359.38580	0.03808
2358.10003	0.03981
2356.81426	0.04166
2355.52849	0.04318
2354.24272	0.04417
2352.95695	0.04454
2351.67118	0.04382
2350.38542	0.04188
2349.09965	0.04035
2347.81388	0.04087
2346.52811	0.04252
2345.24234	0.04347
2343.95657	0.04366
2342.67080	0.04420
2341.38503	0.04513
2340.09926	0.04582
2338.81350	0.04601
2337.52773	0.04559
2336.24196	0.04492
2334.95619	0.04426
2333.67042	0.04384
2332.38465	0.04397
2331.09888	0.04428
2329.81311	0.04450
2328.52735	0.04499
2327.24158	0.04559
2325.95581	0.04626
2324.67004	0.04719
2323.38427	0.04808
2322.09850	0.04866
2320.81273	0.04886
2319.52696	0.04843
2318.24119	0.04752
2316.95543	0.04671
2315.66966	0.04636
2314.38389	0.04637
2313.09812	0.04644
2311.81235	0.04649
2310.52658	0.04658
2309.24081	0.04673
2307.95504	0.04695
2306.66928	0.04715
2305.38351	0.04720
2304.09774	0.04711
2302.81197	0.04700
2301.52620	0.04684
2300.24043	0.04655
2298.95466	0.04617
2297.66889	0.04582
2296.38312	0.04554
2295.09736	0.04535
2293.81159	0.04522
2292.52582	0.04514
2291.24005	0.04505
2289.95428	0.04484
2288.66851	0.04440
2287.38274	0.04377
2286.09697	0.04319
2284.81121	0.04289
2283.52544	0.04299
2282.23967	0.04332
2280.95390	0.04349
2279.66813	0.04323
2278.38236	0.04259
2277.09659	0.04185
2275.81082	0.04127
2274.52505	0.04095
2273.23929	0.04075
2271.95352	0.04049
2270.66775	0.04002
2269.38198	0.03943
2268.09621	0.03895
2266.81044	0.03872
2265.52467	0.03867
2264.23890	0.03856
2262.95314	0.03826
2261.66737	0.03796
2260.38160	0.03793
2259.09583	0.03824
2257.81006	0.03864
2256.52429	0.03879
2255.23852	0.03855
2253.95275	0.03801
2252.66698	0.03743
2251.38122	0.03698
2250.09545	0.03676
2248.80968	0.03662
2247.52391	0.03587
2246.23814	0.03509
2244.95237	0.03479
2243.66660	0.03521
2242.38083	0.03601
2241.09507	0.03647
2239.80930	0.03617
2238.52353	0.03540
2237.23776	0.03487
2235.95199	0.03489
2234.66622	0.03507
2233.38045	0.03486
2232.09468	0.03427
2230.80891	0.03379
2229.52315	0.03365
2228.23738	0.03351
2226.95161	0.03299
2225.66584	0.03215
2224.38007	0.03134
2223.09430	0.03066
2221.80853	0.03004
2220.52276	0.02953
2219.23700	0.02942
2217.95123	0.02988
2216.66546	0.03069
2215.37969	0.03134
2214.09392	0.03135
2212.80815	0.03058
2211.52238	0.02935
2210.23661	0.02820
2208.95084	0.02753
2207.66508	0.02738
2206.37931	0.02759
2205.09354	0.02804
2203.80777	0.02855
2202.52200	0.02883
2201.23623	0.02864
2199.95046	0.02805
2198.66469	0.02739
2197.37893	0.02681
2196.09316	0.02623
2194.80739	0.02560
2193.52162	0.02511
2192.23585	0.02490
2190.95008	0.02473
2189.66431	0.02418
2188.37854	0.02323
2187.09277	0.02245
2185.80701	0.02234
2184.52124	0.02280
2183.23547	0.02329
2181.94970	0.02343
2180.66393	0.02331
2179.37816	0.02312
2178.09239	0.02275
2176.80662	0.02193
2175.52085	0.02072
2174.23509	0.01965
2172.94932	0.01929
2171.66355	0.01968
2170.37778	0.02029
2169.09201	0.02049
2167.80624	0.02008
2166.52047	0.01927
2165.23470	0.01839
2163.94894	0.01755
2162.66317	0.01674
2161.37740	0.01597
2160.09163	0.01525
2158.80586	0.01464
2157.52009	0.01427
2156.23432	0.01438
2154.94855	0.01513
2153.66278	0.01659
2152.37702	0.01858
2151.09125	0.02068
2149.80548	0.02239
2148.51971	0.02343
2147.23394	0.02390
2145.94817	0.02409
2144.66240	0.02414
2143.37663	0.02409
2142.09087	0.02406
2140.80510	0.02430
2139.51933	0.02493
2138.23356	0.02575
2136.94779	0.02631
2135.66202	0.02641
2134.37625	0.02623
2133.09048	0.02615
2131.80471	0.02635
2130.51895	0.02681
2129.23318	0.02737
2127.94741	0.02774
2126.66164	0.02767
2125.37587	0.02722
2124.09010	0.02675
2122.80433	0.02667
2121.51856	0.02722
2120.23280	0.02839
2118.94703	0.02978
2117.66126	0.03078
2116.37549	0.03102
2115.08972	0.03073
2113.80395	0.03041
2112.51818	0.03025
2111.23241	0.03004
2109.94664	0.02961
2108.66088	0.02912
2107.37511	0.02893
2106.08934	0.02914
2104.80357	0.02955
2103.51780	0.02979
2102.23203	0.02966
2100.94626	0.02922
2099.66049	0.02908
2098.37473	0.02861
2097.08896	0.02803
2095.80319	0.02778
2094.51742	0.02806
2093.23165	0.02873
2091.94588	0.02949
2090.66011	0.03000
2089.37434	0.03014
2088.08857	0.02996
2086.80281	0.02963
2085.51704	0.02925
2084.23127	0.02883
2082.94550	0.02832
2081.65973	0.02779
2080.37396	0.02735
2079.08819	0.02706
2077.80242	0.02681
2076.51666	0.02648
2075.23089	0.02608
2073.94512	0.02573
2072.65935	0.02555
2071.37358	0.02548
2070.08781	0.02550
2068.80204	0.02568
2067.51627	0.02598
2066.23050	0.02608
2064.94474	0.02572
2063.65897	0.02509
2062.37320	0.02469
2061.08743	0.02472
2059.80166	0.02494
2058.51589	0.02493
2057.23012	0.02434
2055.94435	0.02311
2054.65859	0.02159
2053.37282	0.02051
2052.08705	0.02044
2050.80128	0.02122
2049.51551	0.02202
2048.22974	0.02207
2046.94397	0.02128
2045.65820	0.02016
2044.37243	0.01922
2043.08667	0.01856
2041.80090	0.01805
2040.51513	0.01759
2039.22936	0.01720
2037.94359	0.01693
2036.65782	0.01687
2035.37205	0.01704
2034.08628	0.01733
2032.80052	0.01735
2031.51475	0.01671
2030.22898	0.01544
2028.94321	0.01403
2027.65744	0.01305
2026.37167	0.01282
2025.08590	0.01331
2023.80013	0.01417
2022.51436	0.01500
2021.22860	0.01555
2019.94283	0.01582
2018.65706	0.01593
2017.37129	0.01598
2016.08552	0.01601
2014.79975	0.01605
2013.51398	0.01619
2012.22821	0.01651
2010.94245	0.01695
2009.65668	0.01729
2008.37091	0.01739
2007.08514	0.01744
2005.79937	0.01784
2004.51360	0.01867
2003.22783	0.01955
2001.94206	0.01997
2000.65629	0.01986
1999.37053	0.01959
1998.08476	0.01954
1996.79899	0.01973
1995.51322	0.01987
1994.22745	0.01978
1992.94168	0.01963
1991.65591	0.01973
1990.37014	0.02016
1989.08438	0.02077
1987.79861	0.02124
1986.51284	0.02127
1985.22707	0.02084
1983.94130	0.02023
1982.65553	0.01983
1981.36976	0.01982
1980.08399	0.02003
1978.79822	0.02011
1977.51246	0.01994
1976.22669	0.01961
1974.94092	0.01929
1973.65515	0.01908
1972.36938	0.01909
1971.08361	0.01948
1969.79784	0.02030
1968.51207	0.02126
1967.22631	0.02182
1965.94054	0.02161
1964.65477	0.02076
1963.36900	0.01985
1962.08323	0.01945
1960.79746	0.01975
1959.51169	0.02054
1958.22592	0.02141
1956.94015	0.02209
1955.65439	0.02255
1954.36862	0.02286
1953.08285	0.02310
1951.79708	0.02330
1950.51131	0.02348
1949.22554	0.02361
1947.93977	0.02373
1946.65400	0.02397
1945.36823	0.02450
1944.08247	0.02535
1942.79670	0.02635
1941.51093	0.02718
1940.22516	0.02760
1938.93939	0.02754
1937.65362	0.02716
1936.36785	0.02664
1935.08208	0.02613
1933.79632	0.02574
1932.51055	0.02557
1931.22478	0.02565
1929.93901	0.02586
1928.65324	0.02607
1927.36747	0.02627
1926.08170	0.02654
1924.79593	0.02684
1923.51016	0.02706
1922.22440	0.02716
1920.93863	0.02724
1919.65286	0.02735
1918.36709	0.02731
1917.08132	0.02699
1915.79555	0.02649
1914.50978	0.02621
1913.22401	0.02640
1911.93825	0.02693
1910.65248	0.02739
1909.36671	0.02752
1908.08094	0.02740
1906.79517	0.02730
1905.50940	0.02742
1904.22363	0.02771
1902.93786	0.02804
1901.65209	0.02839
1900.36633	0.02876
1899.08056	0.02912
1897.79479	0.02940
1896.50902	0.02948
1895.22325	0.02940
1893.93748	0.02923
1892.65171	0.02908
1891.36594	0.02899
1890.08018	0.02896
1888.79441	0.02896
1887.50864	0.02903
1886.22287	0.02917
1884.93710	0.02932
1883.65133	0.02938
1882.36556	0.02926
1881.07979	0.02898
1879.79402	0.02873
1878.50826	0.02865
1877.22249	0.02878
1875.93672	0.02903
1874.65095	0.02929
1873.36518	0.02955
1872.07941	0.02985
1870.79364	0.03014
1869.50787	0.03028
1868.22211	0.03018
1866.93634	0.02993
1865.65057	0.02971
1864.36480	0.02965
1863.07903	0.02976
1861.79326	0.02995
1860.50749	0.03012
1859.22172	0.03021
1857.93595	0.03018
1856.65019	0.03005
1855.36442	0.02992
1854.07865	0.02985
1852.79288	0.02982
1851.50711	0.02980
1850.22134	0.02979
1848.93557	0.02986
1847.64980	0.03011
1846.36404	0.03050
1845.07827	0.03083
1843.79250	0.03092
1842.50673	0.03074
1841.22096	0.03044
1839.93519	0.03018
1838.64942	0.03002
1837.36365	0.02992
1836.07788	0.02977
1834.79212	0.02957
1833.50635	0.02939
1832.22058	0.02936
1830.93481	0.02951
1829.64904	0.02976
1828.36327	0.02997
1827.07750	0.03008
1825.79173	0.03010
1824.50597	0.03009
1823.22020	0.03010
1821.93443	0.03017
1820.64866	0.03023
1819.36289	0.03019
1818.07712	0.03005
1816.79135	0.02990
1815.50558	0.02990
1814.21981	0.03007
1812.93405	0.03033
1811.64828	0.03055
1810.36251	0.03069
1809.07674	0.03076
1807.79097	0.03076
1806.50520	0.03073
1805.21943	0.03068
1803.93366	0.03066
1802.64790	0.03065
1801.36213	0.03062
1800.07636	0.03056
1798.79059	0.03054
1797.50482	0.03059
1796.21905	0.03079
1794.93328	0.03111
1793.64751	0.03146
1792.36174	0.03168
1791.07598	0.03169
1789.79021	0.03150
1788.50444	0.03125
1787.21867	0.03106
1785.93290	0.03100
1784.64713	0.03101
1783.36136	0.03107
1782.07559	0.03116
1780.78983	0.03126
1779.50406	0.03135
1778.21829	0.03143
1776.93252	0.03155
1775.64675	0.03176
1774.36098	0.03203
1773.07521	0.03224
1771.78944	0.03232
1770.50367	0.03231
1769.21791	0.03227
1767.93214	0.03219
1766.64637	0.03208
1765.36060	0.03202
1764.07483	0.03207
1762.78906	0.03217
1761.50329	0.03225
1760.21752	0.03228
1758.93176	0.03231
1757.64599	0.03236
1756.36022	0.03241
1755.07445	0.03245
1753.78868	0.03253
1752.50291	0.03263
1751.21714	0.03268
1749.93137	0.03265
1748.64560	0.03257
1747.35984	0.03253
1746.07407	0.03254
1744.78830	0.03256
1743.50253	0.03258
1742.21676	0.03263
1740.93099	0.03274
1739.64522	0.03290
1738.35945	0.03311
1737.07369	0.03342
1735.78792	0.03381
1734.50215	0.03412
1733.21638	0.03415
1731.93061	0.03390
1730.64484	0.03357
1729.35907	0.03335
1728.07330	0.03330
1726.78753	0.03337
1725.50177	0.03353
1724.21600	0.03372
1722.93023	0.03394
1721.64446	0.03424
1720.35869	0.03467
1719.07292	0.03518
1717.78715	0.03565
1716.50138	0.03596
1715.21561	0.03616
1713.92985	0.03635
1712.64408	0.03660
1711.35831	0.03691
1710.07254	0.03726
1708.78677	0.03765
1707.50100	0.03808
1706.21523	0.03855
1704.92946	0.03911
1703.64370	0.03980
1702.35793	0.04059
1701.07216	0.04133
1699.78639	0.04189
1698.50062	0.04224
1697.21485	0.04248
1695.92908	0.04265
1694.64331	0.04274
1693.35754	0.04280
1692.07178	0.04291
1690.78601	0.04316
1689.50024	0.04355
1688.21447	0.04406
1686.92870	0.04469
1685.64293	0.04530
1684.35716	0.04573
1683.07139	0.04586
1681.78563	0.04582
1680.49986	0.04585
1679.21409	0.04610
1677.92832	0.04657
1676.64255	0.04715
1675.35678	0.04772
1674.07101	0.04823
1672.78524	0.04873
1671.49947	0.04928
1670.21371	0.04983
1668.92794	0.05028
1667.64217	0.05060
1666.35640	0.05089
1665.07063	0.05126
1663.78486	0.05173
1662.49909	0.05219
1661.21332	0.05255
1659.92756	0.05285
1658.64179	0.05321
1657.35602	0.05376
1656.07025	0.05454
1654.78448	0.05540
1653.49871	0.05599
1652.21294	0.05609
1650.92717	0.05581
1649.64140	0.05555
1648.35564	0.05552
1647.06987	0.05563
1645.78410	0.05563
1644.49833	0.05543
1643.21256	0.05516
1641.92679	0.05497
1640.64102	0.05493
1639.35525	0.05506
1638.06949	0.05530
1636.78372	0.05551
1635.49795	0.05553
1634.21218	0.05530
1632.92641	0.05495
1631.64064	0.05464
1630.35487	0.05448
1629.06910	0.05445
1627.78333	0.05447
1626.49757	0.05452
1625.21180	0.05459
1623.92603	0.05464
1622.64026	0.05464
1621.35449	0.05458
1620.06872	0.05456
1618.78295	0.05463
1617.49718	0.05471
1616.21142	0.05468
1614.92565	0.05450
1613.63988	0.05427
1612.35411	0.05417
1611.06834	0.05425
1609.78257	0.05445
1608.49680	0.05467
1607.21103	0.05487
1605.92526	0.05505
1604.63950	0.05526
1603.35373	0.05550
1602.06796	0.05574
1600.78219	0.05595
1599.49642	0.05612
1598.21065	0.05628
1596.92488	0.05646
1595.63911	0.05668
1594.35335	0.05695
1593.06758	0.05726
1591.78181	0.05758
1590.49604	0.05790
1589.21027	0.05822
1587.92450	0.05860
1586.63873	0.05904
1585.35296	0.05952
1584.06719	0.06002
1582.78143	0.06051
1581.49566	0.06103
1580.20989	0.06166
1578.92412	0.06244
1577.63835	0.06334
1576.35258	0.06419
1575.06681	0.06490
1573.78104	0.06549
1572.49528	0.06610
1571.20951	0.06682
1569.92374	0.06759
1568.63797	0.06829
1567.35220	0.06887
1566.06643	0.06937
1564.78066	0.06994
1563.49489	0.07073
1562.20912	0.07183
1560.92336	0.07315
1559.63759	0.07442
1558.35182	0.07530
1557.06605	0.07573
1555.78028	0.07593
1554.49451	0.07614
1553.20874	0.07644
1551.92297	0.07678
1550.63721	0.07712
1549.35144	0.07741
1548.06567	0.07770
1546.77990	0.07801
1545.49413	0.07832
1544.20836	0.07861
1542.92259	0.07882
1541.63682	0.07888
1540.35105	0.07868
1539.06529	0.07817
1537.77952	0.07746
1536.49375	0.07681
1535.20798	0.07634
1533.92221	0.07603
1532.63644	0.07578
1531.35067	0.07555
1530.06490	0.07542
1528.77914	0.07549
1527.49337	0.07576
1526.20760	0.07620
1524.92183	0.07676
1523.63606	0.07745
1522.35029	0.07825
1521.06452	0.07907
1519.77875	0.07985
1518.49298	0.08062
1517.20722	0.08146
1515.92145	0.08241
1514.63568	0.08349
1513.34991	0.08472
1512.06414	0.08616
1510.77837	0.08782
1509.49260	0.08970
1508.20683	0.09170
1506.92107	0.09361
1505.63530	0.09523
1504.34953	0.09651
1503.06376	0.09764
1501.77799	0.09882
1500.49222	0.10011
1499.20645	0.10143
1497.92068	0.10265
1496.63491	0.10370
1495.34915	0.10459
1494.06338	0.10543
1492.77761	0.10634
1491.49184	0.10739
1490.20607	0.10854
1488.92030	0.10971
1487.63453	0.11087
1486.34876	0.11208
1485.06299	0.11342
1483.77723	0.11496
1482.49146	0.11669
1481.20569	0.11850
1479.91992	0.12033
1478.63415	0.12213
1477.34838	0.12393
1476.06261	0.12578
1474.77684	0.12768
1473.49108	0.12958
1472.20531	0.13138
1470.91954	0.13303
1469.63377	0.13458
1468.34800	0.13612
1467.06223	0.13767
1465.77646	0.13914
1464.49069	0.14046
1463.20492	0.14164
1461.91916	0.14280
1460.63339	0.14406
1459.34762	0.14549
1458.06185	0.14698
1456.77608	0.14828
1455.49031	0.14917
1454.20454	0.14967
1452.91877	0.14995
1451.63301	0.15017
1450.34724	0.15034
1449.06147	0.15037
1447.77570	0.15017
1446.48993	0.14971
1445.20416	0.14905
1443.91839	0.14830
1442.63262	0.14756
1441.34685	0.14688
1440.06109	0.14632
1438.77532	0.14594
1437.48955	0.14574
1436.20378	0.14566
1434.91801	0.14569
1433.63224	0.14593
1432.34647	0.14653
1431.06070	0.14755
1429.77494	0.14893
1428.48917	0.15062
1427.20340	0.15254
1425.91763	0.15465
1424.63186	0.15692
1423.34609	0.15930
1422.06032	0.16170
1420.77455	0.16403
1419.48878	0.16615
1418.20302	0.16794
1416.91725	0.16937
1415.63148	0.17050
1414.34571	0.17141
1413.05994	0.17209
1411.77417	0.17250
1410.48840	0.17257
1409.20263	0.17227
1407.91687	0.17159
1406.63110	0.17055
1405.34533	0.16913
1404.05956	0.16732
1402.77379	0.16516
1401.48802	0.16269
1400.20225	0.15997
1398.91648	0.15707
1397.63071	0.15403
1396.34495	0.15085
1395.05918	0.14754
1393.77341	0.14412
1392.48764	0.14066
1391.20187	0.13726
1389.91610	0.13401
1388.63033	0.13095
1387.34456	0.12806
1386.05880	0.12531
1384.77303	0.12264
1383.48726	0.12005
1382.20149	0.11758
1380.91572	0.11529
1379.62995	0.11314
1378.34418	0.11100
1377.05841	0.10869
1375.77264	0.10608
1374.48688	0.10313
1373.20111	0.09986
1371.91534	0.09641
1370.62957	0.09300
1369.34380	0.08981
1368.05803	0.08693
1366.77226	0.08432
1365.48649	0.08190
1364.20073	0.07955
1362.91496	0.07720
1361.62919	0.07489
1360.34342	0.07268
1359.05765	0.07063
1357.77188	0.06876
1356.48611	0.06706
1355.20034	0.06552
1353.91457	0.06413
1352.62881	0.06286
1351.34304	0.06169
1350.05727	0.06058
1348.77150	0.05953
1347.48573	0.05852
1346.19996	0.05758
1344.91419	0.05673
1343.62842	0.05595
1342.34266	0.05523
1341.05689	0.05457
1339.77112	0.05394
1338.48535	0.05335
1337.19958	0.05279
1335.91381	0.05224
1334.62804	0.05171
1333.34227	0.05119
1332.05650	0.05068
1330.77074	0.05021
1329.48497	0.04976
1328.19920	0.04934
1326.91343	0.04893
1325.62766	0.04853
1324.34189	0.04814
1323.05612	0.04774
1321.77035	0.04738
1320.48459	0.04705
1319.19882	0.04675
1317.91305	0.04644
1316.62728	0.04611
1315.34151	0.04577
1314.05574	0.04544
1312.76997	0.04513
1311.48420	0.04484
1310.19843	0.04458
1308.91267	0.04434
1307.62690	0.04409
1306.34113	0.04381
1305.05536	0.04351
1303.76959	0.04320
1302.48382	0.04288
1301.19805	0.04256
1299.91228	0.04221
1298.62652	0.04184
1297.34075	0.04148
1296.05498	0.04116
1294.76921	0.04090
1293.48344	0.04067
1292.19767	0.04044
1290.91190	0.04017
1289.62613	0.03988
1288.34036	0.03963
1287.05460	0.03943
1285.76883	0.03927
1284.48306	0.03908
1283.19729	0.03881
1281.91152	0.03847
1280.62575	0.03811
1279.33998	0.03776
1278.05421	0.03747
1276.76845	0.03724
1275.48268	0.03704
1274.19691	0.03683
1272.91114	0.03662
1271.62537	0.03641
1270.33960	0.03621
1269.05383	0.03603
1267.76806	0.03585
1266.48229	0.03565
1265.19653	0.03544
1263.91076	0.03521
1262.62499	0.03498
1261.33922	0.03474
1260.05345	0.03449
1258.76768	0.03421
1257.48191	0.03396
1256.19614	0.03379
1254.91037	0.03370
1253.62461	0.03365
1252.33884	0.03358
1251.05307	0.03345
1249.76730	0.03326
1248.48153	0.03303
1247.19576	0.03280
1245.90999	0.03256
1244.62422	0.03234
1243.33846	0.03214
1242.05269	0.03200
1240.76692	0.03189
1239.48115	0.03174
1238.19538	0.03153
1236.90961	0.03129
1235.62384	0.03107
1234.33807	0.03088
1233.05230	0.03071
1231.76654	0.03054
1230.48077	0.03037
1229.19500	0.03022
1227.90923	0.03008
1226.62346	0.02993
1225.33769	0.02977
1224.05192	0.02961
1222.76615	0.02945
1221.48039	0.02928
1220.19462	0.02910
1218.90885	0.02888
1217.62308	0.02862
1216.33731	0.02838
1215.05154	0.02821
1213.76577	0.02813
1212.48000	0.02811
1211.19423	0.02809
1209.90847	0.02805
1208.62270	0.02799
1207.33693	0.02791
1206.05116	0.02780
1204.76539	0.02765
1203.47962	0.02748
1202.19385	0.02731
1200.90808	0.02712
1199.62232	0.02687
1198.33655	0.02668
1197.05078	0.02650
1195.76501	0.02635
1194.47924	0.02623
1193.19347	0.02610
1191.90770	0.02598
1190.62193	0.02589
1189.33616	0.02584
1188.05040	0.02584
1186.76463	0.02587
1185.47886	0.02587
1184.19309	0.02584
1182.90732	0.02580
1181.62155	0.02575
1180.33578	0.02569
1179.05001	0.02559
1177.76425	0.02548
1176.47848	0.02540
1175.19271	0.02537
1173.90694	0.02541
1172.62117	0.02548
1171.33540	0.02557
1170.04963	0.02565
1168.76386	0.02577
1167.47809	0.02599
1166.19233	0.02629
1164.90656	0.02663
1163.62079	0.02694
1162.33502	0.02719
1161.04925	0.02740
1159.76348	0.02762
1158.47771	0.02792
1157.19194	0.02830
1155.90618	0.02870
1154.62041	0.02910
1153.33464	0.02949
1152.04887	0.02989
1150.76310	0.03035
1149.47733	0.03090
1148.19156	0.03154
1146.90579	0.03225
1145.62002	0.03301
1144.33426	0.03382
1143.04849	0.03473
1141.76272	0.03577
1140.47695	0.03693
1139.19118	0.03824
1137.90541	0.03972
1136.61964	0.04141
1135.33387	0.04330
1134.04811	0.04536
1132.76234	0.04760
1131.47657	0.05010
1130.19080	0.05291
1128.90503	0.05603
1127.61926	0.05944
1126.33349	0.06314
1125.04772	0.06715
1123.76195	0.07149
1122.47619	0.07607
1121.19042	0.08082
1119.90465	0.08567
1118.61888	0.09059
1117.33311	0.09553
1116.04734	0.10043
1114.76157	0.10526
1113.47580	0.11007
1112.19004	0.11484
1110.90427	0.11953
1109.61850	0.12406
1108.33273	0.12838
1107.04696	0.13252
1105.76119	0.13649
1104.47542	0.14032
1103.18965	0.14400
1101.90388	0.14751
1100.61812	0.15086
1099.33235	0.15405
1098.04658	0.15710
1096.76081	0.16000
1095.47504	0.16273
1094.18927	0.16528
1092.90350	0.16764
1091.61773	0.16984
1090.33197	0.17192
1089.04620	0.17393
1087.76043	0.17590
1086.47466	0.17787
1085.18889	0.17984
1083.90312	0.18184
1082.61735	0.18391
1081.33158	0.18617
1080.04581	0.18870
1078.76005	0.19154
1077.47428	0.19462
1076.18851	0.19784
1074.90274	0.20115
1073.61697	0.20457
1072.33120	0.20819
1071.04543	0.21200
1069.75966	0.21597
1068.47390	0.22002
1067.18813	0.22413
1065.90236	0.22833
1064.61659	0.23267
1063.33082	0.23707
1062.04505	0.24146
1060.75928	0.24581
1059.47351	0.25021
1058.18774	0.25469
1056.90198	0.25924
1055.61621	0.26380
1054.33044	0.26832
1053.04467	0.27284
1051.75890	0.27740
1050.47313	0.28203
1049.18736	0.28681
1047.90159	0.29184
1046.61583	0.29716
1045.33006	0.30275
1044.04429	0.30849
1042.75852	0.31429
1041.47275	0.32012
1040.18698	0.32605
1038.90121	0.33214
1037.61544	0.33843
1036.32967	0.34488
1035.04391	0.35136
1033.75814	0.35769
1032.47237	0.36371
1031.18660	0.36932
1029.90083	0.37452
1028.61506	0.37939
1027.32929	0.38391
1026.04352	0.38796
1024.75775	0.39141
1023.47199	0.39422
1022.18622	0.39649
1020.90045	0.39825
1019.61468	0.39950
1018.32891	0.40022
1017.04314	0.40044
1015.75737	0.40016
1014.47160	0.39923
1013.18584	0.39751
1011.90007	0.39490
1010.61430	0.39146
1009.32853	0.38728
1008.04276	0.38246
1006.75699	0.37701
1005.47122	0.37093
1004.18545	0.36424
1002.89968	0.35698
1001.61392	0.34923
1000.32815	0.34107
999.04238	0.33257
997.75661	0.32369
996.47084	0.31438
995.18507	0.30468
993.89930	0.29474
992.61353	0.28482
991.32777	0.27508
990.04200	0.26556
988.75623	0.25627
987.47046	0.24724
986.18469	0.23848
984.89892	0.23001
983.61315	0.22187
982.32738	0.21413
981.04161	0.20687
979.75585	0.20008
978.47008	0.19374
977.18431	0.18789
975.89854	0.18258
974.61277	0.17788
973.32700	0.17384
972.04123	0.17052
970.75546	0.16801
969.46970	0.16639
968.18393	0.16575
966.89816	0.16607
965.61239	0.16719
964.32662	0.16876
963.04085	0.17027
961.75508	0.17126
960.46931	0.17137
959.18354	0.17046
957.89778	0.16852
956.61201	0.16568
955.32624	0.16222
954.04047	0.15844
952.75470	0.15457
951.46893	0.15069
950.18316	0.14679
948.89739	0.14294
947.61163	0.13920
946.32586	0.13560
945.04009	0.13210
943.75432	0.12865
942.46855	0.12527
941.18278	0.12202
939.89701	0.11895
938.61124	0.11606
937.32547	0.11334
936.03971	0.11081
934.75394	0.10847
933.46817	0.10629
932.18240	0.10423
930.89663	0.10224
929.61086	0.10032
928.32509	0.09846
927.03932	0.09670
925.75356	0.09507
924.46779	0.09354
923.18202	0.09210
921.89625	0.09072
920.61048	0.08945
919.32471	0.08831
918.03894	0.08730
916.75317	0.08634
915.46740	0.08536
914.18164	0.08433
912.89587	0.08327
911.61010	0.08223
910.32433	0.08129
909.03856	0.08049
907.75279	0.07979
906.46702	0.07911
905.18125	0.07837
903.89549	0.07758
902.60972	0.07684
901.32395	0.07622
900.03818	0.07575
898.75241	0.07535
897.46664	0.07492
896.18087	0.07442
894.89510	0.07384
893.60933	0.07328
892.32357	0.07289
891.03780	0.07283
889.75203	0.07311
888.46626	0.07368
887.18049	0.07458
885.89472	0.07607
884.60895	0.07850
883.32318	0.08207
882.03742	0.08649
880.75165	0.09102
879.46588	0.09485
878.18011	0.09762
876.89434	0.09967
875.60857	0.10163
874.32280	0.10376
873.03703	0.10573
871.75126	0.10685
870.46550	0.10666
869.17973	0.10516
867.89396	0.10266
866.60819	0.09953
865.32242	0.09609
864.03665	0.09265
862.75088	0.08945
861.46511	0.08658
860.17935	0.08402
858.89358	0.08174
857.60781	0.07972
856.32204	0.07797
855.03627	0.07646
853.75050	0.07512
852.46473	0.07389
851.17896	0.07274
849.89319	0.07168
848.60743	0.07075
847.32166	0.06993
846.03589	0.06918
844.75012	0.06849
843.46435	0.06782
842.17858	0.06715
840.89281	0.06643
839.60704	0.06571
838.32128	0.06509
837.03551	0.06462
835.74974	0.06425
834.46397	0.06386
833.17820	0.06342
831.89243	0.06295
830.60666	0.06255
829.32089	0.06222
828.03512	0.06194
826.74936	0.06166
825.46359	0.06139
824.17782	0.06117
822.89205	0.06100
821.60628	0.06087
820.32051	0.06076
819.03474	0.06065
817.74897	0.06053
816.46321	0.06036
815.17744	0.06014
813.89167	0.05989
812.60590	0.05966
811.32013	0.05948
810.03436	0.05937
808.74859	0.05930
807.46282	0.05921
806.17705	0.05906
804.89129	0.05886
803.60552	0.05863
802.31975	0.05836
801.03398	0.05809
799.74821	0.05784
798.46244	0.05761
797.17667	0.05740
795.89090	0.05719
794.60513	0.05700
793.31937	0.05685
792.03360	0.05675
790.74783	0.05665
789.46206	0.05648
788.17629	0.05624
786.89052	0.05598
785.60475	0.05575
784.31898	0.05555
783.03322	0.05535
781.74745	0.05517
780.46168	0.05497
779.17591	0.05475
777.89014	0.05452
776.60437	0.05433
775.31860	0.05418
774.03283	0.05407
772.74706	0.05400
771.46130	0.05397
770.17553	0.05401
768.88976	0.05410
767.60399	0.05420
766.31822	0.05424
765.03245	0.05422
763.74668	0.05416
762.46091	0.05414
761.17515	0.05420
759.88938	0.05431
758.60361	0.05440
757.31784	0.05445
756.03207	0.05447
754.74630	0.05448
753.46053	0.05444
752.17476	0.05439
750.88899	0.05435
749.60323	0.05437
748.31746	0.05442
747.03169	0.05444
745.74592	0.05442
744.46015	0.05436
743.17438	0.05424
741.88861	0.05401
740.60284	0.05370
739.31708	0.05340
738.03131	0.05322
736.74554	0.05318
735.45977	0.05322
734.17400	0.05322
732.88823	0.05312
731.60246	0.05293
730.31669	0.05273
729.03092	0.05261
727.74516	0.05261
726.45939	0.05273
725.17362	0.05283
723.88785	0.05267
722.60208	0.05260
721.31631	0.05269
720.03054	0.05273
718.74477	0.05263
717.45901	0.05249
716.17324	0.05230
714.88747	0.05203
713.60170	0.05172
712.31593	0.05143
711.03016	0.05114
709.74439	0.05086
708.45862	0.05054
707.17285	0.05022
705.88709	0.04996
704.60132	0.04978
703.31555	0.04968
702.02978	0.04961
700.74401	0.04950
699.45824	0.04935
698.17247	0.04919
696.88670	0.04905
695.60094	0.04892
694.31517	0.04880
693.02940	0.04868
691.74363	0.04856
690.45786	0.04841
689.17209	0.04822
687.88632	0.04797
686.60055	0.04768
685.31478	0.04736
684.02902	0.04704
682.74325	0.04674
681.45748	0.04648
680.17171	0.04629
678.88594	0.04617
677.60017	0.04611
676.31440	0.04607
675.02863	0.04601
673.74287	0.04590
672.45710	0.04580
671.17133	0.04596
669.88556	0.04690
668.59979	0.04816
667.31402	0.04776
666.02825	0.04630
664.74248	0.04553
663.45671	0.04522
662.17095	0.04492
660.88518	0.04460
659.59941	0.04433
658.31364	0.04412
657.02787	0.04395
655.74210	0.04381
654.45633	0.04367
653.17056	0.04352
651.88480	0.04342
650.59903	0.04340
649.31326	0.04345
648.02749	0.04349
646.74172	0.04349
645.45595	0.04346
644.17018	0.04342
642.88441	0.04340
641.59864	0.04343
640.31288	0.04354
639.02711	0.04372
637.74134	0.04397
636.45557	0.04427
635.16980	0.04462
633.88403	0.04503
632.59826	0.04558
631.31249	0.04641
630.02673	0.04764
628.74096	0.04883
627.45519	0.04935
626.16942	0.05115
624.88365	0.05373
623.59788	0.05652
622.31211	0.05990
621.02634	0.06403
619.74057	0.06819
618.45481	0.07165
617.16904	0.07474
615.88327	0.07842
614.59750	0.08333
613.31173	0.08944
612.02596	0.09628
610.74019	0.10335
609.45442	0.11040
608.16866	0.11743
606.88289	0.12434
605.59712	0.13090
604.31135	0.13675
603.02558	0.14140
601.73981	0.14416
600.45404	0.14445
599.16827	0.14231
597.88250	0.13847
596.59674	0.13389
595.31097	0.12925
594.02520	0.12491
592.73943	0.12109
591.45366	0.11793
590.16789	0.11559
588.88212	0.11418
587.59635	0.11378
586.31059	0.11437
585.02482	0.11584
583.73905	0.11805
582.45328	0.12087
581.16751	0.12417
579.88174	0.12783
578.59597	0.13167
577.31020	0.13543
576.02443	0.13890
574.73867	0.14203
573.45290	0.14503
572.16713	0.14819
570.88136	0.15188
569.59559	0.15635
568.30982	0.16171
567.02405	0.16787
565.73828	0.17448
564.45251	0.18093
563.16675	0.18649
561.88098	0.19042
560.59521	0.19207
559.30944	0.19109
558.02367	0.18751
556.73790	0.18172
555.45213	0.17428
554.16636	0.16577
552.88060	0.15687
551.59483	0.14819
550.30906	0.14007
549.02329	0.13259
547.73752	0.12563
546.45175	0.11915
545.16598	0.11322
543.88021	0.10792
542.59444	0.10334
541.30868	0.09942
540.02291	0.09604
538.73714	0.09295
537.45137	0.08992
536.16560	0.08690
534.87983	0.08398
533.59406	0.08128
532.30829	0.07885
531.02253	0.07664
529.73676	0.07456
528.45099	0.07255
527.16522	0.07058
525.87945	0.06864
524.59368	0.06674
523.30791	0.06491
522.02214	0.06321
520.73637	0.06170
519.45061	0.06041
518.16484	0.05929
516.87907	0.05822
515.59330	0.05710
514.30753	0.05593
513.02176	0.05479
511.73599	0.05373
510.45022	0.05275
509.16446	0.05181
507.87869	0.05086
506.59292	0.04993
505.30715	0.04902
504.02138	0.04812
502.73561	0.04723
501.44984	0.04640
500.16407	0.04564
498.87830	0.04498
497.59254	0.04438
496.30677	0.04379
495.02100	0.04322
493.73523	0.04277
492.44946	0.04252
491.16369	0.04238
489.87792	0.04215
488.59215	0.04172
487.30639	0.04114
486.02062	0.04060
484.73485	0.04027
483.44908	0.04017
482.16331	0.04026
480.87754	0.04047
479.59177	0.04072
478.30600	0.04096
477.02023	0.04118
475.73447	0.04140
474.44870	0.04169
473.16293	0.04204
471.87716	0.04232
470.59139	0.04243
469.30562	0.04233
468.01985	0.04206
466.73408	0.04171
465.44832	0.04127
464.16255	0.04072
462.87678	0.04006
461.59101	0.03936
460.30524	0.03874
459.01947	0.03829
457.73370	0.03799
456.44793	0.03776
455.16216	0.03748
453.87640	0.03715
452.59063	0.03680
451.30486	0.03648
450.01909	0.03617
448.73332	0.03584
447.44755	0.03547
446.16178	0.03508
444.87601	0.03475
443.59025	0.03449
442.30448	0.03431
441.01871	0.03417
439.73294	0.03405
438.44717	0.03393
437.16140	0.03384
435.87563	0.03374
434.58986	0.03363
433.30409	0.03351
432.01833	0.03341
430.73256	0.03334
429.44679	0.03327
428.16102	0.03317
426.87525	0.03303
425.58948	0.03285
424.30371	0.03267
423.01794	0.03252
421.73218	0.03241
420.44641	0.03233
419.16064	0.03224
417.87487	0.03212
416.58910	0.03197
415.30333	0.03180
414.01756	0.03164
412.73179	0.03152
411.44602	0.03146
410.16026	0.03148
408.87449	0.03161
407.58872	0.03181
406.30295	0.03203
405.01718	0.03221
403.73141	0.03230
402.44564	0.03232
401.15987	0.03234
399.87411	0.03239
