3997.45528	0.00708
3996.16951	0.00706
3994.88374	0.00753
3993.59798	0.00824
3992.31221	0.00864
3991.02644	0.00866
3989.74067	0.00860
3988.45490	0.00855
3987.16913	0.00829
3985.88336	0.00766
3984.59759	0.00684
3983.31183	0.00617
3982.02606	0.00587
3980.74029	0.00593
3979.45452	0.00631
3978.16875	0.00693
3976.88298	0.00770
3975.59721	0.00852
3974.31144	0.00926
3973.02567	0.00969
3971.73991	0.00967
3970.45414	0.00927
3969.16837	0.00872
3967.88260	0.00823
3966.59683	0.00791
3965.31106	0.00784
3964.02529	0.00807
3962.73952	0.00848
3961.45376	0.00878
3960.16799	0.00874
3958.88222	0.00842
3957.59645	0.00808
3956.31068	0.00795
3955.02491	0.00802
3953.73914	0.00812
3952.45337	0.00802
3951.16760	0.00757
3949.88184	0.00693
3948.59607	0.00651
3947.31030	0.00664
3946.02453	0.00716
3944.73876	0.00758
3943.45299	0.00760
3942.16722	0.00748
3940.88145	0.00770
3939.59569	0.00831
3938.30992	0.00885
3937.02415	0.00887
3935.73838	0.00835
3934.45261	0.00772
3933.16684	0.00742
3931.88107	0.00755
3930.59530	0.00791
3929.30953	0.00820
3928.02377	0.00831
3926.73800	0.00823
3925.45223	0.00791
3924.16646	0.00730
3922.88069	0.00648
3921.59492	0.00575
3920.30915	0.00545
3919.02338	0.00571
3917.73762	0.00635
3916.45185	0.00702
3915.16608	0.00741
3913.88031	0.00752
3912.59454	0.00754
3911.30877	0.00765
3910.02300	0.00792
3908.73723	0.00821
3907.45146	0.00826
3906.16570	0.00786
3904.87993	0.00721
3903.59416	0.00681
3902.30839	0.00697
3901.02262	0.00750
3899.73685	0.00798
3898.45108	0.00823
3897.16531	0.00835
3895.87955	0.00849
3894.59378	0.00870
3893.30801	0.00896
3892.02224	0.00922
3890.73647	0.00935
3889.45070	0.00918
3888.16493	0.00872
3886.87916	0.00825
3885.59339	0.00802
3884.30763	0.00804
3883.02186	0.00812
3881.73609	0.00810
3880.45032	0.00795
3879.16455	0.00769
3877.87878	0.00746
3876.59301	0.00740
3875.30724	0.00762
3874.02148	0.00811
3872.73571	0.00873
3871.44994	0.00923
3870.16417	0.00931
3868.87840	0.00882
3867.59263	0.00793
3866.30686	0.00709
3865.02109	0.00665
3863.73532	0.00660
3862.44956	0.00668
3861.16379	0.00674
3859.87802	0.00693
3858.59225	0.00739
3857.30648	0.00790
3856.02071	0.00803
3854.73494	0.00749
3853.44917	0.00650
3852.16341	0.00552
3850.87764	0.00496
3849.59187	0.00491
3848.30610	0.00527
3847.02033	0.00583
3845.73456	0.00627
3844.44879	0.00631
3843.16302	0.00585
3841.87725	0.00512
3840.59149	0.00449
3839.30572	0.00429
3838.01995	0.00458
3836.73418	0.00525
3835.44841	0.00608
3834.16264	0.00689
3832.87687	0.00748
3831.59110	0.00770
3830.30534	0.00745
3829.01957	0.00686
3827.73380	0.00628
3826.44803	0.00593
3825.16226	0.00574
3823.87649	0.00547
3822.59072	0.00513
3821.30495	0.00506
3820.01918	0.00552
3818.73342	0.00642
3817.44765	0.00740
3816.16188	0.00816
3814.87611	0.00858
3813.59034	0.00865
3812.30457	0.00845
3811.01880	0.00809
3809.73303	0.00773
3808.44726	0.00745
3807.16150	0.00727
3805.87573	0.00725
3804.58996	0.00750
3803.30419	0.00804
3802.01842	0.00864
3800.73265	0.00892
3799.44688	0.00868
3798.16111	0.00811
3796.87535	0.00766
3795.58958	0.00759
3794.30381	0.00779
3793.01804	0.00796
3791.73227	0.00794
3790.44650	0.00786
3789.16073	0.00791
3787.87496	0.00809
3786.58919	0.00818
3785.30343	0.00805
3784.01766	0.00790
3782.73189	0.00806
3781.44612	0.00860
3780.16035	0.00906
3778.87458	0.00885
3777.58881	0.00789
3776.30304	0.00681
3775.01728	0.00636
3773.73151	0.00680
3772.44574	0.00773
3771.15997	0.00849
3769.87420	0.00867
3768.58843	0.00828
3767.30266	0.00758
3766.01689	0.00701
3764.73112	0.00684
3763.44536	0.00699
3762.15959	0.00707
3760.87382	0.00685
3759.58805	0.00657
3758.30228	0.00659
3757.01651	0.00691
3755.73074	0.00712
3754.44497	0.00680
3753.15921	0.00598
3751.87344	0.00506
3750.58767	0.00447
3749.30190	0.00436
3748.01613	0.00462
3746.73036	0.00510
3745.44459	0.00576
3744.15882	0.00659
3742.87305	0.00744
3741.58729	0.00807
3740.30152	0.00829
3739.01575	0.00809
3737.72998	0.00761
3736.44421	0.00708
3735.15844	0.00662
3733.87267	0.00630
3732.58690	0.00617
3731.30114	0.00620
3730.01537	0.00621
3728.72960	0.00602
3727.44383	0.00563
3726.15806	0.00530
3724.87229	0.00520
3723.58652	0.00528
3722.30075	0.00536
3721.01498	0.00536
3719.72922	0.00533
3718.44345	0.00539
3717.15768	0.00557
3715.87191	0.00584
3714.58614	0.00611
3713.30037	0.00631
3712.01460	0.00644
3710.72883	0.00653
3709.44307	0.00664
3708.15730	0.00682
3706.87153	0.00711
3705.58576	0.00745
3704.29999	0.00762
3703.01422	0.00739
3701.72845	0.00683
3700.44268	0.00620
3699.15691	0.00579
3697.87115	0.00558
3696.58538	0.00544
3695.29961	0.00529
3694.01384	0.00514
3692.72807	0.00498
3691.44230	0.00482
3690.15653	0.00481
3688.87076	0.00517
3687.58500	0.00585
3686.29923	0.00655
3685.01346	0.00694
3683.72769	0.00692
3682.44192	0.00654
3681.15615	0.00592
3679.87038	0.00528
3678.58461	0.00499
3677.29884	0.00521
3676.01308	0.00578
3674.72731	0.00629
3673.44154	0.00647
3672.15577	0.00642
3670.87000	0.00640
3669.58423	0.00650
3668.29846	0.00656
3667.01269	0.00645
3665.72693	0.00627
3664.44116	0.00620
3663.15539	0.00626
3661.86962	0.00641
3660.58385	0.00681
3659.29808	0.00773
3658.01231	0.00906
3656.72654	0.01014
3655.44077	0.01018
3654.15501	0.00899
3652.86924	0.00723
3651.58347	0.00585
3650.29770	0.00535
3649.01193	0.00561
3647.72616	0.00617
3646.44039	0.00677
3645.15462	0.00740
3643.86886	0.00802
3642.58309	0.00842
3641.29732	0.00842
3640.01155	0.00809
3638.72578	0.00773
3637.44001	0.00751
3636.15424	0.00735
3634.86847	0.00709
3633.58270	0.00674
3632.29694	0.00642
3631.01117	0.00620
3629.72540	0.00602
3628.43963	0.00587
3627.15386	0.00585
3625.86809	0.00605
3624.58232	0.00647
3623.29655	0.00700
3622.01079	0.00749
3620.72502	0.00773
3619.43925	0.00760
3618.15348	0.00726
3616.86771	0.00711
3615.58194	0.00734
3614.29617	0.00766
3613.01040	0.00762
3611.72463	0.00713
3610.43887	0.00658
3609.15310	0.00645
3607.86733	0.00688
3606.58156	0.00750
3605.29579	0.00783
3604.01002	0.00763
3602.72425	0.00714
3601.43848	0.00685
3600.15272	0.00708
3598.86695	0.00767
3597.58118	0.00817
3596.29541	0.00827
3595.00964	0.00802
3593.72387	0.00768
3592.43810	0.00739
3591.15233	0.00712
3589.86656	0.00684
3588.58080	0.00661
3587.29503	0.00652
3586.00926	0.00666
3584.72349	0.00709
3583.43772	0.00780
3582.15195	0.00859
3580.86618	0.00910
3579.58041	0.00907
3578.29464	0.00867
3577.00888	0.00840
3575.72311	0.00865
3574.43734	0.00920
3573.15157	0.00951
3571.86580	0.00938
3570.58003	0.00913
3569.29426	0.00918
3568.00849	0.00953
3566.72273	0.00987
3565.43696	0.00996
3564.15119	0.00978
3562.86542	0.00943
3561.57965	0.00899
3560.29388	0.00858
3559.00811	0.00827
3557.72234	0.00802
3556.43657	0.00775
3555.15081	0.00754
3553.86504	0.00763
3552.57927	0.00818
3551.29350	0.00905
3550.00773	0.00982
3548.72196	0.01012
3547.43619	0.00989
3546.15042	0.00940
3544.86466	0.00905
3543.57889	0.00913
3542.29312	0.00953
3541.00735	0.00987
3539.72158	0.00982
3538.43581	0.00945
3537.15004	0.00905
3535.86427	0.00876
3534.57850	0.00854
3533.29274	0.00831
3532.00697	0.00812
3530.72120	0.00810
3529.43543	0.00843
3528.14966	0.00914
3526.86389	0.01003
3525.57812	0.01077
3524.29235	0.01114
3523.00659	0.01118
3521.72082	0.01103
3520.43505	0.01074
3519.14928	0.01036
3517.86351	0.01000
3516.57774	0.00975
3515.29197	0.00961
3514.00620	0.00951
3512.72043	0.00938
3511.43467	0.00925
3510.14890	0.00922
3508.86313	0.00942
3507.57736	0.00978
3506.29159	0.01006
3505.00582	0.00999
3503.72005	0.00951
3502.43428	0.00890
3501.14852	0.00858
3499.86275	0.00875
3498.57698	0.00925
3497.29121	0.00979
3496.00544	0.01012
3494.71967	0.01019
3493.43390	0.01004
3492.14813	0.00970
3490.86236	0.00920
3489.57660	0.00864
3488.29083	0.00818
3487.00506	0.00797
3485.71929	0.00810
3484.43352	0.00861
3483.14775	0.00943
3481.86198	0.01030
3480.57621	0.01082
3479.29045	0.01078
3478.00468	0.01029
3476.71891	0.00974
3475.43314	0.00943
3474.14737	0.00950
3472.86160	0.00985
3471.57583	0.01031
3470.29006	0.01067
3469.00429	0.01077
3467.71853	0.01057
3466.43276	0.01014
3465.14699	0.00961
3463.86122	0.00918
3462.57545	0.00896
3461.28968	0.00895
3460.00391	0.00910
3458.71814	0.00952
3457.43238	0.01026
3456.14661	0.01104
3454.86084	0.01140
3453.57507	0.01113
3452.28930	0.01044
3451.00353	0.00969
3449.71776	0.00907
3448.43199	0.00862
3447.14622	0.00849
3445.86046	0.00880
3444.57469	0.00944
3443.28892	0.01003
3442.00315	0.01023
3440.71738	0.01002
3439.43161	0.00974
3438.14584	0.00977
3436.86007	0.01019
3435.57431	0.01075
3434.28854	0.01110
3433.00277	0.01102
3431.71700	0.01056
3430.43123	0.00998
3429.14546	0.00965
3427.85969	0.00984
3426.57392	0.01045
3425.28815	0.01106
3424.00239	0.01137
3422.71662	0.01138
3421.43085	0.01126
3420.14508	0.01100
3418.85931	0.01057
3417.57354	0.01008
3416.28777	0.00980
3415.00200	0.00992
3413.71624	0.01030
3412.43047	0.01065
3411.14470	0.01083
3409.85893	0.01092
3408.57316	0.01105
3407.28739	0.01116
3406.00162	0.01113
3404.71585	0.01095
3403.43008	0.01073
3402.14432	0.01063
3400.85855	0.01072
3399.57278	0.01095
3398.28701	0.01122
3397.00124	0.01133
3395.71547	0.01122
3394.42970	0.01102
3393.14393	0.01082
3391.85817	0.01061
3390.57240	0.01043
3389.28663	0.01041
3388.00086	0.01063
3386.71509	0.01093
3385.42932	0.01099
3384.14355	0.01064
3382.85778	0.01004
3381.57201	0.00953
3380.28625	0.00936
3379.00048	0.00956
3377.71471	0.00999
3376.42894	0.01044
3375.14317	0.01076
3373.85740	0.01089
3372.57163	0.01086
3371.28586	0.01078
3370.00010	0.01074
3368.71433	0.01075
3367.42856	0.01085
3366.14279	0.01105
3364.85702	0.01136
3363.57125	0.01159
3362.28548	0.01150
3360.99971	0.01112
3359.71394	0.01075
3358.42818	0.01063
3357.14241	0.01078
3355.85664	0.01110
3354.57087	0.01150
3353.28510	0.01182
3351.99933	0.01186
3350.71356	0.01156
3349.42779	0.01113
3348.14202	0.01084
3346.85626	0.01077
3345.57049	0.01085
3344.28472	0.01097
3342.99895	0.01102
3341.71318	0.01096
3340.42741	0.01077
3339.14164	0.01054
3337.85587	0.01040
3336.57011	0.01043
3335.28434	0.01063
3333.99857	0.01089
3332.71280	0.01109
3331.42703	0.01117
3330.14126	0.01117
3328.85549	0.01115
3327.56972	0.01121
3326.28395	0.01133
3324.99819	0.01143
3323.71242	0.01145
3322.42665	0.01141
3321.14088	0.01142
3319.85511	0.01148
3318.56934	0.01149
3317.28357	0.01146
3315.99780	0.01148
3314.71204	0.01158
3313.42627	0.01164
3312.14050	0.01163
3310.85473	0.01166
3309.56896	0.01181
3308.28319	0.01199
3306.99742	0.01201
3305.71165	0.01183
3304.42588	0.01159
3303.14012	0.01145
3301.85435	0.01143
3300.56858	0.01149
3299.28281	0.01156
3297.99704	0.01160
3296.71127	0.01158
3295.42550	0.01150
3294.13973	0.01131
3292.85397	0.01101
3291.56820	0.01071
3290.28243	0.01067
3288.99666	0.01102
3287.71089	0.01154
3286.42512	0.01188
3285.13935	0.01188
3283.85358	0.01168
3282.56781	0.01158
3281.28205	0.01174
3279.99628	0.01204
3278.71051	0.01227
3277.42474	0.01231
3276.13897	0.01222
3274.85320	0.01211
3273.56743	0.01201
3272.28166	0.01189
3270.99590	0.01178
3269.71013	0.01176
3268.42436	0.01180
3267.13859	0.01180
3265.85282	0.01165
3264.56705	0.01136
3263.28128	0.01110
3261.99551	0.01110
3260.70974	0.01141
3259.42398	0.01193
3258.13821	0.01248
3256.85244	0.01292
3255.56667	0.01316
3254.28090	0.01313
3252.99513	0.01279
3251.70936	0.01226
3250.42359	0.01177
3249.13783	0.01150
3247.85206	0.01145
3246.56629	0.01148
3245.28052	0.01144
3243.99475	0.01129
3242.70898	0.01108
3241.42321	0.01086
3240.13744	0.01068
3238.85167	0.01051
3237.56591	0.01029
3236.28014	0.01003
3234.99437	0.00984
3233.70860	0.00984
3232.42283	0.01003
3231.13706	0.01033
3229.85129	0.01064
3228.56552	0.01090
3227.27976	0.01109
3225.99399	0.01121
3224.70822	0.01128
3223.42245	0.01129
3222.13668	0.01127
3220.85091	0.01124
3219.56514	0.01115
3218.27937	0.01093
3216.99360	0.01061
3215.70784	0.01032
3214.42207	0.01019
3213.13630	0.01018
3211.85053	0.01012
3210.56476	0.00997
3209.27899	0.00986
3207.99322	0.01001
3206.70745	0.01036
3205.42169	0.01064
3204.13592	0.01064
3202.85015	0.01037
3201.56438	0.01002
3200.27861	0.00981
3198.99284	0.00978
3197.70707	0.00986
3196.42130	0.01001
3195.13553	0.01022
3193.84977	0.01044
3192.56400	0.01049
3191.27823	0.01028
3189.99246	0.00995
3188.70669	0.00976
3187.42092	0.00981
3186.13515	0.01004
3184.84938	0.01034
3183.56362	0.01064
3182.27785	0.01097
3180.99208	0.01134
3179.70631	0.01165
3178.42054	0.01176
3177.13477	0.01163
3175.84900	0.01130
3174.56323	0.01090
3173.27746	0.01059
3171.99170	0.01049
3170.70593	0.01057
3169.42016	0.01064
3168.13439	0.01053
3166.84862	0.01035
3165.56285	0.01031
3164.27708	0.01047
3162.99131	0.01068
3161.70555	0.01073
3160.41978	0.01059
3159.13401	0.01039
3157.84824	0.01030
3156.56247	0.01037
3155.27670	0.01059
3153.99093	0.01086
3152.70516	0.01107
3151.41939	0.01111
3150.13363	0.01097
3148.84786	0.01070
3147.56209	0.01049
3146.27632	0.01049
3144.99055	0.01076
3143.70478	0.01119
3142.41901	0.01160
3141.13324	0.01181
3139.84748	0.01175
3138.56171	0.01154
3137.27594	0.01130
3135.99017	0.01113
3134.70440	0.01100
3133.41863	0.01085
3132.13286	0.01072
3130.84709	0.01071
3129.56132	0.01085
3128.27556	0.01104
3126.98979	0.01112
3125.70402	0.01104
3124.41825	0.01083
3123.13248	0.01056
3121.84671	0.01039
3120.56094	0.01042
3119.27517	0.01063
3117.98940	0.01086
3116.70364	0.01095
3115.41787	0.01094
3114.13210	0.01094
3112.84633	0.01097
3111.56056	0.01094
3110.27479	0.01078
3108.98902	0.01058
3107.70325	0.01056
3106.41749	0.01077
3105.13172	0.01096
3103.84595	0.01084
3102.56018	0.01042
3101.27441	0.01003
3099.98864	0.01001
3098.70287	0.01033
3097.41710	0.01071
3096.13133	0.01095
3094.84557	0.01106
3093.55980	0.01108
3092.27403	0.01093
3090.98826	0.01049
3089.70249	0.00982
3088.41672	0.00920
3087.13095	0.00884
3085.84518	0.00876
3084.55942	0.00886
3083.27365	0.00912
3081.98788	0.00951
3080.70211	0.00999
3079.41634	0.01041
3078.13057	0.01063
3076.84480	0.01062
3075.55903	0.01043
3074.27326	0.01017
3072.98750	0.00993
3071.70173	0.00983
3070.41596	0.00993
3069.13019	0.01019
3067.84442	0.01046
3066.55865	0.01062
3065.27288	0.01056
3063.98711	0.01026
3062.70135	0.00979
3061.41558	0.00933
3060.12981	0.00914
3058.84404	0.00929
3057.55827	0.00964
3056.27250	0.00997
3054.98673	0.01022
3053.70096	0.01043
3052.41519	0.01056
3051.12943	0.01046
3049.84366	0.01007
3048.55789	0.00952
3047.27212	0.00906
3045.98635	0.00886
3044.70058	0.00891
3043.41481	0.00911
3042.12904	0.00931
3040.84328	0.00944
3039.55751	0.00941
3038.27174	0.00919
3036.98597	0.00888
3035.70020	0.00861
3034.41443	0.00846
3033.12866	0.00839
3031.84289	0.00837
3030.55712	0.00838
3029.27136	0.00844
3027.98559	0.00848
3026.69982	0.00849
3025.41405	0.00852
3024.12828	0.00867
3022.84251	0.00895
3021.55674	0.00926
3020.27097	0.00942
3018.98521	0.00934
3017.69944	0.00910
3016.41367	0.00892
3015.12790	0.00892
3013.84213	0.00906
3012.55636	0.00921
3011.27059	0.00931
3009.98482	0.00941
3008.69905	0.00959
3007.41329	0.00984
3006.12752	0.01004
3004.84175	0.01009
3003.55598	0.00991
3002.27021	0.00963
3000.98444	0.00943
2999.69867	0.00948
2998.41290	0.00977
2997.12714	0.01002
2995.84137	0.01007
2994.55560	0.01000
2993.26983	0.00992
2991.98406	0.00983
2990.69829	0.00973
2989.41252	0.00964
2988.12675	0.00959
2986.84098	0.00956
2985.55522	0.00955
2984.26945	0.00952
2982.98368	0.00936
2981.69791	0.00906
2980.41214	0.00876
2979.12637	0.00865
2977.84060	0.00877
2976.55483	0.00901
2975.26907	0.00920
2973.98330	0.00928
2972.69753	0.00928
2971.41176	0.00928
2970.12599	0.00929
2968.84022	0.00929
2967.55445	0.00925
2966.26868	0.00925
2964.98291	0.00931
2963.69715	0.00935
2962.41138	0.00917
2961.12561	0.00879
2959.83984	0.00840
2958.55407	0.00824
2957.26830	0.00839
2955.98253	0.00880
2954.69676	0.00934
2953.41100	0.00980
2952.12523	0.00999
2950.83946	0.00990
2949.55369	0.00980
2948.26792	0.00986
2946.98215	0.00996
2945.69638	0.00990
2944.41061	0.00965
2943.12484	0.00938
2941.83908	0.00919
2940.55331	0.00907
2939.26754	0.00901
2937.98177	0.00907
2936.69600	0.00923
2935.41023	0.00943
2934.12446	0.00954
2932.83869	0.00951
2931.55293	0.00928
2930.26716	0.00892
2928.98139	0.00858
2927.69562	0.00844
2926.40985	0.00853
2925.12408	0.00871
2923.83831	0.00880
2922.55254	0.00870
2921.26677	0.00851
2919.98101	0.00835
2918.69524	0.00830
2917.40947	0.00832
2916.12370	0.00833
2914.83793	0.00829
2913.55216	0.00826
2912.26639	0.00838
2910.98062	0.00870
2909.69486	0.00914
2908.40909	0.00953
2907.12332	0.00976
2905.83755	0.00984
2904.55178	0.00979
2903.26601	0.00966
2901.98024	0.00953
2900.69447	0.00949
2899.40870	0.00960
2898.12294	0.00977
2896.83717	0.00984
2895.55140	0.00972
2894.26563	0.00951
2892.97986	0.00936
2891.69409	0.00935
2890.40832	0.00942
2889.12255	0.00948
2887.83678	0.00948
2886.55102	0.00940
2885.26525	0.00925
2883.97948	0.00903
2882.69371	0.00879
2881.40794	0.00865
2880.12217	0.00869
2878.83640	0.00893
2877.55063	0.00926
2876.26487	0.00949
2874.97910	0.00955
2873.69333	0.00948
2872.40756	0.00945
2871.12179	0.00955
2869.83602	0.00975
2868.55025	0.00993
2867.26448	0.00997
2865.97871	0.00982
2864.69295	0.00959
2863.40718	0.00937
2862.12141	0.00920
2860.83564	0.00900
2859.54987	0.00870
2858.26410	0.00836
2856.97833	0.00816
2855.69256	0.00819
2854.40680	0.00839
2853.12103	0.00853
2851.83526	0.00849
2850.54949	0.00832
2849.26372	0.00818
2847.97795	0.00811
2846.69218	0.00805
2845.40641	0.00802
2844.12064	0.00814
2842.83488	0.00846
2841.54911	0.00885
2840.26334	0.00913
2838.97757	0.00927
2837.69180	0.00932
2836.40603	0.00928
2835.12026	0.00913
2833.83449	0.00892
2832.54873	0.00873
2831.26296	0.00862
2829.97719	0.00858
2828.69142	0.00853
2827.40565	0.00843
2826.11988	0.00835
2824.83411	0.00835
2823.54834	0.00837
2822.26257	0.00836
2820.97681	0.00834
2819.69104	0.00843
2818.40527	0.00869
2817.11950	0.00899
2815.83373	0.00917
2814.54796	0.00917
2813.26219	0.00908
2811.97642	0.00899
2810.69066	0.00896
2809.40489	0.00896
2808.11912	0.00895
2806.83335	0.00893
2805.54758	0.00886
2804.26181	0.00874
2802.97604	0.00863
2801.69027	0.00860
2800.40450	0.00865
2799.11874	0.00868
2797.83297	0.00864
2796.54720	0.00857
2795.26143	0.00852
2793.97566	0.00851
2792.68989	0.00850
2791.40412	0.00848
2790.11835	0.00839
2788.83259	0.00822
2787.54682	0.00800
2786.26105	0.00789
2784.97528	0.00801
2783.68951	0.00835
2782.40374	0.00873
2781.11797	0.00896
2779.83220	0.00900
2778.54643	0.00891
2777.26067	0.00879
2775.97490	0.00870
2774.68913	0.00862
2773.40336	0.00845
2772.11759	0.00816
2770.83182	0.00792
2769.54605	0.00789
2768.26028	0.00809
2766.97452	0.00832
2765.68875	0.00844
2764.40298	0.00848
2763.11721	0.00848
2761.83144	0.00839
2760.54567	0.00815
2759.25990	0.00787
2757.97413	0.00771
2756.68836	0.00773
2755.40260	0.00784
2754.11683	0.00797
2752.83106	0.00808
2751.54529	0.00818
2750.25952	0.00827
2748.97375	0.00838
2747.68798	0.00848
2746.40221	0.00853
2745.11645	0.00842
2743.83068	0.00813
2742.54491	0.00782
2741.25914	0.00771
2739.97337	0.00789
2738.68760	0.00821
2737.40183	0.00840
2736.11606	0.00836
2734.83029	0.00820
2733.54453	0.00808
2732.25876	0.00811
2730.97299	0.00822
2729.68722	0.00830
2728.40145	0.00822
2727.11568	0.00796
2725.82991	0.00762
2724.54414	0.00738
2723.25838	0.00740
2721.97261	0.00769
2720.68684	0.00808
2719.40107	0.00834
2718.11530	0.00836
2716.82953	0.00819
2715.54376	0.00795
2714.25799	0.00769
2712.97222	0.00744
2711.68646	0.00729
2710.40069	0.00733
2709.11492	0.00753
2707.82915	0.00778
2706.54338	0.00793
2705.25761	0.00792
2703.97184	0.00776
2702.68607	0.00757
2701.40031	0.00745
2700.11454	0.00744
2698.82877	0.00746
2697.54300	0.00745
2696.25723	0.00748
2694.97146	0.00764
2693.68569	0.00789
2692.39992	0.00808
2691.11415	0.00805
2689.82839	0.00784
2688.54262	0.00762
2687.25685	0.00758
2685.97108	0.00776
2684.68531	0.00806
2683.39954	0.00836
2682.11377	0.00857
2680.82800	0.00864
2679.54224	0.00851
2678.25647	0.00820
2676.97070	0.00783
2675.68493	0.00758
2674.39916	0.00750
2673.11339	0.00749
2671.82762	0.00739
2670.54185	0.00725
2669.25608	0.00723
2667.97032	0.00741
2666.68455	0.00774
2665.39878	0.00804
2664.11301	0.00818
2662.82724	0.00818
2661.54147	0.00813
2660.25570	0.00810
2658.96993	0.00811
2657.68417	0.00808
2656.39840	0.00798
2655.11263	0.00780
2653.82686	0.00758
2652.54109	0.00739
2651.25532	0.00730
2649.96955	0.00734
2648.68378	0.00750
2647.39801	0.00770
2646.11225	0.00785
2644.82648	0.00788
2643.54071	0.00780
2642.25494	0.00773
2640.96917	0.00771
2639.68340	0.00770
2638.39763	0.00765
2637.11186	0.00756
2635.82609	0.00748
2634.54033	0.00747
2633.25456	0.00756
2631.96879	0.00784
2630.68302	0.00829
2629.39725	0.00869
2628.11148	0.00878
2626.82571	0.00845
2625.53994	0.00792
2624.25418	0.00748
2622.96841	0.00726
2621.68264	0.00720
2620.39687	0.00724
2619.11110	0.00738
2617.82533	0.00756
2616.53956	0.00767
2615.25379	0.00761
2613.96802	0.00739
2612.68226	0.00712
2611.39649	0.00692
2610.11072	0.00683
2608.82495	0.00682
2607.53918	0.00681
2606.25341	0.00680
2604.96764	0.00682
2603.68187	0.00695
2602.39611	0.00720
2601.11034	0.00744
2599.82457	0.00744
2598.53880	0.00713
2597.25303	0.00670
2595.96726	0.00641
2594.68149	0.00633
2593.39572	0.00633
2592.10995	0.00628
2590.82419	0.00623
2589.53842	0.00630
2588.25265	0.00656
2586.96688	0.00691
2585.68111	0.00714
2584.39534	0.00710
2583.10957	0.00684
2581.82380	0.00657
2580.53804	0.00641
2579.25227	0.00633
2577.96650	0.00631
2576.68073	0.00641
2575.39496	0.00665
2574.10919	0.00692
2572.82342	0.00707
2571.53765	0.00700
2570.25188	0.00676
2568.96612	0.00646
2567.68035	0.00620
2566.39458	0.00613
2565.10881	0.00631
2563.82304	0.00664
2562.53727	0.00688
2561.25150	0.00681
2559.96573	0.00645
2558.67997	0.00602
2557.39420	0.00577
2556.10843	0.00580
2554.82266	0.00597
2553.53689	0.00613
2552.25112	0.00627
2550.96535	0.00637
2549.67958	0.00627
2548.39381	0.00587
2547.10805	0.00540
2545.82228	0.00520
2544.53651	0.00539
2543.25074	0.00579
2541.96497	0.00625
2540.67920	0.00675
2539.39343	0.00719
2538.10766	0.00735
2536.82190	0.00700
2535.53613	0.00623
2534.25036	0.00541
2532.96459	0.00491
2531.67882	0.00477
2530.39305	0.00473
2529.10728	0.00459
2527.82151	0.00445
2526.53574	0.00453
2525.24998	0.00484
2523.96421	0.00519
2522.67844	0.00541
2521.39267	0.00543
2520.10690	0.00528
2518.82113	0.00496
2517.53536	0.00461
2516.24959	0.00439
2514.96383	0.00436
2513.67806	0.00448
2512.39229	0.00476
2511.10652	0.00528
2509.82075	0.00599
2508.53498	0.00655
2507.24921	0.00660
2505.96344	0.00619
2504.67767	0.00567
2503.39191	0.00531
2502.10614	0.00511
2500.82037	0.00499
2499.53460	0.00496
2498.24883	0.00510
2496.96306	0.00535
2495.67729	0.00557
2494.39152	0.00560
2493.10576	0.00545
2491.81999	0.00526
2490.53422	0.00517
2489.24845	0.00521
2487.96268	0.00529
2486.67691	0.00542
2485.39114	0.00568
2484.10537	0.00605
2482.81960	0.00633
2481.53384	0.00641
2480.24807	0.00638
2478.96230	0.00637
2477.67653	0.00632
2476.39076	0.00607
2475.10499	0.00563
2473.81922	0.00520
2472.53345	0.00496
2471.24769	0.00497
2469.96192	0.00520
2468.67615	0.00547
2467.39038	0.00552
2466.10461	0.00529
2464.81884	0.00499
2463.53307	0.00491
2462.24730	0.00512
2460.96153	0.00541
2459.67577	0.00554
2458.39000	0.00552
2457.10423	0.00554
2455.81846	0.00566
2454.53269	0.00577
2453.24692	0.00571
2451.96115	0.00554
2450.67538	0.00543
2449.38962	0.00547
2448.10385	0.00562
2446.81808	0.00581
2445.53231	0.00593
2444.24654	0.00592
2442.96077	0.00576
2441.67500	0.00557
2440.38923	0.00549
2439.10346	0.00551
2437.81770	0.00551
2436.53193	0.00535
2435.24616	0.00503
2433.96039	0.00462
2432.67462	0.00427
2431.38885	0.00410
2430.10308	0.00412
2428.81731	0.00426
2427.53155	0.00437
2426.24578	0.00435
2424.96001	0.00428
2423.67424	0.00434
2422.38847	0.00462
2421.10270	0.00499
2419.81693	0.00525
2418.53116	0.00527
2417.24539	0.00515
2415.95963	0.00507
2414.67386	0.00513
2413.38809	0.00520
2412.10232	0.00509
2410.81655	0.00485
2409.53078	0.00470
2408.24501	0.00477
2406.95924	0.00494
2405.67347	0.00505
2404.38771	0.00514
2403.10194	0.00528
2401.81617	0.00541
2400.53040	0.00544
2399.24463	0.00544
2397.95886	0.00542
2396.67309	0.00543
2395.38732	0.00543
2394.10156	0.00535
2392.81579	0.00520
2391.53002	0.00504
2390.24425	0.00492
2388.95848	0.00480
2387.67271	0.00459
2386.38694	0.00435
2385.10117	0.00422
2383.81540	0.00426
2382.52964	0.00436
2381.24387	0.00432
2379.95810	0.00397
2378.67233	0.00328
2377.38656	0.00237
2376.10079	0.00142
2374.81502	0.00052
2373.52925	-0.00033
2372.24349	-0.00121
2370.95772	-0.00214
2369.67195	-0.00321
2368.38618	-0.00445
2367.10041	-0.00578
2365.81464	-0.00700
2364.52887	-0.00792
2363.24310	-0.00841
2361.95733	-0.00846
2360.67157	-0.00812
2359.38580	-0.00746
2358.10003	-0.00653
2356.81426	-0.00533
2355.52849	-0.00386
2354.24272	-0.00223
2352.95695	-0.00066
2351.67118	0.00060
2350.38542	0.00130
2349.09965	0.00135
2347.81388	0.00080
2346.52811	-0.00018
2345.24234	-0.00136
2343.95657	-0.00247
2342.67080	-0.00328
2341.38503	-0.00369
2340.09926	-0.00375
2338.81350	-0.00364
2337.52773	-0.00359
2336.24196	-0.00371
2334.95619	-0.00397
2333.67042	-0.00422
2332.38465	-0.00437
2331.09888	-0.00436
2329.81311	-0.00415
2328.52735	-0.00368
2327.24158	-0.00292
2325.95581	-0.00194
2324.67004	-0.00091
2323.38427	-0.00002
2322.09850	0.00062
2320.81273	0.00104
2319.52696	0.00133
2318.24119	0.00162
2316.95543	0.00202
2315.66966	0.00257
2314.38389	0.00322
2313.09812	0.00389
2311.81235	0.00451
2310.52658	0.00498
2309.24081	0.00521
2307.95504	0.00515
2306.66928	0.00489
2305.38351	0.00457
2304.09774	0.00431
2302.81197	0.00418
2301.52620	0.00420
2300.24043	0.00436
2298.95466	0.00462
2297.66889	0.00489
2296.38312	0.00511
2295.09736	0.00528
2293.81159	0.00546
2292.52582	0.00568
2291.24005	0.00591
2289.95428	0.00604
2288.66851	0.00603
2287.38274	0.00593
2286.09697	0.00579
2284.81121	0.00565
2283.52544	0.00557
2282.23967	0.00567
2280.95390	0.00595
2279.66813	0.00617
2278.38236	0.00610
2277.09659	0.00576
2275.81082	0.00542
2274.52505	0.00521
2273.23929	0.00505
2271.95352	0.00488
2270.66775	0.00483
2269.38198	0.00497
2268.09621	0.00515
2266.81044	0.00513
2265.52467	0.00492
2264.23890	0.00486
2262.95314	0.00520
2261.66737	0.00579
2260.38160	0.00624
2259.09583	0.00636
2257.81006	0.00621
2256.52429	0.00590
2255.23852	0.00545
2253.95275	0.00496
2252.66698	0.00466
2251.38122	0.00464
2250.09545	0.00487
2248.80968	0.00519
2247.52391	0.00503
2246.23814	0.00486
2244.95237	0.00480
2243.66660	0.00472
2242.38083	0.00435
2241.09507	0.00357
2239.80930	0.00276
2238.52353	0.00255
2237.23776	0.00313
2235.95199	0.00396
2234.66622	0.00434
2233.38045	0.00414
2232.09468	0.00367
2230.80891	0.00317
2229.52315	0.00272
2228.23738	0.00244
2226.95161	0.00253
2225.66584	0.00297
2224.38007	0.00355
2223.09430	0.00412
2221.80853	0.00457
2220.52276	0.00481
2219.23700	0.00483
2217.95123	0.00479
2216.66546	0.00483
2215.37969	0.00483
2214.09392	0.00455
2212.80815	0.00379
2211.52238	0.00269
2210.23661	0.00185
2208.95084	0.00187
2207.66508	0.00265
2206.37931	0.00332
2205.09354	0.00301
2203.80777	0.00184
2202.52200	0.00073
2201.23623	0.00042
2199.95046	0.00080
2198.66469	0.00118
2197.37893	0.00122
2196.09316	0.00126
2194.80739	0.00172
2193.52162	0.00239
2192.23585	0.00271
2190.95008	0.00263
2189.66431	0.00271
2188.37854	0.00326
2187.09277	0.00388
2185.80701	0.00406
2184.52124	0.00374
2183.23547	0.00317
2181.94970	0.00257
2180.66393	0.00214
2179.37816	0.00205
2178.09239	0.00222
2176.80662	0.00229
2175.52085	0.00192
2174.23509	0.00112
2172.94932	0.00020
2171.66355	-0.00049
2170.37778	-0.00082
2169.09201	-0.00082
2167.80624	-0.00059
2166.52047	-0.00023
2165.23470	0.00019
2163.94894	0.00057
2162.66317	0.00078
2161.37740	0.00061
2160.09163	0.00009
2158.80586	-0.00023
2157.52009	0.00026
2156.23432	0.00138
2154.94855	0.00226
2153.66278	0.00237
2152.37702	0.00199
2151.09125	0.00152
2149.80548	0.00103
2148.51971	0.00052
2147.23394	0.00038
2145.94817	0.00108
2144.66240	0.00235
2143.37663	0.00324
2142.09087	0.00308
2140.80510	0.00209
2139.51933	0.00105
2138.23356	0.00051
2136.94779	0.00050
2135.66202	0.00079
2134.37625	0.00132
2133.09048	0.00205
2131.80471	0.00267
2130.51895	0.00276
2129.23318	0.00221
2127.94741	0.00143
2126.66164	0.00097
2125.37587	0.00101
2124.09010	0.00136
2122.80433	0.00173
2121.51856	0.00204
2120.23280	0.00237
2118.94703	0.00276
2117.66126	0.00309
2116.37549	0.00309
2115.08972	0.00266
2113.80395	0.00208
2112.51818	0.00179
2111.23241	0.00194
2109.94664	0.00222
2108.66088	0.00235
2107.37511	0.00237
2106.08934	0.00244
2104.80357	0.00254
2103.51780	0.00258
2102.23203	0.00251
2100.94626	0.00239
2099.66049	0.00341
2098.37473	0.00361
2097.08896	0.00313
2095.80319	0.00264
2094.51742	0.00235
2093.23165	0.00229
2091.94588	0.00249
2090.66011	0.00289
2089.37434	0.00331
2088.08857	0.00352
2086.80281	0.00339
2085.51704	0.00305
2084.23127	0.00277
2082.94550	0.00275
2081.65973	0.00296
2080.37396	0.00310
2079.08819	0.00291
2077.80242	0.00243
2076.51666	0.00210
2075.23089	0.00234
2073.94512	0.00310
2072.65935	0.00393
2071.37358	0.00439
2070.08781	0.00440
2068.80204	0.00410
2067.51627	0.00361
2066.23050	0.00293
2064.94474	0.00215
2063.65897	0.00142
2062.37320	0.00086
2061.08743	0.00045
2059.80166	0.00009
2058.51589	-0.00030
2057.23012	-0.00071
2055.94435	-0.00091
2054.65859	-0.00056
2053.37282	0.00052
2052.08705	0.00205
2050.80128	0.00346
2049.51551	0.00434
2048.22974	0.00471
2046.94397	0.00471
2045.65820	0.00435
2044.37243	0.00358
2043.08667	0.00273
2041.80090	0.00228
2040.51513	0.00241
2039.22936	0.00265
2037.94359	0.00241
2036.65782	0.00158
2035.37205	0.00063
2034.08628	0.00014
2032.80052	0.00045
2031.51475	0.00150
2030.22898	0.00298
2028.94321	0.00447
2027.65744	0.00567
2026.37167	0.00638
2025.08590	0.00636
2023.80013	0.00540
2022.51436	0.00360
2021.22860	0.00159
2019.94283	0.00018
2018.65706	-0.00018
2017.37129	0.00027
2016.08552	0.00094
2014.79975	0.00139
2013.51398	0.00170
2012.22821	0.00213
2010.94245	0.00270
2009.65668	0.00317
2008.37091	0.00330
2007.08514	0.00308
2005.79937	0.00266
2004.51360	0.00219
2003.22783	0.00175
2001.94206	0.00135
2000.65629	0.00109
1999.37053	0.00116
1998.08476	0.00168
1996.79899	0.00247
1995.51322	0.00312
1994.22745	0.00339
1992.94168	0.00341
1991.65591	0.00340
1990.37014	0.00331
1989.08438	0.00309
1987.79861	0.00302
1986.51284	0.00356
1985.22707	0.00484
1983.94130	0.00643
1982.65553	0.00767
1981.36976	0.00818
1980.08399	0.00796
1978.79822	0.00728
1977.51246	0.00651
1976.22669	0.00587
1974.94092	0.00539
1973.65515	0.00506
1972.36938	0.00488
1971.08361	0.00475
1969.79784	0.00443
1968.51207	0.00374
1967.22631	0.00290
1965.94054	0.00235
1964.65477	0.00236
1963.36900	0.00272
1962.08323	0.00298
1960.79746	0.00287
1959.51169	0.00247
1958.22592	0.00209
1956.94015	0.00191
1955.65439	0.00192
1954.36862	0.00198
1953.08285	0.00197
1951.79708	0.00182
1950.51131	0.00156
1949.22554	0.00138
1947.93977	0.00149
1946.65400	0.00198
1945.36823	0.00269
1944.08247	0.00333
1942.79670	0.00373
1941.51093	0.00393
1940.22516	0.00407
1938.93939	0.00417
1937.65362	0.00411
1936.36785	0.00382
1935.08208	0.00335
1933.79632	0.00294
1932.51055	0.00280
1931.22478	0.00300
1929.93901	0.00341
1928.65324	0.00385
1927.36747	0.00414
1926.08170	0.00424
1924.79593	0.00414
1923.51016	0.00391
1922.22440	0.00365
1920.93863	0.00343
1919.65286	0.00330
1918.36709	0.00327
1917.08132	0.00338
1915.79555	0.00363
1914.50978	0.00393
1913.22401	0.00416
1911.93825	0.00425
1910.65248	0.00418
1909.36671	0.00400
1908.08094	0.00384
1906.79517	0.00385
1905.50940	0.00409
1904.22363	0.00443
1902.93786	0.00469
1901.65209	0.00482
1900.36633	0.00491
1899.08056	0.00504
1897.79479	0.00519
1896.50902	0.00522
1895.22325	0.00507
1893.93748	0.00479
1892.65171	0.00451
1891.36594	0.00427
1890.08018	0.00407
1888.79441	0.00390
1887.50864	0.00379
1886.22287	0.00374
1884.93710	0.00368
1883.65133	0.00356
1882.36556	0.00338
1881.07979	0.00329
1879.79402	0.00339
1878.50826	0.00365
1877.22249	0.00395
1875.93672	0.00418
1874.65095	0.00427
1873.36518	0.00426
1872.07941	0.00414
1870.79364	0.00394
1869.50787	0.00368
1868.22211	0.00342
1866.93634	0.00322
1865.65057	0.00314
1864.36480	0.00321
1863.07903	0.00341
1861.79326	0.00361
1860.50749	0.00374
1859.22172	0.00378
1857.93595	0.00375
1856.65019	0.00365
1855.36442	0.00355
1854.07865	0.00352
1852.79288	0.00362
1851.50711	0.00380
1850.22134	0.00393
1848.93557	0.00396
1847.64980	0.00390
1846.36404	0.00382
1845.07827	0.00377
1843.79250	0.00374
1842.50673	0.00369
1841.22096	0.00360
1839.93519	0.00349
1838.64942	0.00344
1837.36365	0.00350
1836.07788	0.00362
1834.79212	0.00376
1833.50635	0.00385
1832.22058	0.00390
1830.93481	0.00389
1829.64904	0.00386
1828.36327	0.00388
1827.07750	0.00402
1825.79173	0.00427
1824.50597	0.00455
1823.22020	0.00476
1821.93443	0.00485
1820.64866	0.00484
1819.36289	0.00470
1818.07712	0.00444
1816.79135	0.00410
1815.50558	0.00378
1814.21981	0.00354
1812.93405	0.00338
1811.64828	0.00326
1810.36251	0.00321
1809.07674	0.00322
1807.79097	0.00329
1806.50520	0.00336
1805.21943	0.00338
1803.93366	0.00337
1802.64790	0.00340
1801.36213	0.00354
1800.07636	0.00376
1798.79059	0.00397
1797.50482	0.00410
1796.21905	0.00413
1794.93328	0.00411
1793.64751	0.00407
1792.36174	0.00404
1791.07598	0.00403
1789.79021	0.00404
1788.50444	0.00406
1787.21867	0.00409
1785.93290	0.00413
1784.64713	0.00414
1783.36136	0.00414
1782.07559	0.00413
1780.78983	0.00415
1779.50406	0.00421
1778.21829	0.00426
1776.93252	0.00423
1775.64675	0.00410
1774.36098	0.00393
1773.07521	0.00381
1771.78944	0.00381
1770.50367	0.00390
1769.21791	0.00401
1767.93214	0.00408
1766.64637	0.00410
1765.36060	0.00409
1764.07483	0.00411
1762.78906	0.00417
1761.50329	0.00423
1760.21752	0.00424
1758.93176	0.00418
1757.64599	0.00411
1756.36022	0.00408
1755.07445	0.00410
1753.78868	0.00410
1752.50291	0.00402
1751.21714	0.00387
1749.93137	0.00376
1748.64560	0.00377
1747.35984	0.00393
1746.07407	0.00410
1744.78830	0.00415
1743.50253	0.00406
1742.21676	0.00394
1740.93099	0.00390
1739.64522	0.00399
1738.35945	0.00414
1737.07369	0.00426
1735.78792	0.00434
1734.50215	0.00438
1733.21638	0.00440
1731.93061	0.00443
1730.64484	0.00449
1729.35907	0.00458
1728.07330	0.00466
1726.78753	0.00467
1725.50177	0.00459
1724.21600	0.00447
1722.93023	0.00440
1721.64446	0.00443
1720.35869	0.00454
1719.07292	0.00466
1717.78715	0.00475
1716.50138	0.00480
1715.21561	0.00484
1713.92985	0.00485
1712.64408	0.00484
1711.35831	0.00484
1710.07254	0.00488
1708.78677	0.00497
1707.50100	0.00506
1706.21523	0.00513
1704.92946	0.00516
1703.64370	0.00518
1702.35793	0.00520
1701.07216	0.00523
1699.78639	0.00528
1698.50062	0.00534
1697.21485	0.00543
1695.92908	0.00556
1694.64331	0.00569
1693.35754	0.00580
1692.07178	0.00585
1690.78601	0.00585
1689.50024	0.00585
1688.21447	0.00585
1686.92870	0.00585
1685.64293	0.00585
1684.35716	0.00589
1683.07139	0.00598
1681.78563	0.00611
1680.49986	0.00625
1679.21409	0.00636
1677.92832	0.00646
1676.64255	0.00654
1675.35678	0.00661
1674.07101	0.00662
1672.78524	0.00656
1671.49947	0.00647
1670.21371	0.00641
1668.92794	0.00646
1667.64217	0.00663
1666.35640	0.00684
1665.07063	0.00705
1663.78486	0.00722
1662.49909	0.00735
1661.21332	0.00746
1659.92756	0.00751
1658.64179	0.00752
1657.35602	0.00749
1656.07025	0.00742
1654.78448	0.00731
1653.49871	0.00719
1652.21294	0.00712
1650.92717	0.00713
1649.64140	0.00720
1648.35564	0.00728
1647.06987	0.00735
1645.78410	0.00738
1644.49833	0.00740
1643.21256	0.00744
1641.92679	0.00751
1640.64102	0.00762
1639.35525	0.00773
1638.06949	0.00779
1636.78372	0.00783
1635.49795	0.00787
1634.21218	0.00792
1632.92641	0.00798
1631.64064	0.00801
1630.35487	0.00806
1629.06910	0.00814
1627.78333	0.00821
1626.49757	0.00824
1625.21180	0.00822
1623.92603	0.00818
1622.64026	0.00820
1621.35449	0.00828
1620.06872	0.00838
1618.78295	0.00846
1617.49718	0.00850
1616.21142	0.00854
1614.92565	0.00859
1613.63988	0.00868
1612.35411	0.00878
1611.06834	0.00885
1609.78257	0.00887
1608.49680	0.00888
1607.21103	0.00891
1605.92526	0.00897
1604.63950	0.00907
1603.35373	0.00919
1602.06796	0.00931
1600.78219	0.00942
1599.49642	0.00951
1598.21065	0.00958
1596.92488	0.00964
1595.63911	0.00972
1594.35335	0.00980
1593.06758	0.00988
1591.78181	0.00997
1590.49604	0.01004
1589.21027	0.01009
1587.92450	0.01012
1586.63873	0.01013
1585.35296	0.01015
1584.06719	0.01017
1582.78143	0.01021
1581.49566	0.01023
1580.20989	0.01024
1578.92412	0.01024
1577.63835	0.01024
1576.35258	0.01028
1575.06681	0.01037
1573.78104	0.01051
1572.49528	0.01066
1571.20951	0.01079
1569.92374	0.01092
1568.63797	0.01103
1567.35220	0.01113
1566.06643	0.01123
1564.78066	0.01131
1563.49489	0.01136
1562.20912	0.01136
1560.92336	0.01132
1559.63759	0.01127
1558.35182	0.01125
1557.06605	0.01128
1555.78028	0.01138
1554.49451	0.01154
1553.20874	0.01171
1551.92297	0.01185
1550.63721	0.01193
1549.35144	0.01194
1548.06567	0.01190
1546.77990	0.01181
1545.49413	0.01166
1544.20836	0.01145
1542.92259	0.01124
1541.63682	0.01109
1540.35105	0.01105
1539.06529	0.01110
1537.77952	0.01119
1536.49375	0.01126
1535.20798	0.01134
1533.92221	0.01147
1532.63644	0.01164
1531.35067	0.01182
1530.06490	0.01198
1528.77914	0.01212
1527.49337	0.01225
1526.20760	0.01239
1524.92183	0.01253
1523.63606	0.01268
1522.35029	0.01284
1521.06452	0.01301
1519.77875	0.01317
1518.49298	0.01335
1517.20722	0.01358
1515.92145	0.01390
1514.63568	0.01429
1513.34991	0.01467
1512.06414	0.01499
1510.77837	0.01524
1509.49260	0.01551
1508.20683	0.01584
1506.92107	0.01625
1505.63530	0.01672
1504.34953	0.01717
1503.06376	0.01755
1501.77799	0.01786
1500.49222	0.01813
1499.20645	0.01838
1497.92068	0.01862
1496.63491	0.01885
1495.34915	0.01906
1494.06338	0.01926
1492.77761	0.01944
1491.49184	0.01965
1490.20607	0.01991
1488.92030	0.02024
1487.63453	0.02059
1486.34876	0.02092
1485.06299	0.02122
1483.77723	0.02150
1482.49146	0.02179
1481.20569	0.02208
1479.91992	0.02233
1478.63415	0.02252
1477.34838	0.02266
1476.06261	0.02276
1474.77684	0.02287
1473.49108	0.02299
1472.20531	0.02310
1470.91954	0.02317
1469.63377	0.02321
1468.34800	0.02322
1467.06223	0.02324
1465.77646	0.02326
1464.49069	0.02331
1463.20492	0.02341
1461.91916	0.02356
1460.63339	0.02373
1459.34762	0.02388
1458.06185	0.02401
1456.77608	0.02415
1455.49031	0.02434
1454.20454	0.02455
1452.91877	0.02478
1451.63301	0.02501
1450.34724	0.02525
1449.06147	0.02546
1447.77570	0.02562
1446.48993	0.02569
1445.20416	0.02565
1443.91839	0.02555
1442.63262	0.02542
1441.34685	0.02531
1440.06109	0.02521
1438.77532	0.02513
1437.48955	0.02511
1436.20378	0.02515
1434.91801	0.02524
1433.63224	0.02538
1432.34647	0.02555
1431.06070	0.02576
1429.77494	0.02601
1428.48917	0.02631
1427.20340	0.02664
1425.91763	0.02699
1424.63186	0.02733
1423.34609	0.02762
1422.06032	0.02788
1420.77455	0.02813
1419.48878	0.02840
1418.20302	0.02869
1416.91725	0.02896
1415.63148	0.02918
1414.34571	0.02932
1413.05994	0.02938
1411.77417	0.02936
1410.48840	0.02927
1409.20263	0.02912
1407.91687	0.02890
1406.63110	0.02862
1405.34533	0.02830
1404.05956	0.02797
1402.77379	0.02763
1401.48802	0.02724
1400.20225	0.02679
1398.91648	0.02628
1397.63071	0.02577
1396.34495	0.02527
1395.05918	0.02481
1393.77341	0.02434
1392.48764	0.02384
1391.20187	0.02329
1389.91610	0.02270
1388.63033	0.02211
1387.34456	0.02160
1386.05880	0.02115
1384.77303	0.02073
1383.48726	0.02029
1382.20149	0.01984
1380.91572	0.01937
1379.62995	0.01887
1378.34418	0.01833
1377.05841	0.01775
1375.77264	0.01717
1374.48688	0.01663
1373.20111	0.01612
1371.91534	0.01562
1370.62957	0.01513
1369.34380	0.01468
1368.05803	0.01428
1366.77226	0.01397
1365.48649	0.01370
1364.20073	0.01345
1362.91496	0.01317
1361.62919	0.01285
1360.34342	0.01249
1359.05765	0.01212
1357.77188	0.01175
1356.48611	0.01140
1355.20034	0.01109
1353.91457	0.01082
1352.62881	0.01058
1351.34304	0.01038
1350.05727	0.01024
1348.77150	0.01016
1347.48573	0.01009
1346.19996	0.00996
1344.91419	0.00975
1343.62842	0.00953
1342.34266	0.00933
1341.05689	0.00916
1339.77112	0.00901
1338.48535	0.00887
1337.19958	0.00874
1335.91381	0.00864
1334.62804	0.00859
1333.34227	0.00857
1332.05650	0.00856
1330.77074	0.00854
1329.48497	0.00847
1328.19920	0.00837
1326.91343	0.00827
1325.62766	0.00821
1324.34189	0.00820
1323.05612	0.00823
1321.77035	0.00827
1320.48459	0.00827
1319.19882	0.00821
1317.91305	0.00810
1316.62728	0.00798
1315.34151	0.00788
1314.05574	0.00782
1312.76997	0.00777
1311.48420	0.00774
1310.19843	0.00771
1308.91267	0.00769
1307.62690	0.00769
1306.34113	0.00767
1305.05536	0.00761
1303.76959	0.00752
1302.48382	0.00741
1301.19805	0.00732
1299.91228	0.00725
1298.62652	0.00722
1297.34075	0.00719
1296.05498	0.00717
1294.76921	0.00715
1293.48344	0.00713
1292.19767	0.00711
1290.91190	0.00708
1289.62613	0.00705
1288.34036	0.00704
1287.05460	0.00704
1285.76883	0.00702
1284.48306	0.00695
1283.19729	0.00683
1281.91152	0.00672
1280.62575	0.00667
1279.33998	0.00667
1278.05421	0.00668
1276.76845	0.00667
1275.48268	0.00666
1274.19691	0.00664
1272.91114	0.00661
1271.62537	0.00654
1270.33960	0.00643
1269.05383	0.00636
1267.76806	0.00634
1266.48229	0.00637
1265.19653	0.00639
1263.91076	0.00635
1262.62499	0.00627
1261.33922	0.00618
1260.05345	0.00611
1258.76768	0.00604
1257.48191	0.00597
1256.19614	0.00590
1254.91037	0.00587
1253.62461	0.00587
1252.33884	0.00587
1251.05307	0.00584
1249.76730	0.00577
1248.48153	0.00568
1247.19576	0.00564
1245.90999	0.00565
1244.62422	0.00568
1243.33846	0.00572
1242.05269	0.00573
1240.76692	0.00570
1239.48115	0.00561
1238.19538	0.00547
1236.90961	0.00532
1235.62384	0.00520
1234.33807	0.00515
1233.05230	0.00514
1231.76654	0.00515
1230.48077	0.00515
1229.19500	0.00515
1227.90923	0.00513
1226.62346	0.00510
1225.33769	0.00505
1224.05192	0.00497
1222.76615	0.00489
1221.48039	0.00482
1220.19462	0.00479
1218.90885	0.00477
1217.62308	0.00475
1216.33731	0.00471
1215.05154	0.00468
1213.76577	0.00467
1212.48000	0.00469
1211.19423	0.00471
1209.90847	0.00471
1208.62270	0.00473
1207.33693	0.00479
1206.05116	0.00485
1204.76539	0.00486
1203.47962	0.00484
1202.19385	0.00482
1200.90808	0.00478
1199.62232	0.00467
1198.33655	0.00478
1197.05078	0.00486
1195.76501	0.00487
1194.47924	0.00484
1193.19347	0.00482
1191.90770	0.00485
1190.62193	0.00489
1189.33616	0.00491
1188.05040	0.00488
1186.76463	0.00484
1185.47886	0.00485
1184.19309	0.00490
1182.90732	0.00498
1181.62155	0.00502
1180.33578	0.00503
1179.05001	0.00502
1177.76425	0.00501
1176.47848	0.00501
1175.19271	0.00501
1173.90694	0.00503
1172.62117	0.00505
1171.33540	0.00505
1170.04963	0.00502
1168.76386	0.00501
1167.47809	0.00505
1166.19233	0.00514
1164.90656	0.00524
1163.62079	0.00532
1162.33502	0.00541
1161.04925	0.00556
1159.76348	0.00575
1158.47771	0.00598
1157.19194	0.00618
1155.90618	0.00633
1154.62041	0.00643
1153.33464	0.00651
1152.04887	0.00659
1150.76310	0.00671
1149.47733	0.00683
1148.19156	0.00697
1146.90579	0.00713
1145.62002	0.00733
1144.33426	0.00759
1143.04849	0.00785
1141.76272	0.00808
1140.47695	0.00831
1139.19118	0.00859
1137.90541	0.00896
1136.61964	0.00938
1135.33387	0.00983
1134.04811	0.01031
1132.76234	0.01085
1131.47657	0.01146
1130.19080	0.01216
1128.90503	0.01295
1127.61926	0.01383
1126.33349	0.01480
1125.04772	0.01583
1123.76195	0.01692
1122.47619	0.01808
1121.19042	0.01926
1119.90465	0.02045
1118.61888	0.02164
1117.33311	0.02289
1116.04734	0.02421
1114.76157	0.02556
1113.47580	0.02688
1112.19004	0.02812
1110.90427	0.02929
1109.61850	0.03043
1108.33273	0.03159
1107.04696	0.03275
1105.76119	0.03387
1104.47542	0.03490
1103.18965	0.03583
1101.90388	0.03673
1100.61812	0.03767
1099.33235	0.03865
1098.04658	0.03962
1096.76081	0.04052
1095.47504	0.04134
1094.18927	0.04209
1092.90350	0.04278
1091.61773	0.04343
1090.33197	0.04404
1089.04620	0.04462
1087.76043	0.04521
1086.47466	0.04583
1085.18889	0.04645
1083.90312	0.04704
1082.61735	0.04762
1081.33158	0.04825
1080.04581	0.04902
1078.76005	0.04995
1077.47428	0.05097
1076.18851	0.05200
1074.90274	0.05300
1073.61697	0.05397
1072.33120	0.05495
1071.04543	0.05595
1069.75966	0.05698
1068.47390	0.05803
1067.18813	0.05912
1065.90236	0.06026
1064.61659	0.06142
1063.33082	0.06256
1062.04505	0.06365
1060.75928	0.06469
1059.47351	0.06570
1058.18774	0.06670
1056.90198	0.06769
1055.61621	0.06864
1054.33044	0.06952
1053.04467	0.07036
1051.75890	0.07120
1050.47313	0.07210
1049.18736	0.07307
1047.90159	0.07407
1046.61583	0.07505
1045.33006	0.07598
1044.04429	0.07688
1042.75852	0.07774
1041.47275	0.07854
1040.18698	0.07935
1038.90121	0.08021
1037.61544	0.08115
1036.32967	0.08207
1035.04391	0.08286
1033.75814	0.08349
1032.47237	0.08396
1031.18660	0.08430
1029.90083	0.08451
1028.61506	0.08460
1027.32929	0.08456
1026.04352	0.08439
1024.75775	0.08405
1023.47199	0.08354
1022.18622	0.08285
1020.90045	0.08201
1019.61468	0.08103
1018.32891	0.07994
1017.04314	0.07873
1015.75737	0.07738
1014.47160	0.07589
1013.18584	0.07427
1011.90007	0.07253
1010.61430	0.07068
1009.32853	0.06873
1008.04276	0.06668
1006.75699	0.06455
1005.47122	0.06237
1004.18545	0.06017
1002.89968	0.05794
1001.61392	0.05568
1000.32815	0.05341
999.04238	0.05116
997.75661	0.04896
996.47084	0.04684
995.18507	0.04478
993.89930	0.04280
992.61353	0.04093
991.32777	0.03918
990.04200	0.03754
988.75623	0.03597
987.47046	0.03445
986.18469	0.03303
984.89892	0.03176
983.61315	0.03064
982.32738	0.02964
981.04161	0.02869
979.75585	0.02774
978.47008	0.02684
977.18431	0.02605
975.89854	0.02538
974.61277	0.02480
973.32700	0.02429
972.04123	0.02388
970.75546	0.02362
969.46970	0.02353
968.18393	0.02360
966.89816	0.02382
965.61239	0.02413
964.32662	0.02442
963.04085	0.02459
961.75508	0.02467
960.46931	0.02470
959.18354	0.02467
957.89778	0.02453
956.61201	0.02420
955.32624	0.02368
954.04047	0.02304
952.75470	0.02236
951.46893	0.02173
950.18316	0.02120
948.89739	0.02073
947.61163	0.02028
946.32586	0.01980
945.04009	0.01929
943.75432	0.01879
942.46855	0.01834
941.18278	0.01793
939.89701	0.01752
938.61124	0.01707
937.32547	0.01662
936.03971	0.01621
934.75394	0.01586
933.46817	0.01554
932.18240	0.01522
930.89663	0.01491
929.61086	0.01464
928.32509	0.01442
927.03932	0.01425
925.75356	0.01410
924.46779	0.01392
923.18202	0.01373
921.89625	0.01358
920.61048	0.01346
919.32471	0.01335
918.03894	0.01325
916.75317	0.01316
915.46740	0.01306
914.18164	0.01292
912.89587	0.01271
911.61010	0.01250
910.32433	0.01238
909.03856	0.01239
907.75279	0.01250
906.46702	0.01261
905.18125	0.01266
903.89549	0.01263
902.60972	0.01255
901.32395	0.01249
900.03818	0.01244
898.75241	0.01238
897.46664	0.01229
896.18087	0.01218
894.89510	0.01204
893.60933	0.01186
892.32357	0.01168
891.03780	0.01158
889.75203	0.01166
888.46626	0.01191
887.18049	0.01222
885.89472	0.01256
884.60895	0.01301
883.32318	0.01373
882.03742	0.01468
880.75165	0.01566
879.46588	0.01648
878.18011	0.01708
876.89434	0.01758
875.60857	0.01810
874.32280	0.01863
873.03703	0.01909
871.75126	0.01934
870.46550	0.01931
869.17973	0.01897
867.89396	0.01837
866.60819	0.01761
865.32242	0.01681
864.03665	0.01598
862.75088	0.01516
861.46511	0.01441
860.17935	0.01380
858.89358	0.01336
857.60781	0.01304
856.32204	0.01280
855.03627	0.01267
853.75050	0.01261
852.46473	0.01253
851.17896	0.01233
849.89319	0.01203
848.60743	0.01174
847.32166	0.01156
846.03589	0.01149
844.75012	0.01151
843.46435	0.01154
842.17858	0.01154
840.89281	0.01147
839.60704	0.01135
838.32128	0.01119
837.03551	0.01105
835.74974	0.01096
834.46397	0.01094
833.17820	0.01095
831.89243	0.01097
830.60666	0.01097
829.32089	0.01096
828.03512	0.01095
826.74936	0.01096
825.46359	0.01096
824.17782	0.01090
822.89205	0.01078
821.60628	0.01067
820.32051	0.01067
819.03474	0.01076
817.74897	0.01085
816.46321	0.01084
815.17744	0.01071
813.89167	0.01055
812.60590	0.01046
811.32013	0.01046
810.03436	0.01046
808.74859	0.01043
807.46282	0.01041
806.17705	0.01047
804.89129	0.01060
803.60552	0.01073
802.31975	0.01078
801.03398	0.01076
799.74821	0.01068
798.46244	0.01059
797.17667	0.01053
795.89090	0.01053
794.60513	0.01053
793.31937	0.01048
792.03360	0.01040
790.74783	0.01033
789.46206	0.01030
788.17629	0.01031
786.89052	0.01038
785.60475	0.01050
784.31898	0.01063
783.03322	0.01068
781.74745	0.01060
780.46168	0.01045
779.17591	0.01032
777.89014	0.01028
776.60437	0.01034
775.31860	0.01047
774.03283	0.01059
772.74706	0.01066
771.46130	0.01065
770.17553	0.01059
768.88976	0.01052
767.60399	0.01051
766.31822	0.01056
765.03245	0.01063
763.74668	0.01062
762.46091	0.01055
761.17515	0.01047
759.88938	0.01045
758.60361	0.01047
757.31784	0.01047
756.03207	0.01041
754.74630	0.01031
753.46053	0.01026
752.17476	0.01031
750.88899	0.01043
749.60323	0.01053
748.31746	0.01052
747.03169	0.01044
745.74592	0.01037
744.46015	0.01033
743.17438	0.01034
741.88861	0.01041
740.60284	0.01051
739.31708	0.01060
738.03131	0.01059
736.74554	0.01051
735.45977	0.01041
734.17400	0.01035
732.88823	0.01031
731.60246	0.01028
730.31669	0.01026
729.03092	0.01028
727.74516	0.01031
726.45939	0.01031
725.17362	0.01028
723.88785	0.01018
722.60208	0.01032
721.31631	0.01058
720.03054	0.01084
718.74477	0.01103
717.45901	0.01114
716.17324	0.01115
714.88747	0.01104
713.60170	0.01086
712.31593	0.01066
711.03016	0.01051
709.74439	0.01046
708.45862	0.01045
707.17285	0.01045
705.88709	0.01044
704.60132	0.01043
703.31555	0.01046
702.02978	0.01055
700.74401	0.01064
699.45824	0.01069
698.17247	0.01070
696.88670	0.01069
695.60094	0.01069
694.31517	0.01069
693.02940	0.01067
691.74363	0.01063
690.45786	0.01059
689.17209	0.01059
687.88632	0.01065
686.60055	0.01073
685.31478	0.01079
684.02902	0.01081
682.74325	0.01079
681.45748	0.01074
680.17171	0.01065
678.88594	0.01055
677.60017	0.01048
676.31440	0.01045
675.02863	0.01046
673.74287	0.01046
672.45710	0.01036
671.17133	0.01011
669.88556	0.00979
668.59979	0.00956
667.31402	0.00960
666.02825	0.00990
664.74248	0.01029
663.45671	0.01059
662.17095	0.01073
660.88518	0.01075
659.59941	0.01068
658.31364	0.01058
657.02787	0.01047
655.74210	0.01038
654.45633	0.01032
653.17056	0.01031
651.88480	0.01034
650.59903	0.01039
649.31326	0.01043
648.02749	0.01046
646.74172	0.01050
645.45595	0.01059
644.17018	0.01073
642.88441	0.01090
641.59864	0.01105
640.31288	0.01114
639.02711	0.01121
637.74134	0.01127
636.45557	0.01135
635.16980	0.01147
633.88403	0.01161
632.59826	0.01172
631.31249	0.01196
630.02673	0.01306
628.74096	0.01467
627.45519	0.01376
626.16942	0.01554
624.88365	0.01904
623.59788	0.02212
622.31211	0.02392
621.02634	0.02423
619.74057	0.02342
618.45481	0.02239
617.16904	0.02201
615.88327	0.02249
614.59750	0.02344
613.31173	0.02456
612.02596	0.02610
610.74019	0.02847
609.45442	0.03147
608.16866	0.03412
606.88289	0.03581
605.59712	0.03692
604.31135	0.03811
603.02558	0.03927
601.73981	0.03965
600.45404	0.03883
599.16827	0.03714
597.88250	0.03524
596.59674	0.03357
595.31097	0.03224
594.02520	0.03120
592.73943	0.03046
591.45366	0.03007
590.16789	0.03003
588.88212	0.03031
587.59635	0.03082
586.31059	0.03148
585.02482	0.03227
583.73905	0.03311
582.45328	0.03399
581.16751	0.03491
579.88174	0.03585
578.59597	0.03675
577.31020	0.03760
576.02443	0.03843
574.73867	0.03930
573.45290	0.04019
572.16713	0.04107
570.88136	0.04197
569.59559	0.04298
568.30982	0.04413
567.02405	0.04532
565.73828	0.04632
564.45251	0.04694
563.16675	0.04708
561.88098	0.04669
560.59521	0.04574
559.30944	0.04420
558.02367	0.04212
556.73790	0.03967
555.45213	0.03712
554.16636	0.03470
552.88060	0.03250
551.59483	0.03049
550.30906	0.02858
549.02329	0.02681
547.73752	0.02526
546.45175	0.02401
545.16598	0.02306
543.88021	0.02230
542.59444	0.02158
541.30868	0.02081
540.02291	0.02002
538.73714	0.01931
537.45137	0.01873
536.16560	0.01825
534.87983	0.01778
533.59406	0.01727
532.30829	0.01673
531.02253	0.01621
529.73676	0.01579
528.45099	0.01548
527.16522	0.01524
525.87945	0.01496
524.59368	0.01461
523.30791	0.01422
522.02214	0.01393
520.73637	0.01380
519.45061	0.01373
518.16484	0.01356
516.87907	0.01324
515.59330	0.01286
514.30753	0.01257
513.02176	0.01242
511.73599	0.01236
510.45022	0.01232
509.16446	0.01224
507.87869	0.01211
506.59292	0.01190
505.30715	0.01162
504.02138	0.01133
502.73561	0.01113
501.44984	0.01103
500.16407	0.01099
498.87830	0.01094
497.59254	0.01086
496.30677	0.01076
495.02100	0.01066
493.73523	0.01056
492.44946	0.01046
491.16369	0.01038
489.87792	0.01033
488.59215	0.01033
487.30639	0.01034
486.02062	0.01032
484.73485	0.01028
483.44908	0.01027
482.16331	0.01029
480.87754	0.01031
479.59177	0.01030
478.30600	0.01030
477.02023	0.01032
475.73447	0.01038
474.44870	0.01047
473.16293	0.01055
471.87716	0.01061
470.59139	0.01063
469.30562	0.01059
468.01985	0.01049
466.73408	0.01037
465.44832	0.01030
464.16255	0.01029
462.87678	0.01030
461.59101	0.01025
460.30524	0.01013
459.01947	0.01002
457.73370	0.00996
456.44793	0.00995
455.16216	0.00994
453.87640	0.00991
452.59063	0.00980
451.30486	0.00962
450.01909	0.00938
448.73332	0.00916
447.44755	0.00903
446.16178	0.00900
444.87601	0.00902
443.59025	0.00901
442.30448	0.00896
441.01871	0.00890
439.73294	0.00886
438.44717	0.00885
437.16140	0.00886
435.87563	0.00889
434.58986	0.00890
433.30409	0.00889
432.01833	0.00882
430.73256	0.00873
429.44679	0.00861
428.16102	0.00852
426.87525	0.00847
425.58948	0.00848
424.30371	0.00854
423.01794	0.00861
421.73218	0.00865
420.44641	0.00862
419.16064	0.00855
417.87487	0.00847
416.58910	0.00838
415.30333	0.00829
414.01756	0.00819
412.73179	0.00810
411.44602	0.00808
410.16026	0.00817
408.87449	0.00835
407.58872	0.00854
406.30295	0.00872
405.01718	0.00884
403.73141	0.00890
402.44564	0.00886
401.15987	0.00874
399.87411	0.00860
