3997.45528	0.01338
3996.16951	0.01304
3994.88374	0.01237
3993.59798	0.01153
3992.31221	0.01097
3991.02644	0.01091
3989.74067	0.01125
3988.45490	0.01180
3987.16913	0.01240
3985.88336	0.01299
3984.59759	0.01354
3983.31183	0.01405
3982.02606	0.01455
3980.74029	0.01498
3979.45452	0.01522
3978.16875	0.01522
3976.88298	0.01511
3975.59721	0.01509
3974.31144	0.01527
3973.02567	0.01563
3971.73991	0.01601
3970.45414	0.01622
3969.16837	0.01626
3967.88260	0.01627
3966.59683	0.01634
3965.31106	0.01640
3964.02529	0.01635
3962.73952	0.01627
3961.45376	0.01633
3960.16799	0.01662
3958.88222	0.01704
3957.59645	0.01741
3956.31068	0.01761
3955.02491	0.01770
3953.73914	0.01782
3952.45337	0.01797
3951.16760	0.01807
3949.88184	0.01800
3948.59607	0.01767
3947.31030	0.01706
3946.02453	0.01628
3944.73876	0.01558
3943.45299	0.01520
3942.16722	0.01518
3940.88145	0.01542
3939.59569	0.01579
3938.30992	0.01618
3937.02415	0.01647
3935.73838	0.01661
3934.45261	0.01660
3933.16684	0.01644
3931.88107	0.01610
3930.59530	0.01571
3929.30953	0.01552
3928.02377	0.01575
3926.73800	0.01632
3925.45223	0.01704
3924.16646	0.01778
3922.88069	0.01849
3921.59492	0.01899
3920.30915	0.01901
3919.02338	0.01845
3917.73762	0.01753
3916.45185	0.01666
3915.16608	0.01610
3913.88031	0.01589
3912.59454	0.01605
3911.30877	0.01649
3910.02300	0.01700
3908.73723	0.01725
3907.45146	0.01707
3906.16570	0.01659
3904.87993	0.01607
3903.59416	0.01565
3902.30839	0.01531
3901.02262	0.01504
3899.73685	0.01489
3898.45108	0.01483
3897.16531	0.01471
3895.87955	0.01446
3894.59378	0.01427
3893.30801	0.01453
3892.02224	0.01535
3890.73647	0.01646
3889.45070	0.01730
3888.16493	0.01748
3886.87916	0.01709
3885.59339	0.01666
3884.30763	0.01675
3883.02186	0.01747
3881.73609	0.01833
3880.45032	0.01867
3879.16455	0.01818
3877.87878	0.01716
3876.59301	0.01617
3875.30724	0.01556
3874.02148	0.01532
3872.73571	0.01530
3871.44994	0.01545
3870.16417	0.01576
3868.87840	0.01616
3867.59263	0.01659
3866.30686	0.01694
3865.02109	0.01695
3863.73532	0.01646
3862.44956	0.01575
3861.16379	0.01539
3859.87802	0.01566
3858.59225	0.01630
3857.30648	0.01687
3856.02071	0.01721
3854.73494	0.01745
3853.44917	0.01774
3852.16341	0.01810
3850.87764	0.01846
3849.59187	0.01874
3848.30610	0.01880
3847.02033	0.01856
3845.73456	0.01810
3844.44879	0.01767
3843.16302	0.01745
3841.87725	0.01739
3840.59149	0.01737
3839.30572	0.01734
3838.01995	0.01740
3836.73418	0.01750
3835.44841	0.01754
3834.16264	0.01746
3832.87687	0.01725
3831.59110	0.01685
3830.30534	0.01633
3829.01957	0.01601
3827.73380	0.01617
3826.44803	0.01672
3825.16226	0.01734
3823.87649	0.01795
3822.59072	0.01868
3821.30495	0.01948
3820.01918	0.01994
3818.73342	0.01973
3817.44765	0.01908
3816.16188	0.01851
3814.87611	0.01822
3813.59034	0.01788
3812.30457	0.01707
3811.01880	0.01584
3809.73303	0.01466
3808.44726	0.01402
3807.16150	0.01396
3805.87573	0.01412
3804.58996	0.01421
3803.30419	0.01435
3802.01842	0.01504
3800.73265	0.01643
3799.44688	0.01805
3798.16111	0.01919
3796.87535	0.01956
3795.58958	0.01939
3794.30381	0.01904
3793.01804	0.01870
3791.73227	0.01837
3790.44650	0.01798
3789.16073	0.01759
3787.87496	0.01736
3786.58919	0.01740
3785.30343	0.01753
3784.01766	0.01739
3782.73189	0.01688
3781.44612	0.01634
3780.16035	0.01618
3778.87458	0.01629
3777.58881	0.01629
3776.30304	0.01610
3775.01728	0.01602
3773.73151	0.01626
3772.44574	0.01660
3771.15997	0.01664
3769.87420	0.01629
3768.58843	0.01590
3767.30266	0.01591
3766.01689	0.01641
3764.73112	0.01703
3763.44536	0.01737
3762.15959	0.01732
3760.87382	0.01712
3759.58805	0.01701
3758.30228	0.01697
3757.01651	0.01685
3755.73074	0.01661
3754.44497	0.01636
3753.15921	0.01628
3751.87344	0.01645
3750.58767	0.01673
3749.30190	0.01693
3748.01613	0.01705
3746.73036	0.01722
3745.44459	0.01744
3744.15882	0.01750
3742.87305	0.01726
3741.58729	0.01678
3740.30152	0.01630
3739.01575	0.01593
3737.72998	0.01559
3736.44421	0.01528
3735.15844	0.01514
3733.87267	0.01542
3732.58690	0.01599
3731.30114	0.01652
3730.01537	0.01675
3728.72960	0.01660
3727.44383	0.01628
3726.15806	0.01605
3724.87229	0.01599
3723.58652	0.01603
3722.30075	0.01582
3721.01498	0.01528
3719.72922	0.01494
3718.44345	0.01519
3717.15768	0.01590
3715.87191	0.01653
3714.58614	0.01680
3713.30037	0.01684
3712.01460	0.01666
3710.72883	0.01636
3709.44307	0.01609
3708.15730	0.01580
3706.87153	0.01552
3705.58576	0.01533
3704.29999	0.01527
3703.01422	0.01537
3701.72845	0.01542
3700.44268	0.01529
3699.15691	0.01507
3697.87115	0.01504
3696.58538	0.01537
3695.29961	0.01590
3694.01384	0.01627
3692.72807	0.01609
3691.44230	0.01547
3690.15653	0.01490
3688.87076	0.01472
3687.58500	0.01507
3686.29923	0.01582
3685.01346	0.01657
3683.72769	0.01702
3682.44192	0.01702
3681.15615	0.01666
3679.87038	0.01622
3678.58461	0.01601
3677.29884	0.01617
3676.01308	0.01665
3674.72731	0.01721
3673.44154	0.01747
3672.15577	0.01723
3670.87000	0.01674
3669.58423	0.01644
3668.29846	0.01652
3667.01269	0.01678
3665.72693	0.01693
3664.44116	0.01688
3663.15539	0.01671
3661.86962	0.01658
3660.58385	0.01660
3659.29808	0.01687
3658.01231	0.01743
3656.72654	0.01816
3655.44077	0.01891
3654.15501	0.01952
3652.86924	0.01985
3651.58347	0.01972
3650.29770	0.01910
3649.01193	0.01824
3647.72616	0.01763
3646.44039	0.01763
3645.15462	0.01806
3643.86886	0.01840
3642.58309	0.01831
3641.29732	0.01797
3640.01155	0.01779
3638.72578	0.01803
3637.44001	0.01853
3636.15424	0.01895
3634.86847	0.01907
3633.58270	0.01891
3632.29694	0.01873
3631.01117	0.01886
3629.72540	0.01932
3628.43963	0.01987
3627.15386	0.02008
3625.86809	0.01972
3624.58232	0.01885
3623.29655	0.01800
3622.01079	0.01760
3620.72502	0.01791
3619.43925	0.01872
3618.15348	0.01969
3616.86771	0.02051
3615.58194	0.02105
3614.29617	0.02146
3613.01040	0.02192
3611.72463	0.02229
3610.43887	0.02215
3609.15310	0.02144
3607.86733	0.02063
3606.58156	0.02025
3605.29579	0.02024
3604.01002	0.02037
3602.72425	0.02071
3601.43848	0.02140
3600.15272	0.02235
3598.86695	0.02316
3597.58118	0.02344
3596.29541	0.02301
3595.00964	0.02228
3593.72387	0.02172
3592.43810	0.02137
3591.15233	0.02133
3589.86656	0.02158
3588.58080	0.02184
3587.29503	0.02200
3586.00926	0.02193
3584.72349	0.02163
3583.43772	0.02138
3582.15195	0.02151
3580.86618	0.02209
3579.58041	0.02291
3578.29464	0.02366
3577.00888	0.02423
3575.72311	0.02458
3574.43734	0.02464
3573.15157	0.02431
3571.86580	0.02376
3570.58003	0.02325
3569.29426	0.02299
3568.00849	0.02294
3566.72273	0.02301
3565.43696	0.02326
3564.15119	0.02392
3562.86542	0.02497
3561.57965	0.02608
3560.29388	0.02682
3559.00811	0.02703
3557.72234	0.02692
3556.43657	0.02685
3555.15081	0.02701
3553.86504	0.02727
3552.57927	0.02737
3551.29350	0.02719
3550.00773	0.02687
3548.72196	0.02663
3547.43619	0.02641
3546.15042	0.02600
3544.86466	0.02534
3543.57889	0.02468
3542.29312	0.02438
3541.00735	0.02461
3539.72158	0.02524
3538.43581	0.02602
3537.15004	0.02672
3535.86427	0.02722
3534.57850	0.02742
3533.29274	0.02727
3532.00697	0.02683
3530.72120	0.02634
3529.43543	0.02609
3528.14966	0.02617
3526.86389	0.02653
3525.57812	0.02706
3524.29235	0.02770
3523.00659	0.02833
3521.72082	0.02878
3520.43505	0.02886
3519.14928	0.02850
3517.86351	0.02789
3516.57774	0.02746
3515.29197	0.02770
3514.00620	0.02866
3512.72043	0.02980
3511.43467	0.03039
3510.14890	0.03017
3508.86313	0.02945
3507.57736	0.02877
3506.29159	0.02847
3505.00582	0.02864
3503.72005	0.02917
3502.43428	0.02980
3501.14852	0.03034
3499.86275	0.03074
3498.57698	0.03109
3497.29121	0.03138
3496.00544	0.03157
3494.71967	0.03161
3493.43390	0.03147
3492.14813	0.03120
3490.86236	0.03092
3489.57660	0.03071
3488.29083	0.03055
3487.00506	0.03036
3485.71929	0.03019
3484.43352	0.03023
3483.14775	0.03062
3481.86198	0.03119
3480.57621	0.03163
3479.29045	0.03176
3478.00468	0.03165
3476.71891	0.03148
3475.43314	0.03134
3474.14737	0.03130
3472.86160	0.03145
3471.57583	0.03183
3470.29006	0.03236
3469.00429	0.03286
3467.71853	0.03310
3466.43276	0.03297
3465.14699	0.03253
3463.86122	0.03204
3462.57545	0.03177
3461.28968	0.03175
3460.00391	0.03183
3458.71814	0.03186
3457.43238	0.03187
3456.14661	0.03197
3454.86084	0.03215
3453.57507	0.03233
3452.28930	0.03247
3451.00353	0.03266
3449.71776	0.03292
3448.43199	0.03308
3447.14622	0.03292
3445.86046	0.03254
3444.57469	0.03236
3443.28892	0.03270
3442.00315	0.03346
3440.71738	0.03421
3439.43161	0.03453
3438.14584	0.03434
3436.86007	0.03385
3435.57431	0.03338
3434.28854	0.03317
3433.00277	0.03325
3431.71700	0.03346
3430.43123	0.03367
3429.14546	0.03388
3427.85969	0.03416
3426.57392	0.03453
3425.28815	0.03489
3424.00239	0.03513
3422.71662	0.03521
3421.43085	0.03517
3420.14508	0.03512
3418.85931	0.03518
3417.57354	0.03538
3416.28777	0.03557
3415.00200	0.03558
3413.71624	0.03544
3412.43047	0.03538
3411.14470	0.03557
3409.85893	0.03593
3408.57316	0.03626
3407.28739	0.03652
3406.00162	0.03682
3404.71585	0.03713
3403.43008	0.03727
3402.14432	0.03711
3400.85855	0.03673
3399.57278	0.03633
3398.28701	0.03606
3397.00124	0.03593
3395.71547	0.03588
3394.42970	0.03587
3393.14393	0.03595
3391.85817	0.03621
3390.57240	0.03656
3389.28663	0.03677
3388.00086	0.03664
3386.71509	0.03631
3385.42932	0.03605
3384.14355	0.03603
3382.85778	0.03619
3381.57201	0.03638
3380.28625	0.03653
3379.00048	0.03665
3377.71471	0.03676
3376.42894	0.03679
3375.14317	0.03667
3373.85740	0.03652
3372.57163	0.03658
3371.28586	0.03700
3370.00010	0.03764
3368.71433	0.03814
3367.42856	0.03820
3366.14279	0.03781
3364.85702	0.03721
3363.57125	0.03674
3362.28548	0.03659
3360.99971	0.03670
3359.71394	0.03684
3358.42818	0.03683
3357.14241	0.03671
3355.85664	0.03671
3354.57087	0.03698
3353.28510	0.03739
3351.99933	0.03771
3350.71356	0.03778
3349.42779	0.03770
3348.14202	0.03770
3346.85626	0.03789
3345.57049	0.03808
3344.28472	0.03804
3342.99895	0.03774
3341.71318	0.03742
3340.42741	0.03726
3339.14164	0.03722
3337.85587	0.03719
3336.57011	0.03716
3335.28434	0.03725
3333.99857	0.03750
3332.71280	0.03782
3331.42703	0.03799
3330.14126	0.03781
3328.85549	0.03732
3327.56972	0.03686
3326.28395	0.03682
3324.99819	0.03740
3323.71242	0.03837
3322.42665	0.03929
3321.14088	0.03980
3319.85511	0.03986
3318.56934	0.03967
3317.28357	0.03939
3315.99780	0.03901
3314.71204	0.03848
3313.42627	0.03792
3312.14050	0.03763
3310.85473	0.03777
3309.56896	0.03816
3308.28319	0.03840
3306.99742	0.03821
3305.71165	0.03765
3304.42588	0.03708
3303.14012	0.03677
3301.85435	0.03667
3300.56858	0.03656
3299.28281	0.03634
3297.99704	0.03616
3296.71127	0.03619
3295.42550	0.03637
3294.13973	0.03651
3292.85397	0.03656
3291.56820	0.03665
3290.28243	0.03688
3288.99666	0.03706
3287.71089	0.03692
3286.42512	0.03645
3285.13935	0.03598
3283.85358	0.03594
3282.56781	0.03637
3281.28205	0.03693
3279.99628	0.03729
3278.71051	0.03739
3277.42474	0.03744
3276.13897	0.03758
3274.85320	0.03780
3273.56743	0.03795
3272.28166	0.03797
3270.99590	0.03789
3269.71013	0.03779
3268.42436	0.03769
3267.13859	0.03766
3265.85282	0.03777
3264.56705	0.03801
3263.28128	0.03822
3261.99551	0.03821
3260.70974	0.03790
3259.42398	0.03751
3258.13821	0.03741
3256.85244	0.03776
3255.56667	0.03831
3254.28090	0.03860
3252.99513	0.03833
3251.70936	0.03765
3250.42359	0.03699
3249.13783	0.03664
3247.85206	0.03660
3246.56629	0.03674
3245.28052	0.03702
3243.99475	0.03744
3242.70898	0.03787
3241.42321	0.03805
3240.13744	0.03784
3238.85167	0.03740
3237.56591	0.03704
3236.28014	0.03701
3234.99437	0.03734
3233.70860	0.03783
3232.42283	0.03824
3231.13706	0.03836
3229.85129	0.03820
3228.56552	0.03788
3227.27976	0.03747
3225.99399	0.03701
3224.70822	0.03655
3223.42245	0.03617
3222.13668	0.03597
3220.85091	0.03596
3219.56514	0.03616
3218.27937	0.03652
3216.99360	0.03693
3215.70784	0.03725
3214.42207	0.03745
3213.13630	0.03754
3211.85053	0.03751
3210.56476	0.03733
3209.27899	0.03699
3207.99322	0.03654
3206.70745	0.03614
3205.42169	0.03594
3204.13592	0.03595
3202.85015	0.03604
3201.56438	0.03607
3200.27861	0.03602
3198.99284	0.03598
3197.70707	0.03603
3196.42130	0.03617
3195.13553	0.03632
3193.84977	0.03640
3192.56400	0.03641
3191.27823	0.03643
3189.99246	0.03655
3188.70669	0.03667
3187.42092	0.03658
3186.13515	0.03621
3184.84938	0.03565
3183.56362	0.03516
3182.27785	0.03492
3180.99208	0.03497
3179.70631	0.03528
3178.42054	0.03571
3177.13477	0.03609
3175.84900	0.03628
3174.56323	0.03627
3173.27746	0.03621
3171.99170	0.03624
3170.70593	0.03636
3169.42016	0.03645
3168.13439	0.03653
3166.84862	0.03670
3165.56285	0.03699
3164.27708	0.03718
3162.99131	0.03699
3161.70555	0.03637
3160.41978	0.03562
3159.13401	0.03510
3157.84824	0.03491
3156.56247	0.03493
3155.27670	0.03499
3153.99093	0.03505
3152.70516	0.03516
3151.41939	0.03528
3150.13363	0.03535
3148.84786	0.03534
3147.56209	0.03531
3146.27632	0.03530
3144.99055	0.03532
3143.70478	0.03529
3142.41901	0.03513
3141.13324	0.03484
3139.84748	0.03453
3138.56171	0.03433
3137.27594	0.03422
3135.99017	0.03414
3134.70440	0.03402
3133.41863	0.03389
3132.13286	0.03372
3130.84709	0.03347
3129.56132	0.03321
3128.27556	0.03312
3126.98979	0.03331
3125.70402	0.03374
3124.41825	0.03426
3123.13248	0.03475
3121.84671	0.03505
3120.56094	0.03498
3119.27517	0.03452
3117.98940	0.03394
3116.70364	0.03370
3115.41787	0.03397
3114.13210	0.03454
3112.84633	0.03499
3111.56056	0.03504
3110.27479	0.03479
3108.98902	0.03448
3107.70325	0.03429
3106.41749	0.03424
3105.13172	0.03419
3103.84595	0.03403
3102.56018	0.03371
3101.27441	0.03334
3099.98864	0.03309
3098.70287	0.03308
3097.41710	0.03324
3096.13133	0.03348
3094.84557	0.03377
3093.55980	0.03405
3092.27403	0.03419
3090.98826	0.03408
3089.70249	0.03379
3088.41672	0.03356
3087.13095	0.03354
3085.84518	0.03371
3084.55942	0.03400
3083.27365	0.03432
3081.98788	0.03451
3080.70211	0.03438
3079.41634	0.03395
3078.13057	0.03350
3076.84480	0.03328
3075.55903	0.03330
3074.27326	0.03337
3072.98750	0.03329
3071.70173	0.03301
3070.41596	0.03263
3069.13019	0.03230
3067.84442	0.03217
3066.55865	0.03222
3065.27288	0.03232
3063.98711	0.03234
3062.70135	0.03229
3061.41558	0.03231
3060.12981	0.03248
3058.84404	0.03276
3057.55827	0.03297
3056.27250	0.03298
3054.98673	0.03277
3053.70096	0.03247
3052.41519	0.03219
3051.12943	0.03203
3049.84366	0.03199
3048.55789	0.03205
3047.27212	0.03218
3045.98635	0.03230
3044.70058	0.03238
3043.41481	0.03231
3042.12904	0.03208
3040.84328	0.03179
3039.55751	0.03164
3038.27174	0.03175
3036.98597	0.03208
3035.70020	0.03245
3034.41443	0.03270
3033.12866	0.03274
3031.84289	0.03263
3030.55712	0.03245
3029.27136	0.03224
3027.98559	0.03198
3026.69982	0.03169
3025.41405	0.03144
3024.12828	0.03129
3022.84251	0.03131
3021.55674	0.03149
3020.27097	0.03175
3018.98521	0.03196
3017.69944	0.03206
3016.41367	0.03203
3015.12790	0.03190
3013.84213	0.03170
3012.55636	0.03153
3011.27059	0.03153
3009.98482	0.03176
3008.69905	0.03209
3007.41329	0.03235
3006.12752	0.03242
3004.84175	0.03228
3003.55598	0.03196
3002.27021	0.03152
3000.98444	0.03108
2999.69867	0.03084
2998.41290	0.03091
2997.12714	0.03118
2995.84137	0.03132
2994.55560	0.03116
2993.26983	0.03080
2991.98406	0.03057
2990.69829	0.03066
2989.41252	0.03089
2988.12675	0.03098
2986.84098	0.03085
2985.55522	0.03071
2984.26945	0.03076
2982.98368	0.03100
2981.69791	0.03133
2980.41214	0.03170
2979.12637	0.03214
2977.84060	0.03268
2976.55483	0.03322
2975.26907	0.03366
2973.98330	0.03392
2972.69753	0.03406
2971.41176	0.03424
2970.12599	0.03457
2968.84022	0.03503
2967.55445	0.03556
2966.26868	0.03618
2964.98291	0.03684
2963.69715	0.03745
2962.41138	0.03796
2961.12561	0.03847
2959.83984	0.03911
2958.55407	0.03983
2957.26830	0.04045
2955.98253	0.04085
2954.69676	0.04108
2953.41100	0.04123
2952.12523	0.04142
2950.83946	0.04173
2949.55369	0.04219
2948.26792	0.04273
2946.98215	0.04320
2945.69638	0.04348
2944.41061	0.04345
2943.12484	0.04315
2941.83908	0.04274
2940.55331	0.04251
2939.26754	0.04264
2937.98177	0.04310
2936.69600	0.04367
2935.41023	0.04415
2934.12446	0.04452
2932.83869	0.04491
2931.55293	0.04548
2930.26716	0.04623
2928.98139	0.04704
2927.69562	0.04780
2926.40985	0.04849
2925.12408	0.04909
2923.83831	0.04950
2922.55254	0.04967
2921.26677	0.04970
2919.98101	0.04972
2918.69524	0.04969
2917.40947	0.04949
2916.12370	0.04902
2914.83793	0.04828
2913.55216	0.04739
2912.26639	0.04660
2910.98062	0.04617
2909.69486	0.04614
2908.40909	0.04622
2907.12332	0.04603
2905.83755	0.04546
2904.55178	0.04477
2903.26601	0.04431
2901.98024	0.04419
2900.69447	0.04419
2899.40870	0.04394
2898.12294	0.04333
2896.83717	0.04257
2895.55140	0.04198
2894.26563	0.04160
2892.97986	0.04124
2891.69409	0.04073
2890.40832	0.04016
2889.12255	0.03977
2887.83678	0.03968
2886.55102	0.03974
2885.26525	0.03971
2883.97948	0.03942
2882.69371	0.03894
2881.40794	0.03844
2880.12217	0.03822
2878.83640	0.03844
2877.55063	0.03904
2876.26487	0.03968
2874.97910	0.04006
2873.69333	0.04011
2872.40756	0.04003
2871.12179	0.03995
2869.83602	0.03990
2868.55025	0.03984
2867.26448	0.03985
2865.97871	0.03999
2864.69295	0.04032
2863.40718	0.04075
2862.12141	0.04115
2860.83564	0.04140
2859.54987	0.04147
2858.26410	0.04145
2856.97833	0.04147
2855.69256	0.04154
2854.40680	0.04161
2853.12103	0.04162
2851.83526	0.04155
2850.54949	0.04136
2849.26372	0.04101
2847.97795	0.04048
2846.69218	0.03989
2845.40641	0.03932
2844.12064	0.03882
2842.83488	0.03838
2841.54911	0.03804
2840.26334	0.03775
2838.97757	0.03743
2837.69180	0.03697
2836.40603	0.03638
2835.12026	0.03574
2833.83449	0.03513
2832.54873	0.03453
2831.26296	0.03394
2829.97719	0.03340
2828.69142	0.03299
2827.40565	0.03271
2826.11988	0.03253
2824.83411	0.03239
2823.54834	0.03232
2822.26257	0.03234
2820.97681	0.03236
2819.69104	0.03221
2818.40527	0.03186
2817.11950	0.03150
2815.83373	0.03138
2814.54796	0.03153
2813.26219	0.03170
2811.97642	0.03158
2810.69066	0.03116
2809.40489	0.03069
2808.11912	0.03042
2806.83335	0.03041
2805.54758	0.03053
2804.26181	0.03058
2802.97604	0.03050
2801.69027	0.03027
2800.40450	0.02995
2799.11874	0.02968
2797.83297	0.02962
2796.54720	0.02978
2795.26143	0.03002
2793.97566	0.03013
2792.68989	0.03001
2791.40412	0.02975
2790.11835	0.02949
2788.83259	0.02935
2787.54682	0.02928
2786.26105	0.02922
2784.97528	0.02913
2783.68951	0.02907
2782.40374	0.02908
2781.11797	0.02913
2779.83220	0.02917
2778.54643	0.02910
2777.26067	0.02887
2775.97490	0.02853
2774.68913	0.02831
2773.40336	0.02842
2772.11759	0.02878
2770.83182	0.02908
2769.54605	0.02908
2768.26028	0.02880
2766.97452	0.02853
2765.68875	0.02848
2764.40298	0.02865
2763.11721	0.02882
2761.83144	0.02880
2760.54567	0.02855
2759.25990	0.02825
2757.97413	0.02811
2756.68836	0.02817
2755.40260	0.02833
2754.11683	0.02841
2752.83106	0.02837
2751.54529	0.02826
2750.25952	0.02815
2748.97375	0.02807
2747.68798	0.02805
2746.40221	0.02809
2745.11645	0.02815
2743.83068	0.02818
2742.54491	0.02813
2741.25914	0.02794
2739.97337	0.02762
2738.68760	0.02732
2737.40183	0.02719
2736.11606	0.02724
2734.83029	0.02738
2733.54453	0.02749
2732.25876	0.02753
2730.97299	0.02745
2729.68722	0.02726
2728.40145	0.02703
2727.11568	0.02696
2725.82991	0.02708
2724.54414	0.02719
2723.25838	0.02708
2721.97261	0.02680
2720.68684	0.02664
2719.40107	0.02682
2718.11530	0.02721
2716.82953	0.02755
2715.54376	0.02770
2714.25799	0.02768
2712.97222	0.02756
2711.68646	0.02736
2710.40069	0.02710
2709.11492	0.02685
2707.82915	0.02668
2706.54338	0.02668
2705.25761	0.02682
2703.97184	0.02693
2702.68607	0.02688
2701.40031	0.02670
2700.11454	0.02656
2698.82877	0.02652
2697.54300	0.02653
2696.25723	0.02649
2694.97146	0.02643
2693.68569	0.02643
2692.39992	0.02646
2691.11415	0.02640
2689.82839	0.02622
2688.54262	0.02601
2687.25685	0.02591
2685.97108	0.02598
2684.68531	0.02610
2683.39954	0.02614
2682.11377	0.02609
2680.82800	0.02603
2679.54224	0.02602
2678.25647	0.02603
2676.97070	0.02605
2675.68493	0.02610
2674.39916	0.02616
2673.11339	0.02614
2671.82762	0.02608
2670.54185	0.02609
2669.25608	0.02620
2667.97032	0.02627
2666.68455	0.02618
2665.39878	0.02595
2664.11301	0.02572
2662.82724	0.02564
2661.54147	0.02573
2660.25570	0.02597
2658.96993	0.02622
2657.68417	0.02635
2656.39840	0.02634
2655.11263	0.02623
2653.82686	0.02613
2652.54109	0.02604
2651.25532	0.02593
2649.96955	0.02576
2648.68378	0.02554
2647.39801	0.02535
2646.11225	0.02520
2644.82648	0.02502
2643.54071	0.02475
2642.25494	0.02448
2640.96917	0.02435
2639.68340	0.02442
2638.39763	0.02451
2637.11186	0.02440
2635.82609	0.02402
2634.54033	0.02355
2633.25456	0.02320
2631.96879	0.02309
2630.68302	0.02314
2629.39725	0.02321
2628.11148	0.02325
2626.82571	0.02331
2625.53994	0.02346
2624.25418	0.02363
2622.96841	0.02363
2621.68264	0.02335
2620.39687	0.02296
2619.11110	0.02265
2617.82533	0.02246
2616.53956	0.02234
2615.25379	0.02233
2613.96802	0.02249
2612.68226	0.02270
2611.39649	0.02276
2610.11072	0.02262
2608.82495	0.02245
2607.53918	0.02234
2606.25341	0.02223
2604.96764	0.02201
2603.68187	0.02172
2602.39611	0.02148
2601.11034	0.02136
2599.82457	0.02137
2598.53880	0.02141
2597.25303	0.02141
2595.96726	0.02138
2594.68149	0.02136
2593.39572	0.02140
2592.10995	0.02148
2590.82419	0.02158
2589.53842	0.02163
2588.25265	0.02155
2586.96688	0.02137
2585.68111	0.02122
2584.39534	0.02127
2583.10957	0.02149
2581.82380	0.02164
2580.53804	0.02148
2579.25227	0.02100
2577.96650	0.02047
2576.68073	0.02023
2575.39496	0.02039
2574.10919	0.02080
2572.82342	0.02112
2571.53765	0.02104
2570.25188	0.02054
2568.96612	0.01987
2567.68035	0.01943
2566.39458	0.01943
2565.10881	0.01982
2563.82304	0.02041
2562.53727	0.02098
2561.25150	0.02134
2559.96573	0.02135
2558.67997	0.02107
2557.39420	0.02070
2556.10843	0.02043
2554.82266	0.02029
2553.53689	0.02024
2552.25112	0.02026
2550.96535	0.02031
2549.67958	0.02035
2548.39381	0.02036
2547.10805	0.02036
2545.82228	0.02033
2544.53651	0.02026
2543.25074	0.02013
2541.96497	0.01997
2540.67920	0.01981
2539.39343	0.01968
2538.10766	0.01961
2536.82190	0.01960
2535.53613	0.01956
2534.25036	0.01942
2532.96459	0.01923
2531.67882	0.01910
2530.39305	0.01910
2529.10728	0.01922
2527.82151	0.01939
2526.53574	0.01955
2525.24998	0.01970
2523.96421	0.01989
2522.67844	0.02009
2521.39267	0.02011
2520.10690	0.01977
2518.82113	0.01915
2517.53536	0.01861
2516.24959	0.01848
2514.96383	0.01879
2513.67806	0.01929
2512.39229	0.01969
2511.10652	0.01986
2509.82075	0.01984
2508.53498	0.01974
2507.24921	0.01966
2505.96344	0.01966
2504.67767	0.01980
2503.39191	0.02000
2502.10614	0.02003
2500.82037	0.01962
2499.53460	0.01884
2498.24883	0.01815
2496.96306	0.01797
2495.67729	0.01835
2494.39152	0.01892
2493.10576	0.01930
2491.81999	0.01934
2490.53422	0.01913
2489.24845	0.01892
2487.96268	0.01891
2486.67691	0.01912
2485.39114	0.01936
2484.10537	0.01944
2482.81960	0.01930
2481.53384	0.01897
2480.24807	0.01857
2478.96230	0.01829
2477.67653	0.01826
2476.39076	0.01841
2475.10499	0.01850
2473.81922	0.01844
2472.53345	0.01838
2471.24769	0.01848
2469.96192	0.01872
2468.67615	0.01892
2467.39038	0.01901
2466.10461	0.01907
2464.81884	0.01915
2463.53307	0.01909
2462.24730	0.01880
2460.96153	0.01844
2459.67577	0.01831
2458.39000	0.01854
2457.10423	0.01899
2455.81846	0.01936
2454.53269	0.01938
2453.24692	0.01907
2451.96115	0.01871
2450.67538	0.01861
2449.38962	0.01876
2448.10385	0.01886
2446.81808	0.01868
2445.53231	0.01832
2444.24654	0.01808
2442.96077	0.01808
2441.67500	0.01819
2440.38923	0.01831
2439.10346	0.01843
2437.81770	0.01853
2436.53193	0.01845
2435.24616	0.01807
2433.96039	0.01757
2432.67462	0.01725
2431.38885	0.01720
2430.10308	0.01728
2428.81731	0.01733
2427.53155	0.01739
2426.24578	0.01747
2424.96001	0.01751
2423.67424	0.01745
2422.38847	0.01742
2421.10270	0.01754
2419.81693	0.01783
2418.53116	0.01812
2417.24539	0.01826
2415.95963	0.01820
2414.67386	0.01801
2413.38809	0.01782
2412.10232	0.01780
2410.81655	0.01809
2409.53078	0.01855
2408.24501	0.01888
2406.95924	0.01889
2405.67347	0.01867
2404.38771	0.01844
2403.10194	0.01834
2401.81617	0.01834
2400.53040	0.01845
2399.24463	0.01889
2397.95886	0.01929
2396.67309	0.01945
2395.38732	0.01929
2394.10156	0.01887
2392.81579	0.01830
2391.53002	0.01772
2390.24425	0.01728
2388.95848	0.01710
2387.67271	0.01718
2386.38694	0.01741
2385.10117	0.01759
2383.81540	0.01751
2382.52964	0.01713
2381.24387	0.01653
2379.95810	0.01601
2378.67233	0.01569
2377.38656	0.01554
2376.10079	0.01587
2374.81502	0.01655
2373.52925	0.01709
2372.24349	0.01723
2370.95772	0.01667
2369.67195	0.01602
2368.38618	0.01548
2367.10041	0.01463
2365.81464	0.01395
2364.52887	0.01415
2363.24310	0.01422
2361.95733	0.01307
2360.67157	0.01172
2359.38580	0.01204
2358.10003	0.01365
2356.81426	0.01531
2355.52849	0.01646
2354.24272	0.01676
2352.95695	0.01646
2351.67118	0.01507
2350.38542	0.01223
2349.09965	0.01051
2347.81388	0.01228
2346.52811	0.01521
2345.24234	0.01594
2343.95657	0.01491
2342.67080	0.01453
2341.38503	0.01500
2340.09926	0.01535
2338.81350	0.01544
2337.52773	0.01507
2336.24196	0.01479
2334.95619	0.01459
2333.67042	0.01445
2332.38465	0.01509
2331.09888	0.01598
2329.81311	0.01659
2328.52735	0.01732
2327.24158	0.01769
2325.95581	0.01768
2324.67004	0.01793
2323.38427	0.01809
2322.09850	0.01787
2320.81273	0.01761
2319.52696	0.01705
2318.24119	0.01632
2316.95543	0.01609
2315.66966	0.01647
2314.38389	0.01702
2313.09812	0.01717
2311.81235	0.01698
2310.52658	0.01672
2309.24081	0.01660
2307.95504	0.01681
2306.66928	0.01725
2305.38351	0.01761
2304.09774	0.01781
2302.81197	0.01789
2301.52620	0.01781
2300.24043	0.01748
2298.95466	0.01701
2297.66889	0.01656
2296.38312	0.01621
2295.09736	0.01598
2293.81159	0.01588
2292.52582	0.01597
2291.24005	0.01623
2289.95428	0.01650
2288.66851	0.01658
2287.38274	0.01642
2286.09697	0.01615
2284.81121	0.01593
2283.52544	0.01585
2282.23967	0.01588
2280.95390	0.01590
2279.66813	0.01590
2278.38236	0.01591
2277.09659	0.01593
2275.81082	0.01587
2274.52505	0.01565
2273.23929	0.01534
2271.95352	0.01509
2270.66775	0.01501
2269.38198	0.01505
2268.09621	0.01511
2266.81044	0.01500
2265.52467	0.01468
2264.23890	0.01422
2262.95314	0.01378
2261.66737	0.01352
2260.38160	0.01346
2259.09583	0.01346
2257.81006	0.01342
2256.52429	0.01331
2255.23852	0.01320
2253.95275	0.01315
2252.66698	0.01323
2251.38122	0.01341
2250.09545	0.01369
2248.80968	0.01401
2247.52391	0.01414
2246.23814	0.01399
2244.95237	0.01359
2243.66660	0.01324
2242.38083	0.01325
2241.09507	0.01362
2239.80930	0.01405
2238.52353	0.01422
2237.23776	0.01394
2235.95199	0.01323
2234.66622	0.01229
2233.38045	0.01150
2232.09468	0.01118
2230.80891	0.01135
2229.52315	0.01180
2228.23738	0.01222
2226.95161	0.01238
2225.66584	0.01219
2224.38007	0.01165
2223.09430	0.01087
2221.80853	0.01006
2220.52276	0.00946
2219.23700	0.00930
2217.95123	0.00979
2216.66546	0.01086
2215.37969	0.01208
2214.09392	0.01272
2212.80815	0.01245
2211.52238	0.01165
2210.23661	0.01102
2208.95084	0.01087
2207.66508	0.01092
2206.37931	0.01086
2205.09354	0.01076
2203.80777	0.01080
2202.52200	0.01085
2201.23623	0.01058
2199.95046	0.00989
2198.66469	0.00898
2197.37893	0.00825
2196.09316	0.00800
2194.80739	0.00833
2193.52162	0.00912
2192.23585	0.01003
2190.95008	0.01054
2189.66431	0.01021
2188.37854	0.00912
2187.09277	0.00780
2185.80701	0.00679
2184.52124	0.00632
2183.23547	0.00643
2181.94970	0.00711
2180.66393	0.00811
2179.37816	0.00879
2178.09239	0.00862
2176.80662	0.00770
2175.52085	0.00669
2174.23509	0.00618
2172.94932	0.00623
2171.66355	0.00658
2170.37778	0.00689
2169.09201	0.00686
2167.80624	0.00616
2166.52047	0.00472
2165.23470	0.00310
2163.94894	0.00211
2162.66317	0.00198
2161.37740	0.00203
2160.09163	0.00167
2158.80586	0.00112
2157.52009	0.00107
2156.23432	0.00179
2154.94855	0.00303
2153.66278	0.00442
2152.37702	0.00574
2151.09125	0.00696
2149.80548	0.00810
2148.51971	0.00911
2147.23394	0.00976
2145.94817	0.00997
2144.66240	0.00990
2143.37663	0.00984
2142.09087	0.00998
2140.80510	0.01041
2139.51933	0.01102
2138.23356	0.01145
2136.94779	0.01133
2135.66202	0.01067
2134.37625	0.00992
2133.09048	0.00948
2131.80471	0.00940
2130.51895	0.00947
2129.23318	0.00951
2127.94741	0.00943
2126.66164	0.00930
2125.37587	0.00922
2124.09010	0.00919
2122.80433	0.00914
2121.51856	0.00915
2120.23280	0.00949
2118.94703	0.01018
2117.66126	0.01081
2116.37549	0.01101
2115.08972	0.01089
2113.80395	0.01080
2112.51818	0.01069
2111.23241	0.01030
2109.94664	0.00961
2108.66088	0.00906
2107.37511	0.00907
2106.08934	0.00959
2104.80357	0.01029
2103.51780	0.01083
2102.23203	0.01102
2100.94626	0.01084
2099.66049	0.01052
2098.37473	0.00993
2097.08896	0.00919
2095.80319	0.00863
2094.51742	0.00862
2093.23165	0.00928
2091.94588	0.01023
2090.66011	0.01078
2089.37434	0.01060
2088.08857	0.01000
2086.80281	0.00953
2085.51704	0.00938
2084.23127	0.00934
2082.94550	0.00927
2081.65973	0.00926
2080.37396	0.00946
2079.08819	0.00972
2077.80242	0.00976
2076.51666	0.00947
2075.23089	0.00906
2073.94512	0.00883
2072.65935	0.00894
2071.37358	0.00928
2070.08781	0.00964
2068.80204	0.00982
2067.51627	0.00972
2066.23050	0.00938
2064.94474	0.00896
2063.65897	0.00868
2062.37320	0.00866
2061.08743	0.00878
2059.80166	0.00883
2058.51589	0.00873
2057.23012	0.00850
2055.94435	0.00821
2054.65859	0.00797
2053.37282	0.00801
2052.08705	0.00847
2050.80128	0.00913
2049.51551	0.00957
2048.22974	0.00952
2046.94397	0.00899
2045.65820	0.00810
2044.37243	0.00709
2043.08667	0.00634
2041.80090	0.00616
2040.51513	0.00650
2039.22936	0.00692
2037.94359	0.00699
2036.65782	0.00666
2035.37205	0.00633
2034.08628	0.00638
2032.80052	0.00668
2031.51475	0.00654
2030.22898	0.00543
2028.94321	0.00352
2027.65744	0.00165
2026.37167	0.00079
2025.08590	0.00144
2023.80013	0.00331
2022.51436	0.00542
2021.22860	0.00675
2019.94283	0.00695
2018.65706	0.00651
2017.37129	0.00618
2016.08552	0.00624
2014.79975	0.00646
2013.51398	0.00658
2012.22821	0.00667
2010.94245	0.00681
2009.65668	0.00677
2008.37091	0.00612
2007.08514	0.00497
2005.79937	0.00402
2004.51360	0.00384
2003.22783	0.00441
2001.94206	0.00525
2000.65629	0.00599
1999.37053	0.00658
1998.08476	0.00711
1996.79899	0.00756
1995.51322	0.00779
1994.22745	0.00763
1992.94168	0.00711
1991.65591	0.00656
1990.37014	0.00643
1989.08438	0.00700
1987.79861	0.00811
1986.51284	0.00916
1985.22707	0.00966
1983.94130	0.00967
1982.65553	0.00962
1981.36976	0.00968
1980.08399	0.00951
1978.79822	0.00878
1977.51246	0.00768
1976.22669	0.00669
1974.94092	0.00612
1973.65515	0.00601
1972.36938	0.00631
1971.08361	0.00694
1969.79784	0.00769
1968.51207	0.00827
1967.22631	0.00850
1965.94054	0.00835
1964.65477	0.00778
1963.36900	0.00687
1962.08323	0.00609
1960.79746	0.00602
1959.51169	0.00679
1958.22592	0.00780
1956.94015	0.00835
1955.65439	0.00837
1954.36862	0.00837
1953.08285	0.00870
1951.79708	0.00928
1950.51131	0.00974
1949.22554	0.00979
1947.93977	0.00937
1946.65400	0.00869
1945.36823	0.00812
1944.08247	0.00800
1942.79670	0.00836
1941.51093	0.00892
1940.22516	0.00935
1938.93939	0.00959
1937.65362	0.00977
1936.36785	0.00997
1935.08208	0.01016
1933.79632	0.01023
1932.51055	0.01011
1931.22478	0.00981
1929.93901	0.00947
1928.65324	0.00931
1927.36747	0.00943
1926.08170	0.00970
1924.79593	0.00993
1923.51016	0.01010
1922.22440	0.01036
1920.93863	0.01073
1919.65286	0.01102
1918.36709	0.01101
1917.08132	0.01065
1915.79555	0.01018
1914.50978	0.00993
1913.22401	0.01008
1911.93825	0.01042
1910.65248	0.01051
1909.36671	0.01018
1908.08094	0.00969
1906.79517	0.00945
1905.50940	0.00962
1904.22363	0.01005
1902.93786	0.01055
1901.65209	0.01099
1900.36633	0.01131
1899.08056	0.01147
1897.79479	0.01147
1896.50902	0.01132
1895.22325	0.01107
1893.93748	0.01076
1892.65171	0.01049
1891.36594	0.01034
1890.08018	0.01030
1888.79441	0.01030
1887.50864	0.01033
1886.22287	0.01042
1884.93710	0.01054
1883.65133	0.01063
1882.36556	0.01064
1881.07979	0.01060
1879.79402	0.01061
1878.50826	0.01077
1877.22249	0.01107
1875.93672	0.01137
1874.65095	0.01157
1873.36518	0.01163
1872.07941	0.01164
1870.79364	0.01162
1869.50787	0.01149
1868.22211	0.01121
1866.93634	0.01086
1865.65057	0.01061
1864.36480	0.01054
1863.07903	0.01064
1861.79326	0.01080
1860.50749	0.01099
1859.22172	0.01118
1857.93595	0.01137
1856.65019	0.01155
1855.36442	0.01164
1854.07865	0.01162
1852.79288	0.01148
1851.50711	0.01128
1850.22134	0.01112
1848.93557	0.01108
1847.64980	0.01112
1846.36404	0.01118
1845.07827	0.01121
1843.79250	0.01126
1842.50673	0.01134
1841.22096	0.01142
1839.93519	0.01148
1838.64942	0.01153
1837.36365	0.01156
1836.07788	0.01153
1834.79212	0.01143
1833.50635	0.01129
1832.22058	0.01122
1830.93481	0.01126
1829.64904	0.01139
1828.36327	0.01150
1827.07750	0.01151
1825.79173	0.01142
1824.50597	0.01130
1823.22020	0.01125
1821.93443	0.01131
1820.64866	0.01140
1819.36289	0.01137
1818.07712	0.01117
1816.79135	0.01095
1815.50558	0.01088
1814.21981	0.01104
1812.93405	0.01132
1811.64828	0.01157
1810.36251	0.01167
1809.07674	0.01164
1807.79097	0.01155
1806.50520	0.01149
1805.21943	0.01150
1803.93366	0.01158
1802.64790	0.01168
1801.36213	0.01172
1800.07636	0.01169
1798.79059	0.01165
1797.50482	0.01169
1796.21905	0.01186
1794.93328	0.01210
1793.64751	0.01226
1792.36174	0.01226
1791.07598	0.01214
1789.79021	0.01199
1788.50444	0.01190
1787.21867	0.01185
1785.93290	0.01182
1784.64713	0.01178
1783.36136	0.01177
1782.07559	0.01181
1780.78983	0.01189
1779.50406	0.01196
1778.21829	0.01204
1776.93252	0.01215
1775.64675	0.01231
1774.36098	0.01245
1773.07521	0.01247
1771.78944	0.01236
1770.50367	0.01223
1769.21791	0.01217
1767.93214	0.01220
1766.64637	0.01227
1765.36060	0.01233
1764.07483	0.01238
1762.78906	0.01243
1761.50329	0.01247
1760.21752	0.01250
1758.93176	0.01250
1757.64599	0.01245
1756.36022	0.01238
1755.07445	0.01233
1753.78868	0.01233
1752.50291	0.01236
1751.21714	0.01237
1749.93137	0.01234
1748.64560	0.01227
1747.35984	0.01225
1746.07407	0.01231
1744.78830	0.01239
1743.50253	0.01244
1742.21676	0.01241
1740.93099	0.01236
1739.64522	0.01232
1738.35945	0.01232
1737.07369	0.01237
1735.78792	0.01245
1734.50215	0.01257
1733.21638	0.01267
1731.93061	0.01275
1730.64484	0.01278
1729.35907	0.01278
1728.07330	0.01275
1726.78753	0.01270
1725.50177	0.01267
1724.21600	0.01266
1722.93023	0.01267
1721.64446	0.01278
1720.35869	0.01303
1719.07292	0.01339
1717.78715	0.01373
1716.50138	0.01393
1715.21561	0.01396
1713.92985	0.01391
1712.64408	0.01388
1711.35831	0.01391
1710.07254	0.01401
1708.78677	0.01415
1707.50100	0.01430
1706.21523	0.01446
1704.92946	0.01465
1703.64370	0.01490
1702.35793	0.01520
1701.07216	0.01550
1699.78639	0.01574
1698.50062	0.01589
1697.21485	0.01597
1695.92908	0.01600
1694.64331	0.01601
1693.35754	0.01605
1692.07178	0.01615
1690.78601	0.01629
1689.50024	0.01644
1688.21447	0.01658
1686.92870	0.01676
1685.64293	0.01694
1684.35716	0.01707
1683.07139	0.01710
1681.78563	0.01707
1680.49986	0.01709
1679.21409	0.01723
1677.92832	0.01747
1676.64255	0.01774
1675.35678	0.01798
1674.07101	0.01818
1672.78524	0.01838
1671.49947	0.01861
1670.21371	0.01884
1668.92794	0.01905
1667.64217	0.01922
1666.35640	0.01935
1665.07063	0.01947
1663.78486	0.01959
1662.49909	0.01971
1661.21332	0.01986
1659.92756	0.02005
1658.64179	0.02027
1657.35602	0.02049
1656.07025	0.02070
1654.78448	0.02086
1653.49871	0.02096
1652.21294	0.02096
1650.92717	0.02090
1649.64140	0.02085
1648.35564	0.02085
1647.06987	0.02088
1645.78410	0.02088
1644.49833	0.02083
1643.21256	0.02078
1641.92679	0.02075
1640.64102	0.02076
1639.35525	0.02078
1638.06949	0.02082
1636.78372	0.02086
1635.49795	0.02087
1634.21218	0.02082
1632.92641	0.02077
1631.64064	0.02077
1630.35487	0.02083
1629.06910	0.02089
1627.78333	0.02092
1626.49757	0.02090
1625.21180	0.02087
1623.92603	0.02081
1622.64026	0.02072
1621.35449	0.02058
1620.06872	0.02046
1618.78295	0.02038
1617.49718	0.02035
1616.21142	0.02034
1614.92565	0.02030
1613.63988	0.02027
1612.35411	0.02029
1611.06834	0.02039
1609.78257	0.02055
1608.49680	0.02071
1607.21103	0.02082
1605.92526	0.02087
1604.63950	0.02090
1603.35373	0.02091
1602.06796	0.02092
1600.78219	0.02093
1599.49642	0.02094
1598.21065	0.02099
1596.92488	0.02106
1595.63911	0.02115
1594.35335	0.02121
1593.06758	0.02126
1591.78181	0.02130
1590.49604	0.02138
1589.21027	0.02149
1587.92450	0.02166
1586.63873	0.02185
1585.35296	0.02207
1584.06719	0.02227
1582.78143	0.02246
1581.49566	0.02262
1580.20989	0.02280
1578.92412	0.02301
1577.63835	0.02326
1576.35258	0.02353
1575.06681	0.02378
1573.78104	0.02403
1572.49528	0.02432
1571.20951	0.02464
1569.92374	0.02495
1568.63797	0.02521
1567.35220	0.02539
1566.06643	0.02552
1564.78066	0.02567
1563.49489	0.02589
1562.20912	0.02622
1560.92336	0.02662
1559.63759	0.02702
1558.35182	0.02733
1557.06605	0.02752
1555.78028	0.02759
1554.49451	0.02763
1553.20874	0.02768
1551.92297	0.02777
1550.63721	0.02787
1549.35144	0.02795
1548.06567	0.02803
1546.77990	0.02813
1545.49413	0.02824
1544.20836	0.02832
1542.92259	0.02836
1541.63682	0.02833
1540.35105	0.02825
1539.06529	0.02808
1537.77952	0.02786
1536.49375	0.02764
1535.20798	0.02745
1533.92221	0.02730
1532.63644	0.02719
1531.35067	0.02712
1530.06490	0.02710
1528.77914	0.02713
1527.49337	0.02721
1526.20760	0.02731
1524.92183	0.02745
1523.63606	0.02763
1522.35029	0.02786
1521.06452	0.02812
1519.77875	0.02839
1518.49298	0.02866
1517.20722	0.02896
1515.92145	0.02928
1514.63568	0.02965
1513.34991	0.03006
1512.06414	0.03052
1510.77837	0.03105
1509.49260	0.03166
1508.20683	0.03231
1506.92107	0.03292
1505.63530	0.03341
1504.34953	0.03378
1503.06376	0.03413
1501.77799	0.03453
1500.49222	0.03500
1499.20645	0.03550
1497.92068	0.03597
1496.63491	0.03636
1495.34915	0.03668
1494.06338	0.03700
1492.77761	0.03734
1491.49184	0.03771
1490.20607	0.03807
1488.92030	0.03837
1487.63453	0.03864
1486.34876	0.03894
1485.06299	0.03931
1483.77723	0.03978
1482.49146	0.04030
1481.20569	0.04088
1479.91992	0.04149
1478.63415	0.04210
1477.34838	0.04266
1476.06261	0.04319
1474.77684	0.04373
1473.49108	0.04431
1472.20531	0.04491
1470.91954	0.04547
1469.63377	0.04596
1468.34800	0.04639
1467.06223	0.04680
1465.77646	0.04719
1464.49069	0.04759
1463.20492	0.04800
1461.91916	0.04840
1460.63339	0.04881
1459.34762	0.04922
1458.06185	0.04961
1456.77608	0.04994
1455.49031	0.05018
1454.20454	0.05034
1452.91877	0.05046
1451.63301	0.05058
1450.34724	0.05072
1449.06147	0.05085
1447.77570	0.05087
1446.48993	0.05077
1445.20416	0.05056
1443.91839	0.05033
1442.63262	0.05012
1441.34685	0.04995
1440.06109	0.04986
1438.77532	0.04981
1437.48955	0.04979
1436.20378	0.04973
1434.91801	0.04965
1433.63224	0.04964
1432.34647	0.04980
1431.06070	0.05019
1429.77494	0.05078
1428.48917	0.05147
1427.20340	0.05217
1425.91763	0.05281
1424.63186	0.05343
1423.34609	0.05405
1422.06032	0.05470
1420.77455	0.05539
1419.48878	0.05606
1418.20302	0.05664
1416.91725	0.05710
1415.63148	0.05742
1414.34571	0.05762
1413.05994	0.05774
1411.77417	0.05778
1410.48840	0.05776
1409.20263	0.05764
1407.91687	0.05742
1406.63110	0.05710
1405.34533	0.05668
1404.05956	0.05616
1402.77379	0.05554
1401.48802	0.05481
1400.20225	0.05401
1398.91648	0.05317
1397.63071	0.05232
1396.34495	0.05146
1395.05918	0.05053
1393.77341	0.04950
1392.48764	0.04837
1391.20187	0.04722
1389.91610	0.04613
1388.63033	0.04514
1387.34456	0.04424
1386.05880	0.04342
1384.77303	0.04266
1383.48726	0.04195
1382.20149	0.04128
1380.91572	0.04060
1379.62995	0.03990
1378.34418	0.03916
1377.05841	0.03837
1375.77264	0.03751
1374.48688	0.03656
1373.20111	0.03554
1371.91534	0.03448
1370.62957	0.03344
1369.34380	0.03250
1368.05803	0.03168
1366.77226	0.03096
1365.48649	0.03026
1364.20073	0.02955
1362.91496	0.02881
1361.62919	0.02809
1360.34342	0.02743
1359.05765	0.02681
1357.77188	0.02617
1356.48611	0.02553
1355.20034	0.02493
1353.91457	0.02441
1352.62881	0.02400
1351.34304	0.02367
1350.05727	0.02336
1348.77150	0.02303
1347.48573	0.02267
1346.19996	0.02232
1344.91419	0.02203
1343.62842	0.02178
1342.34266	0.02155
1341.05689	0.02131
1339.77112	0.02106
1338.48535	0.02085
1337.19958	0.02068
1335.91381	0.02054
1334.62804	0.02038
1333.34227	0.02020
1332.05650	0.02001
1330.77074	0.01983
1329.48497	0.01964
1328.19920	0.01945
1326.91343	0.01926
1325.62766	0.01909
1324.34189	0.01892
1323.05612	0.01877
1321.77035	0.01865
1320.48459	0.01855
1319.19882	0.01845
1317.91305	0.01832
1316.62728	0.01816
1315.34151	0.01800
1314.05574	0.01788
1312.76997	0.01783
1311.48420	0.01782
1310.19843	0.01781
1308.91267	0.01776
1307.62690	0.01766
1306.34113	0.01753
1305.05536	0.01740
1303.76959	0.01728
1302.48382	0.01717
1301.19805	0.01707
1299.91228	0.01698
1298.62652	0.01690
1297.34075	0.01681
1296.05498	0.01667
1294.76921	0.01650
1293.48344	0.01632
1292.19767	0.01619
1290.91190	0.01611
1289.62613	0.01608
1288.34036	0.01608
1287.05460	0.01607
1285.76883	0.01605
1284.48306	0.01599
1283.19729	0.01590
1281.91152	0.01580
1280.62575	0.01569
1279.33998	0.01557
1278.05421	0.01545
1276.76845	0.01533
1275.48268	0.01519
1274.19691	0.01504
1272.91114	0.01487
1271.62537	0.01475
1270.33960	0.01470
1269.05383	0.01468
1267.76806	0.01466
1266.48229	0.01460
1265.19653	0.01450
1263.91076	0.01439
1262.62499	0.01431
1261.33922	0.01424
1260.05345	0.01418
1258.76768	0.01410
1257.48191	0.01402
1256.19614	0.01397
1254.91037	0.01400
1253.62461	0.01408
1252.33884	0.01414
1251.05307	0.01411
1249.76730	0.01400
1248.48153	0.01384
1247.19576	0.01367
1245.90999	0.01352
1244.62422	0.01338
1243.33846	0.01329
1242.05269	0.01325
1240.76692	0.01325
1239.48115	0.01324
1238.19538	0.01317
1236.90961	0.01306
1235.62384	0.01294
1234.33807	0.01287
1233.05230	0.01283
1231.76654	0.01280
1230.48077	0.01273
1229.19500	0.01264
1227.90923	0.01253
1226.62346	0.01245
1225.33769	0.01239
1224.05192	0.01234
1222.76615	0.01230
1221.48039	0.01227
1220.19462	0.01221
1218.90885	0.01210
1217.62308	0.01195
1216.33731	0.01179
1215.05154	0.01169
1213.76577	0.01167
1212.48000	0.01170
1211.19423	0.01174
1209.90847	0.01176
1208.62270	0.01174
1207.33693	0.01169
1206.05116	0.01160
1204.76539	0.01150
1203.47962	0.01142
1202.19385	0.01139
1200.90808	0.01140
1199.62232	0.01138
1198.33655	0.01134
1197.05078	0.01127
1195.76501	0.01119
1194.47924	0.01115
1193.19347	0.01112
1191.90770	0.01110
1190.62193	0.01106
1189.33616	0.01099
1188.05040	0.01091
1186.76463	0.01086
1185.47886	0.01086
1184.19309	0.01089
1182.90732	0.01091
1181.62155	0.01089
1180.33578	0.01083
1179.05001	0.01079
1177.76425	0.01080
1176.47848	0.01087
1175.19271	0.01098
1173.90694	0.01108
1172.62117	0.01112
1171.33540	0.01109
1170.04963	0.01103
1168.76386	0.01102
1167.47809	0.01108
1166.19233	0.01122
1164.90656	0.01138
1163.62079	0.01153
1162.33502	0.01161
1161.04925	0.01160
1159.76348	0.01155
1158.47771	0.01156
1157.19194	0.01166
1155.90618	0.01181
1154.62041	0.01195
1153.33464	0.01208
1152.04887	0.01224
1150.76310	0.01250
1149.47733	0.01286
1148.19156	0.01324
1146.90579	0.01358
1145.62002	0.01386
1144.33426	0.01410
1143.04849	0.01436
1141.76272	0.01469
1140.47695	0.01510
1139.19118	0.01561
1137.90541	0.01621
1136.61964	0.01692
1135.33387	0.01770
1134.04811	0.01851
1132.76234	0.01932
1131.47657	0.02015
1130.19080	0.02107
1128.90503	0.02214
1127.61926	0.02340
1126.33349	0.02483
1125.04772	0.02643
1123.76195	0.02816
1122.47619	0.03001
1121.19042	0.03191
1119.90465	0.03381
1118.61888	0.03568
1117.33311	0.03754
1116.04734	0.03945
1114.76157	0.04143
1113.47580	0.04343
1112.19004	0.04538
1110.90427	0.04725
1109.61850	0.04904
1108.33273	0.05071
1107.04696	0.05226
1105.76119	0.05365
1104.47542	0.05492
1103.18965	0.05614
1101.90388	0.05733
1100.61812	0.05853
1099.33235	0.05970
1098.04658	0.06086
1096.76081	0.06197
1095.47504	0.06303
1094.18927	0.06399
1092.90350	0.06486
1091.61773	0.06568
1090.33197	0.06650
1089.04620	0.06730
1087.76043	0.06806
1086.47466	0.06880
1085.18889	0.06959
1083.90312	0.07048
1082.61735	0.07144
1081.33158	0.07243
1080.04581	0.07344
1078.76005	0.07447
1077.47428	0.07553
1076.18851	0.07663
1074.90274	0.07778
1073.61697	0.07900
1072.33120	0.08033
1071.04543	0.08173
1069.75966	0.08318
1068.47390	0.08464
1067.18813	0.08610
1065.90236	0.08758
1064.61659	0.08910
1063.33082	0.09062
1062.04505	0.09213
1060.75928	0.09364
1059.47351	0.09519
1058.18774	0.09679
1056.90198	0.09839
1055.61621	0.09993
1054.33044	0.10140
1053.04467	0.10283
1051.75890	0.10428
1050.47313	0.10577
1049.18736	0.10730
1047.90159	0.10890
1046.61583	0.11057
1045.33006	0.11228
1044.04429	0.11396
1042.75852	0.11561
1041.47275	0.11726
1040.18698	0.11900
1038.90121	0.12085
1037.61544	0.12274
1036.32967	0.12459
1035.04391	0.12631
1033.75814	0.12790
1032.47237	0.12934
1031.18660	0.13063
1029.90083	0.13177
1028.61506	0.13274
1027.32929	0.13356
1026.04352	0.13422
1024.75775	0.13476
1023.47199	0.13518
1022.18622	0.13548
1020.90045	0.13564
1019.61468	0.13561
1018.32891	0.13536
1017.04314	0.13488
1015.75737	0.13416
1014.47160	0.13323
1013.18584	0.13208
1011.90007	0.13068
1010.61430	0.12905
1009.32853	0.12727
1008.04276	0.12536
1006.75699	0.12329
1005.47122	0.12100
1004.18545	0.11851
1002.89968	0.11589
1001.61392	0.11320
1000.32815	0.11046
999.04238	0.10763
997.75661	0.10470
996.47084	0.10163
995.18507	0.09845
993.89930	0.09523
992.61353	0.09210
991.32777	0.08907
990.04200	0.08610
988.75623	0.08313
987.47046	0.08020
986.18469	0.07744
984.89892	0.07489
983.61315	0.07252
982.32738	0.07024
981.04161	0.06803
979.75585	0.06590
978.47008	0.06389
977.18431	0.06205
975.89854	0.06043
974.61277	0.05906
973.32700	0.05790
972.04123	0.05689
970.75546	0.05602
969.46970	0.05540
968.18393	0.05516
966.89816	0.05533
965.61239	0.05579
964.32662	0.05634
963.04085	0.05683
961.75508	0.05716
960.46931	0.05724
959.18354	0.05704
957.89778	0.05653
956.61201	0.05573
955.32624	0.05471
954.04047	0.05356
952.75470	0.05235
951.46893	0.05115
950.18316	0.04999
948.89739	0.04888
947.61163	0.04781
946.32586	0.04674
945.04009	0.04563
943.75432	0.04448
942.46855	0.04335
941.18278	0.04231
939.89701	0.04141
938.61124	0.04065
937.32547	0.03995
936.03971	0.03928
934.75394	0.03867
933.46817	0.03814
932.18240	0.03763
930.89663	0.03706
929.61086	0.03642
928.32509	0.03575
927.03932	0.03511
925.75356	0.03455
924.46779	0.03408
923.18202	0.03369
921.89625	0.03330
920.61048	0.03290
919.32471	0.03247
918.03894	0.03208
916.75317	0.03176
915.46740	0.03150
914.18164	0.03129
912.89587	0.03107
911.61010	0.03083
910.32433	0.03056
909.03856	0.03027
907.75279	0.02997
906.46702	0.02969
905.18125	0.02941
903.89549	0.02912
902.60972	0.02882
901.32395	0.02853
900.03818	0.02832
898.75241	0.02822
897.46664	0.02822
896.18087	0.02823
894.89510	0.02815
893.60933	0.02793
892.32357	0.02768
891.03780	0.02755
889.75203	0.02763
888.46626	0.02786
887.18049	0.02817
885.89472	0.02856
884.60895	0.02920
883.32318	0.03021
882.03742	0.03156
880.75165	0.03299
879.46588	0.03424
878.18011	0.03521
876.89434	0.03603
875.60857	0.03685
874.32280	0.03769
873.03703	0.03838
871.75126	0.03872
870.46550	0.03864
869.17973	0.03818
867.89396	0.03740
866.60819	0.03636
865.32242	0.03516
864.03665	0.03392
862.75088	0.03278
861.46511	0.03182
860.17935	0.03102
858.89358	0.03032
857.60781	0.02969
856.32204	0.02913
855.03627	0.02864
853.75050	0.02823
852.46473	0.02786
851.17896	0.02752
849.89319	0.02718
848.60743	0.02687
847.32166	0.02658
846.03589	0.02633
844.75012	0.02610
843.46435	0.02589
842.17858	0.02567
840.89281	0.02543
839.60704	0.02519
838.32128	0.02501
837.03551	0.02490
835.74974	0.02480
834.46397	0.02467
833.17820	0.02452
831.89243	0.02441
830.60666	0.02436
829.32089	0.02430
828.03512	0.02418
826.74936	0.02404
825.46359	0.02394
824.17782	0.02388
822.89205	0.02380
821.60628	0.02366
820.32051	0.02349
819.03474	0.02337
817.74897	0.02330
816.46321	0.02326
815.17744	0.02318
813.89167	0.02306
812.60590	0.02296
811.32013	0.02293
810.03436	0.02297
808.74859	0.02302
807.46282	0.02302
806.17705	0.02298
804.89129	0.02295
803.60552	0.02293
802.31975	0.02289
801.03398	0.02283
799.74821	0.02276
798.46244	0.02268
797.17667	0.02257
795.89090	0.02247
794.60513	0.02244
793.31937	0.02253
792.03360	0.02263
790.74783	0.02265
789.46206	0.02253
788.17629	0.02237
786.89052	0.02226
785.60475	0.02222
784.31898	0.02219
783.03322	0.02214
781.74745	0.02210
780.46168	0.02205
779.17591	0.02196
777.89014	0.02179
776.60437	0.02160
775.31860	0.02149
774.03283	0.02148
772.74706	0.02150
771.46130	0.02154
770.17553	0.02158
768.88976	0.02161
767.60399	0.02157
766.31822	0.02144
765.03245	0.02130
763.74668	0.02124
762.46091	0.02127
761.17515	0.02136
759.88938	0.02144
758.60361	0.02148
757.31784	0.02149
756.03207	0.02148
754.74630	0.02148
753.46053	0.02147
752.17476	0.02143
750.88899	0.02140
749.60323	0.02140
748.31746	0.02143
747.03169	0.02147
745.74592	0.02154
744.46015	0.02171
743.17438	0.02197
741.88861	0.02218
740.60284	0.02220
739.31708	0.02196
738.03131	0.02162
736.74554	0.02140
735.45977	0.02137
734.17400	0.02138
732.88823	0.02133
731.60246	0.02122
730.31669	0.02116
729.03092	0.02117
727.74516	0.02121
726.45939	0.02123
725.17362	0.02119
723.88785	0.02100
722.60208	0.02089
721.31631	0.02101
720.03054	0.02116
718.74477	0.02116
717.45901	0.02115
716.17324	0.02110
714.88747	0.02097
713.60170	0.02081
712.31593	0.02068
711.03016	0.02059
709.74439	0.02052
708.45862	0.02046
707.17285	0.02041
705.88709	0.02036
704.60132	0.02031
703.31555	0.02026
702.02978	0.02020
700.74401	0.02014
699.45824	0.02006
698.17247	0.01997
696.88670	0.01986
695.60094	0.01974
694.31517	0.01962
693.02940	0.01952
691.74363	0.01943
690.45786	0.01931
689.17209	0.01914
687.88632	0.01894
686.60055	0.01873
685.31478	0.01856
684.02902	0.01844
682.74325	0.01836
681.45748	0.01834
680.17171	0.01836
678.88594	0.01842
677.60017	0.01850
676.31440	0.01860
675.02863	0.01865
673.74287	0.01844
672.45710	0.01780
671.17133	0.01719
669.88556	0.01805
668.59979	0.02020
667.31402	0.01974
666.02825	0.01756
664.74248	0.01716
663.45671	0.01786
662.17095	0.01835
660.88518	0.01844
659.59941	0.01830
658.31364	0.01805
657.02787	0.01782
655.74210	0.01765
654.45633	0.01754
653.17056	0.01748
651.88480	0.01746
650.59903	0.01752
649.31326	0.01765
648.02749	0.01778
646.74172	0.01787
645.45595	0.01796
644.17018	0.01801
642.88441	0.01809
641.59864	0.01822
640.31288	0.01841
639.02711	0.01862
637.74134	0.01880
636.45557	0.01892
635.16980	0.01901
633.88403	0.01908
632.59826	0.01920
631.31249	0.01944
630.02673	0.01988
628.74096	0.02039
627.45519	0.02080
626.16942	0.02151
624.88365	0.02217
623.59788	0.02272
622.31211	0.02394
621.02634	0.02649
619.74057	0.02960
618.45481	0.03177
617.16904	0.03252
615.88327	0.03278
614.59750	0.03358
613.31173	0.03528
612.02596	0.03781
610.74019	0.04106
609.45442	0.04463
608.16866	0.04780
606.88289	0.05016
605.59712	0.05184
604.31135	0.05315
603.02558	0.05414
601.73981	0.05473
600.45404	0.05474
599.16827	0.05404
597.88250	0.05269
596.59674	0.05099
595.31097	0.04930
594.02520	0.04782
592.73943	0.04655
591.45366	0.04548
590.16789	0.04473
588.88212	0.04443
587.59635	0.04461
586.31059	0.04519
585.02482	0.04603
583.73905	0.04709
582.45328	0.04831
581.16751	0.04960
579.88174	0.05087
578.59597	0.05214
577.31020	0.05346
576.02443	0.05485
574.73867	0.05625
573.45290	0.05756
572.16713	0.05877
570.88136	0.06000
569.59559	0.06151
568.30982	0.06348
567.02405	0.06590
565.73828	0.06847
564.45251	0.07073
563.16675	0.07227
561.88098	0.07289
560.59521	0.07257
559.30944	0.07134
558.02367	0.06927
556.73790	0.06652
555.45213	0.06335
554.16636	0.06001
552.88060	0.05671
551.59483	0.05363
550.30906	0.05087
549.02329	0.04839
547.73752	0.04609
546.45175	0.04393
545.16598	0.04194
543.88021	0.04012
542.59444	0.03848
541.30868	0.03700
540.02291	0.03568
538.73714	0.03452
537.45137	0.03347
536.16560	0.03252
534.87983	0.03169
533.59406	0.03100
532.30829	0.03036
531.02253	0.02969
529.73676	0.02894
528.45099	0.02818
527.16522	0.02748
525.87945	0.02687
524.59368	0.02632
523.30791	0.02583
522.02214	0.02536
520.73637	0.02494
519.45061	0.02454
518.16484	0.02417
516.87907	0.02377
515.59330	0.02333
514.30753	0.02285
513.02176	0.02239
511.73599	0.02199
510.45022	0.02164
509.16446	0.02133
507.87869	0.02104
506.59292	0.02073
505.30715	0.02037
504.02138	0.01997
502.73561	0.01958
501.44984	0.01928
500.16407	0.01912
498.87830	0.01904
497.59254	0.01895
496.30677	0.01877
495.02100	0.01852
493.73523	0.01829
492.44946	0.01813
491.16369	0.01803
489.87792	0.01794
488.59215	0.01782
487.30639	0.01770
486.02062	0.01764
484.73485	0.01766
483.44908	0.01773
482.16331	0.01786
480.87754	0.01803
479.59177	0.01821
478.30600	0.01836
477.02023	0.01847
475.73447	0.01857
474.44870	0.01872
473.16293	0.01888
471.87716	0.01897
470.59139	0.01897
469.30562	0.01891
468.01985	0.01882
466.73408	0.01872
465.44832	0.01857
464.16255	0.01838
462.87678	0.01818
461.59101	0.01799
460.30524	0.01781
459.01947	0.01769
457.73370	0.01762
456.44793	0.01757
455.16216	0.01745
453.87640	0.01726
452.59063	0.01702
451.30486	0.01680
450.01909	0.01661
448.73332	0.01647
447.44755	0.01637
446.16178	0.01628
444.87601	0.01620
443.59025	0.01612
442.30448	0.01606
441.01871	0.01600
439.73294	0.01591
438.44717	0.01581
437.16140	0.01569
435.87563	0.01556
434.58986	0.01544
433.30409	0.01537
432.01833	0.01535
430.73256	0.01538
429.44679	0.01544
428.16102	0.01550
426.87525	0.01550
425.58948	0.01545
424.30371	0.01535
423.01794	0.01524
421.73218	0.01512
420.44641	0.01503
419.16064	0.01498
417.87487	0.01499
416.58910	0.01502
415.30333	0.01500
414.01756	0.01492
412.73179	0.01479
411.44602	0.01466
410.16026	0.01455
408.87449	0.01450
407.58872	0.01450
406.30295	0.01455
405.01718	0.01463
403.73141	0.01472
402.44564	0.01478
401.15987	0.01483
399.87411	0.01490
