3997.45528	0.03419
3996.16951	0.03402
3994.88374	0.03371
3993.59798	0.03342
3992.31221	0.03342
3991.02644	0.03378
3989.74067	0.03426
3988.45490	0.03459
3987.16913	0.03469
3985.88336	0.03459
3984.59759	0.03425
3983.31183	0.03367
3982.02606	0.03302
3980.74029	0.03267
3979.45452	0.03286
3978.16875	0.03351
3976.88298	0.03428
3975.59721	0.03487
3974.31144	0.03517
3973.02567	0.03526
3971.73991	0.03523
3970.45414	0.03507
3969.16837	0.03473
3967.88260	0.03425
3966.59683	0.03377
3965.31106	0.03340
3964.02529	0.03320
3962.73952	0.03317
3961.45376	0.03328
3960.16799	0.03341
3958.88222	0.03332
3957.59645	0.03290
3956.31068	0.03233
3955.02491	0.03203
3953.73914	0.03226
3952.45337	0.03285
3951.16760	0.03335
3949.88184	0.03343
3948.59607	0.03310
3947.31030	0.03266
3946.02453	0.03234
3944.73876	0.03213
3943.45299	0.03191
3942.16722	0.03161
3940.88145	0.03126
3939.59569	0.03088
3938.30992	0.03060
3937.02415	0.03057
3935.73838	0.03085
3934.45261	0.03130
3933.16684	0.03169
3931.88107	0.03182
3930.59530	0.03178
3929.30953	0.03189
3928.02377	0.03243
3926.73800	0.03315
3925.45223	0.03349
3924.16646	0.03317
3922.88069	0.03250
3921.59492	0.03199
3920.30915	0.03181
3919.02338	0.03174
3917.73762	0.03153
3916.45185	0.03122
3915.16608	0.03107
3913.88031	0.03124
3912.59454	0.03164
3911.30877	0.03199
3910.02300	0.03215
3908.73723	0.03220
3907.45146	0.03218
3906.16570	0.03201
3904.87993	0.03166
3903.59416	0.03135
3902.30839	0.03138
3901.02262	0.03179
3899.73685	0.03229
3898.45108	0.03248
3897.16531	0.03218
3895.87955	0.03163
3894.59378	0.03127
3893.30801	0.03133
3892.02224	0.03169
3890.73647	0.03209
3889.45070	0.03228
3888.16493	0.03209
3886.87916	0.03172
3885.59339	0.03167
3884.30763	0.03219
3883.02186	0.03289
3881.73609	0.03319
3880.45032	0.03295
3879.16455	0.03236
3877.87878	0.03164
3876.59301	0.03093
3875.30724	0.03056
3874.02148	0.03085
3872.73571	0.03164
3871.44994	0.03232
3870.16417	0.03248
3868.87840	0.03212
3867.59263	0.03149
3866.30686	0.03086
3865.02109	0.03047
3863.73532	0.03027
3862.44956	0.03004
3861.16379	0.02972
3859.87802	0.02952
3858.59225	0.02959
3857.30648	0.02984
3856.02071	0.03009
3854.73494	0.03036
3853.44917	0.03086
3852.16341	0.03163
3850.87764	0.03239
3849.59187	0.03275
3848.30610	0.03255
3847.02033	0.03192
3845.73456	0.03121
3844.44879	0.03073
3843.16302	0.03049
3841.87725	0.03025
3840.59149	0.02981
3839.30572	0.02930
3838.01995	0.02914
3836.73418	0.02953
3835.44841	0.03019
3834.16264	0.03066
3832.87687	0.03080
3831.59110	0.03080
3830.30534	0.03085
3829.01957	0.03102
3827.73380	0.03127
3826.44803	0.03154
3825.16226	0.03166
3823.87649	0.03152
3822.59072	0.03131
3821.30495	0.03143
3820.01918	0.03194
3818.73342	0.03243
3817.44765	0.03253
3816.16188	0.03235
3814.87611	0.03219
3813.59034	0.03205
3812.30457	0.03189
3811.01880	0.03170
3809.73303	0.03138
3808.44726	0.03086
3807.16150	0.03047
3805.87573	0.03061
3804.58996	0.03113
3803.30419	0.03149
3802.01842	0.03144
3800.73265	0.03125
3799.44688	0.03116
3798.16111	0.03124
3796.87535	0.03139
3795.58958	0.03153
3794.30381	0.03152
3793.01804	0.03139
3791.73227	0.03115
3790.44650	0.03078
3789.16073	0.03026
3787.87496	0.02976
3786.58919	0.02947
3785.30343	0.02939
3784.01766	0.02952
3782.73189	0.02992
3781.44612	0.03054
3780.16035	0.03113
3778.87458	0.03136
3777.58881	0.03111
3776.30304	0.03060
3775.01728	0.03015
3773.73151	0.02986
3772.44574	0.02962
3771.15997	0.02939
3769.87420	0.02929
3768.58843	0.02945
3767.30266	0.02973
3766.01689	0.02990
3764.73112	0.02984
3763.44536	0.02960
3762.15959	0.02936
3760.87382	0.02922
3759.58805	0.02905
3758.30228	0.02866
3757.01651	0.02813
3755.73074	0.02781
3754.44497	0.02792
3753.15921	0.02840
3751.87344	0.02914
3750.58767	0.02996
3749.30190	0.03057
3748.01613	0.03054
3746.73036	0.02952
3745.44459	0.02791
3744.15882	0.02684
3742.87305	0.02690
3741.58729	0.02767
3740.30152	0.02844
3739.01575	0.02892
3737.72998	0.02917
3736.44421	0.02944
3735.15844	0.02989
3733.87267	0.03039
3732.58690	0.03069
3731.30114	0.03064
3730.01537	0.03014
3728.72960	0.02928
3727.44383	0.02845
3726.15806	0.02802
3724.87229	0.02791
3723.58652	0.02778
3722.30075	0.02752
3721.01498	0.02735
3719.72922	0.02749
3718.44345	0.02793
3717.15768	0.02846
3715.87191	0.02875
3714.58614	0.02861
3713.30037	0.02817
3712.01460	0.02784
3710.72883	0.02795
3709.44307	0.02847
3708.15730	0.02909
3706.87153	0.02940
3705.58576	0.02920
3704.29999	0.02865
3703.01422	0.02815
3701.72845	0.02790
3700.44268	0.02776
3699.15691	0.02747
3697.87115	0.02702
3696.58538	0.02665
3695.29961	0.02661
3694.01384	0.02684
3692.72807	0.02703
3691.44230	0.02700
3690.15653	0.02675
3688.87076	0.02652
3687.58500	0.02661
3686.29923	0.02707
3685.01346	0.02762
3683.72769	0.02806
3682.44192	0.02837
3681.15615	0.02855
3679.87038	0.02850
3678.58461	0.02816
3677.29884	0.02772
3676.01308	0.02764
3674.72731	0.02814
3673.44154	0.02873
3672.15577	0.02887
3670.87000	0.02869
3669.58423	0.02852
3668.29846	0.02823
3667.01269	0.02757
3665.72693	0.02680
3664.44116	0.02649
3663.15539	0.02689
3661.86962	0.02780
3660.58385	0.02876
3659.29808	0.02933
3658.01231	0.02928
3656.72654	0.02875
3655.44077	0.02816
3654.15501	0.02776
3652.86924	0.02757
3651.58347	0.02755
3650.29770	0.02774
3649.01193	0.02814
3647.72616	0.02856
3646.44039	0.02868
3645.15462	0.02830
3643.86886	0.02755
3642.58309	0.02690
3641.29732	0.02678
3640.01155	0.02726
3638.72578	0.02800
3637.44001	0.02858
3636.15424	0.02874
3634.86847	0.02849
3633.58270	0.02804
3632.29694	0.02768
3631.01117	0.02757
3629.72540	0.02785
3628.43963	0.02847
3627.15386	0.02912
3625.86809	0.02946
3624.58232	0.02950
3623.29655	0.02952
3622.01079	0.02959
3620.72502	0.02961
3619.43925	0.02957
3618.15348	0.02954
3616.86771	0.02941
3615.58194	0.02902
3614.29617	0.02854
3613.01040	0.02838
3611.72463	0.02883
3610.43887	0.02972
3609.15310	0.03067
3607.86733	0.03142
3606.58156	0.03185
3605.29579	0.03204
3604.01002	0.03214
3602.72425	0.03227
3601.43848	0.03232
3600.15272	0.03204
3598.86695	0.03123
3597.58118	0.03003
3596.29541	0.02887
3595.00964	0.02824
3593.72387	0.02836
3592.43810	0.02912
3591.15233	0.03017
3589.86656	0.03118
3588.58080	0.03189
3587.29503	0.03205
3586.00926	0.03160
3584.72349	0.03078
3583.43772	0.03004
3582.15195	0.02977
3580.86618	0.03015
3579.58041	0.03101
3578.29464	0.03197
3577.00888	0.03256
3575.72311	0.03257
3574.43734	0.03220
3573.15157	0.03195
3571.86580	0.03213
3570.58003	0.03257
3569.29426	0.03289
3568.00849	0.03300
3566.72273	0.03299
3565.43696	0.03287
3564.15119	0.03247
3562.86542	0.03186
3561.57965	0.03145
3560.29388	0.03162
3559.00811	0.03236
3557.72234	0.03329
3556.43657	0.03393
3555.15081	0.03407
3553.86504	0.03378
3552.57927	0.03341
3551.29350	0.03322
3550.00773	0.03320
3548.72196	0.03322
3547.43619	0.03330
3546.15042	0.03356
3544.86466	0.03393
3543.57889	0.03415
3542.29312	0.03412
3541.00735	0.03407
3539.72158	0.03423
3538.43581	0.03459
3537.15004	0.03492
3535.86427	0.03515
3534.57850	0.03539
3533.29274	0.03571
3532.00697	0.03594
3530.72120	0.03592
3529.43543	0.03574
3528.14966	0.03573
3526.86389	0.03605
3525.57812	0.03650
3524.29235	0.03677
3523.00659	0.03679
3521.72082	0.03671
3520.43505	0.03665
3519.14928	0.03648
3517.86351	0.03602
3516.57774	0.03532
3515.29197	0.03476
3514.00620	0.03478
3512.72043	0.03547
3511.43467	0.03634
3510.14890	0.03673
3508.86313	0.03645
3507.57736	0.03591
3506.29159	0.03572
3505.00582	0.03604
3503.72005	0.03659
3502.43428	0.03687
3501.14852	0.03664
3499.86275	0.03607
3498.57698	0.03568
3497.29121	0.03590
3496.00544	0.03669
3494.71967	0.03757
3493.43390	0.03802
3492.14813	0.03786
3490.86236	0.03740
3489.57660	0.03709
3488.29083	0.03710
3487.00506	0.03728
3485.71929	0.03745
3484.43352	0.03760
3483.14775	0.03784
3481.86198	0.03811
3480.57621	0.03824
3479.29045	0.03814
3478.00468	0.03786
3476.71891	0.03755
3475.43314	0.03740
3474.14737	0.03756
3472.86160	0.03795
3471.57583	0.03829
3470.29006	0.03839
3469.00429	0.03834
3467.71853	0.03838
3466.43276	0.03863
3465.14699	0.03896
3463.86122	0.03910
3462.57545	0.03898
3461.28968	0.03874
3460.00391	0.03864
3458.71814	0.03879
3457.43238	0.03911
3456.14661	0.03939
3454.86084	0.03951
3453.57507	0.03962
3452.28930	0.03995
3451.00353	0.04058
3449.71776	0.04125
3448.43199	0.04158
3447.14622	0.04146
3445.86046	0.04103
3444.57469	0.04056
3443.28892	0.04017
3442.00315	0.03994
3440.71738	0.03989
3439.43161	0.04004
3438.14584	0.04028
3436.86007	0.04048
3435.57431	0.04057
3434.28854	0.04054
3433.00277	0.04041
3431.71700	0.04010
3430.43123	0.03970
3429.14546	0.03947
3427.85969	0.03962
3426.57392	0.04010
3425.28815	0.04059
3424.00239	0.04076
3422.71662	0.04052
3421.43085	0.04005
3420.14508	0.03966
3418.85931	0.03954
3417.57354	0.03964
3416.28777	0.03974
3415.00200	0.03975
3413.71624	0.03979
3412.43047	0.03996
3411.14470	0.04017
3409.85893	0.04023
3408.57316	0.04013
3407.28739	0.04018
3406.00162	0.04067
3404.71585	0.04155
3403.43008	0.04243
3402.14432	0.04292
3400.85855	0.04293
3399.57278	0.04263
3398.28701	0.04223
3397.00124	0.04187
3395.71547	0.04171
3394.42970	0.04186
3393.14393	0.04227
3391.85817	0.04263
3390.57240	0.04259
3389.28663	0.04208
3388.00086	0.04139
3386.71509	0.04099
3385.42932	0.04115
3384.14355	0.04172
3382.85778	0.04233
3381.57201	0.04267
3380.28625	0.04266
3379.00048	0.04239
3377.71471	0.04204
3376.42894	0.04175
3375.14317	0.04159
3373.85740	0.04157
3372.57163	0.04165
3371.28586	0.04180
3370.00010	0.04205
3368.71433	0.04237
3367.42856	0.04272
3366.14279	0.04299
3364.85702	0.04311
3363.57125	0.04305
3362.28548	0.04280
3360.99971	0.04240
3359.71394	0.04197
3358.42818	0.04170
3357.14241	0.04180
3355.85664	0.04231
3354.57087	0.04297
3353.28510	0.04341
3351.99933	0.04341
3350.71356	0.04310
3349.42779	0.04277
3348.14202	0.04262
3346.85626	0.04263
3345.57049	0.04272
3344.28472	0.04279
3342.99895	0.04283
3341.71318	0.04281
3340.42741	0.04271
3339.14164	0.04257
3337.85587	0.04248
3336.57011	0.04253
3335.28434	0.04274
3333.99857	0.04303
3332.71280	0.04330
3331.42703	0.04353
3330.14126	0.04368
3328.85549	0.04363
3327.56972	0.04331
3326.28395	0.04284
3324.99819	0.04258
3323.71242	0.04270
3322.42665	0.04308
3321.14088	0.04339
3319.85511	0.04343
3318.56934	0.04332
3317.28357	0.04325
3315.99780	0.04335
3314.71204	0.04355
3313.42627	0.04372
3312.14050	0.04382
3310.85473	0.04394
3309.56896	0.04409
3308.28319	0.04421
3306.99742	0.04420
3305.71165	0.04401
3304.42588	0.04371
3303.14012	0.04335
3301.85435	0.04301
3300.56858	0.04282
3299.28281	0.04288
3297.99704	0.04310
3296.71127	0.04330
3295.42550	0.04334
3294.13973	0.04333
3292.85397	0.04339
3291.56820	0.04352
3290.28243	0.04360
3288.99666	0.04360
3287.71089	0.04363
3286.42512	0.04368
3285.13935	0.04357
3283.85358	0.04316
3282.56781	0.04259
3281.28205	0.04220
3279.99628	0.04226
3278.71051	0.04274
3277.42474	0.04334
3276.13897	0.04373
3274.85320	0.04379
3273.56743	0.04363
3272.28166	0.04341
3270.99590	0.04319
3269.71013	0.04299
3268.42436	0.04288
3267.13859	0.04289
3265.85282	0.04290
3264.56705	0.04271
3263.28128	0.04226
3261.99551	0.04173
3260.70974	0.04139
3259.42398	0.04144
3258.13821	0.04191
3256.85244	0.04257
3255.56667	0.04309
3254.28090	0.04322
3252.99513	0.04299
3251.70936	0.04257
3250.42359	0.04209
3249.13783	0.04161
3247.85206	0.04120
3246.56629	0.04098
3245.28052	0.04100
3243.99475	0.04117
3242.70898	0.04139
3241.42321	0.04157
3240.13744	0.04166
3238.85167	0.04161
3237.56591	0.04147
3236.28014	0.04135
3234.99437	0.04130
3233.70860	0.04120
3232.42283	0.04101
3231.13706	0.04083
3229.85129	0.04081
3228.56552	0.04097
3227.27976	0.04117
3225.99399	0.04135
3224.70822	0.04150
3223.42245	0.04164
3222.13668	0.04173
3220.85091	0.04171
3219.56514	0.04151
3218.27937	0.04109
3216.99360	0.04056
3215.70784	0.04013
3214.42207	0.03993
3213.13630	0.03991
3211.85053	0.03996
3210.56476	0.04006
3209.27899	0.04027
3207.99322	0.04059
3206.70745	0.04085
3205.42169	0.04087
3204.13592	0.04066
3202.85015	0.04042
3201.56438	0.04042
3200.27861	0.04069
3198.99284	0.04097
3197.70707	0.04097
3196.42130	0.04069
3195.13553	0.04037
3193.84977	0.04020
3192.56400	0.04014
3191.27823	0.04004
3189.99246	0.03989
3188.70669	0.03983
3187.42092	0.03996
3186.13515	0.04014
3184.84938	0.04012
3183.56362	0.03983
3182.27785	0.03947
3180.99208	0.03929
3179.70631	0.03939
3178.42054	0.03962
3177.13477	0.03968
3175.84900	0.03935
3174.56323	0.03873
3173.27746	0.03820
3171.99170	0.03808
3170.70593	0.03832
3169.42016	0.03863
3168.13439	0.03874
3166.84862	0.03864
3165.56285	0.03842
3164.27708	0.03818
3162.99131	0.03800
3161.70555	0.03791
3160.41978	0.03791
3159.13401	0.03796
3157.84824	0.03795
3156.56247	0.03776
3155.27670	0.03742
3153.99093	0.03714
3152.70516	0.03714
3151.41939	0.03743
3150.13363	0.03778
3148.84786	0.03787
3147.56209	0.03756
3146.27632	0.03692
3144.99055	0.03623
3143.70478	0.03573
3142.41901	0.03556
3141.13324	0.03566
3139.84748	0.03583
3138.56171	0.03592
3137.27594	0.03593
3135.99017	0.03591
3134.70440	0.03596
3133.41863	0.03607
3132.13286	0.03623
3130.84709	0.03641
3129.56132	0.03660
3128.27556	0.03679
3126.98979	0.03699
3125.70402	0.03714
3124.41825	0.03713
3123.13248	0.03693
3121.84671	0.03663
3120.56094	0.03641
3119.27517	0.03630
3117.98940	0.03628
3116.70364	0.03628
3115.41787	0.03629
3114.13210	0.03632
3112.84633	0.03636
3111.56056	0.03634
3110.27479	0.03611
3108.98902	0.03562
3107.70325	0.03506
3106.41749	0.03475
3105.13172	0.03489
3103.84595	0.03533
3102.56018	0.03571
3101.27441	0.03581
3099.98864	0.03570
3098.70287	0.03561
3097.41710	0.03570
3096.13133	0.03589
3094.84557	0.03598
3093.55980	0.03586
3092.27403	0.03558
3090.98826	0.03529
3089.70249	0.03515
3088.41672	0.03519
3087.13095	0.03531
3085.84518	0.03535
3084.55942	0.03532
3083.27365	0.03536
3081.98788	0.03554
3080.70211	0.03573
3079.41634	0.03577
3078.13057	0.03570
3076.84480	0.03568
3075.55903	0.03579
3074.27326	0.03588
3072.98750	0.03574
3071.70173	0.03539
3070.41596	0.03505
3069.13019	0.03496
3067.84442	0.03510
3066.55865	0.03519
3065.27288	0.03498
3063.98711	0.03451
3062.70135	0.03410
3061.41558	0.03403
3060.12981	0.03426
3058.84404	0.03450
3057.55827	0.03454
3056.27250	0.03442
3054.98673	0.03434
3053.70096	0.03444
3052.41519	0.03470
3051.12943	0.03496
3049.84366	0.03504
3048.55789	0.03486
3047.27212	0.03454
3045.98635	0.03429
3044.70058	0.03421
3043.41481	0.03419
3042.12904	0.03408
3040.84328	0.03385
3039.55751	0.03363
3038.27174	0.03352
3036.98597	0.03345
3035.70020	0.03327
3034.41443	0.03295
3033.12866	0.03269
3031.84289	0.03272
3030.55712	0.03304
3029.27136	0.03340
3027.98559	0.03353
3026.69982	0.03337
3025.41405	0.03305
3024.12828	0.03276
3022.84251	0.03256
3021.55674	0.03248
3020.27097	0.03257
3018.98521	0.03283
3017.69944	0.03308
3016.41367	0.03315
3015.12790	0.03301
3013.84213	0.03281
3012.55636	0.03268
3011.27059	0.03263
3009.98482	0.03255
3008.69905	0.03237
3007.41329	0.03205
3006.12752	0.03170
3004.84175	0.03144
3003.55598	0.03134
3002.27021	0.03140
3000.98444	0.03159
2999.69867	0.03193
2998.41290	0.03239
2997.12714	0.03284
2995.84137	0.03307
2994.55560	0.03306
2993.26983	0.03294
2991.98406	0.03284
2990.69829	0.03282
2989.41252	0.03280
2988.12675	0.03273
2986.84098	0.03259
2985.55522	0.03245
2984.26945	0.03243
2982.98368	0.03252
2981.69791	0.03263
2980.41214	0.03263
2979.12637	0.03246
2977.84060	0.03216
2976.55483	0.03191
2975.26907	0.03191
2973.98330	0.03226
2972.69753	0.03278
2971.41176	0.03322
2970.12599	0.03347
2968.84022	0.03367
2967.55445	0.03399
2966.26868	0.03451
2964.98291	0.03516
2963.69715	0.03573
2962.41138	0.03607
2961.12561	0.03614
2959.83984	0.03613
2958.55407	0.03626
2957.26830	0.03665
2955.98253	0.03713
2954.69676	0.03740
2953.41100	0.03736
2952.12523	0.03716
2950.83946	0.03708
2949.55369	0.03718
2948.26792	0.03734
2946.98215	0.03739
2945.69638	0.03735
2944.41061	0.03728
2943.12484	0.03725
2941.83908	0.03721
2940.55331	0.03713
2939.26754	0.03699
2937.98177	0.03687
2936.69600	0.03683
2935.41023	0.03697
2934.12446	0.03732
2932.83869	0.03784
2931.55293	0.03838
2930.26716	0.03871
2928.98139	0.03874
2927.69562	0.03855
2926.40985	0.03835
2925.12408	0.03831
2923.83831	0.03846
2922.55254	0.03872
2921.26677	0.03894
2919.98101	0.03903
2918.69524	0.03899
2917.40947	0.03880
2916.12370	0.03846
2914.83793	0.03801
2913.55216	0.03762
2912.26639	0.03742
2910.98062	0.03740
2909.69486	0.03739
2908.40909	0.03725
2907.12332	0.03694
2905.83755	0.03659
2904.55178	0.03633
2903.26601	0.03618
2901.98024	0.03601
2900.69447	0.03576
2899.40870	0.03557
2898.12294	0.03560
2896.83717	0.03579
2895.55140	0.03588
2894.26563	0.03575
2892.97986	0.03553
2891.69409	0.03536
2890.40832	0.03529
2889.12255	0.03522
2887.83678	0.03510
2886.55102	0.03492
2885.26525	0.03477
2883.97948	0.03471
2882.69371	0.03474
2881.40794	0.03475
2880.12217	0.03471
2878.83640	0.03465
2877.55063	0.03467
2876.26487	0.03476
2874.97910	0.03486
2873.69333	0.03491
2872.40756	0.03492
2871.12179	0.03492
2869.83602	0.03495
2868.55025	0.03499
2867.26448	0.03500
2865.97871	0.03495
2864.69295	0.03484
2863.40718	0.03469
2862.12141	0.03450
2860.83564	0.03422
2859.54987	0.03386
2858.26410	0.03358
2856.97833	0.03355
2855.69256	0.03383
2854.40680	0.03426
2853.12103	0.03459
2851.83526	0.03463
2850.54949	0.03439
2849.26372	0.03400
2847.97795	0.03363
2846.69218	0.03341
2845.40641	0.03334
2844.12064	0.03338
2842.83488	0.03344
2841.54911	0.03341
2840.26334	0.03321
2838.97757	0.03282
2837.69180	0.03231
2836.40603	0.03177
2835.12026	0.03130
2833.83449	0.03100
2832.54873	0.03090
2831.26296	0.03098
2829.97719	0.03114
2828.69142	0.03119
2827.40565	0.03103
2826.11988	0.03072
2824.83411	0.03046
2823.54834	0.03036
2822.26257	0.03039
2820.97681	0.03042
2819.69104	0.03041
2818.40527	0.03039
2817.11950	0.03036
2815.83373	0.03026
2814.54796	0.03002
2813.26219	0.02971
2811.97642	0.02946
2810.69066	0.02937
2809.40489	0.02941
2808.11912	0.02949
2806.83335	0.02947
2805.54758	0.02929
2804.26181	0.02900
2802.97604	0.02872
2801.69027	0.02858
2800.40450	0.02858
2799.11874	0.02869
2797.83297	0.02885
2796.54720	0.02899
2795.26143	0.02902
2793.97566	0.02887
2792.68989	0.02856
2791.40412	0.02818
2790.11835	0.02790
2788.83259	0.02780
2787.54682	0.02784
2786.26105	0.02794
2784.97528	0.02803
2783.68951	0.02809
2782.40374	0.02810
2781.11797	0.02803
2779.83220	0.02789
2778.54643	0.02776
2777.26067	0.02774
2775.97490	0.02783
2774.68913	0.02790
2773.40336	0.02783
2772.11759	0.02768
2770.83182	0.02760
2769.54605	0.02767
2768.26028	0.02782
2766.97452	0.02788
2765.68875	0.02784
2764.40298	0.02776
2763.11721	0.02771
2761.83144	0.02769
2760.54567	0.02763
2759.25990	0.02754
2757.97413	0.02748
2756.68836	0.02755
2755.40260	0.02773
2754.11683	0.02792
2752.83106	0.02798
2751.54529	0.02787
2750.25952	0.02767
2748.97375	0.02747
2747.68798	0.02732
2746.40221	0.02721
2745.11645	0.02718
2743.83068	0.02725
2742.54491	0.02743
2741.25914	0.02768
2739.97337	0.02797
2738.68760	0.02818
2737.40183	0.02819
2736.11606	0.02798
2734.83029	0.02770
2733.54453	0.02751
2732.25876	0.02744
2730.97299	0.02743
2729.68722	0.02742
2728.40145	0.02731
2727.11568	0.02709
2725.82991	0.02684
2724.54414	0.02667
2723.25838	0.02663
2721.97261	0.02667
2720.68684	0.02673
2719.40107	0.02674
2718.11530	0.02666
2716.82953	0.02652
2715.54376	0.02640
2714.25799	0.02637
2712.97222	0.02644
2711.68646	0.02654
2710.40069	0.02659
2709.11492	0.02654
2707.82915	0.02643
2706.54338	0.02633
2705.25761	0.02631
2703.97184	0.02638
2702.68607	0.02648
2701.40031	0.02654
2700.11454	0.02649
2698.82877	0.02631
2697.54300	0.02605
2696.25723	0.02582
2694.97146	0.02569
2693.68569	0.02568
2692.39992	0.02571
2691.11415	0.02575
2689.82839	0.02582
2688.54262	0.02599
2687.25685	0.02620
2685.97108	0.02632
2684.68531	0.02627
2683.39954	0.02607
2682.11377	0.02583
2680.82800	0.02569
2679.54224	0.02574
2678.25647	0.02593
2676.97070	0.02616
2675.68493	0.02632
2674.39916	0.02634
2673.11339	0.02624
2671.82762	0.02607
2670.54185	0.02592
2669.25608	0.02584
2667.97032	0.02581
2666.68455	0.02578
2665.39878	0.02570
2664.11301	0.02560
2662.82724	0.02558
2661.54147	0.02565
2660.25570	0.02576
2658.96993	0.02583
2657.68417	0.02582
2656.39840	0.02572
2655.11263	0.02555
2653.82686	0.02537
2652.54109	0.02526
2651.25532	0.02530
2649.96955	0.02547
2648.68378	0.02567
2647.39801	0.02574
2646.11225	0.02561
2644.82648	0.02534
2643.54071	0.02508
2642.25494	0.02491
2640.96917	0.02479
2639.68340	0.02462
2638.39763	0.02439
2637.11186	0.02416
2635.82609	0.02406
2634.54033	0.02414
2633.25456	0.02429
2631.96879	0.02436
2630.68302	0.02430
2629.39725	0.02413
2628.11148	0.02395
2626.82571	0.02384
2625.53994	0.02385
2624.25418	0.02391
2622.96841	0.02383
2621.68264	0.02348
2620.39687	0.02297
2619.11110	0.02260
2617.82533	0.02255
2616.53956	0.02278
2615.25379	0.02303
2613.96802	0.02311
2612.68226	0.02295
2611.39649	0.02266
2610.11072	0.02240
2608.82495	0.02231
2607.53918	0.02243
2606.25341	0.02262
2604.96764	0.02263
2603.68187	0.02242
2602.39611	0.02218
2601.11034	0.02216
2599.82457	0.02238
2598.53880	0.02260
2597.25303	0.02266
2595.96726	0.02263
2594.68149	0.02260
2593.39572	0.02253
2592.10995	0.02241
2590.82419	0.02228
2589.53842	0.02219
2588.25265	0.02207
2586.96688	0.02185
2585.68111	0.02169
2584.39534	0.02172
2583.10957	0.02184
2581.82380	0.02179
2580.53804	0.02147
2579.25227	0.02106
2577.96650	0.02082
2576.68073	0.02087
2575.39496	0.02113
2574.10919	0.02136
2572.82342	0.02136
2571.53765	0.02117
2570.25188	0.02101
2568.96612	0.02105
2567.68035	0.02116
2566.39458	0.02115
2565.10881	0.02097
2563.82304	0.02075
2562.53727	0.02055
2561.25150	0.02033
2559.96573	0.02002
2558.67997	0.01964
2557.39420	0.01924
2556.10843	0.01886
2554.82266	0.01861
2553.53689	0.01863
2552.25112	0.01892
2550.96535	0.01933
2549.67958	0.01968
2548.39381	0.01990
2547.10805	0.02002
2545.82228	0.02015
2544.53651	0.02033
2543.25074	0.02046
2541.96497	0.02045
2540.67920	0.02039
2539.39343	0.02047
2538.10766	0.02067
2536.82190	0.02072
2535.53613	0.02039
2534.25036	0.01987
2532.96459	0.01950
2531.67882	0.01942
2530.39305	0.01946
2529.10728	0.01945
2527.82151	0.01933
2526.53574	0.01915
2525.24998	0.01900
2523.96421	0.01897
2522.67844	0.01909
2521.39267	0.01927
2520.10690	0.01939
2518.82113	0.01936
2517.53536	0.01918
2516.24959	0.01887
2514.96383	0.01856
2513.67806	0.01843
2512.39229	0.01864
2511.10652	0.01912
2509.82075	0.01958
2508.53498	0.01965
2507.24921	0.01927
2505.96344	0.01877
2504.67767	0.01857
2503.39191	0.01882
2502.10614	0.01929
2500.82037	0.01967
2499.53460	0.01981
2498.24883	0.01980
2496.96306	0.01981
2495.67729	0.01988
2494.39152	0.01994
2493.10576	0.01987
2491.81999	0.01960
2490.53422	0.01912
2489.24845	0.01851
2487.96268	0.01796
2486.67691	0.01775
2485.39114	0.01801
2484.10537	0.01857
2482.81960	0.01913
2481.53384	0.01947
2480.24807	0.01955
2478.96230	0.01944
2477.67653	0.01924
2476.39076	0.01905
2475.10499	0.01898
2473.81922	0.01899
2472.53345	0.01899
2471.24769	0.01888
2469.96192	0.01870
2468.67615	0.01859
2467.39038	0.01861
2466.10461	0.01872
2464.81884	0.01887
2463.53307	0.01896
2462.24730	0.01889
2460.96153	0.01864
2459.67577	0.01834
2458.39000	0.01817
2457.10423	0.01819
2455.81846	0.01833
2454.53269	0.01849
2453.24692	0.01862
2451.96115	0.01873
2450.67538	0.01881
2449.38962	0.01877
2448.10385	0.01849
2446.81808	0.01803
2445.53231	0.01763
2444.24654	0.01745
2442.96077	0.01745
2441.67500	0.01753
2440.38923	0.01763
2439.10346	0.01769
2437.81770	0.01771
2436.53193	0.01776
2435.24616	0.01796
2433.96039	0.01831
2432.67462	0.01861
2431.38885	0.01867
2430.10308	0.01849
2428.81731	0.01816
2427.53155	0.01782
2426.24578	0.01756
2424.96001	0.01741
2423.67424	0.01736
2422.38847	0.01736
2421.10270	0.01739
2419.81693	0.01747
2418.53116	0.01756
2417.24539	0.01759
2415.95963	0.01756
2414.67386	0.01752
2413.38809	0.01757
2412.10232	0.01768
2410.81655	0.01778
2409.53078	0.01778
2408.24501	0.01769
2406.95924	0.01760
2405.67347	0.01759
2404.38771	0.01773
2403.10194	0.01796
2401.81617	0.01813
2400.53040	0.01807
2399.24463	0.01769
2397.95886	0.01713
2396.67309	0.01665
2395.38732	0.01651
2394.10156	0.01675
2392.81579	0.01722
2391.53002	0.01765
2390.24425	0.01785
2388.95848	0.01787
2387.67271	0.01783
2386.38694	0.01783
2385.10117	0.01783
2383.81540	0.01779
2382.52964	0.01770
2381.24387	0.01765
2379.95810	0.01775
2378.67233	0.01801
2377.38656	0.01834
2376.10079	0.01863
2374.81502	0.01876
2373.52925	0.01859
2372.24349	0.01820
2370.95772	0.01787
2369.67195	0.01781
2368.38618	0.01793
2367.10041	0.01805
2365.81464	0.01817
2364.52887	0.01825
2363.24310	0.01828
2361.95733	0.01818
2360.67157	0.01785
2359.38580	0.01752
2358.10003	0.01748
2356.81426	0.01776
2355.52849	0.01823
2354.24272	0.01871
2352.95695	0.01900
2351.67118	0.01893
2350.38542	0.01868
2349.09965	0.01858
2347.81388	0.01860
2346.52811	0.01846
2345.24234	0.01849
2343.95657	0.01915
2342.67080	0.01996
2341.38503	0.01977
2340.09926	0.01879
2338.81350	0.01866
2337.52773	0.01945
2336.24196	0.01943
2334.95619	0.01874
2333.67042	0.01895
2332.38465	0.01960
2331.09888	0.01916
2329.81311	0.01882
2328.52735	0.01954
2327.24158	0.01988
2325.95581	0.01997
2324.67004	0.02065
2323.38427	0.02095
2322.09850	0.02047
2320.81273	0.02017
2319.52696	0.01968
2318.24119	0.01904
2316.95543	0.01873
2315.66966	0.01844
2314.38389	0.01836
2313.09812	0.01869
2311.81235	0.01895
2310.52658	0.01906
2309.24081	0.01892
2307.95504	0.01853
2306.66928	0.01825
2305.38351	0.01809
2304.09774	0.01796
2302.81197	0.01770
2301.52620	0.01719
2300.24043	0.01660
2298.95466	0.01606
2297.66889	0.01570
2296.38312	0.01565
2295.09736	0.01599
2293.81159	0.01667
2292.52582	0.01738
2291.24005	0.01778
2289.95428	0.01772
2288.66851	0.01726
2287.38274	0.01665
2286.09697	0.01614
2284.81121	0.01587
2283.52544	0.01581
2282.23967	0.01584
2280.95390	0.01596
2279.66813	0.01629
2278.38236	0.01681
2277.09659	0.01725
2275.81082	0.01734
2274.52505	0.01708
2273.23929	0.01674
2271.95352	0.01649
2270.66775	0.01625
2269.38198	0.01590
2268.09621	0.01545
2266.81044	0.01502
2265.52467	0.01479
2264.23890	0.01480
2262.95314	0.01491
2261.66737	0.01497
2260.38160	0.01496
2259.09583	0.01493
2257.81006	0.01488
2256.52429	0.01470
2255.23852	0.01434
2253.95275	0.01383
2252.66698	0.01333
2251.38122	0.01304
2250.09545	0.01302
2248.80968	0.01314
2247.52391	0.01314
2246.23814	0.01302
2244.95237	0.01303
2243.66660	0.01331
2242.38083	0.01363
2241.09507	0.01372
2239.80930	0.01368
2238.52353	0.01380
2237.23776	0.01424
2235.95199	0.01478
2234.66622	0.01505
2233.38045	0.01476
2232.09468	0.01390
2230.80891	0.01280
2229.52315	0.01180
2228.23738	0.01102
2226.95161	0.01054
2225.66584	0.01053
2224.38007	0.01110
2223.09430	0.01195
2221.80853	0.01252
2220.52276	0.01257
2219.23700	0.01247
2217.95123	0.01267
2216.66546	0.01316
2215.37969	0.01338
2214.09392	0.01287
2212.80815	0.01178
2211.52238	0.01085
2210.23661	0.01056
2208.95084	0.01059
2207.66508	0.01015
2206.37931	0.00901
2205.09354	0.00790
2203.80777	0.00774
2202.52200	0.00870
2201.23623	0.01003
2199.95046	0.01082
2198.66469	0.01083
2197.37893	0.01055
2196.09316	0.01046
2194.80739	0.01048
2193.52162	0.01026
2192.23585	0.00976
2190.95008	0.00933
2189.66431	0.00916
2188.37854	0.00916
2187.09277	0.00904
2185.80701	0.00862
2184.52124	0.00792
2183.23547	0.00719
2181.94970	0.00668
2180.66393	0.00650
2179.37816	0.00659
2178.09239	0.00680
2176.80662	0.00694
2175.52085	0.00694
2174.23509	0.00702
2172.94932	0.00743
2171.66355	0.00804
2170.37778	0.00836
2169.09201	0.00820
2167.80624	0.00787
2166.52047	0.00770
2165.23470	0.00761
2163.94894	0.00734
2162.66317	0.00692
2161.37740	0.00660
2160.09163	0.00643
2158.80586	0.00624
2157.52009	0.00594
2156.23432	0.00567
2154.94855	0.00565
2153.66278	0.00589
2152.37702	0.00621
2151.09125	0.00640
2149.80548	0.00640
2148.51971	0.00636
2147.23394	0.00655
2145.94817	0.00710
2144.66240	0.00780
2143.37663	0.00826
2142.09087	0.00839
2140.80510	0.00850
2139.51933	0.00891
2138.23356	0.00952
2136.94779	0.00992
2135.66202	0.00980
2134.37625	0.00919
2133.09048	0.00848
2131.80471	0.00813
2130.51895	0.00826
2129.23318	0.00857
2127.94741	0.00873
2126.66164	0.00879
2125.37587	0.00903
2124.09010	0.00948
2122.80433	0.00995
2121.51856	0.01035
2120.23280	0.01072
2118.94703	0.01097
2117.66126	0.01096
2116.37549	0.01067
2115.08972	0.01028
2113.80395	0.01000
2112.51818	0.00998
2111.23241	0.01031
2109.94664	0.01086
2108.66088	0.01120
2107.37511	0.01102
2106.08934	0.01049
2104.80357	0.01017
2103.51780	0.01030
2102.23203	0.01065
2100.94626	0.01077
2099.66049	0.01002
2098.37473	0.00919
2097.08896	0.00846
2095.80319	0.00794
2094.51742	0.00793
2093.23165	0.00853
2091.94588	0.00949
2090.66011	0.01040
2089.37434	0.01092
2088.08857	0.01102
2086.80281	0.01093
2085.51704	0.01093
2084.23127	0.01116
2082.94550	0.01151
2081.65973	0.01167
2080.37396	0.01144
2079.08819	0.01093
2077.80242	0.01049
2076.51666	0.01030
2075.23089	0.01019
2073.94512	0.00989
2072.65935	0.00945
2071.37358	0.00919
2070.08781	0.00923
2068.80204	0.00928
2067.51627	0.00899
2066.23050	0.00835
2064.94474	0.00768
2063.65897	0.00719
2062.37320	0.00680
2061.08743	0.00637
2059.80166	0.00603
2058.51589	0.00604
2057.23012	0.00648
2055.94435	0.00723
2054.65859	0.00801
2053.37282	0.00851
2052.08705	0.00843
2050.80128	0.00771
2049.51551	0.00676
2048.22974	0.00619
2046.94397	0.00627
2045.65820	0.00663
2044.37243	0.00669
2043.08667	0.00620
2041.80090	0.00539
2040.51513	0.00463
2039.22936	0.00408
2037.94359	0.00366
2036.65782	0.00328
2035.37205	0.00297
2034.08628	0.00281
2032.80052	0.00293
2031.51475	0.00353
2030.22898	0.00468
2028.94321	0.00603
2027.65744	0.00705
2026.37167	0.00743
2025.08590	0.00727
2023.80013	0.00678
2022.51436	0.00603
2021.22860	0.00508
2019.94283	0.00412
2018.65706	0.00335
2017.37129	0.00295
2016.08552	0.00302
2014.79975	0.00355
2013.51398	0.00431
2012.22821	0.00484
2010.94245	0.00475
2009.65668	0.00398
2008.37091	0.00304
2007.08514	0.00260
2005.79937	0.00297
2004.51360	0.00384
2003.22783	0.00473
2001.94206	0.00556
2000.65629	0.00652
1999.37053	0.00753
1998.08476	0.00820
1996.79899	0.00834
1995.51322	0.00805
1994.22745	0.00753
1992.94168	0.00682
1991.65591	0.00602
1990.37014	0.00529
1989.08438	0.00474
1987.79861	0.00438
1986.51284	0.00426
1985.22707	0.00449
1983.94130	0.00507
1982.65553	0.00585
1981.36976	0.00654
1980.08399	0.00684
1978.79822	0.00663
1977.51246	0.00612
1976.22669	0.00556
1974.94092	0.00497
1973.65515	0.00415
1972.36938	0.00318
1971.08361	0.00239
1969.79784	0.00207
1968.51207	0.00224
1967.22631	0.00283
1965.94054	0.00376
1964.65477	0.00487
1963.36900	0.00585
1962.08323	0.00644
1960.79746	0.00661
1959.51169	0.00664
1958.22592	0.00679
1956.94015	0.00707
1955.65439	0.00727
1954.36862	0.00737
1953.08285	0.00763
1951.79708	0.00827
1950.51131	0.00914
1949.22554	0.00970
1947.93977	0.00961
1946.65400	0.00906
1945.36823	0.00852
1944.08247	0.00825
1942.79670	0.00819
1941.51093	0.00824
1940.22516	0.00843
1938.93939	0.00877
1937.65362	0.00910
1936.36785	0.00917
1935.08208	0.00902
1933.79632	0.00894
1932.51055	0.00914
1931.22478	0.00948
1929.93901	0.00965
1928.65324	0.00954
1927.36747	0.00929
1926.08170	0.00906
1924.79593	0.00889
1923.51016	0.00883
1922.22440	0.00899
1920.93863	0.00931
1919.65286	0.00949
1918.36709	0.00934
1917.08132	0.00898
1915.79555	0.00873
1914.50978	0.00872
1913.22401	0.00891
1911.93825	0.00916
1910.65248	0.00936
1909.36671	0.00938
1908.08094	0.00920
1906.79517	0.00899
1905.50940	0.00900
1904.22363	0.00922
1902.93786	0.00940
1901.65209	0.00932
1900.36633	0.00911
1899.08056	0.00904
1897.79479	0.00923
1896.50902	0.00954
1895.22325	0.00978
1893.93748	0.00985
1892.65171	0.00980
1891.36594	0.00969
1890.08018	0.00953
1888.79441	0.00933
1887.50864	0.00911
1886.22287	0.00897
1884.93710	0.00895
1883.65133	0.00899
1882.36556	0.00902
1881.07979	0.00906
1879.79402	0.00912
1878.50826	0.00921
1877.22249	0.00930
1875.93672	0.00939
1874.65095	0.00947
1873.36518	0.00955
1872.07941	0.00960
1870.79364	0.00961
1869.50787	0.00957
1868.22211	0.00952
1866.93634	0.00948
1865.65057	0.00948
1864.36480	0.00950
1863.07903	0.00947
1861.79326	0.00936
1860.50749	0.00920
1859.22172	0.00908
1857.93595	0.00910
1856.65019	0.00930
1855.36442	0.00960
1854.07865	0.00982
1852.79288	0.00987
1851.50711	0.00979
1850.22134	0.00973
1848.93557	0.00978
1847.64980	0.00990
1846.36404	0.00999
1845.07827	0.01006
1843.79250	0.01020
1842.50673	0.01040
1841.22096	0.01056
1839.93519	0.01061
1838.64942	0.01058
1837.36365	0.01051
1836.07788	0.01043
1834.79212	0.01036
1833.50635	0.01030
1832.22058	0.01027
1830.93481	0.01024
1829.64904	0.01021
1828.36327	0.01016
1827.07750	0.01007
1825.79173	0.00998
1824.50597	0.00992
1823.22020	0.00986
1821.93443	0.00974
1820.64866	0.00953
1819.36289	0.00931
1818.07712	0.00918
1816.79135	0.00920
1815.50558	0.00937
1814.21981	0.00962
1812.93405	0.00988
1811.64828	0.01008
1810.36251	0.01021
1809.07674	0.01030
1807.79097	0.01040
1806.50520	0.01050
1805.21943	0.01055
1803.93366	0.01050
1802.64790	0.01039
1801.36213	0.01028
1800.07636	0.01026
1798.79059	0.01036
1797.50482	0.01050
1796.21905	0.01062
1794.93328	0.01066
1793.64751	0.01061
1792.36174	0.01053
1791.07598	0.01047
1789.79021	0.01046
1788.50444	0.01049
1787.21867	0.01056
1785.93290	0.01065
1784.64713	0.01071
1783.36136	0.01071
1782.07559	0.01062
1780.78983	0.01043
1779.50406	0.01023
1778.21829	0.01008
1776.93252	0.01004
1775.64675	0.01007
1774.36098	0.01009
1773.07521	0.01010
1771.78944	0.01018
1770.50367	0.01033
1769.21791	0.01049
1767.93214	0.01065
1766.64637	0.01081
1765.36060	0.01095
1764.07483	0.01100
1762.78906	0.01099
1761.50329	0.01097
1760.21752	0.01095
1758.93176	0.01087
1757.64599	0.01074
1756.36022	0.01067
1755.07445	0.01071
1753.78868	0.01077
1752.50291	0.01080
1751.21714	0.01081
1749.93137	0.01083
1748.64560	0.01087
1747.35984	0.01090
1746.07407	0.01093
1744.78830	0.01093
1743.50253	0.01090
1742.21676	0.01086
1740.93099	0.01084
1739.64522	0.01084
1738.35945	0.01086
1737.07369	0.01078
1735.78792	0.01064
1734.50215	0.01061
1733.21638	0.01088
1731.93061	0.01131
1730.64484	0.01163
1729.35907	0.01169
1728.07330	0.01160
1726.78753	0.01145
1725.50177	0.01133
1724.21600	0.01129
1722.93023	0.01135
1721.64446	0.01147
1720.35869	0.01157
1719.07292	0.01161
1717.78715	0.01171
1716.50138	0.01193
1715.21561	0.01221
1713.92985	0.01244
1712.64408	0.01257
1711.35831	0.01271
1710.07254	0.01292
1708.78677	0.01322
1707.50100	0.01352
1706.21523	0.01379
1704.92946	0.01406
1703.64370	0.01434
1702.35793	0.01459
1701.07216	0.01490
1699.78639	0.01541
1698.50062	0.01606
1697.21485	0.01664
1695.92908	0.01713
1694.64331	0.01772
1693.35754	0.01839
1692.07178	0.01900
1690.78601	0.01954
1689.50024	0.02008
1688.21447	0.02062
1686.92870	0.02108
1685.64293	0.02149
1684.35716	0.02200
1683.07139	0.02267
1681.78563	0.02337
1680.49986	0.02396
1679.21409	0.02446
1677.92832	0.02491
1676.64255	0.02531
1675.35678	0.02573
1674.07101	0.02624
1672.78524	0.02680
1671.49947	0.02737
1670.21371	0.02797
1668.92794	0.02863
1667.64217	0.02932
1666.35640	0.02996
1665.07063	0.03048
1663.78486	0.03090
1662.49909	0.03129
1661.21332	0.03173
1659.92756	0.03223
1658.64179	0.03279
1657.35602	0.03334
1656.07025	0.03374
1654.78448	0.03393
1653.49871	0.03408
1652.21294	0.03443
1650.92717	0.03491
1649.64140	0.03526
1648.35564	0.03541
1647.06987	0.03551
1645.78410	0.03568
1644.49833	0.03588
1643.21256	0.03600
1641.92679	0.03600
1640.64102	0.03595
1639.35525	0.03588
1638.06949	0.03574
1636.78372	0.03553
1635.49795	0.03532
1634.21218	0.03519
1632.92641	0.03510
1631.64064	0.03497
1630.35487	0.03480
1629.06910	0.03456
1627.78333	0.03425
1626.49757	0.03384
1625.21180	0.03336
1623.92603	0.03288
1622.64026	0.03251
1621.35449	0.03228
1620.06872	0.03207
1618.78295	0.03176
1617.49718	0.03134
1616.21142	0.03095
1614.92565	0.03067
1613.63988	0.03044
1612.35411	0.03021
1611.06834	0.02999
1609.78257	0.02979
1608.49680	0.02960
1607.21103	0.02944
1605.92526	0.02929
1604.63950	0.02915
1603.35373	0.02901
1602.06796	0.02889
1600.78219	0.02879
1599.49642	0.02874
1598.21065	0.02870
1596.92488	0.02865
1595.63911	0.02861
1594.35335	0.02857
1593.06758	0.02858
1591.78181	0.02861
1590.49604	0.02868
1589.21027	0.02877
1587.92450	0.02884
1586.63873	0.02886
1585.35296	0.02884
1584.06719	0.02878
1582.78143	0.02875
1581.49566	0.02876
1580.20989	0.02884
1578.92412	0.02892
1577.63835	0.02897
1576.35258	0.02908
1575.06681	0.02933
1573.78104	0.02962
1572.49528	0.02977
1571.20951	0.02981
1569.92374	0.02987
1568.63797	0.03007
1567.35220	0.03034
1566.06643	0.03061
1564.78066	0.03083
1563.49489	0.03101
1562.20912	0.03107
1560.92336	0.03103
1559.63759	0.03103
1558.35182	0.03122
1557.06605	0.03149
1555.78028	0.03166
1554.49451	0.03170
1553.20874	0.03171
1551.92297	0.03175
1550.63721	0.03181
1549.35144	0.03185
1548.06567	0.03186
1546.77990	0.03182
1545.49413	0.03174
1544.20836	0.03168
1542.92259	0.03162
1541.63682	0.03153
1540.35105	0.03145
1539.06529	0.03146
1537.77952	0.03152
1536.49375	0.03148
1535.20798	0.03131
1533.92221	0.03113
1532.63644	0.03106
1531.35067	0.03104
1530.06490	0.03099
1528.77914	0.03089
1527.49337	0.03080
1526.20760	0.03077
1524.92183	0.03078
1523.63606	0.03079
1522.35029	0.03078
1521.06452	0.03083
1519.77875	0.03094
1518.49298	0.03104
1517.20722	0.03109
1515.92145	0.03116
1514.63568	0.03128
1513.34991	0.03144
1512.06414	0.03164
1510.77837	0.03186
1509.49260	0.03201
1508.20683	0.03205
1506.92107	0.03208
1505.63530	0.03224
1504.34953	0.03251
1503.06376	0.03275
1501.77799	0.03287
1500.49222	0.03292
1499.20645	0.03294
1497.92068	0.03295
1496.63491	0.03300
1495.34915	0.03311
1494.06338	0.03326
1492.77761	0.03337
1491.49184	0.03347
1490.20607	0.03361
1488.92030	0.03382
1487.63453	0.03406
1486.34876	0.03429
1485.06299	0.03453
1483.77723	0.03477
1482.49146	0.03505
1481.20569	0.03534
1479.91992	0.03564
1478.63415	0.03595
1477.34838	0.03630
1476.06261	0.03672
1474.77684	0.03718
1473.49108	0.03764
1472.20531	0.03810
1470.91954	0.03856
1469.63377	0.03898
1468.34800	0.03935
1467.06223	0.03965
1465.77646	0.03992
1464.49069	0.04018
1463.20492	0.04045
1461.91916	0.04075
1460.63339	0.04109
1459.34762	0.04145
1458.06185	0.04184
1456.77608	0.04231
1455.49031	0.04283
1454.20454	0.04324
1452.91877	0.04350
1451.63301	0.04366
1450.34724	0.04381
1449.06147	0.04397
1447.77570	0.04411
1446.48993	0.04421
1445.20416	0.04425
1443.91839	0.04423
1442.63262	0.04412
1441.34685	0.04395
1440.06109	0.04370
1438.77532	0.04338
1437.48955	0.04307
1436.20378	0.04290
1434.91801	0.04289
1433.63224	0.04296
1432.34647	0.04305
1431.06070	0.04319
1429.77494	0.04340
1428.48917	0.04368
1427.20340	0.04404
1425.91763	0.04445
1424.63186	0.04492
1423.34609	0.04542
1422.06032	0.04589
1420.77455	0.04625
1419.48878	0.04654
1418.20302	0.04679
1416.91725	0.04703
1415.63148	0.04724
1414.34571	0.04738
1413.05994	0.04744
1411.77417	0.04742
1410.48840	0.04735
1409.20263	0.04724
1407.91687	0.04706
1406.63110	0.04676
1405.34533	0.04633
1404.05956	0.04586
1402.77379	0.04539
1401.48802	0.04487
1400.20225	0.04428
1398.91648	0.04363
1397.63071	0.04297
1396.34495	0.04230
1395.05918	0.04164
1393.77341	0.04097
1392.48764	0.04029
1391.20187	0.03960
1389.91610	0.03892
1388.63033	0.03831
1387.34456	0.03775
1386.05880	0.03719
1384.77303	0.03660
1383.48726	0.03597
1382.20149	0.03537
1380.91572	0.03481
1379.62995	0.03429
1378.34418	0.03375
1377.05841	0.03318
1375.77264	0.03257
1374.48688	0.03193
1373.20111	0.03129
1371.91534	0.03065
1370.62957	0.03002
1369.34380	0.02940
1368.05803	0.02882
1366.77226	0.02827
1365.48649	0.02778
1364.20073	0.02732
1362.91496	0.02690
1361.62919	0.02651
1360.34342	0.02612
1359.05765	0.02576
1357.77188	0.02544
1356.48611	0.02517
1355.20034	0.02495
1353.91457	0.02474
1352.62881	0.02452
1351.34304	0.02429
1350.05727	0.02406
1348.77150	0.02383
1347.48573	0.02364
1346.19996	0.02351
1344.91419	0.02342
1343.62842	0.02334
1342.34266	0.02323
1341.05689	0.02308
1339.77112	0.02290
1338.48535	0.02272
1337.19958	0.02255
1335.91381	0.02241
1334.62804	0.02225
1333.34227	0.02207
1332.05650	0.02185
1330.77074	0.02164
1329.48497	0.02148
1328.19920	0.02131
1326.91343	0.02111
1325.62766	0.02089
1324.34189	0.02069
1323.05612	0.02057
1321.77035	0.02052
1320.48459	0.02048
1319.19882	0.02041
1317.91305	0.02029
1316.62728	0.02013
1315.34151	0.01997
1314.05574	0.01985
1312.76997	0.01974
1311.48420	0.01963
1310.19843	0.01948
1308.91267	0.01930
1307.62690	0.01911
1306.34113	0.01894
1305.05536	0.01880
1303.76959	0.01867
1302.48382	0.01855
1301.19805	0.01841
1299.91228	0.01825
1298.62652	0.01807
1297.34075	0.01788
1296.05498	0.01772
1294.76921	0.01762
1293.48344	0.01760
1292.19767	0.01762
1290.91190	0.01765
1289.62613	0.01763
1288.34036	0.01757
1287.05460	0.01750
1285.76883	0.01744
1284.48306	0.01743
1283.19729	0.01745
1281.91152	0.01746
1280.62575	0.01743
1279.33998	0.01735
1278.05421	0.01724
1276.76845	0.01713
1275.48268	0.01707
1274.19691	0.01705
1272.91114	0.01705
1271.62537	0.01703
1270.33960	0.01698
1269.05383	0.01693
1267.76806	0.01691
1266.48229	0.01694
1265.19653	0.01700
1263.91076	0.01706
1262.62499	0.01707
1261.33922	0.01703
1260.05345	0.01696
1258.76768	0.01689
1257.48191	0.01687
1256.19614	0.01690
1254.91037	0.01696
1253.62461	0.01699
1252.33884	0.01700
1251.05307	0.01700
1249.76730	0.01701
1248.48153	0.01705
1247.19576	0.01709
1245.90999	0.01713
1244.62422	0.01715
1243.33846	0.01714
1242.05269	0.01712
1240.76692	0.01710
1239.48115	0.01713
1238.19538	0.01718
1236.90961	0.01722
1235.62384	0.01723
1234.33807	0.01721
1233.05230	0.01718
1231.76654	0.01714
1230.48077	0.01708
1229.19500	0.01699
1227.90923	0.01690
1226.62346	0.01682
1225.33769	0.01678
1224.05192	0.01678
1222.76615	0.01682
1221.48039	0.01689
1220.19462	0.01696
1218.90885	0.01701
1217.62308	0.01701
1216.33731	0.01697
1215.05154	0.01693
1213.76577	0.01693
1212.48000	0.01699
1211.19423	0.01708
1209.90847	0.01715
1208.62270	0.01721
1207.33693	0.01726
1206.05116	0.01734
1204.76539	0.01748
1203.47962	0.01767
1202.19385	0.01785
1200.90808	0.01800
1199.62232	0.01815
1198.33655	0.01820
1197.05078	0.01822
1195.76501	0.01821
1194.47924	0.01816
1193.19347	0.01812
1191.90770	0.01809
1190.62193	0.01807
1189.33616	0.01804
1188.05040	0.01800
1186.76463	0.01796
1185.47886	0.01794
1184.19309	0.01795
1182.90732	0.01797
1181.62155	0.01796
1180.33578	0.01790
1179.05001	0.01783
1177.76425	0.01777
1176.47848	0.01772
1175.19271	0.01770
1173.90694	0.01775
1172.62117	0.01789
1171.33540	0.01806
1170.04963	0.01819
1168.76386	0.01824
1167.47809	0.01826
1166.19233	0.01831
1164.90656	0.01840
1163.62079	0.01848
1162.33502	0.01848
1161.04925	0.01844
1159.76348	0.01840
1158.47771	0.01842
1157.19194	0.01850
1155.90618	0.01864
1154.62041	0.01883
1153.33464	0.01899
1152.04887	0.01909
1150.76310	0.01912
1149.47733	0.01916
1148.19156	0.01930
1146.90579	0.01955
1145.62002	0.01990
1144.33426	0.02028
1143.04849	0.02065
1141.76272	0.02100
1140.47695	0.02134
1139.19118	0.02172
1137.90541	0.02215
1136.61964	0.02262
1135.33387	0.02307
1134.04811	0.02349
1132.76234	0.02393
1131.47657	0.02450
1130.19080	0.02528
1128.90503	0.02624
1127.61926	0.02732
1126.33349	0.02842
1125.04772	0.02951
1123.76195	0.03064
1122.47619	0.03186
1121.19042	0.03318
1119.90465	0.03458
1118.61888	0.03600
1117.33311	0.03743
1116.04734	0.03886
1114.76157	0.04032
1113.47580	0.04180
1112.19004	0.04328
1110.90427	0.04469
1109.61850	0.04600
1108.33273	0.04724
1107.04696	0.04845
1105.76119	0.04968
1104.47542	0.05093
1103.18965	0.05217
1101.90388	0.05337
1100.61812	0.05456
1099.33235	0.05578
1098.04658	0.05701
1096.76081	0.05816
1095.47504	0.05915
1094.18927	0.05998
1092.90350	0.06073
1091.61773	0.06147
1090.33197	0.06224
1089.04620	0.06300
1087.76043	0.06374
1086.47466	0.06446
1085.18889	0.06520
1083.90312	0.06600
1082.61735	0.06686
1081.33158	0.06771
1080.04581	0.06851
1078.76005	0.06929
1077.47428	0.07013
1076.18851	0.07110
1074.90274	0.07221
1073.61697	0.07339
1072.33120	0.07457
1071.04543	0.07572
1069.75966	0.07685
1068.47390	0.07801
1067.18813	0.07922
1065.90236	0.08051
1064.61659	0.08187
1063.33082	0.08326
1062.04505	0.08462
1060.75928	0.08592
1059.47351	0.08719
1058.18774	0.08841
1056.90198	0.08957
1055.61621	0.09066
1054.33044	0.09175
1053.04467	0.09292
1051.75890	0.09416
1050.47313	0.09540
1049.18736	0.09659
1047.90159	0.09777
1046.61583	0.09899
1045.33006	0.10024
1044.04429	0.10149
1042.75852	0.10274
1041.47275	0.10396
1040.18698	0.10516
1038.90121	0.10638
1037.61544	0.10765
1036.32967	0.10897
1035.04391	0.11030
1033.75814	0.11156
1032.47237	0.11271
1031.18660	0.11373
1029.90083	0.11460
1028.61506	0.11534
1027.32929	0.11596
1026.04352	0.11649
1024.75775	0.11697
1023.47199	0.11735
1022.18622	0.11753
1020.90045	0.11749
1019.61468	0.11724
1018.32891	0.11682
1017.04314	0.11626
1015.75737	0.11562
1014.47160	0.11493
1013.18584	0.11420
1011.90007	0.11333
1010.61430	0.11225
1009.32853	0.11095
1008.04276	0.10945
1006.75699	0.10778
1005.47122	0.10600
1004.18545	0.10418
1002.89968	0.10233
1001.61392	0.10042
1000.32815	0.09839
999.04238	0.09623
997.75661	0.09398
996.47084	0.09168
995.18507	0.08938
993.89930	0.08712
992.61353	0.08490
991.32777	0.08269
990.04200	0.08049
988.75623	0.07835
987.47046	0.07631
986.18469	0.07437
984.89892	0.07248
983.61315	0.07056
982.32738	0.06863
981.04161	0.06676
979.75585	0.06503
978.47008	0.06343
977.18431	0.06192
975.89854	0.06044
974.61277	0.05903
973.32700	0.05777
972.04123	0.05672
970.75546	0.05587
969.46970	0.05514
968.18393	0.05453
966.89816	0.05412
965.61239	0.05398
964.32662	0.05407
963.04085	0.05423
961.75508	0.05429
960.46931	0.05419
959.18354	0.05394
957.89778	0.05354
956.61201	0.05297
955.32624	0.05220
954.04047	0.05127
952.75470	0.05023
951.46893	0.04919
950.18316	0.04822
948.89739	0.04736
947.61163	0.04656
946.32586	0.04573
945.04009	0.04483
943.75432	0.04395
942.46855	0.04318
941.18278	0.04251
939.89701	0.04189
938.61124	0.04125
937.32547	0.04059
936.03971	0.03994
934.75394	0.03930
933.46817	0.03866
932.18240	0.03801
930.89663	0.03740
929.61086	0.03687
928.32509	0.03639
927.03932	0.03591
925.75356	0.03538
924.46779	0.03486
923.18202	0.03439
921.89625	0.03402
920.61048	0.03375
919.32471	0.03349
918.03894	0.03314
916.75317	0.03271
915.46740	0.03227
914.18164	0.03189
912.89587	0.03161
911.61010	0.03141
910.32433	0.03125
909.03856	0.03106
907.75279	0.03078
906.46702	0.03042
905.18125	0.03009
903.89549	0.02986
902.60972	0.02970
901.32395	0.02947
900.03818	0.02908
898.75241	0.02860
897.46664	0.02810
896.18087	0.02764
894.89510	0.02724
893.60933	0.02696
892.32357	0.02687
891.03780	0.02695
889.75203	0.02711
888.46626	0.02724
887.18049	0.02737
885.89472	0.02762
884.60895	0.02811
883.32318	0.02890
882.03742	0.02987
880.75165	0.03081
879.46588	0.03155
878.18011	0.03208
876.89434	0.03257
875.60857	0.03314
874.32280	0.03384
873.03703	0.03454
871.75126	0.03503
870.46550	0.03513
869.17973	0.03480
867.89396	0.03412
866.60819	0.03321
865.32242	0.03225
864.03665	0.03134
862.75088	0.03054
861.46511	0.02981
860.17935	0.02910
858.89358	0.02842
857.60781	0.02784
856.32204	0.02736
855.03627	0.02697
853.75050	0.02663
852.46473	0.02631
851.17896	0.02601
849.89319	0.02575
848.60743	0.02550
847.32166	0.02526
846.03589	0.02504
844.75012	0.02485
843.46435	0.02469
842.17858	0.02457
840.89281	0.02449
839.60704	0.02443
838.32128	0.02438
837.03551	0.02430
835.74974	0.02420
834.46397	0.02408
833.17820	0.02397
831.89243	0.02388
830.60666	0.02379
829.32089	0.02369
828.03512	0.02356
826.74936	0.02345
825.46359	0.02339
824.17782	0.02340
822.89205	0.02344
821.60628	0.02343
820.32051	0.02334
819.03474	0.02316
817.74897	0.02297
816.46321	0.02284
815.17744	0.02281
813.89167	0.02285
812.60590	0.02292
811.32013	0.02299
810.03436	0.02303
808.74859	0.02297
807.46282	0.02281
806.17705	0.02265
804.89129	0.02261
803.60552	0.02273
802.31975	0.02294
801.03398	0.02312
799.74821	0.02318
798.46244	0.02315
797.17667	0.02308
795.89090	0.02301
794.60513	0.02296
793.31937	0.02291
792.03360	0.02291
790.74783	0.02295
789.46206	0.02297
788.17629	0.02292
786.89052	0.02280
785.60475	0.02269
784.31898	0.02266
783.03322	0.02273
781.74745	0.02284
780.46168	0.02291
779.17591	0.02292
777.89014	0.02288
776.60437	0.02283
775.31860	0.02280
774.03283	0.02282
772.74706	0.02289
771.46130	0.02295
770.17553	0.02294
768.88976	0.02288
767.60399	0.02279
766.31822	0.02271
765.03245	0.02265
763.74668	0.02267
762.46091	0.02275
761.17515	0.02286
759.88938	0.02288
758.60361	0.02277
757.31784	0.02259
756.03207	0.02246
754.74630	0.02247
753.46053	0.02257
752.17476	0.02261
750.88899	0.02250
749.60323	0.02225
748.31746	0.02201
747.03169	0.02192
745.74592	0.02196
744.46015	0.02208
743.17438	0.02218
741.88861	0.02226
740.60284	0.02233
739.31708	0.02238
738.03131	0.02240
736.74554	0.02233
735.45977	0.02221
734.17400	0.02207
732.88823	0.02198
731.60246	0.02195
730.31669	0.02197
729.03092	0.02200
727.74516	0.02201
726.45939	0.02200
725.17362	0.02201
723.88785	0.02210
722.60208	0.02227
721.31631	0.02242
720.03054	0.02250
718.74477	0.02248
717.45901	0.02241
716.17324	0.02233
714.88747	0.02224
713.60170	0.02216
712.31593	0.02214
711.03016	0.02219
709.74439	0.02229
708.45862	0.02240
707.17285	0.02247
705.88709	0.02251
704.60132	0.02253
703.31555	0.02254
702.02978	0.02251
700.74401	0.02245
699.45824	0.02240
698.17247	0.02239
696.88670	0.02241
695.60094	0.02242
694.31517	0.02240
693.02940	0.02239
691.74363	0.02241
690.45786	0.02247
689.17209	0.02255
687.88632	0.02256
686.60055	0.02249
685.31478	0.02234
684.02902	0.02218
682.74325	0.02204
681.45748	0.02197
680.17171	0.02197
678.88594	0.02200
677.60017	0.02202
676.31440	0.02201
675.02863	0.02197
673.74287	0.02195
672.45710	0.02194
671.17133	0.02197
669.88556	0.02206
668.59979	0.02222
667.31402	0.02241
666.02825	0.02247
664.74248	0.02242
663.45671	0.02230
662.17095	0.02216
660.88518	0.02203
659.59941	0.02192
658.31364	0.02183
657.02787	0.02179
655.74210	0.02180
654.45633	0.02184
653.17056	0.02187
651.88480	0.02190
650.59903	0.02198
649.31326	0.02209
648.02749	0.02218
646.74172	0.02217
645.45595	0.02209
644.17018	0.02203
642.88441	0.02205
641.59864	0.02218
640.31288	0.02235
639.02711	0.02250
637.74134	0.02260
636.45557	0.02265
635.16980	0.02267
633.88403	0.02272
632.59826	0.02285
631.31249	0.02300
630.02673	0.02287
628.74096	0.02253
627.45519	0.02302
626.16942	0.02251
624.88365	0.02134
623.59788	0.02040
622.31211	0.02022
621.02634	0.02106
619.74057	0.02274
618.45481	0.02494
617.16904	0.02731
615.88327	0.02935
614.59750	0.03044
613.31173	0.03060
612.02596	0.03077
610.74019	0.03218
609.45442	0.03515
608.16866	0.03880
606.88289	0.04210
605.59712	0.04466
604.31135	0.04655
603.02558	0.04785
601.73981	0.04857
600.45404	0.04880
599.16827	0.04864
597.88250	0.04816
596.59674	0.04740
595.31097	0.04646
594.02520	0.04549
592.73943	0.04464
591.45366	0.04398
590.16789	0.04354
588.88212	0.04339
587.59635	0.04359
586.31059	0.04411
585.02482	0.04485
583.73905	0.04573
582.45328	0.04667
581.16751	0.04764
579.88174	0.04867
578.59597	0.04980
577.31020	0.05103
576.02443	0.05224
574.73867	0.05326
573.45290	0.05400
572.16713	0.05462
570.88136	0.05540
569.59559	0.05652
568.30982	0.05798
567.02405	0.05963
565.73828	0.06126
564.45251	0.06273
563.16675	0.06391
561.88098	0.06465
560.59521	0.06478
559.30944	0.06420
558.02367	0.06291
556.73790	0.06108
555.45213	0.05891
554.16636	0.05661
552.88060	0.05430
551.59483	0.05203
550.30906	0.04984
549.02329	0.04779
547.73752	0.04594
546.45175	0.04435
545.16598	0.04303
543.88021	0.04198
542.59444	0.04114
541.30868	0.04041
540.02291	0.03972
538.73714	0.03905
537.45137	0.03842
536.16560	0.03786
534.87983	0.03731
533.59406	0.03667
532.30829	0.03586
531.02253	0.03497
529.73676	0.03414
528.45099	0.03346
527.16522	0.03293
525.87945	0.03246
524.59368	0.03201
523.30791	0.03158
522.02214	0.03117
520.73637	0.03080
519.45061	0.03047
518.16484	0.03018
516.87907	0.02990
515.59330	0.02956
514.30753	0.02913
513.02176	0.02869
511.73599	0.02836
510.45022	0.02816
509.16446	0.02798
507.87869	0.02769
506.59292	0.02729
505.30715	0.02688
504.02138	0.02654
502.73561	0.02629
501.44984	0.02610
500.16407	0.02594
498.87830	0.02587
497.59254	0.02590
496.30677	0.02599
495.02100	0.02601
493.73523	0.02591
492.44946	0.02571
491.16369	0.02549
489.87792	0.02529
488.59215	0.02509
487.30639	0.02490
486.02062	0.02475
484.73485	0.02471
483.44908	0.02478
482.16331	0.02490
480.87754	0.02504
479.59177	0.02516
478.30600	0.02531
477.02023	0.02552
475.73447	0.02579
474.44870	0.02606
473.16293	0.02627
471.87716	0.02631
470.59139	0.02616
469.30562	0.02588
468.01985	0.02561
466.73408	0.02545
465.44832	0.02539
464.16255	0.02532
462.87678	0.02518
461.59101	0.02494
460.30524	0.02463
459.01947	0.02431
457.73370	0.02403
456.44793	0.02385
455.16216	0.02371
453.87640	0.02353
452.59063	0.02326
451.30486	0.02291
450.01909	0.02255
448.73332	0.02224
447.44755	0.02200
446.16178	0.02180
444.87601	0.02162
443.59025	0.02147
442.30448	0.02136
441.01871	0.02123
439.73294	0.02106
438.44717	0.02085
437.16140	0.02065
435.87563	0.02054
434.58986	0.02051
433.30409	0.02049
432.01833	0.02045
430.73256	0.02033
429.44679	0.02013
428.16102	0.01990
426.87525	0.01969
425.58948	0.01954
424.30371	0.01941
423.01794	0.01924
421.73218	0.01899
420.44641	0.01869
419.16064	0.01842
417.87487	0.01823
416.58910	0.01809
415.30333	0.01798
414.01756	0.01788
412.73179	0.01778
411.44602	0.01766
410.16026	0.01751
408.87449	0.01735
407.58872	0.01718
406.30295	0.01701
405.01718	0.01685
403.73141	0.01673
402.44564	0.01670
401.15987	0.01674
399.87411	0.01680
