3997.45528	0.05278
3996.16951	0.05207
3994.88374	0.05107
3993.59798	0.05016
3992.31221	0.04975
3991.02644	0.04972
3989.74067	0.04966
3988.45490	0.04938
3987.16913	0.04914
3985.88336	0.04930
3984.59759	0.04993
3983.31183	0.05066
3982.02606	0.05102
3980.74029	0.05082
3979.45452	0.05021
3978.16875	0.04946
3976.88298	0.04875
3975.59721	0.04814
3974.31144	0.04777
3973.02567	0.04779
3971.73991	0.04825
3970.45414	0.04896
3969.16837	0.04957
3967.88260	0.04974
3966.59683	0.04938
3965.31106	0.04875
3964.02529	0.04839
3962.73952	0.04871
3961.45376	0.04955
3960.16799	0.05035
3958.88222	0.05054
3957.59645	0.05003
3956.31068	0.04912
3955.02491	0.04818
3953.73914	0.04739
3952.45337	0.04682
3951.16760	0.04655
3949.88184	0.04671
3948.59607	0.04727
3947.31030	0.04795
3946.02453	0.04844
3944.73876	0.04857
3943.45299	0.04828
3942.16722	0.04759
3940.88145	0.04666
3939.59569	0.04588
3938.30992	0.04573
3937.02415	0.04635
3935.73838	0.04743
3934.45261	0.04842
3933.16684	0.04906
3931.88107	0.04941
3930.59530	0.04956
3929.30953	0.04945
3928.02377	0.04888
3926.73800	0.04791
3925.45223	0.04688
3924.16646	0.04622
3922.88069	0.04615
3921.59492	0.04654
3920.30915	0.04696
3919.02338	0.04709
3917.73762	0.04696
3916.45185	0.04693
3915.16608	0.04720
3913.88031	0.04750
3912.59454	0.04727
3911.30877	0.04630
3910.02300	0.04513
3908.73723	0.04454
3907.45146	0.04481
3906.16570	0.04556
3904.87993	0.04620
3903.59416	0.04652
3902.30839	0.04663
3901.02262	0.04674
3899.73685	0.04688
3898.45108	0.04696
3897.16531	0.04691
3895.87955	0.04674
3894.59378	0.04660
3893.30801	0.04663
3892.02224	0.04682
3890.73647	0.04690
3889.45070	0.04671
3888.16493	0.04646
3886.87916	0.04643
3885.59339	0.04661
3884.30763	0.04681
3883.02186	0.04680
3881.73609	0.04644
3880.45032	0.04572
3879.16455	0.04491
3877.87878	0.04442
3876.59301	0.04438
3875.30724	0.04456
3874.02148	0.04463
3872.73571	0.04451
3871.44994	0.04438
3870.16417	0.04445
3868.87840	0.04482
3867.59263	0.04546
3866.30686	0.04614
3865.02109	0.04648
3863.73532	0.04642
3862.44956	0.04635
3861.16379	0.04658
3859.87802	0.04692
3858.59225	0.04687
3857.30648	0.04620
3856.02071	0.04522
3854.73494	0.04441
3853.44917	0.04400
3852.16341	0.04392
3850.87764	0.04403
3849.59187	0.04417
3848.30610	0.04420
3847.02033	0.04404
3845.73456	0.04381
3844.44879	0.04380
3843.16302	0.04413
3841.87725	0.04456
3840.59149	0.04464
3839.30572	0.04421
3838.01995	0.04360
3836.73418	0.04330
3835.44841	0.04354
3834.16264	0.04412
3832.87687	0.04467
3831.59110	0.04495
3830.30534	0.04502
3829.01957	0.04498
3827.73380	0.04486
3826.44803	0.04467
3825.16226	0.04458
3823.87649	0.04472
3822.59072	0.04485
3821.30495	0.04451
3820.01918	0.04362
3818.73342	0.04278
3817.44765	0.04264
3816.16188	0.04319
3814.87611	0.04390
3813.59034	0.04438
3812.30457	0.04452
3811.01880	0.04443
3809.73303	0.04431
3808.44726	0.04427
3807.16150	0.04413
3805.87573	0.04364
3804.58996	0.04284
3803.30419	0.04202
3802.01842	0.04144
3800.73265	0.04119
3799.44688	0.04127
3798.16111	0.04152
3796.87535	0.04169
3795.58958	0.04162
3794.30381	0.04147
3793.01804	0.04143
3791.73227	0.04155
3790.44650	0.04173
3789.16073	0.04193
3787.87496	0.04213
3786.58919	0.04232
3785.30343	0.04240
3784.01766	0.04231
3782.73189	0.04211
3781.44612	0.04191
3780.16035	0.04177
3778.87458	0.04171
3777.58881	0.04179
3776.30304	0.04204
3775.01728	0.04243
3773.73151	0.04294
3772.44574	0.04354
3771.15997	0.04401
3769.87420	0.04400
3768.58843	0.04343
3767.30266	0.04267
3766.01689	0.04216
3764.73112	0.04206
3763.44536	0.04223
3762.15959	0.04235
3760.87382	0.04223
3759.58805	0.04192
3758.30228	0.04166
3757.01651	0.04158
3755.73074	0.04165
3754.44497	0.04174
3753.15921	0.04170
3751.87344	0.04144
3750.58767	0.04110
3749.30190	0.04092
3748.01613	0.04113
3746.73036	0.04189
3745.44459	0.04283
3744.15882	0.04316
3742.87305	0.04254
3741.58729	0.04154
3740.30152	0.04093
3739.01575	0.04095
3737.72998	0.04141
3736.44421	0.04193
3735.15844	0.04225
3733.87267	0.04228
3732.58690	0.04190
3731.30114	0.04106
3730.01537	0.04009
3728.72960	0.03953
3727.44383	0.03962
3726.15806	0.04007
3724.87229	0.04051
3723.58652	0.04078
3722.30075	0.04089
3721.01498	0.04084
3719.72922	0.04071
3718.44345	0.04069
3717.15768	0.04090
3715.87191	0.04123
3714.58614	0.04130
3713.30037	0.04073
3712.01460	0.03952
3710.72883	0.03808
3709.44307	0.03695
3708.15730	0.03643
3706.87153	0.03660
3705.58576	0.03739
3704.29999	0.03858
3703.01422	0.03981
3701.72845	0.04069
3700.44268	0.04102
3699.15691	0.04087
3697.87115	0.04043
3696.58538	0.03996
3695.29961	0.03966
3694.01384	0.03956
3692.72807	0.03946
3691.44230	0.03906
3690.15653	0.03828
3688.87076	0.03735
3687.58500	0.03668
3686.29923	0.03650
3685.01346	0.03672
3683.72769	0.03700
3682.44192	0.03718
3681.15615	0.03735
3679.87038	0.03759
3678.58461	0.03787
3677.29884	0.03814
3676.01308	0.03835
3674.72731	0.03852
3673.44154	0.03892
3672.15577	0.03969
3670.87000	0.04048
3669.58423	0.04072
3668.29846	0.04026
3667.01269	0.03932
3665.72693	0.03822
3664.44116	0.03736
3663.15539	0.03710
3661.86962	0.03754
3660.58385	0.03838
3659.29808	0.03917
3658.01231	0.03966
3656.72654	0.03986
3655.44077	0.03997
3654.15501	0.04016
3652.86924	0.04037
3651.58347	0.04035
3650.29770	0.03998
3649.01193	0.03952
3647.72616	0.03935
3646.44039	0.03964
3645.15462	0.04020
3643.86886	0.04066
3642.58309	0.04076
3641.29732	0.04059
3640.01155	0.04055
3638.72578	0.04086
3637.44001	0.04124
3636.15424	0.04120
3634.86847	0.04063
3633.58270	0.03995
3632.29694	0.03972
3631.01117	0.04013
3629.72540	0.04088
3628.43963	0.04154
3627.15386	0.04189
3625.86809	0.04188
3624.58232	0.04146
3623.29655	0.04085
3622.01079	0.04047
3620.72502	0.04057
3619.43925	0.04088
3618.15348	0.04101
3616.86771	0.04090
3615.58194	0.04073
3614.29617	0.04055
3613.01040	0.04024
3611.72463	0.03980
3610.43887	0.03956
3609.15310	0.03989
3607.86733	0.04084
3606.58156	0.04200
3605.29579	0.04272
3604.01002	0.04261
3602.72425	0.04194
3601.43848	0.04148
3600.15272	0.04179
3598.86695	0.04272
3597.58118	0.04369
3596.29541	0.04424
3595.00964	0.04431
3593.72387	0.04408
3592.43810	0.04367
3591.15233	0.04321
3589.86656	0.04294
3588.58080	0.04299
3587.29503	0.04322
3586.00926	0.04334
3584.72349	0.04321
3583.43772	0.04287
3582.15195	0.04250
3580.86618	0.04221
3579.58041	0.04206
3578.29464	0.04206
3577.00888	0.04224
3575.72311	0.04266
3574.43734	0.04325
3573.15157	0.04375
3571.86580	0.04403
3570.58003	0.04426
3569.29426	0.04472
3568.00849	0.04526
3566.72273	0.04549
3565.43696	0.04532
3564.15119	0.04514
3562.86542	0.04533
3561.57965	0.04573
3560.29388	0.04584
3559.00811	0.04533
3557.72234	0.04436
3556.43657	0.04343
3555.15081	0.04300
3553.86504	0.04327
3552.57927	0.04404
3551.29350	0.04485
3550.00773	0.04535
3548.72196	0.04558
3547.43619	0.04588
3546.15042	0.04649
3544.86466	0.04734
3543.57889	0.04816
3542.29312	0.04873
3541.00735	0.04895
3539.72158	0.04876
3538.43581	0.04811
3537.15004	0.04712
3535.86427	0.04605
3534.57850	0.04512
3533.29274	0.04446
3532.00697	0.04411
3530.72120	0.04415
3529.43543	0.04448
3528.14966	0.04488
3526.86389	0.04515
3525.57812	0.04528
3524.29235	0.04538
3523.00659	0.04552
3521.72082	0.04569
3520.43505	0.04587
3519.14928	0.04607
3517.86351	0.04631
3516.57774	0.04646
3515.29197	0.04638
3514.00620	0.04608
3512.72043	0.04588
3511.43467	0.04605
3510.14890	0.04653
3508.86313	0.04699
3507.57736	0.04730
3506.29159	0.04754
3505.00582	0.04778
3503.72005	0.04794
3502.43428	0.04792
3501.14852	0.04777
3499.86275	0.04755
3498.57698	0.04729
3497.29121	0.04696
3496.00544	0.04662
3494.71967	0.04635
3493.43390	0.04630
3492.14813	0.04658
3490.86236	0.04718
3489.57660	0.04793
3488.29083	0.04856
3487.00506	0.04895
3485.71929	0.04907
3484.43352	0.04890
3483.14775	0.04848
3481.86198	0.04801
3480.57621	0.04779
3479.29045	0.04793
3478.00468	0.04823
3476.71891	0.04845
3475.43314	0.04853
3474.14737	0.04858
3472.86160	0.04871
3471.57583	0.04890
3470.29006	0.04905
3469.00429	0.04909
3467.71853	0.04908
3466.43276	0.04911
3465.14699	0.04921
3463.86122	0.04931
3462.57545	0.04936
3461.28968	0.04946
3460.00391	0.04973
3458.71814	0.05012
3457.43238	0.05046
3456.14661	0.05069
3454.86084	0.05088
3453.57507	0.05100
3452.28930	0.05092
3451.00353	0.05063
3449.71776	0.05030
3448.43199	0.05010
3447.14622	0.05006
3445.86046	0.05015
3444.57469	0.05043
3443.28892	0.05091
3442.00315	0.05140
3440.71738	0.05165
3439.43161	0.05158
3438.14584	0.05140
3436.86007	0.05138
3435.57431	0.05158
3434.28854	0.05179
3433.00277	0.05179
3431.71700	0.05164
3430.43123	0.05159
3429.14546	0.05180
3427.85969	0.05212
3426.57392	0.05231
3425.28815	0.05232
3424.00239	0.05224
3422.71662	0.05214
3421.43085	0.05207
3420.14508	0.05204
3418.85931	0.05206
3417.57354	0.05209
3416.28777	0.05209
3415.00200	0.05208
3413.71624	0.05216
3412.43047	0.05236
3411.14470	0.05261
3409.85893	0.05286
3408.57316	0.05307
3407.28739	0.05324
3406.00162	0.05341
3404.71585	0.05357
3403.43008	0.05363
3402.14432	0.05351
3400.85855	0.05313
3399.57278	0.05260
3398.28701	0.05212
3397.00124	0.05196
3395.71547	0.05221
3394.42970	0.05275
3393.14393	0.05338
3391.85817	0.05391
3390.57240	0.05420
3389.28663	0.05417
3388.00086	0.05380
3386.71509	0.05318
3385.42932	0.05247
3384.14355	0.05190
3382.85778	0.05165
3381.57201	0.05179
3380.28625	0.05223
3379.00048	0.05280
3377.71471	0.05343
3376.42894	0.05407
3375.14317	0.05458
3373.85740	0.05479
3372.57163	0.05466
3371.28586	0.05435
3370.00010	0.05413
3368.71433	0.05418
3367.42856	0.05450
3366.14279	0.05487
3364.85702	0.05501
3363.57125	0.05485
3362.28548	0.05451
3360.99971	0.05424
3359.71394	0.05415
3358.42818	0.05426
3357.14241	0.05450
3355.85664	0.05471
3354.57087	0.05471
3353.28510	0.05442
3351.99933	0.05398
3350.71356	0.05372
3349.42779	0.05382
3348.14202	0.05411
3346.85626	0.05425
3345.57049	0.05405
3344.28472	0.05363
3342.99895	0.05331
3341.71318	0.05330
3340.42741	0.05358
3339.14164	0.05399
3337.85587	0.05433
3336.57011	0.05450
3335.28434	0.05444
3333.99857	0.05417
3332.71280	0.05384
3331.42703	0.05369
3330.14126	0.05386
3328.85549	0.05428
3327.56972	0.05471
3326.28395	0.05495
3324.99819	0.05487
3323.71242	0.05448
3322.42665	0.05391
3321.14088	0.05342
3319.85511	0.05323
3318.56934	0.05341
3317.28357	0.05382
3315.99780	0.05427
3314.71204	0.05462
3313.42627	0.05486
3312.14050	0.05502
3310.85473	0.05514
3309.56896	0.05513
3308.28319	0.05492
3306.99742	0.05459
3305.71165	0.05424
3304.42588	0.05387
3303.14012	0.05346
3301.85435	0.05307
3300.56858	0.05287
3299.28281	0.05289
3297.99704	0.05300
3296.71127	0.05309
3295.42550	0.05318
3294.13973	0.05334
3292.85397	0.05358
3291.56820	0.05383
3290.28243	0.05392
3288.99666	0.05369
3287.71089	0.05317
3286.42512	0.05258
3285.13935	0.05221
3283.85358	0.05222
3282.56781	0.05262
3281.28205	0.05324
3279.99628	0.05380
3278.71051	0.05404
3277.42474	0.05388
3276.13897	0.05346
3274.85320	0.05297
3273.56743	0.05257
3272.28166	0.05235
3270.99590	0.05229
3269.71013	0.05229
3268.42436	0.05228
3267.13859	0.05234
3265.85282	0.05251
3264.56705	0.05271
3263.28128	0.05280
3261.99551	0.05286
3260.70974	0.05309
3259.42398	0.05353
3258.13821	0.05392
3256.85244	0.05397
3255.56667	0.05363
3254.28090	0.05307
3252.99513	0.05251
3251.70936	0.05205
3250.42359	0.05168
3249.13783	0.05138
3247.85206	0.05119
3246.56629	0.05110
3245.28052	0.05113
3243.99475	0.05129
3242.70898	0.05155
3241.42321	0.05181
3240.13744	0.05201
3238.85167	0.05209
3237.56591	0.05201
3236.28014	0.05181
3234.99437	0.05153
3233.70860	0.05122
3232.42283	0.05091
3231.13706	0.05071
3229.85129	0.05069
3228.56552	0.05087
3227.27976	0.05112
3225.99399	0.05135
3224.70822	0.05156
3223.42245	0.05175
3222.13668	0.05187
3220.85091	0.05179
3219.56514	0.05149
3218.27937	0.05107
3216.99360	0.05076
3215.70784	0.05069
3214.42207	0.05081
3213.13630	0.05091
3211.85053	0.05086
3210.56476	0.05070
3209.27899	0.05048
3207.99322	0.05019
3206.70745	0.04978
3205.42169	0.04932
3204.13592	0.04906
3202.85015	0.04919
3201.56438	0.04960
3200.27861	0.04996
3198.99284	0.05010
3197.70707	0.05008
3196.42130	0.05010
3195.13553	0.05010
3193.84977	0.04990
3192.56400	0.04944
3191.27823	0.04892
3189.99246	0.04856
3188.70669	0.04841
3187.42092	0.04838
3186.13515	0.04837
3184.84938	0.04832
3183.56362	0.04830
3182.27785	0.04848
3180.99208	0.04892
3179.70631	0.04953
3178.42054	0.05006
3177.13477	0.05026
3175.84900	0.04997
3174.56323	0.04921
3173.27746	0.04822
3171.99170	0.04732
3170.70593	0.04677
3169.42016	0.04661
3168.13439	0.04674
3166.84862	0.04701
3165.56285	0.04733
3164.27708	0.04763
3162.99131	0.04778
3161.70555	0.04765
3160.41978	0.04725
3159.13401	0.04681
3157.84824	0.04668
3156.56247	0.04700
3155.27670	0.04763
3153.99093	0.04817
3152.70516	0.04831
3151.41939	0.04804
3150.13363	0.04758
3148.84786	0.04708
3147.56209	0.04657
3146.27632	0.04607
3144.99055	0.04564
3143.70478	0.04534
3142.41901	0.04522
3141.13324	0.04536
3139.84748	0.04573
3138.56171	0.04616
3137.27594	0.04644
3135.99017	0.04652
3134.70440	0.04652
3133.41863	0.04650
3132.13286	0.04638
3130.84709	0.04609
3129.56132	0.04563
3128.27556	0.04515
3126.98979	0.04482
3125.70402	0.04478
3124.41825	0.04501
3123.13248	0.04529
3121.84671	0.04542
3120.56094	0.04537
3119.27517	0.04527
3117.98940	0.04525
3116.70364	0.04533
3115.41787	0.04543
3114.13210	0.04543
3112.84633	0.04524
3111.56056	0.04484
3110.27479	0.04431
3108.98902	0.04382
3107.70325	0.04353
3106.41749	0.04353
3105.13172	0.04369
3103.84595	0.04373
3102.56018	0.04348
3101.27441	0.04305
3099.98864	0.04277
3098.70287	0.04279
3097.41710	0.04300
3096.13133	0.04316
3094.84557	0.04317
3093.55980	0.04309
3092.27403	0.04298
3090.98826	0.04284
3089.70249	0.04267
3088.41672	0.04260
3087.13095	0.04279
3085.84518	0.04326
3084.55942	0.04385
3083.27365	0.04427
3081.98788	0.04430
3080.70211	0.04395
3079.41634	0.04348
3078.13057	0.04312
3076.84480	0.04299
3075.55903	0.04307
3074.27326	0.04334
3072.98750	0.04369
3071.70173	0.04394
3070.41596	0.04393
3069.13019	0.04366
3067.84442	0.04335
3066.55865	0.04320
3065.27288	0.04324
3063.98711	0.04331
3062.70135	0.04329
3061.41558	0.04311
3060.12981	0.04282
3058.84404	0.04250
3057.55827	0.04224
3056.27250	0.04211
3054.98673	0.04209
3053.70096	0.04218
3052.41519	0.04238
3051.12943	0.04268
3049.84366	0.04299
3048.55789	0.04320
3047.27212	0.04318
3045.98635	0.04283
3044.70058	0.04220
3043.41481	0.04149
3042.12904	0.04099
3040.84328	0.04089
3039.55751	0.04114
3038.27174	0.04152
3036.98597	0.04178
3035.70020	0.04174
3034.41443	0.04142
3033.12866	0.04107
3031.84289	0.04091
3030.55712	0.04098
3029.27136	0.04111
3027.98559	0.04114
3026.69982	0.04110
3025.41405	0.04107
3024.12828	0.04105
3022.84251	0.04093
3021.55674	0.04068
3020.27097	0.04040
3018.98521	0.04021
3017.69944	0.04011
3016.41367	0.04003
3015.12790	0.03991
3013.84213	0.03978
3012.55636	0.03967
3011.27059	0.03963
3009.98482	0.03962
3008.69905	0.03954
3007.41329	0.03936
3006.12752	0.03921
3004.84175	0.03924
3003.55598	0.03948
3002.27021	0.03975
3000.98444	0.03982
2999.69867	0.03968
2998.41290	0.03953
2997.12714	0.03953
2995.84137	0.03958
2994.55560	0.03949
2993.26983	0.03932
2991.98406	0.03925
2990.69829	0.03935
2989.41252	0.03951
2988.12675	0.03970
2986.84098	0.03992
2985.55522	0.04015
2984.26945	0.04032
2982.98368	0.04051
2981.69791	0.04085
2980.41214	0.04131
2979.12637	0.04167
2977.84060	0.04178
2976.55483	0.04173
2975.26907	0.04165
2973.98330	0.04161
2972.69753	0.04163
2971.41176	0.04183
2970.12599	0.04229
2968.84022	0.04298
2967.55445	0.04372
2966.26868	0.04436
2964.98291	0.04484
2963.69715	0.04518
2962.41138	0.04547
2961.12561	0.04577
2959.83984	0.04606
2958.55407	0.04636
2957.26830	0.04672
2955.98253	0.04720
2954.69676	0.04777
2953.41100	0.04831
2952.12523	0.04868
2950.83946	0.04883
2949.55369	0.04881
2948.26792	0.04874
2946.98215	0.04872
2945.69638	0.04875
2944.41061	0.04880
2943.12484	0.04887
2941.83908	0.04899
2940.55331	0.04918
2939.26754	0.04940
2937.98177	0.04962
2936.69600	0.04984
2935.41023	0.05007
2934.12446	0.05030
2932.83869	0.05049
2931.55293	0.05067
2930.26716	0.05094
2928.98139	0.05135
2927.69562	0.05184
2926.40985	0.05224
2925.12408	0.05245
2923.83831	0.05248
2922.55254	0.05239
2921.26677	0.05225
2919.98101	0.05210
2918.69524	0.05194
2917.40947	0.05171
2916.12370	0.05138
2914.83793	0.05096
2913.55216	0.05052
2912.26639	0.05013
2910.98062	0.04985
2909.69486	0.04967
2908.40909	0.04952
2907.12332	0.04932
2905.83755	0.04906
2904.55178	0.04877
2903.26601	0.04851
2901.98024	0.04827
2900.69447	0.04802
2899.40870	0.04775
2898.12294	0.04747
2896.83717	0.04720
2895.55140	0.04691
2894.26563	0.04659
2892.97986	0.04629
2891.69409	0.04606
2890.40832	0.04591
2889.12255	0.04573
2887.83678	0.04540
2886.55102	0.04492
2885.26525	0.04445
2883.97948	0.04414
2882.69371	0.04405
2881.40794	0.04411
2880.12217	0.04429
2878.83640	0.04457
2877.55063	0.04487
2876.26487	0.04506
2874.97910	0.04511
2873.69333	0.04511
2872.40756	0.04519
2871.12179	0.04536
2869.83602	0.04554
2868.55025	0.04566
2867.26448	0.04570
2865.97871	0.04577
2864.69295	0.04594
2863.40718	0.04610
2862.12141	0.04605
2860.83564	0.04573
2859.54987	0.04529
2858.26410	0.04492
2856.97833	0.04467
2855.69256	0.04450
2854.40680	0.04438
2853.12103	0.04433
2851.83526	0.04432
2850.54949	0.04430
2849.26372	0.04420
2847.97795	0.04398
2846.69218	0.04368
2845.40641	0.04335
2844.12064	0.04307
2842.83488	0.04285
2841.54911	0.04256
2840.26334	0.04206
2838.97757	0.04145
2837.69180	0.04096
2836.40603	0.04075
2835.12026	0.04070
2833.83449	0.04057
2832.54873	0.04021
2831.26296	0.03968
2829.97719	0.03916
2828.69142	0.03872
2827.40565	0.03838
2826.11988	0.03811
2824.83411	0.03796
2823.54834	0.03795
2822.26257	0.03800
2820.97681	0.03795
2819.69104	0.03772
2818.40527	0.03736
2817.11950	0.03703
2815.83373	0.03680
2814.54796	0.03672
2813.26219	0.03677
2811.97642	0.03687
2810.69066	0.03687
2809.40489	0.03663
2808.11912	0.03617
2806.83335	0.03568
2805.54758	0.03535
2804.26181	0.03527
2802.97604	0.03543
2801.69027	0.03576
2800.40450	0.03611
2799.11874	0.03623
2797.83297	0.03602
2796.54720	0.03557
2795.26143	0.03518
2793.97566	0.03501
2792.68989	0.03502
2791.40412	0.03508
2790.11835	0.03512
2788.83259	0.03515
2787.54682	0.03518
2786.26105	0.03521
2784.97528	0.03517
2783.68951	0.03505
2782.40374	0.03485
2781.11797	0.03460
2779.83220	0.03438
2778.54643	0.03430
2777.26067	0.03445
2775.97490	0.03478
2774.68913	0.03510
2773.40336	0.03525
2772.11759	0.03515
2770.83182	0.03486
2769.54605	0.03449
2768.26028	0.03418
2766.97452	0.03400
2765.68875	0.03392
2764.40298	0.03387
2763.11721	0.03386
2761.83144	0.03390
2760.54567	0.03400
2759.25990	0.03404
2757.97413	0.03391
2756.68836	0.03363
2755.40260	0.03340
2754.11683	0.03335
2752.83106	0.03346
2751.54529	0.03357
2750.25952	0.03358
2748.97375	0.03350
2747.68798	0.03336
2746.40221	0.03319
2745.11645	0.03303
2743.83068	0.03290
2742.54491	0.03279
2741.25914	0.03271
2739.97337	0.03263
2738.68760	0.03257
2737.40183	0.03252
2736.11606	0.03251
2734.83029	0.03258
2733.54453	0.03274
2732.25876	0.03293
2730.97299	0.03306
2729.68722	0.03308
2728.40145	0.03305
2727.11568	0.03302
2725.82991	0.03298
2724.54414	0.03289
2723.25838	0.03271
2721.97261	0.03246
2720.68684	0.03222
2719.40107	0.03203
2718.11530	0.03191
2716.82953	0.03183
2715.54376	0.03179
2714.25799	0.03181
2712.97222	0.03184
2711.68646	0.03186
2710.40069	0.03187
2709.11492	0.03190
2707.82915	0.03197
2706.54338	0.03202
2705.25761	0.03202
2703.97184	0.03197
2702.68607	0.03189
2701.40031	0.03179
2700.11454	0.03170
2698.82877	0.03164
2697.54300	0.03165
2696.25723	0.03175
2694.97146	0.03189
2693.68569	0.03198
2692.39992	0.03196
2691.11415	0.03182
2689.82839	0.03164
2688.54262	0.03151
2687.25685	0.03143
2685.97108	0.03136
2684.68531	0.03123
2683.39954	0.03104
2682.11377	0.03087
2680.82800	0.03079
2679.54224	0.03079
2678.25647	0.03081
2676.97070	0.03084
2675.68493	0.03093
2674.39916	0.03110
2673.11339	0.03126
2671.82762	0.03134
2670.54185	0.03131
2669.25608	0.03122
2667.97032	0.03118
2666.68455	0.03122
2665.39878	0.03127
2664.11301	0.03119
2662.82724	0.03099
2661.54147	0.03081
2660.25570	0.03079
2658.96993	0.03094
2657.68417	0.03113
2656.39840	0.03117
2655.11263	0.03099
2653.82686	0.03070
2652.54109	0.03051
2651.25532	0.03052
2649.96955	0.03062
2648.68378	0.03058
2647.39801	0.03037
2646.11225	0.03014
2644.82648	0.03000
2643.54071	0.02998
2642.25494	0.03000
2640.96917	0.02996
2639.68340	0.02983
2638.39763	0.02962
2637.11186	0.02944
2635.82609	0.02937
2634.54033	0.02943
2633.25456	0.02950
2631.96879	0.02947
2630.68302	0.02927
2629.39725	0.02893
2628.11148	0.02852
2626.82571	0.02812
2625.53994	0.02784
2624.25418	0.02769
2622.96841	0.02765
2621.68264	0.02762
2620.39687	0.02761
2619.11110	0.02771
2617.82533	0.02795
2616.53956	0.02821
2615.25379	0.02829
2613.96802	0.02815
2612.68226	0.02785
2611.39649	0.02752
2610.11072	0.02717
2608.82495	0.02687
2607.53918	0.02673
2606.25341	0.02685
2604.96764	0.02714
2603.68187	0.02735
2602.39611	0.02726
2601.11034	0.02688
2599.82457	0.02640
2598.53880	0.02609
2597.25303	0.02598
2595.96726	0.02594
2594.68149	0.02577
2593.39572	0.02551
2592.10995	0.02537
2590.82419	0.02550
2589.53842	0.02589
2588.25265	0.02628
2586.96688	0.02644
2585.68111	0.02631
2584.39534	0.02602
2583.10957	0.02576
2581.82380	0.02567
2580.53804	0.02575
2579.25227	0.02590
2577.96650	0.02601
2576.68073	0.02599
2575.39496	0.02594
2574.10919	0.02596
2572.82342	0.02604
2571.53765	0.02600
2570.25188	0.02573
2568.96612	0.02541
2567.68035	0.02529
2566.39458	0.02543
2565.10881	0.02557
2563.82304	0.02540
2562.53727	0.02501
2561.25150	0.02473
2559.96573	0.02477
2558.67997	0.02495
2557.39420	0.02496
2556.10843	0.02477
2554.82266	0.02460
2553.53689	0.02457
2552.25112	0.02458
2550.96535	0.02449
2549.67958	0.02437
2548.39381	0.02436
2547.10805	0.02451
2545.82228	0.02469
2544.53651	0.02478
2543.25074	0.02472
2541.96497	0.02456
2540.67920	0.02436
2539.39343	0.02422
2538.10766	0.02426
2536.82190	0.02451
2535.53613	0.02480
2534.25036	0.02477
2532.96459	0.02427
2531.67882	0.02357
2530.39305	0.02318
2529.10728	0.02344
2527.82151	0.02420
2526.53574	0.02495
2525.24998	0.02519
2523.96421	0.02478
2522.67844	0.02401
2521.39267	0.02333
2520.10690	0.02301
2518.82113	0.02305
2517.53536	0.02324
2516.24959	0.02336
2514.96383	0.02336
2513.67806	0.02337
2512.39229	0.02350
2511.10652	0.02367
2509.82075	0.02372
2508.53498	0.02362
2507.24921	0.02340
2505.96344	0.02312
2504.67767	0.02282
2503.39191	0.02262
2502.10614	0.02264
2500.82037	0.02292
2499.53460	0.02331
2498.24883	0.02363
2496.96306	0.02377
2495.67729	0.02377
2494.39152	0.02372
2493.10576	0.02371
2491.81999	0.02375
2490.53422	0.02375
2489.24845	0.02362
2487.96268	0.02341
2486.67691	0.02325
2485.39114	0.02317
2484.10537	0.02315
2482.81960	0.02315
2481.53384	0.02318
2480.24807	0.02324
2478.96230	0.02329
2477.67653	0.02332
2476.39076	0.02333
2475.10499	0.02331
2473.81922	0.02322
2472.53345	0.02297
2471.24769	0.02258
2469.96192	0.02220
2468.67615	0.02201
2467.39038	0.02207
2466.10461	0.02231
2464.81884	0.02262
2463.53307	0.02289
2462.24730	0.02305
2460.96153	0.02306
2459.67577	0.02297
2458.39000	0.02284
2457.10423	0.02276
2455.81846	0.02283
2454.53269	0.02306
2453.24692	0.02329
2451.96115	0.02333
2450.67538	0.02312
2449.38962	0.02280
2448.10385	0.02259
2446.81808	0.02260
2445.53231	0.02275
2444.24654	0.02285
2442.96077	0.02281
2441.67500	0.02270
2440.38923	0.02262
2439.10346	0.02258
2437.81770	0.02254
2436.53193	0.02250
2435.24616	0.02244
2433.96039	0.02236
2432.67462	0.02230
2431.38885	0.02237
2430.10308	0.02264
2428.81731	0.02307
2427.53155	0.02348
2426.24578	0.02366
2424.96001	0.02353
2423.67424	0.02316
2422.38847	0.02270
2421.10270	0.02234
2419.81693	0.02221
2418.53116	0.02228
2417.24539	0.02236
2415.95963	0.02226
2414.67386	0.02198
2413.38809	0.02163
2412.10232	0.02137
2410.81655	0.02132
2409.53078	0.02147
2408.24501	0.02165
2406.95924	0.02165
2405.67347	0.02147
2404.38771	0.02136
2403.10194	0.02145
2401.81617	0.02164
2400.53040	0.02173
2399.24463	0.02158
2397.95886	0.02137
2396.67309	0.02123
2395.38732	0.02122
2394.10156	0.02133
2392.81579	0.02139
2391.53002	0.02125
2390.24425	0.02092
2388.95848	0.02056
2387.67271	0.02036
2386.38694	0.02041
2385.10117	0.02066
2383.81540	0.02098
2382.52964	0.02123
2381.24387	0.02137
2379.95810	0.02143
2378.67233	0.02146
2377.38656	0.02148
2376.10079	0.02147
2374.81502	0.02143
2373.52925	0.02140
2372.24349	0.02141
2370.95772	0.02144
2369.67195	0.02148
2368.38618	0.02157
2367.10041	0.02176
2365.81464	0.02209
2364.52887	0.02241
2363.24310	0.02262
2361.95733	0.02272
2360.67157	0.02283
2359.38580	0.02296
2358.10003	0.02307
2356.81426	0.02309
2355.52849	0.02303
2354.24272	0.02297
2352.95695	0.02294
2351.67118	0.02292
2350.38542	0.02278
2349.09965	0.02247
2347.81388	0.02208
2346.52811	0.02181
2345.24234	0.02175
2343.95657	0.02178
2342.67080	0.02182
2341.38503	0.02195
2340.09926	0.02213
2338.81350	0.02220
2337.52773	0.02222
2336.24196	0.02245
2334.95619	0.02275
2333.67042	0.02268
2332.38465	0.02224
2331.09888	0.02187
2329.81311	0.02168
2328.52735	0.02170
2327.24158	0.02231
2325.95581	0.02319
2324.67004	0.02371
2323.38427	0.02379
2322.09850	0.02346
2320.81273	0.02273
2319.52696	0.02216
2318.24119	0.02194
2316.95543	0.02190
2315.66966	0.02208
2314.38389	0.02232
2313.09812	0.02248
2311.81235	0.02257
2310.52658	0.02241
2309.24081	0.02199
2307.95504	0.02146
2306.66928	0.02101
2305.38351	0.02087
2304.09774	0.02099
2302.81197	0.02110
2301.52620	0.02102
2300.24043	0.02075
2298.95466	0.02049
2297.66889	0.02036
2296.38312	0.02030
2295.09736	0.02024
2293.81159	0.02024
2292.52582	0.02042
2291.24005	0.02073
2289.95428	0.02096
2288.66851	0.02090
2287.38274	0.02047
2286.09697	0.01986
2284.81121	0.01934
2283.52544	0.01915
2282.23967	0.01926
2280.95390	0.01941
2279.66813	0.01931
2278.38236	0.01893
2277.09659	0.01846
2275.81082	0.01812
2274.52505	0.01793
2273.23929	0.01783
2271.95352	0.01786
2270.66775	0.01801
2269.38198	0.01821
2268.09621	0.01835
2266.81044	0.01839
2265.52467	0.01833
2264.23890	0.01822
2262.95314	0.01815
2261.66737	0.01817
2260.38160	0.01825
2259.09583	0.01828
2257.81006	0.01832
2256.52429	0.01853
2255.23852	0.01893
2253.95275	0.01918
2252.66698	0.01890
2251.38122	0.01820
2250.09545	0.01770
2248.80968	0.01788
2247.52391	0.01836
2246.23814	0.01862
2244.95237	0.01829
2243.66660	0.01742
2242.38083	0.01632
2241.09507	0.01536
2239.80930	0.01490
2238.52353	0.01503
2237.23776	0.01538
2235.95199	0.01543
2234.66622	0.01505
2233.38045	0.01456
2232.09468	0.01434
2230.80891	0.01448
2229.52315	0.01484
2228.23738	0.01533
2226.95161	0.01583
2225.66584	0.01610
2224.38007	0.01599
2223.09430	0.01559
2221.80853	0.01518
2220.52276	0.01492
2219.23700	0.01485
2217.95123	0.01486
2216.66546	0.01471
2215.37969	0.01422
2214.09392	0.01360
2212.80815	0.01328
2211.52238	0.01343
2210.23661	0.01370
2208.95084	0.01383
2207.66508	0.01404
2206.37931	0.01461
2205.09354	0.01531
2203.80777	0.01555
2202.52200	0.01503
2201.23623	0.01409
2199.95046	0.01343
2198.66469	0.01357
2197.37893	0.01444
2196.09316	0.01540
2194.80739	0.01573
2193.52162	0.01520
2192.23585	0.01421
2190.95008	0.01342
2189.66431	0.01316
2188.37854	0.01322
2187.09277	0.01312
2185.80701	0.01268
2184.52124	0.01210
2183.23547	0.01157
2181.94970	0.01096
2180.66393	0.01004
2179.37816	0.00891
2178.09239	0.00799
2176.80662	0.00771
2175.52085	0.00815
2174.23509	0.00897
2172.94932	0.00967
2171.66355	0.01009
2170.37778	0.01052
2169.09201	0.01130
2167.80624	0.01233
2166.52047	0.01318
2165.23470	0.01360
2163.94894	0.01363
2162.66317	0.01330
2161.37740	0.01249
2160.09163	0.01121
2158.80586	0.00973
2157.52009	0.00837
2156.23432	0.00730
2154.94855	0.00666
2153.66278	0.00650
2152.37702	0.00665
2151.09125	0.00684
2149.80548	0.00695
2148.51971	0.00711
2147.23394	0.00739
2145.94817	0.00775
2144.66240	0.00818
2143.37663	0.00873
2142.09087	0.00940
2140.80510	0.01005
2139.51933	0.01050
2138.23356	0.01070
2136.94779	0.01074
2135.66202	0.01084
2134.37625	0.01108
2133.09048	0.01132
2131.80471	0.01135
2130.51895	0.01118
2129.23318	0.01109
2127.94741	0.01131
2126.66164	0.01178
2125.37587	0.01227
2124.09010	0.01252
2122.80433	0.01233
2121.51856	0.01171
2120.23280	0.01108
2118.94703	0.01102
2117.66126	0.01169
2116.37549	0.01264
2115.08972	0.01329
2113.80395	0.01344
2112.51818	0.01326
2111.23241	0.01305
2109.94664	0.01300
2108.66088	0.01316
2107.37511	0.01341
2106.08934	0.01353
2104.80357	0.01344
2103.51780	0.01320
2102.23203	0.01287
2100.94626	0.01244
2099.66049	0.01120
2098.37473	0.01042
2097.08896	0.01013
2095.80319	0.01005
2094.51742	0.01015
2093.23165	0.01049
2091.94588	0.01106
2090.66011	0.01167
2089.37434	0.01208
2088.08857	0.01223
2086.80281	0.01225
2085.51704	0.01225
2084.23127	0.01218
2082.94550	0.01189
2081.65973	0.01138
2080.37396	0.01080
2079.08819	0.01030
2077.80242	0.00978
2076.51666	0.00906
2075.23089	0.00821
2073.94512	0.00765
2072.65935	0.00782
2071.37358	0.00872
2070.08781	0.00979
2068.80204	0.01036
2067.51627	0.01021
2066.23050	0.00967
2064.94474	0.00925
2063.65897	0.00932
2062.37320	0.00991
2061.08743	0.01079
2059.80166	0.01151
2058.51589	0.01173
2057.23012	0.01146
2055.94435	0.01100
2054.65859	0.01062
2053.37282	0.01029
2052.08705	0.00977
2050.80128	0.00897
2049.51551	0.00802
2048.22974	0.00716
2046.94397	0.00650
2045.65820	0.00604
2044.37243	0.00575
2043.08667	0.00559
2041.80090	0.00559
2040.51513	0.00581
2039.22936	0.00620
2037.94359	0.00656
2036.65782	0.00674
2035.37205	0.00681
2034.08628	0.00693
2032.80052	0.00705
2031.51475	0.00694
2030.22898	0.00652
2028.94321	0.00597
2027.65744	0.00556
2026.37167	0.00545
2025.08590	0.00564
2023.80013	0.00606
2022.51436	0.00650
2021.22860	0.00664
2019.94283	0.00624
2018.65706	0.00535
2017.37129	0.00423
2016.08552	0.00319
2014.79975	0.00252
2013.51398	0.00248
2012.22821	0.00310
2010.94245	0.00403
2009.65668	0.00483
2008.37091	0.00537
2007.08514	0.00596
2005.79937	0.00680
2004.51360	0.00759
2003.22783	0.00794
2001.94206	0.00794
2000.65629	0.00807
1999.37053	0.00867
1998.08476	0.00952
1996.79899	0.01015
1995.51322	0.01028
1994.22745	0.01007
1992.94168	0.00981
1991.65591	0.00955
1990.37014	0.00918
1989.08438	0.00870
1987.79861	0.00829
1986.51284	0.00815
1985.22707	0.00834
1983.94130	0.00867
1982.65553	0.00880
1981.36976	0.00835
1980.08399	0.00736
1978.79822	0.00628
1977.51246	0.00561
1976.22669	0.00554
1974.94092	0.00599
1973.65515	0.00675
1972.36938	0.00752
1971.08361	0.00790
1969.79784	0.00776
1968.51207	0.00739
1967.22631	0.00727
1965.94054	0.00757
1964.65477	0.00810
1963.36900	0.00852
1962.08323	0.00868
1960.79746	0.00864
1959.51169	0.00847
1958.22592	0.00817
1956.94015	0.00777
1955.65439	0.00740
1954.36862	0.00720
1953.08285	0.00728
1951.79708	0.00777
1950.51131	0.00868
1949.22554	0.00970
1947.93977	0.01024
1946.65400	0.01000
1945.36823	0.00934
1944.08247	0.00895
1942.79670	0.00909
1941.51093	0.00943
1940.22516	0.00956
1938.93939	0.00955
1937.65362	0.00970
1936.36785	0.00999
1935.08208	0.01018
1933.79632	0.01021
1932.51055	0.01037
1931.22478	0.01086
1929.93901	0.01149
1928.65324	0.01187
1927.36747	0.01179
1926.08170	0.01141
1924.79593	0.01101
1923.51016	0.01077
1922.22440	0.01066
1920.93863	0.01062
1919.65286	0.01060
1918.36709	0.01065
1917.08132	0.01078
1915.79555	0.01100
1914.50978	0.01120
1913.22401	0.01131
1911.93825	0.01133
1910.65248	0.01137
1909.36671	0.01149
1908.08094	0.01159
1906.79517	0.01160
1905.50940	0.01152
1904.22363	0.01141
1902.93786	0.01126
1901.65209	0.01100
1900.36633	0.01071
1899.08056	0.01059
1897.79479	0.01076
1896.50902	0.01115
1895.22325	0.01150
1893.93748	0.01158
1892.65171	0.01134
1891.36594	0.01094
1890.08018	0.01058
1888.79441	0.01047
1887.50864	0.01070
1886.22287	0.01119
1884.93710	0.01172
1883.65133	0.01209
1882.36556	0.01223
1881.07979	0.01216
1879.79402	0.01195
1878.50826	0.01172
1877.22249	0.01155
1875.93672	0.01148
1874.65095	0.01149
1873.36518	0.01154
1872.07941	0.01164
1870.79364	0.01177
1869.50787	0.01184
1868.22211	0.01178
1866.93634	0.01161
1865.65057	0.01145
1864.36480	0.01139
1863.07903	0.01142
1861.79326	0.01151
1860.50749	0.01163
1859.22172	0.01175
1857.93595	0.01184
1856.65019	0.01187
1855.36442	0.01187
1854.07865	0.01186
1852.79288	0.01183
1851.50711	0.01177
1850.22134	0.01169
1848.93557	0.01162
1847.64980	0.01160
1846.36404	0.01167
1845.07827	0.01179
1843.79250	0.01186
1842.50673	0.01184
1841.22096	0.01176
1839.93519	0.01173
1838.64942	0.01180
1837.36365	0.01195
1836.07788	0.01207
1834.79212	0.01207
1833.50635	0.01200
1832.22058	0.01192
1830.93481	0.01182
1829.64904	0.01167
1828.36327	0.01149
1827.07750	0.01134
1825.79173	0.01124
1824.50597	0.01115
1823.22020	0.01107
1821.93443	0.01106
1820.64866	0.01111
1819.36289	0.01123
1818.07712	0.01141
1816.79135	0.01166
1815.50558	0.01195
1814.21981	0.01220
1812.93405	0.01240
1811.64828	0.01255
1810.36251	0.01269
1809.07674	0.01279
1807.79097	0.01283
1806.50520	0.01282
1805.21943	0.01280
1803.93366	0.01275
1802.64790	0.01265
1801.36213	0.01247
1800.07636	0.01227
1798.79059	0.01215
1797.50482	0.01215
1796.21905	0.01221
1794.93328	0.01227
1793.64751	0.01232
1792.36174	0.01237
1791.07598	0.01243
1789.79021	0.01248
1788.50444	0.01249
1787.21867	0.01247
1785.93290	0.01246
1784.64713	0.01249
1783.36136	0.01255
1782.07559	0.01260
1780.78983	0.01260
1779.50406	0.01253
1778.21829	0.01238
1776.93252	0.01222
1775.64675	0.01213
1774.36098	0.01217
1773.07521	0.01232
1771.78944	0.01246
1770.50367	0.01259
1769.21791	0.01274
1767.93214	0.01290
1766.64637	0.01298
1765.36060	0.01297
1764.07483	0.01294
1762.78906	0.01297
1761.50329	0.01303
1760.21752	0.01307
1758.93176	0.01305
1757.64599	0.01296
1756.36022	0.01281
1755.07445	0.01266
1753.78868	0.01261
1752.50291	0.01269
1751.21714	0.01281
1749.93137	0.01295
1748.64560	0.01311
1747.35984	0.01327
1746.07407	0.01333
1744.78830	0.01327
1743.50253	0.01312
1742.21676	0.01302
1740.93099	0.01302
1739.64522	0.01308
1738.35945	0.01312
1737.07369	0.01317
1735.78792	0.01329
1734.50215	0.01348
1733.21638	0.01364
1731.93061	0.01377
1730.64484	0.01394
1729.35907	0.01410
1728.07330	0.01421
1726.78753	0.01426
1725.50177	0.01433
1724.21600	0.01445
1722.93023	0.01460
1721.64446	0.01473
1720.35869	0.01485
1719.07292	0.01497
1717.78715	0.01509
1716.50138	0.01521
1715.21561	0.01539
1713.92985	0.01563
1712.64408	0.01591
1711.35831	0.01618
1710.07254	0.01649
1708.78677	0.01685
1707.50100	0.01725
1706.21523	0.01760
1704.92946	0.01785
1703.64370	0.01808
1702.35793	0.01846
1701.07216	0.01898
1699.78639	0.01947
1698.50062	0.01989
1697.21485	0.02035
1695.92908	0.02085
1694.64331	0.02133
1693.35754	0.02179
1692.07178	0.02230
1690.78601	0.02281
1689.50024	0.02322
1688.21447	0.02356
1686.92870	0.02394
1685.64293	0.02443
1684.35716	0.02494
1683.07139	0.02541
1681.78563	0.02590
1680.49986	0.02641
1679.21409	0.02689
1677.92832	0.02734
1676.64255	0.02784
1675.35678	0.02838
1674.07101	0.02891
1672.78524	0.02941
1671.49947	0.02992
1670.21371	0.03044
1668.92794	0.03093
1667.64217	0.03136
1666.35640	0.03176
1665.07063	0.03220
1663.78486	0.03268
1662.49909	0.03314
1661.21332	0.03354
1659.92756	0.03385
1658.64179	0.03406
1657.35602	0.03415
1656.07025	0.03423
1654.78448	0.03442
1653.49871	0.03466
1652.21294	0.03483
1650.92717	0.03493
1649.64140	0.03510
1648.35564	0.03542
1647.06987	0.03576
1645.78410	0.03598
1644.49833	0.03606
1643.21256	0.03604
1641.92679	0.03595
1640.64102	0.03581
1639.35525	0.03561
1638.06949	0.03540
1636.78372	0.03522
1635.49795	0.03501
1634.21218	0.03479
1632.92641	0.03458
1631.64064	0.03441
1630.35487	0.03427
1629.06910	0.03408
1627.78333	0.03382
1626.49757	0.03351
1625.21180	0.03318
1623.92603	0.03286
1622.64026	0.03255
1621.35449	0.03223
1620.06872	0.03194
1618.78295	0.03171
1617.49718	0.03151
1616.21142	0.03124
1614.92565	0.03091
1613.63988	0.03060
1612.35411	0.03038
1611.06834	0.03020
1609.78257	0.03002
1608.49680	0.02983
1607.21103	0.02970
1605.92526	0.02962
1604.63950	0.02959
1603.35373	0.02959
1602.06796	0.02962
1600.78219	0.02969
1599.49642	0.02976
1598.21065	0.02979
1596.92488	0.02976
1595.63911	0.02974
1594.35335	0.02975
1593.06758	0.02981
1591.78181	0.02991
1590.49604	0.03002
1589.21027	0.03011
1587.92450	0.03019
1586.63873	0.03029
1585.35296	0.03042
1584.06719	0.03058
1582.78143	0.03075
1581.49566	0.03089
1580.20989	0.03099
1578.92412	0.03112
1577.63835	0.03137
1576.35258	0.03168
1575.06681	0.03194
1573.78104	0.03210
1572.49528	0.03225
1571.20951	0.03241
1569.92374	0.03262
1568.63797	0.03285
1567.35220	0.03310
1566.06643	0.03334
1564.78066	0.03351
1563.49489	0.03355
1562.20912	0.03355
1560.92336	0.03364
1559.63759	0.03382
1558.35182	0.03403
1557.06605	0.03422
1555.78028	0.03445
1554.49451	0.03467
1553.20874	0.03480
1551.92297	0.03487
1550.63721	0.03490
1549.35144	0.03491
1548.06567	0.03490
1546.77990	0.03486
1545.49413	0.03480
1544.20836	0.03469
1542.92259	0.03455
1541.63682	0.03444
1540.35105	0.03436
1539.06529	0.03426
1537.77952	0.03415
1536.49375	0.03410
1535.20798	0.03415
1533.92221	0.03426
1532.63644	0.03434
1531.35067	0.03440
1530.06490	0.03449
1528.77914	0.03463
1527.49337	0.03481
1526.20760	0.03501
1524.92183	0.03521
1523.63606	0.03542
1522.35029	0.03564
1521.06452	0.03585
1519.77875	0.03606
1518.49298	0.03636
1517.20722	0.03677
1515.92145	0.03720
1514.63568	0.03759
1513.34991	0.03797
1512.06414	0.03836
1510.77837	0.03880
1509.49260	0.03929
1508.20683	0.03984
1506.92107	0.04039
1505.63530	0.04085
1504.34953	0.04128
1503.06376	0.04170
1501.77799	0.04211
1500.49222	0.04244
1499.20645	0.04270
1497.92068	0.04297
1496.63491	0.04326
1495.34915	0.04356
1494.06338	0.04387
1492.77761	0.04418
1491.49184	0.04448
1490.20607	0.04475
1488.92030	0.04507
1487.63453	0.04552
1486.34876	0.04609
1485.06299	0.04671
1483.77723	0.04733
1482.49146	0.04797
1481.20569	0.04864
1479.91992	0.04935
1478.63415	0.05007
1477.34838	0.05076
1476.06261	0.05141
1474.77684	0.05199
1473.49108	0.05253
1472.20531	0.05302
1470.91954	0.05347
1469.63377	0.05391
1468.34800	0.05435
1467.06223	0.05476
1465.77646	0.05511
1464.49069	0.05537
1463.20492	0.05550
1461.91916	0.05556
1460.63339	0.05565
1459.34762	0.05586
1458.06185	0.05620
1456.77608	0.05660
1455.49031	0.05696
1454.20454	0.05733
1452.91877	0.05774
1451.63301	0.05815
1450.34724	0.05854
1449.06147	0.05887
1447.77570	0.05908
1446.48993	0.05909
1445.20416	0.05892
1443.91839	0.05862
1442.63262	0.05829
1441.34685	0.05798
1440.06109	0.05771
1438.77532	0.05747
1437.48955	0.05725
1436.20378	0.05701
1434.91801	0.05679
1433.63224	0.05671
1432.34647	0.05683
1431.06070	0.05713
1429.77494	0.05753
1428.48917	0.05802
1427.20340	0.05858
1425.91763	0.05922
1424.63186	0.05993
1423.34609	0.06064
1422.06032	0.06135
1420.77455	0.06208
1419.48878	0.06279
1418.20302	0.06344
1416.91725	0.06398
1415.63148	0.06440
1414.34571	0.06468
1413.05994	0.06485
1411.77417	0.06493
1410.48840	0.06494
1409.20263	0.06488
1407.91687	0.06476
1406.63110	0.06457
1405.34533	0.06428
1404.05956	0.06381
1402.77379	0.06317
1401.48802	0.06241
1400.20225	0.06162
1398.91648	0.06081
1397.63071	0.05998
1396.34495	0.05914
1395.05918	0.05828
1393.77341	0.05738
1392.48764	0.05646
1391.20187	0.05554
1389.91610	0.05463
1388.63033	0.05372
1387.34456	0.05279
1386.05880	0.05186
1384.77303	0.05095
1383.48726	0.05009
1382.20149	0.04927
1380.91572	0.04846
1379.62995	0.04763
1378.34418	0.04674
1377.05841	0.04578
1375.77264	0.04475
1374.48688	0.04367
1373.20111	0.04256
1371.91534	0.04147
1370.62957	0.04042
1369.34380	0.03943
1368.05803	0.03847
1366.77226	0.03756
1365.48649	0.03671
1364.20073	0.03592
1362.91496	0.03520
1361.62919	0.03451
1360.34342	0.03382
1359.05765	0.03312
1357.77188	0.03245
1356.48611	0.03183
1355.20034	0.03129
1353.91457	0.03079
1352.62881	0.03029
1351.34304	0.02980
1350.05727	0.02936
1348.77150	0.02897
1347.48573	0.02863
1346.19996	0.02831
1344.91419	0.02801
1343.62842	0.02772
1342.34266	0.02741
1341.05689	0.02710
1339.77112	0.02678
1338.48535	0.02649
1337.19958	0.02623
1335.91381	0.02599
1334.62804	0.02577
1333.34227	0.02557
1332.05650	0.02541
1330.77074	0.02527
1329.48497	0.02512
1328.19920	0.02495
1326.91343	0.02475
1325.62766	0.02454
1324.34189	0.02432
1323.05612	0.02408
1321.77035	0.02386
1320.48459	0.02364
1319.19882	0.02343
1317.91305	0.02325
1316.62728	0.02309
1315.34151	0.02296
1314.05574	0.02283
1312.76997	0.02266
1311.48420	0.02245
1310.19843	0.02224
1308.91267	0.02205
1307.62690	0.02190
1306.34113	0.02181
1305.05536	0.02174
1303.76959	0.02167
1302.48382	0.02158
1301.19805	0.02146
1299.91228	0.02133
1298.62652	0.02120
1297.34075	0.02106
1296.05498	0.02088
1294.76921	0.02068
1293.48344	0.02051
1292.19767	0.02041
1290.91190	0.02040
1289.62613	0.02043
1288.34036	0.02043
1287.05460	0.02039
1285.76883	0.02031
1284.48306	0.02021
1283.19729	0.02010
1281.91152	0.02001
1280.62575	0.01993
1279.33998	0.01986
1278.05421	0.01977
1276.76845	0.01967
1275.48268	0.01958
1274.19691	0.01951
1272.91114	0.01943
1271.62537	0.01934
1270.33960	0.01923
1269.05383	0.01911
1267.76806	0.01900
1266.48229	0.01893
1265.19653	0.01889
1263.91076	0.01889
1262.62499	0.01888
1261.33922	0.01886
1260.05345	0.01884
1258.76768	0.01880
1257.48191	0.01874
1256.19614	0.01867
1254.91037	0.01858
1253.62461	0.01848
1252.33884	0.01839
1251.05307	0.01831
1249.76730	0.01824
1248.48153	0.01818
1247.19576	0.01813
1245.90999	0.01809
1244.62422	0.01806
1243.33846	0.01801
1242.05269	0.01796
1240.76692	0.01790
1239.48115	0.01782
1238.19538	0.01774
1236.90961	0.01766
1235.62384	0.01763
1234.33807	0.01760
1233.05230	0.01753
1231.76654	0.01740
1230.48077	0.01723
1229.19500	0.01707
1227.90923	0.01695
1226.62346	0.01686
1225.33769	0.01677
1224.05192	0.01666
1222.76615	0.01652
1221.48039	0.01639
1220.19462	0.01625
1218.90885	0.01611
1217.62308	0.01596
1216.33731	0.01579
1215.05154	0.01565
1213.76577	0.01551
1212.48000	0.01537
1211.19423	0.01523
1209.90847	0.01512
1208.62270	0.01506
1207.33693	0.01503
1206.05116	0.01500
1204.76539	0.01497
1203.47962	0.01495
1202.19385	0.01491
1200.90808	0.01489
1199.62232	0.01486
1198.33655	0.01467
1197.05078	0.01450
1195.76501	0.01438
1194.47924	0.01430
1193.19347	0.01425
1191.90770	0.01422
1190.62193	0.01419
1189.33616	0.01413
1188.05040	0.01402
1186.76463	0.01387
1185.47886	0.01372
1184.19309	0.01361
1182.90732	0.01354
1181.62155	0.01346
1180.33578	0.01341
1179.05001	0.01341
1177.76425	0.01347
1176.47848	0.01354
1175.19271	0.01355
1173.90694	0.01353
1172.62117	0.01350
1171.33540	0.01347
1170.04963	0.01345
1168.76386	0.01344
1167.47809	0.01348
1166.19233	0.01355
1164.90656	0.01363
1163.62079	0.01368
1162.33502	0.01369
1161.04925	0.01369
1159.76348	0.01371
1158.47771	0.01374
1157.19194	0.01380
1155.90618	0.01387
1154.62041	0.01393
1153.33464	0.01396
1152.04887	0.01397
1150.76310	0.01402
1149.47733	0.01415
1148.19156	0.01434
1146.90579	0.01453
1145.62002	0.01472
1144.33426	0.01497
1143.04849	0.01531
1141.76272	0.01571
1140.47695	0.01614
1139.19118	0.01656
1137.90541	0.01703
1136.61964	0.01758
1135.33387	0.01825
1134.04811	0.01906
1132.76234	0.01999
1131.47657	0.02102
1130.19080	0.02211
1128.90503	0.02325
1127.61926	0.02448
1126.33349	0.02584
1125.04772	0.02734
1123.76195	0.02900
1122.47619	0.03079
1121.19042	0.03269
1119.90465	0.03467
1118.61888	0.03669
1117.33311	0.03873
1116.04734	0.04082
1114.76157	0.04292
1113.47580	0.04497
1112.19004	0.04696
1110.90427	0.04892
1109.61850	0.05085
1108.33273	0.05272
1107.04696	0.05447
1105.76119	0.05612
1104.47542	0.05772
1103.18965	0.05930
1101.90388	0.06087
1100.61812	0.06240
1099.33235	0.06388
1098.04658	0.06526
1096.76081	0.06660
1095.47504	0.06792
1094.18927	0.06919
1092.90350	0.07035
1091.61773	0.07135
1090.33197	0.07223
1089.04620	0.07303
1087.76043	0.07378
1086.47466	0.07447
1085.18889	0.07516
1083.90312	0.07591
1082.61735	0.07681
1081.33158	0.07787
1080.04581	0.07903
1078.76005	0.08024
1077.47428	0.08154
1076.18851	0.08295
1074.90274	0.08446
1073.61697	0.08604
1072.33120	0.08766
1071.04543	0.08930
1069.75966	0.09096
1068.47390	0.09261
1067.18813	0.09428
1065.90236	0.09606
1064.61659	0.09796
1063.33082	0.09994
1062.04505	0.10190
1060.75928	0.10377
1059.47351	0.10552
1058.18774	0.10717
1056.90198	0.10878
1055.61621	0.11039
1054.33044	0.11201
1053.04467	0.11365
1051.75890	0.11531
1050.47313	0.11699
1049.18736	0.11872
1047.90159	0.12050
1046.61583	0.12230
1045.33006	0.12411
1044.04429	0.12592
1042.75852	0.12772
1041.47275	0.12950
1040.18698	0.13125
1038.90121	0.13297
1037.61544	0.13465
1036.32967	0.13628
1035.04391	0.13788
1033.75814	0.13941
1032.47237	0.14088
1031.18660	0.14227
1029.90083	0.14353
1028.61506	0.14460
1027.32929	0.14541
1026.04352	0.14601
1024.75775	0.14648
1023.47199	0.14682
1022.18622	0.14700
1020.90045	0.14693
1019.61468	0.14658
1018.32891	0.14600
1017.04314	0.14524
1015.75737	0.14428
1014.47160	0.14309
1013.18584	0.14163
1011.90007	0.13992
1010.61430	0.13801
1009.32853	0.13594
1008.04276	0.13371
1006.75699	0.13133
1005.47122	0.12874
1004.18545	0.12595
1002.89968	0.12299
1001.61392	0.11991
1000.32815	0.11674
999.04238	0.11349
997.75661	0.11018
996.47084	0.10682
995.18507	0.10342
993.89930	0.10001
992.61353	0.09670
991.32777	0.09351
990.04200	0.09044
988.75623	0.08746
987.47046	0.08452
986.18469	0.08163
984.89892	0.07884
983.61315	0.07621
982.32738	0.07380
981.04161	0.07159
979.75585	0.06955
978.47008	0.06762
977.18431	0.06580
975.89854	0.06412
974.61277	0.06261
973.32700	0.06134
972.04123	0.06032
970.75546	0.05957
969.46970	0.05912
968.18393	0.05900
966.89816	0.05922
965.61239	0.05972
964.32662	0.06033
963.04085	0.06087
961.75508	0.06118
960.46931	0.06121
959.18354	0.06094
957.89778	0.06042
956.61201	0.05965
955.32624	0.05860
954.04047	0.05729
952.75470	0.05584
951.46893	0.05445
950.18316	0.05322
948.89739	0.05217
947.61163	0.05119
946.32586	0.05014
945.04009	0.04896
943.75432	0.04770
942.46855	0.04644
941.18278	0.04528
939.89701	0.04427
938.61124	0.04338
937.32547	0.04262
936.03971	0.04195
934.75394	0.04135
933.46817	0.04074
932.18240	0.04010
930.89663	0.03944
929.61086	0.03879
928.32509	0.03818
927.03932	0.03761
925.75356	0.03711
924.46779	0.03667
923.18202	0.03627
921.89625	0.03586
920.61048	0.03542
919.32471	0.03497
918.03894	0.03454
916.75317	0.03412
915.46740	0.03374
914.18164	0.03341
912.89587	0.03312
911.61010	0.03283
910.32433	0.03254
909.03856	0.03226
907.75279	0.03198
906.46702	0.03166
905.18125	0.03132
903.89549	0.03100
902.60972	0.03074
901.32395	0.03050
900.03818	0.03025
898.75241	0.03003
897.46664	0.02987
896.18087	0.02973
894.89510	0.02957
893.60933	0.02941
892.32357	0.02931
891.03780	0.02932
889.75203	0.02938
888.46626	0.02948
887.18049	0.02965
885.89472	0.03001
884.60895	0.03070
883.32318	0.03182
882.03742	0.03332
880.75165	0.03491
879.46588	0.03622
878.18011	0.03712
876.89434	0.03782
875.60857	0.03860
874.32280	0.03957
873.03703	0.04052
871.75126	0.04116
870.46550	0.04128
869.17973	0.04089
867.89396	0.04008
866.60819	0.03898
865.32242	0.03768
864.03665	0.03629
862.75088	0.03494
861.46511	0.03373
860.17935	0.03270
858.89358	0.03179
857.60781	0.03099
856.32204	0.03033
855.03627	0.02984
853.75050	0.02948
852.46473	0.02917
851.17896	0.02883
849.89319	0.02847
848.60743	0.02813
847.32166	0.02786
846.03589	0.02764
844.75012	0.02744
843.46435	0.02721
842.17858	0.02697
840.89281	0.02675
839.60704	0.02657
838.32128	0.02643
837.03551	0.02630
835.74974	0.02616
834.46397	0.02602
833.17820	0.02589
831.89243	0.02574
830.60666	0.02554
829.32089	0.02531
828.03512	0.02514
826.74936	0.02507
825.46359	0.02507
824.17782	0.02508
822.89205	0.02506
821.60628	0.02502
820.32051	0.02495
819.03474	0.02486
817.74897	0.02474
816.46321	0.02460
815.17744	0.02451
813.89167	0.02446
812.60590	0.02445
811.32013	0.02444
810.03436	0.02438
808.74859	0.02426
807.46282	0.02411
806.17705	0.02396
804.89129	0.02386
803.60552	0.02381
802.31975	0.02377
801.03398	0.02369
799.74821	0.02359
798.46244	0.02351
797.17667	0.02351
795.89090	0.02360
794.60513	0.02369
793.31937	0.02371
792.03360	0.02366
790.74783	0.02362
789.46206	0.02362
788.17629	0.02363
786.89052	0.02361
785.60475	0.02354
784.31898	0.02344
783.03322	0.02336
781.74745	0.02334
780.46168	0.02337
779.17591	0.02341
777.89014	0.02342
776.60437	0.02340
775.31860	0.02337
774.03283	0.02330
772.74706	0.02313
771.46130	0.02291
770.17553	0.02275
768.88976	0.02271
767.60399	0.02277
766.31822	0.02284
765.03245	0.02288
763.74668	0.02289
762.46091	0.02293
761.17515	0.02304
759.88938	0.02323
758.60361	0.02344
757.31784	0.02357
756.03207	0.02355
754.74630	0.02341
753.46053	0.02323
752.17476	0.02307
750.88899	0.02289
749.60323	0.02271
748.31746	0.02259
747.03169	0.02255
745.74592	0.02254
744.46015	0.02250
743.17438	0.02244
741.88861	0.02242
740.60284	0.02246
739.31708	0.02253
738.03131	0.02257
736.74554	0.02259
735.45977	0.02263
734.17400	0.02271
732.88823	0.02276
731.60246	0.02267
730.31669	0.02247
729.03092	0.02230
727.74516	0.02227
726.45939	0.02233
725.17362	0.02233
723.88785	0.02215
722.60208	0.02206
721.31631	0.02209
720.03054	0.02220
718.74477	0.02230
717.45901	0.02232
716.17324	0.02228
714.88747	0.02226
713.60170	0.02225
712.31593	0.02223
711.03016	0.02217
709.74439	0.02207
708.45862	0.02198
707.17285	0.02193
705.88709	0.02194
704.60132	0.02201
703.31555	0.02209
702.02978	0.02215
700.74401	0.02218
699.45824	0.02221
698.17247	0.02224
696.88670	0.02225
695.60094	0.02222
694.31517	0.02217
693.02940	0.02215
691.74363	0.02217
690.45786	0.02218
689.17209	0.02213
687.88632	0.02203
686.60055	0.02192
685.31478	0.02187
684.02902	0.02186
682.74325	0.02186
681.45748	0.02185
680.17171	0.02185
678.88594	0.02186
677.60017	0.02184
676.31440	0.02177
675.02863	0.02169
673.74287	0.02164
672.45710	0.02164
671.17133	0.02169
669.88556	0.02179
668.59979	0.02190
667.31402	0.02198
666.02825	0.02200
664.74248	0.02189
663.45671	0.02171
662.17095	0.02152
660.88518	0.02137
659.59941	0.02128
658.31364	0.02128
657.02787	0.02134
655.74210	0.02139
654.45633	0.02137
653.17056	0.02128
651.88480	0.02120
650.59903	0.02118
649.31326	0.02121
648.02749	0.02125
646.74172	0.02125
645.45595	0.02123
644.17018	0.02122
642.88441	0.02125
641.59864	0.02133
640.31288	0.02145
639.02711	0.02158
637.74134	0.02170
636.45557	0.02183
635.16980	0.02199
633.88403	0.02220
632.59826	0.02247
631.31249	0.02268
630.02673	0.02240
628.74096	0.02186
627.45519	0.02283
626.16942	0.02206
624.88365	0.01990
623.59788	0.01766
622.31211	0.01639
621.02634	0.01693
619.74057	0.01938
618.45481	0.02292
617.16904	0.02662
615.88327	0.02997
614.59750	0.03315
613.31173	0.03669
612.02596	0.04074
610.74019	0.04458
609.45442	0.04731
608.16866	0.04899
606.88289	0.05045
605.59712	0.05208
604.31135	0.05365
603.02558	0.05493
601.73981	0.05586
600.45404	0.05630
599.16827	0.05605
597.88250	0.05510
596.59674	0.05374
595.31097	0.05226
594.02520	0.05079
592.73943	0.04936
591.45366	0.04819
590.16789	0.04751
588.88212	0.04740
587.59635	0.04773
586.31059	0.04828
585.02482	0.04904
583.73905	0.05007
582.45328	0.05142
581.16751	0.05299
579.88174	0.05464
578.59597	0.05623
577.31020	0.05770
576.02443	0.05906
574.73867	0.06035
573.45290	0.06161
572.16713	0.06293
570.88136	0.06441
569.59559	0.06613
568.30982	0.06807
567.02405	0.07008
565.73828	0.07204
564.45251	0.07380
563.16675	0.07514
561.88098	0.07582
560.59521	0.07565
559.30944	0.07460
558.02367	0.07278
556.73790	0.07034
555.45213	0.06744
554.16636	0.06422
552.88060	0.06089
551.59483	0.05762
550.30906	0.05455
549.02329	0.05175
547.73752	0.04923
546.45175	0.04696
545.16598	0.04490
543.88021	0.04305
542.59444	0.04146
541.30868	0.04019
540.02291	0.03918
538.73714	0.03834
537.45137	0.03756
536.16560	0.03675
534.87983	0.03583
533.59406	0.03479
532.30829	0.03371
531.02253	0.03269
529.73676	0.03183
528.45099	0.03114
527.16522	0.03061
525.87945	0.03020
524.59368	0.02985
523.30791	0.02953
522.02214	0.02918
520.73637	0.02874
519.45061	0.02822
518.16484	0.02765
516.87907	0.02707
515.59330	0.02649
514.30753	0.02593
513.02176	0.02545
511.73599	0.02510
510.45022	0.02487
509.16446	0.02469
507.87869	0.02444
506.59292	0.02406
505.30715	0.02362
504.02138	0.02321
502.73561	0.02294
501.44984	0.02276
500.16407	0.02262
498.87830	0.02243
497.59254	0.02221
496.30677	0.02197
495.02100	0.02174
493.73523	0.02153
492.44946	0.02135
491.16369	0.02121
489.87792	0.02109
488.59215	0.02095
487.30639	0.02080
486.02062	0.02071
484.73485	0.02071
483.44908	0.02076
482.16331	0.02078
480.87754	0.02072
479.59177	0.02066
478.30600	0.02069
477.02023	0.02083
475.73447	0.02103
474.44870	0.02119
473.16293	0.02125
471.87716	0.02123
470.59139	0.02117
469.30562	0.02108
468.01985	0.02097
466.73408	0.02079
465.44832	0.02055
464.16255	0.02031
462.87678	0.02008
461.59101	0.01988
460.30524	0.01967
459.01947	0.01942
457.73370	0.01911
456.44793	0.01882
455.16216	0.01861
453.87640	0.01849
452.59063	0.01840
451.30486	0.01828
450.01909	0.01812
448.73332	0.01798
447.44755	0.01788
446.16178	0.01780
444.87601	0.01770
443.59025	0.01756
442.30448	0.01737
441.01871	0.01715
439.73294	0.01694
438.44717	0.01677
437.16140	0.01666
435.87563	0.01661
434.58986	0.01661
433.30409	0.01663
432.01833	0.01663
430.73256	0.01661
429.44679	0.01657
428.16102	0.01651
426.87525	0.01641
425.58948	0.01627
424.30371	0.01611
423.01794	0.01595
421.73218	0.01580
420.44641	0.01566
419.16064	0.01552
417.87487	0.01537
416.58910	0.01521
415.30333	0.01504
414.01756	0.01488
412.73179	0.01476
411.44602	0.01469
410.16026	0.01468
408.87449	0.01470
407.58872	0.01476
406.30295	0.01484
405.01718	0.01496
403.73141	0.01506
402.44564	0.01510
401.15987	0.01507
399.87411	0.01501
