3997.45528	0.06099
3996.16951	0.06053
3994.88374	0.06083
3993.59798	0.06146
3992.31221	0.06165
3991.02644	0.06133
3989.74067	0.06098
3988.45490	0.06091
3987.16913	0.06105
3985.88336	0.06125
3984.59759	0.06148
3983.31183	0.06170
3982.02606	0.06182
3980.74029	0.06189
3979.45452	0.06208
3978.16875	0.06251
3976.88298	0.06302
3975.59721	0.06336
3974.31144	0.06336
3973.02567	0.06306
3971.73991	0.06258
3970.45414	0.06210
3969.16837	0.06176
3967.88260	0.06168
3966.59683	0.06192
3965.31106	0.06246
3964.02529	0.06303
3962.73952	0.06314
3961.45376	0.06245
3960.16799	0.06128
3958.88222	0.06039
3957.59645	0.06030
3956.31068	0.06079
3955.02491	0.06123
3953.73914	0.06131
3952.45337	0.06122
3951.16760	0.06116
3949.88184	0.06113
3948.59607	0.06109
3947.31030	0.06103
3946.02453	0.06080
3944.73876	0.06029
3943.45299	0.05973
3942.16722	0.05971
3940.88145	0.06047
3939.59569	0.06154
3938.30992	0.06220
3937.02415	0.06212
3935.73838	0.06154
3934.45261	0.06094
3933.16684	0.06066
3931.88107	0.06074
3930.59530	0.06098
3929.30953	0.06113
3928.02377	0.06104
3926.73800	0.06074
3925.45223	0.06037
3924.16646	0.06008
3922.88069	0.05999
3921.59492	0.06003
3920.30915	0.06008
3919.02338	0.06007
3917.73762	0.06004
3916.45185	0.06000
3915.16608	0.05994
3913.88031	0.05992
3912.59454	0.06017
3911.30877	0.06083
3910.02300	0.06162
3908.73723	0.06191
3907.45146	0.06127
3906.16570	0.05998
3904.87993	0.05888
3903.59416	0.05870
3902.30839	0.05950
3901.02262	0.06074
3899.73685	0.06173
3898.45108	0.06202
3897.16531	0.06163
3895.87955	0.06087
3894.59378	0.06022
3893.30801	0.05998
3892.02224	0.06013
3890.73647	0.06031
3889.45070	0.06000
3888.16493	0.05908
3886.87916	0.05799
3885.59339	0.05738
3884.30763	0.05754
3883.02186	0.05830
3881.73609	0.05931
3880.45032	0.06034
3879.16455	0.06125
3877.87878	0.06181
3876.59301	0.06184
3875.30724	0.06131
3874.02148	0.06035
3872.73571	0.05926
3871.44994	0.05836
3870.16417	0.05777
3868.87840	0.05741
3867.59263	0.05709
3866.30686	0.05681
3865.02109	0.05674
3863.73532	0.05704
3862.44956	0.05759
3861.16379	0.05814
3859.87802	0.05845
3858.59225	0.05846
3857.30648	0.05815
3856.02071	0.05755
3854.73494	0.05674
3853.44917	0.05586
3852.16341	0.05508
3850.87764	0.05458
3849.59187	0.05457
3848.30610	0.05504
3847.02033	0.05573
3845.73456	0.05630
3844.44879	0.05654
3843.16302	0.05642
3841.87725	0.05603
3840.59149	0.05545
3839.30572	0.05488
3838.01995	0.05460
3836.73418	0.05483
3835.44841	0.05555
3834.16264	0.05639
3832.87687	0.05699
3831.59110	0.05724
3830.30534	0.05736
3829.01957	0.05760
3827.73380	0.05800
3826.44803	0.05836
3825.16226	0.05851
3823.87649	0.05837
3822.59072	0.05801
3821.30495	0.05765
3820.01918	0.05748
3818.73342	0.05759
3817.44765	0.05781
3816.16188	0.05777
3814.87611	0.05724
3813.59034	0.05642
3812.30457	0.05577
3811.01880	0.05552
3809.73303	0.05544
3808.44726	0.05518
3807.16150	0.05470
3805.87573	0.05438
3804.58996	0.05450
3803.30419	0.05495
3802.01842	0.05540
3800.73265	0.05556
3799.44688	0.05541
3798.16111	0.05515
3796.87535	0.05504
3795.58958	0.05514
3794.30381	0.05526
3793.01804	0.05515
3791.73227	0.05488
3790.44650	0.05478
3789.16073	0.05510
3787.87496	0.05568
3786.58919	0.05621
3785.30343	0.05655
3784.01766	0.05679
3782.73189	0.05702
3781.44612	0.05720
3780.16035	0.05717
3778.87458	0.05678
3777.58881	0.05612
3776.30304	0.05551
3775.01728	0.05531
3773.73151	0.05564
3772.44574	0.05619
3771.15997	0.05640
3769.87420	0.05592
3768.58843	0.05486
3767.30266	0.05367
3766.01689	0.05288
3764.73112	0.05281
3763.44536	0.05346
3762.15959	0.05444
3760.87382	0.05523
3759.58805	0.05544
3758.30228	0.05510
3757.01651	0.05452
3755.73074	0.05391
3754.44497	0.05318
3753.15921	0.05213
3751.87344	0.05088
3750.58767	0.05001
3749.30190	0.05000
3748.01613	0.05079
3746.73036	0.05187
3745.44459	0.05284
3744.15882	0.05366
3742.87305	0.05443
3741.58729	0.05504
3740.30152	0.05521
3739.01575	0.05476
3737.72998	0.05380
3736.44421	0.05271
3735.15844	0.05186
3733.87267	0.05133
3732.58690	0.05094
3731.30114	0.05055
3730.01537	0.05020
3728.72960	0.05009
3727.44383	0.05038
3726.15806	0.05102
3724.87229	0.05176
3723.58652	0.05231
3722.30075	0.05253
3721.01498	0.05258
3719.72922	0.05266
3718.44345	0.05285
3717.15768	0.05307
3715.87191	0.05319
3714.58614	0.05317
3713.30037	0.05308
3712.01460	0.05302
3710.72883	0.05305
3709.44307	0.05316
3708.15730	0.05324
3706.87153	0.05327
3705.58576	0.05331
3704.29999	0.05335
3703.01422	0.05315
3701.72845	0.05246
3700.44268	0.05142
3699.15691	0.05047
3697.87115	0.04998
3696.58538	0.04997
3695.29961	0.05020
3694.01384	0.05048
3692.72807	0.05064
3691.44230	0.05056
3690.15653	0.05026
3688.87076	0.04991
3687.58500	0.04970
3686.29923	0.04968
3685.01346	0.04982
3683.72769	0.05006
3682.44192	0.05031
3681.15615	0.05043
3679.87038	0.05033
3678.58461	0.05010
3677.29884	0.04996
3676.01308	0.05010
3674.72731	0.05048
3673.44154	0.05091
3672.15577	0.05122
3670.87000	0.05140
3669.58423	0.05150
3668.29846	0.05148
3667.01269	0.05131
3665.72693	0.05116
3664.44116	0.05131
3663.15539	0.05191
3661.86962	0.05286
3660.58385	0.05395
3659.29808	0.05505
3658.01231	0.05603
3656.72654	0.05663
3655.44077	0.05648
3654.15501	0.05550
3652.86924	0.05407
3651.58347	0.05284
3650.29770	0.05226
3649.01193	0.05244
3647.72616	0.05316
3646.44039	0.05406
3645.15462	0.05476
3643.86886	0.05508
3642.58309	0.05515
3641.29732	0.05520
3640.01155	0.05534
3638.72578	0.05550
3637.44001	0.05562
3636.15424	0.05575
3634.86847	0.05583
3633.58270	0.05567
3632.29694	0.05512
3631.01117	0.05438
3629.72540	0.05395
3628.43963	0.05427
3627.15386	0.05525
3625.86809	0.05642
3624.58232	0.05735
3623.29655	0.05805
3622.01079	0.05874
3620.72502	0.05949
3619.43925	0.06013
3618.15348	0.06049
3616.86771	0.06064
3615.58194	0.06068
3614.29617	0.06056
3613.01040	0.06012
3611.72463	0.05946
3610.43887	0.05902
3609.15310	0.05925
3607.86733	0.06019
3606.58156	0.06132
3605.29579	0.06199
3604.01002	0.06204
3602.72425	0.06195
3601.43848	0.06233
3600.15272	0.06326
3598.86695	0.06419
3597.58118	0.06466
3596.29541	0.06478
3595.00964	0.06494
3593.72387	0.06540
3592.43810	0.06601
3591.15233	0.06647
3589.86656	0.06658
3588.58080	0.06645
3587.29503	0.06645
3586.00926	0.06698
3584.72349	0.06812
3583.43772	0.06955
3582.15195	0.07073
3580.86618	0.07135
3579.58041	0.07142
3578.29464	0.07116
3577.00888	0.07085
3575.72311	0.07069
3574.43734	0.07072
3573.15157	0.07093
3571.86580	0.07132
3570.58003	0.07195
3569.29426	0.07278
3568.00849	0.07363
3566.72273	0.07425
3565.43696	0.07459
3564.15119	0.07468
3562.86542	0.07455
3561.57965	0.07425
3560.29388	0.07399
3559.00811	0.07408
3557.72234	0.07460
3556.43657	0.07522
3555.15081	0.07554
3553.86504	0.07548
3552.57927	0.07540
3551.29350	0.07573
3550.00773	0.07661
3548.72196	0.07781
3547.43619	0.07893
3546.15042	0.07960
3544.86466	0.07976
3543.57889	0.07965
3542.29312	0.07958
3541.00735	0.07971
3539.72158	0.08002
3538.43581	0.08043
3537.15004	0.08085
3535.86427	0.08118
3534.57850	0.08143
3533.29274	0.08169
3532.00697	0.08201
3530.72120	0.08234
3529.43543	0.08268
3528.14966	0.08302
3526.86389	0.08334
3525.57812	0.08365
3524.29235	0.08403
3523.00659	0.08450
3521.72082	0.08492
3520.43505	0.08503
3519.14928	0.08479
3517.86351	0.08439
3516.57774	0.08418
3515.29197	0.08434
3514.00620	0.08481
3512.72043	0.08537
3511.43467	0.08584
3510.14890	0.08618
3508.86313	0.08646
3507.57736	0.08683
3506.29159	0.08737
3505.00582	0.08797
3503.72005	0.08829
3502.43428	0.08810
3501.14852	0.08756
3499.86275	0.08710
3498.57698	0.08709
3497.29121	0.08759
3496.00544	0.08836
3494.71967	0.08910
3493.43390	0.08957
3492.14813	0.08959
3490.86236	0.08916
3489.57660	0.08847
3488.29083	0.08784
3487.00506	0.08756
3485.71929	0.08772
3484.43352	0.08829
3483.14775	0.08919
3481.86198	0.09022
3480.57621	0.09110
3479.29045	0.09159
3478.00468	0.09170
3476.71891	0.09167
3475.43314	0.09183
3474.14737	0.09236
3472.86160	0.09318
3471.57583	0.09398
3470.29006	0.09441
3469.00429	0.09429
3467.71853	0.09371
3466.43276	0.09294
3465.14699	0.09233
3463.86122	0.09217
3462.57545	0.09243
3461.28968	0.09288
3460.00391	0.09332
3458.71814	0.09381
3457.43238	0.09445
3456.14661	0.09507
3454.86084	0.09537
3453.57507	0.09525
3452.28930	0.09499
3451.00353	0.09496
3449.71776	0.09528
3448.43199	0.09579
3447.14622	0.09624
3445.86046	0.09657
3444.57469	0.09688
3443.28892	0.09732
3442.00315	0.09782
3440.71738	0.09811
3439.43161	0.09796
3438.14584	0.09747
3436.86007	0.09702
3435.57431	0.09696
3434.28854	0.09735
3433.00277	0.09797
3431.71700	0.09851
3430.43123	0.09883
3429.14546	0.09899
3427.85969	0.09918
3426.57392	0.09949
3425.28815	0.09980
3424.00239	0.10004
3422.71662	0.10030
3421.43085	0.10071
3420.14508	0.10116
3418.85931	0.10139
3417.57354	0.10134
3416.28777	0.10121
3415.00200	0.10122
3413.71624	0.10134
3412.43047	0.10149
3411.14470	0.10169
3409.85893	0.10203
3408.57316	0.10247
3407.28739	0.10276
3406.00162	0.10270
3404.71585	0.10232
3403.43008	0.10190
3402.14432	0.10171
3400.85855	0.10187
3399.57278	0.10234
3398.28701	0.10293
3397.00124	0.10351
3395.71547	0.10408
3394.42970	0.10467
3393.14393	0.10513
3391.85817	0.10523
3390.57240	0.10493
3389.28663	0.10455
3388.00086	0.10446
3386.71509	0.10470
3385.42932	0.10496
3384.14355	0.10494
3382.85778	0.10455
3381.57201	0.10397
3380.28625	0.10349
3379.00048	0.10332
3377.71471	0.10351
3376.42894	0.10395
3375.14317	0.10443
3373.85740	0.10468
3372.57163	0.10455
3371.28586	0.10421
3370.00010	0.10403
3368.71433	0.10421
3367.42856	0.10464
3366.14279	0.10506
3364.85702	0.10534
3363.57125	0.10552
3362.28548	0.10564
3360.99971	0.10570
3359.71394	0.10564
3358.42818	0.10541
3357.14241	0.10506
3355.85664	0.10478
3354.57087	0.10479
3353.28510	0.10516
3351.99933	0.10570
3350.71356	0.10624
3349.42779	0.10668
3348.14202	0.10696
3346.85626	0.10702
3345.57049	0.10689
3344.28472	0.10675
3342.99895	0.10674
3341.71318	0.10678
3340.42741	0.10659
3339.14164	0.10604
3337.85587	0.10538
3336.57011	0.10510
3335.28434	0.10545
3333.99857	0.10614
3332.71280	0.10666
3331.42703	0.10673
3330.14126	0.10650
3328.85549	0.10623
3327.56972	0.10608
3326.28395	0.10600
3324.99819	0.10598
3323.71242	0.10610
3322.42665	0.10645
3321.14088	0.10693
3319.85511	0.10730
3318.56934	0.10738
3317.28357	0.10730
3315.99780	0.10729
3314.71204	0.10739
3313.42627	0.10736
3312.14050	0.10711
3310.85473	0.10683
3309.56896	0.10677
3308.28319	0.10687
3306.99742	0.10688
3305.71165	0.10672
3304.42588	0.10650
3303.14012	0.10633
3301.85435	0.10621
3300.56858	0.10615
3299.28281	0.10613
3297.99704	0.10611
3296.71127	0.10598
3295.42550	0.10573
3294.13973	0.10544
3292.85397	0.10525
3291.56820	0.10521
3290.28243	0.10535
3288.99666	0.10560
3287.71089	0.10588
3286.42512	0.10605
3285.13935	0.10605
3283.85358	0.10590
3282.56781	0.10569
3281.28205	0.10550
3279.99628	0.10534
3278.71051	0.10518
3277.42474	0.10503
3276.13897	0.10494
3274.85320	0.10499
3273.56743	0.10515
3272.28166	0.10530
3270.99590	0.10531
3269.71013	0.10519
3268.42436	0.10506
3267.13859	0.10497
3265.85282	0.10488
3264.56705	0.10472
3263.28128	0.10452
3261.99551	0.10445
3260.70974	0.10460
3259.42398	0.10488
3258.13821	0.10506
3256.85244	0.10504
3255.56667	0.10486
3254.28090	0.10465
3252.99513	0.10444
3251.70936	0.10418
3250.42359	0.10392
3249.13783	0.10369
3247.85206	0.10346
3246.56629	0.10313
3245.28052	0.10272
3243.99475	0.10238
3242.70898	0.10221
3241.42321	0.10209
3240.13744	0.10177
3238.85167	0.10117
3237.56591	0.10045
3236.28014	0.09994
3234.99437	0.09988
3233.70860	0.10028
3232.42283	0.10092
3231.13706	0.10144
3229.85129	0.10163
3228.56552	0.10146
3227.27976	0.10106
3225.99399	0.10061
3224.70822	0.10025
3223.42245	0.10000
3222.13668	0.09976
3220.85091	0.09939
3219.56514	0.09890
3218.27937	0.09845
3216.99360	0.09828
3215.70784	0.09844
3214.42207	0.09869
3213.13630	0.09869
3211.85053	0.09830
3210.56476	0.09768
3209.27899	0.09718
3207.99322	0.09701
3206.70745	0.09714
3205.42169	0.09741
3204.13592	0.09761
3202.85015	0.09758
3201.56438	0.09726
3200.27861	0.09679
3198.99284	0.09636
3197.70707	0.09618
3196.42130	0.09633
3195.13553	0.09671
3193.84977	0.09701
3192.56400	0.09698
3191.27823	0.09661
3189.99246	0.09613
3188.70669	0.09581
3187.42092	0.09566
3186.13515	0.09559
3184.84938	0.09552
3183.56362	0.09554
3182.27785	0.09572
3180.99208	0.09600
3179.70631	0.09615
3178.42054	0.09594
3177.13477	0.09534
3175.84900	0.09452
3174.56323	0.09375
3173.27746	0.09327
3171.99170	0.09316
3170.70593	0.09334
3169.42016	0.09364
3168.13439	0.09381
3166.84862	0.09373
3165.56285	0.09339
3164.27708	0.09292
3162.99131	0.09248
3161.70555	0.09214
3160.41978	0.09195
3159.13401	0.09189
3157.84824	0.09186
3156.56247	0.09171
3155.27670	0.09139
3153.99093	0.09094
3152.70516	0.09054
3151.41939	0.09030
3150.13363	0.09022
3148.84786	0.09019
3147.56209	0.09011
3146.27632	0.08998
3144.99055	0.08994
3143.70478	0.09005
3142.41901	0.09022
3141.13324	0.09030
3139.84748	0.09022
3138.56171	0.09002
3137.27594	0.08974
3135.99017	0.08937
3134.70440	0.08889
3133.41863	0.08843
3132.13286	0.08815
3130.84709	0.08811
3129.56132	0.08819
3128.27556	0.08815
3126.98979	0.08791
3125.70402	0.08766
3124.41825	0.08763
3123.13248	0.08783
3121.84671	0.08804
3120.56094	0.08808
3119.27517	0.08792
3117.98940	0.08765
3116.70364	0.08733
3115.41787	0.08700
3114.13210	0.08679
3112.84633	0.08678
3111.56056	0.08696
3110.27479	0.08716
3108.98902	0.08727
3107.70325	0.08734
3106.41749	0.08749
3105.13172	0.08771
3103.84595	0.08781
3102.56018	0.08757
3101.27441	0.08701
3099.98864	0.08629
3098.70287	0.08561
3097.41710	0.08512
3096.13133	0.08498
3094.84557	0.08520
3093.55980	0.08558
3092.27403	0.08574
3090.98826	0.08548
3089.70249	0.08492
3088.41672	0.08442
3087.13095	0.08422
3085.84518	0.08432
3084.55942	0.08455
3083.27365	0.08473
3081.98788	0.08477
3080.70211	0.08465
3079.41634	0.08438
3078.13057	0.08401
3076.84480	0.08360
3075.55903	0.08324
3074.27326	0.08293
3072.98750	0.08275
3071.70173	0.08276
3070.41596	0.08294
3069.13019	0.08311
3067.84442	0.08311
3066.55865	0.08298
3065.27288	0.08290
3063.98711	0.08290
3062.70135	0.08277
3061.41558	0.08232
3060.12981	0.08163
3058.84404	0.08107
3057.55827	0.08087
3056.27250	0.08104
3054.98673	0.08137
3053.70096	0.08166
3052.41519	0.08180
3051.12943	0.08172
3049.84366	0.08145
3048.55789	0.08106
3047.27212	0.08064
3045.98635	0.08022
3044.70058	0.07985
3043.41481	0.07962
3042.12904	0.07959
3040.84328	0.07966
3039.55751	0.07960
3038.27174	0.07930
3036.98597	0.07887
3035.70020	0.07846
3034.41443	0.07812
3033.12866	0.07776
3031.84289	0.07737
3030.55712	0.07706
3029.27136	0.07688
3027.98559	0.07673
3026.69982	0.07652
3025.41405	0.07623
3024.12828	0.07596
3022.84251	0.07574
3021.55674	0.07560
3020.27097	0.07557
3018.98521	0.07568
3017.69944	0.07586
3016.41367	0.07601
3015.12790	0.07604
3013.84213	0.07595
3012.55636	0.07585
3011.27059	0.07587
3009.98482	0.07607
3008.69905	0.07630
3007.41329	0.07629
3006.12752	0.07591
3004.84175	0.07531
3003.55598	0.07478
3002.27021	0.07450
3000.98444	0.07447
2999.69867	0.07458
2998.41290	0.07472
2997.12714	0.07480
2995.84137	0.07479
2994.55560	0.07480
2993.26983	0.07488
2991.98406	0.07500
2990.69829	0.07508
2989.41252	0.07509
2988.12675	0.07508
2986.84098	0.07513
2985.55522	0.07530
2984.26945	0.07562
2982.98368	0.07600
2981.69791	0.07634
2980.41214	0.07667
2979.12637	0.07707
2977.84060	0.07764
2976.55483	0.07832
2975.26907	0.07899
2973.98330	0.07959
2972.69753	0.08021
2971.41176	0.08105
2970.12599	0.08223
2968.84022	0.08366
2967.55445	0.08513
2966.26868	0.08639
2964.98291	0.08738
2963.69715	0.08823
2962.41138	0.08913
2961.12561	0.09021
2959.83984	0.09142
2958.55407	0.09266
2957.26830	0.09381
2955.98253	0.09473
2954.69676	0.09535
2953.41100	0.09569
2952.12523	0.09589
2950.83946	0.09605
2949.55369	0.09619
2948.26792	0.09629
2946.98215	0.09629
2945.69638	0.09614
2944.41061	0.09588
2943.12484	0.09559
2941.83908	0.09541
2940.55331	0.09546
2939.26754	0.09582
2937.98177	0.09645
2936.69600	0.09719
2935.41023	0.09795
2934.12446	0.09877
2932.83869	0.09966
2931.55293	0.10051
2930.26716	0.10112
2928.98139	0.10149
2927.69562	0.10187
2926.40985	0.10239
2925.12408	0.10290
2923.83831	0.10316
2922.55254	0.10309
2921.26677	0.10280
2919.98101	0.10233
2918.69524	0.10163
2917.40947	0.10076
2916.12370	0.09988
2914.83793	0.09910
2913.55216	0.09843
2912.26639	0.09778
2910.98062	0.09713
2909.69486	0.09647
2908.40909	0.09573
2907.12332	0.09483
2905.83755	0.09377
2904.55178	0.09271
2903.26601	0.09181
2901.98024	0.09115
2900.69447	0.09067
2899.40870	0.09022
2898.12294	0.08959
2896.83717	0.08872
2895.55140	0.08776
2894.26563	0.08696
2892.97986	0.08636
2891.69409	0.08586
2890.40832	0.08530
2889.12255	0.08470
2887.83678	0.08415
2886.55102	0.08369
2885.26525	0.08331
2883.97948	0.08297
2882.69371	0.08267
2881.40794	0.08241
2880.12217	0.08222
2878.83640	0.08214
2877.55063	0.08219
2876.26487	0.08241
2874.97910	0.08280
2873.69333	0.08329
2872.40756	0.08378
2871.12179	0.08420
2869.83602	0.08460
2868.55025	0.08500
2867.26448	0.08534
2865.97871	0.08553
2864.69295	0.08552
2863.40718	0.08536
2862.12141	0.08511
2860.83564	0.08480
2859.54987	0.08443
2858.26410	0.08406
2856.97833	0.08375
2855.69256	0.08347
2854.40680	0.08308
2853.12103	0.08253
2851.83526	0.08186
2850.54949	0.08121
2849.26372	0.08061
2847.97795	0.08000
2846.69218	0.07928
2845.40641	0.07846
2844.12064	0.07763
2842.83488	0.07685
2841.54911	0.07609
2840.26334	0.07528
2838.97757	0.07442
2837.69180	0.07358
2836.40603	0.07280
2835.12026	0.07200
2833.83449	0.07114
2832.54873	0.07024
2831.26296	0.06941
2829.97719	0.06866
2828.69142	0.06799
2827.40565	0.06747
2826.11988	0.06716
2824.83411	0.06696
2823.54834	0.06668
2822.26257	0.06620
2820.97681	0.06562
2819.69104	0.06511
2818.40527	0.06477
2817.11950	0.06459
2815.83373	0.06455
2814.54796	0.06454
2813.26219	0.06440
2811.97642	0.06405
2810.69066	0.06353
2809.40489	0.06297
2808.11912	0.06251
2806.83335	0.06223
2805.54758	0.06210
2804.26181	0.06211
2802.97604	0.06220
2801.69027	0.06227
2800.40450	0.06224
2799.11874	0.06205
2797.83297	0.06173
2796.54720	0.06132
2795.26143	0.06088
2793.97566	0.06046
2792.68989	0.06011
2791.40412	0.05985
2790.11835	0.05967
2788.83259	0.05954
2787.54682	0.05944
2786.26105	0.05939
2784.97528	0.05942
2783.68951	0.05950
2782.40374	0.05956
2781.11797	0.05951
2779.83220	0.05933
2778.54643	0.05908
2777.26067	0.05885
2775.97490	0.05874
2774.68913	0.05872
2773.40336	0.05869
2772.11759	0.05851
2770.83182	0.05826
2769.54605	0.05809
2768.26028	0.05806
2766.97452	0.05800
2765.68875	0.05777
2764.40298	0.05746
2763.11721	0.05723
2761.83144	0.05708
2760.54567	0.05688
2759.25990	0.05661
2757.97413	0.05638
2756.68836	0.05631
2755.40260	0.05639
2754.11683	0.05653
2752.83106	0.05659
2751.54529	0.05655
2750.25952	0.05645
2748.97375	0.05642
2747.68798	0.05649
2746.40221	0.05654
2745.11645	0.05644
2743.83068	0.05613
2742.54491	0.05578
2741.25914	0.05558
2739.97337	0.05561
2738.68760	0.05571
2737.40183	0.05565
2736.11606	0.05541
2734.83029	0.05512
2733.54453	0.05498
2732.25876	0.05505
2730.97299	0.05526
2729.68722	0.05542
2728.40145	0.05540
2727.11568	0.05513
2725.82991	0.05462
2724.54414	0.05406
2723.25838	0.05371
2721.97261	0.05374
2720.68684	0.05408
2719.40107	0.05443
2718.11530	0.05453
2716.82953	0.05434
2715.54376	0.05405
2714.25799	0.05382
2712.97222	0.05364
2711.68646	0.05342
2710.40069	0.05312
2709.11492	0.05281
2707.82915	0.05258
2706.54338	0.05239
2705.25761	0.05223
2703.97184	0.05208
2702.68607	0.05200
2701.40031	0.05199
2700.11454	0.05203
2698.82877	0.05204
2697.54300	0.05206
2696.25723	0.05213
2694.97146	0.05229
2693.68569	0.05247
2692.39992	0.05258
2691.11415	0.05256
2689.82839	0.05241
2688.54262	0.05221
2687.25685	0.05203
2685.97108	0.05188
2684.68531	0.05178
2683.39954	0.05171
2682.11377	0.05168
2680.82800	0.05167
2679.54224	0.05160
2678.25647	0.05141
2676.97070	0.05117
2675.68493	0.05096
2674.39916	0.05086
2673.11339	0.05084
2671.82762	0.05084
2670.54185	0.05083
2669.25608	0.05079
2667.97032	0.05078
2666.68455	0.05081
2665.39878	0.05085
2664.11301	0.05086
2662.82724	0.05080
2661.54147	0.05071
2660.25570	0.05059
2658.96993	0.05041
2657.68417	0.05016
2656.39840	0.04992
2655.11263	0.04975
2653.82686	0.04968
2652.54109	0.04968
2651.25532	0.04972
2649.96955	0.04973
2648.68378	0.04971
2647.39801	0.04967
2646.11225	0.04964
2644.82648	0.04957
2643.54071	0.04939
2642.25494	0.04912
2640.96917	0.04879
2639.68340	0.04843
2638.39763	0.04801
2637.11186	0.04756
2635.82609	0.04720
2634.54033	0.04704
2633.25456	0.04714
2631.96879	0.04742
2630.68302	0.04772
2629.39725	0.04781
2628.11148	0.04754
2626.82571	0.04698
2625.53994	0.04633
2624.25418	0.04580
2622.96841	0.04546
2621.68264	0.04535
2620.39687	0.04540
2619.11110	0.04544
2617.82533	0.04524
2616.53956	0.04472
2615.25379	0.04402
2613.96802	0.04340
2612.68226	0.04308
2611.39649	0.04314
2610.11072	0.04342
2608.82495	0.04368
2607.53918	0.04374
2606.25341	0.04365
2604.96764	0.04351
2603.68187	0.04344
2602.39611	0.04344
2601.11034	0.04347
2599.82457	0.04348
2598.53880	0.04339
2597.25303	0.04322
2595.96726	0.04305
2594.68149	0.04290
2593.39572	0.04271
2592.10995	0.04243
2590.82419	0.04218
2589.53842	0.04214
2588.25265	0.04244
2586.96688	0.04297
2585.68111	0.04344
2584.39534	0.04356
2583.10957	0.04320
2581.82380	0.04246
2580.53804	0.04162
2579.25227	0.04099
2577.96650	0.04077
2576.68073	0.04088
2575.39496	0.04107
2574.10919	0.04106
2572.82342	0.04074
2571.53765	0.04023
2570.25188	0.03983
2568.96612	0.03973
2567.68035	0.03990
2566.39458	0.04006
2565.10881	0.04004
2563.82304	0.03989
2562.53727	0.03980
2561.25150	0.03981
2559.96573	0.03977
2558.67997	0.03955
2557.39420	0.03920
2556.10843	0.03889
2554.82266	0.03872
2553.53689	0.03872
2552.25112	0.03892
2550.96535	0.03925
2549.67958	0.03951
2548.39381	0.03952
2547.10805	0.03935
2545.82228	0.03926
2544.53651	0.03930
2543.25074	0.03934
2541.96497	0.03931
2540.67920	0.03929
2539.39343	0.03934
2538.10766	0.03937
2536.82190	0.03924
2535.53613	0.03896
2534.25036	0.03865
2532.96459	0.03846
2531.67882	0.03835
2530.39305	0.03824
2529.10728	0.03808
2527.82151	0.03796
2526.53574	0.03798
2525.24998	0.03814
2523.96421	0.03834
2522.67844	0.03839
2521.39267	0.03816
2520.10690	0.03771
2518.82113	0.03733
2517.53536	0.03721
2516.24959	0.03729
2514.96383	0.03727
2513.67806	0.03704
2512.39229	0.03674
2511.10652	0.03666
2509.82075	0.03695
2508.53498	0.03754
2507.24921	0.03818
2505.96344	0.03865
2504.67767	0.03882
2503.39191	0.03870
2502.10614	0.03831
2500.82037	0.03776
2499.53460	0.03725
2498.24883	0.03706
2496.96306	0.03721
2495.67729	0.03742
2494.39152	0.03732
2493.10576	0.03692
2491.81999	0.03653
2490.53422	0.03641
2489.24845	0.03653
2487.96268	0.03668
2486.67691	0.03680
2485.39114	0.03692
2484.10537	0.03701
2482.81960	0.03698
2481.53384	0.03682
2480.24807	0.03668
2478.96230	0.03670
2477.67653	0.03691
2476.39076	0.03714
2475.10499	0.03713
2473.81922	0.03681
2472.53345	0.03631
2471.24769	0.03591
2469.96192	0.03577
2468.67615	0.03580
2467.39038	0.03578
2466.10461	0.03567
2464.81884	0.03561
2463.53307	0.03570
2462.24730	0.03589
2460.96153	0.03606
2459.67577	0.03616
2458.39000	0.03624
2457.10423	0.03636
2455.81846	0.03646
2454.53269	0.03648
2453.24692	0.03644
2451.96115	0.03646
2450.67538	0.03658
2449.38962	0.03670
2448.10385	0.03665
2446.81808	0.03635
2445.53231	0.03589
2444.24654	0.03538
2442.96077	0.03492
2441.67500	0.03461
2440.38923	0.03451
2439.10346	0.03454
2437.81770	0.03461
2436.53193	0.03465
2435.24616	0.03474
2433.96039	0.03488
2432.67462	0.03495
2431.38885	0.03483
2430.10308	0.03455
2428.81731	0.03424
2427.53155	0.03400
2426.24578	0.03393
2424.96001	0.03406
2423.67424	0.03435
2422.38847	0.03461
2421.10270	0.03469
2419.81693	0.03463
2418.53116	0.03455
2417.24539	0.03448
2415.95963	0.03443
2414.67386	0.03446
2413.38809	0.03461
2412.10232	0.03474
2410.81655	0.03475
2409.53078	0.03474
2408.24501	0.03487
2406.95924	0.03509
2405.67347	0.03521
2404.38771	0.03507
2403.10194	0.03473
2401.81617	0.03435
2400.53040	0.03406
2399.24463	0.03393
2397.95886	0.03392
2396.67309	0.03404
2395.38732	0.03427
2394.10156	0.03451
2392.81579	0.03467
2391.53002	0.03468
2390.24425	0.03455
2388.95848	0.03431
2387.67271	0.03404
2386.38694	0.03386
2385.10117	0.03379
2383.81540	0.03374
2382.52964	0.03362
2381.24387	0.03343
2379.95810	0.03320
2378.67233	0.03293
2377.38656	0.03260
2376.10079	0.03222
2374.81502	0.03184
2373.52925	0.03151
2372.24349	0.03122
2370.95772	0.03090
2369.67195	0.03044
2368.38618	0.02980
2367.10041	0.02904
2365.81464	0.02835
2364.52887	0.02793
2363.24310	0.02782
2361.95733	0.02797
2360.67157	0.02831
2359.38580	0.02880
2358.10003	0.02942
2356.81426	0.03006
2355.52849	0.03067
2354.24272	0.03127
2352.95695	0.03188
2351.67118	0.03240
2350.38542	0.03269
2349.09965	0.03270
2347.81388	0.03249
2346.52811	0.03221
2345.24234	0.03192
2343.95657	0.03163
2342.67080	0.03135
2341.38503	0.03110
2340.09926	0.03097
2338.81350	0.03091
2337.52773	0.03086
2336.24196	0.03075
2334.95619	0.03057
2333.67042	0.03035
2332.38465	0.03008
2331.09888	0.02982
2329.81311	0.02973
2328.52735	0.02997
2327.24158	0.03060
2325.95581	0.03142
2324.67004	0.03215
2323.38427	0.03260
2322.09850	0.03274
2320.81273	0.03273
2319.52696	0.03271
2318.24119	0.03279
2316.95543	0.03294
2315.66966	0.03303
2314.38389	0.03298
2313.09812	0.03282
2311.81235	0.03269
2310.52658	0.03266
2309.24081	0.03268
2307.95504	0.03261
2306.66928	0.03241
2305.38351	0.03210
2304.09774	0.03180
2302.81197	0.03160
2301.52620	0.03161
2300.24043	0.03181
2298.95466	0.03206
2297.66889	0.03214
2296.38312	0.03198
2295.09736	0.03170
2293.81159	0.03145
2292.52582	0.03137
2291.24005	0.03147
2289.95428	0.03172
2288.66851	0.03204
2287.38274	0.03223
2286.09697	0.03216
2284.81121	0.03185
2283.52544	0.03154
2282.23967	0.03143
2280.95390	0.03152
2279.66813	0.03152
2278.38236	0.03119
2277.09659	0.03058
2275.81082	0.02993
2274.52505	0.02940
2273.23929	0.02899
2271.95352	0.02871
2270.66775	0.02858
2269.38198	0.02861
2268.09621	0.02859
2266.81044	0.02832
2265.52467	0.02783
2264.23890	0.02733
2262.95314	0.02697
2261.66737	0.02661
2260.38160	0.02602
2259.09583	0.02526
2257.81006	0.02466
2256.52429	0.02448
2255.23852	0.02470
2253.95275	0.02515
2252.66698	0.02561
2251.38122	0.02594
2250.09545	0.02617
2248.80968	0.02636
2247.52391	0.02618
2246.23814	0.02587
2244.95237	0.02551
2243.66660	0.02524
2242.38083	0.02506
2241.09507	0.02490
2239.80930	0.02472
2238.52353	0.02454
2237.23776	0.02428
2235.95199	0.02373
2234.66622	0.02285
2233.38045	0.02183
2232.09468	0.02097
2230.80891	0.02040
2229.52315	0.02011
2228.23738	0.02019
2226.95161	0.02068
2225.66584	0.02140
2224.38007	0.02199
2223.09430	0.02228
2221.80853	0.02235
2220.52276	0.02224
2219.23700	0.02190
2217.95123	0.02142
2216.66546	0.02103
2215.37969	0.02092
2214.09392	0.02094
2212.80815	0.02081
2211.52238	0.02038
2210.23661	0.01993
2208.95084	0.01995
2207.66508	0.02061
2206.37931	0.02142
2205.09354	0.02161
2203.80777	0.02098
2202.52200	0.02020
2201.23623	0.02010
2199.95046	0.02081
2198.66469	0.02160
2197.37893	0.02171
2196.09316	0.02108
2194.80739	0.02036
2193.52162	0.02009
2192.23585	0.02018
2190.95008	0.02032
2189.66431	0.02046
2188.37854	0.02061
2187.09277	0.02045
2185.80701	0.01961
2184.52124	0.01836
2183.23547	0.01746
2181.94970	0.01730
2180.66393	0.01736
2179.37816	0.01693
2178.09239	0.01601
2176.80662	0.01531
2175.52085	0.01528
2174.23509	0.01557
2172.94932	0.01557
2171.66355	0.01513
2170.37778	0.01447
2169.09201	0.01363
2167.80624	0.01260
2166.52047	0.01182
2165.23470	0.01196
2163.94894	0.01307
2162.66317	0.01403
2161.37740	0.01351
2160.09163	0.01137
2158.80586	0.00904
2157.52009	0.00806
2156.23432	0.00849
2154.94855	0.00941
2153.66278	0.01020
2152.37702	0.01095
2151.09125	0.01195
2149.80548	0.01317
2148.51971	0.01452
2147.23394	0.01601
2145.94817	0.01752
2144.66240	0.01852
2143.37663	0.01844
2142.09087	0.01735
2140.80510	0.01597
2139.51933	0.01514
2138.23356	0.01514
2136.94779	0.01566
2135.66202	0.01635
2134.37625	0.01707
2133.09048	0.01768
2131.80471	0.01791
2130.51895	0.01760
2129.23318	0.01713
2127.94741	0.01704
2126.66164	0.01756
2125.37587	0.01830
2124.09010	0.01874
2122.80433	0.01872
2121.51856	0.01853
2120.23280	0.01862
2118.94703	0.01917
2117.66126	0.02000
2116.37549	0.02069
2115.08972	0.02091
2113.80395	0.02070
2112.51818	0.02036
2111.23241	0.02015
2109.94664	0.02004
2108.66088	0.01995
2107.37511	0.01991
2106.08934	0.01989
2104.80357	0.01973
2103.51780	0.01938
2102.23203	0.01903
2100.94626	0.01888
2099.66049	0.01911
2098.37473	0.01908
2097.08896	0.01872
2095.80319	0.01826
2094.51742	0.01794
2093.23165	0.01789
2091.94588	0.01809
2090.66011	0.01840
2089.37434	0.01863
2088.08857	0.01868
2086.80281	0.01857
2085.51704	0.01842
2084.23127	0.01834
2082.94550	0.01828
2081.65973	0.01812
2080.37396	0.01777
2079.08819	0.01727
2077.80242	0.01681
2076.51666	0.01659
2075.23089	0.01673
2073.94512	0.01706
2072.65935	0.01724
2071.37358	0.01708
2070.08781	0.01668
2068.80204	0.01629
2067.51627	0.01603
2066.23050	0.01593
2064.94474	0.01598
2063.65897	0.01608
2062.37320	0.01596
2061.08743	0.01550
2059.80166	0.01479
2058.51589	0.01405
2057.23012	0.01336
2055.94435	0.01286
2054.65859	0.01273
2053.37282	0.01302
2052.08705	0.01343
2050.80128	0.01358
2049.51551	0.01347
2048.22974	0.01343
2046.94397	0.01354
2045.65820	0.01348
2044.37243	0.01297
2043.08667	0.01219
2041.80090	0.01156
2040.51513	0.01109
2039.22936	0.01033
2037.94359	0.00903
2036.65782	0.00763
2035.37205	0.00693
2034.08628	0.00728
2032.80052	0.00835
2031.51475	0.00959
2030.22898	0.01065
2028.94321	0.01139
2027.65744	0.01178
2026.37167	0.01183
2025.08590	0.01166
2023.80013	0.01128
2022.51436	0.01067
2021.22860	0.00997
2019.94283	0.00950
2018.65706	0.00941
2017.37129	0.00948
2016.08552	0.00936
2014.79975	0.00902
2013.51398	0.00878
2012.22821	0.00894
2010.94245	0.00947
2009.65668	0.01004
2008.37091	0.01036
2007.08514	0.01041
2005.79937	0.01048
2004.51360	0.01092
2003.22783	0.01176
2001.94206	0.01278
2000.65629	0.01365
1999.37053	0.01412
1998.08476	0.01412
1996.79899	0.01372
1995.51322	0.01318
1994.22745	0.01280
1992.94168	0.01280
1991.65591	0.01310
1990.37014	0.01345
1989.08438	0.01351
1987.79861	0.01324
1986.51284	0.01293
1985.22707	0.01306
1983.94130	0.01376
1982.65553	0.01464
1981.36976	0.01510
1980.08399	0.01486
1978.79822	0.01414
1977.51246	0.01323
1976.22669	0.01222
1974.94092	0.01122
1973.65515	0.01060
1972.36938	0.01085
1971.08361	0.01196
1969.79784	0.01335
1968.51207	0.01436
1967.22631	0.01472
1965.94054	0.01453
1964.65477	0.01406
1963.36900	0.01355
1962.08323	0.01318
1960.79746	0.01299
1959.51169	0.01293
1958.22592	0.01306
1956.94015	0.01349
1955.65439	0.01429
1954.36862	0.01527
1953.08285	0.01597
1951.79708	0.01604
1950.51131	0.01559
1949.22554	0.01508
1947.93977	0.01491
1946.65400	0.01518
1945.36823	0.01570
1944.08247	0.01622
1942.79670	0.01655
1941.51093	0.01660
1940.22516	0.01637
1938.93939	0.01593
1937.65362	0.01535
1936.36785	0.01480
1935.08208	0.01453
1933.79632	0.01477
1932.51055	0.01552
1931.22478	0.01653
1929.93901	0.01739
1928.65324	0.01777
1927.36747	0.01763
1926.08170	0.01724
1924.79593	0.01692
1923.51016	0.01685
1922.22440	0.01704
1920.93863	0.01738
1919.65286	0.01772
1918.36709	0.01793
1917.08132	0.01803
1915.79555	0.01814
1914.50978	0.01833
1913.22401	0.01849
1911.93825	0.01852
1910.65248	0.01840
1909.36671	0.01829
1908.08094	0.01834
1906.79517	0.01863
1905.50940	0.01908
1904.22363	0.01947
1902.93786	0.01957
1901.65209	0.01936
1900.36633	0.01909
1899.08056	0.01908
1897.79479	0.01937
1896.50902	0.01965
1895.22325	0.01963
1893.93748	0.01932
1892.65171	0.01895
1891.36594	0.01873
1890.08018	0.01868
1888.79441	0.01870
1887.50864	0.01873
1886.22287	0.01878
1884.93710	0.01885
1883.65133	0.01892
1882.36556	0.01894
1881.07979	0.01893
1879.79402	0.01892
1878.50826	0.01894
1877.22249	0.01903
1875.93672	0.01919
1874.65095	0.01938
1873.36518	0.01951
1872.07941	0.01948
1870.79364	0.01929
1869.50787	0.01897
1868.22211	0.01863
1866.93634	0.01840
1865.65057	0.01832
1864.36480	0.01832
1863.07903	0.01827
1861.79326	0.01816
1860.50749	0.01812
1859.22172	0.01826
1857.93595	0.01853
1856.65019	0.01876
1855.36442	0.01884
1854.07865	0.01880
1852.79288	0.01876
1851.50711	0.01877
1850.22134	0.01874
1848.93557	0.01861
1847.64980	0.01842
1846.36404	0.01828
1845.07827	0.01831
1843.79250	0.01851
1842.50673	0.01880
1841.22096	0.01899
1839.93519	0.01900
1838.64942	0.01887
1837.36365	0.01872
1836.07788	0.01865
1834.79212	0.01872
1833.50635	0.01891
1832.22058	0.01909
1830.93481	0.01918
1829.64904	0.01915
1828.36327	0.01904
1827.07750	0.01897
1825.79173	0.01898
1824.50597	0.01906
1823.22020	0.01914
1821.93443	0.01913
1820.64866	0.01908
1819.36289	0.01906
1818.07712	0.01910
1816.79135	0.01915
1815.50558	0.01913
1814.21981	0.01906
1812.93405	0.01900
1811.64828	0.01900
1810.36251	0.01904
1809.07674	0.01908
1807.79097	0.01913
1806.50520	0.01920
1805.21943	0.01926
1803.93366	0.01929
1802.64790	0.01931
1801.36213	0.01939
1800.07636	0.01954
1798.79059	0.01970
1797.50482	0.01978
1796.21905	0.01975
1794.93328	0.01965
1793.64751	0.01957
1792.36174	0.01959
1791.07598	0.01973
1789.79021	0.01994
1788.50444	0.02011
1787.21867	0.02023
1785.93290	0.02027
1784.64713	0.02024
1783.36136	0.02014
1782.07559	0.02002
1780.78983	0.01995
1779.50406	0.01999
1778.21829	0.02012
1776.93252	0.02026
1775.64675	0.02028
1774.36098	0.02018
1773.07521	0.02007
1771.78944	0.02008
1770.50367	0.02025
1769.21791	0.02048
1767.93214	0.02067
1766.64637	0.02077
1765.36060	0.02077
1764.07483	0.02071
1762.78906	0.02065
1761.50329	0.02063
1760.21752	0.02065
1758.93176	0.02068
1757.64599	0.02075
1756.36022	0.02088
1755.07445	0.02108
1753.78868	0.02122
1752.50291	0.02120
1751.21714	0.02101
1749.93137	0.02083
1748.64560	0.02079
1747.35984	0.02092
1746.07407	0.02113
1744.78830	0.02128
1743.50253	0.02136
1742.21676	0.02143
1740.93099	0.02154
1739.64522	0.02170
1738.35945	0.02184
1737.07369	0.02189
1735.78792	0.02189
1734.50215	0.02193
1733.21638	0.02209
1731.93061	0.02235
1730.64484	0.02261
1729.35907	0.02282
1728.07330	0.02297
1726.78753	0.02308
1725.50177	0.02318
1724.21600	0.02328
1722.93023	0.02335
1721.64446	0.02340
1720.35869	0.02342
1719.07292	0.02345
1717.78715	0.02358
1716.50138	0.02389
1715.21561	0.02438
1713.92985	0.02492
1712.64408	0.02543
1711.35831	0.02591
1710.07254	0.02637
1708.78677	0.02686
1707.50100	0.02739
1706.21523	0.02795
1704.92946	0.02852
1703.64370	0.02909
1702.35793	0.02963
1701.07216	0.03018
1699.78639	0.03078
1698.50062	0.03146
1697.21485	0.03227
1695.92908	0.03323
1694.64331	0.03429
1693.35754	0.03531
1692.07178	0.03617
1690.78601	0.03688
1689.50024	0.03755
1688.21447	0.03825
1686.92870	0.03897
1685.64293	0.03973
1684.35716	0.04056
1683.07139	0.04146
1681.78563	0.04238
1680.49986	0.04329
1679.21409	0.04416
1677.92832	0.04500
1676.64255	0.04584
1675.35678	0.04667
1674.07101	0.04746
1672.78524	0.04817
1671.49947	0.04877
1670.21371	0.04936
1668.92794	0.05003
1667.64217	0.05082
1666.35640	0.05165
1665.07063	0.05246
1663.78486	0.05324
1662.49909	0.05402
1661.21332	0.05479
1659.92756	0.05551
1658.64179	0.05613
1657.35602	0.05663
1656.07025	0.05701
1654.78448	0.05732
1653.49871	0.05767
1652.21294	0.05812
1650.92717	0.05861
1649.64140	0.05902
1648.35564	0.05932
1647.06987	0.05953
1645.78410	0.05973
1644.49833	0.05992
1643.21256	0.06004
1641.92679	0.06003
1640.64102	0.05988
1639.35525	0.05957
1638.06949	0.05917
1636.78372	0.05877
1635.49795	0.05847
1634.21218	0.05825
1632.92641	0.05804
1631.64064	0.05773
1630.35487	0.05734
1629.06910	0.05691
1627.78333	0.05645
1626.49757	0.05594
1625.21180	0.05541
1623.92603	0.05494
1622.64026	0.05453
1621.35449	0.05411
1620.06872	0.05362
1618.78295	0.05303
1617.49718	0.05242
1616.21142	0.05190
1614.92565	0.05152
1613.63988	0.05124
1612.35411	0.05097
1611.06834	0.05067
1609.78257	0.05033
1608.49680	0.04999
1607.21103	0.04972
1605.92526	0.04954
1604.63950	0.04945
1603.35373	0.04940
1602.06796	0.04937
1600.78219	0.04933
1599.49642	0.04929
1598.21065	0.04925
1596.92488	0.04924
1595.63911	0.04927
1594.35335	0.04937
1593.06758	0.04957
1591.78181	0.04986
1590.49604	0.05019
1589.21027	0.05052
1587.92450	0.05085
1586.63873	0.05118
1585.35296	0.05155
1584.06719	0.05198
1582.78143	0.05244
1581.49566	0.05291
1580.20989	0.05329
1578.92412	0.05360
1577.63835	0.05394
1576.35258	0.05442
1575.06681	0.05511
1573.78104	0.05589
1572.49528	0.05667
1571.20951	0.05741
1569.92374	0.05815
1568.63797	0.05893
1567.35220	0.05967
1566.06643	0.06033
1564.78066	0.06089
1563.49489	0.06133
1562.20912	0.06170
1560.92336	0.06209
1559.63759	0.06258
1558.35182	0.06322
1557.06605	0.06395
1555.78028	0.06470
1554.49451	0.06541
1553.20874	0.06609
1551.92297	0.06670
1550.63721	0.06722
1549.35144	0.06762
1548.06567	0.06789
1546.77990	0.06804
1545.49413	0.06803
1544.20836	0.06788
1542.92259	0.06763
1541.63682	0.06741
1540.35105	0.06734
1539.06529	0.06745
1537.77952	0.06767
1536.49375	0.06787
1535.20798	0.06801
1533.92221	0.06817
1532.63644	0.06842
1531.35067	0.06877
1530.06490	0.06918
1528.77914	0.06961
1527.49337	0.07007
1526.20760	0.07060
1524.92183	0.07119
1523.63606	0.07187
1522.35029	0.07266
1521.06452	0.07360
1519.77875	0.07465
1518.49298	0.07581
1517.20722	0.07705
1515.92145	0.07839
1514.63568	0.07983
1513.34991	0.08128
1512.06414	0.08266
1510.77837	0.08396
1509.49260	0.08522
1508.20683	0.08656
1506.92107	0.08806
1505.63530	0.08973
1504.34953	0.09142
1503.06376	0.09295
1501.77799	0.09423
1500.49222	0.09529
1499.20645	0.09627
1497.92068	0.09728
1496.63491	0.09833
1495.34915	0.09939
1494.06338	0.10039
1492.77761	0.10130
1491.49184	0.10220
1490.20607	0.10315
1488.92030	0.10422
1487.63453	0.10541
1486.34876	0.10668
1485.06299	0.10799
1483.77723	0.10931
1482.49146	0.11068
1481.20569	0.11211
1479.91992	0.11359
1478.63415	0.11505
1477.34838	0.11642
1476.06261	0.11768
1474.77684	0.11884
1473.49108	0.11997
1472.20531	0.12109
1470.91954	0.12219
1469.63377	0.12322
1468.34800	0.12413
1467.06223	0.12493
1465.77646	0.12563
1464.49069	0.12629
1463.20492	0.12694
1461.91916	0.12763
1460.63339	0.12835
1459.34762	0.12908
1458.06185	0.12978
1456.77608	0.13048
1455.49031	0.13121
1454.20454	0.13192
1452.91877	0.13258
1451.63301	0.13313
1450.34724	0.13358
1449.06147	0.13391
1447.77570	0.13409
1446.48993	0.13410
1445.20416	0.13395
1443.91839	0.13369
1442.63262	0.13336
1441.34685	0.13302
1440.06109	0.13266
1438.77532	0.13233
1437.48955	0.13214
1436.20378	0.13221
1434.91801	0.13262
1433.63224	0.13334
1432.34647	0.13433
1431.06070	0.13556
1429.77494	0.13701
1428.48917	0.13866
1427.20340	0.14046
1425.91763	0.14234
1424.63186	0.14422
1423.34609	0.14604
1422.06032	0.14779
1420.77455	0.14950
1419.48878	0.15119
1418.20302	0.15278
1416.91725	0.15419
1415.63148	0.15532
1414.34571	0.15616
1413.05994	0.15675
1411.77417	0.15708
1410.48840	0.15714
1409.20263	0.15687
1407.91687	0.15624
1406.63110	0.15526
1405.34533	0.15399
1404.05956	0.15247
1402.77379	0.15072
1401.48802	0.14876
1400.20225	0.14658
1398.91648	0.14420
1397.63071	0.14166
1396.34495	0.13897
1395.05918	0.13616
1393.77341	0.13323
1392.48764	0.13020
1391.20187	0.12712
1389.91610	0.12402
1388.63033	0.12094
1387.34456	0.11789
1386.05880	0.11488
1384.77303	0.11191
1383.48726	0.10898
1382.20149	0.10613
1380.91572	0.10334
1379.62995	0.10058
1378.34418	0.09777
1377.05841	0.09487
1375.77264	0.09190
1374.48688	0.08887
1373.20111	0.08583
1371.91534	0.08282
1370.62957	0.07990
1369.34380	0.07710
1368.05803	0.07444
1366.77226	0.07194
1365.48649	0.06957
1364.20073	0.06729
1362.91496	0.06508
1361.62919	0.06296
1360.34342	0.06099
1359.05765	0.05920
1357.77188	0.05759
1356.48611	0.05616
1355.20034	0.05486
1353.91457	0.05367
1352.62881	0.05256
1351.34304	0.05153
1350.05727	0.05059
1348.77150	0.04972
1347.48573	0.04890
1346.19996	0.04809
1344.91419	0.04729
1343.62842	0.04652
1342.34266	0.04581
1341.05689	0.04516
1339.77112	0.04456
1338.48535	0.04401
1337.19958	0.04348
1335.91381	0.04298
1334.62804	0.04250
1333.34227	0.04204
1332.05650	0.04156
1330.77074	0.04106
1329.48497	0.04057
1328.19920	0.04010
1326.91343	0.03971
1325.62766	0.03939
1324.34189	0.03913
1323.05612	0.03890
1321.77035	0.03862
1320.48459	0.03828
1319.19882	0.03788
1317.91305	0.03748
1316.62728	0.03712
1315.34151	0.03682
1314.05574	0.03656
1312.76997	0.03631
1311.48420	0.03605
1310.19843	0.03577
1308.91267	0.03547
1307.62690	0.03518
1306.34113	0.03492
1305.05536	0.03468
1303.76959	0.03445
1302.48382	0.03421
1301.19805	0.03396
1299.91228	0.03369
1298.62652	0.03338
1297.34075	0.03306
1296.05498	0.03278
1294.76921	0.03256
1293.48344	0.03243
1292.19767	0.03234
1290.91190	0.03225
1289.62613	0.03211
1288.34036	0.03194
1287.05460	0.03172
1285.76883	0.03148
1284.48306	0.03124
1283.19729	0.03102
1281.91152	0.03086
1280.62575	0.03077
1279.33998	0.03071
1278.05421	0.03063
1276.76845	0.03048
1275.48268	0.03027
1274.19691	0.03003
1272.91114	0.02982
1271.62537	0.02963
1270.33960	0.02948
1269.05383	0.02938
1267.76806	0.02935
1266.48229	0.02935
1265.19653	0.02933
1263.91076	0.02926
1262.62499	0.02913
1261.33922	0.02896
1260.05345	0.02878
1258.76768	0.02864
1257.48191	0.02855
1256.19614	0.02854
1254.91037	0.02855
1253.62461	0.02854
1252.33884	0.02847
1251.05307	0.02833
1249.76730	0.02815
1248.48153	0.02798
1247.19576	0.02784
1245.90999	0.02775
1244.62422	0.02771
1243.33846	0.02767
1242.05269	0.02760
1240.76692	0.02747
1239.48115	0.02727
1238.19538	0.02705
1236.90961	0.02687
1235.62384	0.02676
1234.33807	0.02671
1233.05230	0.02665
1231.76654	0.02652
1230.48077	0.02629
1229.19500	0.02602
1227.90923	0.02577
1226.62346	0.02556
1225.33769	0.02536
1224.05192	0.02515
1222.76615	0.02490
1221.48039	0.02466
1220.19462	0.02445
1218.90885	0.02427
1217.62308	0.02409
1216.33731	0.02391
1215.05154	0.02377
1213.76577	0.02369
1212.48000	0.02367
1211.19423	0.02364
1209.90847	0.02359
1208.62270	0.02352
1207.33693	0.02344
1206.05116	0.02338
1204.76539	0.02331
1203.47962	0.02327
1202.19385	0.02326
1200.90808	0.02324
1199.62232	0.02317
1198.33655	0.02308
1197.05078	0.02295
1195.76501	0.02282
1194.47924	0.02273
1193.19347	0.02268
1191.90770	0.02266
1190.62193	0.02266
1189.33616	0.02264
1188.05040	0.02264
1186.76463	0.02267
1185.47886	0.02274
1184.19309	0.02284
1182.90732	0.02294
1181.62155	0.02305
1180.33578	0.02315
1179.05001	0.02325
1177.76425	0.02333
1176.47848	0.02341
1175.19271	0.02353
1173.90694	0.02372
1172.62117	0.02397
1171.33540	0.02422
1170.04963	0.02444
1168.76386	0.02465
1167.47809	0.02489
1166.19233	0.02521
1164.90656	0.02556
1163.62079	0.02587
1162.33502	0.02610
1161.04925	0.02630
1159.76348	0.02656
1158.47771	0.02690
1157.19194	0.02730
1155.90618	0.02775
1154.62041	0.02819
1153.33464	0.02860
1152.04887	0.02899
1150.76310	0.02935
1149.47733	0.02973
1148.19156	0.03016
1146.90579	0.03071
1145.62002	0.03141
1144.33426	0.03226
1143.04849	0.03317
1141.76272	0.03409
1140.47695	0.03507
1139.19118	0.03619
1137.90541	0.03746
1136.61964	0.03888
1135.33387	0.04046
1134.04811	0.04223
1132.76234	0.04420
1131.47657	0.04638
1130.19080	0.04878
1128.90503	0.05142
1127.61926	0.05433
1126.33349	0.05753
1125.04772	0.06098
1123.76195	0.06461
1122.47619	0.06833
1121.19042	0.07211
1119.90465	0.07598
1118.61888	0.08000
1117.33311	0.08418
1116.04734	0.08845
1114.76157	0.09266
1113.47580	0.09674
1112.19004	0.10069
1110.90427	0.10460
1109.61850	0.10850
1108.33273	0.11239
1107.04696	0.11624
1105.76119	0.12001
1104.47542	0.12365
1103.18965	0.12716
1101.90388	0.13054
1100.61812	0.13380
1099.33235	0.13699
1098.04658	0.14013
1096.76081	0.14322
1095.47504	0.14622
1094.18927	0.14904
1092.90350	0.15167
1091.61773	0.15415
1090.33197	0.15654
1089.04620	0.15888
1087.76043	0.16115
1086.47466	0.16331
1085.18889	0.16539
1083.90312	0.16747
1082.61735	0.16967
1081.33158	0.17210
1080.04581	0.17475
1078.76005	0.17762
1077.47428	0.18070
1076.18851	0.18399
1074.90274	0.18742
1073.61697	0.19094
1072.33120	0.19451
1071.04543	0.19817
1069.75966	0.20197
1068.47390	0.20594
1067.18813	0.21009
1065.90236	0.21438
1064.61659	0.21875
1063.33082	0.22315
1062.04505	0.22757
1060.75928	0.23202
1059.47351	0.23652
1058.18774	0.24102
1056.90198	0.24541
1055.61621	0.24968
1054.33044	0.25388
1053.04467	0.25811
1051.75890	0.26243
1050.47313	0.26684
1049.18736	0.27135
1047.90159	0.27593
1046.61583	0.28056
1045.33006	0.28521
1044.04429	0.28990
1042.75852	0.29466
1041.47275	0.29951
1040.18698	0.30444
1038.90121	0.30943
1037.61544	0.31446
1036.32967	0.31950
1035.04391	0.32448
1033.75814	0.32932
1032.47237	0.33392
1031.18660	0.33819
1029.90083	0.34210
1028.61506	0.34564
1027.32929	0.34886
1026.04352	0.35179
1024.75775	0.35436
1023.47199	0.35643
1022.18622	0.35790
1020.90045	0.35874
1019.61468	0.35898
1018.32891	0.35861
1017.04314	0.35757
1015.75737	0.35582
1014.47160	0.35342
1013.18584	0.35048
1011.90007	0.34703
1010.61430	0.34300
1009.32853	0.33831
1008.04276	0.33290
1006.75699	0.32685
1005.47122	0.32028
1004.18545	0.31330
1002.89968	0.30590
1001.61392	0.29803
1000.32815	0.28971
999.04238	0.28103
997.75661	0.27213
996.47084	0.26312
995.18507	0.25411
993.89930	0.24517
992.61353	0.23630
991.32777	0.22753
990.04200	0.21894
988.75623	0.21058
987.47046	0.20249
986.18469	0.19469
984.89892	0.18721
983.61315	0.18008
982.32738	0.17334
981.04161	0.16700
979.75585	0.16106
978.47008	0.15553
977.18431	0.15046
975.89854	0.14595
974.61277	0.14205
973.32700	0.13875
972.04123	0.13612
970.75546	0.13425
969.46970	0.13324
968.18393	0.13306
966.89816	0.13357
965.61239	0.13456
964.32662	0.13573
963.04085	0.13680
961.75508	0.13746
960.46931	0.13748
959.18354	0.13665
957.89778	0.13489
956.61201	0.13225
955.32624	0.12900
954.04047	0.12552
952.75470	0.12209
951.46893	0.11881
950.18316	0.11563
948.89739	0.11243
947.61163	0.10917
946.32586	0.10590
945.04009	0.10271
943.75432	0.09967
942.46855	0.09681
941.18278	0.09413
939.89701	0.09160
938.61124	0.08920
937.32547	0.08692
936.03971	0.08476
934.75394	0.08276
933.46817	0.08087
932.18240	0.07907
930.89663	0.07736
929.61086	0.07580
928.32509	0.07444
927.03932	0.07323
925.75356	0.07208
924.46779	0.07096
923.18202	0.06987
921.89625	0.06882
920.61048	0.06784
919.32471	0.06695
918.03894	0.06613
916.75317	0.06533
915.46740	0.06446
914.18164	0.06353
912.89587	0.06262
911.61010	0.06183
910.32433	0.06120
909.03856	0.06068
907.75279	0.06022
906.46702	0.05976
905.18125	0.05926
903.89549	0.05868
902.60972	0.05804
901.32395	0.05738
900.03818	0.05677
898.75241	0.05626
897.46664	0.05581
896.18087	0.05540
894.89510	0.05500
893.60933	0.05465
892.32357	0.05442
891.03780	0.05443
889.75203	0.05474
888.46626	0.05539
887.18049	0.05644
885.89472	0.05801
884.60895	0.06030
883.32318	0.06343
882.03742	0.06725
880.75165	0.07122
879.46588	0.07474
878.18011	0.07760
876.89434	0.08007
875.60857	0.08258
874.32280	0.08521
873.03703	0.08754
871.75126	0.08899
870.46550	0.08916
869.17973	0.08801
867.89396	0.08580
866.60819	0.08284
865.32242	0.07944
864.03665	0.07587
862.75088	0.07238
861.46511	0.06914
860.17935	0.06625
858.89358	0.06378
857.60781	0.06172
856.32204	0.06007
855.03627	0.05878
853.75050	0.05775
852.46473	0.05682
851.17896	0.05588
849.89319	0.05493
848.60743	0.05397
847.32166	0.05307
846.03589	0.05229
844.75012	0.05167
843.46435	0.05118
842.17858	0.05076
840.89281	0.05033
839.60704	0.04985
838.32128	0.04934
837.03551	0.04888
835.74974	0.04857
834.46397	0.04839
833.17820	0.04821
831.89243	0.04791
830.60666	0.04749
829.32089	0.04708
828.03512	0.04684
826.74936	0.04677
825.46359	0.04679
824.17782	0.04676
822.89205	0.04666
821.60628	0.04651
820.32051	0.04632
819.03474	0.04609
817.74897	0.04585
816.46321	0.04564
815.17744	0.04547
813.89167	0.04530
812.60590	0.04515
811.32013	0.04504
810.03436	0.04497
808.74859	0.04490
807.46282	0.04480
806.17705	0.04463
804.89129	0.04441
803.60552	0.04418
802.31975	0.04405
801.03398	0.04400
799.74821	0.04395
798.46244	0.04383
797.17667	0.04366
795.89090	0.04351
794.60513	0.04341
793.31937	0.04333
792.03360	0.04327
790.74783	0.04320
789.46206	0.04313
788.17629	0.04308
786.89052	0.04308
785.60475	0.04316
784.31898	0.04330
783.03322	0.04335
781.74745	0.04322
780.46168	0.04289
779.17591	0.04251
777.89014	0.04224
776.60437	0.04216
775.31860	0.04226
774.03283	0.04245
772.74706	0.04265
771.46130	0.04276
770.17553	0.04278
768.88976	0.04274
767.60399	0.04271
766.31822	0.04271
765.03245	0.04268
763.74668	0.04261
762.46091	0.04255
761.17515	0.04260
759.88938	0.04277
758.60361	0.04299
757.31784	0.04318
756.03207	0.04329
754.74630	0.04334
753.46053	0.04334
752.17476	0.04335
750.88899	0.04339
749.60323	0.04342
748.31746	0.04343
747.03169	0.04341
745.74592	0.04339
744.46015	0.04337
743.17438	0.04335
741.88861	0.04336
740.60284	0.04338
739.31708	0.04332
738.03131	0.04317
736.74554	0.04298
735.45977	0.04281
734.17400	0.04267
732.88823	0.04254
731.60246	0.04245
730.31669	0.04244
729.03092	0.04250
727.74516	0.04255
726.45939	0.04257
725.17362	0.04258
723.88785	0.04256
722.60208	0.04270
721.31631	0.04289
720.03054	0.04303
718.74477	0.04310
717.45901	0.04312
716.17324	0.04309
714.88747	0.04298
713.60170	0.04279
712.31593	0.04257
711.03016	0.04237
709.74439	0.04223
708.45862	0.04217
707.17285	0.04218
705.88709	0.04223
704.60132	0.04229
703.31555	0.04233
702.02978	0.04233
700.74401	0.04233
699.45824	0.04233
698.17247	0.04233
696.88670	0.04231
695.60094	0.04229
694.31517	0.04226
693.02940	0.04220
691.74363	0.04214
690.45786	0.04210
689.17209	0.04208
687.88632	0.04207
686.60055	0.04201
685.31478	0.04191
684.02902	0.04181
682.74325	0.04174
681.45748	0.04167
680.17171	0.04159
678.88594	0.04149
677.60017	0.04144
676.31440	0.04149
675.02863	0.04161
673.74287	0.04176
672.45710	0.04185
671.17133	0.04184
669.88556	0.04176
668.59979	0.04165
667.31402	0.04155
666.02825	0.04142
664.74248	0.04122
663.45671	0.04099
662.17095	0.04079
660.88518	0.04062
659.59941	0.04043
658.31364	0.04020
657.02787	0.03993
655.74210	0.03969
654.45633	0.03952
653.17056	0.03942
651.88480	0.03936
650.59903	0.03927
649.31326	0.03914
648.02749	0.03899
646.74172	0.03890
645.45595	0.03891
644.17018	0.03899
642.88441	0.03907
641.59864	0.03912
640.31288	0.03916
639.02711	0.03922
637.74134	0.03931
636.45557	0.03946
635.16980	0.03971
633.88403	0.04006
632.59826	0.04050
631.31249	0.04104
630.02673	0.04179
628.74096	0.04269
627.45519	0.04319
626.16942	0.04463
624.88365	0.04694
623.59788	0.04953
622.31211	0.05192
621.02634	0.05394
619.74057	0.05595
618.45481	0.05851
617.16904	0.06191
615.88327	0.06589
614.59750	0.07000
613.31173	0.07434
612.02596	0.07984
610.74019	0.08721
609.45442	0.09583
608.16866	0.10420
606.88289	0.11157
605.59712	0.11814
604.31135	0.12394
603.02558	0.12819
601.73981	0.13002
600.45404	0.12928
599.16827	0.12662
597.88250	0.12303
596.59674	0.11924
595.31097	0.11556
594.02520	0.11207
592.73943	0.10893
591.45366	0.10644
590.16789	0.10483
588.88212	0.10417
587.59635	0.10440
586.31059	0.10548
585.02482	0.10738
583.73905	0.10995
582.45328	0.11294
581.16751	0.11611
579.88174	0.11931
578.59597	0.12253
577.31020	0.12583
576.02443	0.12918
574.73867	0.13249
573.45290	0.13564
572.16713	0.13867
570.88136	0.14181
569.59559	0.14538
568.30982	0.14961
567.02405	0.15443
565.73828	0.15940
564.45251	0.16388
563.16675	0.16724
561.88098	0.16901
560.59521	0.16883
559.30944	0.16650
558.02367	0.16201
556.73790	0.15568
555.45213	0.14812
554.16636	0.14005
552.88060	0.13211
551.59483	0.12466
550.30906	0.11789
549.02329	0.11183
547.73752	0.10645
546.45175	0.10165
545.16598	0.09731
543.88021	0.09330
542.59444	0.08953
541.30868	0.08596
540.02291	0.08262
538.73714	0.07956
537.45137	0.07683
536.16560	0.07444
534.87983	0.07229
533.59406	0.07028
532.30829	0.06834
531.02253	0.06648
529.73676	0.06475
528.45099	0.06317
527.16522	0.06175
525.87945	0.06042
524.59368	0.05912
523.30791	0.05781
522.02214	0.05653
520.73637	0.05529
519.45061	0.05408
518.16484	0.05287
516.87907	0.05167
515.59330	0.05056
514.30753	0.04964
513.02176	0.04889
511.73599	0.04821
510.45022	0.04750
509.16446	0.04674
507.87869	0.04603
506.59292	0.04541
505.30715	0.04487
504.02138	0.04429
502.73561	0.04363
501.44984	0.04294
500.16407	0.04228
498.87830	0.04170
497.59254	0.04120
496.30677	0.04079
495.02100	0.04047
493.73523	0.04022
492.44946	0.03995
491.16369	0.03965
489.87792	0.03935
488.59215	0.03908
487.30639	0.03881
486.02062	0.03854
484.73485	0.03829
483.44908	0.03817
482.16331	0.03818
480.87754	0.03822
479.59177	0.03822
478.30600	0.03820
477.02023	0.03829
475.73447	0.03854
474.44870	0.03891
473.16293	0.03926
471.87716	0.03946
470.59139	0.03947
469.30562	0.03932
468.01985	0.03909
466.73408	0.03880
465.44832	0.03844
464.16255	0.03800
462.87678	0.03748
461.59101	0.03693
460.30524	0.03639
459.01947	0.03590
457.73370	0.03546
456.44793	0.03509
455.16216	0.03478
453.87640	0.03450
452.59063	0.03418
451.30486	0.03378
450.01909	0.03333
448.73332	0.03290
447.44755	0.03255
446.16178	0.03226
444.87601	0.03201
443.59025	0.03178
442.30448	0.03157
441.01871	0.03139
439.73294	0.03124
438.44717	0.03111
437.16140	0.03098
435.87563	0.03085
434.58986	0.03071
433.30409	0.03055
432.01833	0.03034
430.73256	0.03009
429.44679	0.02982
428.16102	0.02956
426.87525	0.02933
425.58948	0.02914
424.30371	0.02899
423.01794	0.02884
421.73218	0.02865
420.44641	0.02846
419.16064	0.02828
417.87487	0.02812
416.58910	0.02798
415.30333	0.02782
414.01756	0.02767
412.73179	0.02755
411.44602	0.02750
410.16026	0.02752
408.87449	0.02756
407.58872	0.02761
406.30295	0.02763
405.01718	0.02763
403.73141	0.02763
402.44564	0.02763
401.15987	0.02762
399.87411	0.02760
