3997.45528	0.01187
3996.16951	0.01135
3994.88374	0.01106
3993.59798	0.01105
3992.31221	0.01122
3991.02644	0.01137
3989.74067	0.01142
3988.45490	0.01150
3987.16913	0.01178
3985.88336	0.01215
3984.59759	0.01226
3983.31183	0.01195
3982.02606	0.01155
3980.74029	0.01157
3979.45452	0.01212
3978.16875	0.01280
3976.88298	0.01319
3975.59721	0.01324
3974.31144	0.01309
3973.02567	0.01277
3971.73991	0.01217
3970.45414	0.01135
3969.16837	0.01067
3967.88260	0.01044
3966.59683	0.01066
3965.31106	0.01106
3964.02529	0.01136
3962.73952	0.01137
3961.45376	0.01112
3960.16799	0.01091
3958.88222	0.01112
3957.59645	0.01179
3956.31068	0.01251
3955.02491	0.01280
3953.73914	0.01259
3952.45337	0.01227
3951.16760	0.01219
3949.88184	0.01237
3948.59607	0.01252
3947.31030	0.01236
3946.02453	0.01186
3944.73876	0.01121
3943.45299	0.01076
3942.16722	0.01076
3940.88145	0.01125
3939.59569	0.01199
3938.30992	0.01266
3937.02415	0.01314
3935.73838	0.01352
3934.45261	0.01375
3933.16684	0.01360
3931.88107	0.01300
3930.59530	0.01236
3929.30953	0.01225
3928.02377	0.01276
3926.73800	0.01338
3925.45223	0.01346
3924.16646	0.01285
3922.88069	0.01192
3921.59492	0.01112
3920.30915	0.01068
3919.02338	0.01068
3917.73762	0.01108
3916.45185	0.01166
3915.16608	0.01213
3913.88031	0.01228
3912.59454	0.01200
3911.30877	0.01140
3910.02300	0.01083
3908.73723	0.01068
3907.45146	0.01112
3906.16570	0.01201
3904.87993	0.01298
3903.59416	0.01365
3902.30839	0.01382
3901.02262	0.01354
3899.73685	0.01294
3898.45108	0.01228
3897.16531	0.01187
3895.87955	0.01195
3894.59378	0.01251
3893.30801	0.01325
3892.02224	0.01376
3890.73647	0.01387
3889.45070	0.01390
3888.16493	0.01427
3886.87916	0.01468
3885.59339	0.01442
3884.30763	0.01341
3883.02186	0.01239
3881.73609	0.01182
3880.45032	0.01138
3879.16455	0.01078
3877.87878	0.01032
3876.59301	0.01038
3875.30724	0.01084
3874.02148	0.01136
3872.73571	0.01177
3871.44994	0.01200
3870.16417	0.01185
3868.87840	0.01154
3867.59263	0.01169
3866.30686	0.01238
3865.02109	0.01281
3863.73532	0.01246
3862.44956	0.01177
3861.16379	0.01136
3859.87802	0.01138
3858.59225	0.01182
3857.30648	0.01289
3856.02071	0.01447
3854.73494	0.01567
3853.44917	0.01547
3852.16341	0.01408
3850.87764	0.01287
3849.59187	0.01260
3848.30610	0.01287
3847.02033	0.01294
3845.73456	0.01255
3844.44879	0.01202
3843.16302	0.01185
3841.87725	0.01238
3840.59149	0.01347
3839.30572	0.01438
3838.01995	0.01428
3836.73418	0.01323
3835.44841	0.01220
3834.16264	0.01204
3832.87687	0.01256
3831.59110	0.01296
3830.30534	0.01269
3829.01957	0.01179
3827.73380	0.01061
3826.44803	0.00969
3825.16226	0.00967
3823.87649	0.01087
3822.59072	0.01259
3821.30495	0.01351
3820.01918	0.01318
3818.73342	0.01243
3817.44765	0.01202
3816.16188	0.01171
3814.87611	0.01122
3813.59034	0.01097
3812.30457	0.01125
3811.01880	0.01160
3809.73303	0.01158
3808.44726	0.01123
3807.16150	0.01084
3805.87573	0.01076
3804.58996	0.01142
3803.30419	0.01276
3802.01842	0.01388
3800.73265	0.01394
3799.44688	0.01314
3798.16111	0.01223
3796.87535	0.01155
3795.58958	0.01114
3794.30381	0.01112
3793.01804	0.01144
3791.73227	0.01176
3790.44650	0.01181
3789.16073	0.01164
3787.87496	0.01140
3786.58919	0.01117
3785.30343	0.01102
3784.01766	0.01103
3782.73189	0.01119
3781.44612	0.01132
3780.16035	0.01122
3778.87458	0.01083
3777.58881	0.01043
3776.30304	0.01034
3775.01728	0.01059
3773.73151	0.01098
3772.44574	0.01128
3771.15997	0.01136
3769.87420	0.01122
3768.58843	0.01105
3767.30266	0.01104
3766.01689	0.01108
3764.73112	0.01106
3763.44536	0.01119
3762.15959	0.01171
3760.87382	0.01236
3759.58805	0.01268
3758.30228	0.01269
3757.01651	0.01283
3755.73074	0.01348
3754.44497	0.01452
3753.15921	0.01530
3751.87344	0.01514
3750.58767	0.01402
3749.30190	0.01274
3748.01613	0.01241
3746.73036	0.01347
3745.44459	0.01476
3744.15882	0.01459
3742.87305	0.01276
3741.58729	0.01067
3740.30152	0.00942
3739.01575	0.00914
3737.72998	0.00960
3736.44421	0.01043
3735.15844	0.01115
3733.87267	0.01158
3732.58690	0.01159
3731.30114	0.01122
3730.01537	0.01090
3728.72960	0.01109
3727.44383	0.01176
3726.15806	0.01222
3724.87229	0.01203
3723.58652	0.01144
3722.30075	0.01076
3721.01498	0.01026
3719.72922	0.01012
3718.44345	0.01027
3717.15768	0.01057
3715.87191	0.01107
3714.58614	0.01194
3713.30037	0.01299
3712.01460	0.01357
3710.72883	0.01342
3709.44307	0.01295
3708.15730	0.01231
3706.87153	0.01174
3705.58576	0.01143
3704.29999	0.01141
3703.01422	0.01147
3701.72845	0.01135
3700.44268	0.01117
3699.15691	0.01124
3697.87115	0.01156
3696.58538	0.01175
3695.29961	0.01170
3694.01384	0.01177
3692.72807	0.01214
3691.44230	0.01271
3690.15653	0.01302
3688.87076	0.01233
3687.58500	0.01069
3686.29923	0.00913
3685.01346	0.00860
3683.72769	0.00910
3682.44192	0.00997
3681.15615	0.01080
3679.87038	0.01175
3678.58461	0.01316
3677.29884	0.01474
3676.01308	0.01558
3674.72731	0.01532
3673.44154	0.01472
3672.15577	0.01452
3670.87000	0.01425
3669.58423	0.01317
3668.29846	0.01186
3667.01269	0.01145
3665.72693	0.01206
3664.44116	0.01274
3663.15539	0.01274
3661.86962	0.01206
3660.58385	0.01127
3659.29808	0.01097
3658.01231	0.01128
3656.72654	0.01180
3655.44077	0.01209
3654.15501	0.01221
3652.86924	0.01245
3651.58347	0.01263
3650.29770	0.01223
3649.01193	0.01118
3647.72616	0.01008
3646.44039	0.00958
3645.15462	0.00974
3643.86886	0.01009
3642.58309	0.01035
3641.29732	0.01060
3640.01155	0.01096
3638.72578	0.01135
3637.44001	0.01164
3636.15424	0.01190
3634.86847	0.01222
3633.58270	0.01232
3632.29694	0.01191
3631.01117	0.01100
3629.72540	0.00971
3628.43963	0.00843
3627.15386	0.00781
3625.86809	0.00823
3624.58232	0.00926
3623.29655	0.01031
3622.01079	0.01105
3620.72502	0.01138
3619.43925	0.01109
3618.15348	0.01036
3616.86771	0.00975
3615.58194	0.00960
3614.29617	0.00981
3613.01040	0.01023
3611.72463	0.01087
3610.43887	0.01154
3609.15310	0.01187
3607.86733	0.01171
3606.58156	0.01137
3605.29579	0.01119
3604.01002	0.01118
3602.72425	0.01118
3601.43848	0.01098
3600.15272	0.01062
3598.86695	0.01039
3597.58118	0.01052
3596.29541	0.01081
3595.00964	0.01119
3593.72387	0.01156
3592.43810	0.01166
3591.15233	0.01160
3589.86656	0.01152
3588.58080	0.01134
3587.29503	0.01116
3586.00926	0.01107
3584.72349	0.01118
3583.43772	0.01150
3582.15195	0.01179
3580.86618	0.01183
3579.58041	0.01168
3578.29464	0.01159
3577.00888	0.01178
3575.72311	0.01215
3574.43734	0.01232
3573.15157	0.01194
3571.86580	0.01116
3570.58003	0.01053
3569.29426	0.01044
3568.00849	0.01075
3566.72273	0.01100
3565.43696	0.01093
3564.15119	0.01076
3562.86542	0.01086
3561.57965	0.01150
3560.29388	0.01255
3559.00811	0.01346
3557.72234	0.01372
3556.43657	0.01330
3555.15081	0.01269
3553.86504	0.01234
3552.57927	0.01238
3551.29350	0.01267
3550.00773	0.01309
3548.72196	0.01354
3547.43619	0.01375
3546.15042	0.01341
3544.86466	0.01255
3543.57889	0.01166
3542.29312	0.01131
3541.00735	0.01162
3539.72158	0.01219
3538.43581	0.01254
3537.15004	0.01250
3535.86427	0.01219
3534.57850	0.01178
3533.29274	0.01140
3532.00697	0.01123
3530.72120	0.01140
3529.43543	0.01181
3528.14966	0.01216
3526.86389	0.01233
3525.57812	0.01248
3524.29235	0.01275
3523.00659	0.01296
3521.72082	0.01282
3520.43505	0.01222
3519.14928	0.01142
3517.86351	0.01083
3516.57774	0.01075
3515.29197	0.01122
3514.00620	0.01204
3512.72043	0.01287
3511.43467	0.01344
3510.14890	0.01356
3508.86313	0.01321
3507.57736	0.01260
3506.29159	0.01205
3505.00582	0.01171
3503.72005	0.01150
3502.43428	0.01133
3501.14852	0.01124
3499.86275	0.01131
3498.57698	0.01152
3497.29121	0.01175
3496.00544	0.01196
3494.71967	0.01216
3493.43390	0.01238
3492.14813	0.01258
3490.86236	0.01266
3489.57660	0.01246
3488.29083	0.01191
3487.00506	0.01115
3485.71929	0.01043
3484.43352	0.00994
3483.14775	0.00980
3481.86198	0.01002
3480.57621	0.01056
3479.29045	0.01125
3478.00468	0.01184
3476.71891	0.01212
3475.43314	0.01206
3474.14737	0.01177
3472.86160	0.01150
3471.57583	0.01151
3470.29006	0.01180
3469.00429	0.01213
3467.71853	0.01220
3466.43276	0.01198
3465.14699	0.01160
3463.86122	0.01113
3462.57545	0.01056
3461.28968	0.00999
3460.00391	0.00958
3458.71814	0.00939
3457.43238	0.00937
3456.14661	0.00942
3454.86084	0.00957
3453.57507	0.00982
3452.28930	0.01007
3451.00353	0.01024
3449.71776	0.01039
3448.43199	0.01070
3447.14622	0.01125
3445.86046	0.01189
3444.57469	0.01241
3443.28892	0.01273
3442.00315	0.01284
3440.71738	0.01271
3439.43161	0.01226
3438.14584	0.01153
3436.86007	0.01068
3435.57431	0.01005
3434.28854	0.00997
3433.00277	0.01055
3431.71700	0.01152
3430.43123	0.01233
3429.14546	0.01259
3427.85969	0.01233
3426.57392	0.01191
3425.28815	0.01154
3424.00239	0.01126
3422.71662	0.01103
3421.43085	0.01095
3420.14508	0.01109
3418.85931	0.01129
3417.57354	0.01134
3416.28777	0.01126
3415.00200	0.01127
3413.71624	0.01152
3412.43047	0.01191
3411.14470	0.01225
3409.85893	0.01245
3408.57316	0.01250
3407.28739	0.01241
3406.00162	0.01219
3404.71585	0.01199
3403.43008	0.01193
3402.14432	0.01201
3400.85855	0.01211
3399.57278	0.01222
3398.28701	0.01237
3397.00124	0.01255
3395.71547	0.01278
3394.42970	0.01302
3393.14393	0.01320
3391.85817	0.01322
3390.57240	0.01304
3389.28663	0.01271
3388.00086	0.01230
3386.71509	0.01190
3385.42932	0.01162
3384.14355	0.01163
3382.85778	0.01194
3381.57201	0.01236
3380.28625	0.01263
3379.00048	0.01266
3377.71471	0.01250
3376.42894	0.01231
3375.14317	0.01218
3373.85740	0.01210
3372.57163	0.01197
3371.28586	0.01169
3370.00010	0.01131
3368.71433	0.01095
3367.42856	0.01069
3366.14279	0.01051
3364.85702	0.01041
3363.57125	0.01045
3362.28548	0.01063
3360.99971	0.01090
3359.71394	0.01115
3358.42818	0.01135
3357.14241	0.01144
3355.85664	0.01138
3354.57087	0.01115
3353.28510	0.01092
3351.99933	0.01088
3350.71356	0.01103
3349.42779	0.01120
3348.14202	0.01122
3346.85626	0.01112
3345.57049	0.01097
3344.28472	0.01083
3342.99895	0.01077
3341.71318	0.01088
3340.42741	0.01124
3339.14164	0.01174
3337.85587	0.01217
3336.57011	0.01233
3335.28434	0.01221
3333.99857	0.01195
3332.71280	0.01171
3331.42703	0.01155
3330.14126	0.01145
3328.85549	0.01131
3327.56972	0.01112
3326.28395	0.01091
3324.99819	0.01081
3323.71242	0.01085
3322.42665	0.01093
3321.14088	0.01093
3319.85511	0.01088
3318.56934	0.01087
3317.28357	0.01099
3315.99780	0.01116
3314.71204	0.01128
3313.42627	0.01122
3312.14050	0.01098
3310.85473	0.01062
3309.56896	0.01021
3308.28319	0.00983
3306.99742	0.00968
3305.71165	0.00999
3304.42588	0.01075
3303.14012	0.01162
3301.85435	0.01215
3300.56858	0.01221
3299.28281	0.01202
3297.99704	0.01186
3296.71127	0.01178
3295.42550	0.01163
3294.13973	0.01130
3292.85397	0.01089
3291.56820	0.01062
3290.28243	0.01060
3288.99666	0.01081
3287.71089	0.01119
3286.42512	0.01164
3285.13935	0.01198
3283.85358	0.01203
3282.56781	0.01184
3281.28205	0.01162
3279.99628	0.01145
3278.71051	0.01126
3277.42474	0.01098
3276.13897	0.01067
3274.85320	0.01056
3273.56743	0.01077
3272.28166	0.01122
3270.99590	0.01165
3269.71013	0.01189
3268.42436	0.01203
3267.13859	0.01230
3265.85282	0.01268
3264.56705	0.01296
3263.28128	0.01297
3261.99551	0.01279
3260.70974	0.01258
3259.42398	0.01234
3258.13821	0.01200
3256.85244	0.01165
3255.56667	0.01148
3254.28090	0.01153
3252.99513	0.01163
3251.70936	0.01154
3250.42359	0.01125
3249.13783	0.01094
3247.85206	0.01083
3246.56629	0.01102
3245.28052	0.01145
3243.99475	0.01201
3242.70898	0.01255
3241.42321	0.01295
3240.13744	0.01315
3238.85167	0.01320
3237.56591	0.01322
3236.28014	0.01333
3234.99437	0.01349
3233.70860	0.01361
3232.42283	0.01351
3231.13706	0.01306
3229.85129	0.01230
3228.56552	0.01152
3227.27976	0.01104
3225.99399	0.01100
3224.70822	0.01130
3223.42245	0.01175
3222.13668	0.01225
3220.85091	0.01272
3219.56514	0.01302
3218.27937	0.01305
3216.99360	0.01290
3215.70784	0.01280
3214.42207	0.01288
3213.13630	0.01308
3211.85053	0.01314
3210.56476	0.01292
3209.27899	0.01248
3207.99322	0.01203
3206.70745	0.01179
3205.42169	0.01181
3204.13592	0.01201
3202.85015	0.01229
3201.56438	0.01264
3200.27861	0.01299
3198.99284	0.01321
3197.70707	0.01319
3196.42130	0.01297
3195.13553	0.01275
3193.84977	0.01269
3192.56400	0.01279
3191.27823	0.01292
3189.99246	0.01287
3188.70669	0.01257
3187.42092	0.01218
3186.13515	0.01196
3184.84938	0.01202
3183.56362	0.01215
3182.27785	0.01210
3180.99208	0.01188
3179.70631	0.01174
3178.42054	0.01186
3177.13477	0.01216
3175.84900	0.01246
3174.56323	0.01267
3173.27746	0.01285
3171.99170	0.01310
3170.70593	0.01350
3169.42016	0.01403
3168.13439	0.01445
3166.84862	0.01448
3165.56285	0.01401
3164.27708	0.01325
3162.99131	0.01258
3161.70555	0.01230
3160.41978	0.01245
3159.13401	0.01284
3157.84824	0.01325
3156.56247	0.01353
3155.27670	0.01366
3153.99093	0.01363
3152.70516	0.01342
3151.41939	0.01304
3150.13363	0.01255
3148.84786	0.01210
3147.56209	0.01183
3146.27632	0.01183
3144.99055	0.01206
3143.70478	0.01240
3142.41901	0.01265
3141.13324	0.01269
3139.84748	0.01254
3138.56171	0.01235
3137.27594	0.01230
3135.99017	0.01251
3134.70440	0.01298
3133.41863	0.01357
3132.13286	0.01400
3130.84709	0.01402
3129.56132	0.01361
3128.27556	0.01307
3126.98979	0.01278
3125.70402	0.01291
3124.41825	0.01320
3123.13248	0.01330
3121.84671	0.01313
3120.56094	0.01291
3119.27517	0.01286
3117.98940	0.01294
3116.70364	0.01304
3115.41787	0.01314
3114.13210	0.01325
3112.84633	0.01330
3111.56056	0.01315
3110.27479	0.01282
3108.98902	0.01247
3107.70325	0.01227
3106.41749	0.01227
3105.13172	0.01245
3103.84595	0.01271
3102.56018	0.01295
3101.27441	0.01310
3099.98864	0.01322
3098.70287	0.01339
3097.41710	0.01360
3096.13133	0.01367
3094.84557	0.01348
3093.55980	0.01315
3092.27403	0.01290
3090.98826	0.01284
3089.70249	0.01287
3088.41672	0.01283
3087.13095	0.01268
3085.84518	0.01253
3084.55942	0.01244
3083.27365	0.01239
3081.98788	0.01229
3080.70211	0.01219
3079.41634	0.01217
3078.13057	0.01228
3076.84480	0.01249
3075.55903	0.01277
3074.27326	0.01306
3072.98750	0.01327
3071.70173	0.01331
3070.41596	0.01317
3069.13019	0.01295
3067.84442	0.01276
3066.55865	0.01267
3065.27288	0.01267
3063.98711	0.01270
3062.70135	0.01269
3061.41558	0.01267
3060.12981	0.01271
3058.84404	0.01281
3057.55827	0.01296
3056.27250	0.01318
3054.98673	0.01341
3053.70096	0.01349
3052.41519	0.01327
3051.12943	0.01280
3049.84366	0.01233
3048.55789	0.01214
3047.27212	0.01227
3045.98635	0.01247
3044.70058	0.01250
3043.41481	0.01226
3042.12904	0.01188
3040.84328	0.01154
3039.55751	0.01135
3038.27174	0.01141
3036.98597	0.01175
3035.70020	0.01230
3034.41443	0.01286
3033.12866	0.01317
3031.84289	0.01315
3030.55712	0.01286
3029.27136	0.01246
3027.98559	0.01211
3026.69982	0.01187
3025.41405	0.01179
3024.12828	0.01186
3022.84251	0.01205
3021.55674	0.01225
3020.27097	0.01238
3018.98521	0.01236
3017.69944	0.01224
3016.41367	0.01212
3015.12790	0.01217
3013.84213	0.01245
3012.55636	0.01292
3011.27059	0.01338
3009.98482	0.01370
3008.69905	0.01380
3007.41329	0.01371
3006.12752	0.01347
3004.84175	0.01312
3003.55598	0.01267
3002.27021	0.01222
3000.98444	0.01190
2999.69867	0.01191
2998.41290	0.01218
2997.12714	0.01255
2995.84137	0.01281
2994.55560	0.01284
2993.26983	0.01270
2991.98406	0.01250
2990.69829	0.01228
2989.41252	0.01210
2988.12675	0.01210
2986.84098	0.01235
2985.55522	0.01260
2984.26945	0.01254
2982.98368	0.01210
2981.69791	0.01162
2980.41214	0.01150
2979.12637	0.01179
2977.84060	0.01218
2976.55483	0.01235
2975.26907	0.01231
2973.98330	0.01228
2972.69753	0.01238
2971.41176	0.01250
2970.12599	0.01247
2968.84022	0.01228
2967.55445	0.01206
2966.26868	0.01193
2964.98291	0.01189
2963.69715	0.01192
2962.41138	0.01202
2961.12561	0.01227
2959.83984	0.01263
2958.55407	0.01296
2957.26830	0.01312
2955.98253	0.01316
2954.69676	0.01322
2953.41100	0.01336
2952.12523	0.01359
2950.83946	0.01388
2949.55369	0.01422
2948.26792	0.01445
2946.98215	0.01447
2945.69638	0.01431
2944.41061	0.01417
2943.12484	0.01411
2941.83908	0.01406
2940.55331	0.01390
2939.26754	0.01366
2937.98177	0.01338
2936.69600	0.01304
2935.41023	0.01269
2934.12446	0.01247
2932.83869	0.01245
2931.55293	0.01257
2930.26716	0.01265
2928.98139	0.01254
2927.69562	0.01223
2926.40985	0.01188
2925.12408	0.01167
2923.83831	0.01166
2922.55254	0.01172
2921.26677	0.01179
2919.98101	0.01191
2918.69524	0.01209
2917.40947	0.01218
2916.12370	0.01211
2914.83793	0.01199
2913.55216	0.01207
2912.26639	0.01239
2910.98062	0.01275
2909.69486	0.01301
2908.40909	0.01316
2907.12332	0.01326
2905.83755	0.01334
2904.55178	0.01336
2903.26601	0.01338
2901.98024	0.01347
2900.69447	0.01364
2899.40870	0.01377
2898.12294	0.01376
2896.83717	0.01365
2895.55140	0.01357
2894.26563	0.01368
2892.97986	0.01400
2891.69409	0.01445
2890.40832	0.01489
2889.12255	0.01511
2887.83678	0.01498
2886.55102	0.01456
2885.26525	0.01408
2883.97948	0.01380
2882.69371	0.01377
2881.40794	0.01388
2880.12217	0.01393
2878.83640	0.01384
2877.55063	0.01364
2876.26487	0.01351
2874.97910	0.01355
2873.69333	0.01366
2872.40756	0.01368
2871.12179	0.01357
2869.83602	0.01346
2868.55025	0.01347
2867.26448	0.01356
2865.97871	0.01358
2864.69295	0.01349
2863.40718	0.01331
2862.12141	0.01312
2860.83564	0.01290
2859.54987	0.01265
2858.26410	0.01237
2856.97833	0.01204
2855.69256	0.01157
2854.40680	0.01100
2853.12103	0.01053
2851.83526	0.01041
2850.54949	0.01072
2849.26372	0.01127
2847.97795	0.01182
2846.69218	0.01220
2845.40641	0.01245
2844.12064	0.01271
2842.83488	0.01300
2841.54911	0.01319
2840.26334	0.01317
2838.97757	0.01300
2837.69180	0.01284
2836.40603	0.01274
2835.12026	0.01266
2833.83449	0.01257
2832.54873	0.01252
2831.26296	0.01261
2829.97719	0.01283
2828.69142	0.01301
2827.40565	0.01293
2826.11988	0.01258
2824.83411	0.01215
2823.54834	0.01185
2822.26257	0.01177
2820.97681	0.01187
2819.69104	0.01207
2818.40527	0.01223
2817.11950	0.01227
2815.83373	0.01221
2814.54796	0.01216
2813.26219	0.01221
2811.97642	0.01235
2810.69066	0.01245
2809.40489	0.01245
2808.11912	0.01234
2806.83335	0.01220
2805.54758	0.01212
2804.26181	0.01216
2802.97604	0.01233
2801.69027	0.01256
2800.40450	0.01273
2799.11874	0.01274
2797.83297	0.01260
2796.54720	0.01235
2795.26143	0.01212
2793.97566	0.01201
2792.68989	0.01202
2791.40412	0.01203
2790.11835	0.01198
2788.83259	0.01190
2787.54682	0.01183
2786.26105	0.01179
2784.97528	0.01175
2783.68951	0.01173
2782.40374	0.01170
2781.11797	0.01165
2779.83220	0.01160
2778.54643	0.01162
2777.26067	0.01178
2775.97490	0.01203
2774.68913	0.01223
2773.40336	0.01230
2772.11759	0.01228
2770.83182	0.01229
2769.54605	0.01234
2768.26028	0.01234
2766.97452	0.01220
2765.68875	0.01199
2764.40298	0.01178
2763.11721	0.01166
2761.83144	0.01161
2760.54567	0.01159
2759.25990	0.01152
2757.97413	0.01134
2756.68836	0.01112
2755.40260	0.01095
2754.11683	0.01091
2752.83106	0.01097
2751.54529	0.01110
2750.25952	0.01125
2748.97375	0.01138
2747.68798	0.01143
2746.40221	0.01144
2745.11645	0.01144
2743.83068	0.01146
2742.54491	0.01149
2741.25914	0.01150
2739.97337	0.01147
2738.68760	0.01133
2737.40183	0.01106
2736.11606	0.01073
2734.83029	0.01046
2733.54453	0.01029
2732.25876	0.01025
2730.97299	0.01035
2729.68722	0.01057
2728.40145	0.01078
2727.11568	0.01084
2725.82991	0.01078
2724.54414	0.01072
2723.25838	0.01077
2721.97261	0.01094
2720.68684	0.01119
2719.40107	0.01150
2718.11530	0.01177
2716.82953	0.01187
2715.54376	0.01176
2714.25799	0.01155
2712.97222	0.01143
2711.68646	0.01145
2710.40069	0.01151
2709.11492	0.01151
2707.82915	0.01141
2706.54338	0.01128
2705.25761	0.01118
2703.97184	0.01117
2702.68607	0.01118
2701.40031	0.01111
2700.11454	0.01097
2698.82877	0.01087
2697.54300	0.01093
2696.25723	0.01112
2694.97146	0.01131
2693.68569	0.01143
2692.39992	0.01148
2691.11415	0.01145
2689.82839	0.01131
2688.54262	0.01108
2687.25685	0.01087
2685.97108	0.01081
2684.68531	0.01089
2683.39954	0.01098
2682.11377	0.01098
2680.82800	0.01096
2679.54224	0.01103
2678.25647	0.01120
2676.97070	0.01134
2675.68493	0.01137
2674.39916	0.01130
2673.11339	0.01122
2671.82762	0.01117
2670.54185	0.01115
2669.25608	0.01112
2667.97032	0.01106
2666.68455	0.01099
2665.39878	0.01096
2664.11301	0.01097
2662.82724	0.01100
2661.54147	0.01104
2660.25570	0.01114
2658.96993	0.01139
2657.68417	0.01174
2656.39840	0.01206
2655.11263	0.01219
2653.82686	0.01213
2652.54109	0.01198
2651.25532	0.01188
2649.96955	0.01185
2648.68378	0.01182
2647.39801	0.01173
2646.11225	0.01158
2644.82648	0.01147
2643.54071	0.01145
2642.25494	0.01147
2640.96917	0.01145
2639.68340	0.01135
2638.39763	0.01124
2637.11186	0.01117
2635.82609	0.01110
2634.54033	0.01091
2633.25456	0.01065
2631.96879	0.01054
2630.68302	0.01071
2629.39725	0.01104
2628.11148	0.01124
2626.82571	0.01118
2625.53994	0.01093
2624.25418	0.01070
2622.96841	0.01066
2621.68264	0.01087
2620.39687	0.01125
2619.11110	0.01159
2617.82533	0.01173
2616.53956	0.01162
2615.25379	0.01127
2613.96802	0.01084
2612.68226	0.01056
2611.39649	0.01046
2610.11072	0.01042
2608.82495	0.01033
2607.53918	0.01031
2606.25341	0.01054
2604.96764	0.01099
2603.68187	0.01132
2602.39611	0.01129
2601.11034	0.01089
2599.82457	0.01033
2598.53880	0.00985
2597.25303	0.00957
2595.96726	0.00954
2594.68149	0.00967
2593.39572	0.00971
2592.10995	0.00951
2590.82419	0.00918
2589.53842	0.00904
2588.25265	0.00922
2586.96688	0.00955
2585.68111	0.00976
2584.39534	0.00980
2583.10957	0.00979
2581.82380	0.00988
2580.53804	0.01012
2579.25227	0.01039
2577.96650	0.01056
2576.68073	0.01057
2575.39496	0.01048
2574.10919	0.01026
2572.82342	0.00982
2571.53765	0.00917
2570.25188	0.00855
2568.96612	0.00817
2567.68035	0.00805
2566.39458	0.00811
2565.10881	0.00830
2563.82304	0.00860
2562.53727	0.00898
2561.25150	0.00943
2559.96573	0.00994
2558.67997	0.01037
2557.39420	0.01055
2556.10843	0.01037
2554.82266	0.00991
2553.53689	0.00941
2552.25112	0.00908
2550.96535	0.00892
2549.67958	0.00888
2548.39381	0.00895
2547.10805	0.00914
2545.82228	0.00938
2544.53651	0.00954
2543.25074	0.00960
2541.96497	0.00966
2540.67920	0.00976
2539.39343	0.00977
2538.10766	0.00957
2536.82190	0.00919
2535.53613	0.00885
2534.25036	0.00873
2532.96459	0.00888
2531.67882	0.00913
2530.39305	0.00928
2529.10728	0.00930
2527.82151	0.00932
2526.53574	0.00947
2525.24998	0.00970
2523.96421	0.00986
2522.67844	0.00982
2521.39267	0.00956
2520.10690	0.00918
2518.82113	0.00881
2517.53536	0.00847
2516.24959	0.00816
2514.96383	0.00785
2513.67806	0.00764
2512.39229	0.00761
2511.10652	0.00779
2509.82075	0.00807
2508.53498	0.00826
2507.24921	0.00835
2505.96344	0.00858
2504.67767	0.00907
2503.39191	0.00958
2502.10614	0.00971
2500.82037	0.00938
2499.53460	0.00888
2498.24883	0.00855
2496.96306	0.00841
2495.67729	0.00833
2494.39152	0.00822
2493.10576	0.00806
2491.81999	0.00788
2490.53422	0.00777
2489.24845	0.00784
2487.96268	0.00802
2486.67691	0.00817
2485.39114	0.00824
2484.10537	0.00831
2482.81960	0.00841
2481.53384	0.00844
2480.24807	0.00834
2478.96230	0.00820
2477.67653	0.00820
2476.39076	0.00844
2475.10499	0.00885
2473.81922	0.00937
2472.53345	0.00987
2471.24769	0.01016
2469.96192	0.01006
2468.67615	0.00957
2467.39038	0.00895
2466.10461	0.00846
2464.81884	0.00824
2463.53307	0.00829
2462.24730	0.00857
2460.96153	0.00892
2459.67577	0.00917
2458.39000	0.00928
2457.10423	0.00942
2455.81846	0.00971
2454.53269	0.01002
2453.24692	0.01007
2451.96115	0.00969
2450.67538	0.00906
2449.38962	0.00847
2448.10385	0.00814
2446.81808	0.00807
2445.53231	0.00815
2444.24654	0.00826
2442.96077	0.00832
2441.67500	0.00834
2440.38923	0.00842
2439.10346	0.00855
2437.81770	0.00860
2436.53193	0.00844
2435.24616	0.00816
2433.96039	0.00804
2432.67462	0.00819
2431.38885	0.00847
2430.10308	0.00863
2428.81731	0.00853
2427.53155	0.00820
2426.24578	0.00782
2424.96001	0.00756
2423.67424	0.00748
2422.38847	0.00754
2421.10270	0.00771
2419.81693	0.00801
2418.53116	0.00837
2417.24539	0.00866
2415.95963	0.00873
2414.67386	0.00856
2413.38809	0.00821
2412.10232	0.00784
2410.81655	0.00767
2409.53078	0.00782
2408.24501	0.00820
2406.95924	0.00853
2405.67347	0.00858
2404.38771	0.00833
2403.10194	0.00800
2401.81617	0.00779
2400.53040	0.00777
2399.24463	0.00822
2397.95886	0.00851
2396.67309	0.00845
2395.38732	0.00825
2394.10156	0.00803
2392.81579	0.00778
2391.53002	0.00746
2390.24425	0.00708
2388.95848	0.00676
2387.67271	0.00660
2386.38694	0.00668
2385.10117	0.00699
2383.81540	0.00748
2382.52964	0.00808
2381.24387	0.00871
2379.95810	0.00942
2378.67233	0.01008
2377.38656	0.01045
2376.10079	0.01078
2374.81502	0.01109
2373.52925	0.01123
2372.24349	0.01123
2370.95772	0.01099
2369.67195	0.01102
2368.38618	0.01103
2367.10041	0.00998
2365.81464	0.00809
2364.52887	0.00657
2363.24310	0.00541
2361.95733	0.00392
2360.67157	0.00240
2359.38580	0.00163
2358.10003	0.00095
2356.81426	-0.00022
2355.52849	-0.00157
2354.24272	-0.00287
2352.95695	-0.00370
2351.67118	-0.00444
2350.38542	-0.00542
2349.09965	-0.00436
2347.81388	0.00046
2346.52811	0.00593
2345.24234	0.00803
2343.95657	0.00699
2342.67080	0.00555
2341.38503	0.00452
2340.09926	0.00348
2338.81350	0.00269
2337.52773	0.00212
2336.24196	0.00203
2334.95619	0.00212
2333.67042	0.00219
2332.38465	0.00270
2331.09888	0.00305
2329.81311	0.00298
2328.52735	0.00322
2327.24158	0.00351
2325.95581	0.00376
2324.67004	0.00446
2323.38427	0.00510
2322.09850	0.00548
2320.81273	0.00591
2319.52696	0.00601
2318.24119	0.00574
2316.95543	0.00569
2315.66966	0.00603
2314.38389	0.00640
2313.09812	0.00639
2311.81235	0.00618
2310.52658	0.00599
2309.24081	0.00589
2307.95504	0.00593
2306.66928	0.00606
2305.38351	0.00618
2304.09774	0.00633
2302.81197	0.00665
2301.52620	0.00704
2300.24043	0.00729
2298.95466	0.00738
2297.66889	0.00742
2296.38312	0.00752
2295.09736	0.00767
2293.81159	0.00774
2292.52582	0.00768
2291.24005	0.00754
2289.95428	0.00741
2288.66851	0.00740
2287.38274	0.00762
2286.09697	0.00808
2284.81121	0.00863
2283.52544	0.00910
2282.23967	0.00938
2280.95390	0.00947
2279.66813	0.00942
2278.38236	0.00922
2277.09659	0.00879
2275.81082	0.00810
2274.52505	0.00729
2273.23929	0.00663
2271.95352	0.00638
2270.66775	0.00656
2269.38198	0.00695
2268.09621	0.00724
2266.81044	0.00717
2265.52467	0.00683
2264.23890	0.00650
2262.95314	0.00634
2261.66737	0.00633
2260.38160	0.00632
2259.09583	0.00626
2257.81006	0.00630
2256.52429	0.00652
2255.23852	0.00683
2253.95275	0.00701
2252.66698	0.00699
2251.38122	0.00684
2250.09545	0.00676
2248.80968	0.00683
2247.52391	0.00691
2246.23814	0.00721
2244.95237	0.00755
2243.66660	0.00766
2242.38083	0.00743
2241.09507	0.00702
2239.80930	0.00674
2238.52353	0.00672
2237.23776	0.00686
2235.95199	0.00702
2234.66622	0.00724
2233.38045	0.00767
2232.09468	0.00841
2230.80891	0.00920
2229.52315	0.00943
2228.23738	0.00877
2226.95161	0.00766
2225.66584	0.00693
2224.38007	0.00692
2223.09430	0.00716
2221.80853	0.00707
2220.52276	0.00658
2219.23700	0.00608
2217.95123	0.00607
2216.66546	0.00669
2215.37969	0.00752
2214.09392	0.00783
2212.80815	0.00729
2211.52238	0.00624
2210.23661	0.00524
2208.95084	0.00456
2207.66508	0.00412
2206.37931	0.00393
2205.09354	0.00427
2203.80777	0.00530
2202.52200	0.00655
2201.23623	0.00721
2199.95046	0.00696
2198.66469	0.00625
2197.37893	0.00560
2196.09316	0.00509
2194.80739	0.00453
2193.52162	0.00398
2192.23585	0.00376
2190.95008	0.00409
2189.66431	0.00491
2188.37854	0.00570
2187.09277	0.00580
2185.80701	0.00520
2184.52124	0.00466
2183.23547	0.00488
2181.94970	0.00560
2180.66393	0.00606
2179.37816	0.00596
2178.09239	0.00570
2176.80662	0.00573
2175.52085	0.00608
2174.23509	0.00649
2172.94932	0.00686
2171.66355	0.00723
2170.37778	0.00761
2169.09201	0.00781
2167.80624	0.00762
2166.52047	0.00710
2165.23470	0.00661
2163.94894	0.00640
2162.66317	0.00629
2161.37740	0.00572
2160.09163	0.00419
2158.80586	0.00188
2157.52009	-0.00029
2156.23432	-0.00141
2154.94855	-0.00118
2153.66278	0.00004
2152.37702	0.00145
2151.09125	0.00226
2149.80548	0.00211
2148.51971	0.00134
2147.23394	0.00073
2145.94817	0.00082
2144.66240	0.00157
2143.37663	0.00237
2142.09087	0.00265
2140.80510	0.00234
2139.51933	0.00190
2138.23356	0.00170
2136.94779	0.00173
2135.66202	0.00174
2134.37625	0.00172
2133.09048	0.00186
2131.80471	0.00218
2130.51895	0.00250
2129.23318	0.00273
2127.94741	0.00295
2126.66164	0.00325
2125.37587	0.00361
2124.09010	0.00391
2122.80433	0.00400
2121.51856	0.00380
2120.23280	0.00347
2118.94703	0.00331
2117.66126	0.00345
2116.37549	0.00371
2115.08972	0.00383
2113.80395	0.00380
2112.51818	0.00376
2111.23241	0.00372
2109.94664	0.00363
2108.66088	0.00358
2107.37511	0.00390
2106.08934	0.00470
2104.80357	0.00564
2103.51780	0.00609
2102.23203	0.00569
2100.94626	0.00472
2099.66049	0.00410
2098.37473	0.00367
2097.08896	0.00346
2095.80319	0.00342
2094.51742	0.00359
2093.23165	0.00404
2091.94588	0.00463
2090.66011	0.00514
2089.37434	0.00544
2088.08857	0.00562
2086.80281	0.00577
2085.51704	0.00583
2084.23127	0.00568
2082.94550	0.00532
2081.65973	0.00496
2080.37396	0.00491
2079.08819	0.00520
2077.80242	0.00554
2076.51666	0.00557
2075.23089	0.00523
2073.94512	0.00475
2072.65935	0.00431
2071.37358	0.00376
2070.08781	0.00292
2068.80204	0.00196
2067.51627	0.00137
2066.23050	0.00150
2064.94474	0.00219
2063.65897	0.00287
2062.37320	0.00303
2061.08743	0.00260
2059.80166	0.00196
2058.51589	0.00161
2057.23012	0.00176
2055.94435	0.00228
2054.65859	0.00299
2053.37282	0.00370
2052.08705	0.00422
2050.80128	0.00428
2049.51551	0.00384
2048.22974	0.00315
2046.94397	0.00262
2045.65820	0.00246
2044.37243	0.00260
2043.08667	0.00292
2041.80090	0.00338
2040.51513	0.00386
2039.22936	0.00404
2037.94359	0.00348
2036.65782	0.00209
2035.37205	0.00030
2034.08628	-0.00129
2032.80052	-0.00219
2031.51475	-0.00211
2030.22898	-0.00115
2028.94321	0.00023
2027.65744	0.00152
2026.37167	0.00255
2025.08590	0.00339
2023.80013	0.00393
2022.51436	0.00393
2021.22860	0.00332
2019.94283	0.00242
2018.65706	0.00160
2017.37129	0.00101
2016.08552	0.00067
2014.79975	0.00073
2013.51398	0.00148
2012.22821	0.00290
2010.94245	0.00438
2009.65668	0.00503
2008.37091	0.00447
2007.08514	0.00309
2005.79937	0.00168
2004.51360	0.00077
2003.22783	0.00043
2001.94206	0.00053
2000.65629	0.00095
1999.37053	0.00150
1998.08476	0.00192
1996.79899	0.00202
1995.51322	0.00195
1994.22745	0.00213
1992.94168	0.00275
1991.65591	0.00362
1990.37014	0.00432
1989.08438	0.00453
1987.79861	0.00421
1986.51284	0.00366
1985.22707	0.00343
1983.94130	0.00394
1982.65553	0.00508
1981.36976	0.00617
1980.08399	0.00643
1978.79822	0.00555
1977.51246	0.00388
1976.22669	0.00219
1974.94092	0.00113
1973.65515	0.00083
1972.36938	0.00097
1971.08361	0.00115
1969.79784	0.00118
1968.51207	0.00113
1967.22631	0.00113
1965.94054	0.00121
1964.65477	0.00131
1963.36900	0.00140
1962.08323	0.00155
1960.79746	0.00187
1959.51169	0.00239
1958.22592	0.00299
1956.94015	0.00348
1955.65439	0.00374
1954.36862	0.00378
1953.08285	0.00362
1951.79708	0.00328
1950.51131	0.00290
1949.22554	0.00272
1947.93977	0.00282
1946.65400	0.00303
1945.36823	0.00312
1944.08247	0.00311
1942.79670	0.00323
1941.51093	0.00359
1940.22516	0.00402
1938.93939	0.00426
1937.65362	0.00429
1936.36785	0.00426
1935.08208	0.00431
1933.79632	0.00430
1932.51055	0.00405
1931.22478	0.00365
1929.93901	0.00334
1928.65324	0.00324
1927.36747	0.00319
1926.08170	0.00306
1924.79593	0.00300
1923.51016	0.00328
1922.22440	0.00389
1920.93863	0.00449
1919.65286	0.00474
1918.36709	0.00460
1917.08132	0.00432
1915.79555	0.00424
1914.50978	0.00448
1913.22401	0.00487
1911.93825	0.00518
1910.65248	0.00525
1909.36671	0.00505
1908.08094	0.00470
1906.79517	0.00434
1905.50940	0.00417
1904.22363	0.00428
1902.93786	0.00464
1901.65209	0.00510
1900.36633	0.00541
1899.08056	0.00541
1897.79479	0.00510
1896.50902	0.00468
1895.22325	0.00436
1893.93748	0.00424
1892.65171	0.00429
1891.36594	0.00442
1890.08018	0.00455
1888.79441	0.00467
1887.50864	0.00485
1886.22287	0.00516
1884.93710	0.00553
1883.65133	0.00581
1882.36556	0.00590
1881.07979	0.00576
1879.79402	0.00541
1878.50826	0.00496
1877.22249	0.00463
1875.93672	0.00452
1874.65095	0.00459
1873.36518	0.00469
1872.07941	0.00475
1870.79364	0.00479
1869.50787	0.00483
1868.22211	0.00488
1866.93634	0.00494
1865.65057	0.00501
1864.36480	0.00506
1863.07903	0.00505
1861.79326	0.00503
1860.50749	0.00503
1859.22172	0.00504
1857.93595	0.00500
1856.65019	0.00493
1855.36442	0.00490
1854.07865	0.00491
1852.79288	0.00493
1851.50711	0.00492
1850.22134	0.00492
1848.93557	0.00497
1847.64980	0.00507
1846.36404	0.00520
1845.07827	0.00527
1843.79250	0.00515
1842.50673	0.00487
1841.22096	0.00465
1839.93519	0.00461
1838.64942	0.00472
1837.36365	0.00486
1836.07788	0.00496
1834.79212	0.00499
1833.50635	0.00496
1832.22058	0.00491
1830.93481	0.00487
1829.64904	0.00482
1828.36327	0.00482
1827.07750	0.00496
1825.79173	0.00519
1824.50597	0.00532
1823.22020	0.00529
1821.93443	0.00518
1820.64866	0.00505
1819.36289	0.00490
1818.07712	0.00476
1816.79135	0.00471
1815.50558	0.00478
1814.21981	0.00491
1812.93405	0.00499
1811.64828	0.00497
1810.36251	0.00489
1809.07674	0.00484
1807.79097	0.00483
1806.50520	0.00482
1805.21943	0.00480
1803.93366	0.00480
1802.64790	0.00483
1801.36213	0.00484
1800.07636	0.00486
1798.79059	0.00494
1797.50482	0.00515
1796.21905	0.00543
1794.93328	0.00568
1793.64751	0.00579
1792.36174	0.00569
1791.07598	0.00543
1789.79021	0.00519
1788.50444	0.00509
1787.21867	0.00511
1785.93290	0.00516
1784.64713	0.00521
1783.36136	0.00526
1782.07559	0.00537
1780.78983	0.00548
1779.50406	0.00550
1778.21829	0.00545
1776.93252	0.00537
1775.64675	0.00534
1774.36098	0.00540
1773.07521	0.00543
1771.78944	0.00537
1770.50367	0.00531
1769.21791	0.00534
1767.93214	0.00539
1766.64637	0.00533
1765.36060	0.00527
1764.07483	0.00537
1762.78906	0.00553
1761.50329	0.00556
1760.21752	0.00541
1758.93176	0.00529
1757.64599	0.00527
1756.36022	0.00526
1755.07445	0.00523
1753.78868	0.00526
1752.50291	0.00535
1751.21714	0.00532
1749.93137	0.00508
1748.64560	0.00476
1747.35984	0.00458
1746.07407	0.00457
1744.78830	0.00469
1743.50253	0.00483
1742.21676	0.00494
1740.93099	0.00499
1739.64522	0.00491
1738.35945	0.00480
1737.07369	0.00492
1735.78792	0.00533
1734.50215	0.00567
1733.21638	0.00558
1731.93061	0.00522
1730.64484	0.00501
1729.35907	0.00507
1728.07330	0.00523
1726.78753	0.00536
1725.50177	0.00545
1724.21600	0.00550
1722.93023	0.00549
1721.64446	0.00555
1720.35869	0.00578
1719.07292	0.00608
1717.78715	0.00616
1716.50138	0.00593
1715.21561	0.00565
1713.92985	0.00560
1712.64408	0.00579
1711.35831	0.00605
1710.07254	0.00627
1708.78677	0.00641
1707.50100	0.00649
1706.21523	0.00649
1704.92946	0.00642
1703.64370	0.00644
1702.35793	0.00672
1701.07216	0.00700
1699.78639	0.00692
1698.50062	0.00664
1697.21485	0.00652
1695.92908	0.00652
1694.64331	0.00637
1693.35754	0.00618
1692.07178	0.00628
1690.78601	0.00658
1689.50024	0.00682
1688.21447	0.00697
1686.92870	0.00720
1685.64293	0.00739
1684.35716	0.00722
1683.07139	0.00670
1681.78563	0.00628
1680.49986	0.00629
1679.21409	0.00657
1677.92832	0.00689
1676.64255	0.00714
1675.35678	0.00720
1674.07101	0.00706
1672.78524	0.00696
1671.49947	0.00708
1670.21371	0.00730
1668.92794	0.00739
1667.64217	0.00731
1666.35640	0.00721
1665.07063	0.00722
1663.78486	0.00724
1662.49909	0.00716
1661.21332	0.00701
1659.92756	0.00696
1658.64179	0.00706
1657.35602	0.00731
1656.07025	0.00779
1654.78448	0.00841
1653.49871	0.00869
1652.21294	0.00831
1650.92717	0.00767
1649.64140	0.00751
1648.35564	0.00794
1647.06987	0.00838
1645.78410	0.00843
1644.49833	0.00823
1643.21256	0.00814
1641.92679	0.00829
1640.64102	0.00854
1639.35525	0.00877
1638.06949	0.00901
1636.78372	0.00924
1635.49795	0.00928
1634.21218	0.00909
1632.92641	0.00891
1631.64064	0.00893
1630.35487	0.00909
1629.06910	0.00920
1627.78333	0.00919
1626.49757	0.00913
1625.21180	0.00911
1623.92603	0.00908
1622.64026	0.00898
1621.35449	0.00885
1620.06872	0.00889
1618.78295	0.00915
1617.49718	0.00941
1616.21142	0.00937
1614.92565	0.00911
1613.63988	0.00891
1612.35411	0.00894
1611.06834	0.00907
1609.78257	0.00919
1608.49680	0.00927
1607.21103	0.00931
1605.92526	0.00930
1604.63950	0.00926
1603.35373	0.00921
1602.06796	0.00920
1600.78219	0.00923
1599.49642	0.00932
1598.21065	0.00946
1596.92488	0.00960
1595.63911	0.00970
1594.35335	0.00974
1593.06758	0.00971
1591.78181	0.00967
1590.49604	0.00969
1589.21027	0.00977
1587.92450	0.00989
1586.63873	0.01003
1585.35296	0.01016
1584.06719	0.01028
1582.78143	0.01037
1581.49566	0.01043
1580.20989	0.01051
1578.92412	0.01071
1577.63835	0.01100
1576.35258	0.01116
1575.06681	0.01103
1573.78104	0.01087
1572.49528	0.01097
1571.20951	0.01131
1569.92374	0.01157
1568.63797	0.01158
1567.35220	0.01149
1566.06643	0.01145
1564.78066	0.01149
1563.49489	0.01162
1562.20912	0.01198
1560.92336	0.01250
1559.63759	0.01282
1558.35182	0.01260
1557.06605	0.01214
1555.78028	0.01191
1554.49451	0.01201
1553.20874	0.01215
1551.92297	0.01220
1550.63721	0.01223
1549.35144	0.01227
1548.06567	0.01234
1546.77990	0.01249
1545.49413	0.01266
1544.20836	0.01279
1542.92259	0.01286
1541.63682	0.01291
1540.35105	0.01285
1539.06529	0.01256
1537.77952	0.01220
1536.49375	0.01211
1535.20798	0.01236
1533.92221	0.01265
1532.63644	0.01270
1531.35067	0.01259
1530.06490	0.01255
1528.77914	0.01267
1527.49337	0.01284
1526.20760	0.01298
1524.92183	0.01312
1523.63606	0.01338
1522.35029	0.01368
1521.06452	0.01381
1519.77875	0.01376
1518.49298	0.01379
1517.20722	0.01402
1515.92145	0.01435
1514.63568	0.01468
1513.34991	0.01505
1512.06414	0.01548
1510.77837	0.01594
1509.49260	0.01649
1508.20683	0.01709
1506.92107	0.01752
1505.63530	0.01756
1504.34953	0.01741
1503.06376	0.01744
1501.77799	0.01778
1500.49222	0.01825
1499.20645	0.01866
1497.92068	0.01895
1496.63491	0.01910
1495.34915	0.01915
1494.06338	0.01923
1492.77761	0.01947
1491.49184	0.01982
1490.20607	0.02010
1488.92030	0.02027
1487.63453	0.02041
1486.34876	0.02059
1485.06299	0.02081
1483.77723	0.02109
1482.49146	0.02140
1481.20569	0.02171
1479.91992	0.02202
1478.63415	0.02235
1477.34838	0.02267
1476.06261	0.02294
1474.77684	0.02317
1473.49108	0.02334
1472.20531	0.02339
1470.91954	0.02333
1469.63377	0.02331
1468.34800	0.02342
1467.06223	0.02364
1465.77646	0.02384
1464.49069	0.02394
1463.20492	0.02398
1461.91916	0.02409
1460.63339	0.02436
1459.34762	0.02481
1458.06185	0.02525
1456.77608	0.02541
1455.49031	0.02525
1454.20454	0.02509
1452.91877	0.02515
1451.63301	0.02537
1450.34724	0.02563
1449.06147	0.02584
1447.77570	0.02600
1446.48993	0.02610
1445.20416	0.02619
1443.91839	0.02628
1442.63262	0.02633
1441.34685	0.02632
1440.06109	0.02631
1438.77532	0.02636
1437.48955	0.02637
1436.20378	0.02620
1434.91801	0.02596
1433.63224	0.02589
1432.34647	0.02610
1431.06070	0.02643
1429.77494	0.02671
1428.48917	0.02688
1427.20340	0.02706
1425.91763	0.02731
1424.63186	0.02765
1423.34609	0.02802
1422.06032	0.02842
1420.77455	0.02884
1419.48878	0.02915
1418.20302	0.02927
1416.91725	0.02926
1415.63148	0.02929
1414.34571	0.02938
1413.05994	0.02951
1411.77417	0.02964
1410.48840	0.02973
1409.20263	0.02973
1407.91687	0.02964
1406.63110	0.02950
1405.34533	0.02933
1404.05956	0.02910
1402.77379	0.02882
1401.48802	0.02852
1400.20225	0.02817
1398.91648	0.02774
1397.63071	0.02725
1396.34495	0.02680
1395.05918	0.02639
1393.77341	0.02598
1392.48764	0.02554
1391.20187	0.02514
1389.91610	0.02478
1388.63033	0.02441
1387.34456	0.02399
1386.05880	0.02355
1384.77303	0.02314
1383.48726	0.02283
1382.20149	0.02257
1380.91572	0.02231
1379.62995	0.02202
1378.34418	0.02165
1377.05841	0.02121
1375.77264	0.02074
1374.48688	0.02026
1373.20111	0.01976
1371.91534	0.01927
1370.62957	0.01881
1369.34380	0.01840
1368.05803	0.01801
1366.77226	0.01762
1365.48649	0.01724
1364.20073	0.01684
1362.91496	0.01638
1361.62919	0.01590
1360.34342	0.01546
1359.05765	0.01512
1357.77188	0.01487
1356.48611	0.01468
1355.20034	0.01450
1353.91457	0.01431
1352.62881	0.01412
1351.34304	0.01394
1350.05727	0.01378
1348.77150	0.01363
1347.48573	0.01348
1346.19996	0.01334
1344.91419	0.01323
1343.62842	0.01314
1342.34266	0.01304
1341.05689	0.01287
1339.77112	0.01266
1338.48535	0.01244
1337.19958	0.01224
1335.91381	0.01209
1334.62804	0.01198
1333.34227	0.01185
1332.05650	0.01170
1330.77074	0.01154
1329.48497	0.01139
1328.19920	0.01125
1326.91343	0.01112
1325.62766	0.01099
1324.34189	0.01087
1323.05612	0.01077
1321.77035	0.01070
1320.48459	0.01064
1319.19882	0.01057
1317.91305	0.01048
1316.62728	0.01038
1315.34151	0.01030
1314.05574	0.01022
1312.76997	0.01013
1311.48420	0.01004
1310.19843	0.01000
1308.91267	0.01002
1307.62690	0.01003
1306.34113	0.00999
1305.05536	0.00987
1303.76959	0.00972
1302.48382	0.00958
1301.19805	0.00949
1299.91228	0.00943
1298.62652	0.00940
1297.34075	0.00938
1296.05498	0.00935
1294.76921	0.00929
1293.48344	0.00920
1292.19767	0.00911
1290.91190	0.00904
1289.62613	0.00898
1288.34036	0.00892
1287.05460	0.00884
1285.76883	0.00878
1284.48306	0.00875
1283.19729	0.00874
1281.91152	0.00873
1280.62575	0.00870
1279.33998	0.00864
1278.05421	0.00857
1276.76845	0.00847
1275.48268	0.00836
1274.19691	0.00827
1272.91114	0.00821
1271.62537	0.00819
1270.33960	0.00817
1269.05383	0.00816
1267.76806	0.00814
1266.48229	0.00813
1265.19653	0.00812
1263.91076	0.00808
1262.62499	0.00800
1261.33922	0.00790
1260.05345	0.00782
1258.76768	0.00779
1257.48191	0.00779
1256.19614	0.00780
1254.91037	0.00779
1253.62461	0.00779
1252.33884	0.00779
1251.05307	0.00776
1249.76730	0.00771
1248.48153	0.00767
1247.19576	0.00767
1245.90999	0.00770
1244.62422	0.00774
1243.33846	0.00774
1242.05269	0.00771
1240.76692	0.00766
1239.48115	0.00760
1238.19538	0.00754
1236.90961	0.00749
1235.62384	0.00746
1234.33807	0.00743
1233.05230	0.00739
1231.76654	0.00734
1230.48077	0.00726
1229.19500	0.00718
1227.90923	0.00709
1226.62346	0.00700
1225.33769	0.00693
1224.05192	0.00688
1222.76615	0.00685
1221.48039	0.00683
1220.19462	0.00682
1218.90885	0.00681
1217.62308	0.00681
1216.33731	0.00681
1215.05154	0.00682
1213.76577	0.00680
1212.48000	0.00676
1211.19423	0.00670
1209.90847	0.00665
1208.62270	0.00662
1207.33693	0.00660
1206.05116	0.00660
1204.76539	0.00664
1203.47962	0.00672
1202.19385	0.00682
1200.90808	0.00686
1199.62232	0.00678
1198.33655	0.00672
1197.05078	0.00667
1195.76501	0.00662
1194.47924	0.00657
1193.19347	0.00649
1191.90770	0.00641
1190.62193	0.00633
1189.33616	0.00629
1188.05040	0.00626
1186.76463	0.00622
1185.47886	0.00618
1184.19309	0.00614
1182.90732	0.00611
1181.62155	0.00607
1180.33578	0.00604
1179.05001	0.00603
1177.76425	0.00602
1176.47848	0.00600
1175.19271	0.00600
1173.90694	0.00602
1172.62117	0.00606
1171.33540	0.00608
1170.04963	0.00606
1168.76386	0.00604
1167.47809	0.00606
1166.19233	0.00615
1164.90656	0.00625
1163.62079	0.00629
1162.33502	0.00626
1161.04925	0.00620
1159.76348	0.00615
1158.47771	0.00612
1157.19194	0.00610
1155.90618	0.00610
1154.62041	0.00610
1153.33464	0.00614
1152.04887	0.00623
1150.76310	0.00637
1149.47733	0.00652
1148.19156	0.00665
1146.90579	0.00674
1145.62002	0.00684
1144.33426	0.00694
1143.04849	0.00706
1141.76272	0.00722
1140.47695	0.00741
1139.19118	0.00764
1137.90541	0.00790
1136.61964	0.00819
1135.33387	0.00853
1134.04811	0.00891
1132.76234	0.00932
1131.47657	0.00972
1130.19080	0.01016
1128.90503	0.01070
1127.61926	0.01137
1126.33349	0.01212
1125.04772	0.01295
1123.76195	0.01385
1122.47619	0.01487
1121.19042	0.01597
1119.90465	0.01709
1118.61888	0.01816
1117.33311	0.01920
1116.04734	0.02026
1114.76157	0.02138
1113.47580	0.02251
1112.19004	0.02361
1110.90427	0.02459
1109.61850	0.02542
1108.33273	0.02613
1107.04696	0.02682
1105.76119	0.02752
1104.47542	0.02825
1103.18965	0.02894
1101.90388	0.02957
1100.61812	0.03016
1099.33235	0.03074
1098.04658	0.03131
1096.76081	0.03190
1095.47504	0.03247
1094.18927	0.03299
1092.90350	0.03341
1091.61773	0.03374
1090.33197	0.03402
1089.04620	0.03428
1087.76043	0.03454
1086.47466	0.03482
1085.18889	0.03515
1083.90312	0.03558
1082.61735	0.03613
1081.33158	0.03675
1080.04581	0.03739
1078.76005	0.03800
1077.47428	0.03862
1076.18851	0.03926
1074.90274	0.03990
1073.61697	0.04053
1072.33120	0.04113
1071.04543	0.04176
1069.75966	0.04246
1068.47390	0.04322
1067.18813	0.04403
1065.90236	0.04488
1064.61659	0.04575
1063.33082	0.04662
1062.04505	0.04744
1060.75928	0.04821
1059.47351	0.04896
1058.18774	0.04970
1056.90198	0.05041
1055.61621	0.05110
1054.33044	0.05179
1053.04467	0.05249
1051.75890	0.05324
1050.47313	0.05404
1049.18736	0.05488
1047.90159	0.05573
1046.61583	0.05659
1045.33006	0.05744
1044.04429	0.05831
1042.75852	0.05922
1041.47275	0.06017
1040.18698	0.06111
1038.90121	0.06200
1037.61544	0.06284
1036.32967	0.06365
1035.04391	0.06443
1033.75814	0.06518
1032.47237	0.06585
1031.18660	0.06639
1029.90083	0.06677
1028.61506	0.06701
1027.32929	0.06719
1026.04352	0.06733
1024.75775	0.06741
1023.47199	0.06735
1022.18622	0.06713
1020.90045	0.06677
1019.61468	0.06632
1018.32891	0.06584
1017.04314	0.06530
1015.75737	0.06467
1014.47160	0.06392
1013.18584	0.06308
1011.90007	0.06219
1010.61430	0.06123
1009.32853	0.06017
1008.04276	0.05900
1006.75699	0.05774
1005.47122	0.05640
1004.18545	0.05498
1002.89968	0.05347
1001.61392	0.05190
1000.32815	0.05030
999.04238	0.04869
997.75661	0.04707
996.47084	0.04542
995.18507	0.04377
993.89930	0.04212
992.61353	0.04054
991.32777	0.03905
990.04200	0.03767
988.75623	0.03635
987.47046	0.03507
986.18469	0.03384
984.89892	0.03271
983.61315	0.03169
982.32738	0.03078
981.04161	0.02992
979.75585	0.02905
978.47008	0.02816
977.18431	0.02735
975.89854	0.02665
974.61277	0.02607
973.32700	0.02558
972.04123	0.02518
970.75546	0.02491
969.46970	0.02477
968.18393	0.02472
966.89816	0.02472
965.61239	0.02479
964.32662	0.02496
963.04085	0.02517
961.75508	0.02536
960.46931	0.02542
959.18354	0.02534
957.89778	0.02512
956.61201	0.02478
955.32624	0.02438
954.04047	0.02395
952.75470	0.02351
951.46893	0.02306
950.18316	0.02260
948.89739	0.02214
947.61163	0.02169
946.32586	0.02125
945.04009	0.02084
943.75432	0.02044
942.46855	0.02001
941.18278	0.01957
939.89701	0.01917
938.61124	0.01886
937.32547	0.01860
936.03971	0.01834
934.75394	0.01805
933.46817	0.01772
932.18240	0.01741
930.89663	0.01715
929.61086	0.01691
928.32509	0.01670
927.03932	0.01651
925.75356	0.01635
924.46779	0.01616
923.18202	0.01594
921.89625	0.01576
920.61048	0.01566
919.32471	0.01561
918.03894	0.01551
916.75317	0.01532
915.46740	0.01510
914.18164	0.01494
912.89587	0.01487
911.61010	0.01484
910.32433	0.01478
909.03856	0.01464
907.75279	0.01444
906.46702	0.01424
905.18125	0.01410
903.89549	0.01401
902.60972	0.01397
901.32395	0.01394
900.03818	0.01394
898.75241	0.01396
897.46664	0.01393
896.18087	0.01383
894.89510	0.01368
893.60933	0.01358
892.32357	0.01356
891.03780	0.01357
889.75203	0.01356
888.46626	0.01353
887.18049	0.01360
885.89472	0.01392
884.60895	0.01454
883.32318	0.01546
882.03742	0.01658
880.75165	0.01770
879.46588	0.01860
878.18011	0.01917
876.89434	0.01950
875.60857	0.01980
874.32280	0.02017
873.03703	0.02051
871.75126	0.02064
870.46550	0.02048
869.17973	0.02011
867.89396	0.01962
866.60819	0.01901
865.32242	0.01830
864.03665	0.01754
862.75088	0.01681
861.46511	0.01616
860.17935	0.01560
858.89358	0.01515
857.60781	0.01485
856.32204	0.01468
855.03627	0.01455
853.75050	0.01438
852.46473	0.01418
851.17896	0.01397
849.89319	0.01379
848.60743	0.01366
847.32166	0.01359
846.03589	0.01354
844.75012	0.01348
843.46435	0.01342
842.17858	0.01336
840.89281	0.01331
839.60704	0.01324
838.32128	0.01314
837.03551	0.01302
835.74974	0.01292
834.46397	0.01285
833.17820	0.01280
831.89243	0.01277
830.60666	0.01274
829.32089	0.01272
828.03512	0.01269
826.74936	0.01263
825.46359	0.01254
824.17782	0.01248
822.89205	0.01251
821.60628	0.01258
820.32051	0.01261
819.03474	0.01255
817.74897	0.01242
816.46321	0.01228
815.17744	0.01217
813.89167	0.01212
812.60590	0.01212
811.32013	0.01214
810.03436	0.01214
808.74859	0.01210
807.46282	0.01204
806.17705	0.01199
804.89129	0.01197
803.60552	0.01198
802.31975	0.01203
801.03398	0.01212
799.74821	0.01223
798.46244	0.01231
797.17667	0.01231
795.89090	0.01223
794.60513	0.01208
793.31937	0.01192
792.03360	0.01178
790.74783	0.01166
789.46206	0.01158
788.17629	0.01156
786.89052	0.01161
785.60475	0.01172
784.31898	0.01185
783.03322	0.01192
781.74745	0.01191
780.46168	0.01184
779.17591	0.01179
777.89014	0.01179
776.60437	0.01181
775.31860	0.01182
774.03283	0.01176
772.74706	0.01169
771.46130	0.01167
770.17553	0.01173
768.88976	0.01185
767.60399	0.01194
766.31822	0.01197
765.03245	0.01192
763.74668	0.01182
762.46091	0.01177
761.17515	0.01183
759.88938	0.01196
758.60361	0.01204
757.31784	0.01196
756.03207	0.01177
754.74630	0.01161
753.46053	0.01157
752.17476	0.01164
750.88899	0.01173
749.60323	0.01175
748.31746	0.01173
747.03169	0.01173
745.74592	0.01181
744.46015	0.01191
743.17438	0.01197
741.88861	0.01196
740.60284	0.01191
739.31708	0.01191
738.03131	0.01197
736.74554	0.01209
735.45977	0.01223
734.17400	0.01228
732.88823	0.01221
731.60246	0.01202
730.31669	0.01182
729.03092	0.01171
727.74516	0.01168
726.45939	0.01166
725.17362	0.01160
723.88785	0.01137
722.60208	0.01136
721.31631	0.01164
720.03054	0.01187
718.74477	0.01190
717.45901	0.01193
716.17324	0.01195
714.88747	0.01186
713.60170	0.01168
712.31593	0.01148
711.03016	0.01133
709.74439	0.01127
708.45862	0.01126
707.17285	0.01127
705.88709	0.01129
704.60132	0.01129
703.31555	0.01127
702.02978	0.01124
700.74401	0.01120
699.45824	0.01116
698.17247	0.01114
696.88670	0.01114
695.60094	0.01113
694.31517	0.01111
693.02940	0.01105
691.74363	0.01097
690.45786	0.01088
689.17209	0.01079
687.88632	0.01072
686.60055	0.01065
685.31478	0.01057
684.02902	0.01050
682.74325	0.01046
681.45748	0.01043
680.17171	0.01038
678.88594	0.01029
677.60017	0.01019
676.31440	0.01012
675.02863	0.01011
673.74287	0.01004
672.45710	0.00976
671.17133	0.00965
669.88556	0.01085
668.59979	0.01289
667.31402	0.01213
666.02825	0.00978
664.74248	0.00930
663.45671	0.00997
662.17095	0.01041
660.88518	0.01043
659.59941	0.01028
658.31364	0.01014
657.02787	0.01012
655.74210	0.01023
654.45633	0.01038
653.17056	0.01051
651.88480	0.01056
650.59903	0.01056
649.31326	0.01052
648.02749	0.01044
646.74172	0.01037
645.45595	0.01039
644.17018	0.01046
642.88441	0.01055
641.59864	0.01064
640.31288	0.01072
639.02711	0.01078
637.74134	0.01085
636.45557	0.01093
635.16980	0.01103
633.88403	0.01120
632.59826	0.01151
631.31249	0.01206
630.02673	0.01282
628.74096	0.01330
627.45519	0.01303
626.16942	0.01325
624.88365	0.01364
623.59788	0.01370
622.31211	0.01331
621.02634	0.01289
619.74057	0.01309
618.45481	0.01415
617.16904	0.01572
615.88327	0.01741
614.59750	0.01941
613.31173	0.02205
612.02596	0.02491
610.74019	0.02681
609.45442	0.02735
608.16866	0.02761
606.88289	0.02892
605.59712	0.03119
604.31135	0.03310
603.02558	0.03351
601.73981	0.03238
600.45404	0.03058
599.16827	0.02903
597.88250	0.02804
596.59674	0.02740
595.31097	0.02677
594.02520	0.02605
592.73943	0.02541
591.45366	0.02499
590.16789	0.02481
588.88212	0.02483
587.59635	0.02501
586.31059	0.02532
585.02482	0.02572
583.73905	0.02618
582.45328	0.02668
581.16751	0.02721
579.88174	0.02778
578.59597	0.02841
577.31020	0.02913
576.02443	0.02992
574.73867	0.03077
573.45290	0.03164
572.16713	0.03256
570.88136	0.03360
569.59559	0.03480
568.30982	0.03611
567.02405	0.03740
565.73828	0.03852
564.45251	0.03936
563.16675	0.03985
561.88098	0.03990
560.59521	0.03942
559.30944	0.03842
558.02367	0.03703
556.73790	0.03542
555.45213	0.03369
554.16636	0.03186
552.88060	0.02998
551.59483	0.02815
550.30906	0.02651
549.02329	0.02511
547.73752	0.02396
546.45175	0.02299
545.16598	0.02216
543.88021	0.02145
542.59444	0.02086
541.30868	0.02034
540.02291	0.01982
538.73714	0.01928
537.45137	0.01871
536.16560	0.01814
534.87983	0.01762
533.59406	0.01724
532.30829	0.01701
531.02253	0.01684
529.73676	0.01663
528.45099	0.01636
527.16522	0.01606
525.87945	0.01576
524.59368	0.01548
523.30791	0.01522
522.02214	0.01500
520.73637	0.01481
519.45061	0.01463
518.16484	0.01443
516.87907	0.01423
515.59330	0.01409
514.30753	0.01402
513.02176	0.01397
511.73599	0.01387
510.45022	0.01371
509.16446	0.01349
507.87869	0.01327
506.59292	0.01312
505.30715	0.01306
504.02138	0.01308
502.73561	0.01309
501.44984	0.01300
500.16407	0.01281
498.87830	0.01257
497.59254	0.01237
496.30677	0.01224
495.02100	0.01222
493.73523	0.01228
492.44946	0.01239
491.16369	0.01243
489.87792	0.01236
488.59215	0.01220
487.30639	0.01202
486.02062	0.01189
484.73485	0.01183
483.44908	0.01183
482.16331	0.01184
480.87754	0.01186
479.59177	0.01187
478.30600	0.01186
477.02023	0.01181
475.73447	0.01176
474.44870	0.01173
473.16293	0.01177
471.87716	0.01186
470.59139	0.01194
469.30562	0.01196
468.01985	0.01186
466.73408	0.01168
465.44832	0.01147
464.16255	0.01130
462.87678	0.01118
461.59101	0.01110
460.30524	0.01106
459.01947	0.01107
457.73370	0.01106
456.44793	0.01096
455.16216	0.01079
453.87640	0.01063
452.59063	0.01052
451.30486	0.01046
450.01909	0.01045
448.73332	0.01043
447.44755	0.01041
446.16178	0.01036
444.87601	0.01027
443.59025	0.01015
442.30448	0.01000
441.01871	0.00987
439.73294	0.00978
438.44717	0.00974
437.16140	0.00974
435.87563	0.00976
434.58986	0.00979
433.30409	0.00985
432.01833	0.00990
430.73256	0.00990
429.44679	0.00985
428.16102	0.00979
426.87525	0.00977
425.58948	0.00979
424.30371	0.00982
423.01794	0.00983
421.73218	0.00982
420.44641	0.00982
419.16064	0.00981
417.87487	0.00976
416.58910	0.00968
415.30333	0.00962
414.01756	0.00958
412.73179	0.00957
411.44602	0.00958
410.16026	0.00961
408.87449	0.00966
407.58872	0.00972
406.30295	0.00979
405.01718	0.00986
403.73141	0.00992
402.44564	0.00998
401.15987	0.01006
399.87411	0.01017
