3997.45528	0.05118
3996.16951	0.05084
3994.88374	0.05084
3993.59798	0.05126
3992.31221	0.05181
3991.02644	0.05205
3989.74067	0.05186
3988.45490	0.05147
3987.16913	0.05115
3985.88336	0.05092
3984.59759	0.05069
3983.31183	0.05059
3982.02606	0.05077
3980.74029	0.05114
3979.45452	0.05137
3978.16875	0.05127
3976.88298	0.05103
3975.59721	0.05100
3974.31144	0.05126
3973.02567	0.05153
3971.73991	0.05147
3970.45414	0.05102
3969.16837	0.05046
3967.88260	0.05012
3966.59683	0.05005
3965.31106	0.05004
3964.02529	0.04987
3962.73952	0.04965
3961.45376	0.04965
3960.16799	0.04992
3958.88222	0.05013
3957.59645	0.04993
3956.31068	0.04929
3955.02491	0.04858
3953.73914	0.04829
3952.45337	0.04869
3951.16760	0.04961
3949.88184	0.05047
3948.59607	0.05074
3947.31030	0.05033
3946.02453	0.04959
3944.73876	0.04898
3943.45299	0.04869
3942.16722	0.04855
3940.88145	0.04828
3939.59569	0.04785
3938.30992	0.04752
3937.02415	0.04755
3935.73838	0.04792
3934.45261	0.04836
3933.16684	0.04866
3931.88107	0.04890
3930.59530	0.04924
3929.30953	0.04966
3928.02377	0.04991
3926.73800	0.04973
3925.45223	0.04915
3924.16646	0.04848
3922.88069	0.04813
3921.59492	0.04826
3920.30915	0.04862
3919.02338	0.04879
3917.73762	0.04855
3916.45185	0.04802
3915.16608	0.04744
3913.88031	0.04698
3912.59454	0.04674
3911.30877	0.04676
3910.02300	0.04702
3908.73723	0.04742
3907.45146	0.04789
3906.16570	0.04838
3904.87993	0.04883
3903.59416	0.04906
3902.30839	0.04879
3901.02262	0.04791
3899.73685	0.04671
3898.45108	0.04579
3897.16531	0.04564
3895.87955	0.04622
3894.59378	0.04709
3893.30801	0.04775
3892.02224	0.04795
3890.73647	0.04770
3889.45070	0.04720
3888.16493	0.04670
3886.87916	0.04641
3885.59339	0.04644
3884.30763	0.04672
3883.02186	0.04696
3881.73609	0.04683
3880.45032	0.04632
3879.16455	0.04571
3877.87878	0.04526
3876.59301	0.04495
3875.30724	0.04469
3874.02148	0.04454
3872.73571	0.04470
3871.44994	0.04537
3870.16417	0.04642
3868.87840	0.04738
3867.59263	0.04774
3866.30686	0.04744
3865.02109	0.04688
3863.73532	0.04653
3862.44956	0.04652
3861.16379	0.04656
3859.87802	0.04630
3858.59225	0.04561
3857.30648	0.04475
3856.02071	0.04418
3854.73494	0.04417
3853.44917	0.04464
3852.16341	0.04533
3850.87764	0.04606
3849.59187	0.04669
3848.30610	0.04705
3847.02033	0.04702
3845.73456	0.04674
3844.44879	0.04652
3843.16302	0.04659
3841.87725	0.04690
3840.59149	0.04712
3839.30572	0.04690
3838.01995	0.04610
3836.73418	0.04490
3835.44841	0.04375
3834.16264	0.04314
3832.87687	0.04334
3831.59110	0.04419
3830.30534	0.04519
3829.01957	0.04584
3827.73380	0.04599
3826.44803	0.04586
3825.16226	0.04573
3823.87649	0.04563
3822.59072	0.04546
3821.30495	0.04525
3820.01918	0.04510
3818.73342	0.04509
3817.44765	0.04512
3816.16188	0.04495
3814.87611	0.04439
3813.59034	0.04351
3812.30457	0.04268
3811.01880	0.04228
3809.73303	0.04241
3808.44726	0.04280
3807.16150	0.04307
3805.87573	0.04311
3804.58996	0.04312
3803.30419	0.04334
3802.01842	0.04370
3800.73265	0.04388
3799.44688	0.04375
3798.16111	0.04357
3796.87535	0.04363
3795.58958	0.04388
3794.30381	0.04396
3793.01804	0.04359
3791.73227	0.04290
3790.44650	0.04229
3789.16073	0.04211
3787.87496	0.04238
3786.58919	0.04281
3785.30343	0.04307
3784.01766	0.04311
3782.73189	0.04310
3781.44612	0.04321
3780.16035	0.04339
3778.87458	0.04341
3777.58881	0.04308
3776.30304	0.04243
3775.01728	0.04169
3773.73151	0.04120
3772.44574	0.04119
3771.15997	0.04163
3769.87420	0.04219
3768.58843	0.04245
3767.30266	0.04233
3766.01689	0.04209
3764.73112	0.04202
3763.44536	0.04210
3762.15959	0.04217
3760.87382	0.04208
3759.58805	0.04182
3758.30228	0.04147
3757.01651	0.04120
3755.73074	0.04122
3754.44497	0.04152
3753.15921	0.04187
3751.87344	0.04205
3750.58767	0.04207
3749.30190	0.04217
3748.01613	0.04241
3746.73036	0.04255
3745.44459	0.04240
3744.15882	0.04212
3742.87305	0.04214
3741.58729	0.04267
3740.30152	0.04348
3739.01575	0.04406
3737.72998	0.04403
3736.44421	0.04333
3735.15844	0.04229
3733.87267	0.04146
3732.58690	0.04108
3731.30114	0.04088
3730.01537	0.04049
3728.72960	0.03993
3727.44383	0.03962
3726.15806	0.03982
3724.87229	0.04042
3723.58652	0.04104
3722.30075	0.04133
3721.01498	0.04117
3719.72922	0.04070
3718.44345	0.04024
3717.15768	0.04001
3715.87191	0.03998
3714.58614	0.03994
3713.30037	0.03968
3712.01460	0.03926
3710.72883	0.03894
3709.44307	0.03888
3708.15730	0.03894
3706.87153	0.03887
3705.58576	0.03872
3704.29999	0.03871
3703.01422	0.03880
3701.72845	0.03873
3700.44268	0.03847
3699.15691	0.03839
3697.87115	0.03876
3696.58538	0.03941
3695.29961	0.04005
3694.01384	0.04049
3692.72807	0.04077
3691.44230	0.04099
3690.15653	0.04115
3688.87076	0.04114
3687.58500	0.04077
3686.29923	0.04011
3685.01346	0.03947
3683.72769	0.03921
3682.44192	0.03941
3681.15615	0.03966
3679.87038	0.03950
3678.58461	0.03892
3677.29884	0.03844
3676.01308	0.03855
3674.72731	0.03910
3673.44154	0.03935
3672.15577	0.03879
3670.87000	0.03766
3669.58423	0.03667
3668.29846	0.03629
3667.01269	0.03652
3665.72693	0.03719
3664.44116	0.03819
3663.15539	0.03926
3661.86962	0.03994
3660.58385	0.03993
3659.29808	0.03941
3658.01231	0.03873
3656.72654	0.03805
3655.44077	0.03732
3654.15501	0.03658
3652.86924	0.03605
3651.58347	0.03596
3650.29770	0.03637
3649.01193	0.03709
3647.72616	0.03777
3646.44039	0.03808
3645.15462	0.03792
3643.86886	0.03755
3642.58309	0.03738
3641.29732	0.03758
3640.01155	0.03795
3638.72578	0.03808
3637.44001	0.03777
3636.15424	0.03721
3634.86847	0.03679
3633.58270	0.03672
3632.29694	0.03695
3631.01117	0.03728
3629.72540	0.03747
3628.43963	0.03730
3627.15386	0.03678
3625.86809	0.03632
3624.58232	0.03651
3623.29655	0.03751
3622.01079	0.03873
3620.72502	0.03934
3619.43925	0.03912
3618.15348	0.03861
3616.86771	0.03836
3615.58194	0.03837
3614.29617	0.03814
3613.01040	0.03734
3611.72463	0.03619
3610.43887	0.03537
3609.15310	0.03554
3607.86733	0.03673
3606.58156	0.03814
3605.29579	0.03880
3604.01002	0.03840
3602.72425	0.03738
3601.43848	0.03644
3600.15272	0.03592
3598.86695	0.03582
3597.58118	0.03594
3596.29541	0.03607
3595.00964	0.03601
3593.72387	0.03580
3592.43810	0.03550
3591.15233	0.03516
3589.86656	0.03481
3588.58080	0.03455
3587.29503	0.03447
3586.00926	0.03457
3584.72349	0.03476
3583.43772	0.03490
3582.15195	0.03491
3580.86618	0.03487
3579.58041	0.03497
3578.29464	0.03533
3577.00888	0.03578
3575.72311	0.03595
3574.43734	0.03568
3573.15157	0.03530
3571.86580	0.03532
3570.58003	0.03586
3569.29426	0.03650
3568.00849	0.03674
3566.72273	0.03651
3565.43696	0.03611
3564.15119	0.03583
3562.86542	0.03567
3561.57965	0.03545
3560.29388	0.03515
3559.00811	0.03494
3557.72234	0.03491
3556.43657	0.03493
3555.15081	0.03477
3553.86504	0.03443
3552.57927	0.03415
3551.29350	0.03412
3550.00773	0.03431
3548.72196	0.03458
3547.43619	0.03485
3546.15042	0.03503
3544.86466	0.03495
3543.57889	0.03457
3542.29312	0.03407
3541.00735	0.03367
3539.72158	0.03333
3538.43581	0.03294
3537.15004	0.03257
3535.86427	0.03248
3534.57850	0.03271
3533.29274	0.03305
3532.00697	0.03332
3530.72120	0.03352
3529.43543	0.03360
3528.14966	0.03345
3526.86389	0.03305
3525.57812	0.03268
3524.29235	0.03267
3523.00659	0.03305
3521.72082	0.03350
3520.43505	0.03374
3519.14928	0.03375
3517.86351	0.03372
3516.57774	0.03371
3515.29197	0.03358
3514.00620	0.03322
3512.72043	0.03281
3511.43467	0.03276
3510.14890	0.03329
3508.86313	0.03418
3507.57736	0.03486
3506.29159	0.03482
3505.00582	0.03410
3503.72005	0.03321
3502.43428	0.03267
3501.14852	0.03261
3499.86275	0.03276
3498.57698	0.03284
3497.29121	0.03273
3496.00544	0.03247
3494.71967	0.03209
3493.43390	0.03164
3492.14813	0.03121
3490.86236	0.03093
3489.57660	0.03088
3488.29083	0.03108
3487.00506	0.03150
3485.71929	0.03205
3484.43352	0.03248
3483.14775	0.03253
3481.86198	0.03210
3480.57621	0.03134
3479.29045	0.03070
3478.00468	0.03059
3476.71891	0.03109
3475.43314	0.03187
3474.14737	0.03247
3472.86160	0.03260
3471.57583	0.03230
3470.29006	0.03189
3469.00429	0.03177
3467.71853	0.03203
3466.43276	0.03235
3465.14699	0.03229
3463.86122	0.03174
3462.57545	0.03104
3461.28968	0.03061
3460.00391	0.03061
3458.71814	0.03086
3457.43238	0.03110
3456.14661	0.03119
3454.86084	0.03126
3453.57507	0.03144
3452.28930	0.03168
3451.00353	0.03180
3449.71776	0.03168
3448.43199	0.03136
3447.14622	0.03102
3445.86046	0.03081
3444.57469	0.03077
3443.28892	0.03076
3442.00315	0.03065
3440.71738	0.03048
3439.43161	0.03033
3438.14584	0.03024
3436.86007	0.03009
3435.57431	0.02982
3434.28854	0.02952
3433.00277	0.02942
3431.71700	0.02961
3430.43123	0.03005
3429.14546	0.03058
3427.85969	0.03104
3426.57392	0.03135
3425.28815	0.03147
3424.00239	0.03144
3422.71662	0.03137
3421.43085	0.03137
3420.14508	0.03143
3418.85931	0.03141
3417.57354	0.03114
3416.28777	0.03065
3415.00200	0.03018
3413.71624	0.03006
3412.43047	0.03040
3411.14470	0.03097
3409.85893	0.03141
3408.57316	0.03154
3407.28739	0.03153
3406.00162	0.03163
3404.71585	0.03192
3403.43008	0.03224
3402.14432	0.03231
3400.85855	0.03206
3399.57278	0.03166
3398.28701	0.03133
3397.00124	0.03116
3395.71547	0.03107
3394.42970	0.03098
3393.14393	0.03091
3391.85817	0.03093
3390.57240	0.03112
3389.28663	0.03157
3388.00086	0.03224
3386.71509	0.03291
3385.42932	0.03338
3384.14355	0.03352
3382.85778	0.03334
3381.57201	0.03287
3380.28625	0.03226
3379.00048	0.03177
3377.71471	0.03163
3376.42894	0.03190
3375.14317	0.03242
3373.85740	0.03290
3372.57163	0.03314
3371.28586	0.03312
3370.00010	0.03298
3368.71433	0.03288
3367.42856	0.03285
3366.14279	0.03286
3364.85702	0.03286
3363.57125	0.03290
3362.28548	0.03311
3360.99971	0.03355
3359.71394	0.03405
3358.42818	0.03430
3357.14241	0.03421
3355.85664	0.03398
3354.57087	0.03393
3353.28510	0.03410
3351.99933	0.03434
3350.71356	0.03449
3349.42779	0.03462
3348.14202	0.03487
3346.85626	0.03522
3345.57049	0.03547
3344.28472	0.03537
3342.99895	0.03494
3341.71318	0.03445
3340.42741	0.03423
3339.14164	0.03444
3337.85587	0.03504
3336.57011	0.03574
3335.28434	0.03628
3333.99857	0.03657
3332.71280	0.03666
3331.42703	0.03660
3330.14126	0.03642
3328.85549	0.03628
3327.56972	0.03639
3326.28395	0.03683
3324.99819	0.03740
3323.71242	0.03784
3322.42665	0.03803
3321.14088	0.03799
3319.85511	0.03783
3318.56934	0.03772
3317.28357	0.03785
3315.99780	0.03827
3314.71204	0.03873
3313.42627	0.03893
3312.14050	0.03879
3310.85473	0.03861
3309.56896	0.03868
3308.28319	0.03896
3306.99742	0.03925
3305.71165	0.03940
3304.42588	0.03948
3303.14012	0.03957
3301.85435	0.03967
3300.56858	0.03976
3299.28281	0.03991
3297.99704	0.04018
3296.71127	0.04052
3295.42550	0.04083
3294.13973	0.04109
3292.85397	0.04127
3291.56820	0.04127
3290.28243	0.04100
3288.99666	0.04055
3287.71089	0.04020
3286.42512	0.04020
3285.13935	0.04052
3283.85358	0.04091
3282.56781	0.04110
3281.28205	0.04106
3279.99628	0.04093
3278.71051	0.04086
3277.42474	0.04082
3276.13897	0.04071
3274.85320	0.04052
3273.56743	0.04043
3272.28166	0.04056
3270.99590	0.04083
3269.71013	0.04106
3268.42436	0.04113
3267.13859	0.04104
3265.85282	0.04083
3264.56705	0.04054
3263.28128	0.04026
3261.99551	0.04009
3260.70974	0.04009
3259.42398	0.04019
3258.13821	0.04036
3256.85244	0.04060
3255.56667	0.04096
3254.28090	0.04128
3252.99513	0.04131
3251.70936	0.04095
3250.42359	0.04046
3249.13783	0.04024
3247.85206	0.04046
3246.56629	0.04102
3245.28052	0.04169
3243.99475	0.04230
3242.70898	0.04267
3241.42321	0.04270
3240.13744	0.04247
3238.85167	0.04218
3237.56591	0.04195
3236.28014	0.04171
3234.99437	0.04135
3233.70860	0.04092
3232.42283	0.04058
3231.13706	0.04042
3229.85129	0.04041
3228.56552	0.04051
3227.27976	0.04078
3225.99399	0.04125
3224.70822	0.04170
3223.42245	0.04181
3222.13668	0.04148
3220.85091	0.04104
3219.56514	0.04095
3218.27937	0.04139
3216.99360	0.04210
3215.70784	0.04260
3214.42207	0.04258
3213.13630	0.04216
3211.85053	0.04180
3210.56476	0.04186
3209.27899	0.04223
3207.99322	0.04260
3206.70745	0.04274
3205.42169	0.04268
3204.13592	0.04255
3202.85015	0.04240
3201.56438	0.04224
3200.27861	0.04214
3198.99284	0.04225
3197.70707	0.04266
3196.42130	0.04323
3195.13553	0.04368
3193.84977	0.04375
3192.56400	0.04347
3191.27823	0.04305
3189.99246	0.04273
3188.70669	0.04261
3187.42092	0.04260
3186.13515	0.04253
3184.84938	0.04237
3183.56362	0.04235
3182.27785	0.04264
3180.99208	0.04313
3179.70631	0.04345
3178.42054	0.04340
3177.13477	0.04312
3175.84900	0.04290
3174.56323	0.04287
3173.27746	0.04292
3171.99170	0.04281
3170.70593	0.04246
3169.42016	0.04205
3168.13439	0.04184
3166.84862	0.04196
3165.56285	0.04229
3164.27708	0.04260
3162.99131	0.04275
3161.70555	0.04275
3160.41978	0.04268
3159.13401	0.04266
3157.84824	0.04269
3156.56247	0.04275
3155.27670	0.04282
3153.99093	0.04291
3152.70516	0.04301
3151.41939	0.04310
3150.13363	0.04312
3148.84786	0.04303
3147.56209	0.04286
3146.27632	0.04272
3144.99055	0.04275
3143.70478	0.04297
3142.41901	0.04317
3141.13324	0.04309
3139.84748	0.04260
3138.56171	0.04188
3137.27594	0.04128
3135.99017	0.04107
3134.70440	0.04125
3133.41863	0.04156
3132.13286	0.04175
3130.84709	0.04171
3129.56132	0.04156
3128.27556	0.04146
3126.98979	0.04148
3125.70402	0.04154
3124.41825	0.04160
3123.13248	0.04169
3121.84671	0.04185
3120.56094	0.04205
3119.27517	0.04217
3117.98940	0.04214
3116.70364	0.04200
3115.41787	0.04197
3114.13210	0.04217
3112.84633	0.04252
3111.56056	0.04278
3110.27479	0.04285
3108.98902	0.04275
3107.70325	0.04259
3106.41749	0.04244
3105.13172	0.04234
3103.84595	0.04231
3102.56018	0.04224
3101.27441	0.04200
3099.98864	0.04168
3098.70287	0.04152
3097.41710	0.04172
3096.13133	0.04216
3094.84557	0.04255
3093.55980	0.04263
3092.27403	0.04243
3090.98826	0.04216
3089.70249	0.04203
3088.41672	0.04205
3087.13095	0.04214
3085.84518	0.04219
3084.55942	0.04225
3083.27365	0.04242
3081.98788	0.04274
3080.70211	0.04308
3079.41634	0.04323
3078.13057	0.04309
3076.84480	0.04277
3075.55903	0.04252
3074.27326	0.04259
3072.98750	0.04298
3071.70173	0.04343
3070.41596	0.04361
3069.13019	0.04339
3067.84442	0.04296
3066.55865	0.04260
3065.27288	0.04252
3063.98711	0.04276
3062.70135	0.04319
3061.41558	0.04358
3060.12981	0.04370
3058.84404	0.04344
3057.55827	0.04294
3056.27250	0.04243
3054.98673	0.04214
3053.70096	0.04207
3052.41519	0.04206
3051.12943	0.04195
3049.84366	0.04175
3048.55789	0.04161
3047.27212	0.04165
3045.98635	0.04176
3044.70058	0.04180
3043.41481	0.04171
3042.12904	0.04164
3040.84328	0.04170
3039.55751	0.04189
3038.27174	0.04209
3036.98597	0.04217
3035.70020	0.04204
3034.41443	0.04172
3033.12866	0.04138
3031.84289	0.04121
3030.55712	0.04127
3029.27136	0.04140
3027.98559	0.04140
3026.69982	0.04126
3025.41405	0.04103
3024.12828	0.04077
3022.84251	0.04042
3021.55674	0.03997
3020.27097	0.03961
3018.98521	0.03954
3017.69944	0.03977
3016.41367	0.04005
3015.12790	0.04011
3013.84213	0.03994
3012.55636	0.03976
3011.27059	0.03978
3009.98482	0.03998
3008.69905	0.04016
3007.41329	0.04016
3006.12752	0.04000
3004.84175	0.03979
3003.55598	0.03960
3002.27021	0.03940
3000.98444	0.03917
2999.69867	0.03899
2998.41290	0.03887
2997.12714	0.03870
2995.84137	0.03843
2994.55560	0.03816
2993.26983	0.03807
2991.98406	0.03818
2990.69829	0.03844
2989.41252	0.03869
2988.12675	0.03877
2986.84098	0.03861
2985.55522	0.03835
2984.26945	0.03815
2982.98368	0.03797
2981.69791	0.03760
2980.41214	0.03700
2979.12637	0.03637
2977.84060	0.03593
2976.55483	0.03574
2975.26907	0.03569
2973.98330	0.03560
2972.69753	0.03537
2971.41176	0.03499
2970.12599	0.03455
2968.84022	0.03410
2967.55445	0.03367
2966.26868	0.03326
2964.98291	0.03288
2963.69715	0.03252
2962.41138	0.03215
2961.12561	0.03181
2959.83984	0.03154
2958.55407	0.03133
2957.26830	0.03114
2955.98253	0.03100
2954.69676	0.03097
2953.41100	0.03102
2952.12523	0.03095
2950.83946	0.03061
2949.55369	0.03012
2948.26792	0.02977
2946.98215	0.02969
2945.69638	0.02966
2944.41061	0.02923
2943.12484	0.02818
2941.83908	0.02671
2940.55331	0.02523
2939.26754	0.02406
2937.98177	0.02321
2936.69600	0.02245
2935.41023	0.02154
2934.12446	0.02043
2932.83869	0.01924
2931.55293	0.01807
2930.26716	0.01698
2928.98139	0.01593
2927.69562	0.01493
2926.40985	0.01399
2925.12408	0.01317
2923.83831	0.01253
2922.55254	0.01213
2921.26677	0.01192
2919.98101	0.01189
2918.69524	0.01215
2917.40947	0.01289
2916.12370	0.01424
2914.83793	0.01613
2913.55216	0.01829
2912.26639	0.02041
2910.98062	0.02223
2909.69486	0.02365
2908.40909	0.02467
2907.12332	0.02541
2905.83755	0.02604
2904.55178	0.02669
2903.26601	0.02738
2901.98024	0.02799
2900.69447	0.02847
2899.40870	0.02884
2898.12294	0.02918
2896.83717	0.02951
2895.55140	0.02983
2894.26563	0.03007
2892.97986	0.03026
2891.69409	0.03049
2890.40832	0.03080
2889.12255	0.03106
2887.83678	0.03107
2886.55102	0.03079
2885.26525	0.03042
2883.97948	0.03016
2882.69371	0.03011
2881.40794	0.03021
2880.12217	0.03036
2878.83640	0.03045
2877.55063	0.03041
2876.26487	0.03024
2874.97910	0.03001
2873.69333	0.02980
2872.40756	0.02969
2871.12179	0.02968
2869.83602	0.02964
2868.55025	0.02945
2867.26448	0.02905
2865.97871	0.02850
2864.69295	0.02781
2863.40718	0.02696
2862.12141	0.02597
2860.83564	0.02498
2859.54987	0.02406
2858.26410	0.02319
2856.97833	0.02229
2855.69256	0.02136
2854.40680	0.02048
2853.12103	0.01976
2851.83526	0.01938
2850.54949	0.01954
2849.26372	0.02039
2847.97795	0.02186
2846.69218	0.02370
2845.40641	0.02560
2844.12064	0.02737
2842.83488	0.02893
2841.54911	0.03031
2840.26334	0.03151
2838.97757	0.03246
2837.69180	0.03308
2836.40603	0.03331
2835.12026	0.03327
2833.83449	0.03314
2832.54873	0.03314
2831.26296	0.03331
2829.97719	0.03359
2828.69142	0.03382
2827.40565	0.03391
2826.11988	0.03391
2824.83411	0.03396
2823.54834	0.03409
2822.26257	0.03422
2820.97681	0.03426
2819.69104	0.03418
2818.40527	0.03400
2817.11950	0.03373
2815.83373	0.03344
2814.54796	0.03321
2813.26219	0.03310
2811.97642	0.03309
2810.69066	0.03315
2809.40489	0.03323
2808.11912	0.03331
2806.83335	0.03340
2805.54758	0.03346
2804.26181	0.03349
2802.97604	0.03347
2801.69027	0.03336
2800.40450	0.03320
2799.11874	0.03304
2797.83297	0.03290
2796.54720	0.03277
2795.26143	0.03264
2793.97566	0.03255
2792.68989	0.03255
2791.40412	0.03258
2790.11835	0.03253
2788.83259	0.03233
2787.54682	0.03213
2786.26105	0.03212
2784.97528	0.03241
2783.68951	0.03284
2782.40374	0.03319
2781.11797	0.03331
2779.83220	0.03327
2778.54643	0.03318
2777.26067	0.03317
2775.97490	0.03321
2774.68913	0.03324
2773.40336	0.03323
2772.11759	0.03314
2770.83182	0.03298
2769.54605	0.03276
2768.26028	0.03250
2766.97452	0.03228
2765.68875	0.03216
2764.40298	0.03220
2763.11721	0.03241
2761.83144	0.03262
2760.54567	0.03261
2759.25990	0.03235
2757.97413	0.03204
2756.68836	0.03193
2755.40260	0.03199
2754.11683	0.03209
2752.83106	0.03216
2751.54529	0.03218
2750.25952	0.03214
2748.97375	0.03199
2747.68798	0.03182
2746.40221	0.03170
2745.11645	0.03165
2743.83068	0.03167
2742.54491	0.03176
2741.25914	0.03191
2739.97337	0.03208
2738.68760	0.03218
2737.40183	0.03221
2736.11606	0.03220
2734.83029	0.03215
2733.54453	0.03208
2732.25876	0.03197
2730.97299	0.03176
2729.68722	0.03146
2728.40145	0.03120
2727.11568	0.03111
2725.82991	0.03121
2724.54414	0.03135
2723.25838	0.03140
2721.97261	0.03133
2720.68684	0.03127
2719.40107	0.03129
2718.11530	0.03136
2716.82953	0.03135
2715.54376	0.03115
2714.25799	0.03082
2712.97222	0.03053
2711.68646	0.03044
2710.40069	0.03053
2709.11492	0.03066
2707.82915	0.03076
2706.54338	0.03084
2705.25761	0.03089
2703.97184	0.03090
2702.68607	0.03086
2701.40031	0.03080
2700.11454	0.03079
2698.82877	0.03085
2697.54300	0.03094
2696.25723	0.03094
2694.97146	0.03079
2693.68569	0.03058
2692.39992	0.03045
2691.11415	0.03047
2689.82839	0.03059
2688.54262	0.03070
2687.25685	0.03076
2685.97108	0.03072
2684.68531	0.03057
2683.39954	0.03030
2682.11377	0.03003
2680.82800	0.02989
2679.54224	0.02993
2678.25647	0.03009
2676.97070	0.03028
2675.68493	0.03038
2674.39916	0.03033
2673.11339	0.03015
2671.82762	0.02993
2670.54185	0.02974
2669.25608	0.02963
2667.97032	0.02964
2666.68455	0.02977
2665.39878	0.02994
2664.11301	0.03004
2662.82724	0.03004
2661.54147	0.03001
2660.25570	0.03003
2658.96993	0.03010
2657.68417	0.03016
2656.39840	0.03013
2655.11263	0.03001
2653.82686	0.02986
2652.54109	0.02972
2651.25532	0.02961
2649.96955	0.02952
2648.68378	0.02942
2647.39801	0.02928
2646.11225	0.02908
2644.82648	0.02890
2643.54071	0.02886
2642.25494	0.02894
2640.96917	0.02901
2639.68340	0.02890
2638.39763	0.02863
2637.11186	0.02829
2635.82609	0.02798
2634.54033	0.02775
2633.25456	0.02761
2631.96879	0.02758
2630.68302	0.02766
2629.39725	0.02780
2628.11148	0.02785
2626.82571	0.02769
2625.53994	0.02737
2624.25418	0.02706
2622.96841	0.02692
2621.68264	0.02694
2620.39687	0.02701
2619.11110	0.02701
2617.82533	0.02690
2616.53956	0.02679
2615.25379	0.02681
2613.96802	0.02704
2612.68226	0.02737
2611.39649	0.02756
2610.11072	0.02743
2608.82495	0.02709
2607.53918	0.02678
2606.25341	0.02668
2604.96764	0.02672
2603.68187	0.02672
2602.39611	0.02657
2601.11034	0.02629
2599.82457	0.02601
2598.53880	0.02584
2597.25303	0.02580
2595.96726	0.02575
2594.68149	0.02563
2593.39572	0.02550
2592.10995	0.02553
2590.82419	0.02577
2589.53842	0.02606
2588.25265	0.02614
2586.96688	0.02594
2585.68111	0.02558
2584.39534	0.02529
2583.10957	0.02516
2581.82380	0.02511
2580.53804	0.02506
2579.25227	0.02504
2577.96650	0.02515
2576.68073	0.02536
2575.39496	0.02557
2574.10919	0.02566
2572.82342	0.02560
2571.53765	0.02539
2570.25188	0.02503
2568.96612	0.02459
2567.68035	0.02421
2566.39458	0.02404
2565.10881	0.02417
2563.82304	0.02451
2562.53727	0.02493
2561.25150	0.02527
2559.96573	0.02539
2558.67997	0.02525
2557.39420	0.02494
2556.10843	0.02471
2554.82266	0.02475
2553.53689	0.02501
2552.25112	0.02526
2550.96535	0.02530
2549.67958	0.02519
2548.39381	0.02510
2547.10805	0.02511
2545.82228	0.02518
2544.53651	0.02515
2543.25074	0.02492
2541.96497	0.02450
2540.67920	0.02405
2539.39343	0.02375
2538.10766	0.02363
2536.82190	0.02362
2535.53613	0.02369
2534.25036	0.02387
2532.96459	0.02417
2531.67882	0.02442
2530.39305	0.02449
2529.10728	0.02439
2527.82151	0.02421
2526.53574	0.02400
2525.24998	0.02376
2523.96421	0.02351
2522.67844	0.02335
2521.39267	0.02339
2520.10690	0.02364
2518.82113	0.02405
2517.53536	0.02454
2516.24959	0.02497
2514.96383	0.02508
2513.67806	0.02471
2512.39229	0.02402
2511.10652	0.02340
2509.82075	0.02309
2508.53498	0.02301
2507.24921	0.02297
2505.96344	0.02289
2504.67767	0.02275
2503.39191	0.02249
2502.10614	0.02212
2500.82037	0.02176
2499.53460	0.02158
2498.24883	0.02168
2496.96306	0.02205
2495.67729	0.02253
2494.39152	0.02287
2493.10576	0.02290
2491.81999	0.02265
2490.53422	0.02240
2489.24845	0.02241
2487.96268	0.02270
2486.67691	0.02300
2485.39114	0.02310
2484.10537	0.02305
2482.81960	0.02309
2481.53384	0.02333
2480.24807	0.02364
2478.96230	0.02382
2477.67653	0.02376
2476.39076	0.02354
2475.10499	0.02335
2473.81922	0.02329
2472.53345	0.02328
2471.24769	0.02315
2469.96192	0.02288
2468.67615	0.02260
2467.39038	0.02247
2466.10461	0.02252
2464.81884	0.02264
2463.53307	0.02266
2462.24730	0.02256
2460.96153	0.02246
2459.67577	0.02247
2458.39000	0.02255
2457.10423	0.02255
2455.81846	0.02240
2454.53269	0.02217
2453.24692	0.02198
2451.96115	0.02193
2450.67538	0.02199
2449.38962	0.02208
2448.10385	0.02204
2446.81808	0.02181
2445.53231	0.02146
2444.24654	0.02119
2442.96077	0.02114
2441.67500	0.02132
2440.38923	0.02161
2439.10346	0.02191
2437.81770	0.02219
2436.53193	0.02242
2435.24616	0.02260
2433.96039	0.02268
2432.67462	0.02264
2431.38885	0.02248
2430.10308	0.02235
2428.81731	0.02236
2427.53155	0.02249
2426.24578	0.02258
2424.96001	0.02250
2423.67424	0.02238
2422.38847	0.02241
2421.10270	0.02260
2419.81693	0.02278
2418.53116	0.02275
2417.24539	0.02255
2415.95963	0.02233
2414.67386	0.02224
2413.38809	0.02232
2412.10232	0.02250
2410.81655	0.02270
2409.53078	0.02285
2408.24501	0.02288
2406.95924	0.02273
2405.67347	0.02239
2404.38771	0.02196
2403.10194	0.02162
2401.81617	0.02154
2400.53040	0.02171
2399.24463	0.02196
2397.95886	0.02208
2396.67309	0.02194
2395.38732	0.02160
2394.10156	0.02122
2392.81579	0.02095
2391.53002	0.02088
2390.24425	0.02099
2388.95848	0.02122
2387.67271	0.02145
2386.38694	0.02164
2385.10117	0.02178
2383.81540	0.02191
2382.52964	0.02206
2381.24387	0.02220
2379.95810	0.02231
2378.67233	0.02222
2377.38656	0.02207
2376.10079	0.02214
2374.81502	0.02240
2373.52925	0.02237
2372.24349	0.02200
2370.95772	0.02161
2369.67195	0.02136
2368.38618	0.02124
2367.10041	0.02114
2365.81464	0.02111
2364.52887	0.02110
2363.24310	0.02110
2361.95733	0.02110
2360.67157	0.02111
2359.38580	0.02128
2358.10003	0.02155
2356.81426	0.02178
2355.52849	0.02194
2354.24272	0.02215
2352.95695	0.02238
2351.67118	0.02230
2350.38542	0.02213
2349.09965	0.02216
2347.81388	0.02218
2346.52811	0.02193
2345.24234	0.02173
2343.95657	0.02186
2342.67080	0.02245
2341.38503	0.02233
2340.09926	0.02171
2338.81350	0.02182
2337.52773	0.02242
2336.24196	0.02211
2334.95619	0.02145
2333.67042	0.02137
2332.38465	0.02181
2331.09888	0.02135
2329.81311	0.02146
2328.52735	0.02214
2327.24158	0.02237
2325.95581	0.02257
2324.67004	0.02298
2323.38427	0.02352
2322.09850	0.02348
2320.81273	0.02329
2319.52696	0.02298
2318.24119	0.02263
2316.95543	0.02231
2315.66966	0.02196
2314.38389	0.02166
2313.09812	0.02133
2311.81235	0.02100
2310.52658	0.02093
2309.24081	0.02108
2307.95504	0.02122
2306.66928	0.02134
2305.38351	0.02139
2304.09774	0.02139
2302.81197	0.02135
2301.52620	0.02124
2300.24043	0.02113
2298.95466	0.02102
2297.66889	0.02084
2296.38312	0.02058
2295.09736	0.02030
2293.81159	0.02012
2292.52582	0.02005
2291.24005	0.02010
2289.95428	0.02030
2288.66851	0.02066
2287.38274	0.02114
2286.09697	0.02156
2284.81121	0.02169
2283.52544	0.02134
2282.23967	0.02055
2280.95390	0.01953
2279.66813	0.01861
2278.38236	0.01811
2277.09659	0.01812
2275.81082	0.01855
2274.52505	0.01913
2273.23929	0.01962
2271.95352	0.01984
2270.66775	0.01976
2269.38198	0.01947
2268.09621	0.01911
2266.81044	0.01878
2265.52467	0.01849
2264.23890	0.01823
2262.95314	0.01801
2261.66737	0.01787
2260.38160	0.01785
2259.09583	0.01788
2257.81006	0.01778
2256.52429	0.01750
2255.23852	0.01721
2253.95275	0.01722
2252.66698	0.01761
2251.38122	0.01815
2250.09545	0.01852
2248.80968	0.01862
2247.52391	0.01862
2246.23814	0.01873
2244.95237	0.01878
2243.66660	0.01861
2242.38083	0.01828
2241.09507	0.01789
2239.80930	0.01738
2238.52353	0.01683
2237.23776	0.01664
2235.95199	0.01696
2234.66622	0.01726
2233.38045	0.01682
2232.09468	0.01564
2230.80891	0.01449
2229.52315	0.01406
2228.23738	0.01431
2226.95161	0.01472
2225.66584	0.01493
2224.38007	0.01494
2223.09430	0.01495
2221.80853	0.01501
2220.52276	0.01507
2219.23700	0.01512
2217.95123	0.01522
2216.66546	0.01547
2215.37969	0.01580
2214.09392	0.01595
2212.80815	0.01563
2211.52238	0.01482
2210.23661	0.01379
2208.95084	0.01298
2207.66508	0.01270
2206.37931	0.01295
2205.09354	0.01334
2203.80777	0.01339
2202.52200	0.01296
2201.23623	0.01242
2199.95046	0.01219
2198.66469	0.01227
2197.37893	0.01238
2196.09316	0.01238
2194.80739	0.01230
2193.52162	0.01209
2192.23585	0.01169
2190.95008	0.01127
2189.66431	0.01133
2188.37854	0.01228
2187.09277	0.01402
2185.80701	0.01580
2184.52124	0.01668
2183.23547	0.01621
2181.94970	0.01483
2180.66393	0.01363
2179.37816	0.01346
2178.09239	0.01418
2176.80662	0.01472
2175.52085	0.01421
2174.23509	0.01287
2172.94932	0.01164
2171.66355	0.01111
2170.37778	0.01119
2169.09201	0.01158
2167.80624	0.01210
2166.52047	0.01263
2165.23470	0.01295
2163.94894	0.01269
2162.66317	0.01146
2161.37740	0.00937
2160.09163	0.00727
2158.80586	0.00607
2157.52009	0.00584
2156.23432	0.00609
2154.94855	0.00651
2153.66278	0.00702
2152.37702	0.00744
2151.09125	0.00766
2149.80548	0.00797
2148.51971	0.00872
2147.23394	0.00972
2145.94817	0.01032
2144.66240	0.01006
2143.37663	0.00921
2142.09087	0.00855
2140.80510	0.00885
2139.51933	0.01017
2138.23356	0.01169
2136.94779	0.01239
2135.66202	0.01199
2134.37625	0.01127
2133.09048	0.01113
2131.80471	0.01167
2130.51895	0.01232
2129.23318	0.01262
2127.94741	0.01255
2126.66164	0.01232
2125.37587	0.01210
2124.09010	0.01202
2122.80433	0.01215
2121.51856	0.01237
2120.23280	0.01251
2118.94703	0.01248
2117.66126	0.01242
2116.37549	0.01253
2115.08972	0.01278
2113.80395	0.01292
2112.51818	0.01281
2111.23241	0.01259
2109.94664	0.01252
2108.66088	0.01264
2107.37511	0.01278
2106.08934	0.01280
2104.80357	0.01274
2103.51780	0.01264
2102.23203	0.01249
2100.94626	0.01229
2099.66049	0.01205
2098.37473	0.01186
2097.08896	0.01163
2095.80319	0.01131
2094.51742	0.01099
2093.23165	0.01092
2091.94588	0.01134
2090.66011	0.01223
2089.37434	0.01330
2088.08857	0.01413
2086.80281	0.01437
2085.51704	0.01390
2084.23127	0.01298
2082.94550	0.01211
2081.65973	0.01171
2080.37396	0.01182
2079.08819	0.01216
2077.80242	0.01235
2076.51666	0.01215
2075.23089	0.01152
2073.94512	0.01067
2072.65935	0.00998
2071.37358	0.00974
2070.08781	0.00998
2068.80204	0.01046
2067.51627	0.01090
2066.23050	0.01116
2064.94474	0.01113
2063.65897	0.01072
2062.37320	0.01007
2061.08743	0.00947
2059.80166	0.00911
2058.51589	0.00892
2057.23012	0.00882
2055.94435	0.00886
2054.65859	0.00912
2053.37282	0.00934
2052.08705	0.00904
2050.80128	0.00797
2049.51551	0.00644
2048.22974	0.00520
2046.94397	0.00484
2045.65820	0.00534
2044.37243	0.00614
2043.08667	0.00676
2041.80090	0.00707
2040.51513	0.00721
2039.22936	0.00712
2037.94359	0.00648
2036.65782	0.00504
2035.37205	0.00323
2034.08628	0.00198
2032.80052	0.00194
2031.51475	0.00284
2030.22898	0.00401
2028.94321	0.00502
2027.65744	0.00584
2026.37167	0.00630
2025.08590	0.00612
2023.80013	0.00528
2022.51436	0.00427
2021.22860	0.00371
2019.94283	0.00383
2018.65706	0.00439
2017.37129	0.00508
2016.08552	0.00584
2014.79975	0.00669
2013.51398	0.00736
2012.22821	0.00756
2010.94245	0.00737
2009.65668	0.00723
2008.37091	0.00734
2007.08514	0.00756
2005.79937	0.00771
2004.51360	0.00783
2003.22783	0.00798
2001.94206	0.00810
2000.65629	0.00815
1999.37053	0.00818
1998.08476	0.00832
1996.79899	0.00859
1995.51322	0.00888
1994.22745	0.00903
1992.94168	0.00903
1991.65591	0.00920
1990.37014	0.00989
1989.08438	0.01094
1987.79861	0.01159
1986.51284	0.01116
1985.22707	0.00989
1983.94130	0.00875
1982.65553	0.00859
1981.36976	0.00948
1980.08399	0.01083
1978.79822	0.01187
1977.51246	0.01218
1976.22669	0.01193
1974.94092	0.01165
1973.65515	0.01167
1972.36938	0.01183
1971.08361	0.01182
1969.79784	0.01162
1968.51207	0.01147
1967.22631	0.01143
1965.94054	0.01120
1964.65477	0.01050
1963.36900	0.00952
1962.08323	0.00883
1960.79746	0.00888
1959.51169	0.00951
1958.22592	0.01018
1956.94015	0.01044
1955.65439	0.01025
1954.36862	0.00973
1953.08285	0.00907
1951.79708	0.00849
1950.51131	0.00825
1949.22554	0.00847
1947.93977	0.00895
1946.65400	0.00937
1945.36823	0.00967
1944.08247	0.00999
1942.79670	0.01045
1941.51093	0.01091
1940.22516	0.01114
1938.93939	0.01109
1937.65362	0.01088
1936.36785	0.01072
1935.08208	0.01071
1933.79632	0.01083
1932.51055	0.01097
1931.22478	0.01111
1929.93901	0.01133
1928.65324	0.01168
1927.36747	0.01203
1926.08170	0.01219
1924.79593	0.01218
1923.51016	0.01216
1922.22440	0.01217
1920.93863	0.01209
1919.65286	0.01182
1918.36709	0.01153
1917.08132	0.01149
1915.79555	0.01176
1914.50978	0.01210
1913.22401	0.01224
1911.93825	0.01212
1910.65248	0.01191
1909.36671	0.01182
1908.08094	0.01184
1906.79517	0.01186
1905.50940	0.01179
1904.22363	0.01169
1902.93786	0.01163
1901.65209	0.01161
1900.36633	0.01155
1899.08056	0.01140
1897.79479	0.01122
1896.50902	0.01116
1895.22325	0.01132
1893.93748	0.01158
1892.65171	0.01176
1891.36594	0.01173
1890.08018	0.01161
1888.79441	0.01160
1887.50864	0.01176
1886.22287	0.01194
1884.93710	0.01192
1883.65133	0.01162
1882.36556	0.01122
1881.07979	0.01098
1879.79402	0.01099
1878.50826	0.01119
1877.22249	0.01146
1875.93672	0.01172
1874.65095	0.01197
1873.36518	0.01214
1872.07941	0.01216
1870.79364	0.01207
1869.50787	0.01195
1868.22211	0.01188
1866.93634	0.01186
1865.65057	0.01190
1864.36480	0.01197
1863.07903	0.01206
1861.79326	0.01210
1860.50749	0.01207
1859.22172	0.01199
1857.93595	0.01192
1856.65019	0.01187
1855.36442	0.01183
1854.07865	0.01178
1852.79288	0.01173
1851.50711	0.01170
1850.22134	0.01173
1848.93557	0.01182
1847.64980	0.01190
1846.36404	0.01195
1845.07827	0.01195
1843.79250	0.01190
1842.50673	0.01182
1841.22096	0.01175
1839.93519	0.01176
1838.64942	0.01184
1837.36365	0.01196
1836.07788	0.01209
1834.79212	0.01221
1833.50635	0.01231
1832.22058	0.01234
1830.93481	0.01227
1829.64904	0.01214
1828.36327	0.01205
1827.07750	0.01204
1825.79173	0.01206
1824.50597	0.01205
1823.22020	0.01196
1821.93443	0.01185
1820.64866	0.01177
1819.36289	0.01175
1818.07712	0.01178
1816.79135	0.01187
1815.50558	0.01203
1814.21981	0.01224
1812.93405	0.01246
1811.64828	0.01264
1810.36251	0.01272
1809.07674	0.01269
1807.79097	0.01257
1806.50520	0.01240
1805.21943	0.01222
1803.93366	0.01205
1802.64790	0.01192
1801.36213	0.01181
1800.07636	0.01171
1798.79059	0.01163
1797.50482	0.01162
1796.21905	0.01168
1794.93328	0.01180
1793.64751	0.01194
1792.36174	0.01204
1791.07598	0.01208
1789.79021	0.01204
1788.50444	0.01195
1787.21867	0.01184
1785.93290	0.01174
1784.64713	0.01168
1783.36136	0.01164
1782.07559	0.01161
1780.78983	0.01156
1779.50406	0.01151
1778.21829	0.01148
1776.93252	0.01148
1775.64675	0.01148
1774.36098	0.01148
1773.07521	0.01148
1771.78944	0.01147
1770.50367	0.01143
1769.21791	0.01133
1767.93214	0.01117
1766.64637	0.01097
1765.36060	0.01078
1764.07483	0.01060
1762.78906	0.01045
1761.50329	0.01034
1760.21752	0.01027
1758.93176	0.01015
1757.64599	0.00994
1756.36022	0.00966
1755.07445	0.00937
1753.78868	0.00915
1752.50291	0.00896
1751.21714	0.00875
1749.93137	0.00845
1748.64560	0.00811
1747.35984	0.00777
1746.07407	0.00748
1744.78830	0.00725
1743.50253	0.00707
1742.21676	0.00687
1740.93099	0.00661
1739.64522	0.00631
1738.35945	0.00597
1737.07369	0.00564
1735.78792	0.00539
1734.50215	0.00522
1733.21638	0.00513
1731.93061	0.00505
1730.64484	0.00496
1729.35907	0.00489
1728.07330	0.00492
1726.78753	0.00512
1725.50177	0.00545
1724.21600	0.00586
1722.93023	0.00627
1721.64446	0.00664
1720.35869	0.00699
1719.07292	0.00732
1717.78715	0.00765
1716.50138	0.00799
1715.21561	0.00835
1713.92985	0.00879
1712.64408	0.00930
1711.35831	0.00984
1710.07254	0.01038
1708.78677	0.01094
1707.50100	0.01155
1706.21523	0.01223
1704.92946	0.01296
1703.64370	0.01373
1702.35793	0.01451
1701.07216	0.01530
1699.78639	0.01609
1698.50062	0.01691
1697.21485	0.01778
1695.92908	0.01868
1694.64331	0.01961
1693.35754	0.02053
1692.07178	0.02143
1690.78601	0.02231
1689.50024	0.02316
1688.21447	0.02399
1686.92870	0.02481
1685.64293	0.02561
1684.35716	0.02637
1683.07139	0.02708
1681.78563	0.02773
1680.49986	0.02837
1679.21409	0.02902
1677.92832	0.02969
1676.64255	0.03038
1675.35678	0.03108
1674.07101	0.03179
1672.78524	0.03252
1671.49947	0.03323
1670.21371	0.03388
1668.92794	0.03446
1667.64217	0.03499
1666.35640	0.03549
1665.07063	0.03604
1663.78486	0.03663
1662.49909	0.03727
1661.21332	0.03793
1659.92756	0.03861
1658.64179	0.03931
1657.35602	0.04003
1656.07025	0.04074
1654.78448	0.04139
1653.49871	0.04197
1652.21294	0.04245
1650.92717	0.04285
1649.64140	0.04320
1648.35564	0.04356
1647.06987	0.04394
1645.78410	0.04432
1644.49833	0.04463
1643.21256	0.04489
1641.92679	0.04511
1640.64102	0.04529
1639.35525	0.04539
1638.06949	0.04539
1636.78372	0.04532
1635.49795	0.04521
1634.21218	0.04507
1632.92641	0.04488
1631.64064	0.04457
1630.35487	0.04412
1629.06910	0.04354
1627.78333	0.04286
1626.49757	0.04213
1625.21180	0.04137
1623.92603	0.04061
1622.64026	0.03984
1621.35449	0.03906
1620.06872	0.03825
1618.78295	0.03743
1617.49718	0.03661
1616.21142	0.03581
1614.92565	0.03504
1613.63988	0.03429
1612.35411	0.03355
1611.06834	0.03281
1609.78257	0.03209
1608.49680	0.03140
1607.21103	0.03076
1605.92526	0.03016
1604.63950	0.02961
1603.35373	0.02913
1602.06796	0.02874
1600.78219	0.02846
1599.49642	0.02829
1598.21065	0.02818
1596.92488	0.02809
1595.63911	0.02799
1594.35335	0.02790
1593.06758	0.02788
1591.78181	0.02796
1590.49604	0.02810
1589.21027	0.02827
1587.92450	0.02848
1586.63873	0.02874
1585.35296	0.02908
1584.06719	0.02948
1582.78143	0.02992
1581.49566	0.03039
1580.20989	0.03085
1578.92412	0.03131
1577.63835	0.03180
1576.35258	0.03233
1575.06681	0.03290
1573.78104	0.03350
1572.49528	0.03411
1571.20951	0.03474
1569.92374	0.03541
1568.63797	0.03611
1567.35220	0.03679
1566.06643	0.03742
1564.78066	0.03799
1563.49489	0.03854
1562.20912	0.03909
1560.92336	0.03966
1559.63759	0.04021
1558.35182	0.04070
1557.06605	0.04115
1555.78028	0.04160
1554.49451	0.04207
1553.20874	0.04256
1551.92297	0.04304
1550.63721	0.04350
1549.35144	0.04391
1548.06567	0.04423
1546.77990	0.04445
1545.49413	0.04460
1544.20836	0.04473
1542.92259	0.04486
1541.63682	0.04501
1540.35105	0.04516
1539.06529	0.04531
1537.77952	0.04542
1536.49375	0.04549
1535.20798	0.04554
1533.92221	0.04559
1532.63644	0.04563
1531.35067	0.04567
1530.06490	0.04570
1528.77914	0.04576
1527.49337	0.04587
1526.20760	0.04600
1524.92183	0.04614
1523.63606	0.04627
1522.35029	0.04640
1521.06452	0.04654
1519.77875	0.04668
1518.49298	0.04681
1517.20722	0.04694
1515.92145	0.04708
1514.63568	0.04726
1513.34991	0.04753
1512.06414	0.04788
1510.77837	0.04824
1509.49260	0.04856
1508.20683	0.04886
1506.92107	0.04914
1505.63530	0.04939
1504.34953	0.04959
1503.06376	0.04973
1501.77799	0.04985
1500.49222	0.04995
1499.20645	0.05003
1497.92068	0.05008
1496.63491	0.05014
1495.34915	0.05019
1494.06338	0.05021
1492.77761	0.05021
1491.49184	0.05020
1490.20607	0.05024
1488.92030	0.05037
1487.63453	0.05059
1486.34876	0.05086
1485.06299	0.05116
1483.77723	0.05149
1482.49146	0.05185
1481.20569	0.05225
1479.91992	0.05268
1478.63415	0.05314
1477.34838	0.05360
1476.06261	0.05401
1474.77684	0.05433
1473.49108	0.05456
1472.20531	0.05470
1470.91954	0.05478
1469.63377	0.05484
1468.34800	0.05495
1467.06223	0.05520
1465.77646	0.05558
1464.49069	0.05604
1463.20492	0.05654
1461.91916	0.05705
1460.63339	0.05757
1459.34762	0.05811
1458.06185	0.05868
1456.77608	0.05932
1455.49031	0.05998
1454.20454	0.06060
1452.91877	0.06118
1451.63301	0.06172
1450.34724	0.06226
1449.06147	0.06278
1447.77570	0.06324
1446.48993	0.06360
1445.20416	0.06382
1443.91839	0.06391
1442.63262	0.06391
1441.34685	0.06385
1440.06109	0.06375
1438.77532	0.06364
1437.48955	0.06352
1436.20378	0.06341
1434.91801	0.06338
1433.63224	0.06348
1432.34647	0.06371
1431.06070	0.06406
1429.77494	0.06449
1428.48917	0.06496
1427.20340	0.06546
1425.91763	0.06599
1424.63186	0.06656
1423.34609	0.06717
1422.06032	0.06783
1420.77455	0.06852
1419.48878	0.06923
1418.20302	0.06991
1416.91725	0.07048
1415.63148	0.07092
1414.34571	0.07122
1413.05994	0.07140
1411.77417	0.07149
1410.48840	0.07150
1409.20263	0.07143
1407.91687	0.07130
1406.63110	0.07107
1405.34533	0.07070
1404.05956	0.07017
1402.77379	0.06950
1401.48802	0.06872
1400.20225	0.06785
1398.91648	0.06690
1397.63071	0.06586
1396.34495	0.06475
1395.05918	0.06361
1393.77341	0.06248
1392.48764	0.06137
1391.20187	0.06022
1389.91610	0.05902
1388.63033	0.05776
1387.34456	0.05646
1386.05880	0.05517
1384.77303	0.05389
1383.48726	0.05260
1382.20149	0.05129
1380.91572	0.04998
1379.62995	0.04868
1378.34418	0.04740
1377.05841	0.04612
1375.77264	0.04485
1374.48688	0.04358
1373.20111	0.04230
1371.91534	0.04103
1370.62957	0.03979
1369.34380	0.03864
1368.05803	0.03756
1366.77226	0.03654
1365.48649	0.03555
1364.20073	0.03460
1362.91496	0.03370
1361.62919	0.03286
1360.34342	0.03209
1359.05765	0.03138
1357.77188	0.03072
1356.48611	0.03014
1355.20034	0.02961
1353.91457	0.02913
1352.62881	0.02867
1351.34304	0.02828
1350.05727	0.02797
1348.77150	0.02775
1347.48573	0.02756
1346.19996	0.02736
1344.91419	0.02713
1343.62842	0.02687
1342.34266	0.02659
1341.05689	0.02630
1339.77112	0.02599
1338.48535	0.02567
1337.19958	0.02535
1335.91381	0.02505
1334.62804	0.02478
1333.34227	0.02455
1332.05650	0.02436
1330.77074	0.02414
1329.48497	0.02387
1328.19920	0.02355
1326.91343	0.02321
1325.62766	0.02290
1324.34189	0.02264
1323.05612	0.02242
1321.77035	0.02222
1320.48459	0.02201
1319.19882	0.02179
1317.91305	0.02158
1316.62728	0.02138
1315.34151	0.02120
1314.05574	0.02104
1312.76997	0.02088
1311.48420	0.02073
1310.19843	0.02059
1308.91267	0.02042
1307.62690	0.02022
1306.34113	0.01998
1305.05536	0.01973
1303.76959	0.01951
1302.48382	0.01932
1301.19805	0.01916
1299.91228	0.01900
1298.62652	0.01882
1297.34075	0.01858
1296.05498	0.01829
1294.76921	0.01794
1293.48344	0.01756
1292.19767	0.01718
1290.91190	0.01680
1289.62613	0.01643
1288.34036	0.01609
1287.05460	0.01576
1285.76883	0.01544
1284.48306	0.01508
1283.19729	0.01470
1281.91152	0.01433
1280.62575	0.01401
1279.33998	0.01382
1278.05421	0.01381
1276.76845	0.01399
1275.48268	0.01432
1274.19691	0.01470
1272.91114	0.01500
1271.62537	0.01519
1270.33960	0.01527
1269.05383	0.01530
1267.76806	0.01532
1266.48229	0.01533
1265.19653	0.01531
1263.91076	0.01527
1262.62499	0.01525
1261.33922	0.01528
1260.05345	0.01539
1258.76768	0.01554
1257.48191	0.01568
1256.19614	0.01578
1254.91037	0.01583
1253.62461	0.01585
1252.33884	0.01588
1251.05307	0.01594
1249.76730	0.01601
1248.48153	0.01607
1247.19576	0.01615
1245.90999	0.01623
1244.62422	0.01631
1243.33846	0.01637
1242.05269	0.01639
1240.76692	0.01639
1239.48115	0.01638
1238.19538	0.01638
1236.90961	0.01637
1235.62384	0.01634
1234.33807	0.01629
1233.05230	0.01621
1231.76654	0.01608
1230.48077	0.01590
1229.19500	0.01566
1227.90923	0.01536
1226.62346	0.01504
1225.33769	0.01475
1224.05192	0.01453
1222.76615	0.01438
1221.48039	0.01426
1220.19462	0.01412
1218.90885	0.01394
1217.62308	0.01374
1216.33731	0.01353
1215.05154	0.01334
1213.76577	0.01319
1212.48000	0.01306
1211.19423	0.01296
1209.90847	0.01288
1208.62270	0.01284
1207.33693	0.01284
1206.05116	0.01287
1204.76539	0.01291
1203.47962	0.01292
1202.19385	0.01289
1200.90808	0.01282
1199.62232	0.01273
1198.33655	0.01261
1197.05078	0.01247
1195.76501	0.01233
1194.47924	0.01221
1193.19347	0.01210
1191.90770	0.01195
1190.62193	0.01174
1189.33616	0.01149
1188.05040	0.01124
1186.76463	0.01104
1185.47886	0.01091
1184.19309	0.01084
1182.90732	0.01078
1181.62155	0.01076
1180.33578	0.01076
1179.05001	0.01075
1177.76425	0.01070
1176.47848	0.01059
1175.19271	0.01046
1173.90694	0.01036
1172.62117	0.01031
1171.33540	0.01028
1170.04963	0.01023
1168.76386	0.01010
1167.47809	0.00987
1166.19233	0.00956
1164.90656	0.00923
1163.62079	0.00898
1162.33502	0.00884
1161.04925	0.00883
1159.76348	0.00891
1158.47771	0.00908
1157.19194	0.00933
1155.90618	0.00966
1154.62041	0.01003
1153.33464	0.01044
1152.04887	0.01085
1150.76310	0.01124
1149.47733	0.01154
1148.19156	0.01175
1146.90579	0.01196
1145.62002	0.01227
1144.33426	0.01269
1143.04849	0.01319
1141.76272	0.01367
1140.47695	0.01413
1139.19118	0.01459
1137.90541	0.01508
1136.61964	0.01565
1135.33387	0.01633
1134.04811	0.01716
1132.76234	0.01810
1131.47657	0.01913
1130.19080	0.02027
1128.90503	0.02153
1127.61926	0.02296
1126.33349	0.02455
1125.04772	0.02627
1123.76195	0.02810
1122.47619	0.03004
1121.19042	0.03208
1119.90465	0.03425
1118.61888	0.03653
1117.33311	0.03886
1116.04734	0.04115
1114.76157	0.04336
1113.47580	0.04551
1112.19004	0.04763
1110.90427	0.04972
1109.61850	0.05177
1108.33273	0.05382
1107.04696	0.05590
1105.76119	0.05796
1104.47542	0.05991
1103.18965	0.06172
1101.90388	0.06345
1100.61812	0.06511
1099.33235	0.06671
1098.04658	0.06823
1096.76081	0.06971
1095.47504	0.07116
1094.18927	0.07259
1092.90350	0.07399
1091.61773	0.07533
1090.33197	0.07655
1089.04620	0.07769
1087.76043	0.07885
1086.47466	0.08013
1085.18889	0.08154
1083.90312	0.08295
1082.61735	0.08427
1081.33158	0.08554
1080.04581	0.08684
1078.76005	0.08828
1077.47428	0.08990
1076.18851	0.09166
1074.90274	0.09351
1073.61697	0.09537
1072.33120	0.09721
1071.04543	0.09904
1069.75966	0.10091
1068.47390	0.10285
1067.18813	0.10489
1065.90236	0.10703
1064.61659	0.10923
1063.33082	0.11148
1062.04505	0.11377
1060.75928	0.11608
1059.47351	0.11840
1058.18774	0.12070
1056.90198	0.12295
1055.61621	0.12511
1054.33044	0.12719
1053.04467	0.12923
1051.75890	0.13126
1050.47313	0.13330
1049.18736	0.13535
1047.90159	0.13744
1046.61583	0.13960
1045.33006	0.14182
1044.04429	0.14411
1042.75852	0.14640
1041.47275	0.14867
1040.18698	0.15090
1038.90121	0.15315
1037.61544	0.15545
1036.32967	0.15779
1035.04391	0.16013
1033.75814	0.16238
1032.47237	0.16452
1031.18660	0.16649
1029.90083	0.16829
1028.61506	0.16993
1027.32929	0.17140
1026.04352	0.17269
1024.75775	0.17375
1023.47199	0.17458
1022.18622	0.17520
1020.90045	0.17563
1019.61468	0.17583
1018.32891	0.17576
1017.04314	0.17540
1015.75737	0.17471
1014.47160	0.17367
1013.18584	0.17229
1011.90007	0.17058
1010.61430	0.16863
1009.32853	0.16652
1008.04276	0.16425
1006.75699	0.16173
1005.47122	0.15887
1004.18545	0.15567
1002.89968	0.15224
1001.61392	0.14868
1000.32815	0.14504
999.04238	0.14132
997.75661	0.13752
996.47084	0.13364
995.18507	0.12964
993.89930	0.12550
992.61353	0.12128
991.32777	0.11710
990.04200	0.11306
988.75623	0.10919
987.47046	0.10545
986.18469	0.10177
984.89892	0.09816
983.61315	0.09467
982.32738	0.09139
981.04161	0.08833
979.75585	0.08548
978.47008	0.08277
977.18431	0.08023
975.89854	0.07789
974.61277	0.07579
973.32700	0.07393
972.04123	0.07230
970.75546	0.07097
969.46970	0.07004
968.18393	0.06956
966.89816	0.06946
965.61239	0.06963
964.32662	0.06997
963.04085	0.07039
961.75508	0.07076
960.46931	0.07094
959.18354	0.07078
957.89778	0.07024
956.61201	0.06933
955.32624	0.06809
954.04047	0.06660
952.75470	0.06498
951.46893	0.06336
950.18316	0.06179
948.89739	0.06027
947.61163	0.05877
946.32586	0.05730
945.04009	0.05587
943.75432	0.05449
942.46855	0.05315
941.18278	0.05186
939.89701	0.05064
938.61124	0.04952
937.32547	0.04849
936.03971	0.04749
934.75394	0.04648
933.46817	0.04547
932.18240	0.04450
930.89663	0.04361
929.61086	0.04281
928.32509	0.04208
927.03932	0.04143
925.75356	0.04085
924.46779	0.04035
923.18202	0.03991
921.89625	0.03947
920.61048	0.03896
919.32471	0.03839
918.03894	0.03783
916.75317	0.03737
915.46740	0.03703
914.18164	0.03676
912.89587	0.03648
911.61010	0.03618
910.32433	0.03586
909.03856	0.03556
907.75279	0.03526
906.46702	0.03485
905.18125	0.03432
903.89549	0.03375
902.60972	0.03331
901.32395	0.03306
900.03818	0.03293
898.75241	0.03280
897.46664	0.03263
896.18087	0.03241
894.89510	0.03217
893.60933	0.03195
892.32357	0.03181
891.03780	0.03181
889.75203	0.03195
888.46626	0.03221
887.18049	0.03259
885.89472	0.03315
884.60895	0.03402
883.32318	0.03531
882.03742	0.03702
880.75165	0.03887
879.46588	0.04050
878.18011	0.04172
876.89434	0.04259
875.60857	0.04332
874.32280	0.04402
873.03703	0.04465
871.75126	0.04508
870.46550	0.04517
869.17973	0.04480
867.89396	0.04395
866.60819	0.04273
865.32242	0.04132
864.03665	0.03985
862.75088	0.03844
861.46511	0.03716
860.17935	0.03603
858.89358	0.03500
857.60781	0.03401
856.32204	0.03306
855.03627	0.03224
853.75050	0.03159
852.46473	0.03110
851.17896	0.03068
849.89319	0.03029
848.60743	0.02996
847.32166	0.02969
846.03589	0.02943
844.75012	0.02915
843.46435	0.02884
842.17858	0.02853
840.89281	0.02828
839.60704	0.02812
838.32128	0.02805
837.03551	0.02803
835.74974	0.02801
834.46397	0.02798
833.17820	0.02794
831.89243	0.02787
830.60666	0.02776
829.32089	0.02762
828.03512	0.02749
826.74936	0.02739
825.46359	0.02731
824.17782	0.02722
822.89205	0.02713
821.60628	0.02702
820.32051	0.02694
819.03474	0.02689
817.74897	0.02687
816.46321	0.02685
815.17744	0.02681
813.89167	0.02680
812.60590	0.02683
811.32013	0.02682
810.03436	0.02673
808.74859	0.02659
807.46282	0.02650
806.17705	0.02651
804.89129	0.02660
803.60552	0.02674
802.31975	0.02691
801.03398	0.02706
799.74821	0.02714
798.46244	0.02710
797.17667	0.02697
795.89090	0.02682
794.60513	0.02674
793.31937	0.02675
792.03360	0.02681
790.74783	0.02684
789.46206	0.02682
788.17629	0.02674
786.89052	0.02665
785.60475	0.02658
784.31898	0.02657
783.03322	0.02661
781.74745	0.02666
780.46168	0.02668
779.17591	0.02668
777.89014	0.02670
776.60437	0.02677
775.31860	0.02684
774.03283	0.02689
772.74706	0.02693
771.46130	0.02703
770.17553	0.02715
768.88976	0.02721
767.60399	0.02715
766.31822	0.02699
765.03245	0.02681
763.74668	0.02667
762.46091	0.02660
761.17515	0.02658
759.88938	0.02666
758.60361	0.02684
757.31784	0.02707
756.03207	0.02725
754.74630	0.02733
753.46053	0.02728
752.17476	0.02717
750.88899	0.02702
749.60323	0.02691
748.31746	0.02686
747.03169	0.02686
745.74592	0.02688
744.46015	0.02690
743.17438	0.02692
741.88861	0.02693
740.60284	0.02694
739.31708	0.02695
738.03131	0.02702
736.74554	0.02716
735.45977	0.02732
734.17400	0.02741
732.88823	0.02739
731.60246	0.02731
730.31669	0.02724
729.03092	0.02724
727.74516	0.02732
726.45939	0.02743
725.17362	0.02748
723.88785	0.02743
722.60208	0.02732
721.31631	0.02722
720.03054	0.02714
718.74477	0.02706
717.45901	0.02695
716.17324	0.02682
714.88747	0.02672
713.60170	0.02673
712.31593	0.02688
711.03016	0.02712
709.74439	0.02736
708.45862	0.02757
707.17285	0.02773
705.88709	0.02785
704.60132	0.02793
703.31555	0.02795
702.02978	0.02791
700.74401	0.02784
699.45824	0.02775
698.17247	0.02769
696.88670	0.02768
695.60094	0.02772
694.31517	0.02778
693.02940	0.02784
691.74363	0.02788
690.45786	0.02789
689.17209	0.02782
687.88632	0.02771
686.60055	0.02759
685.31478	0.02750
684.02902	0.02748
682.74325	0.02748
681.45748	0.02751
680.17171	0.02752
678.88594	0.02750
677.60017	0.02747
676.31440	0.02741
675.02863	0.02738
673.74287	0.02740
672.45710	0.02746
671.17133	0.02754
669.88556	0.02764
668.59979	0.02773
667.31402	0.02781
666.02825	0.02782
664.74248	0.02773
663.45671	0.02757
662.17095	0.02739
660.88518	0.02723
659.59941	0.02711
658.31364	0.02703
657.02787	0.02699
655.74210	0.02696
654.45633	0.02690
653.17056	0.02684
651.88480	0.02677
650.59903	0.02672
649.31326	0.02671
648.02749	0.02678
646.74172	0.02689
645.45595	0.02698
644.17018	0.02697
642.88441	0.02691
641.59864	0.02688
640.31288	0.02695
639.02711	0.02709
637.74134	0.02723
636.45557	0.02737
635.16980	0.02752
633.88403	0.02771
632.59826	0.02793
631.31249	0.02816
630.02673	0.02835
628.74096	0.02849
627.45519	0.02870
626.16942	0.02899
624.88365	0.02946
623.59788	0.03011
622.31211	0.03084
621.02634	0.03168
619.74057	0.03284
618.45481	0.03464
617.16904	0.03730
615.88327	0.04082
614.59750	0.04474
613.31173	0.04834
612.02596	0.05108
610.74019	0.05292
609.45442	0.05438
608.16866	0.05632
606.88289	0.05931
605.59712	0.06311
604.31135	0.06682
603.02558	0.06948
601.73981	0.07075
600.45404	0.07092
599.16827	0.07040
597.88250	0.06940
596.59674	0.06800
595.31097	0.06640
594.02520	0.06491
592.73943	0.06374
591.45366	0.06291
590.16789	0.06233
588.88212	0.06192
587.59635	0.06176
586.31059	0.06198
585.02482	0.06267
583.73905	0.06379
582.45328	0.06520
581.16751	0.06676
579.88174	0.06842
578.59597	0.07016
577.31020	0.07196
576.02443	0.07377
574.73867	0.07554
573.45290	0.07729
572.16713	0.07907
570.88136	0.08092
569.59559	0.08290
568.30982	0.08515
567.02405	0.08774
565.73828	0.09060
564.45251	0.09339
563.16675	0.09567
561.88098	0.09708
560.59521	0.09737
559.30944	0.09641
558.02367	0.09424
556.73790	0.09108
555.45213	0.08731
554.16636	0.08334
552.88060	0.07946
551.59483	0.07577
550.30906	0.07229
549.02329	0.06905
547.73752	0.06605
546.45175	0.06326
545.16598	0.06062
543.88021	0.05815
542.59444	0.05587
541.30868	0.05385
540.02291	0.05212
538.73714	0.05066
537.45137	0.04940
536.16560	0.04825
534.87983	0.04717
533.59406	0.04619
532.30829	0.04530
531.02253	0.04444
529.73676	0.04355
528.45099	0.04268
527.16522	0.04188
525.87945	0.04115
524.59368	0.04039
523.30791	0.03956
522.02214	0.03873
520.73637	0.03800
519.45061	0.03740
518.16484	0.03690
516.87907	0.03641
515.59330	0.03586
514.30753	0.03523
513.02176	0.03458
511.73599	0.03400
510.45022	0.03356
509.16446	0.03325
507.87869	0.03294
506.59292	0.03258
505.30715	0.03219
504.02138	0.03181
502.73561	0.03141
501.44984	0.03093
500.16407	0.03041
498.87830	0.02990
497.59254	0.02945
496.30677	0.02903
495.02100	0.02863
493.73523	0.02827
492.44946	0.02804
491.16369	0.02794
489.87792	0.02793
488.59215	0.02793
487.30639	0.02790
486.02062	0.02782
484.73485	0.02771
483.44908	0.02761
482.16331	0.02753
480.87754	0.02749
479.59177	0.02749
478.30600	0.02750
477.02023	0.02746
475.73447	0.02735
474.44870	0.02723
473.16293	0.02722
471.87716	0.02732
470.59139	0.02741
469.30562	0.02736
468.01985	0.02717
466.73408	0.02692
465.44832	0.02669
464.16255	0.02650
462.87678	0.02630
461.59101	0.02601
460.30524	0.02563
459.01947	0.02520
457.73370	0.02483
456.44793	0.02454
455.16216	0.02433
453.87640	0.02415
452.59063	0.02398
451.30486	0.02380
450.01909	0.02359
448.73332	0.02335
447.44755	0.02309
446.16178	0.02287
444.87601	0.02277
443.59025	0.02276
442.30448	0.02275
441.01871	0.02266
439.73294	0.02248
438.44717	0.02225
437.16140	0.02200
435.87563	0.02177
434.58986	0.02157
433.30409	0.02145
432.01833	0.02143
430.73256	0.02150
429.44679	0.02156
428.16102	0.02155
426.87525	0.02145
425.58948	0.02128
424.30371	0.02109
423.01794	0.02093
421.73218	0.02081
420.44641	0.02074
419.16064	0.02069
417.87487	0.02061
416.58910	0.02045
415.30333	0.02022
414.01756	0.01999
412.73179	0.01984
411.44602	0.01979
410.16026	0.01981
408.87449	0.01983
407.58872	0.01984
406.30295	0.01982
405.01718	0.01978
403.73141	0.01970
402.44564	0.01965
401.15987	0.01968
399.87411	0.01978
