3997.45528	0.04151
3996.16951	0.04129
3994.88374	0.04126
3993.59798	0.04152
3992.31221	0.04203
3991.02644	0.04259
3989.74067	0.04293
3988.45490	0.04282
3987.16913	0.04230
3985.88336	0.04169
3984.59759	0.04130
3983.31183	0.04113
3982.02606	0.04100
3980.74029	0.04084
3979.45452	0.04084
3978.16875	0.04118
3976.88298	0.04176
3975.59721	0.04227
3974.31144	0.04242
3973.02567	0.04223
3971.73991	0.04193
3970.45414	0.04172
3969.16837	0.04162
3967.88260	0.04157
3966.59683	0.04153
3965.31106	0.04151
3964.02529	0.04155
3962.73952	0.04174
3961.45376	0.04221
3960.16799	0.04296
3958.88222	0.04360
3957.59645	0.04361
3956.31068	0.04273
3955.02491	0.04134
3953.73914	0.04012
3952.45337	0.03955
3951.16760	0.03965
3949.88184	0.04020
3948.59607	0.04096
3947.31030	0.04172
3946.02453	0.04220
3944.73876	0.04228
3943.45299	0.04214
3942.16722	0.04208
3940.88145	0.04212
3939.59569	0.04195
3938.30992	0.04144
3937.02415	0.04089
3935.73838	0.04063
3934.45261	0.04059
3933.16684	0.04045
3931.88107	0.04010
3930.59530	0.03980
3929.30953	0.03988
3928.02377	0.04032
3926.73800	0.04082
3925.45223	0.04113
3924.16646	0.04120
3922.88069	0.04106
3921.59492	0.04071
3920.30915	0.04025
3919.02338	0.04000
3917.73762	0.04026
3916.45185	0.04097
3915.16608	0.04173
3913.88031	0.04213
3912.59454	0.04204
3911.30877	0.04160
3910.02300	0.04101
3908.73723	0.04049
3907.45146	0.04027
3906.16570	0.04051
3904.87993	0.04112
3903.59416	0.04177
3902.30839	0.04208
3901.02262	0.04196
3899.73685	0.04166
3898.45108	0.04146
3897.16531	0.04145
3895.87955	0.04157
3894.59378	0.04163
3893.30801	0.04147
3892.02224	0.04108
3890.73647	0.04074
3889.45070	0.04066
3888.16493	0.04065
3886.87916	0.04034
3885.59339	0.03972
3884.30763	0.03914
3883.02186	0.03883
3881.73609	0.03869
3880.45032	0.03855
3879.16455	0.03847
3877.87878	0.03867
3876.59301	0.03923
3875.30724	0.04013
3874.02148	0.04128
3872.73571	0.04244
3871.44994	0.04327
3870.16417	0.04355
3868.87840	0.04335
3867.59263	0.04280
3866.30686	0.04202
3865.02109	0.04116
3863.73532	0.04057
3862.44956	0.04058
3861.16379	0.04103
3859.87802	0.04139
3858.59225	0.04120
3857.30648	0.04048
3856.02071	0.03974
3854.73494	0.03955
3853.44917	0.04014
3852.16341	0.04108
3850.87764	0.04164
3849.59187	0.04132
3848.30610	0.04033
3847.02033	0.03935
3845.73456	0.03891
3844.44879	0.03899
3843.16302	0.03918
3841.87725	0.03920
3840.59149	0.03907
3839.30572	0.03895
3838.01995	0.03891
3836.73418	0.03894
3835.44841	0.03907
3834.16264	0.03943
3832.87687	0.04004
3831.59110	0.04068
3830.30534	0.04103
3829.01957	0.04091
3827.73380	0.04041
3826.44803	0.03971
3825.16226	0.03890
3823.87649	0.03805
3822.59072	0.03734
3821.30495	0.03701
3820.01918	0.03706
3818.73342	0.03725
3817.44765	0.03743
3816.16188	0.03767
3814.87611	0.03802
3813.59034	0.03837
3812.30457	0.03848
3811.01880	0.03823
3809.73303	0.03774
3808.44726	0.03723
3807.16150	0.03690
3805.87573	0.03677
3804.58996	0.03676
3803.30419	0.03684
3802.01842	0.03701
3800.73265	0.03722
3799.44688	0.03736
3798.16111	0.03749
3796.87535	0.03789
3795.58958	0.03868
3794.30381	0.03962
3793.01804	0.04034
3791.73227	0.04064
3790.44650	0.04059
3789.16073	0.04031
3787.87496	0.03997
3786.58919	0.03974
3785.30343	0.03967
3784.01766	0.03969
3782.73189	0.03967
3781.44612	0.03951
3780.16035	0.03909
3778.87458	0.03841
3777.58881	0.03764
3776.30304	0.03700
3775.01728	0.03659
3773.73151	0.03632
3772.44574	0.03610
3771.15997	0.03600
3769.87420	0.03614
3768.58843	0.03658
3767.30266	0.03710
3766.01689	0.03738
3764.73112	0.03732
3763.44536	0.03725
3762.15959	0.03761
3760.87382	0.03839
3759.58805	0.03909
3758.30228	0.03910
3757.01651	0.03830
3755.73074	0.03700
3754.44497	0.03564
3753.15921	0.03448
3751.87344	0.03367
3750.58767	0.03341
3749.30190	0.03388
3748.01613	0.03497
3746.73036	0.03621
3745.44459	0.03708
3744.15882	0.03737
3742.87305	0.03724
3741.58729	0.03696
3740.30152	0.03668
3739.01575	0.03635
3737.72998	0.03594
3736.44421	0.03560
3735.15844	0.03560
3733.87267	0.03607
3732.58690	0.03685
3731.30114	0.03760
3730.01537	0.03804
3728.72960	0.03821
3727.44383	0.03835
3726.15806	0.03859
3724.87229	0.03876
3723.58652	0.03864
3722.30075	0.03821
3721.01498	0.03769
3719.72922	0.03725
3718.44345	0.03687
3717.15768	0.03653
3715.87191	0.03627
3714.58614	0.03610
3713.30037	0.03593
3712.01460	0.03568
3710.72883	0.03544
3709.44307	0.03539
3708.15730	0.03562
3706.87153	0.03603
3705.58576	0.03647
3704.29999	0.03684
3703.01422	0.03714
3701.72845	0.03740
3700.44268	0.03746
3699.15691	0.03710
3697.87115	0.03638
3696.58538	0.03575
3695.29961	0.03558
3694.01384	0.03587
3692.72807	0.03623
3691.44230	0.03619
3690.15653	0.03571
3688.87076	0.03521
3687.58500	0.03507
3686.29923	0.03523
3685.01346	0.03538
3683.72769	0.03530
3682.44192	0.03504
3681.15615	0.03491
3679.87038	0.03515
3678.58461	0.03568
3677.29884	0.03613
3676.01308	0.03611
3674.72731	0.03552
3673.44154	0.03472
3672.15577	0.03416
3670.87000	0.03409
3669.58423	0.03438
3668.29846	0.03480
3667.01269	0.03524
3665.72693	0.03571
3664.44116	0.03613
3663.15539	0.03639
3661.86962	0.03652
3660.58385	0.03676
3659.29808	0.03726
3658.01231	0.03778
3656.72654	0.03792
3655.44077	0.03756
3654.15501	0.03709
3652.86924	0.03696
3651.58347	0.03736
3650.29770	0.03807
3649.01193	0.03879
3647.72616	0.03938
3646.44039	0.03987
3645.15462	0.04025
3643.86886	0.04039
3642.58309	0.04025
3641.29732	0.04001
3640.01155	0.03998
3638.72578	0.04030
3637.44001	0.04082
3636.15424	0.04128
3634.86847	0.04148
3633.58270	0.04138
3632.29694	0.04107
3631.01117	0.04069
3629.72540	0.04037
3628.43963	0.04021
3627.15386	0.04020
3625.86809	0.04027
3624.58232	0.04035
3623.29655	0.04046
3622.01079	0.04084
3620.72502	0.04174
3619.43925	0.04315
3618.15348	0.04454
3616.86771	0.04526
3615.58194	0.04515
3614.29617	0.04467
3613.01040	0.04439
3611.72463	0.04450
3610.43887	0.04480
3609.15310	0.04507
3607.86733	0.04527
3606.58156	0.04543
3605.29579	0.04556
3604.01002	0.04559
3602.72425	0.04562
3601.43848	0.04591
3600.15272	0.04660
3598.86695	0.04742
3597.58118	0.04793
3596.29541	0.04801
3595.00964	0.04789
3593.72387	0.04787
3592.43810	0.04806
3591.15233	0.04846
3589.86656	0.04905
3588.58080	0.04972
3587.29503	0.05025
3586.00926	0.05040
3584.72349	0.05014
3583.43772	0.04969
3582.15195	0.04930
3580.86618	0.04916
3579.58041	0.04942
3578.29464	0.05005
3577.00888	0.05078
3575.72311	0.05130
3574.43734	0.05155
3573.15157	0.05164
3571.86580	0.05169
3570.58003	0.05173
3569.29426	0.05188
3568.00849	0.05222
3566.72273	0.05269
3565.43696	0.05312
3564.15119	0.05339
3562.86542	0.05350
3561.57965	0.05348
3560.29388	0.05335
3559.00811	0.05318
3557.72234	0.05313
3556.43657	0.05329
3555.15081	0.05363
3553.86504	0.05400
3552.57927	0.05413
3551.29350	0.05391
3550.00773	0.05350
3548.72196	0.05334
3547.43619	0.05378
3546.15042	0.05476
3544.86466	0.05596
3543.57889	0.05700
3542.29312	0.05764
3541.00735	0.05776
3539.72158	0.05744
3538.43581	0.05697
3537.15004	0.05675
3535.86427	0.05700
3534.57850	0.05759
3533.29274	0.05822
3532.00697	0.05869
3530.72120	0.05898
3529.43543	0.05908
3528.14966	0.05902
3526.86389	0.05891
3525.57812	0.05892
3524.29235	0.05919
3523.00659	0.05972
3521.72082	0.06041
3520.43505	0.06106
3519.14928	0.06151
3517.86351	0.06166
3516.57774	0.06161
3515.29197	0.06162
3514.00620	0.06182
3512.72043	0.06212
3511.43467	0.06228
3510.14890	0.06215
3508.86313	0.06179
3507.57736	0.06131
3506.29159	0.06086
3505.00582	0.06061
3503.72005	0.06079
3502.43428	0.06149
3501.14852	0.06261
3499.86275	0.06379
3498.57698	0.06455
3497.29121	0.06454
3496.00544	0.06386
3494.71967	0.06305
3493.43390	0.06271
3492.14813	0.06307
3490.86236	0.06388
3489.57660	0.06475
3488.29083	0.06552
3487.00506	0.06623
3485.71929	0.06682
3484.43352	0.06714
3483.14775	0.06712
3481.86198	0.06695
3480.57621	0.06685
3479.29045	0.06689
3478.00468	0.06703
3476.71891	0.06719
3475.43314	0.06731
3474.14737	0.06735
3472.86160	0.06737
3471.57583	0.06745
3470.29006	0.06758
3469.00429	0.06774
3467.71853	0.06798
3466.43276	0.06823
3465.14699	0.06836
3463.86122	0.06836
3462.57545	0.06843
3461.28968	0.06870
3460.00391	0.06903
3458.71814	0.06925
3457.43238	0.06941
3456.14661	0.06968
3454.86084	0.07000
3453.57507	0.07011
3452.28930	0.06989
3451.00353	0.06953
3449.71776	0.06939
3448.43199	0.06966
3447.14622	0.07022
3445.86046	0.07077
3444.57469	0.07106
3443.28892	0.07105
3442.00315	0.07081
3440.71738	0.07052
3439.43161	0.07033
3438.14584	0.07030
3436.86007	0.07036
3435.57431	0.07043
3434.28854	0.07052
3433.00277	0.07075
3431.71700	0.07119
3430.43123	0.07176
3429.14546	0.07229
3427.85969	0.07265
3426.57392	0.07286
3425.28815	0.07297
3424.00239	0.07307
3422.71662	0.07323
3421.43085	0.07355
3420.14508	0.07397
3418.85931	0.07428
3417.57354	0.07425
3416.28777	0.07385
3415.00200	0.07333
3413.71624	0.07298
3412.43047	0.07295
3411.14470	0.07322
3409.85893	0.07366
3408.57316	0.07412
3407.28739	0.07443
3406.00162	0.07444
3404.71585	0.07424
3403.43008	0.07409
3402.14432	0.07420
3400.85855	0.07459
3399.57278	0.07508
3398.28701	0.07546
3397.00124	0.07571
3395.71547	0.07592
3394.42970	0.07617
3393.14393	0.07637
3391.85817	0.07633
3390.57240	0.07603
3389.28663	0.07569
3388.00086	0.07555
3386.71509	0.07565
3385.42932	0.07587
3384.14355	0.07614
3382.85778	0.07651
3381.57201	0.07698
3380.28625	0.07735
3379.00048	0.07734
3377.71471	0.07686
3376.42894	0.07620
3375.14317	0.07579
3373.85740	0.07586
3372.57163	0.07628
3371.28586	0.07679
3370.00010	0.07719
3368.71433	0.07741
3367.42856	0.07740
3366.14279	0.07714
3364.85702	0.07674
3363.57125	0.07647
3362.28548	0.07650
3360.99971	0.07673
3359.71394	0.07695
3358.42818	0.07708
3357.14241	0.07720
3355.85664	0.07736
3354.57087	0.07755
3353.28510	0.07772
3351.99933	0.07790
3350.71356	0.07807
3349.42779	0.07819
3348.14202	0.07819
3346.85626	0.07802
3345.57049	0.07766
3344.28472	0.07716
3342.99895	0.07667
3341.71318	0.07638
3340.42741	0.07637
3339.14164	0.07656
3337.85587	0.07678
3336.57011	0.07689
3335.28434	0.07686
3333.99857	0.07667
3332.71280	0.07642
3331.42703	0.07630
3330.14126	0.07647
3328.85549	0.07681
3327.56972	0.07703
3326.28395	0.07694
3324.99819	0.07657
3323.71242	0.07608
3322.42665	0.07560
3321.14088	0.07530
3319.85511	0.07527
3318.56934	0.07551
3317.28357	0.07592
3315.99780	0.07639
3314.71204	0.07692
3313.42627	0.07746
3312.14050	0.07792
3310.85473	0.07810
3309.56896	0.07792
3308.28319	0.07739
3306.99742	0.07666
3305.71165	0.07594
3304.42588	0.07542
3303.14012	0.07521
3301.85435	0.07525
3300.56858	0.07540
3299.28281	0.07559
3297.99704	0.07587
3296.71127	0.07625
3295.42550	0.07663
3294.13973	0.07682
3292.85397	0.07674
3291.56820	0.07645
3290.28243	0.07613
3288.99666	0.07585
3287.71089	0.07560
3286.42512	0.07527
3285.13935	0.07492
3283.85358	0.07467
3282.56781	0.07460
3281.28205	0.07465
3279.99628	0.07470
3278.71051	0.07466
3277.42474	0.07448
3276.13897	0.07419
3274.85320	0.07393
3273.56743	0.07391
3272.28166	0.07423
3270.99590	0.07474
3269.71013	0.07518
3268.42436	0.07536
3267.13859	0.07528
3265.85282	0.07511
3264.56705	0.07501
3263.28128	0.07503
3261.99551	0.07510
3260.70974	0.07520
3259.42398	0.07541
3258.13821	0.07574
3256.85244	0.07602
3255.56667	0.07596
3254.28090	0.07556
3252.99513	0.07509
3251.70936	0.07489
3250.42359	0.07494
3249.13783	0.07503
3247.85206	0.07493
3246.56629	0.07470
3245.28052	0.07450
3243.99475	0.07448
3242.70898	0.07464
3241.42321	0.07486
3240.13744	0.07495
3238.85167	0.07479
3237.56591	0.07441
3236.28014	0.07398
3234.99437	0.07374
3233.70860	0.07380
3232.42283	0.07406
3231.13706	0.07428
3229.85129	0.07431
3228.56552	0.07423
3227.27976	0.07420
3225.99399	0.07418
3224.70822	0.07402
3223.42245	0.07366
3222.13668	0.07324
3220.85091	0.07291
3219.56514	0.07268
3218.27937	0.07246
3216.99360	0.07224
3215.70784	0.07211
3214.42207	0.07213
3213.13630	0.07228
3211.85053	0.07246
3210.56476	0.07260
3209.27899	0.07269
3207.99322	0.07280
3206.70745	0.07300
3205.42169	0.07325
3204.13592	0.07350
3202.85015	0.07367
3201.56438	0.07371
3200.27861	0.07359
3198.99284	0.07329
3197.70707	0.07286
3196.42130	0.07241
3195.13553	0.07203
3193.84977	0.07171
3192.56400	0.07141
3191.27823	0.07116
3189.99246	0.07112
3188.70669	0.07139
3187.42092	0.07180
3186.13515	0.07201
3184.84938	0.07183
3183.56362	0.07140
3182.27785	0.07102
3180.99208	0.07088
3179.70631	0.07090
3178.42054	0.07083
3177.13477	0.07051
3175.84900	0.07001
3174.56323	0.06961
3173.27746	0.06958
3171.99170	0.06997
3170.70593	0.07062
3169.42016	0.07121
3168.13439	0.07145
3166.84862	0.07124
3165.56285	0.07071
3164.27708	0.07006
3162.99131	0.06953
3161.70555	0.06931
3160.41978	0.06943
3159.13401	0.06973
3157.84824	0.06995
3156.56247	0.07000
3155.27670	0.06998
3153.99093	0.06997
3152.70516	0.06992
3151.41939	0.06973
3150.13363	0.06938
3148.84786	0.06898
3147.56209	0.06863
3146.27632	0.06835
3144.99055	0.06806
3143.70478	0.06768
3142.41901	0.06726
3141.13324	0.06699
3139.84748	0.06707
3138.56171	0.06752
3137.27594	0.06815
3135.99017	0.06866
3134.70440	0.06883
3133.41863	0.06861
3132.13286	0.06818
3130.84709	0.06779
3129.56132	0.06762
3128.27556	0.06758
3126.98979	0.06744
3125.70402	0.06709
3124.41825	0.06661
3123.13248	0.06617
3121.84671	0.06593
3120.56094	0.06590
3119.27517	0.06604
3117.98940	0.06634
3116.70364	0.06671
3115.41787	0.06696
3114.13210	0.06684
3112.84633	0.06633
3111.56056	0.06570
3110.27479	0.06529
3108.98902	0.06521
3107.70325	0.06535
3106.41749	0.06551
3105.13172	0.06564
3103.84595	0.06579
3102.56018	0.06600
3101.27441	0.06619
3099.98864	0.06621
3098.70287	0.06597
3097.41710	0.06558
3096.13133	0.06528
3094.84557	0.06523
3093.55980	0.06528
3092.27403	0.06517
3090.98826	0.06477
3089.70249	0.06428
3088.41672	0.06400
3087.13095	0.06405
3085.84518	0.06423
3084.55942	0.06429
3083.27365	0.06418
3081.98788	0.06407
3080.70211	0.06407
3079.41634	0.06405
3078.13057	0.06378
3076.84480	0.06324
3075.55903	0.06269
3074.27326	0.06241
3072.98750	0.06242
3071.70173	0.06255
3070.41596	0.06262
3069.13019	0.06258
3067.84442	0.06247
3066.55865	0.06233
3065.27288	0.06224
3063.98711	0.06227
3062.70135	0.06244
3061.41558	0.06260
3060.12981	0.06260
3058.84404	0.06238
3057.55827	0.06201
3056.27250	0.06155
3054.98673	0.06107
3053.70096	0.06064
3052.41519	0.06045
3051.12943	0.06060
3049.84366	0.06098
3048.55789	0.06138
3047.27212	0.06161
3045.98635	0.06167
3044.70058	0.06162
3043.41481	0.06142
3042.12904	0.06105
3040.84328	0.06058
3039.55751	0.06021
3038.27174	0.06005
3036.98597	0.06001
3035.70020	0.05994
3034.41443	0.05984
3033.12866	0.05974
3031.84289	0.05961
3030.55712	0.05939
3029.27136	0.05908
3027.98559	0.05883
3026.69982	0.05876
3025.41405	0.05879
3024.12828	0.05873
3022.84251	0.05845
3021.55674	0.05801
3020.27097	0.05753
3018.98521	0.05723
3017.69944	0.05721
3016.41367	0.05745
3015.12790	0.05776
3013.84213	0.05797
3012.55636	0.05801
3011.27059	0.05790
3009.98482	0.05773
3008.69905	0.05761
3007.41329	0.05767
3006.12752	0.05795
3004.84175	0.05832
3003.55598	0.05859
3002.27021	0.05860
3000.98444	0.05836
2999.69867	0.05796
2998.41290	0.05757
2997.12714	0.05728
2995.84137	0.05704
2994.55560	0.05672
2993.26983	0.05633
2991.98406	0.05602
2990.69829	0.05592
2989.41252	0.05605
2988.12675	0.05628
2986.84098	0.05644
2985.55522	0.05646
2984.26945	0.05646
2982.98368	0.05665
2981.69791	0.05719
2980.41214	0.05799
2979.12637	0.05877
2977.84060	0.05929
2976.55483	0.05955
2975.26907	0.05966
2973.98330	0.05980
2972.69753	0.06003
2971.41176	0.06035
2970.12599	0.06066
2968.84022	0.06087
2967.55445	0.06103
2966.26868	0.06136
2964.98291	0.06193
2963.69715	0.06262
2962.41138	0.06325
2961.12561	0.06375
2959.83984	0.06420
2958.55407	0.06472
2957.26830	0.06533
2955.98253	0.06600
2954.69676	0.06661
2953.41100	0.06703
2952.12523	0.06720
2950.83946	0.06714
2949.55369	0.06697
2948.26792	0.06680
2946.98215	0.06666
2945.69638	0.06640
2944.41061	0.06597
2943.12484	0.06548
2941.83908	0.06522
2940.55331	0.06531
2939.26754	0.06568
2937.98177	0.06614
2936.69600	0.06663
2935.41023	0.06718
2934.12446	0.06781
2932.83869	0.06843
2931.55293	0.06890
2930.26716	0.06919
2928.98139	0.06932
2927.69562	0.06942
2926.40985	0.06953
2925.12408	0.06958
2923.83831	0.06950
2922.55254	0.06924
2921.26677	0.06882
2919.98101	0.06833
2918.69524	0.06791
2917.40947	0.06767
2916.12370	0.06754
2914.83793	0.06730
2913.55216	0.06687
2912.26639	0.06633
2910.98062	0.06581
2909.69486	0.06534
2908.40909	0.06494
2907.12332	0.06461
2905.83755	0.06433
2904.55178	0.06396
2903.26601	0.06344
2901.98024	0.06282
2900.69447	0.06226
2899.40870	0.06187
2898.12294	0.06161
2896.83717	0.06140
2895.55140	0.06118
2894.26563	0.06088
2892.97986	0.06046
2891.69409	0.05995
2890.40832	0.05949
2889.12255	0.05918
2887.83678	0.05900
2886.55102	0.05883
2885.26525	0.05863
2883.97948	0.05850
2882.69371	0.05853
2881.40794	0.05871
2880.12217	0.05888
2878.83640	0.05894
2877.55063	0.05892
2876.26487	0.05888
2874.97910	0.05884
2873.69333	0.05877
2872.40756	0.05870
2871.12179	0.05873
2869.83602	0.05888
2868.55025	0.05909
2867.26448	0.05927
2865.97871	0.05935
2864.69295	0.05930
2863.40718	0.05908
2862.12141	0.05876
2860.83564	0.05849
2859.54987	0.05836
2858.26410	0.05832
2856.97833	0.05822
2855.69256	0.05801
2854.40680	0.05768
2853.12103	0.05730
2851.83526	0.05691
2850.54949	0.05653
2849.26372	0.05616
2847.97795	0.05581
2846.69218	0.05539
2845.40641	0.05487
2844.12064	0.05434
2842.83488	0.05397
2841.54911	0.05381
2840.26334	0.05369
2838.97757	0.05339
2837.69180	0.05280
2836.40603	0.05200
2835.12026	0.05113
2833.83449	0.05033
2832.54873	0.04972
2831.26296	0.04936
2829.97719	0.04920
2828.69142	0.04910
2827.40565	0.04896
2826.11988	0.04876
2824.83411	0.04858
2823.54834	0.04843
2822.26257	0.04824
2820.97681	0.04796
2819.69104	0.04764
2818.40527	0.04734
2817.11950	0.04707
2815.83373	0.04680
2814.54796	0.04652
2813.26219	0.04631
2811.97642	0.04618
2810.69066	0.04613
2809.40489	0.04613
2808.11912	0.04610
2806.83335	0.04600
2805.54758	0.04581
2804.26181	0.04560
2802.97604	0.04546
2801.69027	0.04540
2800.40450	0.04537
2799.11874	0.04534
2797.83297	0.04533
2796.54720	0.04537
2795.26143	0.04545
2793.97566	0.04554
2792.68989	0.04556
2791.40412	0.04549
2790.11835	0.04537
2788.83259	0.04528
2787.54682	0.04525
2786.26105	0.04518
2784.97528	0.04494
2783.68951	0.04457
2782.40374	0.04427
2781.11797	0.04416
2779.83220	0.04413
2778.54643	0.04401
2777.26067	0.04378
2775.97490	0.04361
2774.68913	0.04359
2773.40336	0.04367
2772.11759	0.04372
2770.83182	0.04365
2769.54605	0.04345
2768.26028	0.04315
2766.97452	0.04288
2765.68875	0.04281
2764.40298	0.04300
2763.11721	0.04331
2761.83144	0.04347
2760.54567	0.04336
2759.25990	0.04306
2757.97413	0.04279
2756.68836	0.04266
2755.40260	0.04259
2754.11683	0.04249
2752.83106	0.04229
2751.54529	0.04204
2750.25952	0.04185
2748.97375	0.04182
2747.68798	0.04197
2746.40221	0.04221
2745.11645	0.04240
2743.83068	0.04245
2742.54491	0.04235
2741.25914	0.04214
2739.97337	0.04185
2738.68760	0.04155
2737.40183	0.04134
2736.11606	0.04132
2734.83029	0.04145
2733.54453	0.04157
2732.25876	0.04160
2730.97299	0.04157
2729.68722	0.04155
2728.40145	0.04152
2727.11568	0.04142
2725.82991	0.04121
2724.54414	0.04091
2723.25838	0.04059
2721.97261	0.04034
2720.68684	0.04017
2719.40107	0.04000
2718.11530	0.03981
2716.82953	0.03972
2715.54376	0.03981
2714.25799	0.04000
2712.97222	0.04015
2711.68646	0.04022
2710.40069	0.04028
2709.11492	0.04033
2707.82915	0.04027
2706.54338	0.04005
2705.25761	0.03977
2703.97184	0.03961
2702.68607	0.03970
2701.40031	0.03997
2700.11454	0.04024
2698.82877	0.04036
2697.54300	0.04030
2696.25723	0.04022
2694.97146	0.04018
2693.68569	0.04010
2692.39992	0.03984
2691.11415	0.03944
2689.82839	0.03908
2688.54262	0.03896
2687.25685	0.03901
2685.97108	0.03908
2684.68531	0.03910
2683.39954	0.03912
2682.11377	0.03916
2680.82800	0.03916
2679.54224	0.03904
2678.25647	0.03885
2676.97070	0.03868
2675.68493	0.03858
2674.39916	0.03852
2673.11339	0.03845
2671.82762	0.03834
2670.54185	0.03821
2669.25608	0.03813
2667.97032	0.03811
2666.68455	0.03816
2665.39878	0.03826
2664.11301	0.03843
2662.82724	0.03863
2661.54147	0.03876
2660.25570	0.03871
2658.96993	0.03850
2657.68417	0.03825
2656.39840	0.03809
2655.11263	0.03802
2653.82686	0.03797
2652.54109	0.03786
2651.25532	0.03770
2649.96955	0.03754
2648.68378	0.03747
2647.39801	0.03744
2646.11225	0.03732
2644.82648	0.03695
2643.54071	0.03639
2642.25494	0.03586
2640.96917	0.03561
2639.68340	0.03569
2638.39763	0.03590
2637.11186	0.03601
2635.82609	0.03594
2634.54033	0.03578
2633.25456	0.03561
2631.96879	0.03545
2630.68302	0.03527
2629.39725	0.03506
2628.11148	0.03484
2626.82571	0.03465
2625.53994	0.03452
2624.25418	0.03443
2622.96841	0.03434
2621.68264	0.03425
2620.39687	0.03422
2619.11110	0.03422
2617.82533	0.03416
2616.53956	0.03398
2615.25379	0.03370
2613.96802	0.03338
2612.68226	0.03311
2611.39649	0.03297
2610.11072	0.03300
2608.82495	0.03312
2607.53918	0.03315
2606.25341	0.03300
2604.96764	0.03272
2603.68187	0.03246
2602.39611	0.03224
2601.11034	0.03204
2599.82457	0.03194
2598.53880	0.03202
2597.25303	0.03219
2595.96726	0.03227
2594.68149	0.03218
2593.39572	0.03201
2592.10995	0.03195
2590.82419	0.03212
2589.53842	0.03238
2588.25265	0.03242
2586.96688	0.03210
2585.68111	0.03154
2584.39534	0.03101
2583.10957	0.03063
2581.82380	0.03032
2580.53804	0.03009
2579.25227	0.03001
2577.96650	0.03015
2576.68073	0.03046
2575.39496	0.03077
2574.10919	0.03089
2572.82342	0.03078
2571.53765	0.03059
2570.25188	0.03049
2568.96612	0.03044
2567.68035	0.03024
2566.39458	0.02980
2565.10881	0.02930
2563.82304	0.02906
2562.53727	0.02919
2561.25150	0.02941
2559.96573	0.02934
2558.67997	0.02897
2557.39420	0.02864
2556.10843	0.02860
2554.82266	0.02885
2553.53689	0.02919
2552.25112	0.02947
2550.96535	0.02963
2549.67958	0.02977
2548.39381	0.02999
2547.10805	0.03028
2545.82228	0.03049
2544.53651	0.03049
2543.25074	0.03023
2541.96497	0.02979
2540.67920	0.02938
2539.39343	0.02914
2538.10766	0.02904
2536.82190	0.02898
2535.53613	0.02893
2534.25036	0.02896
2532.96459	0.02912
2531.67882	0.02931
2530.39305	0.02935
2529.10728	0.02915
2527.82151	0.02880
2526.53574	0.02850
2525.24998	0.02838
2523.96421	0.02841
2522.67844	0.02846
2521.39267	0.02842
2520.10690	0.02824
2518.82113	0.02799
2517.53536	0.02784
2516.24959	0.02790
2514.96383	0.02811
2513.67806	0.02833
2512.39229	0.02845
2511.10652	0.02839
2509.82075	0.02808
2508.53498	0.02765
2507.24921	0.02739
2505.96344	0.02748
2504.67767	0.02784
2503.39191	0.02826
2502.10614	0.02858
2500.82037	0.02869
2499.53460	0.02855
2498.24883	0.02819
2496.96306	0.02770
2495.67729	0.02720
2494.39152	0.02680
2493.10576	0.02662
2491.81999	0.02671
2490.53422	0.02697
2489.24845	0.02723
2487.96268	0.02735
2486.67691	0.02730
2485.39114	0.02715
2484.10537	0.02696
2482.81960	0.02673
2481.53384	0.02652
2480.24807	0.02645
2478.96230	0.02660
2477.67653	0.02687
2476.39076	0.02708
2475.10499	0.02710
2473.81922	0.02690
2472.53345	0.02662
2471.24769	0.02639
2469.96192	0.02632
2468.67615	0.02636
2467.39038	0.02643
2466.10461	0.02643
2464.81884	0.02632
2463.53307	0.02613
2462.24730	0.02603
2460.96153	0.02625
2459.67577	0.02682
2458.39000	0.02741
2457.10423	0.02756
2455.81846	0.02712
2454.53269	0.02654
2453.24692	0.02636
2451.96115	0.02664
2450.67538	0.02701
2449.38962	0.02716
2448.10385	0.02706
2446.81808	0.02686
2445.53231	0.02662
2444.24654	0.02633
2442.96077	0.02608
2441.67500	0.02597
2440.38923	0.02602
2439.10346	0.02615
2437.81770	0.02622
2436.53193	0.02622
2435.24616	0.02620
2433.96039	0.02619
2432.67462	0.02618
2431.38885	0.02618
2430.10308	0.02615
2428.81731	0.02603
2427.53155	0.02583
2426.24578	0.02566
2424.96001	0.02556
2423.67424	0.02548
2422.38847	0.02544
2421.10270	0.02555
2419.81693	0.02581
2418.53116	0.02604
2417.24539	0.02609
2415.95963	0.02596
2414.67386	0.02570
2413.38809	0.02533
2412.10232	0.02496
2410.81655	0.02477
2409.53078	0.02484
2408.24501	0.02507
2406.95924	0.02523
2405.67347	0.02526
2404.38771	0.02517
2403.10194	0.02505
2401.81617	0.02503
2400.53040	0.02521
2399.24463	0.02554
2397.95886	0.02585
2396.67309	0.02599
2395.38732	0.02598
2394.10156	0.02592
2392.81579	0.02590
2391.53002	0.02593
2390.24425	0.02597
2388.95848	0.02601
2387.67271	0.02601
2386.38694	0.02594
2385.10117	0.02581
2383.81540	0.02569
2382.52964	0.02564
2381.24387	0.02569
2379.95810	0.02579
2378.67233	0.02586
2377.38656	0.02589
2376.10079	0.02587
2374.81502	0.02578
2373.52925	0.02569
2372.24349	0.02564
2370.95772	0.02565
2369.67195	0.02553
2368.38618	0.02526
2367.10041	0.02505
2365.81464	0.02501
2364.52887	0.02493
2363.24310	0.02490
2361.95733	0.02505
2360.67157	0.02544
2359.38580	0.02569
2358.10003	0.02579
2356.81426	0.02588
2355.52849	0.02601
2354.24272	0.02621
2352.95695	0.02650
2351.67118	0.02710
2350.38542	0.02777
2349.09965	0.02788
2347.81388	0.02734
2346.52811	0.02696
2345.24234	0.02696
2343.95657	0.02678
2342.67080	0.02621
2341.38503	0.02606
2340.09926	0.02635
2338.81350	0.02583
2337.52773	0.02467
2336.24196	0.02463
2334.95619	0.02547
2333.67042	0.02548
2332.38465	0.02479
2331.09888	0.02515
2329.81311	0.02554
2328.52735	0.02484
2327.24158	0.02530
2325.95581	0.02658
2324.67004	0.02687
2323.38427	0.02717
2322.09850	0.02765
2320.81273	0.02717
2319.52696	0.02702
2318.24119	0.02722
2316.95543	0.02684
2315.66966	0.02663
2314.38389	0.02655
2313.09812	0.02629
2311.81235	0.02632
2310.52658	0.02615
2309.24081	0.02575
2307.95504	0.02534
2306.66928	0.02484
2305.38351	0.02462
2304.09774	0.02458
2302.81197	0.02453
2301.52620	0.02447
2300.24043	0.02427
2298.95466	0.02396
2297.66889	0.02358
2296.38312	0.02333
2295.09736	0.02342
2293.81159	0.02376
2292.52582	0.02407
2291.24005	0.02408
2289.95428	0.02390
2288.66851	0.02373
2287.38274	0.02365
2286.09697	0.02358
2284.81121	0.02345
2283.52544	0.02326
2282.23967	0.02304
2280.95390	0.02288
2279.66813	0.02288
2278.38236	0.02304
2277.09659	0.02318
2275.81082	0.02304
2274.52505	0.02257
2273.23929	0.02203
2271.95352	0.02177
2270.66775	0.02187
2269.38198	0.02203
2268.09621	0.02182
2266.81044	0.02114
2265.52467	0.02022
2264.23890	0.01942
2262.95314	0.01902
2261.66737	0.01912
2260.38160	0.01959
2259.09583	0.02018
2257.81006	0.02057
2256.52429	0.02057
2255.23852	0.02024
2253.95275	0.01987
2252.66698	0.01956
2251.38122	0.01921
2250.09545	0.01894
2248.80968	0.01897
2247.52391	0.01890
2246.23814	0.01899
2244.95237	0.01905
2243.66660	0.01904
2242.38083	0.01899
2241.09507	0.01889
2239.80930	0.01871
2238.52353	0.01847
2237.23776	0.01817
2235.95199	0.01784
2234.66622	0.01757
2233.38045	0.01752
2232.09468	0.01772
2230.80891	0.01800
2229.52315	0.01815
2228.23738	0.01806
2226.95161	0.01773
2225.66584	0.01722
2224.38007	0.01660
2223.09430	0.01595
2221.80853	0.01542
2220.52276	0.01515
2219.23700	0.01518
2217.95123	0.01547
2216.66546	0.01592
2215.37969	0.01638
2214.09392	0.01667
2212.80815	0.01660
2211.52238	0.01604
2210.23661	0.01504
2208.95084	0.01392
2207.66508	0.01324
2206.37931	0.01334
2205.09354	0.01403
2203.80777	0.01461
2202.52200	0.01449
2201.23623	0.01365
2199.95046	0.01273
2198.66469	0.01239
2197.37893	0.01282
2196.09316	0.01358
2194.80739	0.01409
2193.52162	0.01417
2192.23585	0.01395
2190.95008	0.01358
2189.66431	0.01317
2188.37854	0.01291
2187.09277	0.01302
2185.80701	0.01351
2184.52124	0.01406
2183.23547	0.01419
2181.94970	0.01373
2180.66393	0.01289
2179.37816	0.01202
2178.09239	0.01132
2176.80662	0.01085
2175.52085	0.01078
2174.23509	0.01119
2172.94932	0.01173
2171.66355	0.01193
2170.37778	0.01176
2169.09201	0.01155
2167.80624	0.01141
2166.52047	0.01104
2165.23470	0.01026
2163.94894	0.00925
2162.66317	0.00813
2161.37740	0.00663
2160.09163	0.00454
2158.80586	0.00243
2157.52009	0.00133
2156.23432	0.00181
2154.94855	0.00353
2153.66278	0.00565
2152.37702	0.00740
2151.09125	0.00837
2149.80548	0.00861
2148.51971	0.00839
2147.23394	0.00803
2145.94817	0.00775
2144.66240	0.00774
2143.37663	0.00807
2142.09087	0.00856
2140.80510	0.00899
2139.51933	0.00935
2138.23356	0.00977
2136.94779	0.01017
2135.66202	0.01035
2134.37625	0.01034
2133.09048	0.01038
2131.80471	0.01056
2130.51895	0.01076
2129.23318	0.01091
2127.94741	0.01104
2126.66164	0.01122
2125.37587	0.01137
2124.09010	0.01146
2122.80433	0.01161
2121.51856	0.01195
2120.23280	0.01244
2118.94703	0.01287
2117.66126	0.01310
2116.37549	0.01320
2115.08972	0.01331
2113.80395	0.01350
2112.51818	0.01371
2111.23241	0.01395
2109.94664	0.01428
2108.66088	0.01458
2107.37511	0.01457
2106.08934	0.01410
2104.80357	0.01339
2103.51780	0.01278
2102.23203	0.01239
2100.94626	0.01206
2099.66049	0.01158
2098.37473	0.01106
2097.08896	0.01062
2095.80319	0.01035
2094.51742	0.01037
2093.23165	0.01067
2091.94588	0.01114
2090.66011	0.01161
2089.37434	0.01187
2088.08857	0.01177
2086.80281	0.01132
2085.51704	0.01068
2084.23127	0.01021
2082.94550	0.01020
2081.65973	0.01060
2080.37396	0.01110
2079.08819	0.01136
2077.80242	0.01128
2076.51666	0.01098
2075.23089	0.01064
2073.94512	0.01044
2072.65935	0.01051
2071.37358	0.01082
2070.08781	0.01113
2068.80204	0.01119
2067.51627	0.01086
2066.23050	0.01023
2064.94474	0.00941
2063.65897	0.00867
2062.37320	0.00830
2061.08743	0.00851
2059.80166	0.00913
2058.51589	0.00971
2057.23012	0.00990
2055.94435	0.00971
2054.65859	0.00942
2053.37282	0.00924
2052.08705	0.00911
2050.80128	0.00883
2049.51551	0.00832
2048.22974	0.00768
2046.94397	0.00700
2045.65820	0.00621
2044.37243	0.00523
2043.08667	0.00410
2041.80090	0.00293
2040.51513	0.00186
2039.22936	0.00111
2037.94359	0.00089
2036.65782	0.00123
2035.37205	0.00192
2034.08628	0.00275
2032.80052	0.00360
2031.51475	0.00434
2030.22898	0.00473
2028.94321	0.00471
2027.65744	0.00460
2026.37167	0.00477
2025.08590	0.00516
2023.80013	0.00538
2022.51436	0.00531
2021.22860	0.00529
2019.94283	0.00564
2018.65706	0.00626
2017.37129	0.00672
2016.08552	0.00672
2014.79975	0.00640
2013.51398	0.00611
2012.22821	0.00608
2010.94245	0.00626
2009.65668	0.00639
2008.37091	0.00631
2007.08514	0.00605
2005.79937	0.00584
2004.51360	0.00601
2003.22783	0.00667
2001.94206	0.00749
2000.65629	0.00793
1999.37053	0.00782
1998.08476	0.00744
1996.79899	0.00725
1995.51322	0.00742
1994.22745	0.00781
1992.94168	0.00824
1991.65591	0.00864
1990.37014	0.00901
1989.08438	0.00923
1987.79861	0.00913
1986.51284	0.00872
1985.22707	0.00832
1983.94130	0.00825
1982.65553	0.00856
1981.36976	0.00907
1980.08399	0.00949
1978.79822	0.00957
1977.51246	0.00909
1976.22669	0.00804
1974.94092	0.00685
1973.65515	0.00623
1972.36938	0.00669
1971.08361	0.00805
1969.79784	0.00954
1968.51207	0.01042
1967.22631	0.01052
1965.94054	0.01020
1964.65477	0.00992
1963.36900	0.00991
1962.08323	0.01011
1960.79746	0.01033
1959.51169	0.01043
1958.22592	0.01042
1956.94015	0.01044
1955.65439	0.01080
1954.36862	0.01172
1953.08285	0.01307
1951.79708	0.01420
1950.51131	0.01447
1949.22554	0.01382
1947.93977	0.01281
1946.65400	0.01199
1945.36823	0.01164
1944.08247	0.01177
1942.79670	0.01228
1941.51093	0.01286
1940.22516	0.01313
1938.93939	0.01282
1937.65362	0.01211
1936.36785	0.01145
1935.08208	0.01122
1933.79632	0.01144
1932.51055	0.01182
1931.22478	0.01206
1929.93901	0.01207
1928.65324	0.01192
1927.36747	0.01177
1926.08170	0.01182
1924.79593	0.01215
1923.51016	0.01269
1922.22440	0.01320
1920.93863	0.01346
1919.65286	0.01340
1918.36709	0.01310
1917.08132	0.01273
1915.79555	0.01246
1914.50978	0.01238
1913.22401	0.01258
1911.93825	0.01301
1910.65248	0.01353
1909.36671	0.01394
1908.08094	0.01407
1906.79517	0.01385
1905.50940	0.01340
1904.22363	0.01300
1902.93786	0.01290
1901.65209	0.01314
1900.36633	0.01353
1899.08056	0.01380
1897.79479	0.01379
1896.50902	0.01360
1895.22325	0.01339
1893.93748	0.01329
1892.65171	0.01332
1891.36594	0.01339
1890.08018	0.01344
1888.79441	0.01346
1887.50864	0.01348
1886.22287	0.01357
1884.93710	0.01376
1883.65133	0.01403
1882.36556	0.01433
1881.07979	0.01461
1879.79402	0.01482
1878.50826	0.01493
1877.22249	0.01486
1875.93672	0.01459
1874.65095	0.01420
1873.36518	0.01382
1872.07941	0.01362
1870.79364	0.01368
1869.50787	0.01395
1868.22211	0.01426
1866.93634	0.01444
1865.65057	0.01447
1864.36480	0.01441
1863.07903	0.01434
1861.79326	0.01426
1860.50749	0.01412
1859.22172	0.01397
1857.93595	0.01389
1856.65019	0.01389
1855.36442	0.01393
1854.07865	0.01400
1852.79288	0.01413
1851.50711	0.01433
1850.22134	0.01458
1848.93557	0.01478
1847.64980	0.01485
1846.36404	0.01475
1845.07827	0.01455
1843.79250	0.01441
1842.50673	0.01441
1841.22096	0.01449
1839.93519	0.01456
1838.64942	0.01453
1837.36365	0.01441
1836.07788	0.01428
1834.79212	0.01424
1833.50635	0.01433
1832.22058	0.01447
1830.93481	0.01455
1829.64904	0.01453
1828.36327	0.01448
1827.07750	0.01450
1825.79173	0.01458
1824.50597	0.01464
1823.22020	0.01461
1821.93443	0.01450
1820.64866	0.01434
1819.36289	0.01416
1818.07712	0.01400
1816.79135	0.01395
1815.50558	0.01409
1814.21981	0.01440
1812.93405	0.01478
1811.64828	0.01511
1810.36251	0.01533
1809.07674	0.01546
1807.79097	0.01550
1806.50520	0.01546
1805.21943	0.01536
1803.93366	0.01525
1802.64790	0.01519
1801.36213	0.01521
1800.07636	0.01533
1798.79059	0.01553
1797.50482	0.01573
1796.21905	0.01579
1794.93328	0.01563
1793.64751	0.01537
1792.36174	0.01522
1791.07598	0.01528
1789.79021	0.01547
1788.50444	0.01567
1787.21867	0.01578
1785.93290	0.01579
1784.64713	0.01576
1783.36136	0.01576
1782.07559	0.01585
1780.78983	0.01603
1779.50406	0.01622
1778.21829	0.01633
1776.93252	0.01630
1775.64675	0.01614
1774.36098	0.01590
1773.07521	0.01572
1771.78944	0.01572
1770.50367	0.01589
1769.21791	0.01614
1767.93214	0.01642
1766.64637	0.01668
1765.36060	0.01687
1764.07483	0.01696
1762.78906	0.01696
1761.50329	0.01695
1760.21752	0.01700
1758.93176	0.01709
1757.64599	0.01716
1756.36022	0.01718
1755.07445	0.01718
1753.78868	0.01717
1752.50291	0.01718
1751.21714	0.01722
1749.93137	0.01729
1748.64560	0.01742
1747.35984	0.01762
1746.07407	0.01793
1744.78830	0.01827
1743.50253	0.01857
1742.21676	0.01877
1740.93099	0.01889
1739.64522	0.01898
1738.35945	0.01905
1737.07369	0.01905
1735.78792	0.01901
1734.50215	0.01905
1733.21638	0.01927
1731.93061	0.01966
1730.64484	0.02008
1729.35907	0.02040
1728.07330	0.02060
1726.78753	0.02071
1725.50177	0.02083
1724.21600	0.02104
1722.93023	0.02132
1721.64446	0.02156
1720.35869	0.02167
1719.07292	0.02169
1717.78715	0.02177
1716.50138	0.02202
1715.21561	0.02243
1713.92985	0.02288
1712.64408	0.02331
1711.35831	0.02373
1710.07254	0.02414
1708.78677	0.02451
1707.50100	0.02482
1706.21523	0.02509
1704.92946	0.02537
1703.64370	0.02564
1702.35793	0.02586
1701.07216	0.02604
1699.78639	0.02624
1698.50062	0.02650
1697.21485	0.02680
1695.92908	0.02714
1694.64331	0.02754
1693.35754	0.02801
1692.07178	0.02848
1690.78601	0.02890
1689.50024	0.02920
1688.21447	0.02935
1686.92870	0.02936
1685.64293	0.02935
1684.35716	0.02950
1683.07139	0.02989
1681.78563	0.03045
1680.49986	0.03101
1679.21409	0.03144
1677.92832	0.03173
1676.64255	0.03192
1675.35678	0.03209
1674.07101	0.03231
1672.78524	0.03259
1671.49947	0.03291
1670.21371	0.03324
1668.92794	0.03358
1667.64217	0.03393
1666.35640	0.03430
1665.07063	0.03466
1663.78486	0.03500
1662.49909	0.03532
1661.21332	0.03560
1659.92756	0.03581
1658.64179	0.03591
1657.35602	0.03587
1656.07025	0.03573
1654.78448	0.03561
1653.49871	0.03568
1652.21294	0.03600
1650.92717	0.03647
1649.64140	0.03690
1648.35564	0.03721
1647.06987	0.03745
1645.78410	0.03768
1644.49833	0.03793
1643.21256	0.03815
1641.92679	0.03830
1640.64102	0.03836
1639.35525	0.03834
1638.06949	0.03829
1636.78372	0.03829
1635.49795	0.03843
1634.21218	0.03867
1632.92641	0.03889
1631.64064	0.03902
1630.35487	0.03906
1629.06910	0.03908
1627.78333	0.03914
1626.49757	0.03922
1625.21180	0.03932
1623.92603	0.03942
1622.64026	0.03952
1621.35449	0.03961
1620.06872	0.03967
1618.78295	0.03971
1617.49718	0.03979
1616.21142	0.03999
1614.92565	0.04028
1613.63988	0.04061
1612.35411	0.04087
1611.06834	0.04107
1609.78257	0.04125
1608.49680	0.04142
1607.21103	0.04159
1605.92526	0.04172
1604.63950	0.04184
1603.35373	0.04199
1602.06796	0.04218
1600.78219	0.04242
1599.49642	0.04268
1598.21065	0.04294
1596.92488	0.04319
1595.63911	0.04342
1594.35335	0.04361
1593.06758	0.04377
1591.78181	0.04394
1590.49604	0.04412
1589.21027	0.04434
1587.92450	0.04457
1586.63873	0.04482
1585.35296	0.04508
1584.06719	0.04530
1582.78143	0.04548
1581.49566	0.04562
1580.20989	0.04573
1578.92412	0.04585
1577.63835	0.04604
1576.35258	0.04637
1575.06681	0.04683
1573.78104	0.04730
1572.49528	0.04764
1571.20951	0.04785
1569.92374	0.04803
1568.63797	0.04828
1567.35220	0.04863
1566.06643	0.04898
1564.78066	0.04924
1563.49489	0.04933
1562.20912	0.04930
1560.92336	0.04925
1559.63759	0.04932
1558.35182	0.04962
1557.06605	0.05009
1555.78028	0.05061
1554.49451	0.05109
1553.20874	0.05150
1551.92297	0.05186
1550.63721	0.05218
1549.35144	0.05244
1548.06567	0.05262
1546.77990	0.05268
1545.49413	0.05262
1544.20836	0.05242
1542.92259	0.05212
1541.63682	0.05182
1540.35105	0.05164
1539.06529	0.05168
1537.77952	0.05186
1536.49375	0.05205
1535.20798	0.05219
1533.92221	0.05233
1532.63644	0.05254
1531.35067	0.05285
1530.06490	0.05321
1528.77914	0.05358
1527.49337	0.05395
1526.20760	0.05434
1524.92183	0.05477
1523.63606	0.05529
1522.35029	0.05595
1521.06452	0.05681
1519.77875	0.05785
1518.49298	0.05899
1517.20722	0.06015
1515.92145	0.06132
1514.63568	0.06253
1513.34991	0.06379
1512.06414	0.06510
1510.77837	0.06639
1509.49260	0.06764
1508.20683	0.06890
1506.92107	0.07026
1505.63530	0.07175
1504.34953	0.07328
1503.06376	0.07472
1501.77799	0.07596
1500.49222	0.07704
1499.20645	0.07802
1497.92068	0.07896
1496.63491	0.07987
1495.34915	0.08076
1494.06338	0.08164
1492.77761	0.08251
1491.49184	0.08340
1490.20607	0.08433
1488.92030	0.08533
1487.63453	0.08642
1486.34876	0.08762
1485.06299	0.08890
1483.77723	0.09025
1482.49146	0.09164
1481.20569	0.09304
1479.91992	0.09441
1478.63415	0.09571
1477.34838	0.09690
1476.06261	0.09800
1474.77684	0.09905
1473.49108	0.10010
1472.20531	0.10113
1470.91954	0.10212
1469.63377	0.10299
1468.34800	0.10367
1467.06223	0.10417
1465.77646	0.10457
1464.49069	0.10497
1463.20492	0.10540
1461.91916	0.10584
1460.63339	0.10624
1459.34762	0.10662
1458.06185	0.10706
1456.77608	0.10763
1455.49031	0.10829
1454.20454	0.10892
1452.91877	0.10941
1451.63301	0.10975
1450.34724	0.10997
1449.06147	0.11012
1447.77570	0.11020
1446.48993	0.11016
1445.20416	0.10995
1443.91839	0.10960
1442.63262	0.10915
1441.34685	0.10867
1440.06109	0.10822
1438.77532	0.10786
1437.48955	0.10769
1436.20378	0.10778
1434.91801	0.10816
1433.63224	0.10882
1432.34647	0.10971
1431.06070	0.11081
1429.77494	0.11208
1428.48917	0.11351
1427.20340	0.11509
1425.91763	0.11678
1424.63186	0.11849
1423.34609	0.12015
1422.06032	0.12168
1420.77455	0.12310
1419.48878	0.12442
1418.20302	0.12563
1416.91725	0.12665
1415.63148	0.12741
1414.34571	0.12786
1413.05994	0.12805
1411.77417	0.12799
1410.48840	0.12765
1409.20263	0.12696
1407.91687	0.12592
1406.63110	0.12461
1405.34533	0.12311
1404.05956	0.12144
1402.77379	0.11956
1401.48802	0.11744
1400.20225	0.11511
1398.91648	0.11262
1397.63071	0.11004
1396.34495	0.10742
1395.05918	0.10483
1393.77341	0.10231
1392.48764	0.09985
1391.20187	0.09741
1389.91610	0.09495
1388.63033	0.09251
1387.34456	0.09012
1386.05880	0.08780
1384.77303	0.08549
1383.48726	0.08316
1382.20149	0.08081
1380.91572	0.07848
1379.62995	0.07618
1378.34418	0.07386
1377.05841	0.07150
1375.77264	0.06911
1374.48688	0.06676
1373.20111	0.06451
1371.91534	0.06237
1370.62957	0.06031
1369.34380	0.05830
1368.05803	0.05637
1366.77226	0.05454
1365.48649	0.05281
1364.20073	0.05119
1362.91496	0.04965
1361.62919	0.04821
1360.34342	0.04686
1359.05765	0.04560
1357.77188	0.04443
1356.48611	0.04335
1355.20034	0.04237
1353.91457	0.04147
1352.62881	0.04059
1351.34304	0.03972
1350.05727	0.03888
1348.77150	0.03807
1347.48573	0.03730
1346.19996	0.03657
1344.91419	0.03588
1343.62842	0.03526
1342.34266	0.03471
1341.05689	0.03423
1339.77112	0.03378
1338.48535	0.03335
1337.19958	0.03292
1335.91381	0.03251
1334.62804	0.03211
1333.34227	0.03173
1332.05650	0.03138
1330.77074	0.03104
1329.48497	0.03072
1328.19920	0.03040
1326.91343	0.03008
1325.62766	0.02976
1324.34189	0.02950
1323.05612	0.02927
1321.77035	0.02903
1320.48459	0.02876
1319.19882	0.02847
1317.91305	0.02821
1316.62728	0.02798
1315.34151	0.02777
1314.05574	0.02758
1312.76997	0.02742
1311.48420	0.02731
1310.19843	0.02720
1308.91267	0.02707
1307.62690	0.02690
1306.34113	0.02675
1305.05536	0.02663
1303.76959	0.02656
1302.48382	0.02648
1301.19805	0.02634
1299.91228	0.02612
1298.62652	0.02587
1297.34075	0.02566
1296.05498	0.02551
1294.76921	0.02541
1293.48344	0.02532
1292.19767	0.02518
1290.91190	0.02500
1289.62613	0.02481
1288.34036	0.02466
1287.05460	0.02458
1285.76883	0.02454
1284.48306	0.02449
1283.19729	0.02439
1281.91152	0.02424
1280.62575	0.02405
1279.33998	0.02387
1278.05421	0.02373
1276.76845	0.02365
1275.48268	0.02359
1274.19691	0.02351
1272.91114	0.02342
1271.62537	0.02332
1270.33960	0.02325
1269.05383	0.02318
1267.76806	0.02312
1266.48229	0.02309
1265.19653	0.02307
1263.91076	0.02303
1262.62499	0.02296
1261.33922	0.02286
1260.05345	0.02275
1258.76768	0.02266
1257.48191	0.02261
1256.19614	0.02257
1254.91037	0.02256
1253.62461	0.02256
1252.33884	0.02257
1251.05307	0.02252
1249.76730	0.02239
1248.48153	0.02222
1247.19576	0.02205
1245.90999	0.02193
1244.62422	0.02182
1243.33846	0.02173
1242.05269	0.02164
1240.76692	0.02159
1239.48115	0.02156
1238.19538	0.02155
1236.90961	0.02152
1235.62384	0.02145
1234.33807	0.02133
1233.05230	0.02120
1231.76654	0.02110
1230.48077	0.02103
1229.19500	0.02096
1227.90923	0.02089
1226.62346	0.02078
1225.33769	0.02066
1224.05192	0.02053
1222.76615	0.02043
1221.48039	0.02037
1220.19462	0.02033
1218.90885	0.02028
1217.62308	0.02017
1216.33731	0.02004
1215.05154	0.01993
1213.76577	0.01985
1212.48000	0.01980
1211.19423	0.01973
1209.90847	0.01967
1208.62270	0.01963
1207.33693	0.01964
1206.05116	0.01968
1204.76539	0.01971
1203.47962	0.01971
1202.19385	0.01968
1200.90808	0.01965
1199.62232	0.01963
1198.33655	0.01962
1197.05078	0.01962
1195.76501	0.01963
1194.47924	0.01968
1193.19347	0.01973
1191.90770	0.01977
1190.62193	0.01976
1189.33616	0.01972
1188.05040	0.01968
1186.76463	0.01966
1185.47886	0.01967
1184.19309	0.01972
1182.90732	0.01981
1181.62155	0.01992
1180.33578	0.02001
1179.05001	0.02010
1177.76425	0.02020
1176.47848	0.02031
1175.19271	0.02044
1173.90694	0.02058
1172.62117	0.02073
1171.33540	0.02088
1170.04963	0.02101
1168.76386	0.02114
1167.47809	0.02130
1166.19233	0.02152
1164.90656	0.02177
1163.62079	0.02204
1162.33502	0.02232
1161.04925	0.02264
1159.76348	0.02301
1158.47771	0.02345
1157.19194	0.02394
1155.90618	0.02444
1154.62041	0.02494
1153.33464	0.02543
1152.04887	0.02595
1150.76310	0.02656
1149.47733	0.02724
1148.19156	0.02798
1146.90579	0.02876
1145.62002	0.02958
1144.33426	0.03047
1143.04849	0.03146
1141.76272	0.03257
1140.47695	0.03382
1139.19118	0.03520
1137.90541	0.03670
1136.61964	0.03834
1135.33387	0.04019
1134.04811	0.04225
1132.76234	0.04452
1131.47657	0.04694
1130.19080	0.04958
1128.90503	0.05249
1127.61926	0.05567
1126.33349	0.05908
1125.04772	0.06266
1123.76195	0.06641
1122.47619	0.07032
1121.19042	0.07438
1119.90465	0.07854
1118.61888	0.08278
1117.33311	0.08707
1116.04734	0.09140
1114.76157	0.09573
1113.47580	0.09999
1112.19004	0.10413
1110.90427	0.10817
1109.61850	0.11216
1108.33273	0.11611
1107.04696	0.11998
1105.76119	0.12374
1104.47542	0.12736
1103.18965	0.13088
1101.90388	0.13433
1100.61812	0.13771
1099.33235	0.14100
1098.04658	0.14415
1096.76081	0.14720
1095.47504	0.15017
1094.18927	0.15308
1092.90350	0.15589
1091.61773	0.15854
1090.33197	0.16103
1089.04620	0.16341
1087.76043	0.16577
1086.47466	0.16821
1085.18889	0.17076
1083.90312	0.17338
1082.61735	0.17603
1081.33158	0.17878
1080.04581	0.18175
1078.76005	0.18502
1077.47428	0.18849
1076.18851	0.19207
1074.90274	0.19575
1073.61697	0.19961
1072.33120	0.20366
1071.04543	0.20780
1069.75966	0.21196
1068.47390	0.21621
1067.18813	0.22069
1065.90236	0.22545
1064.61659	0.23035
1063.33082	0.23521
1062.04505	0.24000
1060.75928	0.24471
1059.47351	0.24936
1058.18774	0.25397
1056.90198	0.25862
1055.61621	0.26337
1054.33044	0.26818
1053.04467	0.27297
1051.75890	0.27771
1050.47313	0.28247
1049.18736	0.28737
1047.90159	0.29255
1046.61583	0.29804
1045.33006	0.30375
1044.04429	0.30952
1042.75852	0.31525
1041.47275	0.32099
1040.18698	0.32685
1038.90121	0.33293
1037.61544	0.33917
1036.32967	0.34540
1035.04391	0.35144
1033.75814	0.35725
1032.47237	0.36280
1031.18660	0.36806
1029.90083	0.37291
1028.61506	0.37730
1027.32929	0.38117
1026.04352	0.38449
1024.75775	0.38719
1023.47199	0.38923
1022.18622	0.39062
1020.90045	0.39128
1019.61468	0.39112
1018.32891	0.39007
1017.04314	0.38817
1015.75737	0.38555
1014.47160	0.38224
1013.18584	0.37816
1011.90007	0.37320
1010.61430	0.36729
1009.32853	0.36044
1008.04276	0.35271
1006.75699	0.34420
1005.47122	0.33507
1004.18545	0.32538
1002.89968	0.31514
1001.61392	0.30428
1000.32815	0.29283
999.04238	0.28099
997.75661	0.26900
996.47084	0.25704
995.18507	0.24517
993.89930	0.23343
992.61353	0.22192
991.32777	0.21076
990.04200	0.20007
988.75623	0.18989
987.47046	0.18023
986.18469	0.17108
984.89892	0.16249
983.61315	0.15452
982.32738	0.14722
981.04161	0.14059
979.75585	0.13456
978.47008	0.12909
977.18431	0.12416
975.89854	0.11978
974.61277	0.11601
973.32700	0.11297
972.04123	0.11080
970.75546	0.10952
969.46970	0.10910
968.18393	0.10941
966.89816	0.11032
965.61239	0.11165
964.32662	0.11314
963.04085	0.11449
961.75508	0.11538
960.46931	0.11555
959.18354	0.11479
957.89778	0.11302
956.61201	0.11041
955.32624	0.10724
954.04047	0.10383
952.75470	0.10040
951.46893	0.09702
950.18316	0.09372
948.89739	0.09048
947.61163	0.08728
946.32586	0.08414
945.04009	0.08115
943.75432	0.07839
942.46855	0.07589
941.18278	0.07359
939.89701	0.07141
938.61124	0.06930
937.32547	0.06728
936.03971	0.06541
934.75394	0.06371
933.46817	0.06218
932.18240	0.06081
930.89663	0.05961
929.61086	0.05855
928.32509	0.05757
927.03932	0.05664
925.75356	0.05574
924.46779	0.05493
923.18202	0.05423
921.89625	0.05362
920.61048	0.05304
919.32471	0.05247
918.03894	0.05190
916.75317	0.05133
915.46740	0.05071
914.18164	0.05007
912.89587	0.04954
911.61010	0.04916
910.32433	0.04884
909.03856	0.04848
907.75279	0.04805
906.46702	0.04762
905.18125	0.04724
903.89549	0.04694
902.60972	0.04668
901.32395	0.04643
900.03818	0.04615
898.75241	0.04588
897.46664	0.04566
896.18087	0.04553
894.89510	0.04552
893.60933	0.04566
892.32357	0.04601
891.03780	0.04656
889.75203	0.04725
888.46626	0.04808
887.18049	0.04919
885.89472	0.05084
884.60895	0.05332
883.32318	0.05671
882.03742	0.06071
880.75165	0.06462
879.46588	0.06777
878.18011	0.06993
876.89434	0.07145
875.60857	0.07288
874.32280	0.07433
873.03703	0.07542
871.75126	0.07558
870.46550	0.07461
869.17973	0.07270
867.89396	0.07021
866.60819	0.06745
865.32242	0.06460
864.03665	0.06178
862.75088	0.05908
861.46511	0.05661
860.17935	0.05443
858.89358	0.05256
857.60781	0.05101
856.32204	0.04970
855.03627	0.04858
853.75050	0.04760
852.46473	0.04677
851.17896	0.04612
849.89319	0.04562
848.60743	0.04520
847.32166	0.04477
846.03589	0.04426
844.75012	0.04373
843.46435	0.04326
842.17858	0.04289
840.89281	0.04260
839.60704	0.04236
838.32128	0.04214
837.03551	0.04192
835.74974	0.04167
834.46397	0.04143
833.17820	0.04125
831.89243	0.04115
830.60666	0.04106
829.32089	0.04095
828.03512	0.04083
826.74936	0.04075
825.46359	0.04068
824.17782	0.04059
822.89205	0.04046
821.60628	0.04031
820.32051	0.04015
819.03474	0.03997
817.74897	0.03980
816.46321	0.03972
815.17744	0.03980
813.89167	0.03999
812.60590	0.04016
811.32013	0.04022
810.03436	0.04016
808.74859	0.04000
807.46282	0.03979
806.17705	0.03958
804.89129	0.03945
803.60552	0.03941
802.31975	0.03941
801.03398	0.03937
799.74821	0.03924
798.46244	0.03907
797.17667	0.03893
795.89090	0.03886
794.60513	0.03883
793.31937	0.03880
792.03360	0.03875
790.74783	0.03874
789.46206	0.03883
788.17629	0.03898
786.89052	0.03904
785.60475	0.03893
784.31898	0.03873
783.03322	0.03857
781.74745	0.03852
780.46168	0.03858
779.17591	0.03870
777.89014	0.03878
776.60437	0.03881
775.31860	0.03877
774.03283	0.03872
772.74706	0.03867
771.46130	0.03861
770.17553	0.03853
768.88976	0.03846
767.60399	0.03848
766.31822	0.03864
765.03245	0.03890
763.74668	0.03914
762.46091	0.03927
761.17515	0.03927
759.88938	0.03924
758.60361	0.03925
757.31784	0.03928
756.03207	0.03930
754.74630	0.03930
753.46053	0.03930
752.17476	0.03934
750.88899	0.03935
749.60323	0.03929
748.31746	0.03916
747.03169	0.03907
745.74592	0.03911
744.46015	0.03920
743.17438	0.03923
741.88861	0.03911
740.60284	0.03890
739.31708	0.03874
738.03131	0.03874
736.74554	0.03894
735.45977	0.03922
734.17400	0.03943
732.88823	0.03945
731.60246	0.03929
730.31669	0.03907
729.03092	0.03894
727.74516	0.03894
726.45939	0.03906
725.17362	0.03921
723.88785	0.03920
722.60208	0.03927
721.31631	0.03931
720.03054	0.03928
718.74477	0.03926
717.45901	0.03929
716.17324	0.03935
714.88747	0.03938
713.60170	0.03933
712.31593	0.03923
711.03016	0.03912
709.74439	0.03903
708.45862	0.03895
707.17285	0.03887
705.88709	0.03878
704.60132	0.03869
703.31555	0.03863
702.02978	0.03860
700.74401	0.03859
699.45824	0.03859
698.17247	0.03859
696.88670	0.03859
695.60094	0.03861
694.31517	0.03864
693.02940	0.03864
691.74363	0.03863
690.45786	0.03863
689.17209	0.03867
687.88632	0.03868
686.60055	0.03862
685.31478	0.03844
684.02902	0.03820
682.74325	0.03795
681.45748	0.03773
680.17171	0.03758
678.88594	0.03749
677.60017	0.03750
676.31440	0.03758
675.02863	0.03771
673.74287	0.03787
672.45710	0.03806
671.17133	0.03824
669.88556	0.03823
668.59979	0.03794
667.31402	0.03799
666.02825	0.03849
664.74248	0.03853
663.45671	0.03818
662.17095	0.03778
660.88518	0.03748
659.59941	0.03731
658.31364	0.03727
657.02787	0.03731
655.74210	0.03738
654.45633	0.03749
653.17056	0.03759
651.88480	0.03764
650.59903	0.03765
649.31326	0.03765
648.02749	0.03770
646.74172	0.03782
645.45595	0.03796
644.17018	0.03811
642.88441	0.03824
641.59864	0.03839
640.31288	0.03862
639.02711	0.03893
637.74134	0.03931
636.45557	0.03973
635.16980	0.04020
633.88403	0.04069
632.59826	0.04119
631.31249	0.04171
630.02673	0.04231
628.74096	0.04312
627.45519	0.04430
626.16942	0.04551
624.88365	0.04650
623.59788	0.04719
622.31211	0.04810
621.02634	0.05052
619.74057	0.05536
618.45481	0.06209
617.16904	0.06892
615.88327	0.07413
614.59750	0.07708
613.31173	0.07872
612.02596	0.08122
610.74019	0.08672
609.45442	0.09571
608.16866	0.10639
606.88289	0.11599
605.59712	0.12260
604.31135	0.12603
603.02558	0.12728
601.73981	0.12732
600.45404	0.12635
599.16827	0.12419
597.88250	0.12088
596.59674	0.11685
595.31097	0.11270
594.02520	0.10898
592.73943	0.10605
591.45366	0.10406
590.16789	0.10299
588.88212	0.10279
587.59635	0.10338
586.31059	0.10469
585.02482	0.10659
583.73905	0.10898
582.45328	0.11181
581.16751	0.11504
579.88174	0.11867
578.59597	0.12262
577.31020	0.12672
576.02443	0.13073
574.73867	0.13453
573.45290	0.13814
572.16713	0.14173
570.88136	0.14557
569.59559	0.14995
568.30982	0.15497
567.02405	0.16044
565.73828	0.16595
564.45251	0.17097
563.16675	0.17489
561.88098	0.17701
560.59521	0.17669
559.30944	0.17360
558.02367	0.16788
556.73790	0.16014
555.45213	0.15117
554.16636	0.14172
552.88060	0.13237
551.59483	0.12347
550.30906	0.11520
549.02329	0.10768
547.73752	0.10098
546.45175	0.09516
545.16598	0.09014
543.88021	0.08573
542.59444	0.08178
541.30868	0.07816
540.02291	0.07485
538.73714	0.07182
537.45137	0.06902
536.16560	0.06643
534.87983	0.06405
533.59406	0.06193
532.30829	0.06005
531.02253	0.05837
529.73676	0.05681
528.45099	0.05528
527.16522	0.05375
525.87945	0.05226
524.59368	0.05087
523.30791	0.04963
522.02214	0.04855
520.73637	0.04754
519.45061	0.04655
518.16484	0.04557
516.87907	0.04464
515.59330	0.04379
514.30753	0.04303
513.02176	0.04232
511.73599	0.04164
510.45022	0.04101
509.16446	0.04043
507.87869	0.03986
506.59292	0.03925
505.30715	0.03864
504.02138	0.03808
502.73561	0.03761
501.44984	0.03722
500.16407	0.03683
498.87830	0.03646
497.59254	0.03612
496.30677	0.03580
495.02100	0.03546
493.73523	0.03506
492.44946	0.03466
491.16369	0.03436
489.87792	0.03420
488.59215	0.03417
487.30639	0.03423
486.02062	0.03431
484.73485	0.03436
483.44908	0.03442
482.16331	0.03451
480.87754	0.03468
479.59177	0.03492
478.30600	0.03518
477.02023	0.03543
475.73447	0.03568
474.44870	0.03597
473.16293	0.03628
471.87716	0.03653
470.59139	0.03664
469.30562	0.03658
468.01985	0.03639
466.73408	0.03610
465.44832	0.03575
464.16255	0.03537
462.87678	0.03497
461.59101	0.03454
460.30524	0.03413
459.01947	0.03377
457.73370	0.03349
456.44793	0.03328
455.16216	0.03308
453.87640	0.03288
452.59063	0.03264
451.30486	0.03241
450.01909	0.03221
448.73332	0.03207
447.44755	0.03197
446.16178	0.03185
444.87601	0.03167
443.59025	0.03146
442.30448	0.03130
441.01871	0.03122
439.73294	0.03120
438.44717	0.03121
437.16140	0.03126
435.87563	0.03135
434.58986	0.03144
433.30409	0.03151
432.01833	0.03154
430.73256	0.03158
429.44679	0.03165
428.16102	0.03167
426.87525	0.03160
425.58948	0.03143
424.30371	0.03125
423.01794	0.03112
421.73218	0.03101
420.44641	0.03090
419.16064	0.03078
417.87487	0.03073
416.58910	0.03077
415.30333	0.03085
414.01756	0.03090
412.73179	0.03091
411.44602	0.03094
410.16026	0.03106
408.87449	0.03128
407.58872	0.03154
406.30295	0.03173
405.01718	0.03181
403.73141	0.03181
402.44564	0.03183
401.15987	0.03194
399.87411	0.03212
