3997.45528	0.03572
3996.16951	0.03571
3994.88374	0.03598
3993.59798	0.03640
3992.31221	0.03676
3991.02644	0.03700
3989.74067	0.03709
3988.45490	0.03702
3987.16913	0.03683
3985.88336	0.03665
3984.59759	0.03654
3983.31183	0.03647
3982.02606	0.03640
3980.74029	0.03638
3979.45452	0.03654
3978.16875	0.03685
3976.88298	0.03707
3975.59721	0.03703
3974.31144	0.03679
3973.02567	0.03653
3971.73991	0.03636
3970.45414	0.03626
3969.16837	0.03621
3967.88260	0.03618
3966.59683	0.03611
3965.31106	0.03598
3964.02529	0.03583
3962.73952	0.03568
3961.45376	0.03554
3960.16799	0.03547
3958.88222	0.03554
3957.59645	0.03563
3956.31068	0.03544
3955.02491	0.03479
3953.73914	0.03387
3952.45337	0.03309
3951.16760	0.03283
3949.88184	0.03318
3948.59607	0.03390
3947.31030	0.03465
3946.02453	0.03516
3944.73876	0.03546
3943.45299	0.03570
3942.16722	0.03608
3940.88145	0.03672
3939.59569	0.03743
3938.30992	0.03773
3937.02415	0.03736
3935.73838	0.03665
3934.45261	0.03623
3933.16684	0.03628
3931.88107	0.03645
3930.59530	0.03637
3929.30953	0.03604
3928.02377	0.03582
3926.73800	0.03606
3925.45223	0.03661
3924.16646	0.03690
3922.88069	0.03667
3921.59492	0.03621
3920.30915	0.03609
3919.02338	0.03653
3917.73762	0.03712
3916.45185	0.03719
3915.16608	0.03663
3913.88031	0.03605
3912.59454	0.03597
3911.30877	0.03635
3910.02300	0.03680
3908.73723	0.03692
3907.45146	0.03659
3906.16570	0.03596
3904.87993	0.03530
3903.59416	0.03490
3902.30839	0.03490
3901.02262	0.03516
3899.73685	0.03535
3898.45108	0.03522
3897.16531	0.03490
3895.87955	0.03477
3894.59378	0.03513
3893.30801	0.03600
3892.02224	0.03695
3890.73647	0.03727
3889.45070	0.03686
3888.16493	0.03638
3886.87916	0.03609
3885.59339	0.03557
3884.30763	0.03483
3883.02186	0.03462
3881.73609	0.03521
3880.45032	0.03573
3879.16455	0.03539
3877.87878	0.03449
3876.59301	0.03379
3875.30724	0.03347
3874.02148	0.03339
3872.73571	0.03387
3871.44994	0.03507
3870.16417	0.03606
3868.87840	0.03582
3867.59263	0.03489
3866.30686	0.03440
3865.02109	0.03441
3863.73532	0.03436
3862.44956	0.03413
3861.16379	0.03385
3859.87802	0.03346
3858.59225	0.03288
3857.30648	0.03264
3856.02071	0.03330
3854.73494	0.03431
3853.44917	0.03414
3852.16341	0.03239
3850.87764	0.03053
3849.59187	0.02998
3848.30610	0.03064
3847.02033	0.03160
3845.73456	0.03219
3844.44879	0.03227
3843.16302	0.03207
3841.87725	0.03202
3840.59149	0.03261
3839.30572	0.03367
3838.01995	0.03434
3836.73418	0.03403
3835.44841	0.03327
3834.16264	0.03287
3832.87687	0.03283
3831.59110	0.03268
3830.30534	0.03255
3829.01957	0.03295
3827.73380	0.03389
3826.44803	0.03455
3825.16226	0.03436
3823.87649	0.03386
3822.59072	0.03361
3821.30495	0.03325
3820.01918	0.03254
3818.73342	0.03233
3817.44765	0.03319
3816.16188	0.03409
3814.87611	0.03397
3813.59034	0.03332
3812.30457	0.03306
3811.01880	0.03311
3809.73303	0.03317
3808.44726	0.03311
3807.16150	0.03250
3805.87573	0.03120
3804.58996	0.03031
3803.30419	0.03095
3802.01842	0.03245
3800.73265	0.03316
3799.44688	0.03288
3798.16111	0.03271
3796.87535	0.03310
3795.58958	0.03356
3794.30381	0.03376
3793.01804	0.03375
3791.73227	0.03367
3790.44650	0.03367
3789.16073	0.03390
3787.87496	0.03434
3786.58919	0.03471
3785.30343	0.03470
3784.01766	0.03428
3782.73189	0.03381
3781.44612	0.03368
3780.16035	0.03370
3778.87458	0.03334
3777.58881	0.03254
3776.30304	0.03179
3775.01728	0.03155
3773.73151	0.03192
3772.44574	0.03281
3771.15997	0.03379
3769.87420	0.03420
3768.58843	0.03380
3767.30266	0.03305
3766.01689	0.03243
3764.73112	0.03206
3763.44536	0.03201
3762.15959	0.03234
3760.87382	0.03280
3759.58805	0.03299
3758.30228	0.03280
3757.01651	0.03238
3755.73074	0.03197
3754.44497	0.03184
3753.15921	0.03181
3751.87344	0.03143
3750.58767	0.03047
3749.30190	0.02908
3748.01613	0.02812
3746.73036	0.02893
3745.44459	0.03139
3744.15882	0.03347
3742.87305	0.03385
3741.58729	0.03339
3740.30152	0.03302
3739.01575	0.03267
3737.72998	0.03204
3736.44421	0.03102
3735.15844	0.02990
3733.87267	0.02932
3732.58690	0.02936
3731.30114	0.02936
3730.01537	0.02905
3728.72960	0.02892
3727.44383	0.02923
3726.15806	0.02968
3724.87229	0.02996
3723.58652	0.03008
3722.30075	0.03001
3721.01498	0.02976
3719.72922	0.02945
3718.44345	0.02916
3717.15768	0.02888
3715.87191	0.02888
3714.58614	0.02954
3713.30037	0.03076
3712.01460	0.03197
3710.72883	0.03274
3709.44307	0.03312
3708.15730	0.03318
3706.87153	0.03282
3705.58576	0.03214
3704.29999	0.03150
3703.01422	0.03106
3701.72845	0.03073
3700.44268	0.03044
3699.15691	0.03025
3697.87115	0.03006
3696.58538	0.02956
3695.29961	0.02881
3694.01384	0.02829
3692.72807	0.02832
3691.44230	0.02882
3690.15653	0.02960
3688.87076	0.03023
3687.58500	0.03035
3686.29923	0.03021
3685.01346	0.03031
3683.72769	0.03068
3682.44192	0.03086
3681.15615	0.03054
3679.87038	0.02976
3678.58461	0.02924
3677.29884	0.02965
3676.01308	0.03045
3674.72731	0.03058
3673.44154	0.03033
3672.15577	0.03083
3670.87000	0.03188
3669.58423	0.03232
3668.29846	0.03195
3667.01269	0.03157
3665.72693	0.03160
3664.44116	0.03188
3663.15539	0.03222
3661.86962	0.03260
3660.58385	0.03309
3659.29808	0.03386
3658.01231	0.03484
3656.72654	0.03545
3655.44077	0.03495
3654.15501	0.03362
3652.86924	0.03261
3651.58347	0.03263
3650.29770	0.03330
3649.01193	0.03383
3647.72616	0.03390
3646.44039	0.03382
3645.15462	0.03402
3643.86886	0.03460
3642.58309	0.03529
3641.29732	0.03568
3640.01155	0.03570
3638.72578	0.03559
3637.44001	0.03572
3636.15424	0.03623
3634.86847	0.03675
3633.58270	0.03673
3632.29694	0.03628
3631.01117	0.03611
3629.72540	0.03641
3628.43963	0.03664
3627.15386	0.03671
3625.86809	0.03711
3624.58232	0.03797
3623.29655	0.03888
3622.01079	0.03962
3620.72502	0.04009
3619.43925	0.04002
3618.15348	0.03931
3616.86771	0.03851
3615.58194	0.03832
3614.29617	0.03879
3613.01040	0.03940
3611.72463	0.03972
3610.43887	0.03983
3609.15310	0.03992
3607.86733	0.04008
3606.58156	0.04038
3605.29579	0.04076
3604.01002	0.04105
3602.72425	0.04128
3601.43848	0.04174
3600.15272	0.04257
3598.86695	0.04344
3597.58118	0.04387
3596.29541	0.04370
3595.00964	0.04317
3593.72387	0.04268
3592.43810	0.04258
3591.15233	0.04297
3589.86656	0.04368
3588.58080	0.04433
3587.29503	0.04469
3586.00926	0.04505
3584.72349	0.04585
3583.43772	0.04709
3582.15195	0.04821
3580.86618	0.04868
3579.58041	0.04840
3578.29464	0.04785
3577.00888	0.04759
3575.72311	0.04779
3574.43734	0.04817
3573.15157	0.04845
3571.86580	0.04881
3570.58003	0.04969
3569.29426	0.05109
3568.00849	0.05238
3566.72273	0.05284
3565.43696	0.05241
3564.15119	0.05171
3562.86542	0.05128
3561.57965	0.05123
3560.29388	0.05138
3559.00811	0.05156
3557.72234	0.05171
3556.43657	0.05186
3555.15081	0.05199
3553.86504	0.05202
3552.57927	0.05193
3551.29350	0.05190
3550.00773	0.05226
3548.72196	0.05309
3547.43619	0.05400
3546.15042	0.05442
3544.86466	0.05421
3543.57889	0.05373
3542.29312	0.05344
3541.00735	0.05343
3539.72158	0.05352
3538.43581	0.05359
3537.15004	0.05371
3535.86427	0.05397
3534.57850	0.05437
3533.29274	0.05486
3532.00697	0.05544
3530.72120	0.05618
3529.43543	0.05712
3528.14966	0.05809
3526.86389	0.05879
3525.57812	0.05903
3524.29235	0.05900
3523.00659	0.05912
3521.72082	0.05964
3520.43505	0.06033
3519.14928	0.06070
3517.86351	0.06048
3516.57774	0.05987
3515.29197	0.05929
3514.00620	0.05906
3512.72043	0.05923
3511.43467	0.05966
3510.14890	0.06007
3508.86313	0.06025
3507.57736	0.06023
3506.29159	0.06021
3505.00582	0.06031
3503.72005	0.06041
3502.43428	0.06040
3501.14852	0.06041
3499.86275	0.06067
3498.57698	0.06127
3497.29121	0.06200
3496.00544	0.06260
3494.71967	0.06293
3493.43390	0.06294
3492.14813	0.06261
3490.86236	0.06207
3489.57660	0.06163
3488.29083	0.06160
3487.00506	0.06197
3485.71929	0.06252
3484.43352	0.06310
3483.14775	0.06370
3481.86198	0.06432
3480.57621	0.06482
3479.29045	0.06509
3478.00468	0.06512
3476.71891	0.06506
3475.43314	0.06507
3474.14737	0.06529
3472.86160	0.06564
3471.57583	0.06589
3470.29006	0.06581
3469.00429	0.06540
3467.71853	0.06491
3466.43276	0.06462
3465.14699	0.06468
3463.86122	0.06507
3462.57545	0.06561
3461.28968	0.06605
3460.00391	0.06632
3458.71814	0.06659
3457.43238	0.06711
3456.14661	0.06787
3454.86084	0.06856
3453.57507	0.06885
3452.28930	0.06875
3451.00353	0.06853
3449.71776	0.06848
3448.43199	0.06864
3447.14622	0.06891
3445.86046	0.06917
3444.57469	0.06947
3443.28892	0.06993
3442.00315	0.07051
3440.71738	0.07099
3439.43161	0.07116
3438.14584	0.07102
3436.86007	0.07079
3435.57431	0.07075
3434.28854	0.07097
3433.00277	0.07137
3431.71700	0.07173
3430.43123	0.07194
3429.14546	0.07202
3427.85969	0.07210
3426.57392	0.07233
3425.28815	0.07267
3424.00239	0.07300
3422.71662	0.07317
3421.43085	0.07316
3420.14508	0.07306
3418.85931	0.07294
3417.57354	0.07280
3416.28777	0.07255
3415.00200	0.07213
3413.71624	0.07164
3412.43047	0.07135
3411.14470	0.07149
3409.85893	0.07204
3408.57316	0.07270
3407.28739	0.07314
3406.00162	0.07333
3404.71585	0.07350
3403.43008	0.07383
3402.14432	0.07424
3400.85855	0.07453
3399.57278	0.07450
3398.28701	0.07418
3397.00124	0.07375
3395.71547	0.07349
3394.42970	0.07353
3393.14393	0.07369
3391.85817	0.07372
3390.57240	0.07366
3389.28663	0.07386
3388.00086	0.07445
3386.71509	0.07514
3385.42932	0.07547
3384.14355	0.07527
3382.85778	0.07470
3381.57201	0.07409
3380.28625	0.07369
3379.00048	0.07354
3377.71471	0.07354
3376.42894	0.07361
3375.14317	0.07374
3373.85740	0.07395
3372.57163	0.07424
3371.28586	0.07456
3370.00010	0.07486
3368.71433	0.07509
3367.42856	0.07521
3366.14279	0.07530
3364.85702	0.07548
3363.57125	0.07581
3362.28548	0.07617
3360.99971	0.07640
3359.71394	0.07644
3358.42818	0.07637
3357.14241	0.07630
3355.85664	0.07635
3354.57087	0.07651
3353.28510	0.07652
3351.99933	0.07616
3350.71356	0.07549
3349.42779	0.07487
3348.14202	0.07456
3346.85626	0.07453
3345.57049	0.07459
3344.28472	0.07460
3342.99895	0.07462
3341.71318	0.07466
3340.42741	0.07464
3339.14164	0.07449
3337.85587	0.07425
3336.57011	0.07416
3335.28434	0.07441
3333.99857	0.07496
3332.71280	0.07558
3331.42703	0.07604
3330.14126	0.07624
3328.85549	0.07624
3327.56972	0.07608
3326.28395	0.07580
3324.99819	0.07547
3323.71242	0.07522
3322.42665	0.07520
3321.14088	0.07534
3319.85511	0.07543
3318.56934	0.07530
3317.28357	0.07512
3315.99780	0.07517
3314.71204	0.07555
3313.42627	0.07598
3312.14050	0.07609
3310.85473	0.07582
3309.56896	0.07544
3308.28319	0.07516
3306.99742	0.07495
3305.71165	0.07461
3304.42588	0.07414
3303.14012	0.07374
3301.85435	0.07362
3300.56858	0.07369
3299.28281	0.07365
3297.99704	0.07329
3296.71127	0.07274
3295.42550	0.07235
3294.13973	0.07235
3292.85397	0.07268
3291.56820	0.07314
3290.28243	0.07361
3288.99666	0.07405
3287.71089	0.07435
3286.42512	0.07439
3285.13935	0.07420
3283.85358	0.07394
3282.56781	0.07379
3281.28205	0.07380
3279.99628	0.07381
3278.71051	0.07365
3277.42474	0.07330
3276.13897	0.07291
3274.85320	0.07270
3273.56743	0.07278
3272.28166	0.07309
3270.99590	0.07346
3269.71013	0.07370
3268.42436	0.07368
3267.13859	0.07341
3265.85282	0.07301
3264.56705	0.07267
3263.28128	0.07251
3261.99551	0.07249
3260.70974	0.07255
3259.42398	0.07261
3258.13821	0.07270
3256.85244	0.07289
3255.56667	0.07319
3254.28090	0.07347
3252.99513	0.07358
3251.70936	0.07345
3250.42359	0.07317
3249.13783	0.07284
3247.85206	0.07252
3246.56629	0.07226
3245.28052	0.07211
3243.99475	0.07208
3242.70898	0.07211
3241.42321	0.07208
3240.13744	0.07187
3238.85167	0.07145
3237.56591	0.07099
3236.28014	0.07080
3234.99437	0.07104
3233.70860	0.07153
3232.42283	0.07181
3231.13706	0.07157
3229.85129	0.07092
3228.56552	0.07027
3227.27976	0.06994
3225.99399	0.07000
3224.70822	0.07028
3223.42245	0.07056
3222.13668	0.07062
3220.85091	0.07040
3219.56514	0.07002
3218.27937	0.06972
3216.99360	0.06967
3215.70784	0.06976
3214.42207	0.06976
3213.13630	0.06944
3211.85053	0.06887
3210.56476	0.06835
3209.27899	0.06813
3207.99322	0.06818
3206.70745	0.06833
3205.42169	0.06846
3204.13592	0.06867
3202.85015	0.06902
3201.56438	0.06936
3200.27861	0.06943
3198.99284	0.06913
3197.70707	0.06860
3196.42130	0.06811
3195.13553	0.06780
3193.84977	0.06766
3192.56400	0.06754
3191.27823	0.06733
3189.99246	0.06703
3188.70669	0.06677
3187.42092	0.06672
3186.13515	0.06690
3184.84938	0.06712
3183.56362	0.06716
3182.27785	0.06705
3180.99208	0.06703
3179.70631	0.06722
3178.42054	0.06744
3177.13477	0.06742
3175.84900	0.06710
3174.56323	0.06669
3173.27746	0.06649
3171.99170	0.06664
3170.70593	0.06702
3169.42016	0.06731
3168.13439	0.06723
3166.84862	0.06675
3165.56285	0.06605
3164.27708	0.06547
3162.99131	0.06524
3161.70555	0.06537
3160.41978	0.06565
3159.13401	0.06585
3157.84824	0.06582
3156.56247	0.06555
3155.27670	0.06518
3153.99093	0.06488
3152.70516	0.06470
3151.41939	0.06453
3150.13363	0.06422
3148.84786	0.06374
3147.56209	0.06329
3146.27632	0.06310
3144.99055	0.06326
3143.70478	0.06361
3142.41901	0.06390
3141.13324	0.06400
3139.84748	0.06401
3138.56171	0.06406
3137.27594	0.06419
3135.99017	0.06427
3134.70440	0.06417
3133.41863	0.06383
3132.13286	0.06331
3130.84709	0.06276
3129.56132	0.06236
3128.27556	0.06213
3126.98979	0.06203
3125.70402	0.06198
3124.41825	0.06202
3123.13248	0.06218
3121.84671	0.06244
3120.56094	0.06267
3119.27517	0.06276
3117.98940	0.06265
3116.70364	0.06233
3115.41787	0.06188
3114.13210	0.06147
3112.84633	0.06131
3111.56056	0.06143
3110.27479	0.06163
3108.98902	0.06167
3107.70325	0.06151
3106.41749	0.06132
3105.13172	0.06120
3103.84595	0.06111
3102.56018	0.06095
3101.27441	0.06072
3099.98864	0.06047
3098.70287	0.06022
3097.41710	0.05998
3096.13133	0.05979
3094.84557	0.05975
3093.55980	0.05979
3092.27403	0.05976
3090.98826	0.05953
3089.70249	0.05911
3088.41672	0.05868
3087.13095	0.05844
3085.84518	0.05842
3084.55942	0.05851
3083.27365	0.05852
3081.98788	0.05837
3080.70211	0.05814
3079.41634	0.05795
3078.13057	0.05784
3076.84480	0.05778
3075.55903	0.05769
3074.27326	0.05751
3072.98750	0.05722
3071.70173	0.05687
3070.41596	0.05656
3069.13019	0.05640
3067.84442	0.05646
3066.55865	0.05668
3065.27288	0.05687
3063.98711	0.05677
3062.70135	0.05630
3061.41558	0.05567
3060.12981	0.05522
3058.84404	0.05519
3057.55827	0.05546
3056.27250	0.05576
3054.98673	0.05592
3053.70096	0.05595
3052.41519	0.05593
3051.12943	0.05589
3049.84366	0.05584
3048.55789	0.05578
3047.27212	0.05573
3045.98635	0.05567
3044.70058	0.05559
3043.41481	0.05548
3042.12904	0.05536
3040.84328	0.05516
3039.55751	0.05476
3038.27174	0.05418
3036.98597	0.05363
3035.70020	0.05335
3034.41443	0.05325
3033.12866	0.05310
3031.84289	0.05285
3030.55712	0.05273
3029.27136	0.05288
3027.98559	0.05316
3026.69982	0.05330
3025.41405	0.05320
3024.12828	0.05299
3022.84251	0.05285
3021.55674	0.05279
3020.27097	0.05271
3018.98521	0.05250
3017.69944	0.05219
3016.41367	0.05187
3015.12790	0.05167
3013.84213	0.05161
3012.55636	0.05168
3011.27059	0.05180
3009.98482	0.05190
3008.69905	0.05192
3007.41329	0.05181
3006.12752	0.05160
3004.84175	0.05135
3003.55598	0.05115
3002.27021	0.05103
3000.98444	0.05096
2999.69867	0.05096
2998.41290	0.05106
2997.12714	0.05126
2995.84137	0.05149
2994.55560	0.05161
2993.26983	0.05149
2991.98406	0.05115
2990.69829	0.05076
2989.41252	0.05055
2988.12675	0.05061
2986.84098	0.05082
2985.55522	0.05104
2984.26945	0.05122
2982.98368	0.05129
2981.69791	0.05117
2980.41214	0.05095
2979.12637	0.05086
2977.84060	0.05102
2976.55483	0.05131
2975.26907	0.05153
2973.98330	0.05166
2972.69753	0.05184
2971.41176	0.05221
2970.12599	0.05275
2968.84022	0.05336
2967.55445	0.05393
2966.26868	0.05440
2964.98291	0.05474
2963.69715	0.05493
2962.41138	0.05500
2961.12561	0.05505
2959.83984	0.05523
2958.55407	0.05563
2957.26830	0.05618
2955.98253	0.05666
2954.69676	0.05690
2953.41100	0.05694
2952.12523	0.05685
2950.83946	0.05667
2949.55369	0.05638
2948.26792	0.05602
2946.98215	0.05565
2945.69638	0.05535
2944.41061	0.05516
2943.12484	0.05508
2941.83908	0.05508
2940.55331	0.05516
2939.26754	0.05535
2937.98177	0.05566
2936.69600	0.05609
2935.41023	0.05660
2934.12446	0.05709
2932.83869	0.05745
2931.55293	0.05761
2930.26716	0.05765
2928.98139	0.05776
2927.69562	0.05808
2926.40985	0.05856
2925.12408	0.05896
2923.83831	0.05900
2922.55254	0.05854
2921.26677	0.05772
2919.98101	0.05690
2918.69524	0.05631
2917.40947	0.05591
2916.12370	0.05551
2914.83793	0.05500
2913.55216	0.05446
2912.26639	0.05409
2910.98062	0.05400
2909.69486	0.05409
2908.40909	0.05415
2907.12332	0.05393
2905.83755	0.05339
2904.55178	0.05271
2903.26601	0.05216
2901.98024	0.05191
2900.69447	0.05190
2899.40870	0.05195
2898.12294	0.05187
2896.83717	0.05160
2895.55140	0.05115
2894.26563	0.05060
2892.97986	0.04998
2891.69409	0.04936
2890.40832	0.04881
2889.12255	0.04849
2887.83678	0.04846
2886.55102	0.04863
2885.26525	0.04873
2883.97948	0.04864
2882.69371	0.04848
2881.40794	0.04850
2880.12217	0.04879
2878.83640	0.04915
2877.55063	0.04932
2876.26487	0.04928
2874.97910	0.04920
2873.69333	0.04920
2872.40756	0.04928
2871.12179	0.04939
2869.83602	0.04949
2868.55025	0.04956
2867.26448	0.04948
2865.97871	0.04920
2864.69295	0.04882
2863.40718	0.04853
2862.12141	0.04837
2860.83564	0.04814
2859.54987	0.04766
2858.26410	0.04707
2856.97833	0.04668
2855.69256	0.04662
2854.40680	0.04674
2853.12103	0.04674
2851.83526	0.04643
2850.54949	0.04584
2849.26372	0.04516
2847.97795	0.04460
2846.69218	0.04425
2845.40641	0.04413
2844.12064	0.04418
2842.83488	0.04422
2841.54911	0.04406
2840.26334	0.04364
2838.97757	0.04319
2837.69180	0.04297
2836.40603	0.04294
2835.12026	0.04286
2833.83449	0.04255
2832.54873	0.04209
2831.26296	0.04164
2829.97719	0.04126
2828.69142	0.04092
2827.40565	0.04063
2826.11988	0.04043
2824.83411	0.04032
2823.54834	0.04022
2822.26257	0.04005
2820.97681	0.03984
2819.69104	0.03969
2818.40527	0.03965
2817.11950	0.03966
2815.83373	0.03958
2814.54796	0.03936
2813.26219	0.03908
2811.97642	0.03884
2810.69066	0.03875
2809.40489	0.03878
2808.11912	0.03886
2806.83335	0.03889
2805.54758	0.03878
2804.26181	0.03857
2802.97604	0.03832
2801.69027	0.03817
2800.40450	0.03815
2799.11874	0.03821
2797.83297	0.03824
2796.54720	0.03820
2795.26143	0.03807
2793.97566	0.03783
2792.68989	0.03748
2791.40412	0.03707
2790.11835	0.03674
2788.83259	0.03657
2787.54682	0.03655
2786.26105	0.03659
2784.97528	0.03668
2783.68951	0.03686
2782.40374	0.03708
2781.11797	0.03723
2779.83220	0.03717
2778.54643	0.03693
2777.26067	0.03669
2775.97490	0.03657
2774.68913	0.03657
2773.40336	0.03652
2772.11759	0.03631
2770.83182	0.03602
2769.54605	0.03582
2768.26028	0.03572
2766.97452	0.03562
2765.68875	0.03549
2764.40298	0.03542
2763.11721	0.03546
2761.83144	0.03548
2760.54567	0.03535
2759.25990	0.03517
2757.97413	0.03509
2756.68836	0.03518
2755.40260	0.03530
2754.11683	0.03535
2752.83106	0.03530
2751.54529	0.03521
2750.25952	0.03511
2748.97375	0.03506
2747.68798	0.03507
2746.40221	0.03503
2745.11645	0.03485
2743.83068	0.03456
2742.54491	0.03428
2741.25914	0.03417
2739.97337	0.03430
2738.68760	0.03457
2737.40183	0.03479
2736.11606	0.03481
2734.83029	0.03462
2733.54453	0.03441
2732.25876	0.03432
2730.97299	0.03438
2729.68722	0.03447
2728.40145	0.03444
2727.11568	0.03420
2725.82991	0.03379
2724.54414	0.03341
2723.25838	0.03326
2721.97261	0.03340
2720.68684	0.03368
2719.40107	0.03384
2718.11530	0.03377
2716.82953	0.03354
2715.54376	0.03332
2714.25799	0.03316
2712.97222	0.03299
2711.68646	0.03277
2710.40069	0.03258
2709.11492	0.03251
2707.82915	0.03256
2706.54338	0.03264
2705.25761	0.03266
2703.97184	0.03260
2702.68607	0.03244
2701.40031	0.03220
2700.11454	0.03193
2698.82877	0.03172
2697.54300	0.03167
2696.25723	0.03180
2694.97146	0.03208
2693.68569	0.03237
2692.39992	0.03257
2691.11415	0.03260
2689.82839	0.03251
2688.54262	0.03240
2687.25685	0.03235
2685.97108	0.03234
2684.68531	0.03230
2683.39954	0.03221
2682.11377	0.03211
2680.82800	0.03201
2679.54224	0.03189
2678.25647	0.03173
2676.97070	0.03153
2675.68493	0.03139
2674.39916	0.03135
2673.11339	0.03135
2671.82762	0.03129
2670.54185	0.03113
2669.25608	0.03097
2667.97032	0.03092
2666.68455	0.03102
2665.39878	0.03123
2664.11301	0.03142
2662.82724	0.03153
2661.54147	0.03153
2660.25570	0.03148
2658.96993	0.03143
2657.68417	0.03138
2656.39840	0.03128
2655.11263	0.03110
2653.82686	0.03083
2652.54109	0.03051
2651.25532	0.03020
2649.96955	0.02997
2648.68378	0.02986
2647.39801	0.02990
2646.11225	0.02998
2644.82648	0.03001
2643.54071	0.02997
2642.25494	0.02992
2640.96917	0.02987
2639.68340	0.02975
2638.39763	0.02957
2637.11186	0.02939
2635.82609	0.02930
2634.54033	0.02935
2633.25456	0.02948
2631.96879	0.02961
2630.68302	0.02968
2629.39725	0.02963
2628.11148	0.02939
2626.82571	0.02894
2625.53994	0.02839
2624.25418	0.02799
2622.96841	0.02788
2621.68264	0.02799
2620.39687	0.02810
2619.11110	0.02806
2617.82533	0.02783
2616.53956	0.02753
2615.25379	0.02731
2613.96802	0.02717
2612.68226	0.02711
2611.39649	0.02717
2610.11072	0.02740
2608.82495	0.02768
2607.53918	0.02778
2606.25341	0.02764
2604.96764	0.02744
2603.68187	0.02734
2602.39611	0.02731
2601.11034	0.02721
2599.82457	0.02699
2598.53880	0.02667
2597.25303	0.02633
2595.96726	0.02602
2594.68149	0.02579
2593.39572	0.02566
2592.10995	0.02556
2590.82419	0.02549
2589.53842	0.02553
2588.25265	0.02578
2586.96688	0.02618
2585.68111	0.02649
2584.39534	0.02654
2583.10957	0.02633
2581.82380	0.02599
2580.53804	0.02560
2579.25227	0.02520
2577.96650	0.02492
2576.68073	0.02486
2575.39496	0.02496
2574.10919	0.02507
2572.82342	0.02507
2571.53765	0.02492
2570.25188	0.02469
2568.96612	0.02451
2567.68035	0.02449
2566.39458	0.02465
2565.10881	0.02491
2563.82304	0.02514
2562.53727	0.02521
2561.25150	0.02502
2559.96573	0.02458
2558.67997	0.02405
2557.39420	0.02367
2556.10843	0.02354
2554.82266	0.02361
2553.53689	0.02376
2552.25112	0.02393
2550.96535	0.02404
2549.67958	0.02400
2548.39381	0.02374
2547.10805	0.02346
2545.82228	0.02343
2544.53651	0.02373
2543.25074	0.02414
2541.96497	0.02438
2540.67920	0.02445
2539.39343	0.02453
2538.10766	0.02463
2536.82190	0.02453
2535.53613	0.02410
2534.25036	0.02350
2532.96459	0.02301
2531.67882	0.02274
2530.39305	0.02257
2529.10728	0.02234
2527.82151	0.02210
2526.53574	0.02205
2525.24998	0.02230
2523.96421	0.02271
2522.67844	0.02299
2521.39267	0.02301
2520.10690	0.02285
2518.82113	0.02273
2517.53536	0.02277
2516.24959	0.02289
2514.96383	0.02293
2513.67806	0.02282
2512.39229	0.02269
2511.10652	0.02271
2509.82075	0.02292
2508.53498	0.02321
2507.24921	0.02345
2505.96344	0.02358
2504.67767	0.02359
2503.39191	0.02349
2502.10614	0.02328
2500.82037	0.02306
2499.53460	0.02289
2498.24883	0.02279
2496.96306	0.02270
2495.67729	0.02249
2494.39152	0.02212
2493.10576	0.02163
2491.81999	0.02114
2490.53422	0.02075
2489.24845	0.02054
2487.96268	0.02060
2486.67691	0.02101
2485.39114	0.02172
2484.10537	0.02247
2482.81960	0.02289
2481.53384	0.02288
2480.24807	0.02266
2478.96230	0.02248
2477.67653	0.02239
2476.39076	0.02229
2475.10499	0.02209
2473.81922	0.02180
2472.53345	0.02149
2471.24769	0.02127
2469.96192	0.02128
2468.67615	0.02153
2467.39038	0.02189
2466.10461	0.02214
2464.81884	0.02214
2463.53307	0.02191
2462.24730	0.02159
2460.96153	0.02136
2459.67577	0.02129
2458.39000	0.02135
2457.10423	0.02151
2455.81846	0.02172
2454.53269	0.02193
2453.24692	0.02203
2451.96115	0.02199
2450.67538	0.02190
2449.38962	0.02192
2448.10385	0.02207
2446.81808	0.02222
2445.53231	0.02219
2444.24654	0.02193
2442.96077	0.02160
2441.67500	0.02137
2440.38923	0.02129
2439.10346	0.02123
2437.81770	0.02109
2436.53193	0.02088
2435.24616	0.02066
2433.96039	0.02041
2432.67462	0.02006
2431.38885	0.01970
2430.10308	0.01948
2428.81731	0.01951
2427.53155	0.01974
2426.24578	0.02003
2424.96001	0.02027
2423.67424	0.02044
2422.38847	0.02057
2421.10270	0.02069
2419.81693	0.02076
2418.53116	0.02069
2417.24539	0.02047
2415.95963	0.02018
2414.67386	0.01998
2413.38809	0.01992
2412.10232	0.01994
2410.81655	0.01993
2409.53078	0.01992
2408.24501	0.02000
2406.95924	0.02019
2405.67347	0.02037
2404.38771	0.02040
2403.10194	0.02022
2401.81617	0.01993
2400.53040	0.01970
2399.24463	0.01968
2397.95886	0.01983
2396.67309	0.02007
2395.38732	0.02032
2394.10156	0.02043
2392.81579	0.02038
2391.53002	0.02026
2390.24425	0.02018
2388.95848	0.02020
2387.67271	0.02026
2386.38694	0.02031
2385.10117	0.02031
2383.81540	0.02027
2382.52964	0.02018
2381.24387	0.02003
2379.95810	0.01970
2378.67233	0.01906
2377.38656	0.01813
2376.10079	0.01705
2374.81502	0.01598
2373.52925	0.01494
2372.24349	0.01390
2370.95772	0.01284
2369.67195	0.01181
2368.38618	0.01078
2367.10041	0.00974
2365.81464	0.00875
2364.52887	0.00798
2363.24310	0.00762
2361.95733	0.00772
2360.67157	0.00819
2359.38580	0.00885
2358.10003	0.00962
2356.81426	0.01055
2355.52849	0.01174
2354.24272	0.01320
2352.95695	0.01470
2351.67118	0.01590
2350.38542	0.01655
2349.09965	0.01659
2347.81388	0.01617
2346.52811	0.01552
2345.24234	0.01477
2343.95657	0.01399
2342.67080	0.01322
2341.38503	0.01261
2340.09926	0.01225
2338.81350	0.01213
2337.52773	0.01213
2336.24196	0.01213
2334.95619	0.01204
2333.67042	0.01187
2332.38465	0.01169
2331.09888	0.01165
2329.81311	0.01189
2328.52735	0.01244
2327.24158	0.01325
2325.95581	0.01415
2324.67004	0.01499
2323.38427	0.01571
2322.09850	0.01631
2320.81273	0.01686
2319.52696	0.01737
2318.24119	0.01785
2316.95543	0.01829
2315.66966	0.01869
2314.38389	0.01903
2313.09812	0.01922
2311.81235	0.01923
2310.52658	0.01907
2309.24081	0.01887
2307.95504	0.01873
2306.66928	0.01863
2305.38351	0.01856
2304.09774	0.01856
2302.81197	0.01869
2301.52620	0.01896
2300.24043	0.01926
2298.95466	0.01941
2297.66889	0.01928
2296.38312	0.01896
2295.09736	0.01869
2293.81159	0.01872
2292.52582	0.01908
2291.24005	0.01959
2289.95428	0.02003
2288.66851	0.02028
2287.38274	0.02031
2286.09697	0.02011
2284.81121	0.01974
2283.52544	0.01939
2282.23967	0.01930
2280.95390	0.01943
2279.66813	0.01949
2278.38236	0.01924
2277.09659	0.01871
2275.81082	0.01814
2274.52505	0.01774
2273.23929	0.01761
2271.95352	0.01775
2270.66775	0.01807
2269.38198	0.01843
2268.09621	0.01863
2266.81044	0.01852
2265.52467	0.01805
2264.23890	0.01737
2262.95314	0.01673
2261.66737	0.01636
2260.38160	0.01630
2259.09583	0.01644
2257.81006	0.01653
2256.52429	0.01637
2255.23852	0.01599
2253.95275	0.01557
2252.66698	0.01535
2251.38122	0.01546
2250.09545	0.01597
2248.80968	0.01675
2247.52391	0.01701
2246.23814	0.01711
2244.95237	0.01719
2243.66660	0.01727
2242.38083	0.01713
2241.09507	0.01667
2239.80930	0.01604
2238.52353	0.01548
2237.23776	0.01500
2235.95199	0.01440
2234.66622	0.01361
2233.38045	0.01282
2232.09468	0.01231
2230.80891	0.01213
2229.52315	0.01209
2228.23738	0.01206
2226.95161	0.01215
2225.66584	0.01246
2224.38007	0.01293
2223.09430	0.01341
2221.80853	0.01385
2220.52276	0.01411
2219.23700	0.01400
2217.95123	0.01348
2216.66546	0.01281
2215.37969	0.01221
2214.09392	0.01163
2212.80815	0.01091
2211.52238	0.01013
2210.23661	0.00968
2208.95084	0.00981
2207.66508	0.01021
2206.37931	0.01017
2205.09354	0.00930
2203.80777	0.00810
2202.52200	0.00762
2201.23623	0.00849
2199.95046	0.01016
2198.66469	0.01135
2197.37893	0.01129
2196.09316	0.01039
2194.80739	0.00972
2193.52162	0.00978
2192.23585	0.01027
2190.95008	0.01071
2189.66431	0.01105
2188.37854	0.01135
2187.09277	0.01148
2185.80701	0.01128
2184.52124	0.01091
2183.23547	0.01058
2181.94970	0.01017
2180.66393	0.00936
2179.37816	0.00821
2178.09239	0.00714
2176.80662	0.00657
2175.52085	0.00657
2174.23509	0.00692
2172.94932	0.00734
2171.66355	0.00749
2170.37778	0.00708
2169.09201	0.00620
2167.80624	0.00542
2166.52047	0.00530
2165.23470	0.00563
2163.94894	0.00555
2162.66317	0.00451
2161.37740	0.00296
2160.09163	0.00191
2158.80586	0.00199
2157.52009	0.00299
2156.23432	0.00428
2154.94855	0.00536
2153.66278	0.00609
2152.37702	0.00656
2151.09125	0.00688
2149.80548	0.00709
2148.51971	0.00730
2147.23394	0.00767
2145.94817	0.00823
2144.66240	0.00870
2143.37663	0.00876
2142.09087	0.00833
2140.80510	0.00769
2139.51933	0.00725
2138.23356	0.00720
2136.94779	0.00738
2135.66202	0.00761
2134.37625	0.00802
2133.09048	0.00870
2131.80471	0.00931
2130.51895	0.00932
2129.23318	0.00867
2127.94741	0.00798
2126.66164	0.00793
2125.37587	0.00851
2124.09010	0.00920
2122.80433	0.00950
2121.51856	0.00945
2120.23280	0.00943
2118.94703	0.00980
2117.66126	0.01052
2116.37549	0.01119
2115.08972	0.01143
2113.80395	0.01130
2112.51818	0.01122
2111.23241	0.01141
2109.94664	0.01169
2108.66088	0.01180
2107.37511	0.01174
2106.08934	0.01154
2104.80357	0.01114
2103.51780	0.01053
2102.23203	0.00992
2100.94626	0.00954
2099.66049	0.01033
2098.37473	0.01047
2097.08896	0.00997
2095.80319	0.00939
2094.51742	0.00890
2093.23165	0.00859
2091.94588	0.00854
2090.66011	0.00877
2089.37434	0.00914
2088.08857	0.00947
2086.80281	0.00962
2085.51704	0.00961
2084.23127	0.00960
2082.94550	0.00971
2081.65973	0.00991
2080.37396	0.01000
2079.08819	0.00972
2077.80242	0.00912
2076.51666	0.00854
2075.23089	0.00831
2073.94512	0.00841
2072.65935	0.00850
2071.37358	0.00835
2070.08781	0.00803
2068.80204	0.00772
2067.51627	0.00751
2066.23050	0.00743
2064.94474	0.00748
2063.65897	0.00756
2062.37320	0.00749
2061.08743	0.00708
2059.80166	0.00633
2058.51589	0.00550
2057.23012	0.00488
2055.94435	0.00466
2054.65859	0.00492
2053.37282	0.00562
2052.08705	0.00663
2050.80128	0.00766
2049.51551	0.00840
2048.22974	0.00865
2046.94397	0.00830
2045.65820	0.00742
2044.37243	0.00623
2043.08667	0.00511
2041.80090	0.00429
2040.51513	0.00373
2039.22936	0.00317
2037.94359	0.00243
2036.65782	0.00162
2035.37205	0.00110
2034.08628	0.00123
2032.80052	0.00197
2031.51475	0.00304
2030.22898	0.00415
2028.94321	0.00519
2027.65744	0.00602
2026.37167	0.00626
2025.08590	0.00556
2023.80013	0.00406
2022.51436	0.00244
2021.22860	0.00151
2019.94283	0.00164
2018.65706	0.00248
2017.37129	0.00330
2016.08552	0.00349
2014.79975	0.00310
2013.51398	0.00283
2012.22821	0.00328
2010.94245	0.00433
2009.65668	0.00520
2008.37091	0.00529
2007.08514	0.00469
2005.79937	0.00402
2004.51360	0.00380
2003.22783	0.00415
2001.94206	0.00485
2000.65629	0.00557
1999.37053	0.00615
1998.08476	0.00657
1996.79899	0.00686
1995.51322	0.00701
1994.22745	0.00706
1992.94168	0.00706
1991.65591	0.00700
1990.37014	0.00684
1989.08438	0.00674
1987.79861	0.00695
1986.51284	0.00754
1985.22707	0.00834
1983.94130	0.00916
1982.65553	0.00999
1981.36976	0.01083
1980.08399	0.01150
1978.79822	0.01170
1977.51246	0.01128
1976.22669	0.01044
1974.94092	0.00948
1973.65515	0.00878
1972.36938	0.00857
1971.08361	0.00881
1969.79784	0.00911
1968.51207	0.00907
1967.22631	0.00853
1965.94054	0.00765
1964.65477	0.00676
1963.36900	0.00614
1962.08323	0.00581
1960.79746	0.00565
1959.51169	0.00557
1958.22592	0.00574
1956.94015	0.00634
1955.65439	0.00733
1954.36862	0.00838
1953.08285	0.00921
1951.79708	0.00973
1950.51131	0.00999
1949.22554	0.01004
1947.93977	0.00986
1946.65400	0.00951
1945.36823	0.00921
1944.08247	0.00920
1942.79670	0.00954
1941.51093	0.01010
1940.22516	0.01065
1938.93939	0.01092
1937.65362	0.01069
1936.36785	0.01003
1935.08208	0.00943
1933.79632	0.00937
1932.51055	0.00998
1931.22478	0.01096
1929.93901	0.01181
1928.65324	0.01216
1927.36747	0.01192
1926.08170	0.01133
1924.79593	0.01077
1923.51016	0.01052
1922.22440	0.01060
1920.93863	0.01089
1919.65286	0.01123
1918.36709	0.01147
1917.08132	0.01149
1915.79555	0.01136
1914.50978	0.01122
1913.22401	0.01120
1911.93825	0.01133
1910.65248	0.01156
1909.36671	0.01174
1908.08094	0.01181
1906.79517	0.01187
1905.50940	0.01206
1904.22363	0.01238
1902.93786	0.01266
1901.65209	0.01275
1900.36633	0.01265
1899.08056	0.01249
1897.79479	0.01236
1896.50902	0.01224
1895.22325	0.01207
1893.93748	0.01185
1892.65171	0.01167
1891.36594	0.01158
1890.08018	0.01149
1888.79441	0.01128
1887.50864	0.01101
1886.22287	0.01085
1884.93710	0.01086
1883.65133	0.01097
1882.36556	0.01111
1881.07979	0.01123
1879.79402	0.01137
1878.50826	0.01153
1877.22249	0.01171
1875.93672	0.01188
1874.65095	0.01199
1873.36518	0.01200
1872.07941	0.01193
1870.79364	0.01179
1869.50787	0.01158
1868.22211	0.01133
1866.93634	0.01116
1865.65057	0.01117
1864.36480	0.01125
1863.07903	0.01128
1861.79326	0.01124
1860.50749	0.01124
1859.22172	0.01135
1857.93595	0.01152
1856.65019	0.01158
1855.36442	0.01145
1854.07865	0.01124
1852.79288	0.01112
1851.50711	0.01113
1850.22134	0.01116
1848.93557	0.01111
1847.64980	0.01103
1846.36404	0.01114
1845.07827	0.01149
1843.79250	0.01182
1842.50673	0.01190
1841.22096	0.01175
1839.93519	0.01152
1838.64942	0.01131
1837.36365	0.01119
1836.07788	0.01119
1834.79212	0.01123
1833.50635	0.01130
1832.22058	0.01147
1830.93481	0.01172
1829.64904	0.01189
1828.36327	0.01192
1827.07750	0.01202
1825.79173	0.01231
1824.50597	0.01266
1823.22020	0.01293
1821.93443	0.01311
1820.64866	0.01320
1819.36289	0.01312
1818.07712	0.01284
1816.79135	0.01245
1815.50558	0.01212
1814.21981	0.01192
1812.93405	0.01184
1811.64828	0.01175
1810.36251	0.01163
1809.07674	0.01153
1807.79097	0.01156
1806.50520	0.01167
1805.21943	0.01178
1803.93366	0.01184
1802.64790	0.01189
1801.36213	0.01195
1800.07636	0.01200
1798.79059	0.01205
1797.50482	0.01213
1796.21905	0.01225
1794.93328	0.01246
1793.64751	0.01274
1792.36174	0.01292
1791.07598	0.01295
1789.79021	0.01297
1788.50444	0.01314
1787.21867	0.01339
1785.93290	0.01353
1784.64713	0.01345
1783.36136	0.01328
1782.07559	0.01318
1780.78983	0.01320
1779.50406	0.01323
1778.21829	0.01322
1776.93252	0.01320
1775.64675	0.01325
1774.36098	0.01343
1773.07521	0.01361
1771.78944	0.01359
1770.50367	0.01349
1769.21791	0.01358
1767.93214	0.01379
1766.64637	0.01387
1765.36060	0.01383
1764.07483	0.01389
1762.78906	0.01405
1761.50329	0.01409
1760.21752	0.01403
1758.93176	0.01407
1757.64599	0.01426
1756.36022	0.01440
1755.07445	0.01441
1753.78868	0.01450
1752.50291	0.01473
1751.21714	0.01486
1749.93137	0.01479
1748.64560	0.01472
1747.35984	0.01483
1746.07407	0.01507
1744.78830	0.01526
1743.50253	0.01533
1742.21676	0.01540
1740.93099	0.01555
1739.64522	0.01560
1738.35945	0.01544
1737.07369	0.01542
1735.78792	0.01583
1734.50215	0.01634
1733.21638	0.01644
1731.93061	0.01622
1730.64484	0.01623
1729.35907	0.01656
1728.07330	0.01692
1726.78753	0.01715
1725.50177	0.01734
1724.21600	0.01748
1722.93023	0.01751
1721.64446	0.01747
1720.35869	0.01765
1719.07292	0.01817
1717.78715	0.01872
1716.50138	0.01898
1715.21561	0.01903
1713.92985	0.01912
1712.64408	0.01934
1711.35831	0.01966
1710.07254	0.02004
1708.78677	0.02046
1707.50100	0.02088
1706.21523	0.02117
1704.92946	0.02123
1703.64370	0.02132
1702.35793	0.02190
1701.07216	0.02270
1699.78639	0.02306
1698.50062	0.02313
1697.21485	0.02357
1695.92908	0.02434
1694.64331	0.02481
1693.35754	0.02501
1692.07178	0.02542
1690.78601	0.02600
1689.50024	0.02637
1688.21447	0.02659
1686.92870	0.02713
1685.64293	0.02805
1684.35716	0.02876
1683.07139	0.02890
1681.78563	0.02890
1680.49986	0.02921
1679.21409	0.02979
1677.92832	0.03048
1676.64255	0.03120
1675.35678	0.03172
1674.07101	0.03189
1672.78524	0.03199
1671.49947	0.03238
1670.21371	0.03300
1668.92794	0.03353
1667.64217	0.03384
1666.35640	0.03412
1665.07063	0.03458
1663.78486	0.03515
1662.49909	0.03563
1661.21332	0.03598
1659.92756	0.03627
1658.64179	0.03646
1657.35602	0.03655
1656.07025	0.03686
1654.78448	0.03764
1653.49871	0.03835
1652.21294	0.03821
1650.92717	0.03749
1649.64140	0.03723
1648.35564	0.03779
1647.06987	0.03858
1645.78410	0.03897
1644.49833	0.03898
1643.21256	0.03899
1641.92679	0.03912
1640.64102	0.03923
1639.35525	0.03925
1638.06949	0.03940
1636.78372	0.03974
1635.49795	0.03996
1634.21218	0.03985
1632.92641	0.03969
1631.64064	0.03981
1630.35487	0.04020
1629.06910	0.04057
1627.78333	0.04069
1626.49757	0.04065
1625.21180	0.04064
1623.92603	0.04074
1622.64026	0.04077
1621.35449	0.04063
1620.06872	0.04061
1618.78295	0.04096
1617.49718	0.04147
1616.21142	0.04170
1614.92565	0.04163
1613.63988	0.04165
1612.35411	0.04198
1611.06834	0.04242
1609.78257	0.04277
1608.49680	0.04301
1607.21103	0.04324
1605.92526	0.04351
1604.63950	0.04381
1603.35373	0.04412
1602.06796	0.04436
1600.78219	0.04455
1599.49642	0.04470
1598.21065	0.04485
1596.92488	0.04502
1595.63911	0.04524
1594.35335	0.04550
1593.06758	0.04577
1591.78181	0.04603
1590.49604	0.04624
1589.21027	0.04640
1587.92450	0.04651
1586.63873	0.04664
1585.35296	0.04680
1584.06719	0.04700
1582.78143	0.04720
1581.49566	0.04730
1580.20989	0.04730
1578.92412	0.04746
1577.63835	0.04794
1576.35258	0.04843
1575.06681	0.04853
1573.78104	0.04840
1572.49528	0.04855
1571.20951	0.04907
1569.92374	0.04959
1568.63797	0.04985
1567.35220	0.04995
1566.06643	0.05003
1564.78066	0.04998
1563.49489	0.04975
1562.20912	0.04971
1560.92336	0.05016
1559.63759	0.05071
1558.35182	0.05080
1557.06605	0.05057
1555.78028	0.05063
1554.49451	0.05107
1553.20874	0.05151
1551.92297	0.05179
1550.63721	0.05198
1549.35144	0.05208
1548.06567	0.05205
1546.77990	0.05195
1545.49413	0.05177
1544.20836	0.05146
1542.92259	0.05119
1541.63682	0.05121
1540.35105	0.05140
1539.06529	0.05131
1537.77952	0.05089
1536.49375	0.05061
1535.20798	0.05084
1533.92221	0.05131
1532.63644	0.05164
1531.35067	0.05181
1530.06490	0.05209
1528.77914	0.05253
1527.49337	0.05300
1526.20760	0.05336
1524.92183	0.05369
1523.63606	0.05429
1522.35029	0.05521
1521.06452	0.05616
1519.77875	0.05701
1518.49298	0.05805
1517.20722	0.05938
1515.92145	0.06079
1514.63568	0.06212
1513.34991	0.06340
1512.06414	0.06461
1510.77837	0.06577
1509.49260	0.06715
1508.20683	0.06894
1506.92107	0.07084
1505.63530	0.07234
1504.34953	0.07345
1503.06376	0.07457
1501.77799	0.07582
1500.49222	0.07704
1499.20645	0.07814
1497.92068	0.07923
1496.63491	0.08025
1495.34915	0.08104
1494.06338	0.08170
1492.77761	0.08249
1491.49184	0.08349
1490.20607	0.08456
1488.92030	0.08562
1487.63453	0.08674
1486.34876	0.08794
1485.06299	0.08917
1483.77723	0.09046
1482.49146	0.09183
1481.20569	0.09325
1479.91992	0.09464
1478.63415	0.09599
1477.34838	0.09725
1476.06261	0.09843
1474.77684	0.09959
1473.49108	0.10074
1472.20531	0.10165
1470.91954	0.10221
1469.63377	0.10257
1468.34800	0.10297
1467.06223	0.10347
1465.77646	0.10396
1464.49069	0.10428
1463.20492	0.10446
1461.91916	0.10465
1460.63339	0.10506
1459.34762	0.10581
1458.06185	0.10678
1456.77608	0.10759
1455.49031	0.10807
1454.20454	0.10851
1452.91877	0.10915
1451.63301	0.10990
1450.34724	0.11057
1449.06147	0.11109
1447.77570	0.11144
1446.48993	0.11155
1445.20416	0.11147
1443.91839	0.11126
1442.63262	0.11089
1441.34685	0.11035
1440.06109	0.10982
1438.77532	0.10957
1437.48955	0.10960
1436.20378	0.10967
1434.91801	0.10974
1433.63224	0.11009
1432.34647	0.11091
1431.06070	0.11211
1429.77494	0.11350
1428.48917	0.11505
1427.20340	0.11676
1425.91763	0.11861
1424.63186	0.12042
1423.34609	0.12207
1422.06032	0.12367
1420.77455	0.12536
1419.48878	0.12696
1418.20302	0.12820
1416.91725	0.12909
1415.63148	0.12981
1414.34571	0.13038
1413.05994	0.13068
1411.77417	0.13064
1410.48840	0.13027
1409.20263	0.12956
1407.91687	0.12854
1406.63110	0.12726
1405.34533	0.12572
1404.05956	0.12392
1402.77379	0.12189
1401.48802	0.11973
1400.20225	0.11742
1398.91648	0.11492
1397.63071	0.11226
1396.34495	0.10959
1395.05918	0.10694
1393.77341	0.10417
1392.48764	0.10128
1391.20187	0.09843
1389.91610	0.09573
1388.63033	0.09314
1387.34456	0.09052
1386.05880	0.08782
1384.77303	0.08513
1383.48726	0.08256
1382.20149	0.08008
1380.91572	0.07760
1379.62995	0.07506
1378.34418	0.07246
1377.05841	0.06985
1375.77264	0.06731
1374.48688	0.06484
1373.20111	0.06240
1371.91534	0.06000
1370.62957	0.05774
1369.34380	0.05562
1368.05803	0.05363
1366.77226	0.05175
1365.48649	0.05002
1364.20073	0.04841
1362.91496	0.04686
1361.62919	0.04532
1360.34342	0.04385
1359.05765	0.04253
1357.77188	0.04139
1356.48611	0.04036
1355.20034	0.03938
1353.91457	0.03841
1352.62881	0.03745
1351.34304	0.03654
1350.05727	0.03574
1348.77150	0.03505
1347.48573	0.03441
1346.19996	0.03378
1344.91419	0.03312
1343.62842	0.03246
1342.34266	0.03185
1341.05689	0.03130
1339.77112	0.03081
1338.48535	0.03032
1337.19958	0.02987
1335.91381	0.02946
1334.62804	0.02907
1333.34227	0.02867
1332.05650	0.02825
1330.77074	0.02784
1329.48497	0.02747
1328.19920	0.02718
1326.91343	0.02696
1325.62766	0.02676
1324.34189	0.02658
1323.05612	0.02640
1321.77035	0.02619
1320.48459	0.02593
1319.19882	0.02560
1317.91305	0.02524
1316.62728	0.02492
1315.34151	0.02468
1314.05574	0.02454
1312.76997	0.02443
1311.48420	0.02432
1310.19843	0.02415
1308.91267	0.02393
1307.62690	0.02365
1306.34113	0.02336
1305.05536	0.02309
1303.76959	0.02288
1302.48382	0.02272
1301.19805	0.02260
1299.91228	0.02249
1298.62652	0.02236
1297.34075	0.02222
1296.05498	0.02206
1294.76921	0.02191
1293.48344	0.02177
1292.19767	0.02168
1290.91190	0.02161
1289.62613	0.02157
1288.34036	0.02153
1287.05460	0.02145
1285.76883	0.02133
1284.48306	0.02117
1283.19729	0.02099
1281.91152	0.02082
1280.62575	0.02071
1279.33998	0.02065
1278.05421	0.02061
1276.76845	0.02054
1275.48268	0.02042
1274.19691	0.02026
1272.91114	0.02008
1271.62537	0.01992
1270.33960	0.01978
1269.05383	0.01969
1267.76806	0.01966
1266.48229	0.01967
1265.19653	0.01968
1263.91076	0.01964
1262.62499	0.01957
1261.33922	0.01949
1260.05345	0.01941
1258.76768	0.01934
1257.48191	0.01928
1256.19614	0.01921
1254.91037	0.01915
1253.62461	0.01909
1252.33884	0.01903
1251.05307	0.01894
1249.76730	0.01882
1248.48153	0.01869
1247.19576	0.01858
1245.90999	0.01852
1244.62422	0.01851
1243.33846	0.01852
1242.05269	0.01851
1240.76692	0.01847
1239.48115	0.01837
1238.19538	0.01823
1236.90961	0.01808
1235.62384	0.01798
1234.33807	0.01792
1233.05230	0.01789
1231.76654	0.01784
1230.48077	0.01775
1229.19500	0.01764
1227.90923	0.01753
1226.62346	0.01745
1225.33769	0.01739
1224.05192	0.01734
1222.76615	0.01727
1221.48039	0.01717
1220.19462	0.01706
1218.90885	0.01697
1217.62308	0.01690
1216.33731	0.01686
1215.05154	0.01683
1213.76577	0.01684
1212.48000	0.01685
1211.19423	0.01686
1209.90847	0.01686
1208.62270	0.01686
1207.33693	0.01689
1206.05116	0.01692
1204.76539	0.01694
1203.47962	0.01695
1202.19385	0.01699
1200.90808	0.01697
1199.62232	0.01683
1198.33655	0.01683
1197.05078	0.01684
1195.76501	0.01684
1194.47924	0.01682
1193.19347	0.01681
1191.90770	0.01682
1190.62193	0.01687
1189.33616	0.01693
1188.05040	0.01697
1186.76463	0.01700
1185.47886	0.01703
1184.19309	0.01707
1182.90732	0.01713
1181.62155	0.01722
1180.33578	0.01733
1179.05001	0.01744
1177.76425	0.01752
1176.47848	0.01757
1175.19271	0.01764
1173.90694	0.01776
1172.62117	0.01795
1171.33540	0.01815
1170.04963	0.01832
1168.76386	0.01848
1167.47809	0.01867
1166.19233	0.01894
1164.90656	0.01924
1163.62079	0.01953
1162.33502	0.01978
1161.04925	0.02005
1159.76348	0.02039
1158.47771	0.02081
1157.19194	0.02129
1155.90618	0.02176
1154.62041	0.02220
1153.33464	0.02268
1152.04887	0.02324
1150.76310	0.02384
1149.47733	0.02443
1148.19156	0.02502
1146.90579	0.02570
1145.62002	0.02656
1144.33426	0.02756
1143.04849	0.02859
1141.76272	0.02964
1140.47695	0.03077
1139.19118	0.03210
1137.90541	0.03364
1136.61964	0.03537
1135.33387	0.03721
1134.04811	0.03915
1132.76234	0.04125
1131.47657	0.04358
1130.19080	0.04619
1128.90503	0.04909
1127.61926	0.05224
1126.33349	0.05562
1125.04772	0.05920
1123.76195	0.06296
1122.47619	0.06685
1121.19042	0.07085
1119.90465	0.07497
1118.61888	0.07921
1117.33311	0.08352
1116.04734	0.08782
1114.76157	0.09203
1113.47580	0.09612
1112.19004	0.10014
1110.90427	0.10416
1109.61850	0.10819
1108.33273	0.11215
1107.04696	0.11599
1105.76119	0.11970
1104.47542	0.12330
1103.18965	0.12683
1101.90388	0.13030
1100.61812	0.13373
1099.33235	0.13712
1098.04658	0.14044
1096.76081	0.14363
1095.47504	0.14666
1094.18927	0.14956
1092.90350	0.15236
1091.61773	0.15511
1090.33197	0.15781
1089.04620	0.16044
1087.76043	0.16300
1086.47466	0.16555
1085.18889	0.16813
1083.90312	0.17074
1082.61735	0.17338
1081.33158	0.17611
1080.04581	0.17904
1078.76005	0.18227
1077.47428	0.18580
1076.18851	0.18949
1074.90274	0.19324
1073.61697	0.19703
1072.33120	0.20092
1071.04543	0.20496
1069.75966	0.20921
1068.47390	0.21365
1067.18813	0.21826
1065.90236	0.22299
1064.61659	0.22784
1063.33082	0.23284
1062.04505	0.23792
1060.75928	0.24298
1059.47351	0.24793
1058.18774	0.25275
1056.90198	0.25746
1055.61621	0.26213
1054.33044	0.26682
1053.04467	0.27159
1051.75890	0.27643
1050.47313	0.28134
1049.18736	0.28635
1047.90159	0.29148
1046.61583	0.29671
1045.33006	0.30201
1044.04429	0.30740
1042.75852	0.31292
1041.47275	0.31861
1040.18698	0.32450
1038.90121	0.33056
1037.61544	0.33673
1036.32967	0.34291
1035.04391	0.34900
1033.75814	0.35494
1032.47237	0.36065
1031.18660	0.36607
1029.90083	0.37112
1028.61506	0.37576
1027.32929	0.37998
1026.04352	0.38378
1024.75775	0.38715
1023.47199	0.38997
1022.18622	0.39215
1020.90045	0.39363
1019.61468	0.39447
1018.32891	0.39465
1017.04314	0.39404
1015.75737	0.39242
1014.47160	0.38974
1013.18584	0.38614
1011.90007	0.38170
1010.61430	0.37638
1009.32853	0.37006
1008.04276	0.36269
1006.75699	0.35434
1005.47122	0.34512
1004.18545	0.33511
1002.89968	0.32436
1001.61392	0.31293
1000.32815	0.30098
999.04238	0.28870
997.75661	0.27622
996.47084	0.26361
995.18507	0.25098
993.89930	0.23844
992.61353	0.22619
991.32777	0.21435
990.04200	0.20300
988.75623	0.19218
987.47046	0.18195
986.18469	0.17235
984.89892	0.16338
983.61315	0.15501
982.32738	0.14723
981.04161	0.14003
979.75585	0.13340
978.47008	0.12740
977.18431	0.12207
975.89854	0.11745
974.61277	0.11356
973.32700	0.11041
972.04123	0.10807
970.75546	0.10661
969.46970	0.10605
968.18393	0.10633
966.89816	0.10736
965.61239	0.10897
964.32662	0.11086
963.04085	0.11261
961.75508	0.11382
960.46931	0.11418
959.18354	0.11352
957.89778	0.11185
956.61201	0.10928
955.32624	0.10604
954.04047	0.10243
952.75470	0.09870
951.46893	0.09501
950.18316	0.09143
948.89739	0.08794
947.61163	0.08451
946.32586	0.08119
945.04009	0.07804
943.75432	0.07507
942.46855	0.07227
941.18278	0.06962
939.89701	0.06713
938.61124	0.06480
937.32547	0.06268
936.03971	0.06079
934.75394	0.05910
933.46817	0.05754
932.18240	0.05610
930.89663	0.05479
929.61086	0.05362
928.32509	0.05258
927.03932	0.05160
925.75356	0.05068
924.46779	0.04981
923.18202	0.04900
921.89625	0.04824
920.61048	0.04752
919.32471	0.04687
918.03894	0.04630
916.75317	0.04580
915.46740	0.04533
914.18164	0.04489
912.89587	0.04445
911.61010	0.04401
910.32433	0.04359
909.03856	0.04325
907.75279	0.04302
906.46702	0.04282
905.18125	0.04255
903.89549	0.04220
902.60972	0.04184
901.32395	0.04157
900.03818	0.04139
898.75241	0.04125
897.46664	0.04109
896.18087	0.04094
894.89510	0.04081
893.60933	0.04073
892.32357	0.04073
891.03780	0.04089
889.75203	0.04133
888.46626	0.04215
887.18049	0.04344
885.89472	0.04537
884.60895	0.04813
883.32318	0.05174
882.03742	0.05588
880.75165	0.05989
879.46588	0.06313
878.18011	0.06545
876.89434	0.06729
875.60857	0.06920
874.32280	0.07131
873.03703	0.07317
871.75126	0.07406
870.46550	0.07355
869.17973	0.07167
867.89396	0.06881
866.60819	0.06541
865.32242	0.06185
864.03665	0.05840
862.75088	0.05525
861.46511	0.05247
860.17935	0.05005
858.89358	0.04798
857.60781	0.04626
856.32204	0.04492
855.03627	0.04398
853.75050	0.04331
852.46473	0.04269
851.17896	0.04198
849.89319	0.04120
848.60743	0.04053
847.32166	0.04006
846.03589	0.03976
844.75012	0.03950
843.46435	0.03923
842.17858	0.03895
840.89281	0.03870
839.60704	0.03847
838.32128	0.03821
837.03551	0.03792
835.74974	0.03768
834.46397	0.03755
833.17820	0.03751
831.89243	0.03748
830.60666	0.03735
829.32089	0.03714
828.03512	0.03694
826.74936	0.03682
825.46359	0.03678
824.17782	0.03675
822.89205	0.03669
821.60628	0.03660
820.32051	0.03651
819.03474	0.03646
817.74897	0.03647
816.46321	0.03648
815.17744	0.03646
813.89167	0.03637
812.60590	0.03628
811.32013	0.03623
810.03436	0.03621
808.74859	0.03616
807.46282	0.03609
806.17705	0.03601
804.89129	0.03597
803.60552	0.03600
802.31975	0.03604
801.03398	0.03604
799.74821	0.03596
798.46244	0.03586
797.17667	0.03583
795.89090	0.03586
794.60513	0.03585
793.31937	0.03572
792.03360	0.03556
790.74783	0.03548
789.46206	0.03553
788.17629	0.03564
786.89052	0.03576
785.60475	0.03588
784.31898	0.03600
783.03322	0.03607
781.74745	0.03601
780.46168	0.03583
779.17591	0.03561
777.89014	0.03547
776.60437	0.03546
775.31860	0.03554
774.03283	0.03565
772.74706	0.03574
771.46130	0.03579
770.17553	0.03580
768.88976	0.03582
767.60399	0.03586
766.31822	0.03589
765.03245	0.03588
763.74668	0.03588
762.46091	0.03598
761.17515	0.03622
759.88938	0.03652
758.60361	0.03673
757.31784	0.03685
756.03207	0.03693
754.74630	0.03699
753.46053	0.03699
752.17476	0.03694
750.88899	0.03687
749.60323	0.03684
748.31746	0.03682
747.03169	0.03679
745.74592	0.03671
744.46015	0.03655
743.17438	0.03633
741.88861	0.03615
740.60284	0.03612
739.31708	0.03621
738.03131	0.03626
736.74554	0.03618
735.45977	0.03602
734.17400	0.03589
732.88823	0.03587
731.60246	0.03596
730.31669	0.03610
729.03092	0.03624
727.74516	0.03636
726.45939	0.03645
725.17362	0.03652
723.88785	0.03647
722.60208	0.03661
721.31631	0.03683
720.03054	0.03701
718.74477	0.03711
717.45901	0.03715
716.17324	0.03714
714.88747	0.03709
713.60170	0.03699
712.31593	0.03686
711.03016	0.03670
709.74439	0.03658
708.45862	0.03651
707.17285	0.03652
705.88709	0.03656
704.60132	0.03661
703.31555	0.03664
702.02978	0.03667
700.74401	0.03668
699.45824	0.03669
698.17247	0.03669
696.88670	0.03672
695.60094	0.03677
694.31517	0.03682
693.02940	0.03687
691.74363	0.03692
690.45786	0.03698
689.17209	0.03703
687.88632	0.03705
686.60055	0.03699
685.31478	0.03686
684.02902	0.03670
682.74325	0.03656
681.45748	0.03646
680.17171	0.03636
678.88594	0.03625
677.60017	0.03617
676.31440	0.03618
675.02863	0.03630
673.74287	0.03649
672.45710	0.03664
671.17133	0.03666
669.88556	0.03656
668.59979	0.03648
667.31402	0.03655
666.02825	0.03673
664.74248	0.03685
663.45671	0.03682
662.17095	0.03671
660.88518	0.03659
659.59941	0.03650
658.31364	0.03640
657.02787	0.03628
655.74210	0.03617
654.45633	0.03609
653.17056	0.03606
651.88480	0.03608
650.59903	0.03612
649.31326	0.03618
648.02749	0.03627
646.74172	0.03643
645.45595	0.03664
644.17018	0.03687
642.88441	0.03706
641.59864	0.03720
640.31288	0.03738
639.02711	0.03765
637.74134	0.03805
636.45557	0.03854
635.16980	0.03910
633.88403	0.03969
632.59826	0.04026
631.31249	0.04091
630.02673	0.04231
628.74096	0.04422
627.45519	0.04420
626.16942	0.04683
624.88365	0.05139
623.59788	0.05604
622.31211	0.05995
621.02634	0.06276
619.74057	0.06451
618.45481	0.06573
617.16904	0.06718
615.88327	0.06938
614.59750	0.07256
613.31173	0.07704
612.02596	0.08308
610.74019	0.09045
609.45442	0.09813
608.16866	0.10517
606.88289	0.11149
605.59712	0.11749
604.31135	0.12317
603.02558	0.12775
601.73981	0.13016
600.45404	0.12990
599.16827	0.12739
597.88250	0.12355
596.59674	0.11930
595.31097	0.11520
594.02520	0.11157
592.73943	0.10865
591.45366	0.10655
590.16789	0.10531
588.88212	0.10491
587.59635	0.10535
586.31059	0.10661
585.02482	0.10858
583.73905	0.11103
582.45328	0.11380
581.16751	0.11687
579.88174	0.12032
578.59597	0.12418
577.31020	0.12825
576.02443	0.13223
574.73867	0.13596
573.45290	0.13953
572.16713	0.14319
570.88136	0.14717
569.59559	0.15163
568.30982	0.15672
567.02405	0.16250
565.73828	0.16864
564.45251	0.17440
563.16675	0.17885
561.88098	0.18124
560.59521	0.18115
559.30944	0.17838
558.02367	0.17295
556.73790	0.16521
555.45213	0.15585
554.16636	0.14573
552.88060	0.13569
551.59483	0.12629
550.30906	0.11776
549.02329	0.11008
547.73752	0.10318
546.45175	0.09701
545.16598	0.09157
543.88021	0.08677
542.59444	0.08246
541.30868	0.07858
540.02291	0.07513
538.73714	0.07214
537.45137	0.06958
536.16560	0.06732
534.87983	0.06519
533.59406	0.06308
532.30829	0.06098
531.02253	0.05896
529.73676	0.05712
528.45099	0.05550
527.16522	0.05405
525.87945	0.05270
524.59368	0.05137
523.30791	0.05009
522.02214	0.04888
520.73637	0.04774
519.45061	0.04662
518.16484	0.04552
516.87907	0.04451
515.59330	0.04368
514.30753	0.04300
513.02176	0.04238
511.73599	0.04172
510.45022	0.04101
509.16446	0.04029
507.87869	0.03961
506.59292	0.03901
505.30715	0.03848
504.02138	0.03801
502.73561	0.03752
501.44984	0.03700
500.16407	0.03647
498.87830	0.03601
497.59254	0.03566
496.30677	0.03539
495.02100	0.03513
493.73523	0.03479
492.44946	0.03437
491.16369	0.03393
489.87792	0.03359
488.59215	0.03341
487.30639	0.03335
486.02062	0.03332
484.73485	0.03328
483.44908	0.03326
482.16331	0.03329
480.87754	0.03338
479.59177	0.03354
478.30600	0.03375
477.02023	0.03405
475.73447	0.03440
474.44870	0.03477
473.16293	0.03505
471.87716	0.03518
470.59139	0.03515
469.30562	0.03498
468.01985	0.03472
466.73408	0.03441
465.44832	0.03410
464.16255	0.03380
462.87678	0.03349
461.59101	0.03312
460.30524	0.03275
459.01947	0.03245
457.73370	0.03223
456.44793	0.03201
455.16216	0.03176
453.87640	0.03146
452.59063	0.03110
451.30486	0.03071
450.01909	0.03035
448.73332	0.03010
447.44755	0.02992
446.16178	0.02977
444.87601	0.02957
443.59025	0.02935
442.30448	0.02916
441.01871	0.02901
439.73294	0.02890
438.44717	0.02882
437.16140	0.02877
435.87563	0.02877
434.58986	0.02881
433.30409	0.02882
432.01833	0.02877
430.73256	0.02864
429.44679	0.02846
428.16102	0.02827
426.87525	0.02810
425.58948	0.02793
424.30371	0.02775
423.01794	0.02754
421.73218	0.02736
420.44641	0.02728
419.16064	0.02727
417.87487	0.02728
416.58910	0.02731
415.30333	0.02734
414.01756	0.02734
412.73179	0.02731
411.44602	0.02731
410.16026	0.02736
408.87449	0.02744
407.58872	0.02752
406.30295	0.02757
405.01718	0.02759
403.73141	0.02760
402.44564	0.02763
401.15987	0.02770
399.87411	0.02783
