3997.45528	0.07953
3996.16951	0.07902
3994.88374	0.07848
3993.59798	0.07801
3992.31221	0.07765
3991.02644	0.07734
3989.74067	0.07709
3988.45490	0.07698
3987.16913	0.07713
3985.88336	0.07753
3984.59759	0.07813
3983.31183	0.07881
3982.02606	0.07937
3980.74029	0.07950
3979.45452	0.07914
3978.16875	0.07858
3976.88298	0.07833
3975.59721	0.07859
3974.31144	0.07903
3973.02567	0.07914
3971.73991	0.07873
3970.45414	0.07801
3969.16837	0.07736
3967.88260	0.07713
3966.59683	0.07746
3965.31106	0.07817
3964.02529	0.07886
3962.73952	0.07917
3961.45376	0.07902
3960.16799	0.07859
3958.88222	0.07808
3957.59645	0.07764
3956.31068	0.07741
3955.02491	0.07751
3953.73914	0.07779
3952.45337	0.07798
3951.16760	0.07792
3949.88184	0.07779
3948.59607	0.07779
3947.31030	0.07797
3946.02453	0.07821
3944.73876	0.07833
3943.45299	0.07818
3942.16722	0.07770
3940.88145	0.07699
3939.59569	0.07636
3938.30992	0.07607
3937.02415	0.07615
3935.73838	0.07631
3934.45261	0.07632
3933.16684	0.07616
3931.88107	0.07598
3930.59530	0.07584
3929.30953	0.07578
3928.02377	0.07576
3926.73800	0.07568
3925.45223	0.07544
3924.16646	0.07508
3922.88069	0.07483
3921.59492	0.07488
3920.30915	0.07518
3919.02338	0.07544
3917.73762	0.07543
3916.45185	0.07527
3915.16608	0.07512
3913.88031	0.07496
3912.59454	0.07477
3911.30877	0.07477
3910.02300	0.07519
3908.73723	0.07589
3907.45146	0.07638
3906.16570	0.07622
3904.87993	0.07550
3903.59416	0.07472
3902.30839	0.07430
3901.02262	0.07434
3899.73685	0.07471
3898.45108	0.07519
3897.16531	0.07569
3895.87955	0.07619
3894.59378	0.07659
3893.30801	0.07657
3892.02224	0.07601
3890.73647	0.07530
3889.45070	0.07492
3888.16493	0.07497
3886.87916	0.07524
3885.59339	0.07555
3884.30763	0.07561
3883.02186	0.07526
3881.73609	0.07481
3880.45032	0.07483
3879.16455	0.07527
3877.87878	0.07550
3876.59301	0.07516
3875.30724	0.07466
3874.02148	0.07452
3872.73571	0.07467
3871.44994	0.07479
3870.16417	0.07491
3868.87840	0.07518
3867.59263	0.07532
3866.30686	0.07510
3865.02109	0.07473
3863.73532	0.07451
3862.44956	0.07442
3861.16379	0.07439
3859.87802	0.07439
3858.59225	0.07431
3857.30648	0.07409
3856.02071	0.07390
3854.73494	0.07407
3853.44917	0.07461
3852.16341	0.07494
3850.87764	0.07445
3849.59187	0.07335
3848.30610	0.07223
3847.02033	0.07142
3845.73456	0.07093
3844.44879	0.07076
3843.16302	0.07093
3841.87725	0.07127
3840.59149	0.07145
3839.30572	0.07141
3838.01995	0.07140
3836.73418	0.07160
3835.44841	0.07183
3834.16264	0.07191
3832.87687	0.07203
3831.59110	0.07240
3830.30534	0.07281
3829.01957	0.07285
3827.73380	0.07250
3826.44803	0.07220
3825.16226	0.07227
3823.87649	0.07233
3822.59072	0.07201
3821.30495	0.07155
3820.01918	0.07145
3818.73342	0.07163
3817.44765	0.07170
3816.16188	0.07169
3814.87611	0.07180
3813.59034	0.07188
3812.30457	0.07176
3811.01880	0.07156
3809.73303	0.07133
3808.44726	0.07099
3807.16150	0.07070
3805.87573	0.07069
3804.58996	0.07087
3803.30419	0.07111
3802.01842	0.07152
3800.73265	0.07208
3799.44688	0.07221
3798.16111	0.07156
3796.87535	0.07070
3795.58958	0.07041
3794.30381	0.07082
3793.01804	0.07150
3791.73227	0.07196
3790.44650	0.07182
3789.16073	0.07099
3787.87496	0.06980
3786.58919	0.06879
3785.30343	0.06828
3784.01766	0.06816
3782.73189	0.06804
3781.44612	0.06777
3780.16035	0.06755
3778.87458	0.06764
3777.58881	0.06788
3776.30304	0.06798
3775.01728	0.06801
3773.73151	0.06824
3772.44574	0.06864
3771.15997	0.06893
3769.87420	0.06894
3768.58843	0.06868
3767.30266	0.06820
3766.01689	0.06765
3764.73112	0.06736
3763.44536	0.06749
3762.15959	0.06793
3760.87382	0.06842
3759.58805	0.06866
3758.30228	0.06848
3757.01651	0.06799
3755.73074	0.06744
3754.44497	0.06704
3753.15921	0.06699
3751.87344	0.06737
3750.58767	0.06787
3749.30190	0.06810
3748.01613	0.06789
3746.73036	0.06731
3745.44459	0.06685
3744.15882	0.06718
3742.87305	0.06808
3741.58729	0.06855
3740.30152	0.06821
3739.01575	0.06751
3737.72998	0.06693
3736.44421	0.06677
3735.15844	0.06703
3733.87267	0.06735
3732.58690	0.06742
3731.30114	0.06732
3730.01537	0.06720
3728.72960	0.06704
3727.44383	0.06687
3726.15806	0.06683
3724.87229	0.06694
3723.58652	0.06710
3722.30075	0.06716
3721.01498	0.06702
3719.72922	0.06670
3718.44345	0.06646
3717.15768	0.06664
3715.87191	0.06725
3714.58614	0.06786
3713.30037	0.06809
3712.01460	0.06782
3710.72883	0.06724
3709.44307	0.06653
3708.15730	0.06585
3706.87153	0.06530
3705.58576	0.06498
3704.29999	0.06502
3703.01422	0.06542
3701.72845	0.06585
3700.44268	0.06585
3699.15691	0.06522
3697.87115	0.06428
3696.58538	0.06354
3695.29961	0.06317
3694.01384	0.06295
3692.72807	0.06276
3691.44230	0.06271
3690.15653	0.06304
3688.87076	0.06380
3687.58500	0.06479
3686.29923	0.06553
3685.01346	0.06571
3683.72769	0.06552
3682.44192	0.06530
3681.15615	0.06511
3679.87038	0.06489
3678.58461	0.06465
3677.29884	0.06454
3676.01308	0.06482
3674.72731	0.06547
3673.44154	0.06590
3672.15577	0.06569
3670.87000	0.06530
3669.58423	0.06539
3668.29846	0.06589
3667.01269	0.06631
3665.72693	0.06649
3664.44116	0.06658
3663.15539	0.06670
3661.86962	0.06681
3660.58385	0.06677
3659.29808	0.06645
3658.01231	0.06595
3656.72654	0.06570
3655.44077	0.06599
3654.15501	0.06658
3652.86924	0.06699
3651.58347	0.06707
3650.29770	0.06702
3649.01193	0.06701
3647.72616	0.06709
3646.44039	0.06728
3645.15462	0.06755
3643.86886	0.06790
3642.58309	0.06836
3641.29732	0.06899
3640.01155	0.06972
3638.72578	0.07029
3637.44001	0.07046
3636.15424	0.07007
3634.86847	0.06933
3633.58270	0.06876
3632.29694	0.06880
3631.01117	0.06948
3629.72540	0.07052
3628.43963	0.07152
3627.15386	0.07202
3625.86809	0.07184
3624.58232	0.07133
3623.29655	0.07085
3622.01079	0.07040
3620.72502	0.06993
3619.43925	0.06963
3618.15348	0.06968
3616.86771	0.07000
3615.58194	0.07056
3614.29617	0.07153
3613.01040	0.07293
3611.72463	0.07431
3610.43887	0.07512
3609.15310	0.07527
3607.86733	0.07515
3606.58156	0.07507
3605.29579	0.07503
3604.01002	0.07488
3602.72425	0.07456
3601.43848	0.07419
3600.15272	0.07408
3598.86695	0.07447
3597.58118	0.07532
3596.29541	0.07624
3595.00964	0.07676
3593.72387	0.07684
3592.43810	0.07679
3591.15233	0.07697
3589.86656	0.07740
3588.58080	0.07782
3587.29503	0.07798
3586.00926	0.07788
3584.72349	0.07770
3583.43772	0.07775
3582.15195	0.07822
3580.86618	0.07909
3579.58041	0.08010
3578.29464	0.08102
3577.00888	0.08183
3575.72311	0.08262
3574.43734	0.08333
3573.15157	0.08373
3571.86580	0.08369
3570.58003	0.08336
3569.29426	0.08304
3568.00849	0.08296
3566.72273	0.08311
3565.43696	0.08329
3564.15119	0.08327
3562.86542	0.08301
3561.57965	0.08265
3560.29388	0.08244
3559.00811	0.08258
3557.72234	0.08299
3556.43657	0.08335
3555.15081	0.08344
3553.86504	0.08339
3552.57927	0.08350
3551.29350	0.08386
3550.00773	0.08434
3548.72196	0.08477
3547.43619	0.08507
3546.15042	0.08523
3544.86466	0.08532
3543.57889	0.08553
3542.29312	0.08608
3541.00735	0.08693
3539.72158	0.08772
3538.43581	0.08807
3537.15004	0.08796
3535.86427	0.08771
3534.57850	0.08754
3533.29274	0.08741
3532.00697	0.08730
3530.72120	0.08751
3529.43543	0.08834
3528.14966	0.08958
3526.86389	0.09053
3525.57812	0.09068
3524.29235	0.09014
3523.00659	0.08944
3521.72082	0.08896
3520.43505	0.08888
3519.14928	0.08922
3517.86351	0.08988
3516.57774	0.09067
3515.29197	0.09135
3514.00620	0.09188
3512.72043	0.09232
3511.43467	0.09266
3510.14890	0.09281
3508.86313	0.09269
3507.57736	0.09238
3506.29159	0.09211
3505.00582	0.09209
3503.72005	0.09241
3502.43428	0.09288
3501.14852	0.09318
3499.86275	0.09322
3498.57698	0.09315
3497.29121	0.09316
3496.00544	0.09331
3494.71967	0.09359
3493.43390	0.09407
3492.14813	0.09480
3490.86236	0.09563
3489.57660	0.09621
3488.29083	0.09624
3487.00506	0.09569
3485.71929	0.09493
3484.43352	0.09456
3483.14775	0.09498
3481.86198	0.09599
3480.57621	0.09696
3479.29045	0.09733
3478.00468	0.09714
3476.71891	0.09691
3475.43314	0.09709
3474.14737	0.09768
3472.86160	0.09824
3471.57583	0.09840
3470.29006	0.09821
3469.00429	0.09795
3467.71853	0.09774
3466.43276	0.09752
3465.14699	0.09737
3463.86122	0.09752
3462.57545	0.09810
3461.28968	0.09887
3460.00391	0.09941
3458.71814	0.09955
3457.43238	0.09954
3456.14661	0.09975
3454.86084	0.10023
3453.57507	0.10073
3452.28930	0.10101
3451.00353	0.10108
3449.71776	0.10122
3448.43199	0.10158
3447.14622	0.10199
3445.86046	0.10200
3444.57469	0.10135
3443.28892	0.10026
3442.00315	0.09933
3440.71738	0.09912
3439.43161	0.09979
3438.14584	0.10104
3436.86007	0.10230
3435.57431	0.10310
3434.28854	0.10335
3433.00277	0.10326
3431.71700	0.10310
3430.43123	0.10302
3429.14546	0.10310
3427.85969	0.10327
3426.57392	0.10341
3425.28815	0.10336
3424.00239	0.10312
3422.71662	0.10289
3421.43085	0.10295
3420.14508	0.10344
3418.85931	0.10431
3417.57354	0.10521
3416.28777	0.10566
3415.00200	0.10539
3413.71624	0.10456
3412.43047	0.10372
3411.14470	0.10331
3409.85893	0.10343
3408.57316	0.10387
3407.28739	0.10435
3406.00162	0.10471
3404.71585	0.10493
3403.43008	0.10505
3402.14432	0.10510
3400.85855	0.10508
3399.57278	0.10509
3398.28701	0.10518
3397.00124	0.10536
3395.71547	0.10563
3394.42970	0.10600
3393.14393	0.10646
3391.85817	0.10694
3390.57240	0.10742
3389.28663	0.10784
3388.00086	0.10816
3386.71509	0.10829
3385.42932	0.10823
3384.14355	0.10804
3382.85778	0.10776
3381.57201	0.10738
3380.28625	0.10692
3379.00048	0.10656
3377.71471	0.10641
3376.42894	0.10646
3375.14317	0.10664
3373.85740	0.10701
3372.57163	0.10759
3371.28586	0.10821
3370.00010	0.10857
3368.71433	0.10847
3367.42856	0.10798
3366.14279	0.10735
3364.85702	0.10692
3363.57125	0.10688
3362.28548	0.10711
3360.99971	0.10740
3359.71394	0.10761
3358.42818	0.10776
3357.14241	0.10786
3355.85664	0.10791
3354.57087	0.10784
3353.28510	0.10764
3351.99933	0.10740
3350.71356	0.10723
3349.42779	0.10721
3348.14202	0.10732
3346.85626	0.10750
3345.57049	0.10770
3344.28472	0.10800
3342.99895	0.10840
3341.71318	0.10876
3340.42741	0.10883
3339.14164	0.10851
3337.85587	0.10796
3336.57011	0.10752
3335.28434	0.10741
3333.99857	0.10767
3332.71280	0.10811
3331.42703	0.10849
3330.14126	0.10855
3328.85549	0.10814
3327.56972	0.10734
3326.28395	0.10651
3324.99819	0.10611
3323.71242	0.10639
3322.42665	0.10717
3321.14088	0.10792
3319.85511	0.10815
3318.56934	0.10775
3317.28357	0.10705
3315.99780	0.10651
3314.71204	0.10635
3313.42627	0.10640
3312.14050	0.10639
3310.85473	0.10627
3309.56896	0.10626
3308.28319	0.10649
3306.99742	0.10691
3305.71165	0.10731
3304.42588	0.10753
3303.14012	0.10747
3301.85435	0.10709
3300.56858	0.10647
3299.28281	0.10578
3297.99704	0.10524
3296.71127	0.10506
3295.42550	0.10529
3294.13973	0.10586
3292.85397	0.10653
3291.56820	0.10703
3290.28243	0.10724
3288.99666	0.10726
3287.71089	0.10722
3286.42512	0.10714
3285.13935	0.10700
3283.85358	0.10677
3282.56781	0.10650
3281.28205	0.10626
3279.99628	0.10617
3278.71051	0.10634
3277.42474	0.10673
3276.13897	0.10711
3274.85320	0.10728
3273.56743	0.10716
3272.28166	0.10682
3270.99590	0.10643
3269.71013	0.10616
3268.42436	0.10603
3267.13859	0.10594
3265.85282	0.10573
3264.56705	0.10548
3263.28128	0.10534
3261.99551	0.10540
3260.70974	0.10552
3259.42398	0.10557
3258.13821	0.10549
3256.85244	0.10537
3255.56667	0.10525
3254.28090	0.10515
3252.99513	0.10505
3251.70936	0.10497
3250.42359	0.10491
3249.13783	0.10486
3247.85206	0.10471
3246.56629	0.10437
3245.28052	0.10388
3243.99475	0.10345
3242.70898	0.10336
3241.42321	0.10366
3240.13744	0.10420
3238.85167	0.10471
3237.56591	0.10504
3236.28014	0.10507
3234.99437	0.10478
3233.70860	0.10421
3232.42283	0.10352
3231.13706	0.10290
3229.85129	0.10246
3228.56552	0.10221
3227.27976	0.10218
3225.99399	0.10240
3224.70822	0.10279
3223.42245	0.10315
3222.13668	0.10327
3220.85091	0.10316
3219.56514	0.10305
3218.27937	0.10314
3216.99360	0.10340
3215.70784	0.10356
3214.42207	0.10342
3213.13630	0.10300
3211.85053	0.10246
3210.56476	0.10199
3209.27899	0.10170
3207.99322	0.10161
3206.70745	0.10166
3205.42169	0.10173
3204.13592	0.10173
3202.85015	0.10158
3201.56438	0.10125
3200.27861	0.10080
3198.99284	0.10043
3197.70707	0.10030
3196.42130	0.10032
3195.13553	0.10028
3193.84977	0.10019
3192.56400	0.10020
3191.27823	0.10040
3189.99246	0.10063
3188.70669	0.10065
3187.42092	0.10044
3186.13515	0.10023
3184.84938	0.10018
3183.56362	0.10029
3182.27785	0.10032
3180.99208	0.10003
3179.70631	0.09939
3178.42054	0.09865
3177.13477	0.09822
3175.84900	0.09826
3174.56323	0.09855
3173.27746	0.09871
3171.99170	0.09860
3170.70593	0.09840
3169.42016	0.09846
3168.13439	0.09887
3166.84862	0.09944
3165.56285	0.09981
3164.27708	0.09969
3162.99131	0.09903
3161.70555	0.09809
3160.41978	0.09726
3159.13401	0.09684
3157.84824	0.09686
3156.56247	0.09720
3155.27670	0.09774
3153.99093	0.09841
3152.70516	0.09900
3151.41939	0.09922
3150.13363	0.09899
3148.84786	0.09855
3147.56209	0.09819
3146.27632	0.09795
3144.99055	0.09770
3143.70478	0.09736
3142.41901	0.09701
3141.13324	0.09675
3139.84748	0.09666
3138.56171	0.09671
3137.27594	0.09682
3135.99017	0.09692
3134.70440	0.09692
3133.41863	0.09676
3132.13286	0.09641
3130.84709	0.09603
3129.56132	0.09577
3128.27556	0.09564
3126.98979	0.09543
3125.70402	0.09507
3124.41825	0.09471
3123.13248	0.09459
3121.84671	0.09472
3120.56094	0.09494
3119.27517	0.09507
3117.98940	0.09504
3116.70364	0.09484
3115.41787	0.09448
3114.13210	0.09405
3112.84633	0.09367
3111.56056	0.09343
3110.27479	0.09335
3108.98902	0.09339
3107.70325	0.09348
3106.41749	0.09349
3105.13172	0.09339
3103.84595	0.09326
3102.56018	0.09319
3101.27441	0.09311
3099.98864	0.09283
3098.70287	0.09230
3097.41710	0.09176
3096.13133	0.09159
3094.84557	0.09186
3093.55980	0.09230
3092.27403	0.09252
3090.98826	0.09236
3089.70249	0.09199
3088.41672	0.09173
3087.13095	0.09182
3085.84518	0.09218
3084.55942	0.09251
3083.27365	0.09253
3081.98788	0.09220
3080.70211	0.09173
3079.41634	0.09138
3078.13057	0.09124
3076.84480	0.09121
3075.55903	0.09109
3074.27326	0.09077
3072.98750	0.09033
3071.70173	0.09001
3070.41596	0.09000
3069.13019	0.09034
3067.84442	0.09087
3066.55865	0.09126
3065.27288	0.09117
3063.98711	0.09055
3062.70135	0.08973
3061.41558	0.08910
3060.12981	0.08881
3058.84404	0.08875
3057.55827	0.08877
3056.27250	0.08885
3054.98673	0.08904
3053.70096	0.08930
3052.41519	0.08952
3051.12943	0.08961
3049.84366	0.08953
3048.55789	0.08926
3047.27212	0.08886
3045.98635	0.08844
3044.70058	0.08812
3043.41481	0.08789
3042.12904	0.08767
3040.84328	0.08746
3039.55751	0.08735
3038.27174	0.08744
3036.98597	0.08769
3035.70020	0.08795
3034.41443	0.08802
3033.12866	0.08787
3031.84289	0.08754
3030.55712	0.08718
3029.27136	0.08685
3027.98559	0.08656
3026.69982	0.08625
3025.41405	0.08590
3024.12828	0.08560
3022.84251	0.08547
3021.55674	0.08558
3020.27097	0.08574
3018.98521	0.08576
3017.69944	0.08554
3016.41367	0.08525
3015.12790	0.08505
3013.84213	0.08494
3012.55636	0.08484
3011.27059	0.08471
3009.98482	0.08462
3008.69905	0.08460
3007.41329	0.08456
3006.12752	0.08442
3004.84175	0.08418
3003.55598	0.08390
3002.27021	0.08363
3000.98444	0.08343
2999.69867	0.08339
2998.41290	0.08345
2997.12714	0.08358
2995.84137	0.08370
2994.55560	0.08373
2993.26983	0.08372
2991.98406	0.08373
2990.69829	0.08377
2989.41252	0.08378
2988.12675	0.08384
2986.84098	0.08409
2985.55522	0.08459
2984.26945	0.08515
2982.98368	0.08564
2981.69791	0.08613
2980.41214	0.08689
2979.12637	0.08799
2977.84060	0.08918
2976.55483	0.09028
2975.26907	0.09141
2973.98330	0.09285
2972.69753	0.09477
2971.41176	0.09706
2970.12599	0.09946
2968.84022	0.10182
2967.55445	0.10417
2966.26868	0.10664
2964.98291	0.10921
2963.69715	0.11175
2962.41138	0.11415
2961.12561	0.11649
2959.83984	0.11888
2958.55407	0.12128
2957.26830	0.12351
2955.98253	0.12552
2954.69676	0.12728
2953.41100	0.12875
2952.12523	0.12985
2950.83946	0.13053
2949.55369	0.13082
2948.26792	0.13078
2946.98215	0.13056
2945.69638	0.13034
2944.41061	0.13026
2943.12484	0.13036
2941.83908	0.13058
2940.55331	0.13087
2939.26754	0.13138
2937.98177	0.13237
2936.69600	0.13402
2935.41023	0.13624
2934.12446	0.13863
2932.83869	0.14086
2931.55293	0.14289
2930.26716	0.14489
2928.98139	0.14701
2927.69562	0.14919
2926.40985	0.15119
2925.12408	0.15280
2923.83831	0.15390
2922.55254	0.15455
2921.26677	0.15479
2919.98101	0.15458
2918.69524	0.15382
2917.40947	0.15249
2916.12370	0.15068
2914.83793	0.14866
2913.55216	0.14672
2912.26639	0.14501
2910.98062	0.14348
2909.69486	0.14194
2908.40909	0.14034
2907.12332	0.13878
2905.83755	0.13742
2904.55178	0.13632
2903.26601	0.13540
2901.98024	0.13449
2900.69447	0.13337
2899.40870	0.13197
2898.12294	0.13040
2896.83717	0.12885
2895.55140	0.12746
2894.26563	0.12623
2892.97986	0.12504
2891.69409	0.12372
2890.40832	0.12224
2889.12255	0.12066
2887.83678	0.11913
2886.55102	0.11775
2885.26525	0.11660
2883.97948	0.11570
2882.69371	0.11500
2881.40794	0.11441
2880.12217	0.11395
2878.83640	0.11380
2877.55063	0.11408
2876.26487	0.11478
2874.97910	0.11578
2873.69333	0.11695
2872.40756	0.11818
2871.12179	0.11936
2869.83602	0.12041
2868.55025	0.12122
2867.26448	0.12173
2865.97871	0.12205
2864.69295	0.12236
2863.40718	0.12271
2862.12141	0.12296
2860.83564	0.12297
2859.54987	0.12284
2858.26410	0.12278
2856.97833	0.12297
2855.69256	0.12335
2854.40680	0.12363
2853.12103	0.12355
2851.83526	0.12306
2850.54949	0.12231
2849.26372	0.12141
2847.97795	0.12034
2846.69218	0.11905
2845.40641	0.11753
2844.12064	0.11579
2842.83488	0.11379
2841.54911	0.11154
2840.26334	0.10912
2838.97757	0.10673
2837.69180	0.10459
2836.40603	0.10280
2835.12026	0.10122
2833.83449	0.09962
2832.54873	0.09787
2831.26296	0.09606
2829.97719	0.09434
2828.69142	0.09279
2827.40565	0.09143
2826.11988	0.09029
2824.83411	0.08939
2823.54834	0.08863
2822.26257	0.08786
2820.97681	0.08707
2819.69104	0.08640
2818.40527	0.08591
2817.11950	0.08551
2815.83373	0.08498
2814.54796	0.08423
2813.26219	0.08342
2811.97642	0.08275
2810.69066	0.08228
2809.40489	0.08191
2808.11912	0.08157
2806.83335	0.08129
2805.54758	0.08114
2804.26181	0.08107
2802.97604	0.08097
2801.69027	0.08076
2800.40450	0.08047
2799.11874	0.08014
2797.83297	0.07978
2796.54720	0.07941
2795.26143	0.07905
2793.97566	0.07874
2792.68989	0.07850
2791.40412	0.07831
2790.11835	0.07814
2788.83259	0.07788
2787.54682	0.07748
2786.26105	0.07704
2784.97528	0.07668
2783.68951	0.07644
2782.40374	0.07628
2781.11797	0.07616
2779.83220	0.07603
2778.54643	0.07589
2777.26067	0.07577
2775.97490	0.07568
2774.68913	0.07557
2773.40336	0.07540
2772.11759	0.07519
2770.83182	0.07501
2769.54605	0.07490
2768.26028	0.07481
2766.97452	0.07467
2765.68875	0.07452
2764.40298	0.07444
2763.11721	0.07445
2761.83144	0.07448
2760.54567	0.07441
2759.25990	0.07417
2757.97413	0.07375
2756.68836	0.07324
2755.40260	0.07276
2754.11683	0.07240
2752.83106	0.07215
2751.54529	0.07202
2750.25952	0.07203
2748.97375	0.07217
2747.68798	0.07234
2746.40221	0.07240
2745.11645	0.07230
2743.83068	0.07216
2742.54491	0.07209
2741.25914	0.07209
2739.97337	0.07209
2738.68760	0.07199
2737.40183	0.07177
2736.11606	0.07146
2734.83029	0.07124
2733.54453	0.07123
2732.25876	0.07143
2730.97299	0.07165
2729.68722	0.07168
2728.40145	0.07150
2727.11568	0.07118
2725.82991	0.07080
2724.54414	0.07041
2723.25838	0.07009
2721.97261	0.06992
2720.68684	0.06989
2719.40107	0.06991
2718.11530	0.06991
2716.82953	0.06982
2715.54376	0.06964
2714.25799	0.06940
2712.97222	0.06919
2711.68646	0.06905
2710.40069	0.06900
2709.11492	0.06899
2707.82915	0.06897
2706.54338	0.06890
2705.25761	0.06876
2703.97184	0.06859
2702.68607	0.06849
2701.40031	0.06851
2700.11454	0.06860
2698.82877	0.06867
2697.54300	0.06862
2696.25723	0.06840
2694.97146	0.06809
2693.68569	0.06777
2692.39992	0.06753
2691.11415	0.06739
2689.82839	0.06732
2688.54262	0.06724
2687.25685	0.06708
2685.97108	0.06691
2684.68531	0.06686
2683.39954	0.06692
2682.11377	0.06695
2680.82800	0.06684
2679.54224	0.06659
2678.25647	0.06632
2676.97070	0.06614
2675.68493	0.06610
2674.39916	0.06612
2673.11339	0.06610
2671.82762	0.06597
2670.54185	0.06577
2669.25608	0.06559
2667.97032	0.06544
2666.68455	0.06529
2665.39878	0.06507
2664.11301	0.06483
2662.82724	0.06465
2661.54147	0.06453
2660.25570	0.06439
2658.96993	0.06414
2657.68417	0.06383
2656.39840	0.06356
2655.11263	0.06337
2653.82686	0.06324
2652.54109	0.06309
2651.25532	0.06290
2649.96955	0.06272
2648.68378	0.06260
2647.39801	0.06251
2646.11225	0.06237
2644.82648	0.06216
2643.54071	0.06195
2642.25494	0.06181
2640.96917	0.06166
2639.68340	0.06136
2638.39763	0.06082
2637.11186	0.06020
2635.82609	0.05972
2634.54033	0.05946
2633.25456	0.05930
2631.96879	0.05906
2630.68302	0.05873
2629.39725	0.05842
2628.11148	0.05824
2626.82571	0.05825
2625.53994	0.05845
2624.25418	0.05868
2622.96841	0.05873
2621.68264	0.05848
2620.39687	0.05804
2619.11110	0.05765
2617.82533	0.05740
2616.53956	0.05716
2615.25379	0.05672
2613.96802	0.05600
2612.68226	0.05520
2611.39649	0.05466
2610.11072	0.05464
2608.82495	0.05507
2607.53918	0.05564
2606.25341	0.05606
2604.96764	0.05621
2603.68187	0.05610
2602.39611	0.05576
2601.11034	0.05529
2599.82457	0.05486
2598.53880	0.05459
2597.25303	0.05443
2595.96726	0.05430
2594.68149	0.05421
2593.39572	0.05421
2592.10995	0.05426
2590.82419	0.05424
2589.53842	0.05413
2588.25265	0.05402
2586.96688	0.05396
2585.68111	0.05392
2584.39534	0.05391
2583.10957	0.05395
2581.82380	0.05405
2580.53804	0.05407
2579.25227	0.05399
2577.96650	0.05382
2576.68073	0.05360
2575.39496	0.05330
2574.10919	0.05296
2572.82342	0.05265
2571.53765	0.05238
2570.25188	0.05211
2568.96612	0.05182
2567.68035	0.05155
2566.39458	0.05131
2565.10881	0.05108
2563.82304	0.05089
2562.53727	0.05075
2561.25150	0.05064
2559.96573	0.05051
2558.67997	0.05037
2557.39420	0.05033
2556.10843	0.05048
2554.82266	0.05072
2553.53689	0.05086
2552.25112	0.05079
2550.96535	0.05066
2549.67958	0.05073
2548.39381	0.05102
2547.10805	0.05133
2545.82228	0.05145
2544.53651	0.05132
2543.25074	0.05101
2541.96497	0.05065
2540.67920	0.05035
2539.39343	0.05010
2538.10766	0.04986
2536.82190	0.04965
2535.53613	0.04952
2534.25036	0.04943
2532.96459	0.04925
2531.67882	0.04896
2530.39305	0.04868
2529.10728	0.04860
2527.82151	0.04872
2526.53574	0.04891
2525.24998	0.04903
2523.96421	0.04910
2522.67844	0.04919
2521.39267	0.04926
2520.10690	0.04926
2518.82113	0.04917
2517.53536	0.04902
2516.24959	0.04882
2514.96383	0.04854
2513.67806	0.04828
2512.39229	0.04811
2511.10652	0.04797
2509.82075	0.04781
2508.53498	0.04771
2507.24921	0.04785
2505.96344	0.04823
2504.67767	0.04864
2503.39191	0.04896
2502.10614	0.04921
2500.82037	0.04941
2499.53460	0.04946
2498.24883	0.04923
2496.96306	0.04883
2495.67729	0.04846
2494.39152	0.04822
2493.10576	0.04807
2491.81999	0.04793
2490.53422	0.04773
2489.24845	0.04748
2487.96268	0.04732
2486.67691	0.04738
2485.39114	0.04759
2484.10537	0.04774
2482.81960	0.04767
2481.53384	0.04736
2480.24807	0.04693
2478.96230	0.04654
2477.67653	0.04632
2476.39076	0.04629
2475.10499	0.04637
2473.81922	0.04657
2472.53345	0.04692
2471.24769	0.04733
2469.96192	0.04754
2468.67615	0.04739
2467.39038	0.04700
2466.10461	0.04669
2464.81884	0.04671
2463.53307	0.04702
2462.24730	0.04742
2460.96153	0.04776
2459.67577	0.04795
2458.39000	0.04797
2457.10423	0.04777
2455.81846	0.04746
2454.53269	0.04715
2453.24692	0.04681
2451.96115	0.04631
2450.67538	0.04572
2449.38962	0.04528
2448.10385	0.04518
2446.81808	0.04539
2445.53231	0.04582
2444.24654	0.04638
2442.96077	0.04680
2441.67500	0.04683
2440.38923	0.04647
2439.10346	0.04596
2437.81770	0.04553
2436.53193	0.04530
2435.24616	0.04535
2433.96039	0.04562
2432.67462	0.04589
2431.38885	0.04596
2430.10308	0.04585
2428.81731	0.04571
2427.53155	0.04561
2426.24578	0.04545
2424.96001	0.04511
2423.67424	0.04460
2422.38847	0.04409
2421.10270	0.04380
2419.81693	0.04383
2418.53116	0.04411
2417.24539	0.04452
2415.95963	0.04490
2414.67386	0.04514
2413.38809	0.04522
2412.10232	0.04520
2410.81655	0.04512
2409.53078	0.04497
2408.24501	0.04476
2406.95924	0.04456
2405.67347	0.04450
2404.38771	0.04456
2403.10194	0.04457
2401.81617	0.04438
2400.53040	0.04403
2399.24463	0.04364
2397.95886	0.04365
2396.67309	0.04387
2395.38732	0.04419
2394.10156	0.04462
2392.81579	0.04507
2391.53002	0.04537
2390.24425	0.04545
2388.95848	0.04536
2387.67271	0.04521
2386.38694	0.04509
2385.10117	0.04503
2383.81540	0.04506
2382.52964	0.04518
2381.24387	0.04525
2379.95810	0.04527
2378.67233	0.04522
2377.38656	0.04526
2376.10079	0.04549
2374.81502	0.04573
2373.52925	0.04562
2372.24349	0.04525
2370.95772	0.04494
2369.67195	0.04478
2368.38618	0.04479
2367.10041	0.04491
2365.81464	0.04503
2364.52887	0.04508
2363.24310	0.04508
2361.95733	0.04507
2360.67157	0.04509
2359.38580	0.04510
2358.10003	0.04502
2356.81426	0.04492
2355.52849	0.04503
2354.24272	0.04542
2352.95695	0.04590
2351.67118	0.04603
2350.38542	0.04591
2349.09965	0.04579
2347.81388	0.04562
2346.52811	0.04541
2345.24234	0.04537
2343.95657	0.04552
2342.67080	0.04583
2341.38503	0.04566
2340.09926	0.04529
2338.81350	0.04530
2337.52773	0.04554
2336.24196	0.04546
2334.95619	0.04541
2333.67042	0.04562
2332.38465	0.04597
2331.09888	0.04566
2329.81311	0.04544
2328.52735	0.04521
2327.24158	0.04467
2325.95581	0.04427
2324.67004	0.04401
2323.38427	0.04397
2322.09850	0.04374
2320.81273	0.04352
2319.52696	0.04347
2318.24119	0.04358
2316.95543	0.04362
2315.66966	0.04352
2314.38389	0.04337
2313.09812	0.04312
2311.81235	0.04281
2310.52658	0.04256
2309.24081	0.04238
2307.95504	0.04219
2306.66928	0.04191
2305.38351	0.04143
2304.09774	0.04083
2302.81197	0.04027
2301.52620	0.03986
2300.24043	0.03971
2298.95466	0.03981
2297.66889	0.04011
2296.38312	0.04038
2295.09736	0.04039
2293.81159	0.04003
2292.52582	0.03944
2291.24005	0.03891
2289.95428	0.03863
2288.66851	0.03864
2287.38274	0.03881
2286.09697	0.03899
2284.81121	0.03897
2283.52544	0.03862
2282.23967	0.03800
2280.95390	0.03741
2279.66813	0.03713
2278.38236	0.03719
2277.09659	0.03730
2275.81082	0.03718
2274.52505	0.03680
2273.23929	0.03634
2271.95352	0.03600
2270.66775	0.03582
2269.38198	0.03577
2268.09621	0.03579
2266.81044	0.03588
2265.52467	0.03597
2264.23890	0.03593
2262.95314	0.03562
2261.66737	0.03505
2260.38160	0.03433
2259.09583	0.03365
2257.81006	0.03322
2256.52429	0.03317
2255.23852	0.03341
2253.95275	0.03367
2252.66698	0.03370
2251.38122	0.03344
2250.09545	0.03297
2248.80968	0.03231
2247.52391	0.03195
2246.23814	0.03203
2244.95237	0.03238
2243.66660	0.03258
2242.38083	0.03233
2241.09507	0.03173
2239.80930	0.03115
2238.52353	0.03100
2237.23776	0.03135
2235.95199	0.03184
2234.66622	0.03195
2233.38045	0.03159
2232.09468	0.03107
2230.80891	0.03070
2229.52315	0.03040
2228.23738	0.02990
2226.95161	0.02911
2225.66584	0.02827
2224.38007	0.02768
2223.09430	0.02746
2221.80853	0.02757
2220.52276	0.02788
2219.23700	0.02828
2217.95123	0.02862
2216.66546	0.02872
2215.37969	0.02858
2214.09392	0.02838
2212.80815	0.02832
2211.52238	0.02838
2210.23661	0.02840
2208.95084	0.02828
2207.66508	0.02810
2206.37931	0.02787
2205.09354	0.02751
2203.80777	0.02695
2202.52200	0.02637
2201.23623	0.02614
2199.95046	0.02631
2198.66469	0.02649
2197.37893	0.02622
2196.09316	0.02554
2194.80739	0.02500
2193.52162	0.02498
2192.23585	0.02527
2190.95008	0.02535
2189.66431	0.02488
2188.37854	0.02395
2187.09277	0.02293
2185.80701	0.02221
2184.52124	0.02194
2183.23547	0.02205
2181.94970	0.02232
2180.66393	0.02264
2179.37816	0.02297
2178.09239	0.02315
2176.80662	0.02296
2175.52085	0.02234
2174.23509	0.02144
2172.94932	0.02039
2171.66355	0.01919
2170.37778	0.01796
2169.09201	0.01712
2167.80624	0.01700
2166.52047	0.01743
2165.23470	0.01795
2163.94894	0.01815
2162.66317	0.01779
2161.37740	0.01692
2160.09163	0.01610
2158.80586	0.01626
2157.52009	0.01770
2156.23432	0.01970
2154.94855	0.02133
2153.66278	0.02224
2152.37702	0.02240
2151.09125	0.02190
2149.80548	0.02109
2148.51971	0.02058
2147.23394	0.02073
2145.94817	0.02116
2144.66240	0.02129
2143.37663	0.02107
2142.09087	0.02099
2140.80510	0.02145
2139.51933	0.02235
2138.23356	0.02339
2136.94779	0.02441
2135.66202	0.02535
2134.37625	0.02600
2133.09048	0.02608
2131.80471	0.02564
2130.51895	0.02510
2129.23318	0.02492
2127.94741	0.02524
2126.66164	0.02593
2125.37587	0.02670
2124.09010	0.02724
2122.80433	0.02739
2121.51856	0.02732
2120.23280	0.02721
2118.94703	0.02705
2117.66126	0.02668
2116.37549	0.02614
2115.08972	0.02579
2113.80395	0.02587
2112.51818	0.02619
2111.23241	0.02628
2109.94664	0.02577
2108.66088	0.02472
2107.37511	0.02373
2106.08934	0.02350
2104.80357	0.02418
2103.51780	0.02524
2102.23203	0.02608
2100.94626	0.02652
2099.66049	0.02708
2098.37473	0.02716
2097.08896	0.02683
2095.80319	0.02626
2094.51742	0.02565
2093.23165	0.02514
2091.94588	0.02485
2090.66011	0.02487
2089.37434	0.02522
2088.08857	0.02574
2086.80281	0.02600
2085.51704	0.02567
2084.23127	0.02486
2082.94550	0.02405
2081.65973	0.02363
2080.37396	0.02365
2079.08819	0.02394
2077.80242	0.02435
2076.51666	0.02474
2075.23089	0.02489
2073.94512	0.02469
2072.65935	0.02421
2071.37358	0.02354
2070.08781	0.02268
2068.80204	0.02166
2067.51627	0.02064
2066.23050	0.01986
2064.94474	0.01951
2063.65897	0.01964
2062.37320	0.02020
2061.08743	0.02098
2059.80166	0.02152
2058.51589	0.02137
2057.23012	0.02046
2055.94435	0.01924
2054.65859	0.01827
2053.37282	0.01774
2052.08705	0.01745
2050.80128	0.01715
2049.51551	0.01678
2048.22974	0.01624
2046.94397	0.01542
2045.65820	0.01443
2044.37243	0.01371
2043.08667	0.01358
2041.80090	0.01378
2040.51513	0.01371
2039.22936	0.01315
2037.94359	0.01249
2036.65782	0.01229
2035.37205	0.01264
2034.08628	0.01307
2032.80052	0.01310
2031.51475	0.01275
2030.22898	0.01255
2028.94321	0.01307
2027.65744	0.01427
2026.37167	0.01549
2025.08590	0.01608
2023.80013	0.01601
2022.51436	0.01582
2021.22860	0.01590
2019.94283	0.01609
2018.65706	0.01607
2017.37129	0.01590
2016.08552	0.01589
2014.79975	0.01621
2013.51398	0.01673
2012.22821	0.01713
2010.94245	0.01711
2009.65668	0.01653
2008.37091	0.01567
2007.08514	0.01513
2005.79937	0.01539
2004.51360	0.01636
2003.22783	0.01753
2001.94206	0.01841
2000.65629	0.01887
1999.37053	0.01909
1998.08476	0.01928
1996.79899	0.01950
1995.51322	0.01960
1994.22745	0.01941
1992.94168	0.01896
1991.65591	0.01860
1990.37014	0.01860
1989.08438	0.01891
1987.79861	0.01919
1986.51284	0.01916
1985.22707	0.01876
1983.94130	0.01813
1982.65553	0.01735
1981.36976	0.01646
1980.08399	0.01560
1978.79822	0.01514
1977.51246	0.01535
1976.22669	0.01602
1974.94092	0.01663
1973.65515	0.01676
1972.36938	0.01640
1971.08361	0.01590
1969.79784	0.01574
1968.51207	0.01625
1967.22631	0.01727
1965.94054	0.01818
1964.65477	0.01847
1963.36900	0.01829
1962.08323	0.01819
1960.79746	0.01853
1959.51169	0.01923
1958.22592	0.01992
1956.94015	0.02025
1955.65439	0.02009
1954.36862	0.01956
1953.08285	0.01908
1951.79708	0.01903
1950.51131	0.01951
1949.22554	0.02039
1947.93977	0.02151
1946.65400	0.02264
1945.36823	0.02349
1944.08247	0.02383
1942.79670	0.02374
1941.51093	0.02358
1940.22516	0.02362
1938.93939	0.02387
1937.65362	0.02418
1936.36785	0.02444
1935.08208	0.02453
1933.79632	0.02441
1932.51055	0.02419
1931.22478	0.02409
1929.93901	0.02423
1928.65324	0.02451
1927.36747	0.02469
1926.08170	0.02462
1924.79593	0.02442
1923.51016	0.02441
1922.22440	0.02473
1920.93863	0.02525
1919.65286	0.02569
1918.36709	0.02591
1917.08132	0.02593
1915.79555	0.02584
1914.50978	0.02570
1913.22401	0.02550
1911.93825	0.02530
1910.65248	0.02520
1909.36671	0.02526
1908.08094	0.02540
1906.79517	0.02552
1905.50940	0.02556
1904.22363	0.02556
1902.93786	0.02557
1901.65209	0.02553
1900.36633	0.02547
1899.08056	0.02544
1897.79479	0.02548
1896.50902	0.02552
1895.22325	0.02543
1893.93748	0.02525
1892.65171	0.02515
1891.36594	0.02528
1890.08018	0.02558
1888.79441	0.02580
1887.50864	0.02578
1886.22287	0.02555
1884.93710	0.02531
1883.65133	0.02517
1882.36556	0.02521
1881.07979	0.02541
1879.79402	0.02576
1878.50826	0.02609
1877.22249	0.02621
1875.93672	0.02607
1874.65095	0.02580
1873.36518	0.02558
1872.07941	0.02551
1870.79364	0.02548
1869.50787	0.02541
1868.22211	0.02531
1866.93634	0.02525
1865.65057	0.02526
1864.36480	0.02534
1863.07903	0.02547
1861.79326	0.02557
1860.50749	0.02563
1859.22172	0.02565
1857.93595	0.02569
1856.65019	0.02577
1855.36442	0.02587
1854.07865	0.02596
1852.79288	0.02595
1851.50711	0.02584
1850.22134	0.02566
1848.93557	0.02548
1847.64980	0.02539
1846.36404	0.02537
1845.07827	0.02540
1843.79250	0.02551
1842.50673	0.02569
1841.22096	0.02585
1839.93519	0.02592
1838.64942	0.02589
1837.36365	0.02582
1836.07788	0.02580
1834.79212	0.02591
1833.50635	0.02612
1832.22058	0.02625
1830.93481	0.02622
1829.64904	0.02615
1828.36327	0.02620
1827.07750	0.02636
1825.79173	0.02652
1824.50597	0.02662
1823.22020	0.02663
1821.93443	0.02656
1820.64866	0.02654
1819.36289	0.02662
1818.07712	0.02679
1816.79135	0.02696
1815.50558	0.02707
1814.21981	0.02707
1812.93405	0.02696
1811.64828	0.02680
1810.36251	0.02666
1809.07674	0.02659
1807.79097	0.02656
1806.50520	0.02653
1805.21943	0.02645
1803.93366	0.02634
1802.64790	0.02625
1801.36213	0.02628
1800.07636	0.02643
1798.79059	0.02661
1797.50482	0.02674
1796.21905	0.02678
1794.93328	0.02673
1793.64751	0.02663
1792.36174	0.02658
1791.07598	0.02666
1789.79021	0.02682
1788.50444	0.02692
1787.21867	0.02691
1785.93290	0.02681
1784.64713	0.02673
1783.36136	0.02674
1782.07559	0.02686
1780.78983	0.02704
1779.50406	0.02723
1778.21829	0.02736
1776.93252	0.02738
1775.64675	0.02733
1774.36098	0.02724
1773.07521	0.02720
1771.78944	0.02730
1770.50367	0.02746
1769.21791	0.02752
1767.93214	0.02751
1766.64637	0.02753
1765.36060	0.02758
1764.07483	0.02758
1762.78906	0.02761
1761.50329	0.02779
1760.21752	0.02806
1758.93176	0.02827
1757.64599	0.02830
1756.36022	0.02825
1755.07445	0.02817
1753.78868	0.02804
1752.50291	0.02789
1751.21714	0.02784
1749.93137	0.02794
1748.64560	0.02807
1747.35984	0.02816
1746.07407	0.02818
1744.78830	0.02816
1743.50253	0.02813
1742.21676	0.02811
1740.93099	0.02816
1739.64522	0.02835
1738.35945	0.02863
1737.07369	0.02875
1735.78792	0.02859
1734.50215	0.02840
1733.21638	0.02850
1731.93061	0.02880
1730.64484	0.02902
1729.35907	0.02909
1728.07330	0.02913
1726.78753	0.02919
1725.50177	0.02925
1724.21600	0.02934
1722.93023	0.02950
1721.64446	0.02977
1720.35869	0.03004
1719.07292	0.03028
1717.78715	0.03058
1716.50138	0.03099
1715.21561	0.03141
1713.92985	0.03173
1712.64408	0.03197
1711.35831	0.03224
1710.07254	0.03260
1708.78677	0.03300
1707.50100	0.03339
1706.21523	0.03372
1704.92946	0.03404
1703.64370	0.03432
1702.35793	0.03449
1701.07216	0.03470
1699.78639	0.03518
1698.50062	0.03574
1697.21485	0.03604
1695.92908	0.03616
1694.64331	0.03640
1693.35754	0.03669
1692.07178	0.03676
1690.78601	0.03669
1689.50024	0.03670
1688.21447	0.03687
1686.92870	0.03706
1685.64293	0.03722
1684.35716	0.03749
1683.07139	0.03788
1681.78563	0.03816
1680.49986	0.03825
1679.21409	0.03835
1677.92832	0.03855
1676.64255	0.03879
1675.35678	0.03904
1674.07101	0.03934
1672.78524	0.03962
1671.49947	0.03985
1670.21371	0.04012
1668.92794	0.04050
1667.64217	0.04090
1666.35640	0.04120
1665.07063	0.04139
1663.78486	0.04156
1662.49909	0.04182
1661.21332	0.04214
1659.92756	0.04243
1658.64179	0.04268
1657.35602	0.04291
1656.07025	0.04304
1654.78448	0.04303
1653.49871	0.04309
1652.21294	0.04343
1650.92717	0.04390
1649.64140	0.04411
1648.35564	0.04407
1647.06987	0.04411
1645.78410	0.04437
1644.49833	0.04467
1643.21256	0.04478
1641.92679	0.04472
1640.64102	0.04467
1639.35525	0.04474
1638.06949	0.04484
1636.78372	0.04489
1635.49795	0.04495
1634.21218	0.04509
1632.92641	0.04523
1631.64064	0.04530
1630.35487	0.04533
1629.06910	0.04541
1627.78333	0.04555
1626.49757	0.04573
1625.21180	0.04590
1623.92603	0.04603
1622.64026	0.04616
1621.35449	0.04628
1620.06872	0.04634
1618.78295	0.04635
1617.49718	0.04646
1616.21142	0.04679
1614.92565	0.04721
1613.63988	0.04751
1612.35411	0.04764
1611.06834	0.04775
1609.78257	0.04788
1608.49680	0.04802
1607.21103	0.04816
1605.92526	0.04832
1604.63950	0.04849
1603.35373	0.04868
1602.06796	0.04889
1600.78219	0.04914
1599.49642	0.04939
1598.21065	0.04963
1596.92488	0.04984
1595.63911	0.05003
1594.35335	0.05022
1593.06758	0.05044
1591.78181	0.05067
1590.49604	0.05091
1589.21027	0.05115
1587.92450	0.05140
1586.63873	0.05160
1585.35296	0.05177
1584.06719	0.05194
1582.78143	0.05215
1581.49566	0.05245
1580.20989	0.05280
1578.92412	0.05310
1577.63835	0.05328
1576.35258	0.05352
1575.06681	0.05399
1573.78104	0.05458
1572.49528	0.05503
1571.20951	0.05531
1569.92374	0.05558
1568.63797	0.05592
1567.35220	0.05629
1566.06643	0.05659
1564.78066	0.05689
1563.49489	0.05721
1562.20912	0.05749
1560.92336	0.05767
1559.63759	0.05791
1558.35182	0.05836
1557.06605	0.05888
1555.78028	0.05920
1554.49451	0.05937
1553.20874	0.05959
1551.92297	0.05988
1550.63721	0.06013
1549.35144	0.06030
1548.06567	0.06041
1546.77990	0.06045
1545.49413	0.06045
1544.20836	0.06048
1542.92259	0.06052
1541.63682	0.06048
1540.35105	0.06040
1539.06529	0.06040
1537.77952	0.06051
1536.49375	0.06056
1535.20798	0.06047
1533.92221	0.06039
1532.63644	0.06050
1531.35067	0.06073
1530.06490	0.06097
1528.77914	0.06123
1527.49337	0.06157
1526.20760	0.06207
1524.92183	0.06271
1523.63606	0.06340
1522.35029	0.06409
1521.06452	0.06488
1519.77875	0.06577
1518.49298	0.06665
1517.20722	0.06751
1515.92145	0.06851
1514.63568	0.06966
1513.34991	0.07089
1512.06414	0.07219
1510.77837	0.07360
1509.49260	0.07505
1508.20683	0.07648
1506.92107	0.07792
1505.63530	0.07943
1504.34953	0.08090
1503.06376	0.08212
1501.77799	0.08313
1500.49222	0.08408
1499.20645	0.08500
1497.92068	0.08585
1496.63491	0.08662
1495.34915	0.08741
1494.06338	0.08821
1492.77761	0.08896
1491.49184	0.08967
1490.20607	0.09045
1488.92030	0.09135
1487.63453	0.09233
1486.34876	0.09340
1485.06299	0.09456
1483.77723	0.09577
1482.49146	0.09703
1481.20569	0.09833
1479.91992	0.09971
1478.63415	0.10114
1477.34838	0.10258
1476.06261	0.10398
1474.77684	0.10532
1473.49108	0.10661
1472.20531	0.10798
1470.91954	0.10945
1469.63377	0.11090
1468.34800	0.11225
1467.06223	0.11347
1465.77646	0.11462
1464.49069	0.11573
1463.20492	0.11680
1461.91916	0.11779
1460.63339	0.11870
1459.34762	0.11954
1458.06185	0.12037
1456.77608	0.12129
1455.49031	0.12226
1454.20454	0.12307
1452.91877	0.12359
1451.63301	0.12386
1450.34724	0.12399
1449.06147	0.12402
1447.77570	0.12399
1446.48993	0.12390
1445.20416	0.12369
1443.91839	0.12326
1442.63262	0.12266
1441.34685	0.12199
1440.06109	0.12133
1438.77532	0.12074
1437.48955	0.12031
1436.20378	0.12020
1434.91801	0.12042
1433.63224	0.12086
1432.34647	0.12149
1431.06070	0.12238
1429.77494	0.12355
1428.48917	0.12496
1427.20340	0.12652
1425.91763	0.12819
1424.63186	0.13000
1423.34609	0.13190
1422.06032	0.13376
1420.77455	0.13545
1419.48878	0.13698
1418.20302	0.13839
1416.91725	0.13961
1415.63148	0.14053
1414.34571	0.14116
1413.05994	0.14159
1411.77417	0.14184
1410.48840	0.14189
1409.20263	0.14168
1407.91687	0.14115
1406.63110	0.14033
1405.34533	0.13928
1404.05956	0.13805
1402.77379	0.13663
1401.48802	0.13498
1400.20225	0.13310
1398.91648	0.13106
1397.63071	0.12890
1396.34495	0.12661
1395.05918	0.12425
1393.77341	0.12187
1392.48764	0.11945
1391.20187	0.11700
1389.91610	0.11458
1388.63033	0.11231
1387.34456	0.11028
1386.05880	0.10842
1384.77303	0.10659
1383.48726	0.10474
1382.20149	0.10293
1380.91572	0.10125
1379.62995	0.09965
1378.34418	0.09800
1377.05841	0.09616
1375.77264	0.09401
1374.48688	0.09155
1373.20111	0.08882
1371.91534	0.08593
1370.62957	0.08301
1369.34380	0.08023
1368.05803	0.07769
1366.77226	0.07542
1365.48649	0.07333
1364.20073	0.07131
1362.91496	0.06928
1361.62919	0.06725
1360.34342	0.06527
1359.05765	0.06341
1357.77188	0.06171
1356.48611	0.06017
1355.20034	0.05876
1353.91457	0.05748
1352.62881	0.05630
1351.34304	0.05518
1350.05727	0.05408
1348.77150	0.05299
1347.48573	0.05194
1346.19996	0.05098
1344.91419	0.05011
1343.62842	0.04932
1342.34266	0.04858
1341.05689	0.04790
1339.77112	0.04730
1338.48535	0.04682
1337.19958	0.04640
1335.91381	0.04593
1334.62804	0.04536
1333.34227	0.04471
1332.05650	0.04406
1330.77074	0.04349
1329.48497	0.04305
1328.19920	0.04273
1326.91343	0.04248
1325.62766	0.04224
1324.34189	0.04197
1323.05612	0.04164
1321.77035	0.04126
1320.48459	0.04088
1319.19882	0.04053
1317.91305	0.04021
1316.62728	0.03991
1315.34151	0.03959
1314.05574	0.03927
1312.76997	0.03897
1311.48420	0.03873
1310.19843	0.03852
1308.91267	0.03828
1307.62690	0.03800
1306.34113	0.03769
1305.05536	0.03740
1303.76959	0.03714
1302.48382	0.03688
1301.19805	0.03659
1299.91228	0.03629
1298.62652	0.03598
1297.34075	0.03569
1296.05498	0.03543
1294.76921	0.03520
1293.48344	0.03497
1292.19767	0.03474
1290.91190	0.03449
1289.62613	0.03424
1288.34036	0.03400
1287.05460	0.03375
1285.76883	0.03349
1284.48306	0.03322
1283.19729	0.03295
1281.91152	0.03272
1280.62575	0.03252
1279.33998	0.03237
1278.05421	0.03225
1276.76845	0.03213
1275.48268	0.03198
1274.19691	0.03176
1272.91114	0.03149
1271.62537	0.03122
1270.33960	0.03099
1269.05383	0.03079
1267.76806	0.03060
1266.48229	0.03043
1265.19653	0.03027
1263.91076	0.03013
1262.62499	0.02997
1261.33922	0.02980
1260.05345	0.02962
1258.76768	0.02944
1257.48191	0.02923
1256.19614	0.02902
1254.91037	0.02882
1253.62461	0.02865
1252.33884	0.02853
1251.05307	0.02843
1249.76730	0.02831
1248.48153	0.02817
1247.19576	0.02801
1245.90999	0.02784
1244.62422	0.02768
1243.33846	0.02752
1242.05269	0.02737
1240.76692	0.02724
1239.48115	0.02712
1238.19538	0.02697
1236.90961	0.02680
1235.62384	0.02665
1234.33807	0.02652
1233.05230	0.02640
1231.76654	0.02626
1230.48077	0.02608
1229.19500	0.02588
1227.90923	0.02567
1226.62346	0.02547
1225.33769	0.02532
1224.05192	0.02521
1222.76615	0.02514
1221.48039	0.02507
1220.19462	0.02497
1218.90885	0.02484
1217.62308	0.02469
1216.33731	0.02456
1215.05154	0.02447
1213.76577	0.02438
1212.48000	0.02427
1211.19423	0.02412
1209.90847	0.02397
1208.62270	0.02383
1207.33693	0.02372
1206.05116	0.02363
1204.76539	0.02354
1203.47962	0.02347
1202.19385	0.02344
1200.90808	0.02342
1199.62232	0.02334
1198.33655	0.02332
1197.05078	0.02328
1195.76501	0.02318
1194.47924	0.02303
1193.19347	0.02287
1191.90770	0.02275
1190.62193	0.02267
1189.33616	0.02259
1188.05040	0.02245
1186.76463	0.02230
1185.47886	0.02220
1184.19309	0.02221
1182.90732	0.02224
1181.62155	0.02224
1180.33578	0.02217
1179.05001	0.02210
1177.76425	0.02207
1176.47848	0.02205
1175.19271	0.02203
1173.90694	0.02203
1172.62117	0.02207
1171.33540	0.02215
1170.04963	0.02227
1168.76386	0.02242
1167.47809	0.02261
1166.19233	0.02279
1164.90656	0.02292
1163.62079	0.02300
1162.33502	0.02310
1161.04925	0.02326
1159.76348	0.02350
1158.47771	0.02379
1157.19194	0.02411
1155.90618	0.02444
1154.62041	0.02477
1153.33464	0.02509
1152.04887	0.02542
1150.76310	0.02575
1149.47733	0.02611
1148.19156	0.02652
1146.90579	0.02705
1145.62002	0.02776
1144.33426	0.02862
1143.04849	0.02953
1141.76272	0.03043
1140.47695	0.03134
1139.19118	0.03235
1137.90541	0.03353
1136.61964	0.03488
1135.33387	0.03639
1134.04811	0.03810
1132.76234	0.04008
1131.47657	0.04238
1130.19080	0.04494
1128.90503	0.04769
1127.61926	0.05059
1126.33349	0.05366
1125.04772	0.05694
1123.76195	0.06047
1122.47619	0.06421
1121.19042	0.06811
1119.90465	0.07209
1118.61888	0.07606
1117.33311	0.08000
1116.04734	0.08393
1114.76157	0.08787
1113.47580	0.09183
1112.19004	0.09577
1110.90427	0.09960
1109.61850	0.10327
1108.33273	0.10674
1107.04696	0.11001
1105.76119	0.11310
1104.47542	0.11605
1103.18965	0.11889
1101.90388	0.12164
1100.61812	0.12428
1099.33235	0.12678
1098.04658	0.12908
1096.76081	0.13117
1095.47504	0.13310
1094.18927	0.13496
1092.90350	0.13680
1091.61773	0.13863
1090.33197	0.14041
1089.04620	0.14215
1087.76043	0.14381
1086.47466	0.14538
1085.18889	0.14685
1083.90312	0.14832
1082.61735	0.14993
1081.33158	0.15178
1080.04581	0.15387
1078.76005	0.15613
1077.47428	0.15853
1076.18851	0.16105
1074.90274	0.16365
1073.61697	0.16632
1072.33120	0.16904
1071.04543	0.17184
1069.75966	0.17467
1068.47390	0.17752
1067.18813	0.18041
1065.90236	0.18341
1064.61659	0.18656
1063.33082	0.18985
1062.04505	0.19324
1060.75928	0.19666
1059.47351	0.20002
1058.18774	0.20324
1056.90198	0.20630
1055.61621	0.20928
1054.33044	0.21231
1053.04467	0.21546
1051.75890	0.21877
1050.47313	0.22221
1049.18736	0.22574
1047.90159	0.22934
1046.61583	0.23300
1045.33006	0.23676
1044.04429	0.24062
1042.75852	0.24459
1041.47275	0.24864
1040.18698	0.25272
1038.90121	0.25679
1037.61544	0.26087
1036.32967	0.26504
1035.04391	0.26932
1033.75814	0.27358
1032.47237	0.27759
1031.18660	0.28121
1029.90083	0.28444
1028.61506	0.28737
1027.32929	0.29004
1026.04352	0.29245
1024.75775	0.29458
1023.47199	0.29645
1022.18622	0.29801
1020.90045	0.29922
1019.61468	0.30004
1018.32891	0.30044
1017.04314	0.30034
1015.75737	0.29969
1014.47160	0.29848
1013.18584	0.29678
1011.90007	0.29466
1010.61430	0.29212
1009.32853	0.28912
1008.04276	0.28563
1006.75699	0.28166
1005.47122	0.27724
1004.18545	0.27246
1002.89968	0.26736
1001.61392	0.26197
1000.32815	0.25625
999.04238	0.25020
997.75661	0.24390
996.47084	0.23740
995.18507	0.23076
993.89930	0.22403
992.61353	0.21729
991.32777	0.21064
990.04200	0.20411
988.75623	0.19772
987.47046	0.19147
986.18469	0.18542
984.89892	0.17966
983.61315	0.17421
982.32738	0.16904
981.04161	0.16409
979.75585	0.15935
978.47008	0.15484
977.18431	0.15065
975.89854	0.14686
974.61277	0.14352
973.32700	0.14065
972.04123	0.13825
970.75546	0.13635
969.46970	0.13498
968.18393	0.13423
966.89816	0.13412
965.61239	0.13461
964.32662	0.13552
963.04085	0.13656
961.75508	0.13738
960.46931	0.13768
959.18354	0.13725
957.89778	0.13606
956.61201	0.13418
955.32624	0.13184
954.04047	0.12925
952.75470	0.12657
951.46893	0.12385
950.18316	0.12109
948.89739	0.11828
947.61163	0.11549
946.32586	0.11275
945.04009	0.11007
943.75432	0.10743
942.46855	0.10484
941.18278	0.10234
939.89701	0.09995
938.61124	0.09769
937.32547	0.09556
936.03971	0.09360
934.75394	0.09183
933.46817	0.09022
932.18240	0.08871
930.89663	0.08723
929.61086	0.08575
928.32509	0.08429
927.03932	0.08292
925.75356	0.08172
924.46779	0.08068
923.18202	0.07970
921.89625	0.07871
920.61048	0.07769
919.32471	0.07669
918.03894	0.07573
916.75317	0.07483
915.46740	0.07396
914.18164	0.07313
912.89587	0.07234
911.61010	0.07160
910.32433	0.07088
909.03856	0.07014
907.75279	0.06933
906.46702	0.06849
905.18125	0.06770
903.89549	0.06705
902.60972	0.06654
901.32395	0.06615
900.03818	0.06581
898.75241	0.06544
897.46664	0.06501
896.18087	0.06458
894.89510	0.06421
893.60933	0.06392
892.32357	0.06371
891.03780	0.06354
889.75203	0.06341
888.46626	0.06338
887.18049	0.06361
885.89472	0.06445
884.60895	0.06625
883.32318	0.06911
882.03742	0.07266
880.75165	0.07620
879.46588	0.07908
878.18011	0.08115
876.89434	0.08282
875.60857	0.08459
874.32280	0.08663
873.03703	0.08855
871.75126	0.08974
870.46550	0.08986
869.17973	0.08894
867.89396	0.08727
866.60819	0.08511
865.32242	0.08267
864.03665	0.08011
862.75088	0.07758
861.46511	0.07520
860.17935	0.07299
858.89358	0.07097
857.60781	0.06916
856.32204	0.06758
855.03627	0.06621
853.75050	0.06501
852.46473	0.06398
851.17896	0.06311
849.89319	0.06234
848.60743	0.06165
847.32166	0.06100
846.03589	0.06040
844.75012	0.05982
843.46435	0.05927
842.17858	0.05874
840.89281	0.05821
839.60704	0.05770
838.32128	0.05724
837.03551	0.05685
835.74974	0.05645
834.46397	0.05598
833.17820	0.05548
831.89243	0.05500
830.60666	0.05461
829.32089	0.05430
828.03512	0.05404
826.74936	0.05380
825.46359	0.05362
824.17782	0.05350
822.89205	0.05338
821.60628	0.05322
820.32051	0.05307
819.03474	0.05302
817.74897	0.05308
816.46321	0.05316
815.17744	0.05314
813.89167	0.05299
812.60590	0.05275
811.32013	0.05249
810.03436	0.05221
808.74859	0.05195
807.46282	0.05178
806.17705	0.05171
804.89129	0.05164
803.60552	0.05146
802.31975	0.05114
801.03398	0.05073
799.74821	0.05033
798.46244	0.05001
797.17667	0.04976
795.89090	0.04957
794.60513	0.04941
793.31937	0.04925
792.03360	0.04908
790.74783	0.04894
789.46206	0.04883
788.17629	0.04872
786.89052	0.04855
785.60475	0.04836
784.31898	0.04820
783.03322	0.04810
781.74745	0.04806
780.46168	0.04804
779.17591	0.04795
777.89014	0.04777
776.60437	0.04754
775.31860	0.04735
774.03283	0.04722
772.74706	0.04713
771.46130	0.04703
770.17553	0.04692
768.88976	0.04684
767.60399	0.04680
766.31822	0.04679
765.03245	0.04677
763.74668	0.04669
762.46091	0.04658
761.17515	0.04652
759.88938	0.04656
758.60361	0.04669
757.31784	0.04685
756.03207	0.04695
754.74630	0.04698
753.46053	0.04697
752.17476	0.04697
750.88899	0.04697
749.60323	0.04695
748.31746	0.04688
747.03169	0.04677
745.74592	0.04667
744.46015	0.04657
743.17438	0.04646
741.88861	0.04628
740.60284	0.04601
739.31708	0.04573
738.03131	0.04555
736.74554	0.04552
735.45977	0.04554
734.17400	0.04554
732.88823	0.04553
731.60246	0.04552
730.31669	0.04550
729.03092	0.04541
727.74516	0.04526
726.45939	0.04513
725.17362	0.04504
723.88785	0.04492
722.60208	0.04484
721.31631	0.04474
720.03054	0.04463
718.74477	0.04456
717.45901	0.04454
716.17324	0.04453
714.88747	0.04448
713.60170	0.04437
712.31593	0.04418
711.03016	0.04392
709.74439	0.04361
708.45862	0.04329
707.17285	0.04301
705.88709	0.04279
704.60132	0.04262
703.31555	0.04246
702.02978	0.04228
700.74401	0.04210
699.45824	0.04198
698.17247	0.04193
696.88670	0.04195
695.60094	0.04199
694.31517	0.04198
693.02940	0.04188
691.74363	0.04168
690.45786	0.04144
689.17209	0.04124
687.88632	0.04112
686.60055	0.04102
685.31478	0.04090
684.02902	0.04072
682.74325	0.04050
681.45748	0.04029
680.17171	0.04013
678.88594	0.04002
677.60017	0.03994
676.31440	0.03986
675.02863	0.03979
673.74287	0.03975
672.45710	0.03973
671.17133	0.03974
669.88556	0.03977
668.59979	0.03979
667.31402	0.03978
666.02825	0.03969
664.74248	0.03949
663.45671	0.03922
662.17095	0.03888
660.88518	0.03851
659.59941	0.03815
658.31364	0.03783
657.02787	0.03757
655.74210	0.03737
654.45633	0.03720
653.17056	0.03705
651.88480	0.03694
650.59903	0.03689
649.31326	0.03685
648.02749	0.03677
646.74172	0.03663
645.45595	0.03650
644.17018	0.03645
642.88441	0.03649
641.59864	0.03660
640.31288	0.03673
639.02711	0.03689
637.74134	0.03711
636.45557	0.03741
635.16980	0.03778
633.88403	0.03816
632.59826	0.03850
631.31249	0.03887
630.02673	0.03951
628.74096	0.04001
627.45519	0.03957
626.16942	0.04033
624.88365	0.04239
623.59788	0.04544
622.31211	0.04924
621.02634	0.05322
619.74057	0.05675
618.45481	0.05963
617.16904	0.06204
615.88327	0.06433
614.59750	0.06702
613.31173	0.07090
612.02596	0.07657
610.74019	0.08384
609.45442	0.09152
608.16866	0.09832
606.88289	0.10376
605.59712	0.10814
604.31135	0.11178
603.02558	0.11446
601.73981	0.11557
600.45404	0.11477
599.16827	0.11240
597.88250	0.10917
596.59674	0.10569
595.31097	0.10228
594.02520	0.09918
592.73943	0.09661
591.45366	0.09471
590.16789	0.09348
588.88212	0.09281
587.59635	0.09266
586.31059	0.09305
585.02482	0.09406
583.73905	0.09571
582.45328	0.09788
581.16751	0.10041
579.88174	0.10309
578.59597	0.10581
577.31020	0.10850
576.02443	0.11115
574.73867	0.11370
573.45290	0.11614
572.16713	0.11854
570.88136	0.12107
569.59559	0.12405
568.30982	0.12775
567.02405	0.13221
565.73828	0.13710
564.45251	0.14182
563.16675	0.14568
561.88098	0.14817
560.59521	0.14898
559.30944	0.14800
558.02367	0.14530
556.73790	0.14108
555.45213	0.13566
554.16636	0.12943
552.88060	0.12288
551.59483	0.11648
550.30906	0.11055
549.02329	0.10516
547.73752	0.10023
546.45175	0.09573
545.16598	0.09166
543.88021	0.08805
542.59444	0.08480
541.30868	0.08176
540.02291	0.07884
538.73714	0.07605
537.45137	0.07349
536.16560	0.07125
534.87983	0.06929
533.59406	0.06753
532.30829	0.06583
531.02253	0.06413
529.73676	0.06245
528.45099	0.06086
527.16522	0.05940
525.87945	0.05810
524.59368	0.05691
523.30791	0.05579
522.02214	0.05465
520.73637	0.05348
519.45061	0.05230
518.16484	0.05115
516.87907	0.05006
515.59330	0.04903
514.30753	0.04801
513.02176	0.04702
511.73599	0.04614
510.45022	0.04544
509.16446	0.04491
507.87869	0.04439
506.59292	0.04380
505.30715	0.04312
504.02138	0.04239
502.73561	0.04167
501.44984	0.04101
500.16407	0.04044
498.87830	0.03994
497.59254	0.03945
496.30677	0.03895
495.02100	0.03848
493.73523	0.03809
492.44946	0.03777
491.16369	0.03746
489.87792	0.03708
488.59215	0.03663
487.30639	0.03617
486.02062	0.03576
484.73485	0.03547
483.44908	0.03531
482.16331	0.03529
480.87754	0.03539
479.59177	0.03556
478.30600	0.03576
477.02023	0.03599
475.73447	0.03624
474.44870	0.03651
473.16293	0.03680
471.87716	0.03707
470.59139	0.03726
469.30562	0.03729
468.01985	0.03711
466.73408	0.03672
465.44832	0.03622
464.16255	0.03568
462.87678	0.03519
461.59101	0.03476
460.30524	0.03434
459.01947	0.03390
457.73370	0.03344
456.44793	0.03300
455.16216	0.03260
453.87640	0.03228
452.59063	0.03204
451.30486	0.03184
450.01909	0.03162
448.73332	0.03139
447.44755	0.03116
446.16178	0.03094
444.87601	0.03072
443.59025	0.03050
442.30448	0.03031
441.01871	0.03016
439.73294	0.03003
438.44717	0.02994
437.16140	0.02988
435.87563	0.02984
434.58986	0.02979
433.30409	0.02970
432.01833	0.02957
430.73256	0.02942
429.44679	0.02924
428.16102	0.02904
426.87525	0.02884
425.58948	0.02868
424.30371	0.02857
423.01794	0.02848
421.73218	0.02838
420.44641	0.02821
419.16064	0.02802
417.87487	0.02787
416.58910	0.02779
415.30333	0.02773
414.01756	0.02765
412.73179	0.02755
411.44602	0.02744
410.16026	0.02734
408.87449	0.02729
407.58872	0.02729
406.30295	0.02733
405.01718	0.02739
403.73141	0.02750
402.44564	0.02763
401.15987	0.02778
399.87411	0.02793
