3997.45528	-0.00602
3996.16951	-0.00612
3994.88374	-0.00649
3993.59798	-0.00704
3992.31221	-0.00756
3991.02644	-0.00794
3989.74067	-0.00818
3988.45490	-0.00828
3987.16913	-0.00829
3985.88336	-0.00825
3984.59759	-0.00811
3983.31183	-0.00765
3982.02606	-0.00675
3980.74029	-0.00559
3979.45452	-0.00454
3978.16875	-0.00378
3976.88298	-0.00325
3975.59721	-0.00299
3974.31144	-0.00313
3973.02567	-0.00360
3971.73991	-0.00394
3970.45414	-0.00384
3969.16837	-0.00338
3967.88260	-0.00291
3966.59683	-0.00265
3965.31106	-0.00264
3964.02529	-0.00286
3962.73952	-0.00319
3961.45376	-0.00329
3960.16799	-0.00296
3958.88222	-0.00238
3957.59645	-0.00188
3956.31068	-0.00160
3955.02491	-0.00140
3953.73914	-0.00116
3952.45337	-0.00087
3951.16760	-0.00060
3949.88184	-0.00043
3948.59607	-0.00041
3947.31030	-0.00057
3946.02453	-0.00088
3944.73876	-0.00125
3943.45299	-0.00147
3942.16722	-0.00142
3940.88145	-0.00116
3939.59569	-0.00089
3938.30992	-0.00063
3937.02415	-0.00024
3935.73838	0.00027
3934.45261	0.00058
3933.16684	0.00037
3931.88107	-0.00038
3930.59530	-0.00123
3929.30953	-0.00156
3928.02377	-0.00099
3926.73800	0.00027
3925.45223	0.00158
3924.16646	0.00241
3922.88069	0.00261
3921.59492	0.00231
3920.30915	0.00170
3919.02338	0.00097
3917.73762	0.00040
3916.45185	0.00029
3915.16608	0.00070
3913.88031	0.00128
3912.59454	0.00157
3911.30877	0.00138
3910.02300	0.00085
3908.73723	0.00035
3907.45146	0.00024
3906.16570	0.00056
3904.87993	0.00115
3903.59416	0.00162
3902.30839	0.00160
3901.02262	0.00101
3899.73685	0.00023
3898.45108	-0.00023
3897.16531	-0.00028
3895.87955	-0.00015
3894.59378	-0.00002
3893.30801	0.00023
3892.02224	0.00087
3890.73647	0.00197
3889.45070	0.00312
3888.16493	0.00366
3886.87916	0.00356
3885.59339	0.00355
3884.30763	0.00408
3883.02186	0.00484
3881.73609	0.00527
3880.45032	0.00521
3879.16455	0.00480
3877.87878	0.00409
3876.59301	0.00330
3875.30724	0.00288
3874.02148	0.00301
3872.73571	0.00330
3871.44994	0.00328
3870.16417	0.00311
3868.87840	0.00318
3867.59263	0.00336
3866.30686	0.00339
3865.02109	0.00339
3863.73532	0.00353
3862.44956	0.00371
3861.16379	0.00390
3859.87802	0.00430
3858.59225	0.00494
3857.30648	0.00534
3856.02071	0.00511
3854.73494	0.00461
3853.44917	0.00470
3852.16341	0.00554
3850.87764	0.00631
3849.59187	0.00644
3848.30610	0.00616
3847.02033	0.00591
3845.73456	0.00580
3844.44879	0.00573
3843.16302	0.00562
3841.87725	0.00539
3840.59149	0.00493
3839.30572	0.00435
3838.01995	0.00405
3836.73418	0.00431
3835.44841	0.00494
3834.16264	0.00556
3832.87687	0.00599
3831.59110	0.00621
3830.30534	0.00609
3829.01957	0.00560
3827.73380	0.00497
3826.44803	0.00461
3825.16226	0.00463
3823.87649	0.00466
3822.59072	0.00458
3821.30495	0.00480
3820.01918	0.00551
3818.73342	0.00606
3817.44765	0.00591
3816.16188	0.00548
3814.87611	0.00535
3813.59034	0.00523
3812.30457	0.00466
3811.01880	0.00377
3809.73303	0.00288
3808.44726	0.00222
3807.16150	0.00209
3805.87573	0.00257
3804.58996	0.00306
3803.30419	0.00300
3802.01842	0.00282
3800.73265	0.00344
3799.44688	0.00479
3798.16111	0.00595
3796.87535	0.00647
3795.58958	0.00659
3794.30381	0.00657
3793.01804	0.00641
3791.73227	0.00609
3790.44650	0.00568
3789.16073	0.00529
3787.87496	0.00504
3786.58919	0.00498
3785.30343	0.00504
3784.01766	0.00502
3782.73189	0.00488
3781.44612	0.00483
3780.16035	0.00526
3778.87458	0.00620
3777.58881	0.00712
3776.30304	0.00744
3775.01728	0.00708
3773.73151	0.00633
3772.44574	0.00548
3771.15997	0.00480
3769.87420	0.00459
3768.58843	0.00496
3767.30266	0.00568
3766.01689	0.00648
3764.73112	0.00718
3763.44536	0.00751
3762.15959	0.00731
3760.87382	0.00680
3759.58805	0.00637
3758.30228	0.00617
3757.01651	0.00610
3755.73074	0.00602
3754.44497	0.00579
3753.15921	0.00553
3751.87344	0.00544
3750.58767	0.00560
3749.30190	0.00587
3748.01613	0.00591
3746.73036	0.00539
3745.44459	0.00471
3744.15882	0.00474
3742.87305	0.00551
3741.58729	0.00603
3740.30152	0.00572
3739.01575	0.00483
3737.72998	0.00384
3736.44421	0.00311
3735.15844	0.00286
3733.87267	0.00286
3732.58690	0.00291
3731.30114	0.00288
3730.01537	0.00243
3728.72960	0.00146
3727.44383	0.00035
3726.15806	-0.00005
3724.87229	0.00050
3723.58652	0.00131
3722.30075	0.00165
3721.01498	0.00132
3719.72922	0.00075
3718.44345	0.00075
3717.15768	0.00164
3715.87191	0.00290
3714.58614	0.00378
3713.30037	0.00408
3712.01460	0.00427
3710.72883	0.00446
3709.44307	0.00429
3708.15730	0.00386
3706.87153	0.00343
3705.58576	0.00322
3704.29999	0.00321
3703.01422	0.00328
3701.72845	0.00331
3700.44268	0.00320
3699.15691	0.00308
3697.87115	0.00331
3696.58538	0.00408
3695.29961	0.00512
3694.01384	0.00580
3692.72807	0.00595
3691.44230	0.00564
3690.15653	0.00507
3688.87076	0.00477
3687.58500	0.00519
3686.29923	0.00609
3685.01346	0.00687
3683.72769	0.00718
3682.44192	0.00719
3681.15615	0.00726
3679.87038	0.00744
3678.58461	0.00752
3677.29884	0.00751
3676.01308	0.00787
3674.72731	0.00876
3673.44154	0.00931
3672.15577	0.00853
3670.87000	0.00690
3669.58423	0.00577
3668.29846	0.00569
3667.01269	0.00623
3665.72693	0.00695
3664.44116	0.00772
3663.15539	0.00845
3661.86962	0.00902
3660.58385	0.00947
3659.29808	0.00989
3658.01231	0.01037
3656.72654	0.01105
3655.44077	0.01197
3654.15501	0.01282
3652.86924	0.01310
3651.58347	0.01274
3650.29770	0.01219
3649.01193	0.01196
3647.72616	0.01220
3646.44039	0.01266
3645.15462	0.01300
3643.86886	0.01310
3642.58309	0.01295
3641.29732	0.01268
3640.01155	0.01251
3638.72578	0.01268
3637.44001	0.01322
3636.15424	0.01382
3634.86847	0.01417
3633.58270	0.01438
3632.29694	0.01449
3631.01117	0.01440
3629.72540	0.01429
3628.43963	0.01447
3627.15386	0.01497
3625.86809	0.01546
3624.58232	0.01594
3623.29655	0.01650
3622.01079	0.01720
3620.72502	0.01785
3619.43925	0.01848
3618.15348	0.01900
3616.86771	0.01930
3615.58194	0.01947
3614.29617	0.01983
3613.01040	0.02046
3611.72463	0.02104
3610.43887	0.02122
3609.15310	0.02094
3607.86733	0.02048
3606.58156	0.02008
3605.29579	0.01990
3604.01002	0.02010
3602.72425	0.02078
3601.43848	0.02191
3600.15272	0.02312
3598.86695	0.02382
3597.58118	0.02361
3596.29541	0.02297
3595.00964	0.02256
3593.72387	0.02285
3592.43810	0.02388
3591.15233	0.02501
3589.86656	0.02575
3588.58080	0.02625
3587.29503	0.02672
3586.00926	0.02729
3584.72349	0.02790
3583.43772	0.02841
3582.15195	0.02887
3580.86618	0.02936
3579.58041	0.02981
3578.29464	0.03017
3577.00888	0.03044
3575.72311	0.03065
3574.43734	0.03083
3573.15157	0.03101
3571.86580	0.03124
3570.58003	0.03141
3569.29426	0.03136
3568.00849	0.03110
3566.72273	0.03092
3565.43696	0.03115
3564.15119	0.03191
3562.86542	0.03306
3561.57965	0.03423
3560.29388	0.03502
3559.00811	0.03526
3557.72234	0.03513
3556.43657	0.03495
3555.15081	0.03491
3553.86504	0.03502
3552.57927	0.03516
3551.29350	0.03526
3550.00773	0.03534
3548.72196	0.03543
3547.43619	0.03549
3546.15042	0.03544
3544.86466	0.03530
3543.57889	0.03522
3542.29312	0.03536
3541.00735	0.03582
3539.72158	0.03661
3538.43581	0.03769
3537.15004	0.03896
3535.86427	0.04017
3534.57850	0.04095
3533.29274	0.04103
3532.00697	0.04053
3530.72120	0.03995
3529.43543	0.03977
3528.14966	0.04011
3526.86389	0.04077
3525.57812	0.04153
3524.29235	0.04221
3523.00659	0.04270
3521.72082	0.04283
3520.43505	0.04256
3519.14928	0.04210
3517.86351	0.04194
3516.57774	0.04240
3515.29197	0.04342
3514.00620	0.04462
3512.72043	0.04564
3511.43467	0.04631
3510.14890	0.04667
3508.86313	0.04682
3507.57736	0.04685
3506.29159	0.04684
3505.00582	0.04693
3503.72005	0.04717
3502.43428	0.04755
3501.14852	0.04802
3499.86275	0.04855
3498.57698	0.04906
3497.29121	0.04949
3496.00544	0.04991
3494.71967	0.05039
3493.43390	0.05089
3492.14813	0.05112
3490.86236	0.05084
3489.57660	0.05012
3488.29083	0.04932
3487.00506	0.04890
3485.71929	0.04916
3484.43352	0.05005
3483.14775	0.05114
3481.86198	0.05186
3480.57621	0.05188
3479.29045	0.05136
3478.00468	0.05086
3476.71891	0.05091
3475.43314	0.05152
3474.14737	0.05235
3472.86160	0.05301
3471.57583	0.05340
3470.29006	0.05365
3469.00429	0.05383
3467.71853	0.05392
3466.43276	0.05401
3465.14699	0.05426
3463.86122	0.05478
3462.57545	0.05543
3461.28968	0.05587
3460.00391	0.05584
3458.71814	0.05541
3457.43238	0.05495
3456.14661	0.05485
3454.86084	0.05521
3453.57507	0.05582
3452.28930	0.05644
3451.00353	0.05694
3449.71776	0.05730
3448.43199	0.05739
3447.14622	0.05718
3445.86046	0.05684
3444.57469	0.05675
3443.28892	0.05714
3442.00315	0.05789
3440.71738	0.05862
3439.43161	0.05897
3438.14584	0.05880
3436.86007	0.05830
3435.57431	0.05789
3434.28854	0.05789
3433.00277	0.05826
3431.71700	0.05867
3430.43123	0.05893
3429.14546	0.05920
3427.85969	0.05973
3426.57392	0.06055
3425.28815	0.06141
3424.00239	0.06199
3422.71662	0.06219
3421.43085	0.06216
3420.14508	0.06217
3418.85931	0.06240
3417.57354	0.06273
3416.28777	0.06291
3415.00200	0.06278
3413.71624	0.06245
3412.43047	0.06223
3411.14470	0.06237
3409.85893	0.06286
3408.57316	0.06343
3407.28739	0.06386
3406.00162	0.06412
3404.71585	0.06428
3403.43008	0.06435
3402.14432	0.06431
3400.85855	0.06413
3399.57278	0.06380
3398.28701	0.06339
3397.00124	0.06304
3395.71547	0.06295
3394.42970	0.06328
3393.14393	0.06392
3391.85817	0.06459
3390.57240	0.06505
3389.28663	0.06526
3388.00086	0.06535
3386.71509	0.06545
3385.42932	0.06560
3384.14355	0.06575
3382.85778	0.06586
3381.57201	0.06590
3380.28625	0.06593
3379.00048	0.06605
3377.71471	0.06626
3376.42894	0.06642
3375.14317	0.06643
3373.85740	0.06635
3372.57163	0.06636
3371.28586	0.06654
3370.00010	0.06676
3368.71433	0.06687
3367.42856	0.06678
3366.14279	0.06646
3364.85702	0.06589
3363.57125	0.06519
3362.28548	0.06460
3360.99971	0.06436
3359.71394	0.06441
3358.42818	0.06456
3357.14241	0.06467
3355.85664	0.06482
3354.57087	0.06516
3353.28510	0.06572
3351.99933	0.06634
3350.71356	0.06683
3349.42779	0.06709
3348.14202	0.06711
3346.85626	0.06696
3345.57049	0.06669
3344.28472	0.06635
3342.99895	0.06609
3341.71318	0.06608
3340.42741	0.06627
3339.14164	0.06646
3337.85587	0.06648
3336.57011	0.06635
3335.28434	0.06632
3333.99857	0.06653
3332.71280	0.06687
3331.42703	0.06712
3330.14126	0.06711
3328.85549	0.06689
3327.56972	0.06669
3326.28395	0.06671
3324.99819	0.06707
3323.71242	0.06773
3322.42665	0.06853
3321.14088	0.06923
3319.85511	0.06961
3318.56934	0.06954
3317.28357	0.06905
3315.99780	0.06835
3314.71204	0.06760
3313.42627	0.06698
3312.14050	0.06665
3310.85473	0.06673
3309.56896	0.06710
3308.28319	0.06745
3306.99742	0.06751
3305.71165	0.06732
3304.42588	0.06709
3303.14012	0.06697
3301.85435	0.06695
3300.56858	0.06692
3299.28281	0.06682
3297.99704	0.06665
3296.71127	0.06643
3295.42550	0.06621
3294.13973	0.06608
3292.85397	0.06608
3291.56820	0.06622
3290.28243	0.06647
3288.99666	0.06672
3287.71089	0.06685
3286.42512	0.06679
3285.13935	0.06662
3283.85358	0.06649
3282.56781	0.06646
3281.28205	0.06644
3279.99628	0.06632
3278.71051	0.06610
3277.42474	0.06589
3276.13897	0.06583
3274.85320	0.06589
3273.56743	0.06598
3272.28166	0.06603
3270.99590	0.06601
3269.71013	0.06593
3268.42436	0.06580
3267.13859	0.06568
3265.85282	0.06568
3264.56705	0.06586
3263.28128	0.06615
3261.99551	0.06638
3260.70974	0.06650
3259.42398	0.06661
3258.13821	0.06682
3256.85244	0.06706
3255.56667	0.06711
3254.28090	0.06680
3252.99513	0.06626
3251.70936	0.06585
3250.42359	0.06580
3249.13783	0.06605
3247.85206	0.06635
3246.56629	0.06655
3245.28052	0.06661
3243.99475	0.06657
3242.70898	0.06642
3241.42321	0.06614
3240.13744	0.06572
3238.85167	0.06528
3237.56591	0.06494
3236.28014	0.06484
3234.99437	0.06511
3233.70860	0.06573
3232.42283	0.06646
3231.13706	0.06689
3229.85129	0.06689
3228.56552	0.06660
3227.27976	0.06626
3225.99399	0.06592
3224.70822	0.06552
3223.42245	0.06509
3222.13668	0.06482
3220.85091	0.06484
3219.56514	0.06508
3218.27937	0.06529
3216.99360	0.06528
3215.70784	0.06504
3214.42207	0.06474
3213.13630	0.06453
3211.85053	0.06445
3210.56476	0.06442
3209.27899	0.06437
3207.99322	0.06428
3206.70745	0.06420
3205.42169	0.06420
3204.13592	0.06431
3202.85015	0.06443
3201.56438	0.06447
3200.27861	0.06446
3198.99284	0.06449
3197.70707	0.06462
3196.42130	0.06474
3195.13553	0.06474
3193.84977	0.06461
3192.56400	0.06451
3191.27823	0.06454
3189.99246	0.06461
3188.70669	0.06455
3187.42092	0.06433
3186.13515	0.06402
3184.84938	0.06365
3183.56362	0.06327
3182.27785	0.06301
3180.99208	0.06303
3179.70631	0.06332
3178.42054	0.06367
3177.13477	0.06386
3175.84900	0.06382
3174.56323	0.06365
3173.27746	0.06343
3171.99170	0.06318
3170.70593	0.06285
3169.42016	0.06250
3168.13439	0.06231
3166.84862	0.06241
3165.56285	0.06276
3164.27708	0.06314
3162.99131	0.06328
3161.70555	0.06308
3160.41978	0.06268
3159.13401	0.06234
3157.84824	0.06226
3156.56247	0.06236
3155.27670	0.06237
3153.99093	0.06206
3152.70516	0.06155
3151.41939	0.06113
3150.13363	0.06100
3148.84786	0.06113
3147.56209	0.06137
3146.27632	0.06162
3144.99055	0.06181
3143.70478	0.06189
3142.41901	0.06176
3141.13324	0.06147
3139.84748	0.06115
3138.56171	0.06091
3137.27594	0.06074
3135.99017	0.06057
3134.70440	0.06037
3133.41863	0.06022
3132.13286	0.06013
3130.84709	0.06002
3129.56132	0.05984
3128.27556	0.05965
3126.98979	0.05953
3125.70402	0.05946
3124.41825	0.05936
3123.13248	0.05920
3121.84671	0.05901
3120.56094	0.05882
3119.27517	0.05866
3117.98940	0.05859
3116.70364	0.05864
3115.41787	0.05874
3114.13210	0.05877
3112.84633	0.05869
3111.56056	0.05853
3110.27479	0.05836
3108.98902	0.05822
3107.70325	0.05811
3106.41749	0.05803
3105.13172	0.05806
3103.84595	0.05824
3102.56018	0.05854
3101.27441	0.05886
3099.98864	0.05907
3098.70287	0.05902
3097.41710	0.05867
3096.13133	0.05812
3094.84557	0.05761
3093.55980	0.05732
3092.27403	0.05723
3090.98826	0.05716
3089.70249	0.05707
3088.41672	0.05708
3087.13095	0.05739
3085.84518	0.05798
3084.55942	0.05853
3083.27365	0.05869
3081.98788	0.05832
3080.70211	0.05760
3079.41634	0.05692
3078.13057	0.05654
3076.84480	0.05644
3075.55903	0.05641
3074.27326	0.05629
3072.98750	0.05606
3071.70173	0.05578
3070.41596	0.05553
3069.13019	0.05539
3067.84442	0.05541
3066.55865	0.05556
3065.27288	0.05569
3063.98711	0.05567
3062.70135	0.05553
3061.41558	0.05542
3060.12981	0.05540
3058.84404	0.05547
3057.55827	0.05556
3056.27250	0.05567
3054.98673	0.05574
3053.70096	0.05568
3052.41519	0.05542
3051.12943	0.05499
3049.84366	0.05455
3048.55789	0.05429
3047.27212	0.05428
3045.98635	0.05446
3044.70058	0.05462
3043.41481	0.05456
3042.12904	0.05429
3040.84328	0.05399
3039.55751	0.05379
3038.27174	0.05364
3036.98597	0.05344
3035.70020	0.05319
3034.41443	0.05301
3033.12866	0.05297
3031.84289	0.05302
3030.55712	0.05310
3029.27136	0.05313
3027.98559	0.05302
3026.69982	0.05269
3025.41405	0.05219
3024.12828	0.05175
3022.84251	0.05163
3021.55674	0.05195
3020.27097	0.05254
3018.98521	0.05309
3017.69944	0.05333
3016.41367	0.05319
3015.12790	0.05282
3013.84213	0.05243
3012.55636	0.05215
3011.27059	0.05204
3009.98482	0.05212
3008.69905	0.05237
3007.41329	0.05272
3006.12752	0.05295
3004.84175	0.05291
3003.55598	0.05257
3002.27021	0.05206
3000.98444	0.05156
2999.69867	0.05120
2998.41290	0.05106
2997.12714	0.05110
2995.84137	0.05122
2994.55560	0.05133
2993.26983	0.05139
2991.98406	0.05143
2990.69829	0.05145
2989.41252	0.05147
2988.12675	0.05154
2986.84098	0.05174
2985.55522	0.05205
2984.26945	0.05234
2982.98368	0.05254
2981.69791	0.05272
2980.41214	0.05305
2979.12637	0.05358
2977.84060	0.05424
2976.55483	0.05490
2975.26907	0.05547
2973.98330	0.05589
2972.69753	0.05625
2971.41176	0.05675
2970.12599	0.05747
2968.84022	0.05834
2967.55445	0.05921
2966.26868	0.06008
2964.98291	0.06100
2963.69715	0.06194
2962.41138	0.06278
2961.12561	0.06352
2959.83984	0.06425
2958.55407	0.06504
2957.26830	0.06579
2955.98253	0.06633
2954.69676	0.06661
2953.41100	0.06669
2952.12523	0.06665
2950.83946	0.06656
2949.55369	0.06651
2948.26792	0.06653
2946.98215	0.06654
2945.69638	0.06641
2944.41061	0.06614
2943.12484	0.06589
2941.83908	0.06579
2940.55331	0.06587
2939.26754	0.06617
2937.98177	0.06676
2936.69600	0.06763
2935.41023	0.06861
2934.12446	0.06943
2932.83869	0.06997
2931.55293	0.07031
2930.26716	0.07056
2928.98139	0.07081
2927.69562	0.07113
2926.40985	0.07158
2925.12408	0.07209
2923.83831	0.07246
2922.55254	0.07259
2921.26677	0.07252
2919.98101	0.07227
2918.69524	0.07175
2917.40947	0.07093
2916.12370	0.06992
2914.83793	0.06891
2913.55216	0.06801
2912.26639	0.06724
2910.98062	0.06662
2909.69486	0.06615
2908.40909	0.06578
2907.12332	0.06541
2905.83755	0.06503
2904.55178	0.06461
2903.26601	0.06418
2901.98024	0.06367
2900.69447	0.06302
2899.40870	0.06219
2898.12294	0.06133
2896.83717	0.06066
2895.55140	0.06028
2894.26563	0.06005
2892.97986	0.05968
2891.69409	0.05901
2890.40832	0.05817
2889.12255	0.05748
2887.83678	0.05713
2886.55102	0.05709
2885.26525	0.05710
2883.97948	0.05698
2882.69371	0.05670
2881.40794	0.05643
2880.12217	0.05639
2878.83640	0.05669
2877.55063	0.05726
2876.26487	0.05785
2874.97910	0.05822
2873.69333	0.05831
2872.40756	0.05820
2871.12179	0.05804
2869.83602	0.05792
2868.55025	0.05786
2867.26448	0.05784
2865.97871	0.05785
2864.69295	0.05796
2863.40718	0.05820
2862.12141	0.05849
2860.83564	0.05869
2859.54987	0.05875
2858.26410	0.05870
2856.97833	0.05855
2855.69256	0.05831
2854.40680	0.05801
2853.12103	0.05771
2851.83526	0.05739
2850.54949	0.05695
2849.26372	0.05631
2847.97795	0.05550
2846.69218	0.05461
2845.40641	0.05367
2844.12064	0.05276
2842.83488	0.05202
2841.54911	0.05157
2840.26334	0.05133
2838.97757	0.05102
2837.69180	0.05044
2836.40603	0.04961
2835.12026	0.04874
2833.83449	0.04794
2832.54873	0.04721
2831.26296	0.04658
2829.97719	0.04613
2828.69142	0.04588
2827.40565	0.04572
2826.11988	0.04552
2824.83411	0.04522
2823.54834	0.04491
2822.26257	0.04471
2820.97681	0.04463
2819.69104	0.04458
2818.40527	0.04442
2817.11950	0.04411
2815.83373	0.04377
2814.54796	0.04352
2813.26219	0.04337
2811.97642	0.04320
2810.69066	0.04295
2809.40489	0.04271
2808.11912	0.04262
2806.83335	0.04270
2805.54758	0.04281
2804.26181	0.04283
2802.97604	0.04272
2801.69027	0.04257
2800.40450	0.04241
2799.11874	0.04223
2797.83297	0.04202
2796.54720	0.04177
2795.26143	0.04150
2793.97566	0.04126
2792.68989	0.04112
2791.40412	0.04112
2790.11835	0.04126
2788.83259	0.04146
2787.54682	0.04159
2786.26105	0.04160
2784.97528	0.04148
2783.68951	0.04129
2782.40374	0.04103
2781.11797	0.04072
2779.83220	0.04047
2778.54643	0.04034
2777.26067	0.04025
2775.97490	0.04006
2774.68913	0.03983
2773.40336	0.03981
2772.11759	0.04010
2770.83182	0.04047
2769.54605	0.04060
2768.26028	0.04040
2766.97452	0.04009
2765.68875	0.03997
2764.40298	0.04008
2763.11721	0.04021
2761.83144	0.04009
2760.54567	0.03968
2759.25990	0.03921
2757.97413	0.03897
2756.68836	0.03904
2755.40260	0.03921
2754.11683	0.03920
2752.83106	0.03893
2751.54529	0.03854
2750.25952	0.03830
2748.97375	0.03834
2747.68798	0.03861
2746.40221	0.03887
2745.11645	0.03894
2743.83068	0.03883
2742.54491	0.03865
2741.25914	0.03842
2739.97337	0.03813
2738.68760	0.03785
2737.40183	0.03771
2736.11606	0.03778
2734.83029	0.03798
2733.54453	0.03820
2732.25876	0.03831
2730.97299	0.03821
2729.68722	0.03790
2728.40145	0.03757
2727.11568	0.03744
2725.82991	0.03755
2724.54414	0.03767
2723.25838	0.03759
2721.97261	0.03739
2720.68684	0.03730
2719.40107	0.03742
2718.11530	0.03760
2716.82953	0.03765
2715.54376	0.03757
2714.25799	0.03749
2712.97222	0.03748
2711.68646	0.03744
2710.40069	0.03726
2709.11492	0.03698
2707.82915	0.03676
2706.54338	0.03673
2705.25761	0.03688
2703.97184	0.03705
2702.68607	0.03709
2701.40031	0.03690
2700.11454	0.03656
2698.82877	0.03625
2697.54300	0.03613
2696.25723	0.03626
2694.97146	0.03648
2693.68569	0.03660
2692.39992	0.03656
2691.11415	0.03638
2689.82839	0.03616
2688.54262	0.03596
2687.25685	0.03577
2685.97108	0.03558
2684.68531	0.03536
2683.39954	0.03520
2682.11377	0.03518
2680.82800	0.03529
2679.54224	0.03544
2678.25647	0.03551
2676.97070	0.03553
2675.68493	0.03555
2674.39916	0.03558
2673.11339	0.03556
2671.82762	0.03545
2670.54185	0.03528
2669.25608	0.03512
2667.97032	0.03506
2666.68455	0.03512
2665.39878	0.03522
2664.11301	0.03526
2662.82724	0.03519
2661.54147	0.03508
2660.25570	0.03499
2658.96993	0.03487
2657.68417	0.03467
2656.39840	0.03444
2655.11263	0.03426
2653.82686	0.03421
2652.54109	0.03424
2651.25532	0.03425
2649.96955	0.03416
2648.68378	0.03394
2647.39801	0.03366
2646.11225	0.03344
2644.82648	0.03329
2643.54071	0.03312
2642.25494	0.03280
2640.96917	0.03238
2639.68340	0.03203
2638.39763	0.03189
2637.11186	0.03191
2635.82609	0.03194
2634.54033	0.03189
2633.25456	0.03178
2631.96879	0.03164
2630.68302	0.03146
2629.39725	0.03121
2628.11148	0.03087
2626.82571	0.03051
2625.53994	0.03025
2624.25418	0.03014
2622.96841	0.03014
2621.68264	0.03014
2620.39687	0.03014
2619.11110	0.03018
2617.82533	0.03026
2616.53956	0.03031
2615.25379	0.03028
2613.96802	0.03012
2612.68226	0.02983
2611.39649	0.02945
2610.11072	0.02910
2608.82495	0.02885
2607.53918	0.02871
2606.25341	0.02867
2604.96764	0.02868
2603.68187	0.02861
2602.39611	0.02830
2601.11034	0.02774
2599.82457	0.02713
2598.53880	0.02673
2597.25303	0.02664
2595.96726	0.02681
2594.68149	0.02705
2593.39572	0.02724
2592.10995	0.02741
2590.82419	0.02761
2589.53842	0.02783
2588.25265	0.02785
2586.96688	0.02758
2585.68111	0.02720
2584.39534	0.02699
2583.10957	0.02707
2581.82380	0.02723
2580.53804	0.02721
2579.25227	0.02695
2577.96650	0.02656
2576.68073	0.02624
2575.39496	0.02609
2574.10919	0.02610
2572.82342	0.02610
2571.53765	0.02591
2570.25188	0.02551
2568.96612	0.02513
2567.68035	0.02504
2566.39458	0.02531
2565.10881	0.02574
2563.82304	0.02611
2562.53727	0.02643
2561.25150	0.02676
2559.96573	0.02701
2558.67997	0.02697
2557.39420	0.02655
2556.10843	0.02599
2554.82266	0.02557
2553.53689	0.02540
2552.25112	0.02544
2550.96535	0.02553
2549.67958	0.02552
2548.39381	0.02532
2547.10805	0.02499
2545.82228	0.02474
2544.53651	0.02478
2543.25074	0.02508
2541.96497	0.02532
2540.67920	0.02520
2539.39343	0.02473
2538.10766	0.02423
2536.82190	0.02389
2535.53613	0.02360
2534.25036	0.02323
2532.96459	0.02289
2531.67882	0.02282
2530.39305	0.02312
2529.10728	0.02360
2527.82151	0.02400
2526.53574	0.02417
2525.24998	0.02416
2523.96421	0.02409
2522.67844	0.02408
2521.39267	0.02411
2520.10690	0.02408
2518.82113	0.02394
2517.53536	0.02379
2516.24959	0.02380
2514.96383	0.02400
2513.67806	0.02420
2512.39229	0.02420
2511.10652	0.02401
2509.82075	0.02385
2508.53498	0.02381
2507.24921	0.02382
2505.96344	0.02379
2504.67767	0.02375
2503.39191	0.02377
2502.10614	0.02377
2500.82037	0.02366
2499.53460	0.02349
2498.24883	0.02348
2496.96306	0.02368
2495.67729	0.02393
2494.39152	0.02402
2493.10576	0.02398
2491.81999	0.02396
2490.53422	0.02400
2489.24845	0.02406
2487.96268	0.02409
2486.67691	0.02403
2485.39114	0.02384
2484.10537	0.02352
2482.81960	0.02318
2481.53384	0.02294
2480.24807	0.02286
2478.96230	0.02293
2477.67653	0.02310
2476.39076	0.02323
2475.10499	0.02318
2473.81922	0.02299
2472.53345	0.02283
2471.24769	0.02285
2469.96192	0.02302
2468.67615	0.02317
2467.39038	0.02326
2466.10461	0.02333
2464.81884	0.02344
2463.53307	0.02350
2462.24730	0.02342
2460.96153	0.02323
2459.67577	0.02307
2458.39000	0.02307
2457.10423	0.02323
2455.81846	0.02344
2454.53269	0.02359
2453.24692	0.02361
2451.96115	0.02354
2450.67538	0.02344
2449.38962	0.02329
2448.10385	0.02300
2446.81808	0.02259
2445.53231	0.02223
2444.24654	0.02210
2442.96077	0.02223
2441.67500	0.02248
2440.38923	0.02270
2439.10346	0.02281
2437.81770	0.02273
2436.53193	0.02242
2435.24616	0.02202
2433.96039	0.02187
2432.67462	0.02215
2431.38885	0.02268
2430.10308	0.02308
2428.81731	0.02316
2427.53155	0.02300
2426.24578	0.02277
2424.96001	0.02261
2423.67424	0.02252
2422.38847	0.02247
2421.10270	0.02244
2419.81693	0.02237
2418.53116	0.02225
2417.24539	0.02205
2415.95963	0.02175
2414.67386	0.02144
2413.38809	0.02126
2412.10232	0.02130
2410.81655	0.02156
2409.53078	0.02189
2408.24501	0.02215
2406.95924	0.02225
2405.67347	0.02220
2404.38771	0.02208
2403.10194	0.02198
2401.81617	0.02197
2400.53040	0.02204
2399.24463	0.02289
2397.95886	0.02347
2396.67309	0.02351
2395.38732	0.02322
2394.10156	0.02275
2392.81579	0.02217
2391.53002	0.02161
2390.24425	0.02116
2388.95848	0.02089
2387.67271	0.02078
2386.38694	0.02076
2385.10117	0.02072
2383.81540	0.02059
2382.52964	0.02034
2381.24387	0.02011
2379.95810	0.01988
2378.67233	0.01967
2377.38656	0.01955
2376.10079	0.01917
2374.81502	0.01852
2373.52925	0.01789
2372.24349	0.01718
2370.95772	0.01660
2369.67195	0.01557
2368.38618	0.01432
2367.10041	0.01366
2365.81464	0.01320
2364.52887	0.01185
2363.24310	0.01043
2361.95733	0.01033
2360.67157	0.01144
2359.38580	0.01239
2358.10003	0.01315
2356.81426	0.01357
2355.52849	0.01321
2354.24272	0.01278
2352.95695	0.01278
2351.67118	0.01398
2350.38542	0.01677
2349.09965	0.01842
2347.81388	0.01650
2346.52811	0.01349
2345.24234	0.01253
2343.95657	0.01342
2342.67080	0.01423
2341.38503	0.01498
2340.09926	0.01614
2338.81350	0.01712
2337.52773	0.01767
2336.24196	0.01717
2334.95619	0.01647
2333.67042	0.01653
2332.38465	0.01660
2331.09888	0.01671
2329.81311	0.01715
2328.52735	0.01723
2327.24158	0.01752
2325.95581	0.01826
2324.67004	0.01884
2323.38427	0.01952
2322.09850	0.02035
2320.81273	0.02068
2319.52696	0.02090
2318.24119	0.02116
2316.95543	0.02111
2315.66966	0.02080
2314.38389	0.02046
2313.09812	0.02032
2311.81235	0.02033
2310.52658	0.02039
2309.24081	0.02062
2307.95504	0.02091
2306.66928	0.02099
2305.38351	0.02099
2304.09774	0.02091
2302.81197	0.02076
2301.52620	0.02061
2300.24043	0.02047
2298.95466	0.02033
2297.66889	0.02013
2296.38312	0.01989
2295.09736	0.01960
2293.81159	0.01930
2292.52582	0.01909
2291.24005	0.01906
2289.95428	0.01925
2288.66851	0.01956
2287.38274	0.01977
2286.09697	0.01973
2284.81121	0.01948
2283.52544	0.01918
2282.23967	0.01894
2280.95390	0.01884
2279.66813	0.01888
2278.38236	0.01904
2277.09659	0.01917
2275.81082	0.01909
2274.52505	0.01865
2273.23929	0.01793
2271.95352	0.01725
2270.66775	0.01686
2269.38198	0.01678
2268.09621	0.01678
2266.81044	0.01667
2265.52467	0.01637
2264.23890	0.01601
2262.95314	0.01574
2261.66737	0.01563
2260.38160	0.01572
2259.09583	0.01604
2257.81006	0.01645
2256.52429	0.01667
2255.23852	0.01652
2253.95275	0.01609
2252.66698	0.01573
2251.38122	0.01573
2250.09545	0.01609
2248.80968	0.01634
2247.52391	0.01542
2246.23814	0.01394
2244.95237	0.01279
2243.66660	0.01277
2242.38083	0.01395
2241.09507	0.01554
2239.80930	0.01656
2238.52353	0.01658
2237.23776	0.01591
2235.95199	0.01510
2234.66622	0.01441
2233.38045	0.01376
2232.09468	0.01310
2230.80891	0.01257
2229.52315	0.01230
2228.23738	0.01225
2226.95161	0.01229
2225.66584	0.01233
2224.38007	0.01227
2223.09430	0.01186
2221.80853	0.01096
2220.52276	0.00996
2219.23700	0.00966
2217.95123	0.01031
2216.66546	0.01120
2215.37969	0.01141
2214.09392	0.01081
2212.80815	0.01006
2211.52238	0.00975
2210.23661	0.00985
2208.95084	0.01004
2207.66508	0.01017
2206.37931	0.01038
2205.09354	0.01065
2203.80777	0.01060
2202.52200	0.00990
2201.23623	0.00883
2199.95046	0.00811
2198.66469	0.00817
2197.37893	0.00880
2196.09316	0.00952
2194.80739	0.01012
2193.52162	0.01055
2192.23585	0.01069
2190.95008	0.01036
2189.66431	0.00945
2188.37854	0.00823
2187.09277	0.00727
2185.80701	0.00701
2184.52124	0.00719
2183.23547	0.00712
2181.94970	0.00653
2180.66393	0.00587
2179.37816	0.00565
2178.09239	0.00579
2176.80662	0.00584
2175.52085	0.00570
2174.23509	0.00563
2172.94932	0.00581
2171.66355	0.00609
2170.37778	0.00624
2169.09201	0.00615
2167.80624	0.00569
2166.52047	0.00476
2165.23470	0.00361
2163.94894	0.00280
2162.66317	0.00252
2161.37740	0.00225
2160.09163	0.00135
2158.80586	-0.00010
2157.52009	-0.00144
2156.23432	-0.00218
2154.94855	-0.00221
2153.66278	-0.00160
2152.37702	-0.00045
2151.09125	0.00107
2149.80548	0.00278
2148.51971	0.00451
2147.23394	0.00599
2145.94817	0.00684
2144.66240	0.00686
2143.37663	0.00636
2142.09087	0.00606
2140.80510	0.00641
2139.51933	0.00724
2138.23356	0.00798
2136.94779	0.00826
2135.66202	0.00822
2134.37625	0.00815
2133.09048	0.00823
2131.80471	0.00845
2130.51895	0.00875
2129.23318	0.00906
2127.94741	0.00928
2126.66164	0.00934
2125.37587	0.00922
2124.09010	0.00902
2122.80433	0.00885
2121.51856	0.00884
2120.23280	0.00910
2118.94703	0.00956
2117.66126	0.00994
2116.37549	0.01001
2115.08972	0.00988
2113.80395	0.00982
2112.51818	0.00991
2111.23241	0.01002
2109.94664	0.01000
2108.66088	0.00985
2107.37511	0.00961
2106.08934	0.00940
2104.80357	0.00936
2103.51780	0.00958
2102.23203	0.00996
2100.94626	0.01022
2099.66049	0.01048
2098.37473	0.01009
2097.08896	0.00933
2095.80319	0.00884
2094.51742	0.00894
2093.23165	0.00954
2091.94588	0.01022
2090.66011	0.01055
2089.37434	0.01044
2088.08857	0.01016
2086.80281	0.00998
2085.51704	0.00987
2084.23127	0.00960
2082.94550	0.00913
2081.65973	0.00879
2080.37396	0.00890
2079.08819	0.00933
2077.80242	0.00958
2076.51666	0.00927
2075.23089	0.00847
2073.94512	0.00753
2072.65935	0.00680
2071.37358	0.00637
2070.08781	0.00619
2068.80204	0.00619
2067.51627	0.00626
2066.23050	0.00630
2064.94474	0.00623
2063.65897	0.00620
2062.37320	0.00643
2061.08743	0.00700
2059.80166	0.00768
2058.51589	0.00795
2057.23012	0.00741
2055.94435	0.00616
2054.65859	0.00490
2053.37282	0.00438
2052.08705	0.00476
2050.80128	0.00551
2049.51551	0.00583
2048.22974	0.00538
2046.94397	0.00434
2045.65820	0.00320
2044.37243	0.00239
2043.08667	0.00215
2041.80090	0.00240
2040.51513	0.00288
2039.22936	0.00328
2037.94359	0.00363
2036.65782	0.00422
2035.37205	0.00516
2034.08628	0.00604
2032.80052	0.00614
2031.51475	0.00519
2030.22898	0.00360
2028.94321	0.00205
2027.65744	0.00096
2026.37167	0.00047
2025.08590	0.00052
2023.80013	0.00089
2022.51436	0.00131
2021.22860	0.00166
2019.94283	0.00203
2018.65706	0.00250
2017.37129	0.00298
2016.08552	0.00329
2014.79975	0.00337
2013.51398	0.00340
2012.22821	0.00360
2010.94245	0.00396
2009.65668	0.00417
2008.37091	0.00403
2007.08514	0.00377
2005.79937	0.00390
2004.51360	0.00459
2003.22783	0.00551
2001.94206	0.00616
2000.65629	0.00635
1999.37053	0.00625
1998.08476	0.00622
1996.79899	0.00643
1995.51322	0.00680
1994.22745	0.00711
1992.94168	0.00714
1991.65591	0.00687
1990.37014	0.00646
1989.08438	0.00615
1987.79861	0.00613
1986.51284	0.00632
1985.22707	0.00651
1983.94130	0.00668
1982.65553	0.00697
1981.36976	0.00743
1980.08399	0.00785
1978.79822	0.00797
1977.51246	0.00778
1976.22669	0.00750
1974.94092	0.00739
1973.65515	0.00755
1972.36938	0.00795
1971.08361	0.00841
1969.79784	0.00873
1968.51207	0.00887
1967.22631	0.00904
1965.94054	0.00932
1964.65477	0.00945
1963.36900	0.00910
1962.08323	0.00832
1960.79746	0.00758
1959.51169	0.00730
1958.22592	0.00748
1956.94015	0.00794
1955.65439	0.00861
1954.36862	0.00944
1953.08285	0.01022
1951.79708	0.01062
1950.51131	0.01044
1949.22554	0.00982
1947.93977	0.00904
1946.65400	0.00844
1945.36823	0.00826
1944.08247	0.00857
1942.79670	0.00926
1941.51093	0.01004
1940.22516	0.01062
1938.93939	0.01090
1937.65362	0.01101
1936.36785	0.01108
1935.08208	0.01110
1933.79632	0.01101
1932.51055	0.01084
1931.22478	0.01064
1929.93901	0.01049
1928.65324	0.01044
1927.36747	0.01054
1926.08170	0.01075
1924.79593	0.01101
1923.51016	0.01126
1922.22440	0.01147
1920.93863	0.01154
1919.65286	0.01141
1918.36709	0.01116
1917.08132	0.01099
1915.79555	0.01102
1914.50978	0.01126
1913.22401	0.01168
1911.93825	0.01206
1910.65248	0.01215
1909.36671	0.01187
1908.08094	0.01150
1906.79517	0.01138
1905.50940	0.01160
1904.22363	0.01196
1902.93786	0.01224
1901.65209	0.01239
1900.36633	0.01251
1899.08056	0.01263
1897.79479	0.01273
1896.50902	0.01274
1895.22325	0.01269
1893.93748	0.01269
1892.65171	0.01278
1891.36594	0.01296
1890.08018	0.01316
1888.79441	0.01337
1887.50864	0.01357
1886.22287	0.01373
1884.93710	0.01379
1883.65133	0.01371
1882.36556	0.01348
1881.07979	0.01319
1879.79402	0.01292
1878.50826	0.01268
1877.22249	0.01245
1875.93672	0.01232
1874.65095	0.01243
1873.36518	0.01280
1872.07941	0.01328
1870.79364	0.01366
1869.50787	0.01380
1868.22211	0.01368
1866.93634	0.01335
1865.65057	0.01294
1864.36480	0.01262
1863.07903	0.01251
1861.79326	0.01256
1860.50749	0.01266
1859.22172	0.01280
1857.93595	0.01302
1856.65019	0.01327
1855.36442	0.01341
1854.07865	0.01336
1852.79288	0.01316
1851.50711	0.01298
1850.22134	0.01295
1848.93557	0.01313
1847.64980	0.01345
1846.36404	0.01371
1845.07827	0.01380
1843.79250	0.01386
1842.50673	0.01397
1841.22096	0.01410
1839.93519	0.01412
1838.64942	0.01404
1837.36365	0.01390
1836.07788	0.01374
1834.79212	0.01363
1833.50635	0.01361
1832.22058	0.01368
1830.93481	0.01376
1829.64904	0.01380
1828.36327	0.01377
1827.07750	0.01364
1825.79173	0.01350
1824.50597	0.01351
1823.22020	0.01368
1821.93443	0.01388
1820.64866	0.01394
1819.36289	0.01378
1818.07712	0.01348
1816.79135	0.01323
1815.50558	0.01320
1814.21981	0.01340
1812.93405	0.01371
1811.64828	0.01400
1810.36251	0.01419
1809.07674	0.01426
1807.79097	0.01421
1806.50520	0.01407
1805.21943	0.01395
1803.93366	0.01390
1802.64790	0.01396
1801.36213	0.01409
1800.07636	0.01423
1798.79059	0.01434
1797.50482	0.01443
1796.21905	0.01457
1794.93328	0.01475
1793.64751	0.01490
1792.36174	0.01500
1791.07598	0.01507
1789.79021	0.01508
1788.50444	0.01498
1787.21867	0.01483
1785.93290	0.01473
1784.64713	0.01474
1783.36136	0.01486
1782.07559	0.01499
1780.78983	0.01509
1779.50406	0.01517
1778.21829	0.01530
1776.93252	0.01555
1775.64675	0.01588
1774.36098	0.01617
1773.07521	0.01634
1771.78944	0.01642
1770.50367	0.01638
1769.21791	0.01619
1767.93214	0.01597
1766.64637	0.01591
1765.36060	0.01599
1764.07483	0.01608
1762.78906	0.01613
1761.50329	0.01621
1760.21752	0.01634
1758.93176	0.01643
1757.64599	0.01645
1756.36022	0.01648
1755.07445	0.01656
1753.78868	0.01663
1752.50291	0.01665
1751.21714	0.01668
1749.93137	0.01676
1748.64560	0.01683
1747.35984	0.01690
1746.07407	0.01698
1744.78830	0.01705
1743.50253	0.01707
1742.21676	0.01700
1740.93099	0.01692
1739.64522	0.01702
1738.35945	0.01738
1737.07369	0.01777
1735.78792	0.01796
1734.50215	0.01804
1733.21638	0.01821
1731.93061	0.01842
1730.64484	0.01848
1729.35907	0.01839
1728.07330	0.01834
1726.78753	0.01836
1725.50177	0.01844
1724.21600	0.01856
1722.93023	0.01877
1721.64446	0.01911
1720.35869	0.01952
1719.07292	0.01993
1717.78715	0.02037
1716.50138	0.02081
1715.21561	0.02113
1713.92985	0.02128
1712.64408	0.02133
1711.35831	0.02142
1710.07254	0.02163
1708.78677	0.02195
1707.50100	0.02233
1706.21523	0.02279
1704.92946	0.02342
1703.64370	0.02414
1702.35793	0.02472
1701.07216	0.02513
1699.78639	0.02560
1698.50062	0.02599
1697.21485	0.02604
1695.92908	0.02585
1694.64331	0.02582
1693.35754	0.02598
1692.07178	0.02613
1690.78601	0.02629
1689.50024	0.02667
1688.21447	0.02726
1686.92870	0.02780
1685.64293	0.02817
1684.35716	0.02849
1683.07139	0.02879
1681.78563	0.02892
1680.49986	0.02886
1679.21409	0.02886
1677.92832	0.02906
1676.64255	0.02941
1675.35678	0.02988
1674.07101	0.03046
1672.78524	0.03098
1671.49947	0.03131
1670.21371	0.03151
1668.92794	0.03175
1667.64217	0.03205
1666.35640	0.03230
1665.07063	0.03240
1663.78486	0.03244
1662.49909	0.03254
1661.21332	0.03275
1659.92756	0.03308
1658.64179	0.03359
1657.35602	0.03431
1656.07025	0.03504
1654.78448	0.03549
1653.49871	0.03566
1652.21294	0.03583
1650.92717	0.03600
1649.64140	0.03595
1648.35564	0.03569
1647.06987	0.03551
1645.78410	0.03551
1644.49833	0.03556
1643.21256	0.03552
1641.92679	0.03546
1640.64102	0.03554
1639.35525	0.03576
1638.06949	0.03596
1636.78372	0.03602
1635.49795	0.03601
1634.21218	0.03602
1632.92641	0.03603
1631.64064	0.03599
1630.35487	0.03598
1629.06910	0.03608
1627.78333	0.03630
1626.49757	0.03653
1625.21180	0.03671
1623.92603	0.03683
1622.64026	0.03698
1621.35449	0.03723
1620.06872	0.03745
1618.78295	0.03755
1617.49718	0.03760
1616.21142	0.03774
1614.92565	0.03794
1613.63988	0.03803
1612.35411	0.03800
1611.06834	0.03804
1609.78257	0.03825
1608.49680	0.03855
1607.21103	0.03886
1605.92526	0.03910
1604.63950	0.03927
1603.35373	0.03938
1602.06796	0.03946
1600.78219	0.03955
1599.49642	0.03969
1598.21065	0.03986
1596.92488	0.04003
1595.63911	0.04019
1594.35335	0.04034
1593.06758	0.04051
1591.78181	0.04069
1590.49604	0.04091
1589.21027	0.04116
1587.92450	0.04146
1586.63873	0.04175
1585.35296	0.04202
1584.06719	0.04228
1582.78143	0.04256
1581.49566	0.04295
1580.20989	0.04347
1578.92412	0.04398
1577.63835	0.04438
1576.35258	0.04472
1575.06681	0.04513
1573.78104	0.04557
1572.49528	0.04589
1571.20951	0.04612
1569.92374	0.04642
1568.63797	0.04679
1567.35220	0.04712
1566.06643	0.04734
1564.78066	0.04766
1563.49489	0.04824
1562.20912	0.04896
1560.92336	0.04958
1559.63759	0.05006
1558.35182	0.05052
1557.06605	0.05085
1555.78028	0.05089
1554.49451	0.05072
1553.20874	0.05064
1551.92297	0.05070
1550.63721	0.05082
1549.35144	0.05100
1548.06567	0.05125
1546.77990	0.05155
1545.49413	0.05188
1544.20836	0.05228
1542.92259	0.05264
1541.63682	0.05281
1540.35105	0.05278
1539.06529	0.05270
1537.77952	0.05266
1536.49375	0.05253
1535.20798	0.05232
1533.92221	0.05219
1532.63644	0.05233
1531.35067	0.05267
1530.06490	0.05307
1528.77914	0.05351
1527.49337	0.05407
1526.20760	0.05481
1524.92183	0.05567
1523.63606	0.05655
1522.35029	0.05741
1521.06452	0.05836
1519.77875	0.05940
1518.49298	0.06042
1517.20722	0.06141
1515.92145	0.06252
1514.63568	0.06381
1513.34991	0.06523
1512.06414	0.06681
1510.77837	0.06856
1509.49260	0.07035
1508.20683	0.07200
1506.92107	0.07350
1505.63530	0.07492
1504.34953	0.07619
1503.06376	0.07724
1501.77799	0.07817
1500.49222	0.07918
1499.20645	0.08027
1497.92068	0.08131
1496.63491	0.08225
1495.34915	0.08314
1494.06338	0.08400
1492.77761	0.08484
1491.49184	0.08571
1490.20607	0.08672
1488.92030	0.08782
1487.63453	0.08890
1486.34876	0.08997
1485.06299	0.09110
1483.77723	0.09235
1482.49146	0.09372
1481.20569	0.09521
1479.91992	0.09678
1478.63415	0.09835
1477.34838	0.09986
1476.06261	0.10126
1474.77684	0.10248
1473.49108	0.10351
1472.20531	0.10441
1470.91954	0.10520
1469.63377	0.10584
1468.34800	0.10628
1467.06223	0.10655
1465.77646	0.10676
1464.49069	0.10703
1463.20492	0.10742
1461.91916	0.10797
1460.63339	0.10864
1459.34762	0.10935
1458.06185	0.11004
1456.77608	0.11072
1455.49031	0.11137
1454.20454	0.11188
1452.91877	0.11222
1451.63301	0.11252
1450.34724	0.11283
1449.06147	0.11307
1447.77570	0.11314
1446.48993	0.11303
1445.20416	0.11275
1443.91839	0.11235
1442.63262	0.11194
1441.34685	0.11161
1440.06109	0.11138
1438.77532	0.11119
1437.48955	0.11112
1436.20378	0.11130
1434.91801	0.11178
1433.63224	0.11246
1432.34647	0.11334
1431.06070	0.11452
1429.77494	0.11604
1428.48917	0.11779
1427.20340	0.11964
1425.91763	0.12153
1424.63186	0.12347
1423.34609	0.12546
1422.06032	0.12739
1420.77455	0.12915
1419.48878	0.13070
1418.20302	0.13203
1416.91725	0.13301
1415.63148	0.13359
1414.34571	0.13387
1413.05994	0.13395
1411.77417	0.13383
1410.48840	0.13345
1409.20263	0.13273
1407.91687	0.13166
1406.63110	0.13023
1405.34533	0.12854
1404.05956	0.12665
1402.77379	0.12458
1401.48802	0.12229
1400.20225	0.11980
1398.91648	0.11720
1397.63071	0.11456
1396.34495	0.11184
1395.05918	0.10904
1393.77341	0.10620
1392.48764	0.10335
1391.20187	0.10047
1389.91610	0.09759
1388.63033	0.09476
1387.34456	0.09205
1386.05880	0.08946
1384.77303	0.08693
1383.48726	0.08443
1382.20149	0.08197
1380.91572	0.07956
1379.62995	0.07717
1378.34418	0.07476
1377.05841	0.07225
1375.77264	0.06964
1374.48688	0.06697
1373.20111	0.06434
1371.91534	0.06179
1370.62957	0.05937
1369.34380	0.05711
1368.05803	0.05505
1366.77226	0.05317
1365.48649	0.05137
1364.20073	0.04957
1362.91496	0.04781
1361.62919	0.04615
1360.34342	0.04463
1359.05765	0.04322
1357.77188	0.04190
1356.48611	0.04069
1355.20034	0.03957
1353.91457	0.03856
1352.62881	0.03765
1351.34304	0.03682
1350.05727	0.03605
1348.77150	0.03533
1347.48573	0.03461
1346.19996	0.03391
1344.91419	0.03328
1343.62842	0.03273
1342.34266	0.03225
1341.05689	0.03179
1339.77112	0.03134
1338.48535	0.03090
1337.19958	0.03048
1335.91381	0.03007
1334.62804	0.02968
1333.34227	0.02931
1332.05650	0.02898
1330.77074	0.02868
1329.48497	0.02841
1328.19920	0.02814
1326.91343	0.02786
1325.62766	0.02758
1324.34189	0.02733
1323.05612	0.02710
1321.77035	0.02690
1320.48459	0.02669
1319.19882	0.02648
1317.91305	0.02626
1316.62728	0.02603
1315.34151	0.02581
1314.05574	0.02563
1312.76997	0.02551
1311.48420	0.02542
1310.19843	0.02534
1308.91267	0.02523
1307.62690	0.02506
1306.34113	0.02484
1305.05536	0.02461
1303.76959	0.02439
1302.48382	0.02420
1301.19805	0.02403
1299.91228	0.02388
1298.62652	0.02374
1297.34075	0.02359
1296.05498	0.02344
1294.76921	0.02328
1293.48344	0.02313
1292.19767	0.02300
1290.91190	0.02290
1289.62613	0.02281
1288.34036	0.02272
1287.05460	0.02264
1285.76883	0.02253
1284.48306	0.02240
1283.19729	0.02224
1281.91152	0.02208
1280.62575	0.02193
1279.33998	0.02178
1278.05421	0.02164
1276.76845	0.02150
1275.48268	0.02136
1274.19691	0.02123
1272.91114	0.02113
1271.62537	0.02107
1270.33960	0.02104
1269.05383	0.02098
1267.76806	0.02087
1266.48229	0.02070
1265.19653	0.02054
1263.91076	0.02042
1262.62499	0.02032
1261.33922	0.02023
1260.05345	0.02012
1258.76768	0.02001
1257.48191	0.01994
1256.19614	0.01991
1254.91037	0.01990
1253.62461	0.01988
1252.33884	0.01984
1251.05307	0.01979
1249.76730	0.01974
1248.48153	0.01968
1247.19576	0.01958
1245.90999	0.01944
1244.62422	0.01928
1243.33846	0.01915
1242.05269	0.01907
1240.76692	0.01903
1239.48115	0.01898
1238.19538	0.01890
1236.90961	0.01880
1235.62384	0.01872
1234.33807	0.01865
1233.05230	0.01858
1231.76654	0.01851
1230.48077	0.01844
1229.19500	0.01839
1227.90923	0.01835
1226.62346	0.01832
1225.33769	0.01832
1224.05192	0.01833
1222.76615	0.01832
1221.48039	0.01827
1220.19462	0.01818
1218.90885	0.01807
1217.62308	0.01796
1216.33731	0.01790
1215.05154	0.01790
1213.76577	0.01797
1212.48000	0.01806
1211.19423	0.01814
1209.90847	0.01817
1208.62270	0.01814
1207.33693	0.01809
1206.05116	0.01802
1204.76539	0.01795
1203.47962	0.01791
1202.19385	0.01790
1200.90808	0.01788
1199.62232	0.01782
1198.33655	0.01783
1197.05078	0.01784
1195.76501	0.01788
1194.47924	0.01793
1193.19347	0.01798
1191.90770	0.01803
1190.62193	0.01806
1189.33616	0.01808
1188.05040	0.01809
1186.76463	0.01811
1185.47886	0.01813
1184.19309	0.01817
1182.90732	0.01824
1181.62155	0.01834
1180.33578	0.01844
1179.05001	0.01852
1177.76425	0.01860
1176.47848	0.01872
1175.19271	0.01888
1173.90694	0.01904
1172.62117	0.01916
1171.33540	0.01924
1170.04963	0.01934
1168.76386	0.01951
1167.47809	0.01978
1166.19233	0.02011
1164.90656	0.02045
1163.62079	0.02074
1162.33502	0.02096
1161.04925	0.02114
1159.76348	0.02136
1158.47771	0.02170
1157.19194	0.02215
1155.90618	0.02261
1154.62041	0.02301
1153.33464	0.02336
1152.04887	0.02376
1150.76310	0.02428
1149.47733	0.02494
1148.19156	0.02569
1146.90579	0.02651
1145.62002	0.02737
1144.33426	0.02828
1143.04849	0.02926
1141.76272	0.03033
1140.47695	0.03153
1139.19118	0.03288
1137.90541	0.03438
1136.61964	0.03602
1135.33387	0.03780
1134.04811	0.03973
1132.76234	0.04185
1131.47657	0.04421
1130.19080	0.04687
1128.90503	0.04984
1127.61926	0.05307
1126.33349	0.05658
1125.04772	0.06039
1123.76195	0.06448
1122.47619	0.06874
1121.19042	0.07307
1119.90465	0.07737
1118.61888	0.08164
1117.33311	0.08591
1116.04734	0.09025
1114.76157	0.09469
1113.47580	0.09916
1112.19004	0.10354
1110.90427	0.10776
1109.61850	0.11182
1108.33273	0.11575
1107.04696	0.11955
1105.76119	0.12323
1104.47542	0.12679
1103.18965	0.13023
1101.90388	0.13358
1100.61812	0.13687
1099.33235	0.14014
1098.04658	0.14334
1096.76081	0.14643
1095.47504	0.14939
1094.18927	0.15226
1092.90350	0.15509
1091.61773	0.15788
1090.33197	0.16060
1089.04620	0.16320
1087.76043	0.16569
1086.47466	0.16814
1085.18889	0.17064
1083.90312	0.17323
1082.61735	0.17593
1081.33158	0.17877
1080.04581	0.18180
1078.76005	0.18501
1077.47428	0.18838
1076.18851	0.19191
1074.90274	0.19560
1073.61697	0.19950
1072.33120	0.20361
1071.04543	0.20793
1069.75966	0.21234
1068.47390	0.21675
1067.18813	0.22115
1065.90236	0.22558
1064.61659	0.23008
1063.33082	0.23465
1062.04505	0.23925
1060.75928	0.24385
1059.47351	0.24845
1058.18774	0.25309
1056.90198	0.25777
1055.61621	0.26246
1054.33044	0.26709
1053.04467	0.27162
1051.75890	0.27610
1050.47313	0.28069
1049.18736	0.28549
1047.90159	0.29054
1046.61583	0.29581
1045.33006	0.30125
1044.04429	0.30677
1042.75852	0.31229
1041.47275	0.31779
1040.18698	0.32329
1038.90121	0.32888
1037.61544	0.33454
1036.32967	0.34023
1035.04391	0.34585
1033.75814	0.35129
1032.47237	0.35641
1031.18660	0.36113
1029.90083	0.36548
1028.61506	0.36948
1027.32929	0.37302
1026.04352	0.37602
1024.75775	0.37846
1023.47199	0.38039
1022.18622	0.38178
1020.90045	0.38253
1019.61468	0.38250
1018.32891	0.38161
1017.04314	0.37982
1015.75737	0.37704
1014.47160	0.37327
1013.18584	0.36850
1011.90007	0.36273
1010.61430	0.35594
1009.32853	0.34814
1008.04276	0.33940
1006.75699	0.32980
1005.47122	0.31946
1004.18545	0.30848
1002.89968	0.29695
1001.61392	0.28494
1000.32815	0.27263
999.04238	0.26022
997.75661	0.24786
996.47084	0.23563
995.18507	0.22359
993.89930	0.21186
992.61353	0.20059
991.32777	0.18985
990.04200	0.17966
988.75623	0.17004
987.47046	0.16104
986.18469	0.15270
984.89892	0.14505
983.61315	0.13804
982.32738	0.13160
981.04161	0.12568
979.75585	0.12027
978.47008	0.11539
977.18431	0.11110
975.89854	0.10743
974.61277	0.10446
973.32700	0.10221
972.04123	0.10068
970.75546	0.09985
969.46970	0.09974
968.18393	0.10033
966.89816	0.10149
965.61239	0.10301
964.32662	0.10460
963.04085	0.10600
961.75508	0.10692
960.46931	0.10711
959.18354	0.10640
957.89778	0.10477
956.61201	0.10232
955.32624	0.09928
954.04047	0.09596
952.75470	0.09262
951.46893	0.08939
950.18316	0.08626
948.89739	0.08325
947.61163	0.08037
946.32586	0.07761
945.04009	0.07492
943.75432	0.07229
942.46855	0.06975
941.18278	0.06741
939.89701	0.06537
938.61124	0.06362
937.32547	0.06207
936.03971	0.06057
934.75394	0.05907
933.46817	0.05762
932.18240	0.05630
930.89663	0.05510
929.61086	0.05400
928.32509	0.05302
927.03932	0.05219
925.75356	0.05150
924.46779	0.05088
923.18202	0.05025
921.89625	0.04958
920.61048	0.04890
919.32471	0.04828
918.03894	0.04782
916.75317	0.04749
915.46740	0.04717
914.18164	0.04673
912.89587	0.04616
911.61010	0.04557
910.32433	0.04503
909.03856	0.04457
907.75279	0.04419
906.46702	0.04390
905.18125	0.04370
903.89549	0.04350
902.60972	0.04325
901.32395	0.04298
900.03818	0.04275
898.75241	0.04262
897.46664	0.04259
896.18087	0.04260
894.89510	0.04261
893.60933	0.04263
892.32357	0.04270
891.03780	0.04292
889.75203	0.04338
888.46626	0.04413
887.18049	0.04528
885.89472	0.04700
884.60895	0.04951
883.32318	0.05285
882.03742	0.05674
880.75165	0.06059
879.46588	0.06380
878.18011	0.06619
876.89434	0.06811
875.60857	0.07010
874.32280	0.07227
873.03703	0.07412
871.75126	0.07492
870.46550	0.07432
869.17973	0.07248
867.89396	0.06980
866.60819	0.06663
865.32242	0.06321
864.03665	0.05980
862.75088	0.05665
861.46511	0.05395
860.17935	0.05175
858.89358	0.04994
857.60781	0.04842
856.32204	0.04715
855.03627	0.04612
853.75050	0.04531
852.46473	0.04464
851.17896	0.04404
849.89319	0.04345
848.60743	0.04288
847.32166	0.04238
846.03589	0.04194
844.75012	0.04154
843.46435	0.04117
842.17858	0.04081
840.89281	0.04048
839.60704	0.04018
838.32128	0.03992
837.03551	0.03968
835.74974	0.03943
834.46397	0.03918
833.17820	0.03894
831.89243	0.03878
830.60666	0.03869
829.32089	0.03865
828.03512	0.03863
826.74936	0.03861
825.46359	0.03856
824.17782	0.03844
822.89205	0.03824
821.60628	0.03803
820.32051	0.03791
819.03474	0.03789
817.74897	0.03789
816.46321	0.03780
815.17744	0.03763
813.89167	0.03748
812.60590	0.03745
811.32013	0.03753
810.03436	0.03761
808.74859	0.03765
807.46282	0.03766
806.17705	0.03770
804.89129	0.03776
803.60552	0.03778
802.31975	0.03775
801.03398	0.03769
799.74821	0.03761
798.46244	0.03750
797.17667	0.03736
795.89090	0.03723
794.60513	0.03717
793.31937	0.03718
792.03360	0.03721
790.74783	0.03720
789.46206	0.03712
788.17629	0.03705
786.89052	0.03703
785.60475	0.03703
784.31898	0.03702
783.03322	0.03700
781.74745	0.03701
780.46168	0.03705
779.17591	0.03707
777.89014	0.03702
776.60437	0.03697
775.31860	0.03698
774.03283	0.03703
772.74706	0.03703
771.46130	0.03695
770.17553	0.03686
768.88976	0.03683
767.60399	0.03689
766.31822	0.03700
765.03245	0.03710
763.74668	0.03720
762.46091	0.03730
761.17515	0.03743
759.88938	0.03762
758.60361	0.03783
757.31784	0.03796
756.03207	0.03797
754.74630	0.03788
753.46053	0.03776
752.17476	0.03766
750.88899	0.03762
749.60323	0.03764
748.31746	0.03773
747.03169	0.03779
745.74592	0.03775
744.46015	0.03762
743.17438	0.03748
741.88861	0.03738
740.60284	0.03731
739.31708	0.03723
738.03131	0.03719
736.74554	0.03718
735.45977	0.03717
734.17400	0.03715
732.88823	0.03713
731.60246	0.03717
730.31669	0.03723
729.03092	0.03726
727.74516	0.03725
726.45939	0.03724
725.17362	0.03726
723.88785	0.03723
722.60208	0.03744
721.31631	0.03772
720.03054	0.03803
718.74477	0.03833
717.45901	0.03843
716.17324	0.03836
714.88747	0.03821
713.60170	0.03805
712.31593	0.03788
711.03016	0.03772
709.74439	0.03756
708.45862	0.03742
707.17285	0.03730
705.88709	0.03723
704.60132	0.03722
703.31555	0.03724
702.02978	0.03724
700.74401	0.03722
699.45824	0.03720
698.17247	0.03723
696.88670	0.03733
695.60094	0.03747
694.31517	0.03763
693.02940	0.03776
691.74363	0.03785
690.45786	0.03790
689.17209	0.03789
687.88632	0.03781
686.60055	0.03765
685.31478	0.03744
684.02902	0.03724
682.74325	0.03710
681.45748	0.03701
680.17171	0.03695
678.88594	0.03689
677.60017	0.03683
676.31440	0.03674
675.02863	0.03673
673.74287	0.03708
672.45710	0.03814
671.17133	0.03952
669.88556	0.03944
668.59979	0.03737
667.31402	0.03740
666.02825	0.03906
664.74248	0.03869
663.45671	0.03726
662.17095	0.03627
660.88518	0.03589
659.59941	0.03582
658.31364	0.03585
657.02787	0.03591
655.74210	0.03596
654.45633	0.03605
653.17056	0.03613
651.88480	0.03623
650.59903	0.03635
649.31326	0.03645
648.02749	0.03656
646.74172	0.03665
645.45595	0.03671
644.17018	0.03682
642.88441	0.03701
641.59864	0.03727
640.31288	0.03756
639.02711	0.03786
637.74134	0.03818
636.45557	0.03849
635.16980	0.03881
633.88403	0.03916
632.59826	0.03960
631.31249	0.04028
630.02673	0.04133
628.74096	0.04243
627.45519	0.04312
626.16942	0.04527
624.88365	0.04834
623.59788	0.05137
622.31211	0.05422
621.02634	0.05732
619.74057	0.06092
618.45481	0.06484
617.16904	0.06902
615.88327	0.07368
614.59750	0.07867
613.31173	0.08348
612.02596	0.08799
610.74019	0.09317
609.45442	0.10007
608.16866	0.10822
606.88289	0.11587
605.59712	0.12180
604.31135	0.12578
603.02558	0.12803
601.73981	0.12860
600.45404	0.12739
599.16827	0.12452
597.88250	0.12058
596.59674	0.11637
595.31097	0.11250
594.02520	0.10917
592.73943	0.10636
591.45366	0.10406
590.16789	0.10250
588.88212	0.10193
587.59635	0.10243
586.31059	0.10390
585.02482	0.10608
583.73905	0.10873
582.45328	0.11169
581.16751	0.11489
579.88174	0.11832
578.59597	0.12197
577.31020	0.12570
576.02443	0.12936
574.73867	0.13285
573.45290	0.13622
572.16713	0.13962
570.88136	0.14332
569.59559	0.14763
568.30982	0.15269
567.02405	0.15835
565.73828	0.16412
564.45251	0.16924
563.16675	0.17288
561.88098	0.17426
560.59521	0.17284
559.30944	0.16850
558.02367	0.16167
556.73790	0.15314
555.45213	0.14371
554.16636	0.13403
552.88060	0.12454
551.59483	0.11561
550.30906	0.10751
549.02329	0.10037
547.73752	0.09419
546.45175	0.08883
545.16598	0.08408
543.88021	0.07971
542.59444	0.07561
541.30868	0.07184
540.02291	0.06851
538.73714	0.06570
537.45137	0.06333
536.16560	0.06123
534.87983	0.05928
533.59406	0.05745
532.30829	0.05575
531.02253	0.05420
529.73676	0.05278
528.45099	0.05145
527.16522	0.05016
525.87945	0.04890
524.59368	0.04770
523.30791	0.04656
522.02214	0.04548
520.73637	0.04448
519.45061	0.04359
518.16484	0.04282
516.87907	0.04213
515.59330	0.04144
514.30753	0.04071
513.02176	0.04000
511.73599	0.03934
510.45022	0.03875
509.16446	0.03821
507.87869	0.03772
506.59292	0.03727
505.30715	0.03681
504.02138	0.03630
502.73561	0.03570
501.44984	0.03507
500.16407	0.03449
498.87830	0.03404
497.59254	0.03373
496.30677	0.03352
495.02100	0.03333
493.73523	0.03315
492.44946	0.03304
491.16369	0.03301
489.87792	0.03298
488.59215	0.03283
487.30639	0.03258
486.02062	0.03233
484.73485	0.03220
483.44908	0.03222
482.16331	0.03237
480.87754	0.03261
479.59177	0.03291
478.30600	0.03319
477.02023	0.03345
475.73447	0.03369
474.44870	0.03394
473.16293	0.03419
471.87716	0.03441
470.59139	0.03457
469.30562	0.03464
468.01985	0.03462
466.73408	0.03448
465.44832	0.03422
464.16255	0.03384
462.87678	0.03340
461.59101	0.03296
460.30524	0.03258
459.01947	0.03228
457.73370	0.03206
456.44793	0.03188
455.16216	0.03166
453.87640	0.03138
452.59063	0.03109
451.30486	0.03078
450.01909	0.03044
448.73332	0.03009
447.44755	0.02977
446.16178	0.02952
444.87601	0.02935
443.59025	0.02926
442.30448	0.02922
441.01871	0.02922
439.73294	0.02921
438.44717	0.02915
437.16140	0.02905
435.87563	0.02893
434.58986	0.02882
433.30409	0.02873
432.01833	0.02868
430.73256	0.02865
429.44679	0.02865
428.16102	0.02865
426.87525	0.02863
425.58948	0.02861
424.30371	0.02859
423.01794	0.02858
421.73218	0.02854
420.44641	0.02843
419.16064	0.02829
417.87487	0.02818
416.58910	0.02811
415.30333	0.02805
414.01756	0.02799
412.73179	0.02793
411.44602	0.02785
410.16026	0.02777
408.87449	0.02775
407.58872	0.02780
406.30295	0.02792
405.01718	0.02806
403.73141	0.02818
402.44564	0.02827
401.15987	0.02837
399.87411	0.02850
