3997.45528	0.03569
3996.16951	0.03548
3994.88374	0.03546
3993.59798	0.03571
3992.31221	0.03626
3991.02644	0.03700
3989.74067	0.03755
3988.45490	0.03758
3987.16913	0.03713
3985.88336	0.03660
3984.59759	0.03627
3983.31183	0.03615
3982.02606	0.03614
3980.74029	0.03630
3979.45452	0.03668
3978.16875	0.03717
3976.88298	0.03747
3975.59721	0.03746
3974.31144	0.03726
3973.02567	0.03707
3971.73991	0.03689
3970.45414	0.03659
3969.16837	0.03620
3967.88260	0.03588
3966.59683	0.03574
3965.31106	0.03573
3964.02529	0.03569
3962.73952	0.03550
3961.45376	0.03511
3960.16799	0.03454
3958.88222	0.03388
3957.59645	0.03340
3956.31068	0.03337
3955.02491	0.03394
3953.73914	0.03499
3952.45337	0.03613
3951.16760	0.03688
3949.88184	0.03697
3948.59607	0.03657
3947.31030	0.03598
3946.02453	0.03531
3944.73876	0.03445
3943.45299	0.03340
3942.16722	0.03248
3940.88145	0.03205
3939.59569	0.03222
3938.30992	0.03283
3937.02415	0.03367
3935.73838	0.03452
3934.45261	0.03526
3933.16684	0.03576
3931.88107	0.03593
3930.59530	0.03582
3929.30953	0.03572
3928.02377	0.03585
3926.73800	0.03605
3925.45223	0.03594
3924.16646	0.03530
3922.88069	0.03437
3921.59492	0.03358
3920.30915	0.03315
3919.02338	0.03301
3917.73762	0.03295
3916.45185	0.03289
3915.16608	0.03289
3913.88031	0.03303
3912.59454	0.03310
3911.30877	0.03271
3910.02300	0.03179
3908.73723	0.03090
3907.45146	0.03078
3906.16570	0.03161
3904.87993	0.03285
3903.59416	0.03389
3902.30839	0.03453
3901.02262	0.03492
3899.73685	0.03509
3898.45108	0.03500
3897.16531	0.03466
3895.87955	0.03434
3894.59378	0.03426
3893.30801	0.03432
3892.02224	0.03418
3890.73647	0.03368
3889.45070	0.03309
3888.16493	0.03290
3886.87916	0.03342
3885.59339	0.03451
3884.30763	0.03576
3883.02186	0.03669
3881.73609	0.03703
3880.45032	0.03684
3879.16455	0.03634
3877.87878	0.03564
3876.59301	0.03479
3875.30724	0.03396
3874.02148	0.03345
3872.73571	0.03334
3871.44994	0.03342
3870.16417	0.03352
3868.87840	0.03371
3867.59263	0.03413
3866.30686	0.03470
3865.02109	0.03517
3863.73532	0.03532
3862.44956	0.03513
3861.16379	0.03469
3859.87802	0.03420
3858.59225	0.03397
3857.30648	0.03423
3856.02071	0.03483
3854.73494	0.03528
3853.44917	0.03523
3852.16341	0.03484
3850.87764	0.03459
3849.59187	0.03473
3848.30610	0.03509
3847.02033	0.03538
3845.73456	0.03537
3844.44879	0.03493
3843.16302	0.03415
3841.87725	0.03331
3840.59149	0.03270
3839.30572	0.03235
3838.01995	0.03211
3836.73418	0.03194
3835.44841	0.03203
3834.16264	0.03252
3832.87687	0.03325
3831.59110	0.03387
3830.30534	0.03420
3829.01957	0.03414
3827.73380	0.03372
3826.44803	0.03307
3825.16226	0.03257
3823.87649	0.03264
3822.59072	0.03332
3821.30495	0.03429
3820.01918	0.03514
3818.73342	0.03564
3817.44765	0.03568
3816.16188	0.03523
3814.87611	0.03446
3813.59034	0.03376
3812.30457	0.03337
3811.01880	0.03315
3809.73303	0.03281
3808.44726	0.03225
3807.16150	0.03178
3805.87573	0.03181
3804.58996	0.03243
3803.30419	0.03328
3802.01842	0.03382
3800.73265	0.03379
3799.44688	0.03344
3798.16111	0.03322
3796.87535	0.03334
3795.58958	0.03360
3794.30381	0.03367
3793.01804	0.03336
3791.73227	0.03273
3790.44650	0.03201
3789.16073	0.03148
3787.87496	0.03131
3786.58919	0.03147
3785.30343	0.03182
3784.01766	0.03233
3782.73189	0.03303
3781.44612	0.03372
3780.16035	0.03395
3778.87458	0.03342
3777.58881	0.03242
3776.30304	0.03166
3775.01728	0.03148
3773.73151	0.03168
3772.44574	0.03180
3771.15997	0.03164
3769.87420	0.03141
3768.58843	0.03137
3767.30266	0.03158
3766.01689	0.03183
3764.73112	0.03193
3763.44536	0.03190
3762.15959	0.03185
3760.87382	0.03178
3759.58805	0.03153
3758.30228	0.03107
3757.01651	0.03056
3755.73074	0.03020
3754.44497	0.02995
3753.15921	0.02968
3751.87344	0.02940
3750.58767	0.02935
3749.30190	0.02968
3748.01613	0.03013
3746.73036	0.03017
3745.44459	0.02955
3744.15882	0.02866
3742.87305	0.02826
3741.58729	0.02880
3740.30152	0.03001
3739.01575	0.03116
3737.72998	0.03169
3736.44421	0.03154
3735.15844	0.03109
3733.87267	0.03074
3732.58690	0.03071
3731.30114	0.03094
3730.01537	0.03126
3728.72960	0.03153
3727.44383	0.03162
3726.15806	0.03140
3724.87229	0.03079
3723.58652	0.02989
3722.30075	0.02897
3721.01498	0.02841
3719.72922	0.02857
3718.44345	0.02953
3717.15768	0.03106
3715.87191	0.03257
3714.58614	0.03351
3713.30037	0.03363
3712.01460	0.03314
3710.72883	0.03246
3709.44307	0.03178
3708.15730	0.03108
3706.87153	0.03028
3705.58576	0.02938
3704.29999	0.02852
3703.01422	0.02800
3701.72845	0.02807
3700.44268	0.02847
3699.15691	0.02866
3697.87115	0.02847
3696.58538	0.02822
3695.29961	0.02821
3694.01384	0.02844
3692.72807	0.02884
3691.44230	0.02913
3690.15653	0.02897
3688.87076	0.02837
3687.58500	0.02765
3686.29923	0.02712
3685.01346	0.02704
3683.72769	0.02752
3682.44192	0.02841
3681.15615	0.02946
3679.87038	0.03034
3678.58461	0.03089
3677.29884	0.03130
3676.01308	0.03175
3674.72731	0.03216
3673.44154	0.03232
3672.15577	0.03211
3670.87000	0.03172
3669.58423	0.03130
3668.29846	0.03081
3667.01269	0.03009
3665.72693	0.02915
3664.44116	0.02831
3663.15539	0.02792
3661.86962	0.02813
3660.58385	0.02873
3659.29808	0.02931
3658.01231	0.02948
3656.72654	0.02920
3655.44077	0.02887
3654.15501	0.02906
3652.86924	0.02997
3651.58347	0.03113
3650.29770	0.03170
3649.01193	0.03133
3647.72616	0.03046
3646.44039	0.02986
3645.15462	0.02980
3643.86886	0.03000
3642.58309	0.03013
3641.29732	0.03011
3640.01155	0.03003
3638.72578	0.02995
3637.44001	0.03003
3636.15424	0.03044
3634.86847	0.03115
3633.58270	0.03179
3632.29694	0.03197
3631.01117	0.03168
3629.72540	0.03124
3628.43963	0.03094
3627.15386	0.03087
3625.86809	0.03099
3624.58232	0.03125
3623.29655	0.03152
3622.01079	0.03165
3620.72502	0.03164
3619.43925	0.03160
3618.15348	0.03155
3616.86771	0.03138
3615.58194	0.03114
3614.29617	0.03105
3613.01040	0.03130
3611.72463	0.03174
3610.43887	0.03213
3609.15310	0.03241
3607.86733	0.03276
3606.58156	0.03326
3605.29579	0.03371
3604.01002	0.03394
3602.72425	0.03407
3601.43848	0.03435
3600.15272	0.03479
3598.86695	0.03500
3597.58118	0.03477
3596.29541	0.03429
3595.00964	0.03396
3593.72387	0.03398
3592.43810	0.03443
3591.15233	0.03524
3589.86656	0.03605
3588.58080	0.03642
3587.29503	0.03609
3586.00926	0.03524
3584.72349	0.03435
3583.43772	0.03393
3582.15195	0.03403
3580.86618	0.03431
3579.58041	0.03451
3578.29464	0.03458
3577.00888	0.03452
3575.72311	0.03437
3574.43734	0.03438
3573.15157	0.03486
3571.86580	0.03584
3570.58003	0.03690
3569.29426	0.03760
3568.00849	0.03794
3566.72273	0.03819
3565.43696	0.03845
3564.15119	0.03858
3562.86542	0.03850
3561.57965	0.03845
3560.29388	0.03875
3559.00811	0.03927
3557.72234	0.03952
3556.43657	0.03909
3555.15081	0.03807
3553.86504	0.03694
3552.57927	0.03618
3551.29350	0.03596
3550.00773	0.03617
3548.72196	0.03661
3547.43619	0.03712
3546.15042	0.03772
3544.86466	0.03849
3543.57889	0.03946
3542.29312	0.04054
3541.00735	0.04146
3539.72158	0.04205
3538.43581	0.04228
3537.15004	0.04233
3535.86427	0.04238
3534.57850	0.04251
3533.29274	0.04263
3532.00697	0.04258
3530.72120	0.04221
3529.43543	0.04157
3528.14966	0.04092
3526.86389	0.04046
3525.57812	0.04026
3524.29235	0.04029
3523.00659	0.04061
3521.72082	0.04131
3520.43505	0.04223
3519.14928	0.04298
3517.86351	0.04323
3516.57774	0.04304
3515.29197	0.04280
3514.00620	0.04282
3512.72043	0.04307
3511.43467	0.04330
3510.14890	0.04328
3508.86313	0.04307
3507.57736	0.04292
3506.29159	0.04306
3505.00582	0.04356
3503.72005	0.04422
3502.43428	0.04470
3501.14852	0.04478
3499.86275	0.04456
3498.57698	0.04431
3497.29121	0.04426
3496.00544	0.04449
3494.71967	0.04495
3493.43390	0.04547
3492.14813	0.04580
3490.86236	0.04576
3489.57660	0.04540
3488.29083	0.04491
3487.00506	0.04448
3485.71929	0.04418
3484.43352	0.04400
3483.14775	0.04400
3481.86198	0.04423
3480.57621	0.04466
3479.29045	0.04522
3478.00468	0.04585
3476.71891	0.04647
3475.43314	0.04695
3474.14737	0.04713
3472.86160	0.04696
3471.57583	0.04666
3470.29006	0.04657
3469.00429	0.04686
3467.71853	0.04745
3466.43276	0.04804
3465.14699	0.04836
3463.86122	0.04826
3462.57545	0.04777
3461.28968	0.04715
3460.00391	0.04680
3458.71814	0.04697
3457.43238	0.04754
3456.14661	0.04806
3454.86084	0.04819
3453.57507	0.04804
3452.28930	0.04802
3451.00353	0.04840
3449.71776	0.04904
3448.43199	0.04955
3447.14622	0.04968
3445.86046	0.04954
3444.57469	0.04941
3443.28892	0.04943
3442.00315	0.04952
3440.71738	0.04963
3439.43161	0.04987
3438.14584	0.05031
3436.86007	0.05079
3435.57431	0.05096
3434.28854	0.05073
3433.00277	0.05028
3431.71700	0.04991
3430.43123	0.04975
3429.14546	0.04976
3427.85969	0.04982
3426.57392	0.04985
3425.28815	0.04983
3424.00239	0.04973
3422.71662	0.04964
3421.43085	0.04963
3420.14508	0.04971
3418.85931	0.04984
3417.57354	0.04991
3416.28777	0.04996
3415.00200	0.05006
3413.71624	0.05023
3412.43047	0.05039
3411.14470	0.05035
3409.85893	0.05006
3408.57316	0.04969
3407.28739	0.04958
3406.00162	0.04999
3404.71585	0.05082
3403.43008	0.05174
3402.14432	0.05239
3400.85855	0.05277
3399.57278	0.05300
3398.28701	0.05307
3397.00124	0.05284
3395.71547	0.05231
3394.42970	0.05180
3393.14393	0.05170
3391.85817	0.05211
3390.57240	0.05273
3389.28663	0.05319
3388.00086	0.05331
3386.71509	0.05325
3385.42932	0.05327
3384.14355	0.05353
3382.85778	0.05394
3381.57201	0.05430
3380.28625	0.05440
3379.00048	0.05422
3377.71471	0.05383
3376.42894	0.05338
3375.14317	0.05298
3373.85740	0.05272
3372.57163	0.05277
3371.28586	0.05324
3370.00010	0.05396
3368.71433	0.05454
3367.42856	0.05469
3366.14279	0.05450
3364.85702	0.05430
3363.57125	0.05428
3362.28548	0.05436
3360.99971	0.05435
3359.71394	0.05422
3358.42818	0.05417
3357.14241	0.05448
3355.85664	0.05511
3354.57087	0.05573
3353.28510	0.05596
3351.99933	0.05565
3350.71356	0.05498
3349.42779	0.05436
3348.14202	0.05411
3346.85626	0.05430
3345.57049	0.05478
3344.28472	0.05529
3342.99895	0.05563
3341.71318	0.05575
3340.42741	0.05564
3339.14164	0.05539
3337.85587	0.05511
3336.57011	0.05491
3335.28434	0.05476
3333.99857	0.05455
3332.71280	0.05435
3331.42703	0.05436
3330.14126	0.05471
3328.85549	0.05515
3327.56972	0.05536
3326.28395	0.05527
3324.99819	0.05521
3323.71242	0.05547
3322.42665	0.05599
3321.14088	0.05646
3319.85511	0.05665
3318.56934	0.05664
3317.28357	0.05669
3315.99780	0.05689
3314.71204	0.05707
3313.42627	0.05693
3312.14050	0.05640
3310.85473	0.05574
3309.56896	0.05528
3308.28319	0.05509
3306.99742	0.05502
3305.71165	0.05488
3304.42588	0.05470
3303.14012	0.05466
3301.85435	0.05495
3300.56858	0.05552
3299.28281	0.05613
3297.99704	0.05646
3296.71127	0.05648
3295.42550	0.05644
3294.13973	0.05656
3292.85397	0.05681
3291.56820	0.05698
3290.28243	0.05699
3288.99666	0.05693
3287.71089	0.05690
3286.42512	0.05685
3285.13935	0.05668
3283.85358	0.05637
3282.56781	0.05609
3281.28205	0.05599
3279.99628	0.05614
3278.71051	0.05646
3277.42474	0.05678
3276.13897	0.05691
3274.85320	0.05675
3273.56743	0.05643
3272.28166	0.05614
3270.99590	0.05603
3269.71013	0.05614
3268.42436	0.05636
3267.13859	0.05649
3265.85282	0.05642
3264.56705	0.05617
3263.28128	0.05589
3261.99551	0.05564
3260.70974	0.05535
3259.42398	0.05494
3258.13821	0.05451
3256.85244	0.05429
3255.56667	0.05436
3254.28090	0.05458
3252.99513	0.05471
3251.70936	0.05469
3250.42359	0.05462
3249.13783	0.05457
3247.85206	0.05444
3246.56629	0.05416
3245.28052	0.05378
3243.99475	0.05348
3242.70898	0.05335
3241.42321	0.05336
3240.13744	0.05336
3238.85167	0.05331
3237.56591	0.05337
3236.28014	0.05367
3234.99437	0.05406
3233.70860	0.05418
3232.42283	0.05382
3231.13706	0.05318
3229.85129	0.05268
3228.56552	0.05250
3227.27976	0.05252
3225.99399	0.05255
3224.70822	0.05254
3223.42245	0.05258
3222.13668	0.05274
3220.85091	0.05296
3219.56514	0.05307
3218.27937	0.05298
3216.99360	0.05270
3215.70784	0.05245
3214.42207	0.05235
3213.13630	0.05233
3211.85053	0.05224
3210.56476	0.05207
3209.27899	0.05201
3207.99322	0.05219
3206.70745	0.05256
3205.42169	0.05289
3204.13592	0.05306
3202.85015	0.05302
3201.56438	0.05280
3200.27861	0.05248
3198.99284	0.05214
3197.70707	0.05190
3196.42130	0.05179
3195.13553	0.05173
3193.84977	0.05160
3192.56400	0.05131
3191.27823	0.05090
3189.99246	0.05051
3188.70669	0.05026
3187.42092	0.05015
3186.13515	0.05009
3184.84938	0.04996
3183.56362	0.04979
3182.27785	0.04974
3180.99208	0.04992
3179.70631	0.05030
3178.42054	0.05063
3177.13477	0.05060
3175.84900	0.05016
3174.56323	0.04958
3173.27746	0.04921
3171.99170	0.04915
3170.70593	0.04921
3169.42016	0.04921
3168.13439	0.04916
3166.84862	0.04913
3165.56285	0.04917
3164.27708	0.04927
3162.99131	0.04936
3161.70555	0.04938
3160.41978	0.04926
3159.13401	0.04901
3157.84824	0.04873
3156.56247	0.04853
3155.27670	0.04841
3153.99093	0.04832
3152.70516	0.04820
3151.41939	0.04804
3150.13363	0.04785
3148.84786	0.04768
3147.56209	0.04762
3146.27632	0.04766
3144.99055	0.04774
3143.70478	0.04780
3142.41901	0.04779
3141.13324	0.04766
3139.84748	0.04735
3138.56171	0.04696
3137.27594	0.04664
3135.99017	0.04654
3134.70440	0.04665
3133.41863	0.04685
3132.13286	0.04711
3130.84709	0.04741
3129.56132	0.04767
3128.27556	0.04774
3126.98979	0.04758
3125.70402	0.04725
3124.41825	0.04692
3123.13248	0.04672
3121.84671	0.04670
3120.56094	0.04684
3119.27517	0.04705
3117.98940	0.04727
3116.70364	0.04739
3115.41787	0.04732
3114.13210	0.04699
3112.84633	0.04649
3111.56056	0.04595
3110.27479	0.04546
3108.98902	0.04506
3107.70325	0.04487
3106.41749	0.04504
3105.13172	0.04556
3103.84595	0.04615
3102.56018	0.04648
3101.27441	0.04646
3099.98864	0.04631
3098.70287	0.04624
3097.41710	0.04627
3096.13133	0.04633
3094.84557	0.04642
3093.55980	0.04655
3092.27403	0.04664
3090.98826	0.04662
3089.70249	0.04649
3088.41672	0.04633
3087.13095	0.04620
3085.84518	0.04609
3084.55942	0.04607
3083.27365	0.04621
3081.98788	0.04646
3080.70211	0.04664
3079.41634	0.04661
3078.13057	0.04643
3076.84480	0.04627
3075.55903	0.04619
3074.27326	0.04605
3072.98750	0.04578
3071.70173	0.04550
3070.41596	0.04547
3069.13019	0.04578
3067.84442	0.04622
3066.55865	0.04643
3065.27288	0.04623
3063.98711	0.04575
3062.70135	0.04532
3061.41558	0.04512
3060.12981	0.04507
3058.84404	0.04497
3057.55827	0.04470
3056.27250	0.04436
3054.98673	0.04410
3053.70096	0.04402
3052.41519	0.04410
3051.12943	0.04425
3049.84366	0.04435
3048.55789	0.04437
3047.27212	0.04438
3045.98635	0.04443
3044.70058	0.04447
3043.41481	0.04440
3042.12904	0.04421
3040.84328	0.04403
3039.55751	0.04396
3038.27174	0.04393
3036.98597	0.04379
3035.70020	0.04345
3034.41443	0.04307
3033.12866	0.04286
3031.84289	0.04291
3030.55712	0.04308
3029.27136	0.04314
3027.98559	0.04296
3026.69982	0.04259
3025.41405	0.04224
3024.12828	0.04207
3022.84251	0.04214
3021.55674	0.04239
3020.27097	0.04273
3018.98521	0.04302
3017.69944	0.04313
3016.41367	0.04301
3015.12790	0.04272
3013.84213	0.04236
3012.55636	0.04204
3011.27059	0.04178
3009.98482	0.04160
3008.69905	0.04152
3007.41329	0.04154
3006.12752	0.04160
3004.84175	0.04160
3003.55598	0.04147
3002.27021	0.04125
3000.98444	0.04104
2999.69867	0.04103
2998.41290	0.04129
2997.12714	0.04167
2995.84137	0.04194
2994.55560	0.04200
2993.26983	0.04197
2991.98406	0.04194
2990.69829	0.04196
2989.41252	0.04195
2988.12675	0.04186
2986.84098	0.04168
2985.55522	0.04153
2984.26945	0.04157
2982.98368	0.04183
2981.69791	0.04213
2980.41214	0.04228
2979.12637	0.04219
2977.84060	0.04191
2976.55483	0.04157
2975.26907	0.04133
2973.98330	0.04132
2972.69753	0.04153
2971.41176	0.04179
2970.12599	0.04198
2968.84022	0.04207
2967.55445	0.04214
2966.26868	0.04233
2964.98291	0.04265
2963.69715	0.04303
2962.41138	0.04332
2961.12561	0.04343
2959.83984	0.04346
2958.55407	0.04356
2957.26830	0.04381
2955.98253	0.04411
2954.69676	0.04431
2953.41100	0.04436
2952.12523	0.04444
2950.83946	0.04462
2949.55369	0.04477
2948.26792	0.04467
2946.98215	0.04433
2945.69638	0.04398
2944.41061	0.04386
2943.12484	0.04401
2941.83908	0.04423
2940.55331	0.04429
2939.26754	0.04417
2937.98177	0.04398
2936.69600	0.04387
2935.41023	0.04390
2934.12446	0.04402
2932.83869	0.04416
2931.55293	0.04430
2930.26716	0.04439
2928.98139	0.04438
2927.69562	0.04426
2926.40985	0.04411
2925.12408	0.04401
2923.83831	0.04400
2922.55254	0.04404
2921.26677	0.04404
2919.98101	0.04392
2918.69524	0.04369
2917.40947	0.04349
2916.12370	0.04340
2914.83793	0.04341
2913.55216	0.04340
2912.26639	0.04331
2910.98062	0.04319
2909.69486	0.04311
2908.40909	0.04304
2907.12332	0.04288
2905.83755	0.04259
2904.55178	0.04222
2903.26601	0.04187
2901.98024	0.04158
2900.69447	0.04138
2899.40870	0.04123
2898.12294	0.04102
2896.83717	0.04070
2895.55140	0.04035
2894.26563	0.04020
2892.97986	0.04037
2891.69409	0.04075
2890.40832	0.04109
2889.12255	0.04121
2887.83678	0.04111
2886.55102	0.04095
2885.26525	0.04086
2883.97948	0.04091
2882.69371	0.04100
2881.40794	0.04103
2880.12217	0.04095
2878.83640	0.04080
2877.55063	0.04068
2876.26487	0.04063
2874.97910	0.04065
2873.69333	0.04068
2872.40756	0.04062
2871.12179	0.04045
2869.83602	0.04021
2868.55025	0.04001
2867.26448	0.03986
2865.97871	0.03971
2864.69295	0.03951
2863.40718	0.03931
2862.12141	0.03922
2860.83564	0.03921
2859.54987	0.03922
2858.26410	0.03916
2856.97833	0.03905
2855.69256	0.03895
2854.40680	0.03889
2853.12103	0.03889
2851.83526	0.03885
2850.54949	0.03864
2849.26372	0.03822
2847.97795	0.03776
2846.69218	0.03746
2845.40641	0.03742
2844.12064	0.03757
2842.83488	0.03772
2841.54911	0.03776
2840.26334	0.03771
2838.97757	0.03763
2837.69180	0.03745
2836.40603	0.03710
2835.12026	0.03663
2833.83449	0.03624
2832.54873	0.03608
2831.26296	0.03614
2829.97719	0.03633
2828.69142	0.03654
2827.40565	0.03669
2826.11988	0.03665
2824.83411	0.03643
2823.54834	0.03619
2822.26257	0.03608
2820.97681	0.03612
2819.69104	0.03620
2818.40527	0.03618
2817.11950	0.03600
2815.83373	0.03574
2814.54796	0.03544
2813.26219	0.03514
2811.97642	0.03484
2810.69066	0.03466
2809.40489	0.03471
2808.11912	0.03498
2806.83335	0.03526
2805.54758	0.03536
2804.26181	0.03526
2802.97604	0.03507
2801.69027	0.03488
2800.40450	0.03466
2799.11874	0.03440
2797.83297	0.03414
2796.54720	0.03396
2795.26143	0.03390
2793.97566	0.03391
2792.68989	0.03390
2791.40412	0.03376
2790.11835	0.03353
2788.83259	0.03330
2787.54682	0.03317
2786.26105	0.03315
2784.97528	0.03317
2783.68951	0.03318
2782.40374	0.03318
2781.11797	0.03320
2779.83220	0.03322
2778.54643	0.03321
2777.26067	0.03318
2775.97490	0.03312
2774.68913	0.03300
2773.40336	0.03283
2772.11759	0.03267
2770.83182	0.03257
2769.54605	0.03259
2768.26028	0.03273
2766.97452	0.03294
2765.68875	0.03314
2764.40298	0.03327
2763.11721	0.03333
2761.83144	0.03332
2760.54567	0.03327
2759.25990	0.03319
2757.97413	0.03315
2756.68836	0.03315
2755.40260	0.03314
2754.11683	0.03310
2752.83106	0.03297
2751.54529	0.03274
2750.25952	0.03243
2748.97375	0.03214
2747.68798	0.03196
2746.40221	0.03194
2745.11645	0.03205
2743.83068	0.03226
2742.54491	0.03252
2741.25914	0.03278
2739.97337	0.03295
2738.68760	0.03294
2737.40183	0.03271
2736.11606	0.03238
2734.83029	0.03213
2733.54453	0.03202
2732.25876	0.03199
2730.97299	0.03201
2729.68722	0.03208
2728.40145	0.03213
2727.11568	0.03202
2725.82991	0.03173
2724.54414	0.03144
2723.25838	0.03134
2721.97261	0.03146
2720.68684	0.03158
2719.40107	0.03146
2718.11530	0.03108
2716.82953	0.03066
2715.54376	0.03045
2714.25799	0.03053
2712.97222	0.03078
2711.68646	0.03102
2710.40069	0.03109
2709.11492	0.03099
2707.82915	0.03082
2706.54338	0.03068
2705.25761	0.03060
2703.97184	0.03054
2702.68607	0.03050
2701.40031	0.03051
2700.11454	0.03054
2698.82877	0.03050
2697.54300	0.03037
2696.25723	0.03023
2694.97146	0.03025
2693.68569	0.03050
2692.39992	0.03080
2691.11415	0.03096
2689.82839	0.03096
2688.54262	0.03088
2687.25685	0.03086
2685.97108	0.03087
2684.68531	0.03086
2683.39954	0.03078
2682.11377	0.03067
2680.82800	0.03056
2679.54224	0.03048
2678.25647	0.03037
2676.97070	0.03024
2675.68493	0.03011
2674.39916	0.02999
2673.11339	0.02987
2671.82762	0.02976
2670.54185	0.02965
2669.25608	0.02957
2667.97032	0.02957
2666.68455	0.02964
2665.39878	0.02975
2664.11301	0.02987
2662.82724	0.03001
2661.54147	0.03017
2660.25570	0.03033
2658.96993	0.03043
2657.68417	0.03044
2656.39840	0.03042
2655.11263	0.03045
2653.82686	0.03056
2652.54109	0.03067
2651.25532	0.03070
2649.96955	0.03063
2648.68378	0.03049
2647.39801	0.03031
2646.11225	0.03008
2644.82648	0.02985
2643.54071	0.02965
2642.25494	0.02950
2640.96917	0.02931
2639.68340	0.02907
2638.39763	0.02888
2637.11186	0.02889
2635.82609	0.02911
2634.54033	0.02938
2633.25456	0.02949
2631.96879	0.02931
2630.68302	0.02894
2629.39725	0.02855
2628.11148	0.02830
2626.82571	0.02817
2625.53994	0.02807
2624.25418	0.02790
2622.96841	0.02766
2621.68264	0.02748
2620.39687	0.02740
2619.11110	0.02737
2617.82533	0.02735
2616.53956	0.02739
2615.25379	0.02755
2613.96802	0.02771
2612.68226	0.02763
2611.39649	0.02726
2610.11072	0.02679
2608.82495	0.02648
2607.53918	0.02640
2606.25341	0.02643
2604.96764	0.02634
2603.68187	0.02603
2602.39611	0.02559
2601.11034	0.02524
2599.82457	0.02518
2598.53880	0.02537
2597.25303	0.02569
2595.96726	0.02600
2594.68149	0.02624
2593.39572	0.02629
2592.10995	0.02611
2590.82419	0.02580
2589.53842	0.02553
2588.25265	0.02535
2586.96688	0.02524
2585.68111	0.02524
2584.39534	0.02537
2583.10957	0.02549
2581.82380	0.02543
2580.53804	0.02520
2579.25227	0.02495
2577.96650	0.02485
2576.68073	0.02494
2575.39496	0.02515
2574.10919	0.02525
2572.82342	0.02501
2571.53765	0.02453
2570.25188	0.02419
2568.96612	0.02425
2567.68035	0.02456
2566.39458	0.02478
2565.10881	0.02477
2563.82304	0.02463
2562.53727	0.02452
2561.25150	0.02449
2559.96573	0.02448
2558.67997	0.02437
2557.39420	0.02412
2556.10843	0.02378
2554.82266	0.02351
2553.53689	0.02343
2552.25112	0.02349
2550.96535	0.02354
2549.67958	0.02339
2548.39381	0.02310
2547.10805	0.02287
2545.82228	0.02291
2544.53651	0.02319
2543.25074	0.02347
2541.96497	0.02356
2540.67920	0.02350
2539.39343	0.02346
2538.10766	0.02347
2536.82190	0.02332
2535.53613	0.02290
2534.25036	0.02239
2532.96459	0.02213
2531.67882	0.02223
2530.39305	0.02252
2529.10728	0.02275
2527.82151	0.02278
2526.53574	0.02262
2525.24998	0.02232
2523.96421	0.02202
2522.67844	0.02185
2521.39267	0.02181
2520.10690	0.02178
2518.82113	0.02166
2517.53536	0.02155
2516.24959	0.02157
2514.96383	0.02170
2513.67806	0.02185
2512.39229	0.02198
2511.10652	0.02213
2509.82075	0.02225
2508.53498	0.02226
2507.24921	0.02212
2505.96344	0.02192
2504.67767	0.02178
2503.39191	0.02175
2502.10614	0.02182
2500.82037	0.02194
2499.53460	0.02208
2498.24883	0.02213
2496.96306	0.02203
2495.67729	0.02180
2494.39152	0.02154
2493.10576	0.02138
2491.81999	0.02138
2490.53422	0.02147
2489.24845	0.02149
2487.96268	0.02137
2486.67691	0.02118
2485.39114	0.02108
2484.10537	0.02119
2482.81960	0.02147
2481.53384	0.02181
2480.24807	0.02203
2478.96230	0.02204
2477.67653	0.02185
2476.39076	0.02161
2475.10499	0.02145
2473.81922	0.02140
2472.53345	0.02132
2471.24769	0.02111
2469.96192	0.02080
2468.67615	0.02060
2467.39038	0.02060
2466.10461	0.02077
2464.81884	0.02097
2463.53307	0.02114
2462.24730	0.02123
2460.96153	0.02117
2459.67577	0.02096
2458.39000	0.02073
2457.10423	0.02059
2455.81846	0.02065
2454.53269	0.02096
2453.24692	0.02146
2451.96115	0.02194
2450.67538	0.02219
2449.38962	0.02215
2448.10385	0.02194
2446.81808	0.02163
2445.53231	0.02128
2444.24654	0.02096
2442.96077	0.02070
2441.67500	0.02052
2440.38923	0.02047
2439.10346	0.02060
2437.81770	0.02085
2436.53193	0.02114
2435.24616	0.02138
2433.96039	0.02159
2432.67462	0.02173
2431.38885	0.02174
2430.10308	0.02155
2428.81731	0.02123
2427.53155	0.02087
2426.24578	0.02058
2424.96001	0.02039
2423.67424	0.02028
2422.38847	0.02022
2421.10270	0.02015
2419.81693	0.02005
2418.53116	0.02001
2417.24539	0.02012
2415.95963	0.02034
2414.67386	0.02052
2413.38809	0.02057
2412.10232	0.02055
2410.81655	0.02044
2409.53078	0.02023
2408.24501	0.02000
2406.95924	0.01994
2405.67347	0.02013
2404.38771	0.02042
2403.10194	0.02062
2401.81617	0.02068
2400.53040	0.02056
2399.24463	0.02015
2397.95886	0.01976
2396.67309	0.01949
2395.38732	0.01939
2394.10156	0.01953
2392.81579	0.01983
2391.53002	0.02016
2390.24425	0.02038
2388.95848	0.02048
2387.67271	0.02056
2386.38694	0.02069
2385.10117	0.02081
2383.81540	0.02081
2382.52964	0.02068
2381.24387	0.02055
2379.95810	0.02059
2378.67233	0.02078
2377.38656	0.02099
2376.10079	0.02110
2374.81502	0.02100
2373.52925	0.02086
2372.24349	0.02081
2370.95772	0.02089
2369.67195	0.02085
2368.38618	0.02072
2367.10041	0.02065
2365.81464	0.02073
2364.52887	0.02073
2363.24310	0.02070
2361.95733	0.02091
2360.67157	0.02165
2359.38580	0.02232
2358.10003	0.02252
2356.81426	0.02229
2355.52849	0.02190
2354.24272	0.02156
2352.95695	0.02144
2351.67118	0.02177
2350.38542	0.02214
2349.09965	0.02198
2347.81388	0.02147
2346.52811	0.02165
2345.24234	0.02219
2343.95657	0.02183
2342.67080	0.02075
2341.38503	0.02099
2340.09926	0.02252
2338.81350	0.02251
2337.52773	0.02091
2336.24196	0.02121
2334.95619	0.02283
2333.67042	0.02209
2332.38465	0.01993
2331.09888	0.02021
2329.81311	0.02082
2328.52735	0.01952
2327.24158	0.02032
2325.95581	0.02250
2324.67004	0.02279
2323.38427	0.02335
2322.09850	0.02464
2320.81273	0.02418
2319.52696	0.02407
2318.24119	0.02437
2316.95543	0.02361
2315.66966	0.02333
2314.38389	0.02337
2313.09812	0.02301
2311.81235	0.02309
2310.52658	0.02288
2309.24081	0.02236
2307.95504	0.02195
2306.66928	0.02138
2305.38351	0.02111
2304.09774	0.02099
2302.81197	0.02083
2301.52620	0.02076
2300.24043	0.02054
2298.95466	0.02026
2297.66889	0.01986
2296.38312	0.01953
2295.09736	0.01953
2293.81159	0.01980
2292.52582	0.02013
2291.24005	0.02022
2289.95428	0.02003
2288.66851	0.01973
2287.38274	0.01950
2286.09697	0.01941
2284.81121	0.01942
2283.52544	0.01950
2282.23967	0.01965
2280.95390	0.01993
2279.66813	0.02034
2278.38236	0.02079
2277.09659	0.02113
2275.81082	0.02120
2274.52505	0.02093
2273.23929	0.02038
2271.95352	0.01968
2270.66775	0.01897
2269.38198	0.01831
2268.09621	0.01769
2266.81044	0.01719
2265.52467	0.01685
2264.23890	0.01659
2262.95314	0.01634
2261.66737	0.01615
2260.38160	0.01608
2259.09583	0.01620
2257.81006	0.01648
2256.52429	0.01665
2255.23852	0.01646
2253.95275	0.01598
2252.66698	0.01543
2251.38122	0.01508
2250.09545	0.01522
2248.80968	0.01594
2247.52391	0.01623
2246.23814	0.01652
2244.95237	0.01660
2243.66660	0.01622
2242.38083	0.01540
2241.09507	0.01448
2239.80930	0.01393
2238.52353	0.01409
2237.23776	0.01486
2235.95199	0.01568
2234.66622	0.01599
2233.38045	0.01552
2232.09468	0.01450
2230.80891	0.01337
2229.52315	0.01251
2228.23738	0.01202
2226.95161	0.01196
2225.66584	0.01251
2224.38007	0.01360
2223.09430	0.01462
2221.80853	0.01492
2220.52276	0.01449
2219.23700	0.01387
2217.95123	0.01352
2216.66546	0.01332
2215.37969	0.01295
2214.09392	0.01232
2212.80815	0.01178
2211.52238	0.01189
2210.23661	0.01274
2208.95084	0.01375
2207.66508	0.01410
2206.37931	0.01353
2205.09354	0.01247
2203.80777	0.01161
2202.52200	0.01147
2201.23623	0.01215
2199.95046	0.01315
2198.66469	0.01375
2197.37893	0.01357
2196.09316	0.01288
2194.80739	0.01216
2193.52162	0.01160
2192.23585	0.01108
2190.95008	0.01056
2189.66431	0.01024
2188.37854	0.01051
2187.09277	0.01137
2185.80701	0.01214
2184.52124	0.01194
2183.23547	0.01050
2181.94970	0.00847
2180.66393	0.00682
2179.37816	0.00609
2178.09239	0.00615
2176.80662	0.00667
2175.52085	0.00735
2174.23509	0.00789
2172.94932	0.00795
2171.66355	0.00744
2170.37778	0.00678
2169.09201	0.00657
2167.80624	0.00692
2166.52047	0.00738
2165.23470	0.00755
2163.94894	0.00739
2162.66317	0.00708
2161.37740	0.00658
2160.09163	0.00577
2158.80586	0.00473
2157.52009	0.00385
2156.23432	0.00351
2154.94855	0.00378
2153.66278	0.00437
2152.37702	0.00487
2151.09125	0.00508
2149.80548	0.00514
2148.51971	0.00541
2147.23394	0.00615
2145.94817	0.00732
2144.66240	0.00852
2143.37663	0.00918
2142.09087	0.00894
2140.80510	0.00806
2139.51933	0.00728
2138.23356	0.00719
2136.94779	0.00764
2135.66202	0.00795
2134.37625	0.00765
2133.09048	0.00698
2131.80471	0.00648
2130.51895	0.00645
2129.23318	0.00679
2127.94741	0.00737
2126.66164	0.00820
2125.37587	0.00921
2124.09010	0.01014
2122.80433	0.01078
2121.51856	0.01117
2120.23280	0.01150
2118.94703	0.01182
2117.66126	0.01203
2116.37549	0.01203
2115.08972	0.01188
2113.80395	0.01177
2112.51818	0.01191
2111.23241	0.01237
2109.94664	0.01289
2108.66088	0.01302
2107.37511	0.01246
2106.08934	0.01143
2104.80357	0.01050
2103.51780	0.01010
2102.23203	0.01016
2100.94626	0.01037
2099.66049	0.01041
2098.37473	0.01039
2097.08896	0.01031
2095.80319	0.01015
2094.51742	0.01000
2093.23165	0.00998
2091.94588	0.01013
2090.66011	0.01043
2089.37434	0.01074
2088.08857	0.01093
2086.80281	0.01096
2085.51704	0.01083
2084.23127	0.01065
2082.94550	0.01052
2081.65973	0.01050
2080.37396	0.01049
2079.08819	0.01039
2077.80242	0.01027
2076.51666	0.01032
2075.23089	0.01055
2073.94512	0.01072
2072.65935	0.01066
2071.37358	0.01045
2070.08781	0.01027
2068.80204	0.01004
2067.51627	0.00954
2066.23050	0.00881
2064.94474	0.00818
2063.65897	0.00795
2062.37320	0.00812
2061.08743	0.00837
2059.80166	0.00846
2058.51589	0.00839
2057.23012	0.00836
2055.94435	0.00852
2054.65859	0.00889
2053.37282	0.00932
2052.08705	0.00946
2050.80128	0.00901
2049.51551	0.00805
2048.22974	0.00718
2046.94397	0.00704
2045.65820	0.00766
2044.37243	0.00842
2043.08667	0.00862
2041.80090	0.00803
2040.51513	0.00683
2039.22936	0.00521
2037.94359	0.00328
2036.65782	0.00135
2035.37205	0.00005
2034.08628	-0.00023
2032.80052	0.00024
2031.51475	0.00084
2030.22898	0.00125
2028.94321	0.00162
2027.65744	0.00228
2026.37167	0.00330
2025.08590	0.00435
2023.80013	0.00492
2022.51436	0.00476
2021.22860	0.00413
2019.94283	0.00353
2018.65706	0.00327
2017.37129	0.00328
2016.08552	0.00339
2014.79975	0.00354
2013.51398	0.00374
2012.22821	0.00392
2010.94245	0.00382
2009.65668	0.00320
2008.37091	0.00225
2007.08514	0.00153
2005.79937	0.00148
2004.51360	0.00209
2003.22783	0.00303
2001.94206	0.00404
2000.65629	0.00494
1999.37053	0.00548
1998.08476	0.00559
1996.79899	0.00555
1995.51322	0.00585
1994.22745	0.00660
1992.94168	0.00748
1991.65591	0.00806
1990.37014	0.00821
1989.08438	0.00804
1987.79861	0.00769
1986.51284	0.00725
1985.22707	0.00681
1983.94130	0.00648
1982.65553	0.00646
1981.36976	0.00687
1980.08399	0.00749
1978.79822	0.00784
1977.51246	0.00760
1976.22669	0.00689
1974.94092	0.00596
1973.65515	0.00502
1972.36938	0.00428
1971.08361	0.00398
1969.79784	0.00411
1968.51207	0.00439
1967.22631	0.00459
1965.94054	0.00484
1964.65477	0.00536
1963.36900	0.00604
1962.08323	0.00653
1960.79746	0.00671
1959.51169	0.00674
1958.22592	0.00680
1956.94015	0.00674
1955.65439	0.00649
1954.36862	0.00636
1953.08285	0.00682
1951.79708	0.00794
1950.51131	0.00924
1949.22554	0.01016
1947.93977	0.01046
1946.65400	0.01028
1945.36823	0.00991
1944.08247	0.00958
1942.79670	0.00939
1941.51093	0.00935
1940.22516	0.00941
1938.93939	0.00947
1937.65362	0.00946
1936.36785	0.00942
1935.08208	0.00942
1933.79632	0.00948
1932.51055	0.00950
1931.22478	0.00942
1929.93901	0.00932
1928.65324	0.00931
1927.36747	0.00944
1926.08170	0.00964
1924.79593	0.00984
1923.51016	0.01005
1922.22440	0.01036
1920.93863	0.01074
1919.65286	0.01096
1918.36709	0.01084
1917.08132	0.01047
1915.79555	0.01015
1914.50978	0.01011
1913.22401	0.01032
1911.93825	0.01056
1910.65248	0.01064
1909.36671	0.01045
1908.08094	0.01011
1906.79517	0.00989
1905.50940	0.00998
1904.22363	0.01025
1902.93786	0.01040
1901.65209	0.01032
1900.36633	0.01018
1899.08056	0.01019
1897.79479	0.01031
1896.50902	0.01035
1895.22325	0.01020
1893.93748	0.01001
1892.65171	0.00998
1891.36594	0.01017
1890.08018	0.01042
1888.79441	0.01054
1887.50864	0.01052
1886.22287	0.01047
1884.93710	0.01050
1883.65133	0.01058
1882.36556	0.01066
1881.07979	0.01067
1879.79402	0.01062
1878.50826	0.01054
1877.22249	0.01044
1875.93672	0.01033
1874.65095	0.01021
1873.36518	0.01009
1872.07941	0.01005
1870.79364	0.01016
1869.50787	0.01042
1868.22211	0.01075
1866.93634	0.01101
1865.65057	0.01111
1864.36480	0.01104
1863.07903	0.01087
1861.79326	0.01075
1860.50749	0.01069
1859.22172	0.01064
1857.93595	0.01054
1856.65019	0.01045
1855.36442	0.01047
1854.07865	0.01061
1852.79288	0.01080
1851.50711	0.01097
1850.22134	0.01113
1848.93557	0.01127
1847.64980	0.01138
1846.36404	0.01140
1845.07827	0.01133
1843.79250	0.01124
1842.50673	0.01115
1841.22096	0.01110
1839.93519	0.01107
1838.64942	0.01104
1837.36365	0.01100
1836.07788	0.01092
1834.79212	0.01080
1833.50635	0.01070
1832.22058	0.01069
1830.93481	0.01079
1829.64904	0.01096
1828.36327	0.01115
1827.07750	0.01130
1825.79173	0.01136
1824.50597	0.01132
1823.22020	0.01121
1821.93443	0.01109
1820.64866	0.01100
1819.36289	0.01093
1818.07712	0.01084
1816.79135	0.01076
1815.50558	0.01072
1814.21981	0.01079
1812.93405	0.01095
1811.64828	0.01112
1810.36251	0.01123
1809.07674	0.01129
1807.79097	0.01133
1806.50520	0.01138
1805.21943	0.01143
1803.93366	0.01146
1802.64790	0.01149
1801.36213	0.01156
1800.07636	0.01167
1798.79059	0.01177
1797.50482	0.01185
1796.21905	0.01189
1794.93328	0.01190
1793.64751	0.01187
1792.36174	0.01181
1791.07598	0.01170
1789.79021	0.01160
1788.50444	0.01156
1787.21867	0.01163
1785.93290	0.01176
1784.64713	0.01188
1783.36136	0.01189
1782.07559	0.01179
1780.78983	0.01159
1779.50406	0.01138
1778.21829	0.01120
1776.93252	0.01112
1775.64675	0.01117
1774.36098	0.01132
1773.07521	0.01150
1771.78944	0.01166
1770.50367	0.01175
1769.21791	0.01179
1767.93214	0.01180
1766.64637	0.01185
1765.36060	0.01195
1764.07483	0.01206
1762.78906	0.01210
1761.50329	0.01205
1760.21752	0.01196
1758.93176	0.01185
1757.64599	0.01174
1756.36022	0.01169
1755.07445	0.01174
1753.78868	0.01184
1752.50291	0.01191
1751.21714	0.01190
1749.93137	0.01186
1748.64560	0.01187
1747.35984	0.01195
1746.07407	0.01204
1744.78830	0.01204
1743.50253	0.01195
1742.21676	0.01184
1740.93099	0.01177
1739.64522	0.01178
1738.35945	0.01186
1737.07369	0.01197
1735.78792	0.01206
1734.50215	0.01207
1733.21638	0.01203
1731.93061	0.01198
1730.64484	0.01198
1729.35907	0.01204
1728.07330	0.01213
1726.78753	0.01224
1725.50177	0.01233
1724.21600	0.01239
1722.93023	0.01246
1721.64446	0.01260
1720.35869	0.01279
1719.07292	0.01299
1717.78715	0.01316
1716.50138	0.01330
1715.21561	0.01343
1713.92985	0.01357
1712.64408	0.01375
1711.35831	0.01401
1710.07254	0.01435
1708.78677	0.01477
1707.50100	0.01524
1706.21523	0.01572
1704.92946	0.01621
1703.64370	0.01672
1702.35793	0.01726
1701.07216	0.01785
1699.78639	0.01854
1698.50062	0.01935
1697.21485	0.02021
1695.92908	0.02105
1694.64331	0.02187
1693.35754	0.02270
1692.07178	0.02357
1690.78601	0.02442
1689.50024	0.02524
1688.21447	0.02607
1686.92870	0.02697
1685.64293	0.02789
1684.35716	0.02878
1683.07139	0.02960
1681.78563	0.03042
1680.49986	0.03127
1679.21409	0.03216
1677.92832	0.03302
1676.64255	0.03382
1675.35678	0.03458
1674.07101	0.03537
1672.78524	0.03623
1671.49947	0.03711
1670.21371	0.03794
1668.92794	0.03869
1667.64217	0.03944
1666.35640	0.04025
1665.07063	0.04108
1663.78486	0.04186
1662.49909	0.04257
1661.21332	0.04322
1659.92756	0.04388
1658.64179	0.04459
1657.35602	0.04531
1656.07025	0.04597
1654.78448	0.04649
1653.49871	0.04685
1652.21294	0.04717
1650.92717	0.04757
1649.64140	0.04806
1648.35564	0.04855
1647.06987	0.04892
1645.78410	0.04913
1644.49833	0.04922
1643.21256	0.04927
1641.92679	0.04933
1640.64102	0.04939
1639.35525	0.04942
1638.06949	0.04937
1636.78372	0.04917
1635.49795	0.04881
1634.21218	0.04839
1632.92641	0.04800
1631.64064	0.04767
1630.35487	0.04732
1629.06910	0.04688
1627.78333	0.04631
1626.49757	0.04566
1625.21180	0.04497
1623.92603	0.04429
1622.64026	0.04365
1621.35449	0.04311
1620.06872	0.04264
1618.78295	0.04213
1617.49718	0.04151
1616.21142	0.04079
1614.92565	0.04009
1613.63988	0.03952
1612.35411	0.03907
1611.06834	0.03865
1609.78257	0.03821
1608.49680	0.03779
1607.21103	0.03746
1605.92526	0.03723
1604.63950	0.03703
1603.35373	0.03682
1602.06796	0.03659
1600.78219	0.03638
1599.49642	0.03622
1598.21065	0.03610
1596.92488	0.03600
1595.63911	0.03588
1594.35335	0.03576
1593.06758	0.03566
1591.78181	0.03563
1590.49604	0.03568
1589.21027	0.03577
1587.92450	0.03590
1586.63873	0.03603
1585.35296	0.03615
1584.06719	0.03624
1582.78143	0.03630
1581.49566	0.03636
1580.20989	0.03644
1578.92412	0.03657
1577.63835	0.03672
1576.35258	0.03689
1575.06681	0.03708
1573.78104	0.03730
1572.49528	0.03755
1571.20951	0.03779
1569.92374	0.03803
1568.63797	0.03829
1567.35220	0.03858
1566.06643	0.03891
1564.78066	0.03927
1563.49489	0.03966
1562.20912	0.04002
1560.92336	0.04030
1559.63759	0.04047
1558.35182	0.04057
1557.06605	0.04066
1555.78028	0.04078
1554.49451	0.04094
1553.20874	0.04111
1551.92297	0.04128
1550.63721	0.04143
1549.35144	0.04155
1548.06567	0.04168
1546.77990	0.04182
1545.49413	0.04199
1544.20836	0.04214
1542.92259	0.04223
1541.63682	0.04222
1540.35105	0.04214
1539.06529	0.04204
1537.77952	0.04200
1536.49375	0.04202
1535.20798	0.04212
1533.92221	0.04224
1532.63644	0.04234
1531.35067	0.04240
1530.06490	0.04243
1528.77914	0.04245
1527.49337	0.04248
1526.20760	0.04253
1524.92183	0.04262
1523.63606	0.04274
1522.35029	0.04290
1521.06452	0.04311
1519.77875	0.04336
1518.49298	0.04361
1517.20722	0.04382
1515.92145	0.04399
1514.63568	0.04418
1513.34991	0.04442
1512.06414	0.04474
1510.77837	0.04507
1509.49260	0.04538
1508.20683	0.04562
1506.92107	0.04579
1505.63530	0.04593
1504.34953	0.04607
1503.06376	0.04625
1501.77799	0.04644
1500.49222	0.04661
1499.20645	0.04672
1497.92068	0.04678
1496.63491	0.04681
1495.34915	0.04688
1494.06338	0.04702
1492.77761	0.04720
1491.49184	0.04739
1490.20607	0.04758
1488.92030	0.04778
1487.63453	0.04803
1486.34876	0.04834
1485.06299	0.04870
1483.77723	0.04913
1482.49146	0.04958
1481.20569	0.05002
1479.91992	0.05043
1478.63415	0.05085
1477.34838	0.05130
1476.06261	0.05181
1474.77684	0.05235
1473.49108	0.05287
1472.20531	0.05330
1470.91954	0.05366
1469.63377	0.05395
1468.34800	0.05421
1467.06223	0.05447
1465.77646	0.05474
1464.49069	0.05502
1463.20492	0.05535
1461.91916	0.05574
1460.63339	0.05623
1459.34762	0.05678
1458.06185	0.05735
1456.77608	0.05789
1455.49031	0.05834
1454.20454	0.05869
1452.91877	0.05896
1451.63301	0.05920
1450.34724	0.05948
1449.06147	0.05978
1447.77570	0.06004
1446.48993	0.06016
1445.20416	0.06014
1443.91839	0.06003
1442.63262	0.05991
1441.34685	0.05979
1440.06109	0.05965
1438.77532	0.05950
1437.48955	0.05936
1436.20378	0.05928
1434.91801	0.05929
1433.63224	0.05939
1432.34647	0.05956
1431.06070	0.05982
1429.77494	0.06020
1428.48917	0.06072
1427.20340	0.06138
1425.91763	0.06211
1424.63186	0.06285
1423.34609	0.06354
1422.06032	0.06416
1420.77455	0.06468
1419.48878	0.06514
1418.20302	0.06557
1416.91725	0.06600
1415.63148	0.06640
1414.34571	0.06670
1413.05994	0.06685
1411.77417	0.06686
1410.48840	0.06681
1409.20263	0.06670
1407.91687	0.06654
1406.63110	0.06628
1405.34533	0.06589
1404.05956	0.06538
1402.77379	0.06476
1401.48802	0.06405
1400.20225	0.06326
1398.91648	0.06241
1397.63071	0.06151
1396.34495	0.06058
1395.05918	0.05961
1393.77341	0.05864
1392.48764	0.05766
1391.20187	0.05667
1389.91610	0.05565
1388.63033	0.05461
1387.34456	0.05358
1386.05880	0.05255
1384.77303	0.05151
1383.48726	0.05046
1382.20149	0.04940
1380.91572	0.04836
1379.62995	0.04733
1378.34418	0.04630
1377.05841	0.04527
1375.77264	0.04421
1374.48688	0.04316
1373.20111	0.04213
1371.91534	0.04112
1370.62957	0.04014
1369.34380	0.03918
1368.05803	0.03823
1366.77226	0.03731
1365.48649	0.03647
1364.20073	0.03575
1362.91496	0.03511
1361.62919	0.03452
1360.34342	0.03395
1359.05765	0.03341
1357.77188	0.03290
1356.48611	0.03245
1355.20034	0.03205
1353.91457	0.03168
1352.62881	0.03133
1351.34304	0.03097
1350.05727	0.03062
1348.77150	0.03029
1347.48573	0.03000
1346.19996	0.02975
1344.91419	0.02955
1343.62842	0.02937
1342.34266	0.02919
1341.05689	0.02898
1339.77112	0.02872
1338.48535	0.02844
1337.19958	0.02818
1335.91381	0.02795
1334.62804	0.02771
1333.34227	0.02745
1332.05650	0.02718
1330.77074	0.02694
1329.48497	0.02672
1328.19920	0.02650
1326.91343	0.02623
1325.62766	0.02594
1324.34189	0.02568
1323.05612	0.02549
1321.77035	0.02536
1320.48459	0.02523
1319.19882	0.02505
1317.91305	0.02480
1316.62728	0.02454
1315.34151	0.02429
1314.05574	0.02410
1312.76997	0.02394
1311.48420	0.02377
1310.19843	0.02357
1308.91267	0.02334
1307.62690	0.02311
1306.34113	0.02290
1305.05536	0.02270
1303.76959	0.02248
1302.48382	0.02227
1301.19805	0.02206
1299.91228	0.02187
1298.62652	0.02169
1297.34075	0.02149
1296.05498	0.02131
1294.76921	0.02118
1293.48344	0.02109
1292.19767	0.02103
1290.91190	0.02099
1289.62613	0.02095
1288.34036	0.02093
1287.05460	0.02093
1285.76883	0.02092
1284.48306	0.02092
1283.19729	0.02090
1281.91152	0.02085
1280.62575	0.02074
1279.33998	0.02057
1278.05421	0.02039
1276.76845	0.02025
1275.48268	0.02017
1274.19691	0.02016
1272.91114	0.02019
1271.62537	0.02024
1270.33960	0.02029
1269.05383	0.02032
1267.76806	0.02032
1266.48229	0.02030
1265.19653	0.02026
1263.91076	0.02021
1262.62499	0.02018
1261.33922	0.02017
1260.05345	0.02019
1258.76768	0.02022
1257.48191	0.02025
1256.19614	0.02028
1254.91037	0.02030
1253.62461	0.02028
1252.33884	0.02024
1251.05307	0.02023
1249.76730	0.02026
1248.48153	0.02032
1247.19576	0.02036
1245.90999	0.02035
1244.62422	0.02029
1243.33846	0.02020
1242.05269	0.02011
1240.76692	0.02003
1239.48115	0.01995
1238.19538	0.01986
1236.90961	0.01976
1235.62384	0.01967
1234.33807	0.01961
1233.05230	0.01957
1231.76654	0.01951
1230.48077	0.01937
1229.19500	0.01916
1227.90923	0.01893
1226.62346	0.01873
1225.33769	0.01856
1224.05192	0.01839
1222.76615	0.01821
1221.48039	0.01802
1220.19462	0.01785
1218.90885	0.01770
1217.62308	0.01753
1216.33731	0.01734
1215.05154	0.01715
1213.76577	0.01702
1212.48000	0.01696
1211.19423	0.01696
1209.90847	0.01698
1208.62270	0.01698
1207.33693	0.01695
1206.05116	0.01692
1204.76539	0.01690
1203.47962	0.01689
1202.19385	0.01690
1200.90808	0.01692
1199.62232	0.01696
1198.33655	0.01700
1197.05078	0.01700
1195.76501	0.01693
1194.47924	0.01680
1193.19347	0.01664
1191.90770	0.01650
1190.62193	0.01637
1189.33616	0.01627
1188.05040	0.01621
1186.76463	0.01622
1185.47886	0.01626
1184.19309	0.01630
1182.90732	0.01626
1181.62155	0.01614
1180.33578	0.01597
1179.05001	0.01582
1177.76425	0.01571
1176.47848	0.01563
1175.19271	0.01559
1173.90694	0.01561
1172.62117	0.01569
1171.33540	0.01581
1170.04963	0.01592
1168.76386	0.01601
1167.47809	0.01607
1166.19233	0.01612
1164.90656	0.01617
1163.62079	0.01624
1162.33502	0.01630
1161.04925	0.01636
1159.76348	0.01641
1158.47771	0.01648
1157.19194	0.01657
1155.90618	0.01671
1154.62041	0.01688
1153.33464	0.01706
1152.04887	0.01724
1150.76310	0.01741
1149.47733	0.01762
1148.19156	0.01790
1146.90579	0.01827
1145.62002	0.01868
1144.33426	0.01910
1143.04849	0.01955
1141.76272	0.02007
1140.47695	0.02068
1139.19118	0.02136
1137.90541	0.02208
1136.61964	0.02282
1135.33387	0.02356
1134.04811	0.02429
1132.76234	0.02505
1131.47657	0.02591
1130.19080	0.02691
1128.90503	0.02811
1127.61926	0.02947
1126.33349	0.03097
1125.04772	0.03258
1123.76195	0.03427
1122.47619	0.03606
1121.19042	0.03792
1119.90465	0.03985
1118.61888	0.04182
1117.33311	0.04380
1116.04734	0.04579
1114.76157	0.04778
1113.47580	0.04979
1112.19004	0.05182
1110.90427	0.05383
1109.61850	0.05579
1108.33273	0.05771
1107.04696	0.05961
1105.76119	0.06152
1104.47542	0.06341
1103.18965	0.06526
1101.90388	0.06706
1100.61812	0.06881
1099.33235	0.07052
1098.04658	0.07218
1096.76081	0.07377
1095.47504	0.07525
1094.18927	0.07659
1092.90350	0.07783
1091.61773	0.07904
1090.33197	0.08025
1089.04620	0.08144
1087.76043	0.08259
1086.47466	0.08375
1085.18889	0.08498
1083.90312	0.08630
1082.61735	0.08767
1081.33158	0.08904
1080.04581	0.09041
1078.76005	0.09181
1077.47428	0.09328
1076.18851	0.09484
1074.90274	0.09651
1073.61697	0.09826
1072.33120	0.10005
1071.04543	0.10182
1069.75966	0.10356
1068.47390	0.10528
1067.18813	0.10703
1065.90236	0.10882
1064.61659	0.11069
1063.33082	0.11261
1062.04505	0.11455
1060.75928	0.11644
1059.47351	0.11824
1058.18774	0.11997
1056.90198	0.12165
1055.61621	0.12329
1054.33044	0.12495
1053.04467	0.12663
1051.75890	0.12833
1050.47313	0.13003
1049.18736	0.13172
1047.90159	0.13343
1046.61583	0.13518
1045.33006	0.13694
1044.04429	0.13873
1042.75852	0.14054
1041.47275	0.14235
1040.18698	0.14411
1038.90121	0.14578
1037.61544	0.14742
1036.32967	0.14910
1035.04391	0.15084
1033.75814	0.15257
1032.47237	0.15420
1031.18660	0.15566
1029.90083	0.15695
1028.61506	0.15810
1027.32929	0.15916
1026.04352	0.16015
1024.75775	0.16100
1023.47199	0.16161
1022.18622	0.16194
1020.90045	0.16203
1019.61468	0.16193
1018.32891	0.16164
1017.04314	0.16114
1015.75737	0.16043
1014.47160	0.15957
1013.18584	0.15856
1011.90007	0.15732
1010.61430	0.15583
1009.32853	0.15408
1008.04276	0.15213
1006.75699	0.14997
1005.47122	0.14764
1004.18545	0.14518
1002.89968	0.14263
1001.61392	0.13995
1000.32815	0.13707
999.04238	0.13399
997.75661	0.13077
996.47084	0.12750
995.18507	0.12424
993.89930	0.12099
992.61353	0.11774
991.32777	0.11450
990.04200	0.11128
988.75623	0.10808
987.47046	0.10493
986.18469	0.10185
984.89892	0.09888
983.61315	0.09598
982.32738	0.09314
981.04161	0.09037
979.75585	0.08770
978.47008	0.08516
977.18431	0.08274
975.89854	0.08047
974.61277	0.07838
973.32700	0.07652
972.04123	0.07495
970.75546	0.07369
969.46970	0.07272
968.18393	0.07202
966.89816	0.07156
965.61239	0.07140
964.32662	0.07150
963.04085	0.07170
961.75508	0.07178
960.46931	0.07160
959.18354	0.07119
957.89778	0.07060
956.61201	0.06984
955.32624	0.06887
954.04047	0.06772
952.75470	0.06648
951.46893	0.06519
950.18316	0.06386
948.89739	0.06252
947.61163	0.06118
946.32586	0.05984
945.04009	0.05849
943.75432	0.05716
942.46855	0.05592
941.18278	0.05478
939.89701	0.05371
938.61124	0.05265
937.32547	0.05161
936.03971	0.05064
934.75394	0.04974
933.46817	0.04889
932.18240	0.04806
930.89663	0.04725
929.61086	0.04649
928.32509	0.04578
927.03932	0.04507
925.75356	0.04432
924.46779	0.04354
923.18202	0.04284
921.89625	0.04228
920.61048	0.04184
919.32471	0.04143
918.03894	0.04097
916.75317	0.04044
915.46740	0.03991
914.18164	0.03945
912.89587	0.03908
911.61010	0.03876
910.32433	0.03848
909.03856	0.03817
907.75279	0.03780
906.46702	0.03740
905.18125	0.03706
903.89549	0.03678
902.60972	0.03650
901.32395	0.03613
900.03818	0.03568
898.75241	0.03525
897.46664	0.03488
896.18087	0.03452
894.89510	0.03413
893.60933	0.03376
892.32357	0.03352
891.03780	0.03346
889.75203	0.03353
888.46626	0.03369
887.18049	0.03395
885.89472	0.03444
884.60895	0.03527
883.32318	0.03648
882.03742	0.03797
880.75165	0.03952
879.46588	0.04088
878.18011	0.04197
876.89434	0.04289
875.60857	0.04381
874.32280	0.04478
873.03703	0.04566
871.75126	0.04623
870.46550	0.04632
869.17973	0.04587
867.89396	0.04494
866.60819	0.04373
865.32242	0.04245
864.03665	0.04127
862.75088	0.04018
861.46511	0.03914
860.17935	0.03811
858.89358	0.03717
857.60781	0.03633
856.32204	0.03559
855.03627	0.03494
853.75050	0.03439
852.46473	0.03392
851.17896	0.03348
849.89319	0.03304
848.60743	0.03264
847.32166	0.03235
846.03589	0.03217
844.75012	0.03204
843.46435	0.03190
842.17858	0.03171
840.89281	0.03149
839.60704	0.03129
838.32128	0.03112
837.03551	0.03097
835.74974	0.03081
834.46397	0.03064
833.17820	0.03045
831.89243	0.03027
830.60666	0.03008
829.32089	0.02990
828.03512	0.02978
826.74936	0.02976
825.46359	0.02985
824.17782	0.02996
822.89205	0.03003
821.60628	0.02997
820.32051	0.02975
819.03474	0.02941
817.74897	0.02905
816.46321	0.02876
815.17744	0.02860
813.89167	0.02857
812.60590	0.02866
811.32013	0.02885
810.03436	0.02903
808.74859	0.02907
807.46282	0.02893
806.17705	0.02872
804.89129	0.02858
803.60552	0.02860
802.31975	0.02872
801.03398	0.02882
799.74821	0.02883
798.46244	0.02877
797.17667	0.02871
795.89090	0.02869
794.60513	0.02867
793.31937	0.02859
792.03360	0.02846
790.74783	0.02829
789.46206	0.02815
788.17629	0.02808
786.89052	0.02811
785.60475	0.02820
784.31898	0.02829
783.03322	0.02832
781.74745	0.02831
780.46168	0.02830
779.17591	0.02832
777.89014	0.02838
776.60437	0.02844
775.31860	0.02848
774.03283	0.02845
772.74706	0.02836
771.46130	0.02824
770.17553	0.02816
768.88976	0.02814
767.60399	0.02818
766.31822	0.02828
765.03245	0.02842
763.74668	0.02858
762.46091	0.02874
761.17515	0.02885
759.88938	0.02890
758.60361	0.02886
757.31784	0.02873
756.03207	0.02855
754.74630	0.02841
753.46053	0.02839
752.17476	0.02853
750.88899	0.02872
749.60323	0.02883
748.31746	0.02882
747.03169	0.02876
745.74592	0.02878
744.46015	0.02891
743.17438	0.02909
741.88861	0.02922
740.60284	0.02925
739.31708	0.02912
738.03131	0.02887
736.74554	0.02859
735.45977	0.02840
734.17400	0.02835
732.88823	0.02841
731.60246	0.02849
730.31669	0.02854
729.03092	0.02855
727.74516	0.02854
726.45939	0.02855
725.17362	0.02857
723.88785	0.02848
722.60208	0.02872
721.31631	0.02909
720.03054	0.02939
718.74477	0.02960
717.45901	0.02972
716.17324	0.02974
714.88747	0.02965
713.60170	0.02946
712.31593	0.02926
711.03016	0.02912
709.74439	0.02907
708.45862	0.02907
707.17285	0.02909
705.88709	0.02909
704.60132	0.02909
703.31555	0.02909
702.02978	0.02908
700.74401	0.02910
699.45824	0.02917
698.17247	0.02928
696.88670	0.02941
695.60094	0.02949
694.31517	0.02952
693.02940	0.02955
691.74363	0.02959
690.45786	0.02965
689.17209	0.02970
687.88632	0.02968
686.60055	0.02956
685.31478	0.02937
684.02902	0.02916
682.74325	0.02902
681.45748	0.02895
680.17171	0.02890
678.88594	0.02882
677.60017	0.02873
676.31440	0.02868
675.02863	0.02866
673.74287	0.02867
672.45710	0.02872
671.17133	0.02887
669.88556	0.02908
668.59979	0.02915
667.31402	0.02910
666.02825	0.02917
664.74248	0.02901
663.45671	0.02879
662.17095	0.02860
660.88518	0.02844
659.59941	0.02831
658.31364	0.02821
657.02787	0.02814
655.74210	0.02807
654.45633	0.02799
653.17056	0.02789
651.88480	0.02779
650.59903	0.02774
649.31326	0.02776
648.02749	0.02781
646.74172	0.02784
645.45595	0.02785
644.17018	0.02784
642.88441	0.02785
641.59864	0.02790
640.31288	0.02797
639.02711	0.02802
637.74134	0.02803
636.45557	0.02804
635.16980	0.02814
633.88403	0.02834
632.59826	0.02862
631.31249	0.02891
630.02673	0.02911
628.74096	0.02927
627.45519	0.02970
626.16942	0.02998
624.88365	0.03032
623.59788	0.03109
622.31211	0.03257
621.02634	0.03464
619.74057	0.03669
618.45481	0.03819
617.16904	0.03924
615.88327	0.04033
614.59750	0.04193
613.31173	0.04422
612.02596	0.04730
610.74019	0.05100
609.45442	0.05486
608.16866	0.05840
606.88289	0.06155
605.59712	0.06447
604.31135	0.06704
603.02558	0.06878
601.73981	0.06934
600.45404	0.06886
599.16827	0.06771
597.88250	0.06617
596.59674	0.06440
595.31097	0.06268
594.02520	0.06132
592.73943	0.06048
591.45366	0.06010
590.16789	0.06010
588.88212	0.06044
587.59635	0.06108
586.31059	0.06197
585.02482	0.06301
583.73905	0.06420
582.45328	0.06550
581.16751	0.06688
579.88174	0.06828
578.59597	0.06970
577.31020	0.07121
576.02443	0.07282
574.73867	0.07440
573.45290	0.07584
572.16713	0.07717
570.88136	0.07864
569.59559	0.08047
568.30982	0.08265
567.02405	0.08494
565.73828	0.08705
564.45251	0.08884
563.16675	0.09031
561.88098	0.09135
560.59521	0.09166
559.30944	0.09092
558.02367	0.08907
556.73790	0.08637
555.45213	0.08319
554.16636	0.07990
552.88060	0.07669
551.59483	0.07369
550.30906	0.07087
549.02329	0.06815
547.73752	0.06551
546.45175	0.06299
545.16598	0.06070
543.88021	0.05873
542.59444	0.05708
541.30868	0.05573
540.02291	0.05454
538.73714	0.05336
537.45137	0.05208
536.16560	0.05072
534.87983	0.04938
533.59406	0.04813
532.30829	0.04697
531.02253	0.04590
529.73676	0.04496
528.45099	0.04420
527.16522	0.04358
525.87945	0.04299
524.59368	0.04234
523.30791	0.04162
522.02214	0.04085
520.73637	0.04008
519.45061	0.03932
518.16484	0.03862
516.87907	0.03801
515.59330	0.03750
514.30753	0.03704
513.02176	0.03659
511.73599	0.03616
510.45022	0.03575
509.16446	0.03532
507.87869	0.03483
506.59292	0.03427
505.30715	0.03368
504.02138	0.03310
502.73561	0.03254
501.44984	0.03204
500.16407	0.03165
498.87830	0.03140
497.59254	0.03125
496.30677	0.03112
495.02100	0.03095
493.73523	0.03071
492.44946	0.03044
491.16369	0.03017
489.87792	0.02990
488.59215	0.02963
487.30639	0.02941
486.02062	0.02923
484.73485	0.02904
483.44908	0.02879
482.16331	0.02853
480.87754	0.02832
479.59177	0.02824
478.30600	0.02832
477.02023	0.02852
475.73447	0.02877
474.44870	0.02898
473.16293	0.02909
471.87716	0.02906
470.59139	0.02890
469.30562	0.02869
468.01985	0.02849
466.73408	0.02832
465.44832	0.02814
464.16255	0.02793
462.87678	0.02766
461.59101	0.02732
460.30524	0.02691
459.01947	0.02651
457.73370	0.02619
456.44793	0.02597
455.16216	0.02578
453.87640	0.02551
452.59063	0.02518
451.30486	0.02482
450.01909	0.02451
448.73332	0.02426
447.44755	0.02410
446.16178	0.02400
444.87601	0.02394
443.59025	0.02387
442.30448	0.02378
441.01871	0.02365
439.73294	0.02351
438.44717	0.02335
437.16140	0.02317
435.87563	0.02298
434.58986	0.02280
433.30409	0.02267
432.01833	0.02262
430.73256	0.02260
429.44679	0.02255
428.16102	0.02245
426.87525	0.02228
425.58948	0.02208
424.30371	0.02189
423.01794	0.02175
421.73218	0.02164
420.44641	0.02152
419.16064	0.02135
417.87487	0.02114
416.58910	0.02095
415.30333	0.02084
414.01756	0.02081
412.73179	0.02081
411.44602	0.02081
410.16026	0.02079
408.87449	0.02074
407.58872	0.02067
406.30295	0.02055
405.01718	0.02040
403.73141	0.02027
402.44564	0.02020
401.15987	0.02020
399.87411	0.02025
