3997.45528	0.03205
3996.16951	0.03184
3994.88374	0.03159
3993.59798	0.03140
3992.31221	0.03148
3991.02644	0.03185
3989.74067	0.03231
3988.45490	0.03257
3987.16913	0.03244
3985.88336	0.03196
3984.59759	0.03145
3983.31183	0.03133
3982.02606	0.03176
3980.74029	0.03245
3979.45452	0.03299
3978.16875	0.03323
3976.88298	0.03337
3975.59721	0.03359
3974.31144	0.03389
3973.02567	0.03413
3971.73991	0.03429
3970.45414	0.03445
3969.16837	0.03470
3967.88260	0.03498
3966.59683	0.03512
3965.31106	0.03501
3964.02529	0.03470
3962.73952	0.03444
3961.45376	0.03435
3960.16799	0.03429
3958.88222	0.03400
3957.59645	0.03361
3956.31068	0.03360
3955.02491	0.03431
3953.73914	0.03552
3952.45337	0.03662
3951.16760	0.03722
3949.88184	0.03726
3948.59607	0.03683
3947.31030	0.03597
3946.02453	0.03482
3944.73876	0.03382
3943.45299	0.03342
3942.16722	0.03374
3940.88145	0.03449
3939.59569	0.03529
3938.30992	0.03592
3937.02415	0.03629
3935.73838	0.03631
3934.45261	0.03595
3933.16684	0.03523
3931.88107	0.03431
3930.59530	0.03350
3929.30953	0.03311
3928.02377	0.03328
3926.73800	0.03390
3925.45223	0.03471
3924.16646	0.03554
3922.88069	0.03628
3921.59492	0.03678
3920.30915	0.03688
3919.02338	0.03652
3917.73762	0.03585
3916.45185	0.03525
3915.16608	0.03505
3913.88031	0.03527
3912.59454	0.03552
3911.30877	0.03532
3910.02300	0.03458
3908.73723	0.03368
3907.45146	0.03307
3906.16570	0.03291
3904.87993	0.03317
3903.59416	0.03367
3902.30839	0.03411
3901.02262	0.03416
3899.73685	0.03378
3898.45108	0.03332
3897.16531	0.03325
3895.87955	0.03367
3894.59378	0.03427
3893.30801	0.03468
3892.02224	0.03480
3890.73647	0.03477
3889.45070	0.03474
3888.16493	0.03472
3886.87916	0.03471
3885.59339	0.03480
3884.30763	0.03515
3883.02186	0.03576
3881.73609	0.03642
3880.45032	0.03667
3879.16455	0.03621
3877.87878	0.03517
3876.59301	0.03400
3875.30724	0.03318
3874.02148	0.03290
3872.73571	0.03318
3871.44994	0.03387
3870.16417	0.03472
3868.87840	0.03549
3867.59263	0.03609
3866.30686	0.03649
3865.02109	0.03658
3863.73532	0.03619
3862.44956	0.03547
3861.16379	0.03488
3859.87802	0.03480
3858.59225	0.03521
3857.30648	0.03579
3856.02071	0.03630
3854.73494	0.03667
3853.44917	0.03691
3852.16341	0.03703
3850.87764	0.03711
3849.59187	0.03725
3848.30610	0.03745
3847.02033	0.03758
3845.73456	0.03756
3844.44879	0.03749
3843.16302	0.03745
3841.87725	0.03728
3840.59149	0.03673
3839.30572	0.03579
3838.01995	0.03480
3836.73418	0.03418
3835.44841	0.03414
3834.16264	0.03450
3832.87687	0.03480
3831.59110	0.03463
3830.30534	0.03404
3829.01957	0.03357
3827.73380	0.03366
3826.44803	0.03427
3825.16226	0.03499
3823.87649	0.03553
3822.59072	0.03592
3821.30495	0.03626
3820.01918	0.03652
3818.73342	0.03665
3817.44765	0.03668
3816.16188	0.03663
3814.87611	0.03636
3813.59034	0.03568
3812.30457	0.03462
3811.01880	0.03350
3809.73303	0.03266
3808.44726	0.03219
3807.16150	0.03201
3805.87573	0.03198
3804.58996	0.03212
3803.30419	0.03246
3802.01842	0.03297
3800.73265	0.03361
3799.44688	0.03430
3798.16111	0.03494
3796.87535	0.03535
3795.58958	0.03539
3794.30381	0.03514
3793.01804	0.03489
3791.73227	0.03484
3790.44650	0.03490
3789.16073	0.03479
3787.87496	0.03441
3786.58919	0.03389
3785.30343	0.03346
3784.01766	0.03335
3782.73189	0.03374
3781.44612	0.03455
3780.16035	0.03539
3778.87458	0.03575
3777.58881	0.03544
3776.30304	0.03481
3775.01728	0.03440
3773.73151	0.03443
3772.44574	0.03471
3771.15997	0.03483
3769.87420	0.03463
3768.58843	0.03429
3767.30266	0.03412
3766.01689	0.03418
3764.73112	0.03430
3763.44536	0.03425
3762.15959	0.03404
3760.87382	0.03378
3759.58805	0.03349
3758.30228	0.03310
3757.01651	0.03268
3755.73074	0.03248
3754.44497	0.03272
3753.15921	0.03343
3751.87344	0.03442
3750.58767	0.03530
3749.30190	0.03571
3748.01613	0.03560
3746.73036	0.03523
3745.44459	0.03480
3744.15882	0.03426
3742.87305	0.03352
3741.58729	0.03282
3740.30152	0.03253
3739.01575	0.03267
3737.72998	0.03283
3736.44421	0.03266
3735.15844	0.03233
3733.87267	0.03228
3732.58690	0.03252
3731.30114	0.03260
3730.01537	0.03219
3728.72960	0.03146
3727.44383	0.03095
3726.15806	0.03099
3724.87229	0.03139
3723.58652	0.03162
3722.30075	0.03117
3721.01498	0.03010
3719.72922	0.02919
3718.44345	0.02918
3717.15768	0.03011
3715.87191	0.03141
3714.58614	0.03248
3713.30037	0.03303
3712.01460	0.03287
3710.72883	0.03211
3709.44307	0.03121
3708.15730	0.03063
3706.87153	0.03068
3705.58576	0.03126
3704.29999	0.03194
3703.01422	0.03232
3701.72845	0.03222
3700.44268	0.03176
3699.15691	0.03125
3697.87115	0.03100
3696.58538	0.03111
3695.29961	0.03132
3694.01384	0.03132
3692.72807	0.03102
3691.44230	0.03073
3690.15653	0.03081
3688.87076	0.03123
3687.58500	0.03173
3686.29923	0.03216
3685.01346	0.03243
3683.72769	0.03260
3682.44192	0.03270
3681.15615	0.03260
3679.87038	0.03215
3678.58461	0.03153
3677.29884	0.03140
3676.01308	0.03229
3674.72731	0.03389
3673.44154	0.03520
3672.15577	0.03551
3670.87000	0.03498
3669.58423	0.03422
3668.29846	0.03369
3667.01269	0.03349
3665.72693	0.03360
3664.44116	0.03390
3663.15539	0.03420
3661.86962	0.03426
3660.58385	0.03410
3659.29808	0.03404
3658.01231	0.03440
3656.72654	0.03516
3655.44077	0.03593
3654.15501	0.03640
3652.86924	0.03660
3651.58347	0.03675
3650.29770	0.03700
3649.01193	0.03726
3647.72616	0.03727
3646.44039	0.03687
3645.15462	0.03607
3643.86886	0.03500
3642.58309	0.03386
3641.29732	0.03291
3640.01155	0.03249
3638.72578	0.03296
3637.44001	0.03432
3636.15424	0.03617
3634.86847	0.03790
3633.58270	0.03905
3632.29694	0.03956
3631.01117	0.03961
3629.72540	0.03933
3628.43963	0.03885
3627.15386	0.03831
3625.86809	0.03783
3624.58232	0.03749
3623.29655	0.03735
3622.01079	0.03747
3620.72502	0.03791
3619.43925	0.03859
3618.15348	0.03931
3616.86771	0.03988
3615.58194	0.04034
3614.29617	0.04086
3613.01040	0.04149
3611.72463	0.04203
3610.43887	0.04215
3609.15310	0.04173
3607.86733	0.04102
3606.58156	0.04040
3605.29579	0.04018
3604.01002	0.04046
3602.72425	0.04120
3601.43848	0.04211
3600.15272	0.04277
3598.86695	0.04293
3597.58118	0.04267
3596.29541	0.04230
3595.00964	0.04216
3593.72387	0.04232
3592.43810	0.04247
3591.15233	0.04246
3589.86656	0.04239
3588.58080	0.04249
3587.29503	0.04288
3586.00926	0.04326
3584.72349	0.04328
3583.43772	0.04303
3582.15195	0.04294
3580.86618	0.04327
3579.58041	0.04386
3578.29464	0.04446
3577.00888	0.04501
3575.72311	0.04563
3574.43734	0.04628
3573.15157	0.04676
3571.86580	0.04694
3570.58003	0.04693
3569.29426	0.04692
3568.00849	0.04703
3566.72273	0.04722
3565.43696	0.04750
3564.15119	0.04798
3562.86542	0.04871
3561.57965	0.04949
3560.29388	0.05001
3559.00811	0.05016
3557.72234	0.05013
3556.43657	0.05017
3555.15081	0.05034
3553.86504	0.05048
3552.57927	0.05038
3551.29350	0.05007
3550.00773	0.04970
3548.72196	0.04940
3547.43619	0.04922
3546.15042	0.04916
3544.86466	0.04916
3543.57889	0.04912
3542.29312	0.04904
3541.00735	0.04911
3539.72158	0.04964
3538.43581	0.05065
3537.15004	0.05182
3535.86427	0.05271
3534.57850	0.05311
3533.29274	0.05316
3532.00697	0.05314
3530.72120	0.05327
3529.43543	0.05360
3528.14966	0.05393
3526.86389	0.05406
3525.57812	0.05395
3524.29235	0.05383
3523.00659	0.05398
3521.72082	0.05437
3520.43505	0.05459
3519.14928	0.05428
3517.86351	0.05362
3516.57774	0.05324
3515.29197	0.05362
3514.00620	0.05454
3512.72043	0.05536
3511.43467	0.05566
3510.14890	0.05551
3508.86313	0.05529
3507.57736	0.05529
3506.29159	0.05568
3505.00582	0.05640
3503.72005	0.05717
3502.43428	0.05758
3501.14852	0.05748
3499.86275	0.05706
3498.57698	0.05664
3497.29121	0.05641
3496.00544	0.05644
3494.71967	0.05673
3493.43390	0.05721
3492.14813	0.05765
3490.86236	0.05785
3489.57660	0.05776
3488.29083	0.05760
3487.00506	0.05766
3485.71929	0.05806
3484.43352	0.05865
3483.14775	0.05912
3481.86198	0.05925
3480.57621	0.05914
3479.29045	0.05907
3478.00468	0.05918
3476.71891	0.05939
3475.43314	0.05956
3474.14737	0.05964
3472.86160	0.05972
3471.57583	0.06000
3470.29006	0.06063
3469.00429	0.06151
3467.71853	0.06225
3466.43276	0.06243
3465.14699	0.06197
3463.86122	0.06121
3462.57545	0.06058
3461.28968	0.06026
3460.00391	0.06017
3458.71814	0.06016
3457.43238	0.06027
3456.14661	0.06059
3454.86084	0.06107
3453.57507	0.06150
3452.28930	0.06179
3451.00353	0.06201
3449.71776	0.06225
3448.43199	0.06237
3447.14622	0.06223
3445.86046	0.06193
3444.57469	0.06182
3443.28892	0.06214
3442.00315	0.06282
3440.71738	0.06355
3439.43161	0.06402
3438.14584	0.06410
3436.86007	0.06382
3435.57431	0.06338
3434.28854	0.06301
3433.00277	0.06287
3431.71700	0.06298
3430.43123	0.06323
3429.14546	0.06355
3427.85969	0.06396
3426.57392	0.06453
3425.28815	0.06526
3424.00239	0.06600
3422.71662	0.06648
3421.43085	0.06655
3420.14508	0.06632
3418.85931	0.06612
3417.57354	0.06609
3416.28777	0.06612
3415.00200	0.06601
3413.71624	0.06576
3412.43047	0.06555
3411.14470	0.06546
3409.85893	0.06545
3408.57316	0.06554
3407.28739	0.06589
3406.00162	0.06658
3404.71585	0.06734
3403.43008	0.06771
3402.14432	0.06744
3400.85855	0.06677
3399.57278	0.06614
3398.28701	0.06582
3397.00124	0.06581
3395.71547	0.06606
3394.42970	0.06659
3393.14393	0.06730
3391.85817	0.06796
3390.57240	0.06839
3389.28663	0.06859
3388.00086	0.06865
3386.71509	0.06866
3385.42932	0.06859
3384.14355	0.06836
3382.85778	0.06791
3381.57201	0.06735
3380.28625	0.06695
3379.00048	0.06695
3377.71471	0.06730
3376.42894	0.06774
3375.14317	0.06800
3373.85740	0.06805
3372.57163	0.06800
3371.28586	0.06790
3370.00010	0.06778
3368.71433	0.06771
3367.42856	0.06780
3366.14279	0.06801
3364.85702	0.06818
3363.57125	0.06822
3362.28548	0.06820
3360.99971	0.06813
3359.71394	0.06800
3358.42818	0.06780
3357.14241	0.06765
3355.85664	0.06772
3354.57087	0.06807
3353.28510	0.06864
3351.99933	0.06922
3350.71356	0.06962
3349.42779	0.06974
3348.14202	0.06963
3346.85626	0.06935
3345.57049	0.06892
3344.28472	0.06849
3342.99895	0.06824
3341.71318	0.06824
3340.42741	0.06836
3339.14164	0.06837
3337.85587	0.06823
3336.57011	0.06811
3335.28434	0.06817
3333.99857	0.06844
3332.71280	0.06880
3331.42703	0.06906
3330.14126	0.06911
3328.85549	0.06902
3327.56972	0.06894
3326.28395	0.06905
3324.99819	0.06941
3323.71242	0.06996
3322.42665	0.07048
3321.14088	0.07077
3319.85511	0.07076
3318.56934	0.07056
3317.28357	0.07021
3315.99780	0.06966
3314.71204	0.06894
3313.42627	0.06823
3312.14050	0.06780
3310.85473	0.06774
3309.56896	0.06789
3308.28319	0.06800
3306.99742	0.06796
3305.71165	0.06782
3304.42588	0.06765
3303.14012	0.06737
3301.85435	0.06695
3300.56858	0.06654
3299.28281	0.06638
3297.99704	0.06653
3296.71127	0.06679
3295.42550	0.06702
3294.13973	0.06725
3292.85397	0.06761
3291.56820	0.06815
3290.28243	0.06872
3288.99666	0.06906
3287.71089	0.06895
3286.42512	0.06853
3285.13935	0.06817
3283.85358	0.06818
3282.56781	0.06847
3281.28205	0.06870
3279.99628	0.06864
3278.71051	0.06826
3277.42474	0.06771
3276.13897	0.06723
3274.85320	0.06696
3273.56743	0.06692
3272.28166	0.06699
3270.99590	0.06707
3269.71013	0.06712
3268.42436	0.06713
3267.13859	0.06706
3265.85282	0.06692
3264.56705	0.06684
3263.28128	0.06692
3261.99551	0.06716
3260.70974	0.06744
3259.42398	0.06770
3258.13821	0.06801
3256.85244	0.06835
3255.56667	0.06854
3254.28090	0.06836
3252.99513	0.06782
3251.70936	0.06715
3250.42359	0.06661
3249.13783	0.06633
3247.85206	0.06627
3246.56629	0.06631
3245.28052	0.06633
3243.99475	0.06627
3242.70898	0.06616
3241.42321	0.06604
3240.13744	0.06591
3238.85167	0.06579
3237.56591	0.06577
3236.28014	0.06589
3234.99437	0.06610
3233.70860	0.06621
3232.42283	0.06611
3231.13706	0.06581
3229.85129	0.06548
3228.56552	0.06526
3227.27976	0.06521
3225.99399	0.06531
3224.70822	0.06548
3223.42245	0.06557
3222.13668	0.06550
3220.85091	0.06525
3219.56514	0.06493
3218.27937	0.06468
3216.99360	0.06454
3215.70784	0.06451
3214.42207	0.06456
3213.13630	0.06464
3211.85053	0.06473
3210.56476	0.06478
3209.27899	0.06474
3207.99322	0.06459
3206.70745	0.06436
3205.42169	0.06422
3204.13592	0.06429
3202.85015	0.06450
3201.56438	0.06468
3200.27861	0.06470
3198.99284	0.06461
3197.70707	0.06452
3196.42130	0.06451
3195.13553	0.06459
3193.84977	0.06472
3192.56400	0.06483
3191.27823	0.06483
3189.99246	0.06461
3188.70669	0.06414
3187.42092	0.06346
3186.13515	0.06277
3184.84938	0.06232
3183.56362	0.06227
3182.27785	0.06268
3180.99208	0.06336
3179.70631	0.06400
3178.42054	0.06427
3177.13477	0.06408
3175.84900	0.06362
3174.56323	0.06317
3173.27746	0.06293
3171.99170	0.06292
3170.70593	0.06306
3169.42016	0.06324
3168.13439	0.06331
3166.84862	0.06323
3165.56285	0.06302
3164.27708	0.06273
3162.99131	0.06237
3161.70555	0.06197
3160.41978	0.06162
3159.13401	0.06141
3157.84824	0.06126
3156.56247	0.06106
3155.27670	0.06081
3153.99093	0.06066
3152.70516	0.06069
3151.41939	0.06083
3150.13363	0.06097
3148.84786	0.06106
3147.56209	0.06110
3146.27632	0.06103
3144.99055	0.06087
3143.70478	0.06071
3142.41901	0.06064
3141.13324	0.06064
3139.84748	0.06060
3138.56171	0.06041
3137.27594	0.06011
3135.99017	0.05981
3134.70440	0.05967
3133.41863	0.05969
3132.13286	0.05975
3130.84709	0.05967
3129.56132	0.05947
3128.27556	0.05936
3126.98979	0.05949
3125.70402	0.05977
3124.41825	0.05994
3123.13248	0.05986
3121.84671	0.05960
3120.56094	0.05930
3119.27517	0.05906
3117.98940	0.05896
3116.70364	0.05902
3115.41787	0.05915
3114.13210	0.05916
3112.84633	0.05896
3111.56056	0.05865
3110.27479	0.05842
3108.98902	0.05835
3107.70325	0.05836
3106.41749	0.05837
3105.13172	0.05835
3103.84595	0.05831
3102.56018	0.05831
3101.27441	0.05838
3099.98864	0.05854
3098.70287	0.05874
3097.41710	0.05883
3096.13133	0.05875
3094.84557	0.05862
3093.55980	0.05854
3092.27403	0.05848
3090.98826	0.05836
3089.70249	0.05819
3088.41672	0.05806
3087.13095	0.05799
3085.84518	0.05787
3084.55942	0.05769
3083.27365	0.05753
3081.98788	0.05751
3080.70211	0.05757
3079.41634	0.05758
3078.13057	0.05745
3076.84480	0.05720
3075.55903	0.05688
3074.27326	0.05660
3072.98750	0.05641
3071.70173	0.05633
3070.41596	0.05630
3069.13019	0.05628
3067.84442	0.05629
3066.55865	0.05631
3065.27288	0.05631
3063.98711	0.05629
3062.70135	0.05629
3061.41558	0.05639
3060.12981	0.05652
3058.84404	0.05660
3057.55827	0.05657
3056.27250	0.05645
3054.98673	0.05628
3053.70096	0.05610
3052.41519	0.05590
3051.12943	0.05567
3049.84366	0.05542
3048.55789	0.05520
3047.27212	0.05509
3045.98635	0.05509
3044.70058	0.05516
3043.41481	0.05515
3042.12904	0.05501
3040.84328	0.05482
3039.55751	0.05466
3038.27174	0.05453
3036.98597	0.05431
3035.70020	0.05397
3034.41443	0.05367
3033.12866	0.05362
3031.84289	0.05393
3030.55712	0.05450
3029.27136	0.05507
3027.98559	0.05531
3026.69982	0.05506
3025.41405	0.05438
3024.12828	0.05355
3022.84251	0.05295
3021.55674	0.05288
3020.27097	0.05335
3018.98521	0.05403
3017.69944	0.05450
3016.41367	0.05458
3015.12790	0.05430
3013.84213	0.05386
3012.55636	0.05346
3011.27059	0.05321
3009.98482	0.05315
3008.69905	0.05322
3007.41329	0.05332
3006.12752	0.05334
3004.84175	0.05323
3003.55598	0.05299
3002.27021	0.05273
3000.98444	0.05255
2999.69867	0.05246
2998.41290	0.05246
2997.12714	0.05245
2995.84137	0.05248
2994.55560	0.05260
2993.26983	0.05278
2991.98406	0.05289
2990.69829	0.05287
2989.41252	0.05279
2988.12675	0.05280
2986.84098	0.05302
2985.55522	0.05340
2984.26945	0.05371
2982.98368	0.05385
2981.69791	0.05394
2980.41214	0.05427
2979.12637	0.05496
2977.84060	0.05586
2976.55483	0.05676
2975.26907	0.05752
2973.98330	0.05810
2972.69753	0.05856
2971.41176	0.05903
2970.12599	0.05962
2968.84022	0.06044
2967.55445	0.06144
2966.26868	0.06251
2964.98291	0.06353
2963.69715	0.06449
2962.41138	0.06545
2961.12561	0.06642
2959.83984	0.06732
2958.55407	0.06812
2957.26830	0.06881
2955.98253	0.06937
2954.69676	0.06974
2953.41100	0.06991
2952.12523	0.06997
2950.83946	0.07008
2949.55369	0.07033
2948.26792	0.07070
2946.98215	0.07101
2945.69638	0.07106
2944.41061	0.07076
2943.12484	0.07029
2941.83908	0.06997
2940.55331	0.07007
2939.26754	0.07060
2937.98177	0.07141
2936.69600	0.07232
2935.41023	0.07316
2934.12446	0.07388
2932.83869	0.07461
2931.55293	0.07550
2930.26716	0.07651
2928.98139	0.07741
2927.69562	0.07811
2926.40985	0.07870
2925.12408	0.07920
2923.83831	0.07949
2922.55254	0.07950
2921.26677	0.07939
2919.98101	0.07930
2918.69524	0.07916
2917.40947	0.07876
2916.12370	0.07798
2914.83793	0.07687
2913.55216	0.07563
2912.26639	0.07450
2910.98062	0.07370
2909.69486	0.07327
2908.40909	0.07302
2907.12332	0.07273
2905.83755	0.07232
2904.55178	0.07178
2903.26601	0.07117
2901.98024	0.07053
2900.69447	0.06985
2899.40870	0.06910
2898.12294	0.06835
2896.83717	0.06774
2895.55140	0.06737
2894.26563	0.06705
2892.97986	0.06650
2891.69409	0.06564
2890.40832	0.06470
2889.12255	0.06397
2887.83678	0.06358
2886.55102	0.06339
2885.26525	0.06318
2883.97948	0.06281
2882.69371	0.06239
2881.40794	0.06213
2880.12217	0.06220
2878.83640	0.06257
2877.55063	0.06313
2876.26487	0.06366
2874.97910	0.06404
2873.69333	0.06423
2872.40756	0.06434
2871.12179	0.06448
2869.83602	0.06471
2868.55025	0.06497
2867.26448	0.06515
2865.97871	0.06527
2864.69295	0.06542
2863.40718	0.06565
2862.12141	0.06590
2860.83564	0.06604
2859.54987	0.06604
2858.26410	0.06598
2856.97833	0.06591
2855.69256	0.06578
2854.40680	0.06557
2853.12103	0.06529
2851.83526	0.06497
2850.54949	0.06458
2849.26372	0.06403
2847.97795	0.06331
2846.69218	0.06249
2845.40641	0.06161
2844.12064	0.06070
2842.83488	0.05985
2841.54911	0.05915
2840.26334	0.05860
2838.97757	0.05803
2837.69180	0.05734
2836.40603	0.05657
2835.12026	0.05586
2833.83449	0.05519
2832.54873	0.05442
2831.26296	0.05351
2829.97719	0.05268
2828.69142	0.05212
2827.40565	0.05180
2826.11988	0.05154
2824.83411	0.05125
2823.54834	0.05103
2822.26257	0.05100
2820.97681	0.05107
2819.69104	0.05103
2818.40527	0.05071
2817.11950	0.05018
2815.83373	0.04965
2814.54796	0.04926
2813.26219	0.04904
2811.97642	0.04890
2810.69066	0.04880
2809.40489	0.04870
2808.11912	0.04862
2806.83335	0.04858
2805.54758	0.04862
2804.26181	0.04871
2802.97604	0.04871
2801.69027	0.04858
2800.40450	0.04839
2799.11874	0.04825
2797.83297	0.04821
2796.54720	0.04817
2795.26143	0.04804
2793.97566	0.04779
2792.68989	0.04750
2791.40412	0.04726
2790.11835	0.04710
2788.83259	0.04700
2787.54682	0.04690
2786.26105	0.04673
2784.97528	0.04654
2783.68951	0.04642
2782.40374	0.04642
2781.11797	0.04648
2779.83220	0.04644
2778.54643	0.04626
2777.26067	0.04600
2775.97490	0.04578
2774.68913	0.04568
2773.40336	0.04569
2772.11759	0.04570
2770.83182	0.04558
2769.54605	0.04530
2768.26028	0.04499
2766.97452	0.04486
2765.68875	0.04505
2764.40298	0.04543
2763.11721	0.04571
2761.83144	0.04564
2760.54567	0.04531
2759.25990	0.04503
2757.97413	0.04505
2756.68836	0.04528
2755.40260	0.04543
2754.11683	0.04532
2752.83106	0.04497
2751.54529	0.04454
2750.25952	0.04421
2748.97375	0.04407
2747.68798	0.04410
2746.40221	0.04419
2745.11645	0.04423
2743.83068	0.04421
2742.54491	0.04414
2741.25914	0.04403
2739.97337	0.04390
2738.68760	0.04388
2737.40183	0.04401
2736.11606	0.04421
2734.83029	0.04435
2733.54453	0.04436
2732.25876	0.04430
2730.97299	0.04419
2729.68722	0.04407
2728.40145	0.04397
2727.11568	0.04390
2725.82991	0.04378
2724.54414	0.04351
2723.25838	0.04310
2721.97261	0.04275
2720.68684	0.04264
2719.40107	0.04279
2718.11530	0.04308
2716.82953	0.04333
2715.54376	0.04350
2714.25799	0.04356
2712.97222	0.04349
2711.68646	0.04323
2710.40069	0.04290
2709.11492	0.04266
2707.82915	0.04262
2706.54338	0.04275
2705.25761	0.04292
2703.97184	0.04297
2702.68607	0.04279
2701.40031	0.04236
2700.11454	0.04186
2698.82877	0.04154
2697.54300	0.04154
2696.25723	0.04180
2694.97146	0.04210
2693.68569	0.04222
2692.39992	0.04217
2691.11415	0.04208
2689.82839	0.04208
2688.54262	0.04214
2687.25685	0.04217
2685.97108	0.04208
2684.68531	0.04186
2683.39954	0.04155
2682.11377	0.04129
2680.82800	0.04117
2679.54224	0.04116
2678.25647	0.04112
2676.97070	0.04101
2675.68493	0.04090
2674.39916	0.04089
2673.11339	0.04097
2671.82762	0.04107
2670.54185	0.04114
2669.25608	0.04119
2667.97032	0.04126
2666.68455	0.04133
2665.39878	0.04135
2664.11301	0.04134
2662.82724	0.04134
2661.54147	0.04142
2660.25570	0.04158
2658.96993	0.04170
2657.68417	0.04167
2656.39840	0.04145
2655.11263	0.04110
2653.82686	0.04071
2652.54109	0.04039
2651.25532	0.04019
2649.96955	0.04006
2648.68378	0.03992
2647.39801	0.03975
2646.11225	0.03961
2644.82648	0.03947
2643.54071	0.03925
2642.25494	0.03888
2640.96917	0.03853
2639.68340	0.03838
2638.39763	0.03842
2637.11186	0.03848
2635.82609	0.03841
2634.54033	0.03823
2633.25456	0.03800
2631.96879	0.03774
2630.68302	0.03747
2629.39725	0.03726
2628.11148	0.03717
2626.82571	0.03720
2625.53994	0.03723
2624.25418	0.03715
2622.96841	0.03692
2621.68264	0.03662
2620.39687	0.03643
2619.11110	0.03642
2617.82533	0.03650
2616.53956	0.03649
2615.25379	0.03637
2613.96802	0.03627
2612.68226	0.03629
2611.39649	0.03633
2610.11072	0.03621
2608.82495	0.03589
2607.53918	0.03545
2606.25341	0.03507
2604.96764	0.03482
2603.68187	0.03468
2602.39611	0.03456
2601.11034	0.03439
2599.82457	0.03425
2598.53880	0.03423
2597.25303	0.03432
2595.96726	0.03442
2594.68149	0.03443
2593.39572	0.03436
2592.10995	0.03424
2590.82419	0.03415
2589.53842	0.03412
2588.25265	0.03416
2586.96688	0.03421
2585.68111	0.03418
2584.39534	0.03410
2583.10957	0.03404
2581.82380	0.03405
2580.53804	0.03408
2579.25227	0.03403
2577.96650	0.03386
2576.68073	0.03364
2575.39496	0.03344
2574.10919	0.03331
2572.82342	0.03317
2571.53765	0.03291
2570.25188	0.03250
2568.96612	0.03209
2567.68035	0.03187
2566.39458	0.03191
2565.10881	0.03205
2563.82304	0.03215
2562.53727	0.03227
2561.25150	0.03251
2559.96573	0.03276
2558.67997	0.03279
2557.39420	0.03254
2556.10843	0.03224
2554.82266	0.03215
2553.53689	0.03222
2552.25112	0.03226
2550.96535	0.03215
2549.67958	0.03196
2548.39381	0.03181
2547.10805	0.03172
2545.82228	0.03169
2544.53651	0.03172
2543.25074	0.03179
2541.96497	0.03178
2540.67920	0.03163
2539.39343	0.03133
2538.10766	0.03097
2536.82190	0.03066
2535.53613	0.03048
2534.25036	0.03045
2532.96459	0.03058
2531.67882	0.03079
2530.39305	0.03096
2529.10728	0.03098
2527.82151	0.03090
2526.53574	0.03086
2525.24998	0.03093
2523.96421	0.03107
2522.67844	0.03115
2521.39267	0.03106
2520.10690	0.03080
2518.82113	0.03050
2517.53536	0.03039
2516.24959	0.03054
2514.96383	0.03078
2513.67806	0.03087
2512.39229	0.03072
2511.10652	0.03044
2509.82075	0.03024
2508.53498	0.03023
2507.24921	0.03043
2505.96344	0.03072
2504.67767	0.03102
2503.39191	0.03119
2502.10614	0.03105
2500.82037	0.03057
2499.53460	0.03002
2498.24883	0.02976
2496.96306	0.02982
2495.67729	0.02995
2494.39152	0.02997
2493.10576	0.02995
2491.81999	0.03000
2490.53422	0.03008
2489.24845	0.03011
2487.96268	0.03014
2486.67691	0.03022
2485.39114	0.03032
2484.10537	0.03036
2482.81960	0.03035
2481.53384	0.03036
2480.24807	0.03046
2478.96230	0.03066
2477.67653	0.03085
2476.39076	0.03086
2475.10499	0.03060
2473.81922	0.03028
2472.53345	0.03023
2471.24769	0.03051
2469.96192	0.03082
2468.67615	0.03086
2467.39038	0.03061
2466.10461	0.03030
2464.81884	0.03010
2463.53307	0.03000
2462.24730	0.02994
2460.96153	0.02986
2459.67577	0.02985
2458.39000	0.03001
2457.10423	0.03034
2455.81846	0.03064
2454.53269	0.03066
2453.24692	0.03036
2451.96115	0.02996
2450.67538	0.02973
2449.38962	0.02969
2448.10385	0.02958
2446.81808	0.02925
2445.53231	0.02879
2444.24654	0.02847
2442.96077	0.02839
2441.67500	0.02850
2440.38923	0.02868
2439.10346	0.02889
2437.81770	0.02903
2436.53193	0.02897
2435.24616	0.02872
2433.96039	0.02852
2432.67462	0.02859
2431.38885	0.02884
2430.10308	0.02897
2428.81731	0.02885
2427.53155	0.02857
2426.24578	0.02829
2424.96001	0.02811
2423.67424	0.02807
2422.38847	0.02815
2421.10270	0.02831
2419.81693	0.02849
2418.53116	0.02865
2417.24539	0.02872
2415.95963	0.02860
2414.67386	0.02829
2413.38809	0.02802
2412.10232	0.02803
2410.81655	0.02833
2409.53078	0.02870
2408.24501	0.02889
2406.95924	0.02888
2405.67347	0.02876
2404.38771	0.02862
2403.10194	0.02845
2401.81617	0.02820
2400.53040	0.02795
2399.24463	0.02822
2397.95886	0.02852
2396.67309	0.02869
2395.38732	0.02876
2394.10156	0.02873
2392.81579	0.02859
2391.53002	0.02838
2390.24425	0.02816
2388.95848	0.02801
2387.67271	0.02793
2386.38694	0.02787
2385.10117	0.02771
2383.81540	0.02740
2382.52964	0.02697
2381.24387	0.02651
2379.95810	0.02621
2378.67233	0.02614
2377.38656	0.02624
2376.10079	0.02659
2374.81502	0.02693
2373.52925	0.02680
2372.24349	0.02601
2370.95772	0.02458
2369.67195	0.02321
2368.38618	0.02221
2367.10041	0.02130
2365.81464	0.02052
2364.52887	0.02023
2363.24310	0.02014
2361.95733	0.01992
2360.67157	0.01999
2359.38580	0.02101
2358.10003	0.02252
2356.81426	0.02375
2355.52849	0.02442
2354.24272	0.02455
2352.95695	0.02437
2351.67118	0.02366
2350.38542	0.02221
2349.09965	0.02134
2347.81388	0.02232
2346.52811	0.02398
2345.24234	0.02443
2343.95657	0.02380
2342.67080	0.02343
2341.38503	0.02366
2340.09926	0.02408
2338.81350	0.02452
2337.52773	0.02466
2336.24196	0.02459
2334.95619	0.02426
2333.67042	0.02379
2332.38465	0.02380
2331.09888	0.02418
2329.81311	0.02464
2328.52735	0.02523
2327.24158	0.02560
2325.95581	0.02572
2324.67004	0.02599
2323.38427	0.02630
2322.09850	0.02646
2320.81273	0.02646
2319.52696	0.02605
2318.24119	0.02537
2316.95543	0.02495
2315.66966	0.02503
2314.38389	0.02541
2313.09812	0.02577
2311.81235	0.02604
2310.52658	0.02631
2309.24081	0.02654
2307.95504	0.02670
2306.66928	0.02672
2305.38351	0.02658
2304.09774	0.02646
2302.81197	0.02649
2301.52620	0.02657
2300.24043	0.02648
2298.95466	0.02621
2297.66889	0.02589
2296.38312	0.02566
2295.09736	0.02556
2293.81159	0.02554
2292.52582	0.02560
2291.24005	0.02575
2289.95428	0.02591
2288.66851	0.02597
2287.38274	0.02585
2286.09697	0.02563
2284.81121	0.02539
2283.52544	0.02515
2282.23967	0.02485
2280.95390	0.02449
2279.66813	0.02415
2278.38236	0.02398
2277.09659	0.02406
2275.81082	0.02426
2274.52505	0.02435
2273.23929	0.02417
2271.95352	0.02366
2270.66775	0.02298
2269.38198	0.02237
2268.09621	0.02200
2266.81044	0.02183
2265.52467	0.02173
2264.23890	0.02169
2262.95314	0.02181
2261.66737	0.02217
2260.38160	0.02266
2259.09583	0.02305
2257.81006	0.02317
2256.52429	0.02300
2255.23852	0.02266
2253.95275	0.02234
2252.66698	0.02219
2251.38122	0.02222
2250.09545	0.02228
2248.80968	0.02209
2247.52391	0.02125
2246.23814	0.02035
2244.95237	0.01988
2243.66660	0.01995
2242.38083	0.02040
2241.09507	0.02088
2239.80930	0.02115
2238.52353	0.02114
2237.23776	0.02101
2235.95199	0.02092
2234.66622	0.02079
2233.38045	0.02049
2232.09468	0.02011
2230.80891	0.01991
2229.52315	0.01982
2228.23738	0.01949
2226.95161	0.01878
2225.66584	0.01812
2224.38007	0.01795
2223.09430	0.01806
2221.80853	0.01780
2220.52276	0.01706
2219.23700	0.01652
2217.95123	0.01686
2216.66546	0.01787
2215.37969	0.01865
2214.09392	0.01851
2212.80815	0.01756
2211.52238	0.01657
2210.23661	0.01621
2208.95084	0.01651
2207.66508	0.01700
2206.37931	0.01725
2205.09354	0.01716
2203.80777	0.01681
2202.52200	0.01615
2201.23623	0.01519
2199.95046	0.01426
2198.66469	0.01377
2197.37893	0.01391
2196.09316	0.01455
2194.80739	0.01547
2193.52162	0.01647
2192.23585	0.01731
2190.95008	0.01754
2189.66431	0.01673
2188.37854	0.01493
2187.09277	0.01292
2185.80701	0.01166
2184.52124	0.01149
2183.23547	0.01198
2181.94970	0.01270
2180.66393	0.01356
2179.37816	0.01442
2178.09239	0.01470
2176.80662	0.01389
2175.52085	0.01227
2174.23509	0.01081
2172.94932	0.01019
2171.66355	0.01027
2170.37778	0.01048
2169.09201	0.01043
2167.80624	0.01023
2166.52047	0.01021
2165.23470	0.01057
2163.94894	0.01104
2162.66317	0.01094
2161.37740	0.00981
2160.09163	0.00808
2158.80586	0.00682
2157.52009	0.00662
2156.23432	0.00703
2154.94855	0.00744
2153.66278	0.00787
2152.37702	0.00876
2151.09125	0.01025
2149.80548	0.01202
2148.51971	0.01350
2147.23394	0.01421
2145.94817	0.01397
2144.66240	0.01311
2143.37663	0.01236
2142.09087	0.01238
2140.80510	0.01331
2139.51933	0.01461
2138.23356	0.01557
2136.94779	0.01581
2135.66202	0.01554
2134.37625	0.01513
2133.09048	0.01473
2131.80471	0.01437
2130.51895	0.01419
2129.23318	0.01428
2127.94741	0.01449
2126.66164	0.01451
2125.37587	0.01426
2124.09010	0.01396
2122.80433	0.01389
2121.51856	0.01412
2120.23280	0.01453
2118.94703	0.01496
2117.66126	0.01528
2116.37549	0.01556
2115.08972	0.01605
2113.80395	0.01680
2112.51818	0.01751
2111.23241	0.01774
2109.94664	0.01743
2108.66088	0.01693
2107.37511	0.01669
2106.08934	0.01687
2104.80357	0.01729
2103.51780	0.01757
2102.23203	0.01741
2100.94626	0.01681
2099.66049	0.01652
2098.37473	0.01584
2097.08896	0.01500
2095.80319	0.01452
2094.51742	0.01469
2093.23165	0.01542
2091.94588	0.01621
2090.66011	0.01658
2089.37434	0.01643
2088.08857	0.01603
2086.80281	0.01570
2085.51704	0.01558
2084.23127	0.01555
2082.94550	0.01545
2081.65973	0.01528
2080.37396	0.01511
2079.08819	0.01493
2077.80242	0.01456
2076.51666	0.01391
2075.23089	0.01318
2073.94512	0.01277
2072.65935	0.01290
2071.37358	0.01342
2070.08781	0.01402
2068.80204	0.01441
2067.51627	0.01442
2066.23050	0.01404
2064.94474	0.01336
2063.65897	0.01265
2062.37320	0.01224
2061.08743	0.01230
2059.80166	0.01271
2058.51589	0.01303
2057.23012	0.01289
2055.94435	0.01235
2054.65859	0.01189
2053.37282	0.01197
2052.08705	0.01266
2050.80128	0.01358
2049.51551	0.01416
2048.22974	0.01396
2046.94397	0.01285
2045.65820	0.01122
2044.37243	0.00975
2043.08667	0.00889
2041.80090	0.00848
2040.51513	0.00818
2039.22936	0.00794
2037.94359	0.00804
2036.65782	0.00872
2035.37205	0.00989
2034.08628	0.01124
2032.80052	0.01219
2031.51475	0.01221
2030.22898	0.01116
2028.94321	0.00950
2027.65744	0.00803
2026.37167	0.00736
2025.08590	0.00758
2023.80013	0.00837
2022.51436	0.00923
2021.22860	0.00982
2019.94283	0.01003
2018.65706	0.00996
2017.37129	0.00975
2016.08552	0.00944
2014.79975	0.00895
2013.51398	0.00823
2012.22821	0.00748
2010.94245	0.00704
2009.65668	0.00701
2008.37091	0.00712
2007.08514	0.00712
2005.79937	0.00704
2004.51360	0.00711
2003.22783	0.00742
2001.94206	0.00793
2000.65629	0.00864
1999.37053	0.00959
1998.08476	0.01071
1996.79899	0.01176
1995.51322	0.01245
1994.22745	0.01270
1992.94168	0.01265
1991.65591	0.01252
1990.37014	0.01239
1989.08438	0.01230
1987.79861	0.01233
1986.51284	0.01248
1985.22707	0.01267
1983.94130	0.01283
1982.65553	0.01296
1981.36976	0.01306
1980.08399	0.01306
1978.79822	0.01279
1977.51246	0.01216
1976.22669	0.01137
1974.94092	0.01084
1973.65515	0.01087
1972.36938	0.01143
1971.08361	0.01214
1969.79784	0.01258
1968.51207	0.01253
1967.22631	0.01210
1965.94054	0.01163
1964.65477	0.01142
1963.36900	0.01155
1962.08323	0.01190
1960.79746	0.01237
1959.51169	0.01293
1958.22592	0.01360
1956.94015	0.01430
1955.65439	0.01488
1954.36862	0.01519
1953.08285	0.01518
1951.79708	0.01497
1950.51131	0.01477
1949.22554	0.01465
1947.93977	0.01448
1946.65400	0.01415
1945.36823	0.01381
1944.08247	0.01374
1942.79670	0.01410
1941.51093	0.01470
1940.22516	0.01523
1938.93939	0.01555
1937.65362	0.01576
1936.36785	0.01597
1935.08208	0.01614
1933.79632	0.01617
1932.51055	0.01599
1931.22478	0.01568
1929.93901	0.01541
1928.65324	0.01533
1927.36747	0.01540
1926.08170	0.01542
1924.79593	0.01524
1923.51016	0.01491
1922.22440	0.01465
1920.93863	0.01466
1919.65286	0.01498
1918.36709	0.01546
1917.08132	0.01585
1915.79555	0.01601
1914.50978	0.01596
1913.22401	0.01584
1911.93825	0.01569
1910.65248	0.01546
1909.36671	0.01519
1908.08094	0.01507
1906.79517	0.01524
1905.50940	0.01561
1904.22363	0.01596
1902.93786	0.01616
1901.65209	0.01626
1900.36633	0.01632
1899.08056	0.01636
1897.79479	0.01638
1896.50902	0.01643
1895.22325	0.01658
1893.93748	0.01681
1892.65171	0.01706
1891.36594	0.01724
1890.08018	0.01736
1888.79441	0.01740
1887.50864	0.01733
1886.22287	0.01713
1884.93710	0.01688
1883.65133	0.01666
1882.36556	0.01650
1881.07979	0.01633
1879.79402	0.01615
1878.50826	0.01604
1877.22249	0.01611
1875.93672	0.01639
1874.65095	0.01677
1873.36518	0.01713
1872.07941	0.01738
1870.79364	0.01749
1869.50787	0.01743
1868.22211	0.01719
1866.93634	0.01685
1865.65057	0.01654
1864.36480	0.01641
1863.07903	0.01652
1861.79326	0.01679
1860.50749	0.01708
1859.22172	0.01727
1857.93595	0.01731
1856.65019	0.01723
1855.36442	0.01707
1854.07865	0.01687
1852.79288	0.01668
1851.50711	0.01654
1850.22134	0.01645
1848.93557	0.01645
1847.64980	0.01660
1846.36404	0.01688
1845.07827	0.01715
1843.79250	0.01728
1842.50673	0.01726
1841.22096	0.01722
1839.93519	0.01727
1838.64942	0.01738
1837.36365	0.01744
1836.07788	0.01740
1834.79212	0.01726
1833.50635	0.01713
1832.22058	0.01704
1830.93481	0.01699
1829.64904	0.01695
1828.36327	0.01693
1827.07750	0.01696
1825.79173	0.01707
1824.50597	0.01728
1823.22020	0.01757
1821.93443	0.01782
1820.64866	0.01784
1819.36289	0.01756
1818.07712	0.01708
1816.79135	0.01670
1815.50558	0.01660
1814.21981	0.01680
1812.93405	0.01716
1811.64828	0.01748
1810.36251	0.01768
1809.07674	0.01781
1807.79097	0.01791
1806.50520	0.01799
1805.21943	0.01803
1803.93366	0.01802
1802.64790	0.01803
1801.36213	0.01806
1800.07636	0.01812
1798.79059	0.01818
1797.50482	0.01827
1796.21905	0.01843
1794.93328	0.01865
1793.64751	0.01886
1792.36174	0.01894
1791.07598	0.01886
1789.79021	0.01866
1788.50444	0.01845
1787.21867	0.01828
1785.93290	0.01816
1784.64713	0.01810
1783.36136	0.01811
1782.07559	0.01819
1780.78983	0.01830
1779.50406	0.01840
1778.21829	0.01847
1776.93252	0.01857
1775.64675	0.01873
1774.36098	0.01891
1773.07521	0.01903
1771.78944	0.01903
1770.50367	0.01896
1769.21791	0.01890
1767.93214	0.01885
1766.64637	0.01882
1765.36060	0.01882
1764.07483	0.01887
1762.78906	0.01894
1761.50329	0.01900
1760.21752	0.01902
1758.93176	0.01901
1757.64599	0.01900
1756.36022	0.01902
1755.07445	0.01911
1753.78868	0.01928
1752.50291	0.01944
1751.21714	0.01947
1749.93137	0.01937
1748.64560	0.01919
1747.35984	0.01903
1746.07407	0.01894
1744.78830	0.01891
1743.50253	0.01895
1742.21676	0.01907
1740.93099	0.01923
1739.64522	0.01938
1738.35945	0.01955
1737.07369	0.01979
1735.78792	0.02013
1734.50215	0.02046
1733.21638	0.02060
1731.93061	0.02052
1730.64484	0.02032
1729.35907	0.02014
1728.07330	0.02005
1726.78753	0.02007
1725.50177	0.02019
1724.21600	0.02039
1722.93023	0.02063
1721.64446	0.02093
1720.35869	0.02133
1719.07292	0.02181
1717.78715	0.02224
1716.50138	0.02251
1715.21561	0.02261
1713.92985	0.02264
1712.64408	0.02269
1711.35831	0.02283
1710.07254	0.02308
1708.78677	0.02344
1707.50100	0.02387
1706.21523	0.02433
1704.92946	0.02483
1703.64370	0.02541
1702.35793	0.02604
1701.07216	0.02662
1699.78639	0.02702
1698.50062	0.02722
1697.21485	0.02730
1695.92908	0.02729
1694.64331	0.02720
1693.35754	0.02711
1692.07178	0.02711
1690.78601	0.02728
1689.50024	0.02760
1688.21447	0.02807
1686.92870	0.02863
1685.64293	0.02918
1684.35716	0.02950
1683.07139	0.02954
1681.78563	0.02941
1680.49986	0.02935
1679.21409	0.02951
1677.92832	0.02987
1676.64255	0.03033
1675.35678	0.03075
1674.07101	0.03108
1672.78524	0.03137
1671.49947	0.03168
1670.21371	0.03197
1668.92794	0.03223
1667.64217	0.03243
1666.35640	0.03263
1665.07063	0.03285
1663.78486	0.03305
1662.49909	0.03323
1661.21332	0.03337
1659.92756	0.03355
1658.64179	0.03384
1657.35602	0.03429
1656.07025	0.03492
1654.78448	0.03558
1653.49871	0.03602
1652.21294	0.03606
1650.92717	0.03582
1649.64140	0.03561
1648.35564	0.03559
1647.06987	0.03564
1645.78410	0.03559
1644.49833	0.03539
1643.21256	0.03516
1641.92679	0.03504
1640.64102	0.03507
1639.35525	0.03524
1638.06949	0.03550
1636.78372	0.03573
1635.49795	0.03581
1634.21218	0.03568
1632.92641	0.03544
1631.64064	0.03525
1630.35487	0.03519
1629.06910	0.03524
1627.78333	0.03534
1626.49757	0.03545
1625.21180	0.03559
1623.92603	0.03569
1622.64026	0.03573
1621.35449	0.03573
1620.06872	0.03577
1618.78295	0.03591
1617.49718	0.03608
1616.21142	0.03613
1614.92565	0.03603
1613.63988	0.03587
1612.35411	0.03583
1611.06834	0.03596
1609.78257	0.03621
1608.49680	0.03646
1607.21103	0.03666
1605.92526	0.03682
1604.63950	0.03697
1603.35373	0.03713
1602.06796	0.03729
1600.78219	0.03742
1599.49642	0.03753
1598.21065	0.03761
1596.92488	0.03770
1595.63911	0.03783
1594.35335	0.03800
1593.06758	0.03820
1591.78181	0.03843
1590.49604	0.03865
1589.21027	0.03887
1587.92450	0.03912
1586.63873	0.03939
1585.35296	0.03968
1584.06719	0.03997
1582.78143	0.04025
1581.49566	0.04054
1580.20989	0.04090
1578.92412	0.04133
1577.63835	0.04177
1576.35258	0.04212
1575.06681	0.04232
1573.78104	0.04248
1572.49528	0.04277
1571.20951	0.04322
1569.92374	0.04373
1568.63797	0.04413
1567.35220	0.04441
1566.06643	0.04463
1564.78066	0.04493
1563.49489	0.04542
1562.20912	0.04616
1560.92336	0.04708
1559.63759	0.04792
1558.35182	0.04843
1557.06605	0.04856
1555.78028	0.04852
1554.49451	0.04853
1553.20874	0.04868
1551.92297	0.04891
1550.63721	0.04916
1549.35144	0.04937
1548.06567	0.04956
1546.77990	0.04979
1545.49413	0.05009
1544.20836	0.05047
1542.92259	0.05089
1541.63682	0.05125
1540.35105	0.05143
1539.06529	0.05135
1537.77952	0.05109
1536.49375	0.05086
1535.20798	0.05084
1533.92221	0.05102
1532.63644	0.05130
1531.35067	0.05160
1530.06490	0.05195
1528.77914	0.05244
1527.49337	0.05308
1526.20760	0.05384
1524.92183	0.05468
1523.63606	0.05560
1522.35029	0.05659
1521.06452	0.05757
1519.77875	0.05851
1518.49298	0.05942
1517.20722	0.06037
1515.92145	0.06143
1514.63568	0.06258
1513.34991	0.06382
1512.06414	0.06518
1510.77837	0.06669
1509.49260	0.06838
1508.20683	0.07018
1506.92107	0.07187
1505.63530	0.07324
1504.34953	0.07427
1503.06376	0.07516
1501.77799	0.07615
1500.49222	0.07731
1499.20645	0.07860
1497.92068	0.07987
1496.63491	0.08099
1495.34915	0.08193
1494.06338	0.08275
1492.77761	0.08362
1491.49184	0.08462
1490.20607	0.08571
1488.92030	0.08680
1487.63453	0.08782
1486.34876	0.08883
1485.06299	0.08992
1483.77723	0.09115
1482.49146	0.09253
1481.20569	0.09398
1479.91992	0.09543
1478.63415	0.09684
1477.34838	0.09823
1476.06261	0.09963
1474.77684	0.10101
1473.49108	0.10232
1472.20531	0.10347
1470.91954	0.10440
1469.63377	0.10518
1468.34800	0.10589
1467.06223	0.10659
1465.77646	0.10726
1464.49069	0.10785
1463.20492	0.10838
1461.91916	0.10897
1460.63339	0.10974
1459.34762	0.11076
1458.06185	0.11188
1456.77608	0.11288
1455.49031	0.11361
1454.20454	0.11413
1452.91877	0.11461
1451.63301	0.11518
1450.34724	0.11583
1449.06147	0.11646
1447.77570	0.11696
1446.48993	0.11723
1445.20416	0.11730
1443.91839	0.11725
1442.63262	0.11718
1441.34685	0.11714
1440.06109	0.11716
1438.77532	0.11726
1437.48955	0.11738
1436.20378	0.11749
1434.91801	0.11761
1433.63224	0.11785
1432.34647	0.11831
1431.06070	0.11906
1429.77494	0.12007
1428.48917	0.12127
1427.20340	0.12258
1425.91763	0.12393
1424.63186	0.12531
1423.34609	0.12672
1422.06032	0.12816
1420.77455	0.12961
1419.48878	0.13094
1418.20302	0.13201
1416.91725	0.13277
1415.63148	0.13330
1414.34571	0.13369
1413.05994	0.13393
1411.77417	0.13399
1410.48840	0.13382
1409.20263	0.13340
1407.91687	0.13273
1406.63110	0.13184
1405.34533	0.13075
1404.05956	0.12947
1402.77379	0.12804
1401.48802	0.12646
1400.20225	0.12474
1398.91648	0.12285
1397.63071	0.12082
1396.34495	0.11869
1395.05918	0.11650
1393.77341	0.11427
1392.48764	0.11201
1391.20187	0.10977
1389.91610	0.10760
1388.63033	0.10549
1387.34456	0.10340
1386.05880	0.10132
1384.77303	0.09927
1383.48726	0.09732
1382.20149	0.09551
1380.91572	0.09378
1379.62995	0.09207
1378.34418	0.09028
1377.05841	0.08836
1375.77264	0.08629
1374.48688	0.08409
1373.20111	0.08179
1371.91534	0.07948
1370.62957	0.07727
1369.34380	0.07523
1368.05803	0.07338
1366.77226	0.07166
1365.48649	0.06999
1364.20073	0.06833
1362.91496	0.06664
1361.62919	0.06498
1360.34342	0.06340
1359.05765	0.06196
1357.77188	0.06066
1356.48611	0.05946
1355.20034	0.05832
1353.91457	0.05722
1352.62881	0.05616
1351.34304	0.05514
1350.05727	0.05418
1348.77150	0.05327
1347.48573	0.05241
1346.19996	0.05161
1344.91419	0.05086
1343.62842	0.05013
1342.34266	0.04941
1341.05689	0.04870
1339.77112	0.04806
1338.48535	0.04748
1337.19958	0.04694
1335.91381	0.04639
1334.62804	0.04583
1333.34227	0.04528
1332.05650	0.04475
1330.77074	0.04427
1329.48497	0.04384
1328.19920	0.04346
1326.91343	0.04308
1325.62766	0.04266
1324.34189	0.04219
1323.05612	0.04172
1321.77035	0.04129
1320.48459	0.04093
1319.19882	0.04061
1317.91305	0.04028
1316.62728	0.03992
1315.34151	0.03955
1314.05574	0.03919
1312.76997	0.03887
1311.48420	0.03858
1310.19843	0.03830
1308.91267	0.03801
1307.62690	0.03771
1306.34113	0.03742
1305.05536	0.03714
1303.76959	0.03687
1302.48382	0.03661
1301.19805	0.03636
1299.91228	0.03611
1298.62652	0.03584
1297.34075	0.03556
1296.05498	0.03527
1294.76921	0.03499
1293.48344	0.03473
1292.19767	0.03449
1290.91190	0.03426
1289.62613	0.03406
1288.34036	0.03393
1287.05460	0.03384
1285.76883	0.03372
1284.48306	0.03351
1283.19729	0.03322
1281.91152	0.03292
1280.62575	0.03263
1279.33998	0.03237
1278.05421	0.03215
1276.76845	0.03195
1275.48268	0.03175
1274.19691	0.03153
1272.91114	0.03130
1271.62537	0.03109
1270.33960	0.03094
1269.05383	0.03081
1267.76806	0.03065
1266.48229	0.03045
1265.19653	0.03025
1263.91076	0.03006
1262.62499	0.02990
1261.33922	0.02974
1260.05345	0.02958
1258.76768	0.02942
1257.48191	0.02928
1256.19614	0.02916
1254.91037	0.02905
1253.62461	0.02895
1252.33884	0.02883
1251.05307	0.02870
1249.76730	0.02858
1248.48153	0.02843
1247.19576	0.02825
1245.90999	0.02803
1244.62422	0.02780
1243.33846	0.02762
1242.05269	0.02752
1240.76692	0.02746
1239.48115	0.02737
1238.19538	0.02723
1236.90961	0.02706
1235.62384	0.02691
1234.33807	0.02678
1233.05230	0.02665
1231.76654	0.02650
1230.48077	0.02634
1229.19500	0.02620
1227.90923	0.02609
1226.62346	0.02599
1225.33769	0.02589
1224.05192	0.02581
1222.76615	0.02574
1221.48039	0.02565
1220.19462	0.02551
1218.90885	0.02533
1217.62308	0.02512
1216.33731	0.02492
1215.05154	0.02481
1213.76577	0.02479
1212.48000	0.02485
1211.19423	0.02493
1209.90847	0.02496
1208.62270	0.02493
1207.33693	0.02482
1206.05116	0.02468
1204.76539	0.02454
1203.47962	0.02445
1202.19385	0.02438
1200.90808	0.02430
1199.62232	0.02419
1198.33655	0.02418
1197.05078	0.02419
1195.76501	0.02419
1194.47924	0.02417
1193.19347	0.02414
1191.90770	0.02411
1190.62193	0.02408
1189.33616	0.02401
1188.05040	0.02392
1186.76463	0.02386
1185.47886	0.02386
1184.19309	0.02387
1182.90732	0.02386
1181.62155	0.02382
1180.33578	0.02375
1179.05001	0.02367
1177.76425	0.02362
1176.47848	0.02363
1175.19271	0.02371
1173.90694	0.02383
1172.62117	0.02392
1171.33540	0.02395
1170.04963	0.02395
1168.76386	0.02399
1167.47809	0.02413
1166.19233	0.02431
1164.90656	0.02446
1163.62079	0.02453
1162.33502	0.02456
1161.04925	0.02456
1159.76348	0.02461
1158.47771	0.02473
1157.19194	0.02491
1155.90618	0.02509
1154.62041	0.02523
1153.33464	0.02533
1152.04887	0.02550
1150.76310	0.02579
1149.47733	0.02617
1148.19156	0.02659
1146.90579	0.02698
1145.62002	0.02738
1144.33426	0.02781
1143.04849	0.02827
1141.76272	0.02880
1140.47695	0.02942
1139.19118	0.03017
1137.90541	0.03108
1136.61964	0.03214
1135.33387	0.03331
1134.04811	0.03460
1132.76234	0.03604
1131.47657	0.03768
1130.19080	0.03953
1128.90503	0.04159
1127.61926	0.04385
1126.33349	0.04631
1125.04772	0.04899
1123.76195	0.05189
1122.47619	0.05499
1121.19042	0.05824
1119.90465	0.06159
1118.61888	0.06497
1117.33311	0.06837
1116.04734	0.07178
1114.76157	0.07521
1113.47580	0.07856
1112.19004	0.08175
1110.90427	0.08469
1109.61850	0.08745
1108.33273	0.09010
1107.04696	0.09272
1105.76119	0.09528
1104.47542	0.09774
1103.18965	0.10008
1101.90388	0.10231
1100.61812	0.10445
1099.33235	0.10648
1098.04658	0.10842
1096.76081	0.11027
1095.47504	0.11204
1094.18927	0.11371
1092.90350	0.11527
1091.61773	0.11675
1090.33197	0.11817
1089.04620	0.11953
1087.76043	0.12081
1086.47466	0.12202
1085.18889	0.12325
1083.90312	0.12454
1082.61735	0.12593
1081.33158	0.12745
1080.04581	0.12914
1078.76005	0.13100
1077.47428	0.13301
1076.18851	0.13514
1074.90274	0.13739
1073.61697	0.13977
1072.33120	0.14227
1071.04543	0.14486
1069.75966	0.14747
1068.47390	0.15011
1067.18813	0.15280
1065.90236	0.15562
1064.61659	0.15857
1063.33082	0.16162
1062.04505	0.16470
1060.75928	0.16775
1059.47351	0.17076
1058.18774	0.17372
1056.90198	0.17662
1055.61621	0.17947
1054.33044	0.18231
1053.04467	0.18518
1051.75890	0.18807
1050.47313	0.19095
1049.18736	0.19384
1047.90159	0.19683
1046.61583	0.19998
1045.33006	0.20333
1044.04429	0.20684
1042.75852	0.21041
1041.47275	0.21399
1040.18698	0.21753
1038.90121	0.22107
1037.61544	0.22461
1036.32967	0.22815
1035.04391	0.23163
1033.75814	0.23498
1032.47237	0.23811
1031.18660	0.24093
1029.90083	0.24341
1028.61506	0.24558
1027.32929	0.24746
1026.04352	0.24904
1024.75775	0.25027
1023.47199	0.25110
1022.18622	0.25152
1020.90045	0.25153
1019.61468	0.25111
1018.32891	0.25024
1017.04314	0.24893
1015.75737	0.24721
1014.47160	0.24501
1013.18584	0.24223
1011.90007	0.23880
1010.61430	0.23476
1009.32853	0.23022
1008.04276	0.22529
1006.75699	0.22001
1005.47122	0.21439
1004.18545	0.20837
1002.89968	0.20198
1001.61392	0.19531
1000.32815	0.18847
999.04238	0.18158
997.75661	0.17469
996.47084	0.16781
995.18507	0.16098
993.89930	0.15428
992.61353	0.14783
991.32777	0.14169
990.04200	0.13587
988.75623	0.13036
987.47046	0.12512
986.18469	0.12017
984.89892	0.11547
983.61315	0.11105
982.32738	0.10694
981.04161	0.10315
979.75585	0.09966
978.47008	0.09645
977.18431	0.09353
975.89854	0.09094
974.61277	0.08871
973.32700	0.08680
972.04123	0.08519
970.75546	0.08397
969.46970	0.08330
968.18393	0.08324
966.89816	0.08374
965.61239	0.08463
964.32662	0.08571
963.04085	0.08674
961.75508	0.08747
960.46931	0.08770
959.18354	0.08730
957.89778	0.08625
956.61201	0.08463
955.32624	0.08264
954.04047	0.08049
952.75470	0.07830
951.46893	0.07609
950.18316	0.07391
948.89739	0.07185
947.61163	0.06993
946.32586	0.06815
945.04009	0.06647
943.75432	0.06487
942.46855	0.06332
941.18278	0.06180
939.89701	0.06033
938.61124	0.05895
937.32547	0.05769
936.03971	0.05652
934.75394	0.05544
933.46817	0.05445
932.18240	0.05355
930.89663	0.05270
929.61086	0.05183
928.32509	0.05098
927.03932	0.05020
925.75356	0.04952
924.46779	0.04889
923.18202	0.04826
921.89625	0.04764
920.61048	0.04705
919.32471	0.04651
918.03894	0.04602
916.75317	0.04559
915.46740	0.04523
914.18164	0.04490
912.89587	0.04452
911.61010	0.04405
910.32433	0.04351
909.03856	0.04292
907.75279	0.04233
906.46702	0.04181
905.18125	0.04144
903.89549	0.04120
902.60972	0.04103
901.32395	0.04085
900.03818	0.04067
898.75241	0.04050
897.46664	0.04031
896.18087	0.04006
894.89510	0.03977
893.60933	0.03954
892.32357	0.03951
891.03780	0.03983
889.75203	0.04059
888.46626	0.04183
887.18049	0.04359
885.89472	0.04595
884.60895	0.04906
883.32318	0.05297
882.03742	0.05745
880.75165	0.06196
879.46588	0.06597
878.18011	0.06924
876.89434	0.07194
875.60857	0.07434
874.32280	0.07641
873.03703	0.07770
871.75126	0.07763
870.46550	0.07597
869.17973	0.07299
867.89396	0.06923
866.60819	0.06517
865.32242	0.06114
864.03665	0.05742
862.75088	0.05419
861.46511	0.05154
860.17935	0.04940
858.89358	0.04761
857.60781	0.04609
856.32204	0.04487
855.03627	0.04395
853.75050	0.04324
852.46473	0.04259
851.17896	0.04191
849.89319	0.04125
848.60743	0.04069
847.32166	0.04022
846.03589	0.03981
844.75012	0.03941
843.46435	0.03904
842.17858	0.03873
840.89281	0.03844
839.60704	0.03813
838.32128	0.03779
837.03551	0.03745
835.74974	0.03712
834.46397	0.03683
833.17820	0.03660
831.89243	0.03647
830.60666	0.03641
829.32089	0.03631
828.03512	0.03613
826.74936	0.03590
825.46359	0.03571
824.17782	0.03560
822.89205	0.03553
821.60628	0.03544
820.32051	0.03534
819.03474	0.03525
817.74897	0.03518
816.46321	0.03508
815.17744	0.03493
813.89167	0.03478
812.60590	0.03470
811.32013	0.03468
810.03436	0.03465
808.74859	0.03456
807.46282	0.03444
806.17705	0.03438
804.89129	0.03441
803.60552	0.03446
802.31975	0.03447
801.03398	0.03442
799.74821	0.03432
798.46244	0.03417
797.17667	0.03398
795.89090	0.03378
794.60513	0.03362
793.31937	0.03352
792.03360	0.03343
790.74783	0.03328
789.46206	0.03310
788.17629	0.03299
786.89052	0.03301
785.60475	0.03310
784.31898	0.03315
783.03322	0.03312
781.74745	0.03303
780.46168	0.03289
779.17591	0.03269
777.89014	0.03243
776.60437	0.03220
775.31860	0.03207
774.03283	0.03207
772.74706	0.03215
771.46130	0.03225
770.17553	0.03235
768.88976	0.03241
767.60399	0.03239
766.31822	0.03231
765.03245	0.03218
763.74668	0.03208
762.46091	0.03202
761.17515	0.03204
759.88938	0.03214
758.60361	0.03227
757.31784	0.03239
756.03207	0.03241
754.74630	0.03232
753.46053	0.03218
752.17476	0.03205
750.88899	0.03199
749.60323	0.03200
748.31746	0.03204
747.03169	0.03201
745.74592	0.03191
744.46015	0.03181
743.17438	0.03173
741.88861	0.03164
740.60284	0.03150
739.31708	0.03132
738.03131	0.03117
736.74554	0.03114
735.45977	0.03127
734.17400	0.03151
732.88823	0.03179
731.60246	0.03202
730.31669	0.03222
729.03092	0.03243
727.74516	0.03269
726.45939	0.03293
725.17362	0.03307
723.88785	0.03304
722.60208	0.03315
721.31631	0.03348
720.03054	0.03380
718.74477	0.03395
717.45901	0.03395
716.17324	0.03384
714.88747	0.03366
713.60170	0.03343
712.31593	0.03318
711.03016	0.03288
709.74439	0.03256
708.45862	0.03225
707.17285	0.03196
705.88709	0.03171
704.60132	0.03146
703.31555	0.03121
702.02978	0.03098
700.74401	0.03081
699.45824	0.03073
698.17247	0.03070
696.88670	0.03070
695.60094	0.03068
694.31517	0.03063
693.02940	0.03054
691.74363	0.03045
690.45786	0.03036
689.17209	0.03025
687.88632	0.03014
686.60055	0.03002
685.31478	0.02992
684.02902	0.02984
682.74325	0.02978
681.45748	0.02971
680.17171	0.02962
678.88594	0.02954
677.60017	0.02950
676.31440	0.02952
675.02863	0.02955
673.74287	0.02950
672.45710	0.02932
671.17133	0.02924
669.88556	0.02987
668.59979	0.03103
667.31402	0.03072
666.02825	0.02949
664.74248	0.02907
663.45671	0.02913
662.17095	0.02913
660.88518	0.02903
659.59941	0.02891
658.31364	0.02879
657.02787	0.02869
655.74210	0.02861
654.45633	0.02852
653.17056	0.02843
651.88480	0.02836
650.59903	0.02834
649.31326	0.02836
648.02749	0.02841
646.74172	0.02850
645.45595	0.02866
644.17018	0.02889
642.88441	0.02913
641.59864	0.02937
640.31288	0.02960
639.02711	0.02982
637.74134	0.03007
636.45557	0.03034
635.16980	0.03059
633.88403	0.03083
632.59826	0.03111
631.31249	0.03162
630.02673	0.03250
628.74096	0.03324
627.45519	0.03311
626.16942	0.03444
624.88365	0.03675
623.59788	0.03932
622.31211	0.04213
621.02634	0.04505
619.74057	0.04745
618.45481	0.04883
617.16904	0.04952
615.88327	0.05050
614.59750	0.05262
613.31173	0.05599
612.02596	0.06022
610.74019	0.06491
609.45442	0.06988
608.16866	0.07492
606.88289	0.07973
605.59712	0.08400
604.31135	0.08753
603.02558	0.09008
601.73981	0.09137
600.45404	0.09119
599.16827	0.08962
597.88250	0.08710
596.59674	0.08418
595.31097	0.08124
594.02520	0.07848
592.73943	0.07600
591.45366	0.07397
590.16789	0.07261
588.88212	0.07205
587.59635	0.07221
586.31059	0.07295
585.02482	0.07415
583.73905	0.07576
582.45328	0.07772
581.16751	0.07993
579.88174	0.08224
578.59597	0.08459
577.31020	0.08691
576.02443	0.08915
574.73867	0.09129
573.45290	0.09336
572.16713	0.09545
570.88136	0.09776
569.59559	0.10051
568.30982	0.10384
567.02405	0.10770
565.73828	0.11168
564.45251	0.11513
563.16675	0.11745
561.88098	0.11835
560.59521	0.11771
559.30944	0.11551
558.02367	0.11179
556.73790	0.10683
555.45213	0.10107
554.16636	0.09493
552.88060	0.08879
551.59483	0.08293
550.30906	0.07759
549.02329	0.07291
547.73752	0.06886
546.45175	0.06534
545.16598	0.06220
543.88021	0.05936
542.59444	0.05682
541.30868	0.05460
540.02291	0.05268
538.73714	0.05101
537.45137	0.04952
536.16560	0.04817
534.87983	0.04698
533.59406	0.04592
532.30829	0.04492
531.02253	0.04389
529.73676	0.04283
528.45099	0.04182
527.16522	0.04091
525.87945	0.04008
524.59368	0.03930
523.30791	0.03854
522.02214	0.03783
520.73637	0.03717
519.45061	0.03659
518.16484	0.03608
516.87907	0.03560
515.59330	0.03512
514.30753	0.03461
513.02176	0.03411
511.73599	0.03365
510.45022	0.03324
509.16446	0.03281
507.87869	0.03238
506.59292	0.03199
505.30715	0.03166
504.02138	0.03135
502.73561	0.03099
501.44984	0.03054
500.16407	0.03006
498.87830	0.02965
497.59254	0.02935
496.30677	0.02911
495.02100	0.02891
493.73523	0.02875
492.44946	0.02868
491.16369	0.02865
489.87792	0.02857
488.59215	0.02837
487.30639	0.02808
486.02062	0.02779
484.73485	0.02759
483.44908	0.02758
482.16331	0.02774
480.87754	0.02803
479.59177	0.02835
478.30600	0.02865
477.02023	0.02896
475.73447	0.02928
474.44870	0.02957
473.16293	0.02976
471.87716	0.02982
470.59139	0.02977
469.30562	0.02970
468.01985	0.02965
466.73408	0.02956
465.44832	0.02937
464.16255	0.02904
462.87678	0.02860
461.59101	0.02815
460.30524	0.02777
459.01947	0.02749
457.73370	0.02730
456.44793	0.02711
455.16216	0.02688
453.87640	0.02664
452.59063	0.02642
451.30486	0.02623
450.01909	0.02603
448.73332	0.02577
447.44755	0.02542
446.16178	0.02505
444.87601	0.02474
443.59025	0.02455
442.30448	0.02448
441.01871	0.02448
439.73294	0.02447
438.44717	0.02445
437.16140	0.02440
435.87563	0.02434
434.58986	0.02427
433.30409	0.02421
432.01833	0.02420
430.73256	0.02428
429.44679	0.02438
428.16102	0.02443
426.87525	0.02440
425.58948	0.02433
424.30371	0.02427
423.01794	0.02425
421.73218	0.02424
420.44641	0.02421
419.16064	0.02420
417.87487	0.02422
416.58910	0.02427
415.30333	0.02430
414.01756	0.02428
412.73179	0.02425
411.44602	0.02424
410.16026	0.02430
408.87449	0.02444
407.58872	0.02467
406.30295	0.02494
405.01718	0.02525
403.73141	0.02555
402.44564	0.02583
401.15987	0.02610
399.87411	0.02638
