3997.45528	0.02577
3996.16951	0.02537
3994.88374	0.02482
3993.59798	0.02436
3992.31221	0.02428
3991.02644	0.02461
3989.74067	0.02501
3988.45490	0.02525
3987.16913	0.02549
3985.88336	0.02597
3984.59759	0.02656
3983.31183	0.02685
3982.02606	0.02659
3980.74029	0.02586
3979.45452	0.02488
3978.16875	0.02390
3976.88298	0.02315
3975.59721	0.02281
3974.31144	0.02279
3973.02567	0.02281
3971.73991	0.02265
3970.45414	0.02229
3969.16837	0.02205
3967.88260	0.02231
3966.59683	0.02314
3965.31106	0.02413
3964.02529	0.02465
3962.73952	0.02435
3961.45376	0.02344
3960.16799	0.02243
3958.88222	0.02175
3957.59645	0.02158
3956.31068	0.02175
3955.02491	0.02206
3953.73914	0.02240
3952.45337	0.02277
3951.16760	0.02306
3949.88184	0.02315
3948.59607	0.02306
3947.31030	0.02299
3946.02453	0.02305
3944.73876	0.02309
3943.45299	0.02298
3942.16722	0.02290
3940.88145	0.02316
3939.59569	0.02379
3938.30992	0.02436
3937.02415	0.02439
3935.73838	0.02384
3934.45261	0.02319
3933.16684	0.02296
3931.88107	0.02319
3930.59530	0.02351
3929.30953	0.02350
3928.02377	0.02312
3926.73800	0.02268
3925.45223	0.02252
3924.16646	0.02276
3922.88069	0.02312
3921.59492	0.02322
3920.30915	0.02284
3919.02338	0.02216
3917.73762	0.02160
3916.45185	0.02145
3915.16608	0.02166
3913.88031	0.02196
3912.59454	0.02226
3911.30877	0.02265
3910.02300	0.02308
3908.73723	0.02322
3907.45146	0.02287
3906.16570	0.02228
3904.87993	0.02195
3903.59416	0.02209
3902.30839	0.02250
3901.02262	0.02288
3899.73685	0.02314
3898.45108	0.02324
3897.16531	0.02313
3895.87955	0.02281
3894.59378	0.02236
3893.30801	0.02188
3892.02224	0.02142
3890.73647	0.02114
3889.45070	0.02107
3888.16493	0.02104
3886.87916	0.02098
3885.59339	0.02108
3884.30763	0.02141
3883.02186	0.02182
3881.73609	0.02214
3880.45032	0.02235
3879.16455	0.02239
3877.87878	0.02216
3876.59301	0.02168
3875.30724	0.02127
3874.02148	0.02119
3872.73571	0.02141
3871.44994	0.02172
3870.16417	0.02207
3868.87840	0.02246
3867.59263	0.02261
3866.30686	0.02224
3865.02109	0.02150
3863.73532	0.02077
3862.44956	0.02024
3861.16379	0.01998
3859.87802	0.02016
3858.59225	0.02086
3857.30648	0.02176
3856.02071	0.02227
3854.73494	0.02220
3853.44917	0.02196
3852.16341	0.02193
3850.87764	0.02201
3849.59187	0.02189
3848.30610	0.02167
3847.02033	0.02167
3845.73456	0.02210
3844.44879	0.02280
3843.16302	0.02323
3841.87725	0.02282
3840.59149	0.02139
3839.30572	0.01952
3838.01995	0.01826
3836.73418	0.01828
3835.44841	0.01932
3834.16264	0.02053
3832.87687	0.02129
3831.59110	0.02150
3830.30534	0.02134
3829.01957	0.02104
3827.73380	0.02071
3826.44803	0.02039
3825.16226	0.02008
3823.87649	0.01983
3822.59072	0.01988
3821.30495	0.02053
3820.01918	0.02171
3818.73342	0.02281
3817.44765	0.02324
3816.16188	0.02296
3814.87611	0.02224
3813.59034	0.02130
3812.30457	0.02051
3811.01880	0.02025
3809.73303	0.02052
3808.44726	0.02091
3807.16150	0.02112
3805.87573	0.02122
3804.58996	0.02120
3803.30419	0.02099
3802.01842	0.02068
3800.73265	0.02050
3799.44688	0.02047
3798.16111	0.02041
3796.87535	0.02030
3795.58958	0.02019
3794.30381	0.02010
3793.01804	0.02012
3791.73227	0.02041
3790.44650	0.02092
3789.16073	0.02139
3787.87496	0.02156
3786.58919	0.02134
3785.30343	0.02086
3784.01766	0.02041
3782.73189	0.02030
3781.44612	0.02059
3780.16035	0.02101
3778.87458	0.02114
3777.58881	0.02081
3776.30304	0.02026
3775.01728	0.01993
3773.73151	0.01997
3772.44574	0.02019
3771.15997	0.02040
3769.87420	0.02065
3768.58843	0.02105
3767.30266	0.02157
3766.01689	0.02209
3764.73112	0.02247
3763.44536	0.02250
3762.15959	0.02209
3760.87382	0.02146
3759.58805	0.02100
3758.30228	0.02089
3757.01651	0.02102
3755.73074	0.02105
3754.44497	0.02077
3753.15921	0.02034
3751.87344	0.02017
3750.58767	0.02034
3749.30190	0.02065
3748.01613	0.02094
3746.73036	0.02115
3745.44459	0.02133
3744.15882	0.02159
3742.87305	0.02179
3741.58729	0.02167
3740.30152	0.02131
3739.01575	0.02093
3737.72998	0.02062
3736.44421	0.02034
3735.15844	0.02009
3733.87267	0.01974
3732.58690	0.01931
3731.30114	0.01911
3730.01537	0.01934
3728.72960	0.01978
3727.44383	0.02002
3726.15806	0.01990
3724.87229	0.01954
3723.58652	0.01917
3722.30075	0.01901
3721.01498	0.01912
3719.72922	0.01941
3718.44345	0.01973
3717.15768	0.02002
3715.87191	0.02029
3714.58614	0.02065
3713.30037	0.02121
3712.01460	0.02197
3710.72883	0.02273
3709.44307	0.02326
3708.15730	0.02348
3706.87153	0.02346
3705.58576	0.02332
3704.29999	0.02317
3703.01422	0.02304
3701.72845	0.02286
3700.44268	0.02251
3699.15691	0.02192
3697.87115	0.02106
3696.58538	0.02000
3695.29961	0.01892
3694.01384	0.01801
3692.72807	0.01753
3691.44230	0.01769
3690.15653	0.01843
3688.87076	0.01947
3687.58500	0.02034
3686.29923	0.02061
3685.01346	0.02010
3683.72769	0.01917
3682.44192	0.01841
3681.15615	0.01817
3679.87038	0.01848
3678.58461	0.01924
3677.29884	0.02026
3676.01308	0.02131
3674.72731	0.02200
3673.44154	0.02190
3672.15577	0.02102
3670.87000	0.02004
3669.58423	0.01958
3668.29846	0.01951
3667.01269	0.01932
3665.72693	0.01883
3664.44116	0.01829
3663.15539	0.01799
3661.86962	0.01807
3660.58385	0.01847
3659.29808	0.01902
3658.01231	0.01959
3656.72654	0.02024
3655.44077	0.02103
3654.15501	0.02178
3652.86924	0.02212
3651.58347	0.02197
3650.29770	0.02156
3649.01193	0.02119
3647.72616	0.02097
3646.44039	0.02077
3645.15462	0.02041
3643.86886	0.01984
3642.58309	0.01921
3641.29732	0.01872
3640.01155	0.01850
3638.72578	0.01859
3637.44001	0.01892
3636.15424	0.01931
3634.86847	0.01966
3633.58270	0.02005
3632.29694	0.02057
3631.01117	0.02107
3629.72540	0.02130
3628.43963	0.02124
3627.15386	0.02111
3625.86809	0.02116
3624.58232	0.02150
3623.29655	0.02193
3622.01079	0.02210
3620.72502	0.02189
3619.43925	0.02159
3618.15348	0.02154
3616.86771	0.02174
3615.58194	0.02191
3614.29617	0.02187
3613.01040	0.02165
3611.72463	0.02148
3610.43887	0.02145
3609.15310	0.02146
3607.86733	0.02132
3606.58156	0.02104
3605.29579	0.02093
3604.01002	0.02127
3602.72425	0.02190
3601.43848	0.02232
3600.15272	0.02221
3598.86695	0.02172
3597.58118	0.02117
3596.29541	0.02081
3595.00964	0.02079
3593.72387	0.02131
3592.43810	0.02232
3591.15233	0.02329
3589.86656	0.02348
3588.58080	0.02268
3587.29503	0.02145
3586.00926	0.02059
3584.72349	0.02043
3583.43772	0.02067
3582.15195	0.02099
3580.86618	0.02129
3579.58041	0.02161
3578.29464	0.02193
3577.00888	0.02224
3575.72311	0.02258
3574.43734	0.02294
3573.15157	0.02321
3571.86580	0.02329
3570.58003	0.02311
3569.29426	0.02270
3568.00849	0.02228
3566.72273	0.02214
3565.43696	0.02245
3564.15119	0.02311
3562.86542	0.02380
3561.57965	0.02417
3560.29388	0.02406
3559.00811	0.02360
3557.72234	0.02319
3556.43657	0.02317
3555.15081	0.02362
3553.86504	0.02426
3552.57927	0.02480
3551.29350	0.02511
3550.00773	0.02524
3548.72196	0.02523
3547.43619	0.02511
3546.15042	0.02494
3544.86466	0.02487
3543.57889	0.02499
3542.29312	0.02531
3541.00735	0.02571
3539.72158	0.02597
3538.43581	0.02590
3537.15004	0.02554
3535.86427	0.02516
3534.57850	0.02504
3533.29274	0.02519
3532.00697	0.02528
3530.72120	0.02508
3529.43543	0.02470
3528.14966	0.02455
3526.86389	0.02491
3525.57812	0.02565
3524.29235	0.02634
3523.00659	0.02668
3521.72082	0.02674
3520.43505	0.02681
3519.14928	0.02704
3517.86351	0.02725
3516.57774	0.02720
3515.29197	0.02689
3514.00620	0.02658
3512.72043	0.02653
3511.43467	0.02667
3510.14890	0.02678
3508.86313	0.02675
3507.57736	0.02668
3506.29159	0.02668
3505.00582	0.02670
3503.72005	0.02656
3502.43428	0.02619
3501.14852	0.02582
3499.86275	0.02584
3498.57698	0.02637
3497.29121	0.02712
3496.00544	0.02759
3494.71967	0.02758
3493.43390	0.02724
3492.14813	0.02682
3490.86236	0.02657
3489.57660	0.02672
3488.29083	0.02737
3487.00506	0.02832
3485.71929	0.02909
3484.43352	0.02923
3483.14775	0.02873
3481.86198	0.02799
3480.57621	0.02745
3479.29045	0.02741
3478.00468	0.02785
3476.71891	0.02858
3475.43314	0.02926
3474.14737	0.02957
3472.86160	0.02941
3471.57583	0.02892
3470.29006	0.02834
3469.00429	0.02785
3467.71853	0.02761
3466.43276	0.02769
3465.14699	0.02802
3463.86122	0.02843
3462.57545	0.02872
3461.28968	0.02888
3460.00391	0.02899
3458.71814	0.02916
3457.43238	0.02942
3456.14661	0.02979
3454.86084	0.03017
3453.57507	0.03041
3452.28930	0.03031
3451.00353	0.02983
3449.71776	0.02913
3448.43199	0.02856
3447.14622	0.02840
3445.86046	0.02866
3444.57469	0.02913
3443.28892	0.02955
3442.00315	0.02985
3440.71738	0.03004
3439.43161	0.03020
3438.14584	0.03029
3436.86007	0.03026
3435.57431	0.03012
3434.28854	0.03004
3433.00277	0.03012
3431.71700	0.03023
3430.43123	0.03016
3429.14546	0.02991
3427.85969	0.02965
3426.57392	0.02959
3425.28815	0.02969
3424.00239	0.02978
3422.71662	0.02969
3421.43085	0.02945
3420.14508	0.02928
3418.85931	0.02941
3417.57354	0.02977
3416.28777	0.03003
3415.00200	0.02995
3413.71624	0.02953
3412.43047	0.02901
3411.14470	0.02863
3409.85893	0.02857
3408.57316	0.02885
3407.28739	0.02941
3406.00162	0.03012
3404.71585	0.03073
3403.43008	0.03106
3402.14432	0.03111
3400.85855	0.03107
3399.57278	0.03109
3398.28701	0.03107
3397.00124	0.03094
3395.71547	0.03075
3394.42970	0.03061
3393.14393	0.03055
3391.85817	0.03052
3390.57240	0.03049
3389.28663	0.03055
3388.00086	0.03076
3386.71509	0.03108
3385.42932	0.03136
3384.14355	0.03149
3382.85778	0.03145
3381.57201	0.03124
3380.28625	0.03090
3379.00048	0.03060
3377.71471	0.03048
3376.42894	0.03047
3375.14317	0.03042
3373.85740	0.03039
3372.57163	0.03061
3371.28586	0.03119
3370.00010	0.03188
3368.71433	0.03237
3367.42856	0.03266
3366.14279	0.03288
3364.85702	0.03300
3363.57125	0.03277
3362.28548	0.03218
3360.99971	0.03152
3359.71394	0.03116
3358.42818	0.03126
3357.14241	0.03172
3355.85664	0.03240
3354.57087	0.03316
3353.28510	0.03377
3351.99933	0.03404
3350.71356	0.03387
3349.42779	0.03339
3348.14202	0.03285
3346.85626	0.03247
3345.57049	0.03239
3344.28472	0.03250
3342.99895	0.03256
3341.71318	0.03241
3340.42741	0.03208
3339.14164	0.03170
3337.85587	0.03128
3336.57011	0.03075
3335.28434	0.03019
3333.99857	0.02987
3332.71280	0.03002
3331.42703	0.03057
3330.14126	0.03130
3328.85549	0.03196
3327.56972	0.03246
3326.28395	0.03283
3324.99819	0.03312
3323.71242	0.03326
3322.42665	0.03320
3321.14088	0.03302
3319.85511	0.03290
3318.56934	0.03296
3317.28357	0.03322
3315.99780	0.03359
3314.71204	0.03396
3313.42627	0.03426
3312.14050	0.03448
3310.85473	0.03459
3309.56896	0.03450
3308.28319	0.03417
3306.99742	0.03369
3305.71165	0.03324
3304.42588	0.03288
3303.14012	0.03250
3301.85435	0.03203
3300.56858	0.03163
3299.28281	0.03157
3297.99704	0.03198
3296.71127	0.03272
3295.42550	0.03339
3294.13973	0.03365
3292.85397	0.03347
3291.56820	0.03316
3290.28243	0.03302
3288.99666	0.03305
3287.71089	0.03310
3286.42512	0.03307
3285.13935	0.03298
3283.85358	0.03293
3282.56781	0.03301
3281.28205	0.03324
3279.99628	0.03347
3278.71051	0.03351
3277.42474	0.03328
3276.13897	0.03302
3274.85320	0.03301
3273.56743	0.03325
3272.28166	0.03350
3270.99590	0.03352
3269.71013	0.03328
3268.42436	0.03292
3267.13859	0.03263
3265.85282	0.03261
3264.56705	0.03292
3263.28128	0.03338
3261.99551	0.03371
3260.70974	0.03378
3259.42398	0.03365
3258.13821	0.03347
3256.85244	0.03331
3255.56667	0.03319
3254.28090	0.03315
3252.99513	0.03322
3251.70936	0.03339
3250.42359	0.03349
3249.13783	0.03332
3247.85206	0.03282
3246.56629	0.03223
3245.28052	0.03187
3243.99475	0.03187
3242.70898	0.03202
3241.42321	0.03210
3240.13744	0.03213
3238.85167	0.03225
3237.56591	0.03251
3236.28014	0.03267
3234.99437	0.03254
3233.70860	0.03221
3232.42283	0.03199
3231.13706	0.03204
3229.85129	0.03223
3228.56552	0.03234
3227.27976	0.03226
3225.99399	0.03206
3224.70822	0.03184
3223.42245	0.03157
3222.13668	0.03114
3220.85091	0.03049
3219.56514	0.02988
3218.27937	0.02968
3216.99360	0.03003
3215.70784	0.03069
3214.42207	0.03127
3213.13630	0.03161
3211.85053	0.03181
3210.56476	0.03203
3209.27899	0.03221
3207.99322	0.03210
3206.70745	0.03155
3205.42169	0.03067
3204.13592	0.02980
3202.85015	0.02927
3201.56438	0.02920
3200.27861	0.02950
3198.99284	0.02995
3197.70707	0.03034
3196.42130	0.03051
3195.13553	0.03047
3193.84977	0.03037
3192.56400	0.03031
3191.27823	0.03038
3189.99246	0.03057
3188.70669	0.03086
3187.42092	0.03113
3186.13515	0.03126
3184.84938	0.03125
3183.56362	0.03115
3182.27785	0.03098
3180.99208	0.03069
3179.70631	0.03027
3178.42054	0.02986
3177.13477	0.02961
3175.84900	0.02956
3174.56323	0.02967
3173.27746	0.02987
3171.99170	0.03008
3170.70593	0.03013
3169.42016	0.02985
3168.13439	0.02928
3166.84862	0.02869
3165.56285	0.02838
3164.27708	0.02843
3162.99131	0.02865
3161.70555	0.02876
3160.41978	0.02866
3159.13401	0.02844
3157.84824	0.02834
3156.56247	0.02851
3155.27670	0.02888
3153.99093	0.02924
3152.70516	0.02942
3151.41939	0.02943
3150.13363	0.02939
3148.84786	0.02935
3147.56209	0.02927
3146.27632	0.02913
3144.99055	0.02898
3143.70478	0.02884
3142.41901	0.02868
3141.13324	0.02849
3139.84748	0.02837
3138.56171	0.02841
3137.27594	0.02854
3135.99017	0.02860
3134.70440	0.02854
3133.41863	0.02845
3132.13286	0.02840
3130.84709	0.02839
3129.56132	0.02840
3128.27556	0.02842
3126.98979	0.02848
3125.70402	0.02856
3124.41825	0.02864
3123.13248	0.02869
3121.84671	0.02867
3120.56094	0.02856
3119.27517	0.02840
3117.98940	0.02825
3116.70364	0.02820
3115.41787	0.02824
3114.13210	0.02833
3112.84633	0.02840
3111.56056	0.02841
3110.27479	0.02839
3108.98902	0.02837
3107.70325	0.02831
3106.41749	0.02811
3105.13172	0.02779
3103.84595	0.02748
3102.56018	0.02734
3101.27441	0.02742
3099.98864	0.02767
3098.70287	0.02805
3097.41710	0.02846
3096.13133	0.02871
3094.84557	0.02863
3093.55980	0.02823
3092.27403	0.02772
3090.98826	0.02730
3089.70249	0.02709
3088.41672	0.02708
3087.13095	0.02722
3085.84518	0.02744
3084.55942	0.02761
3083.27365	0.02759
3081.98788	0.02746
3080.70211	0.02742
3079.41634	0.02757
3078.13057	0.02780
3076.84480	0.02793
3075.55903	0.02795
3074.27326	0.02800
3072.98750	0.02809
3071.70173	0.02811
3070.41596	0.02797
3069.13019	0.02776
3067.84442	0.02763
3066.55865	0.02762
3065.27288	0.02763
3063.98711	0.02752
3062.70135	0.02732
3061.41558	0.02714
3060.12981	0.02708
3058.84404	0.02710
3057.55827	0.02709
3056.27250	0.02701
3054.98673	0.02685
3053.70096	0.02664
3052.41519	0.02645
3051.12943	0.02638
3049.84366	0.02646
3048.55789	0.02656
3047.27212	0.02653
3045.98635	0.02630
3044.70058	0.02596
3043.41481	0.02566
3042.12904	0.02548
3040.84328	0.02539
3039.55751	0.02531
3038.27174	0.02523
3036.98597	0.02524
3035.70020	0.02546
3034.41443	0.02588
3033.12866	0.02633
3031.84289	0.02655
3030.55712	0.02642
3029.27136	0.02616
3027.98559	0.02603
3026.69982	0.02613
3025.41405	0.02630
3024.12828	0.02638
3022.84251	0.02639
3021.55674	0.02646
3020.27097	0.02655
3018.98521	0.02648
3017.69944	0.02611
3016.41367	0.02561
3015.12790	0.02520
3013.84213	0.02500
3012.55636	0.02497
3011.27059	0.02502
3009.98482	0.02510
3008.69905	0.02515
3007.41329	0.02509
3006.12752	0.02501
3004.84175	0.02516
3003.55598	0.02562
3002.27021	0.02616
3000.98444	0.02643
2999.69867	0.02625
2998.41290	0.02576
2997.12714	0.02530
2995.84137	0.02500
2994.55560	0.02484
2993.26983	0.02475
2991.98406	0.02471
2990.69829	0.02468
2989.41252	0.02459
2988.12675	0.02444
2986.84098	0.02432
2985.55522	0.02435
2984.26945	0.02454
2982.98368	0.02479
2981.69791	0.02510
2980.41214	0.02551
2979.12637	0.02596
2977.84060	0.02623
2976.55483	0.02616
2975.26907	0.02591
2973.98330	0.02573
2972.69753	0.02565
2971.41176	0.02551
2970.12599	0.02530
2968.84022	0.02517
2967.55445	0.02519
2966.26868	0.02527
2964.98291	0.02537
2963.69715	0.02549
2962.41138	0.02558
2961.12561	0.02553
2959.83984	0.02530
2958.55407	0.02498
2957.26830	0.02473
2955.98253	0.02472
2954.69676	0.02495
2953.41100	0.02530
2952.12523	0.02561
2950.83946	0.02576
2949.55369	0.02568
2948.26792	0.02536
2946.98215	0.02495
2945.69638	0.02465
2944.41061	0.02458
2943.12484	0.02473
2941.83908	0.02497
2940.55331	0.02512
2939.26754	0.02514
2937.98177	0.02512
2936.69600	0.02518
2935.41023	0.02531
2934.12446	0.02536
2932.83869	0.02522
2931.55293	0.02495
2930.26716	0.02480
2928.98139	0.02493
2927.69562	0.02527
2926.40985	0.02559
2925.12408	0.02570
2923.83831	0.02558
2922.55254	0.02532
2921.26677	0.02507
2919.98101	0.02492
2918.69524	0.02493
2917.40947	0.02509
2916.12370	0.02531
2914.83793	0.02545
2913.55216	0.02540
2912.26639	0.02521
2910.98062	0.02503
2909.69486	0.02497
2908.40909	0.02502
2907.12332	0.02511
2905.83755	0.02515
2904.55178	0.02509
2903.26601	0.02488
2901.98024	0.02458
2900.69447	0.02431
2899.40870	0.02421
2898.12294	0.02424
2896.83717	0.02431
2895.55140	0.02433
2894.26563	0.02432
2892.97986	0.02436
2891.69409	0.02445
2890.40832	0.02454
2889.12255	0.02457
2887.83678	0.02451
2886.55102	0.02438
2885.26525	0.02417
2883.97948	0.02393
2882.69371	0.02375
2881.40794	0.02370
2880.12217	0.02376
2878.83640	0.02390
2877.55063	0.02406
2876.26487	0.02420
2874.97910	0.02427
2873.69333	0.02427
2872.40756	0.02425
2871.12179	0.02421
2869.83602	0.02409
2868.55025	0.02392
2867.26448	0.02379
2865.97871	0.02372
2864.69295	0.02360
2863.40718	0.02335
2862.12141	0.02305
2860.83564	0.02290
2859.54987	0.02290
2858.26410	0.02293
2856.97833	0.02286
2855.69256	0.02271
2854.40680	0.02259
2853.12103	0.02254
2851.83526	0.02251
2850.54949	0.02244
2849.26372	0.02234
2847.97795	0.02229
2846.69218	0.02231
2845.40641	0.02235
2844.12064	0.02232
2842.83488	0.02219
2841.54911	0.02203
2840.26334	0.02194
2838.97757	0.02196
2837.69180	0.02200
2836.40603	0.02195
2835.12026	0.02181
2833.83449	0.02168
2832.54873	0.02165
2831.26296	0.02167
2829.97719	0.02167
2828.69142	0.02160
2827.40565	0.02151
2826.11988	0.02150
2824.83411	0.02163
2823.54834	0.02185
2822.26257	0.02203
2820.97681	0.02203
2819.69104	0.02180
2818.40527	0.02149
2817.11950	0.02125
2815.83373	0.02117
2814.54796	0.02122
2813.26219	0.02130
2811.97642	0.02137
2810.69066	0.02140
2809.40489	0.02140
2808.11912	0.02139
2806.83335	0.02139
2805.54758	0.02132
2804.26181	0.02112
2802.97604	0.02083
2801.69027	0.02063
2800.40450	0.02065
2799.11874	0.02086
2797.83297	0.02104
2796.54720	0.02106
2795.26143	0.02098
2793.97566	0.02096
2792.68989	0.02105
2791.40412	0.02112
2790.11835	0.02108
2788.83259	0.02092
2787.54682	0.02071
2786.26105	0.02056
2784.97528	0.02052
2783.68951	0.02058
2782.40374	0.02064
2781.11797	0.02062
2779.83220	0.02050
2778.54643	0.02032
2777.26067	0.02008
2775.97490	0.01984
2774.68913	0.01972
2773.40336	0.01975
2772.11759	0.01984
2770.83182	0.01988
2769.54605	0.01990
2768.26028	0.01997
2766.97452	0.02007
2765.68875	0.02012
2764.40298	0.02005
2763.11721	0.01989
2761.83144	0.01978
2760.54567	0.01983
2759.25990	0.02006
2757.97413	0.02032
2756.68836	0.02047
2755.40260	0.02042
2754.11683	0.02026
2752.83106	0.02012
2751.54529	0.02007
2750.25952	0.02011
2748.97375	0.02019
2747.68798	0.02022
2746.40221	0.02018
2745.11645	0.02004
2743.83068	0.01982
2742.54491	0.01958
2741.25914	0.01945
2739.97337	0.01948
2738.68760	0.01954
2737.40183	0.01953
2736.11606	0.01945
2734.83029	0.01938
2733.54453	0.01935
2732.25876	0.01932
2730.97299	0.01932
2729.68722	0.01939
2728.40145	0.01956
2727.11568	0.01973
2725.82991	0.01976
2724.54414	0.01963
2723.25838	0.01945
2721.97261	0.01929
2720.68684	0.01914
2719.40107	0.01895
2718.11530	0.01876
2716.82953	0.01864
2715.54376	0.01866
2714.25799	0.01879
2712.97222	0.01898
2711.68646	0.01921
2710.40069	0.01946
2709.11492	0.01973
2707.82915	0.01997
2706.54338	0.02010
2705.25761	0.02003
2703.97184	0.01975
2702.68607	0.01935
2701.40031	0.01902
2700.11454	0.01889
2698.82877	0.01895
2697.54300	0.01906
2696.25723	0.01904
2694.97146	0.01883
2693.68569	0.01857
2692.39992	0.01845
2691.11415	0.01852
2689.82839	0.01864
2688.54262	0.01869
2687.25685	0.01863
2685.97108	0.01856
2684.68531	0.01853
2683.39954	0.01849
2682.11377	0.01842
2680.82800	0.01836
2679.54224	0.01835
2678.25647	0.01834
2676.97070	0.01828
2675.68493	0.01820
2674.39916	0.01815
2673.11339	0.01811
2671.82762	0.01807
2670.54185	0.01804
2669.25608	0.01805
2667.97032	0.01814
2666.68455	0.01830
2665.39878	0.01847
2664.11301	0.01860
2662.82724	0.01867
2661.54147	0.01873
2660.25570	0.01878
2658.96993	0.01876
2657.68417	0.01862
2656.39840	0.01833
2655.11263	0.01794
2653.82686	0.01760
2652.54109	0.01742
2651.25532	0.01748
2649.96955	0.01766
2648.68378	0.01783
2647.39801	0.01786
2646.11225	0.01776
2644.82648	0.01761
2643.54071	0.01750
2642.25494	0.01750
2640.96917	0.01760
2639.68340	0.01768
2638.39763	0.01762
2637.11186	0.01740
2635.82609	0.01711
2634.54033	0.01690
2633.25456	0.01685
2631.96879	0.01696
2630.68302	0.01710
2629.39725	0.01713
2628.11148	0.01698
2626.82571	0.01674
2625.53994	0.01656
2624.25418	0.01651
2622.96841	0.01661
2621.68264	0.01680
2620.39687	0.01698
2619.11110	0.01703
2617.82533	0.01680
2616.53956	0.01625
2615.25379	0.01561
2613.96802	0.01521
2612.68226	0.01520
2611.39649	0.01541
2610.11072	0.01553
2608.82495	0.01546
2607.53918	0.01543
2606.25341	0.01562
2604.96764	0.01597
2603.68187	0.01621
2602.39611	0.01612
2601.11034	0.01581
2599.82457	0.01557
2598.53880	0.01554
2597.25303	0.01555
2595.96726	0.01538
2594.68149	0.01504
2593.39572	0.01473
2592.10995	0.01458
2590.82419	0.01461
2589.53842	0.01477
2588.25265	0.01498
2586.96688	0.01508
2585.68111	0.01491
2584.39534	0.01455
2583.10957	0.01428
2581.82380	0.01434
2580.53804	0.01465
2579.25227	0.01490
2577.96650	0.01497
2576.68073	0.01502
2575.39496	0.01522
2574.10919	0.01548
2572.82342	0.01554
2571.53765	0.01531
2570.25188	0.01493
2568.96612	0.01463
2567.68035	0.01449
2566.39458	0.01445
2565.10881	0.01439
2563.82304	0.01427
2562.53727	0.01419
2561.25150	0.01431
2559.96573	0.01471
2558.67997	0.01516
2557.39420	0.01534
2556.10843	0.01508
2554.82266	0.01459
2553.53689	0.01418
2552.25112	0.01397
2550.96535	0.01386
2549.67958	0.01376
2548.39381	0.01367
2547.10805	0.01354
2545.82228	0.01339
2544.53651	0.01335
2543.25074	0.01355
2541.96497	0.01404
2540.67920	0.01467
2539.39343	0.01529
2538.10766	0.01577
2536.82190	0.01601
2535.53613	0.01595
2534.25036	0.01557
2532.96459	0.01502
2531.67882	0.01454
2530.39305	0.01431
2529.10728	0.01430
2527.82151	0.01425
2526.53574	0.01399
2525.24998	0.01358
2523.96421	0.01321
2522.67844	0.01297
2521.39267	0.01294
2520.10690	0.01320
2518.82113	0.01374
2517.53536	0.01432
2516.24959	0.01461
2514.96383	0.01452
2513.67806	0.01420
2512.39229	0.01377
2511.10652	0.01327
2509.82075	0.01285
2508.53498	0.01274
2507.24921	0.01301
2505.96344	0.01339
2504.67767	0.01359
2503.39191	0.01365
2502.10614	0.01375
2500.82037	0.01395
2499.53460	0.01408
2498.24883	0.01398
2496.96306	0.01368
2495.67729	0.01342
2494.39152	0.01338
2493.10576	0.01352
2491.81999	0.01362
2490.53422	0.01351
2489.24845	0.01329
2487.96268	0.01317
2486.67691	0.01322
2485.39114	0.01334
2484.10537	0.01344
2482.81960	0.01352
2481.53384	0.01364
2480.24807	0.01373
2478.96230	0.01360
2477.67653	0.01316
2476.39076	0.01257
2475.10499	0.01217
2473.81922	0.01210
2472.53345	0.01221
2471.24769	0.01225
2469.96192	0.01219
2468.67615	0.01220
2467.39038	0.01242
2466.10461	0.01273
2464.81884	0.01285
2463.53307	0.01266
2462.24730	0.01230
2460.96153	0.01204
2459.67577	0.01203
2458.39000	0.01226
2457.10423	0.01264
2455.81846	0.01308
2454.53269	0.01344
2453.24692	0.01359
2451.96115	0.01355
2450.67538	0.01343
2449.38962	0.01342
2448.10385	0.01354
2446.81808	0.01367
2445.53231	0.01364
2444.24654	0.01342
2442.96077	0.01313
2441.67500	0.01300
2440.38923	0.01314
2439.10346	0.01333
2437.81770	0.01327
2436.53193	0.01294
2435.24616	0.01263
2433.96039	0.01262
2432.67462	0.01286
2431.38885	0.01308
2430.10308	0.01308
2428.81731	0.01290
2427.53155	0.01275
2426.24578	0.01278
2424.96001	0.01296
2423.67424	0.01308
2422.38847	0.01301
2421.10270	0.01282
2419.81693	0.01271
2418.53116	0.01283
2417.24539	0.01312
2415.95963	0.01343
2414.67386	0.01359
2413.38809	0.01353
2412.10232	0.01330
2410.81655	0.01309
2409.53078	0.01303
2408.24501	0.01311
2406.95924	0.01324
2405.67347	0.01336
2404.38771	0.01349
2403.10194	0.01357
2401.81617	0.01353
2400.53040	0.01336
2399.24463	0.01310
2397.95886	0.01294
2396.67309	0.01294
2395.38732	0.01301
2394.10156	0.01299
2392.81579	0.01281
2391.53002	0.01255
2390.24425	0.01239
2388.95848	0.01238
2387.67271	0.01243
2386.38694	0.01248
2385.10117	0.01259
2383.81540	0.01279
2382.52964	0.01303
2381.24387	0.01320
2379.95810	0.01326
2378.67233	0.01320
2377.38656	0.01309
2376.10079	0.01302
2374.81502	0.01294
2373.52925	0.01265
2372.24349	0.01220
2370.95772	0.01185
2369.67195	0.01181
2368.38618	0.01197
2367.10041	0.01212
2365.81464	0.01221
2364.52887	0.01223
2363.24310	0.01220
2361.95733	0.01213
2360.67157	0.01192
2359.38580	0.01181
2358.10003	0.01204
2356.81426	0.01254
2355.52849	0.01302
2354.24272	0.01331
2352.95695	0.01329
2351.67118	0.01297
2350.38542	0.01271
2349.09965	0.01284
2347.81388	0.01321
2346.52811	0.01335
2345.24234	0.01331
2343.95657	0.01356
2342.67080	0.01400
2341.38503	0.01381
2340.09926	0.01315
2338.81350	0.01325
2337.52773	0.01393
2336.24196	0.01365
2334.95619	0.01283
2333.67042	0.01303
2332.38465	0.01387
2331.09888	0.01372
2329.81311	0.01348
2328.52735	0.01381
2327.24158	0.01353
2325.95581	0.01309
2324.67004	0.01345
2323.38427	0.01388
2322.09850	0.01380
2320.81273	0.01381
2319.52696	0.01363
2318.24119	0.01335
2316.95543	0.01334
2315.66966	0.01320
2314.38389	0.01299
2313.09812	0.01284
2311.81235	0.01260
2310.52658	0.01248
2309.24081	0.01252
2307.95504	0.01259
2306.66928	0.01274
2305.38351	0.01277
2304.09774	0.01256
2302.81197	0.01217
2301.52620	0.01175
2300.24043	0.01159
2298.95466	0.01175
2297.66889	0.01205
2296.38312	0.01226
2295.09736	0.01233
2293.81159	0.01241
2292.52582	0.01264
2291.24005	0.01298
2289.95428	0.01317
2288.66851	0.01306
2287.38274	0.01275
2286.09697	0.01250
2284.81121	0.01240
2283.52544	0.01224
2282.23967	0.01182
2280.95390	0.01114
2279.66813	0.01045
2278.38236	0.01006
2277.09659	0.01007
2275.81082	0.01037
2274.52505	0.01076
2273.23929	0.01115
2271.95352	0.01159
2270.66775	0.01200
2269.38198	0.01220
2268.09621	0.01203
2266.81044	0.01152
2265.52467	0.01082
2264.23890	0.01013
2262.95314	0.00962
2261.66737	0.00950
2260.38160	0.00993
2259.09583	0.01079
2257.81006	0.01167
2256.52429	0.01213
2255.23852	0.01204
2253.95275	0.01159
2252.66698	0.01112
2251.38122	0.01083
2250.09545	0.01075
2248.80968	0.01080
2247.52391	0.01075
2246.23814	0.01083
2244.95237	0.01117
2243.66660	0.01157
2242.38083	0.01171
2241.09507	0.01154
2239.80930	0.01133
2238.52353	0.01131
2237.23776	0.01129
2235.95199	0.01087
2234.66622	0.00992
2233.38045	0.00876
2232.09468	0.00790
2230.80891	0.00767
2229.52315	0.00794
2228.23738	0.00823
2226.95161	0.00819
2225.66584	0.00798
2224.38007	0.00809
2223.09430	0.00875
2221.80853	0.00962
2220.52276	0.01018
2219.23700	0.01021
2217.95123	0.00995
2216.66546	0.00978
2215.37969	0.00986
2214.09392	0.01004
2212.80815	0.01009
2211.52238	0.00984
2210.23661	0.00936
2208.95084	0.00886
2207.66508	0.00859
2206.37931	0.00858
2205.09354	0.00864
2203.80777	0.00862
2202.52200	0.00859
2201.23623	0.00868
2199.95046	0.00893
2198.66469	0.00920
2197.37893	0.00939
2196.09316	0.00946
2194.80739	0.00945
2193.52162	0.00933
2192.23585	0.00895
2190.95008	0.00822
2189.66431	0.00728
2188.37854	0.00654
2187.09277	0.00634
2185.80701	0.00652
2184.52124	0.00649
2183.23547	0.00590
2181.94970	0.00515
2180.66393	0.00492
2179.37816	0.00532
2178.09239	0.00582
2176.80662	0.00607
2175.52085	0.00609
2174.23509	0.00579
2172.94932	0.00489
2171.66355	0.00344
2170.37778	0.00218
2169.09201	0.00183
2167.80624	0.00229
2166.52047	0.00299
2165.23470	0.00356
2163.94894	0.00408
2162.66317	0.00442
2161.37740	0.00413
2160.09163	0.00301
2158.80586	0.00163
2157.52009	0.00091
2156.23432	0.00126
2154.94855	0.00222
2153.66278	0.00306
2152.37702	0.00336
2151.09125	0.00329
2149.80548	0.00321
2148.51971	0.00318
2147.23394	0.00307
2145.94817	0.00299
2144.66240	0.00333
2143.37663	0.00433
2142.09087	0.00572
2140.80510	0.00687
2139.51933	0.00733
2138.23356	0.00708
2136.94779	0.00644
2135.66202	0.00582
2134.37625	0.00551
2133.09048	0.00562
2131.80471	0.00607
2130.51895	0.00657
2129.23318	0.00677
2127.94741	0.00664
2126.66164	0.00649
2125.37587	0.00665
2124.09010	0.00707
2122.80433	0.00740
2121.51856	0.00748
2120.23280	0.00744
2118.94703	0.00738
2117.66126	0.00716
2116.37549	0.00663
2115.08972	0.00597
2113.80395	0.00559
2112.51818	0.00567
2111.23241	0.00599
2109.94664	0.00619
2108.66088	0.00608
2107.37511	0.00572
2106.08934	0.00533
2104.80357	0.00514
2103.51780	0.00530
2102.23203	0.00584
2100.94626	0.00658
2099.66049	0.00761
2098.37473	0.00776
2097.08896	0.00703
2095.80319	0.00609
2094.51742	0.00560
2093.23165	0.00592
2091.94588	0.00680
2090.66011	0.00761
2089.37434	0.00781
2088.08857	0.00737
2086.80281	0.00668
2085.51704	0.00622
2084.23127	0.00618
2082.94550	0.00652
2081.65973	0.00709
2080.37396	0.00766
2079.08819	0.00789
2077.80242	0.00757
2076.51666	0.00681
2075.23089	0.00599
2073.94512	0.00540
2072.65935	0.00509
2071.37358	0.00506
2070.08781	0.00540
2068.80204	0.00612
2067.51627	0.00697
2066.23050	0.00752
2064.94474	0.00754
2063.65897	0.00706
2062.37320	0.00627
2061.08743	0.00552
2059.80166	0.00514
2058.51589	0.00528
2057.23012	0.00581
2055.94435	0.00645
2054.65859	0.00700
2053.37282	0.00729
2052.08705	0.00704
2050.80128	0.00597
2049.51551	0.00423
2048.22974	0.00257
2046.94397	0.00190
2045.65820	0.00245
2044.37243	0.00362
2043.08667	0.00458
2041.80090	0.00501
2040.51513	0.00502
2039.22936	0.00481
2037.94359	0.00453
2036.65782	0.00423
2035.37205	0.00383
2034.08628	0.00313
2032.80052	0.00221
2031.51475	0.00146
2030.22898	0.00130
2028.94321	0.00164
2027.65744	0.00207
2026.37167	0.00244
2025.08590	0.00292
2023.80013	0.00358
2022.51436	0.00399
2021.22860	0.00372
2019.94283	0.00290
2018.65706	0.00219
2017.37129	0.00214
2016.08552	0.00276
2014.79975	0.00364
2013.51398	0.00422
2012.22821	0.00425
2010.94245	0.00392
2009.65668	0.00369
2008.37091	0.00384
2007.08514	0.00434
2005.79937	0.00510
2004.51360	0.00608
2003.22783	0.00708
2001.94206	0.00772
2000.65629	0.00771
1999.37053	0.00718
1998.08476	0.00661
1996.79899	0.00645
1995.51322	0.00684
1994.22745	0.00744
1992.94168	0.00776
1991.65591	0.00744
1990.37014	0.00656
1989.08438	0.00561
1987.79861	0.00522
1986.51284	0.00556
1985.22707	0.00614
1983.94130	0.00632
1982.65553	0.00594
1981.36976	0.00538
1980.08399	0.00503
1978.79822	0.00496
1977.51246	0.00504
1976.22669	0.00510
1974.94092	0.00502
1973.65515	0.00472
1972.36938	0.00431
1971.08361	0.00406
1969.79784	0.00424
1968.51207	0.00485
1967.22631	0.00561
1965.94054	0.00617
1964.65477	0.00632
1963.36900	0.00607
1962.08323	0.00558
1960.79746	0.00515
1959.51169	0.00503
1958.22592	0.00529
1956.94015	0.00572
1955.65439	0.00608
1954.36862	0.00623
1953.08285	0.00625
1951.79708	0.00627
1950.51131	0.00647
1949.22554	0.00686
1947.93977	0.00731
1946.65400	0.00766
1945.36823	0.00787
1944.08247	0.00786
1942.79670	0.00755
1941.51093	0.00694
1940.22516	0.00618
1938.93939	0.00556
1937.65362	0.00520
1936.36785	0.00506
1935.08208	0.00502
1933.79632	0.00513
1932.51055	0.00552
1931.22478	0.00621
1929.93901	0.00696
1928.65324	0.00736
1927.36747	0.00721
1926.08170	0.00670
1924.79593	0.00628
1923.51016	0.00634
1922.22440	0.00692
1920.93863	0.00763
1919.65286	0.00804
1918.36709	0.00800
1917.08132	0.00769
1915.79555	0.00746
1914.50978	0.00745
1913.22401	0.00761
1911.93825	0.00777
1910.65248	0.00790
1909.36671	0.00807
1908.08094	0.00830
1906.79517	0.00847
1905.50940	0.00842
1904.22363	0.00819
1902.93786	0.00791
1901.65209	0.00769
1900.36633	0.00753
1899.08056	0.00743
1897.79479	0.00742
1896.50902	0.00755
1895.22325	0.00779
1893.93748	0.00803
1892.65171	0.00819
1891.36594	0.00828
1890.08018	0.00837
1888.79441	0.00849
1887.50864	0.00850
1886.22287	0.00827
1884.93710	0.00778
1883.65133	0.00721
1882.36556	0.00676
1881.07979	0.00658
1879.79402	0.00665
1878.50826	0.00683
1877.22249	0.00696
1875.93672	0.00701
1874.65095	0.00711
1873.36518	0.00739
1872.07941	0.00779
1870.79364	0.00812
1869.50787	0.00821
1868.22211	0.00809
1866.93634	0.00782
1865.65057	0.00750
1864.36480	0.00723
1863.07903	0.00712
1861.79326	0.00718
1860.50749	0.00732
1859.22172	0.00738
1857.93595	0.00732
1856.65019	0.00718
1855.36442	0.00704
1854.07865	0.00691
1852.79288	0.00678
1851.50711	0.00671
1850.22134	0.00679
1848.93557	0.00702
1847.64980	0.00730
1846.36404	0.00748
1845.07827	0.00749
1843.79250	0.00740
1842.50673	0.00731
1841.22096	0.00725
1839.93519	0.00726
1838.64942	0.00734
1837.36365	0.00740
1836.07788	0.00737
1834.79212	0.00731
1833.50635	0.00734
1832.22058	0.00752
1830.93481	0.00778
1829.64904	0.00802
1828.36327	0.00814
1827.07750	0.00812
1825.79173	0.00801
1824.50597	0.00792
1823.22020	0.00792
1821.93443	0.00797
1820.64866	0.00801
1819.36289	0.00797
1818.07712	0.00784
1816.79135	0.00767
1815.50558	0.00752
1814.21981	0.00743
1812.93405	0.00740
1811.64828	0.00739
1810.36251	0.00737
1809.07674	0.00730
1807.79097	0.00725
1806.50520	0.00724
1805.21943	0.00730
1803.93366	0.00738
1802.64790	0.00744
1801.36213	0.00746
1800.07636	0.00742
1798.79059	0.00737
1797.50482	0.00739
1796.21905	0.00752
1794.93328	0.00772
1793.64751	0.00790
1792.36174	0.00799
1791.07598	0.00801
1789.79021	0.00797
1788.50444	0.00790
1787.21867	0.00788
1785.93290	0.00794
1784.64713	0.00807
1783.36136	0.00819
1782.07559	0.00819
1780.78983	0.00807
1779.50406	0.00790
1778.21829	0.00779
1776.93252	0.00781
1775.64675	0.00790
1774.36098	0.00796
1773.07521	0.00795
1771.78944	0.00794
1770.50367	0.00794
1769.21791	0.00791
1767.93214	0.00781
1766.64637	0.00772
1765.36060	0.00768
1764.07483	0.00768
1762.78906	0.00771
1761.50329	0.00775
1760.21752	0.00777
1758.93176	0.00771
1757.64599	0.00761
1756.36022	0.00754
1755.07445	0.00752
1753.78868	0.00753
1752.50291	0.00753
1751.21714	0.00756
1749.93137	0.00758
1748.64560	0.00754
1747.35984	0.00743
1746.07407	0.00732
1744.78830	0.00728
1743.50253	0.00733
1742.21676	0.00743
1740.93099	0.00754
1739.64522	0.00768
1738.35945	0.00785
1737.07369	0.00795
1735.78792	0.00788
1734.50215	0.00773
1733.21638	0.00764
1731.93061	0.00764
1730.64484	0.00761
1729.35907	0.00755
1728.07330	0.00756
1726.78753	0.00762
1725.50177	0.00768
1724.21600	0.00769
1722.93023	0.00769
1721.64446	0.00775
1720.35869	0.00785
1719.07292	0.00796
1717.78715	0.00809
1716.50138	0.00824
1715.21561	0.00834
1713.92985	0.00840
1712.64408	0.00845
1711.35831	0.00853
1710.07254	0.00866
1708.78677	0.00885
1707.50100	0.00912
1706.21523	0.00949
1704.92946	0.00995
1703.64370	0.01041
1702.35793	0.01078
1701.07216	0.01116
1699.78639	0.01172
1698.50062	0.01239
1697.21485	0.01291
1695.92908	0.01327
1694.64331	0.01367
1693.35754	0.01414
1692.07178	0.01461
1690.78601	0.01513
1689.50024	0.01576
1688.21447	0.01647
1686.92870	0.01711
1685.64293	0.01761
1684.35716	0.01811
1683.07139	0.01866
1681.78563	0.01919
1680.49986	0.01966
1679.21409	0.02016
1677.92832	0.02070
1676.64255	0.02122
1675.35678	0.02173
1674.07101	0.02227
1672.78524	0.02282
1671.49947	0.02330
1670.21371	0.02372
1668.92794	0.02413
1667.64217	0.02456
1666.35640	0.02499
1665.07063	0.02541
1663.78486	0.02583
1662.49909	0.02628
1661.21332	0.02676
1659.92756	0.02724
1658.64179	0.02775
1657.35602	0.02836
1656.07025	0.02896
1654.78448	0.02939
1653.49871	0.02967
1652.21294	0.02995
1650.92717	0.03025
1649.64140	0.03047
1648.35564	0.03059
1647.06987	0.03071
1645.78410	0.03087
1644.49833	0.03100
1643.21256	0.03101
1641.92679	0.03089
1640.64102	0.03073
1639.35525	0.03057
1638.06949	0.03043
1636.78372	0.03030
1635.49795	0.03019
1634.21218	0.03006
1632.92641	0.02981
1631.64064	0.02941
1630.35487	0.02895
1629.06910	0.02854
1627.78333	0.02818
1626.49757	0.02782
1625.21180	0.02741
1623.92603	0.02696
1622.64026	0.02652
1621.35449	0.02612
1620.06872	0.02569
1618.78295	0.02515
1617.49718	0.02457
1616.21142	0.02405
1614.92565	0.02362
1613.63988	0.02320
1612.35411	0.02274
1611.06834	0.02229
1609.78257	0.02189
1608.49680	0.02154
1607.21103	0.02125
1605.92526	0.02102
1604.63950	0.02085
1603.35373	0.02073
1602.06796	0.02064
1600.78219	0.02056
1599.49642	0.02043
1598.21065	0.02027
1596.92488	0.02011
1595.63911	0.01999
1594.35335	0.01996
1593.06758	0.01999
1591.78181	0.02003
1590.49604	0.02006
1589.21027	0.02007
1587.92450	0.02009
1586.63873	0.02013
1585.35296	0.02021
1584.06719	0.02030
1582.78143	0.02043
1581.49566	0.02063
1580.20989	0.02093
1578.92412	0.02128
1577.63835	0.02160
1576.35258	0.02187
1575.06681	0.02211
1573.78104	0.02230
1572.49528	0.02240
1571.20951	0.02248
1569.92374	0.02264
1568.63797	0.02293
1567.35220	0.02325
1566.06643	0.02355
1564.78066	0.02386
1563.49489	0.02421
1562.20912	0.02455
1560.92336	0.02480
1559.63759	0.02505
1558.35182	0.02535
1557.06605	0.02565
1555.78028	0.02579
1554.49451	0.02580
1553.20874	0.02582
1551.92297	0.02588
1550.63721	0.02596
1549.35144	0.02608
1548.06567	0.02621
1546.77990	0.02634
1545.49413	0.02646
1544.20836	0.02664
1542.92259	0.02685
1541.63682	0.02696
1540.35105	0.02692
1539.06529	0.02683
1537.77952	0.02679
1536.49375	0.02678
1535.20798	0.02672
1533.92221	0.02664
1532.63644	0.02660
1531.35067	0.02659
1530.06490	0.02659
1528.77914	0.02659
1527.49337	0.02663
1526.20760	0.02673
1524.92183	0.02687
1523.63606	0.02699
1522.35029	0.02704
1521.06452	0.02709
1519.77875	0.02716
1518.49298	0.02718
1517.20722	0.02714
1515.92145	0.02712
1514.63568	0.02716
1513.34991	0.02724
1512.06414	0.02738
1510.77837	0.02757
1509.49260	0.02778
1508.20683	0.02795
1506.92107	0.02810
1505.63530	0.02827
1504.34953	0.02842
1503.06376	0.02846
1501.77799	0.02843
1500.49222	0.02845
1499.20645	0.02856
1497.92068	0.02870
1496.63491	0.02881
1495.34915	0.02888
1494.06338	0.02893
1492.77761	0.02895
1491.49184	0.02895
1490.20607	0.02897
1488.92030	0.02900
1487.63453	0.02909
1486.34876	0.02924
1485.06299	0.02947
1483.77723	0.02972
1482.49146	0.02999
1481.20569	0.03026
1479.91992	0.03058
1478.63415	0.03094
1477.34838	0.03135
1476.06261	0.03178
1474.77684	0.03219
1473.49108	0.03255
1472.20531	0.03287
1470.91954	0.03318
1469.63377	0.03345
1468.34800	0.03364
1467.06223	0.03375
1465.77646	0.03385
1464.49069	0.03403
1463.20492	0.03432
1461.91916	0.03468
1460.63339	0.03506
1459.34762	0.03539
1458.06185	0.03570
1456.77608	0.03608
1455.49031	0.03655
1454.20454	0.03699
1452.91877	0.03726
1451.63301	0.03736
1450.34724	0.03737
1449.06147	0.03736
1447.77570	0.03735
1446.48993	0.03737
1445.20416	0.03739
1443.91839	0.03737
1442.63262	0.03733
1441.34685	0.03731
1440.06109	0.03728
1438.77532	0.03720
1437.48955	0.03709
1436.20378	0.03701
1434.91801	0.03699
1433.63224	0.03696
1432.34647	0.03692
1431.06070	0.03694
1429.77494	0.03708
1428.48917	0.03734
1427.20340	0.03767
1425.91763	0.03801
1424.63186	0.03838
1423.34609	0.03881
1422.06032	0.03928
1420.77455	0.03972
1419.48878	0.04011
1418.20302	0.04044
1416.91725	0.04070
1415.63148	0.04085
1414.34571	0.04096
1413.05994	0.04106
1411.77417	0.04114
1410.48840	0.04117
1409.20263	0.04113
1407.91687	0.04102
1406.63110	0.04085
1405.34533	0.04059
1404.05956	0.04027
1402.77379	0.03986
1401.48802	0.03939
1400.20225	0.03890
1398.91648	0.03841
1397.63071	0.03794
1396.34495	0.03743
1395.05918	0.03685
1393.77341	0.03623
1392.48764	0.03560
1391.20187	0.03495
1389.91610	0.03429
1388.63033	0.03362
1387.34456	0.03294
1386.05880	0.03224
1384.77303	0.03151
1383.48726	0.03077
1382.20149	0.03005
1380.91572	0.02937
1379.62995	0.02875
1378.34418	0.02816
1377.05841	0.02757
1375.77264	0.02693
1374.48688	0.02626
1373.20111	0.02559
1371.91534	0.02495
1370.62957	0.02435
1369.34380	0.02380
1368.05803	0.02330
1366.77226	0.02283
1365.48649	0.02237
1364.20073	0.02191
1362.91496	0.02146
1361.62919	0.02102
1360.34342	0.02060
1359.05765	0.02018
1357.77188	0.01979
1356.48611	0.01945
1355.20034	0.01919
1353.91457	0.01898
1352.62881	0.01879
1351.34304	0.01861
1350.05727	0.01843
1348.77150	0.01828
1347.48573	0.01816
1346.19996	0.01806
1344.91419	0.01795
1343.62842	0.01784
1342.34266	0.01771
1341.05689	0.01758
1339.77112	0.01746
1338.48535	0.01735
1337.19958	0.01728
1335.91381	0.01723
1334.62804	0.01715
1333.34227	0.01699
1332.05650	0.01676
1330.77074	0.01651
1329.48497	0.01629
1328.19920	0.01609
1326.91343	0.01591
1325.62766	0.01575
1324.34189	0.01561
1323.05612	0.01553
1321.77035	0.01548
1320.48459	0.01544
1319.19882	0.01536
1317.91305	0.01522
1316.62728	0.01504
1315.34151	0.01486
1314.05574	0.01472
1312.76997	0.01461
1311.48420	0.01450
1310.19843	0.01435
1308.91267	0.01417
1307.62690	0.01398
1306.34113	0.01380
1305.05536	0.01365
1303.76959	0.01356
1302.48382	0.01353
1301.19805	0.01356
1299.91228	0.01358
1298.62652	0.01352
1297.34075	0.01335
1296.05498	0.01316
1294.76921	0.01304
1293.48344	0.01300
1292.19767	0.01302
1290.91190	0.01304
1289.62613	0.01306
1288.34036	0.01308
1287.05460	0.01309
1285.76883	0.01310
1284.48306	0.01309
1283.19729	0.01303
1281.91152	0.01294
1280.62575	0.01284
1279.33998	0.01276
1278.05421	0.01272
1276.76845	0.01270
1275.48268	0.01269
1274.19691	0.01266
1272.91114	0.01261
1271.62537	0.01255
1270.33960	0.01248
1269.05383	0.01242
1267.76806	0.01236
1266.48229	0.01230
1265.19653	0.01227
1263.91076	0.01227
1262.62499	0.01228
1261.33922	0.01231
1260.05345	0.01234
1258.76768	0.01234
1257.48191	0.01233
1256.19614	0.01233
1254.91037	0.01237
1253.62461	0.01243
1252.33884	0.01247
1251.05307	0.01246
1249.76730	0.01241
1248.48153	0.01237
1247.19576	0.01236
1245.90999	0.01237
1244.62422	0.01237
1243.33846	0.01234
1242.05269	0.01231
1240.76692	0.01229
1239.48115	0.01227
1238.19538	0.01224
1236.90961	0.01221
1235.62384	0.01219
1234.33807	0.01216
1233.05230	0.01207
1231.76654	0.01190
1230.48077	0.01169
1229.19500	0.01149
1227.90923	0.01135
1226.62346	0.01125
1225.33769	0.01118
1224.05192	0.01111
1222.76615	0.01098
1221.48039	0.01079
1220.19462	0.01057
1218.90885	0.01035
1217.62308	0.01015
1216.33731	0.00999
1215.05154	0.00986
1213.76577	0.00977
1212.48000	0.00971
1211.19423	0.00970
1209.90847	0.00971
1208.62270	0.00977
1207.33693	0.00984
1206.05116	0.00992
1204.76539	0.00996
1203.47962	0.00994
1202.19385	0.00988
1200.90808	0.00976
1199.62232	0.00958
1198.33655	0.00947
1197.05078	0.00935
1195.76501	0.00924
1194.47924	0.00918
1193.19347	0.00919
1191.90770	0.00920
1190.62193	0.00915
1189.33616	0.00902
1188.05040	0.00885
1186.76463	0.00871
1185.47886	0.00862
1184.19309	0.00858
1182.90732	0.00856
1181.62155	0.00850
1180.33578	0.00840
1179.05001	0.00830
1177.76425	0.00826
1176.47848	0.00828
1175.19271	0.00833
1173.90694	0.00836
1172.62117	0.00834
1171.33540	0.00832
1170.04963	0.00832
1168.76386	0.00835
1167.47809	0.00838
1166.19233	0.00837
1164.90656	0.00836
1163.62079	0.00839
1162.33502	0.00847
1161.04925	0.00858
1159.76348	0.00866
1158.47771	0.00870
1157.19194	0.00871
1155.90618	0.00873
1154.62041	0.00876
1153.33464	0.00880
1152.04887	0.00886
1150.76310	0.00897
1149.47733	0.00917
1148.19156	0.00945
1146.90579	0.00975
1145.62002	0.01001
1144.33426	0.01019
1143.04849	0.01032
1141.76272	0.01047
1140.47695	0.01070
1139.19118	0.01105
1137.90541	0.01148
1136.61964	0.01195
1135.33387	0.01243
1134.04811	0.01292
1132.76234	0.01347
1131.47657	0.01415
1130.19080	0.01494
1128.90503	0.01580
1127.61926	0.01671
1126.33349	0.01767
1125.04772	0.01869
1123.76195	0.01980
1122.47619	0.02095
1121.19042	0.02213
1119.90465	0.02337
1118.61888	0.02471
1117.33311	0.02616
1116.04734	0.02765
1114.76157	0.02909
1113.47580	0.03046
1112.19004	0.03178
1110.90427	0.03311
1109.61850	0.03448
1108.33273	0.03591
1107.04696	0.03735
1105.76119	0.03866
1104.47542	0.03977
1103.18965	0.04071
1101.90388	0.04162
1100.61812	0.04264
1099.33235	0.04374
1098.04658	0.04481
1096.76081	0.04574
1095.47504	0.04654
1094.18927	0.04727
1092.90350	0.04802
1091.61773	0.04882
1090.33197	0.04961
1089.04620	0.05035
1087.76043	0.05103
1086.47466	0.05169
1085.18889	0.05237
1083.90312	0.05310
1082.61735	0.05385
1081.33158	0.05465
1080.04581	0.05547
1078.76005	0.05635
1077.47428	0.05729
1076.18851	0.05831
1074.90274	0.05943
1073.61697	0.06065
1072.33120	0.06190
1071.04543	0.06313
1069.75966	0.06432
1068.47390	0.06552
1067.18813	0.06676
1065.90236	0.06806
1064.61659	0.06938
1063.33082	0.07066
1062.04505	0.07190
1060.75928	0.07313
1059.47351	0.07437
1058.18774	0.07563
1056.90198	0.07687
1055.61621	0.07806
1054.33044	0.07919
1053.04467	0.08029
1051.75890	0.08138
1050.47313	0.08245
1049.18736	0.08349
1047.90159	0.08451
1046.61583	0.08556
1045.33006	0.08665
1044.04429	0.08776
1042.75852	0.08888
1041.47275	0.09000
1040.18698	0.09111
1038.90121	0.09222
1037.61544	0.09333
1036.32967	0.09445
1035.04391	0.09557
1033.75814	0.09665
1032.47237	0.09761
1031.18660	0.09844
1029.90083	0.09910
1028.61506	0.09965
1027.32929	0.10010
1026.04352	0.10044
1024.75775	0.10063
1023.47199	0.10063
1022.18622	0.10045
1020.90045	0.10014
1019.61468	0.09974
1018.32891	0.09925
1017.04314	0.09865
1015.75737	0.09790
1014.47160	0.09701
1013.18584	0.09596
1011.90007	0.09472
1010.61430	0.09328
1009.32853	0.09170
1008.04276	0.09007
1006.75699	0.08841
1005.47122	0.08666
1004.18545	0.08476
1002.89968	0.08274
1001.61392	0.08065
1000.32815	0.07856
999.04238	0.07648
997.75661	0.07443
996.47084	0.07244
995.18507	0.07055
993.89930	0.06873
992.61353	0.06688
991.32777	0.06494
990.04200	0.06293
988.75623	0.06097
987.47046	0.05912
986.18469	0.05740
984.89892	0.05577
983.61315	0.05416
982.32738	0.05256
981.04161	0.05097
979.75585	0.04945
978.47008	0.04805
977.18431	0.04678
975.89854	0.04560
974.61277	0.04449
973.32700	0.04348
972.04123	0.04261
970.75546	0.04194
969.46970	0.04148
968.18393	0.04122
966.89816	0.04119
965.61239	0.04134
964.32662	0.04160
963.04085	0.04184
961.75508	0.04200
960.46931	0.04201
959.18354	0.04182
957.89778	0.04139
956.61201	0.04081
955.32624	0.04018
954.04047	0.03953
952.75470	0.03881
951.46893	0.03802
950.18316	0.03722
948.89739	0.03648
947.61163	0.03578
946.32586	0.03508
945.04009	0.03434
943.75432	0.03360
942.46855	0.03292
941.18278	0.03228
939.89701	0.03165
938.61124	0.03100
937.32547	0.03035
936.03971	0.02974
934.75394	0.02917
933.46817	0.02865
932.18240	0.02816
930.89663	0.02768
929.61086	0.02719
928.32509	0.02670
927.03932	0.02629
925.75356	0.02601
924.46779	0.02585
923.18202	0.02568
921.89625	0.02537
920.61048	0.02494
919.32471	0.02448
918.03894	0.02409
916.75317	0.02379
915.46740	0.02351
914.18164	0.02320
912.89587	0.02288
911.61010	0.02258
910.32433	0.02230
909.03856	0.02201
907.75279	0.02173
906.46702	0.02155
905.18125	0.02145
903.89549	0.02139
902.60972	0.02131
901.32395	0.02121
900.03818	0.02115
898.75241	0.02110
897.46664	0.02102
896.18087	0.02084
894.89510	0.02056
893.60933	0.02025
892.32357	0.02003
891.03780	0.01993
889.75203	0.01994
888.46626	0.02000
887.18049	0.02014
885.89472	0.02040
884.60895	0.02089
883.32318	0.02166
882.03742	0.02265
880.75165	0.02365
879.46588	0.02445
878.18011	0.02505
876.89434	0.02556
875.60857	0.02614
874.32280	0.02679
873.03703	0.02740
871.75126	0.02780
870.46550	0.02786
869.17973	0.02753
867.89396	0.02689
866.60819	0.02607
865.32242	0.02521
864.03665	0.02440
862.75088	0.02372
861.46511	0.02316
860.17935	0.02266
858.89358	0.02217
857.60781	0.02170
856.32204	0.02127
855.03627	0.02085
853.75050	0.02044
852.46473	0.02008
851.17896	0.01982
849.89319	0.01969
848.60743	0.01962
847.32166	0.01953
846.03589	0.01936
844.75012	0.01916
843.46435	0.01899
842.17858	0.01890
840.89281	0.01888
839.60704	0.01884
838.32128	0.01872
837.03551	0.01853
835.74974	0.01832
834.46397	0.01814
833.17820	0.01803
831.89243	0.01794
830.60666	0.01783
829.32089	0.01771
828.03512	0.01758
826.74936	0.01746
825.46359	0.01734
824.17782	0.01723
822.89205	0.01717
821.60628	0.01717
820.32051	0.01723
819.03474	0.01731
817.74897	0.01739
816.46321	0.01745
815.17744	0.01743
813.89167	0.01734
812.60590	0.01720
811.32013	0.01705
810.03436	0.01694
808.74859	0.01687
807.46282	0.01684
806.17705	0.01682
804.89129	0.01677
803.60552	0.01667
802.31975	0.01656
801.03398	0.01648
799.74821	0.01647
798.46244	0.01651
797.17667	0.01658
795.89090	0.01667
794.60513	0.01675
793.31937	0.01682
792.03360	0.01688
790.74783	0.01696
789.46206	0.01702
788.17629	0.01707
786.89052	0.01707
785.60475	0.01706
784.31898	0.01708
783.03322	0.01713
781.74745	0.01718
780.46168	0.01719
779.17591	0.01716
777.89014	0.01711
776.60437	0.01704
775.31860	0.01695
774.03283	0.01689
772.74706	0.01690
771.46130	0.01697
770.17553	0.01706
768.88976	0.01713
767.60399	0.01716
766.31822	0.01721
765.03245	0.01730
763.74668	0.01740
762.46091	0.01738
761.17515	0.01720
759.88938	0.01695
758.60361	0.01679
757.31784	0.01684
756.03207	0.01701
754.74630	0.01715
753.46053	0.01716
752.17476	0.01708
750.88899	0.01701
749.60323	0.01701
748.31746	0.01712
747.03169	0.01728
745.74592	0.01738
744.46015	0.01733
743.17438	0.01718
741.88861	0.01706
740.60284	0.01706
739.31708	0.01711
738.03131	0.01712
736.74554	0.01712
735.45977	0.01715
734.17400	0.01719
732.88823	0.01720
731.60246	0.01720
730.31669	0.01726
729.03092	0.01739
727.74516	0.01751
726.45939	0.01758
725.17362	0.01758
723.88785	0.01751
722.60208	0.01745
721.31631	0.01739
720.03054	0.01734
718.74477	0.01733
717.45901	0.01738
716.17324	0.01746
714.88747	0.01751
713.60170	0.01753
712.31593	0.01756
711.03016	0.01762
709.74439	0.01769
708.45862	0.01772
707.17285	0.01767
705.88709	0.01756
704.60132	0.01746
703.31555	0.01740
702.02978	0.01742
700.74401	0.01749
699.45824	0.01762
698.17247	0.01774
696.88670	0.01783
695.60094	0.01787
694.31517	0.01787
693.02940	0.01785
691.74363	0.01779
690.45786	0.01768
689.17209	0.01753
687.88632	0.01742
686.60055	0.01738
685.31478	0.01743
684.02902	0.01749
682.74325	0.01751
681.45748	0.01748
680.17171	0.01743
678.88594	0.01741
677.60017	0.01744
676.31440	0.01750
675.02863	0.01753
673.74287	0.01751
672.45710	0.01748
671.17133	0.01748
669.88556	0.01752
668.59979	0.01759
667.31402	0.01767
666.02825	0.01764
664.74248	0.01751
663.45671	0.01733
662.17095	0.01715
660.88518	0.01702
659.59941	0.01695
658.31364	0.01690
657.02787	0.01689
655.74210	0.01693
654.45633	0.01704
653.17056	0.01715
651.88480	0.01721
650.59903	0.01719
649.31326	0.01711
648.02749	0.01700
646.74172	0.01690
645.45595	0.01685
644.17018	0.01685
642.88441	0.01684
641.59864	0.01677
640.31288	0.01664
639.02711	0.01653
637.74134	0.01651
636.45557	0.01660
635.16980	0.01677
633.88403	0.01694
632.59826	0.01703
631.31249	0.01708
630.02673	0.01741
628.74096	0.01789
627.45519	0.01736
626.16942	0.01814
624.88365	0.01986
623.59788	0.02142
622.31211	0.02234
621.02634	0.02301
619.74057	0.02424
618.45481	0.02614
617.16904	0.02797
615.88327	0.02898
614.59750	0.02919
613.31173	0.02941
612.02596	0.03083
610.74019	0.03402
609.45442	0.03817
608.16866	0.04174
606.88289	0.04409
605.59712	0.04568
604.31135	0.04692
603.02558	0.04756
601.73981	0.04727
600.45404	0.04622
599.16827	0.04487
597.88250	0.04355
596.59674	0.04227
595.31097	0.04096
594.02520	0.03967
592.73943	0.03859
591.45366	0.03789
590.16789	0.03759
588.88212	0.03754
587.59635	0.03768
586.31059	0.03800
585.02482	0.03854
583.73905	0.03924
582.45328	0.04002
581.16751	0.04088
579.88174	0.04191
578.59597	0.04318
577.31020	0.04461
576.02443	0.04603
574.73867	0.04730
573.45290	0.04841
572.16713	0.04944
570.88136	0.05046
569.59559	0.05148
568.30982	0.05254
567.02405	0.05374
565.73828	0.05506
564.45251	0.05628
563.16675	0.05714
561.88098	0.05741
560.59521	0.05704
559.30944	0.05607
558.02367	0.05468
556.73790	0.05303
555.45213	0.05123
554.16636	0.04926
552.88060	0.04710
551.59483	0.04485
550.30906	0.04265
549.02329	0.04064
547.73752	0.03892
546.45175	0.03752
545.16598	0.03639
543.88021	0.03540
542.59444	0.03447
541.30868	0.03358
540.02291	0.03275
538.73714	0.03194
537.45137	0.03111
536.16560	0.03029
534.87983	0.02953
533.59406	0.02886
532.30829	0.02823
531.02253	0.02758
529.73676	0.02694
528.45099	0.02635
527.16522	0.02584
525.87945	0.02539
524.59368	0.02497
523.30791	0.02457
522.02214	0.02421
520.73637	0.02393
519.45061	0.02372
518.16484	0.02353
516.87907	0.02325
515.59330	0.02285
514.30753	0.02238
513.02176	0.02197
511.73599	0.02166
510.45022	0.02140
509.16446	0.02112
507.87869	0.02079
506.59292	0.02044
505.30715	0.02013
504.02138	0.01988
502.73561	0.01967
501.44984	0.01949
500.16407	0.01933
498.87830	0.01918
497.59254	0.01899
496.30677	0.01874
495.02100	0.01848
493.73523	0.01831
492.44946	0.01826
491.16369	0.01825
489.87792	0.01817
488.59215	0.01800
487.30639	0.01780
486.02062	0.01767
484.73485	0.01762
483.44908	0.01761
482.16331	0.01756
480.87754	0.01749
479.59177	0.01744
478.30600	0.01747
477.02023	0.01758
475.73447	0.01771
474.44870	0.01780
473.16293	0.01782
471.87716	0.01779
470.59139	0.01777
469.30562	0.01775
468.01985	0.01767
466.73408	0.01752
465.44832	0.01729
464.16255	0.01702
462.87678	0.01675
461.59101	0.01652
460.30524	0.01634
459.01947	0.01620
457.73370	0.01609
456.44793	0.01598
455.16216	0.01582
453.87640	0.01560
452.59063	0.01532
451.30486	0.01506
450.01909	0.01485
448.73332	0.01469
447.44755	0.01455
446.16178	0.01440
444.87601	0.01423
443.59025	0.01406
442.30448	0.01390
441.01871	0.01379
439.73294	0.01373
438.44717	0.01369
437.16140	0.01365
435.87563	0.01360
434.58986	0.01355
433.30409	0.01351
432.01833	0.01349
430.73256	0.01347
429.44679	0.01344
428.16102	0.01340
426.87525	0.01334
425.58948	0.01329
424.30371	0.01323
423.01794	0.01314
421.73218	0.01301
420.44641	0.01286
419.16064	0.01275
417.87487	0.01270
416.58910	0.01268
415.30333	0.01263
414.01756	0.01257
412.73179	0.01248
411.44602	0.01238
410.16026	0.01229
408.87449	0.01224
407.58872	0.01221
406.30295	0.01218
405.01718	0.01212
403.73141	0.01207
402.44564	0.01203
401.15987	0.01202
399.87411	0.01204
