3997.45528	0.03760
3996.16951	0.03856
3994.88374	0.03959
3993.59798	0.04052
3992.31221	0.04115
3991.02644	0.04149
3989.74067	0.04172
3988.45490	0.04204
3987.16913	0.04245
3985.88336	0.04266
3984.59759	0.04236
3983.31183	0.04154
3982.02606	0.04068
3980.74029	0.04032
3979.45452	0.04064
3978.16875	0.04131
3976.88298	0.04185
3975.59721	0.04200
3974.31144	0.04184
3973.02567	0.04155
3971.73991	0.04131
3970.45414	0.04114
3969.16837	0.04100
3967.88260	0.04085
3966.59683	0.04063
3965.31106	0.04038
3964.02529	0.04013
3962.73952	0.03987
3961.45376	0.03963
3960.16799	0.03942
3958.88222	0.03919
3957.59645	0.03887
3956.31068	0.03850
3955.02491	0.03820
3953.73914	0.03814
3952.45337	0.03834
3951.16760	0.03868
3949.88184	0.03895
3948.59607	0.03905
3947.31030	0.03911
3946.02453	0.03929
3944.73876	0.03961
3943.45299	0.03996
3942.16722	0.04013
3940.88145	0.03994
3939.59569	0.03937
3938.30992	0.03863
3937.02415	0.03810
3935.73838	0.03795
3934.45261	0.03806
3933.16684	0.03822
3931.88107	0.03836
3930.59530	0.03857
3929.30953	0.03895
3928.02377	0.03941
3926.73800	0.03957
3925.45223	0.03913
3924.16646	0.03829
3922.88069	0.03758
3921.59492	0.03736
3920.30915	0.03756
3919.02338	0.03784
3917.73762	0.03792
3916.45185	0.03775
3915.16608	0.03747
3913.88031	0.03729
3912.59454	0.03730
3911.30877	0.03734
3910.02300	0.03719
3908.73723	0.03694
3907.45146	0.03690
3906.16570	0.03720
3904.87993	0.03772
3903.59416	0.03823
3902.30839	0.03860
3901.02262	0.03872
3899.73685	0.03859
3898.45108	0.03830
3897.16531	0.03796
3895.87955	0.03767
3894.59378	0.03752
3893.30801	0.03751
3892.02224	0.03763
3890.73647	0.03796
3889.45070	0.03835
3888.16493	0.03843
3886.87916	0.03815
3885.59339	0.03796
3884.30763	0.03811
3883.02186	0.03832
3881.73609	0.03822
3880.45032	0.03798
3879.16455	0.03792
3877.87878	0.03796
3876.59301	0.03781
3875.30724	0.03747
3874.02148	0.03727
3872.73571	0.03725
3871.44994	0.03722
3870.16417	0.03727
3868.87840	0.03764
3867.59263	0.03815
3866.30686	0.03840
3865.02109	0.03835
3863.73532	0.03810
3862.44956	0.03763
3861.16379	0.03704
3859.87802	0.03660
3858.59225	0.03661
3857.30648	0.03701
3856.02071	0.03749
3854.73494	0.03778
3853.44917	0.03794
3852.16341	0.03804
3850.87764	0.03802
3849.59187	0.03794
3848.30610	0.03794
3847.02033	0.03797
3845.73456	0.03789
3844.44879	0.03768
3843.16302	0.03740
3841.87725	0.03704
3840.59149	0.03645
3839.30572	0.03566
3838.01995	0.03512
3836.73418	0.03523
3835.44841	0.03580
3834.16264	0.03633
3832.87687	0.03659
3831.59110	0.03661
3830.30534	0.03652
3829.01957	0.03643
3827.73380	0.03642
3826.44803	0.03659
3825.16226	0.03685
3823.87649	0.03691
3822.59072	0.03682
3821.30495	0.03705
3820.01918	0.03771
3818.73342	0.03817
3817.44765	0.03784
3816.16188	0.03714
3814.87611	0.03670
3813.59034	0.03652
3812.30457	0.03634
3811.01880	0.03626
3809.73303	0.03644
3808.44726	0.03678
3807.16150	0.03732
3805.87573	0.03804
3804.58996	0.03855
3803.30419	0.03843
3802.01842	0.03788
3800.73265	0.03737
3799.44688	0.03691
3798.16111	0.03625
3796.87535	0.03560
3795.58958	0.03536
3794.30381	0.03552
3793.01804	0.03574
3791.73227	0.03579
3790.44650	0.03569
3789.16073	0.03555
3787.87496	0.03536
3786.58919	0.03489
3785.30343	0.03410
3784.01766	0.03337
3782.73189	0.03322
3781.44612	0.03380
3780.16035	0.03478
3778.87458	0.03575
3777.58881	0.03642
3776.30304	0.03670
3775.01728	0.03668
3773.73151	0.03647
3772.44574	0.03607
3771.15997	0.03554
3769.87420	0.03517
3768.58843	0.03514
3767.30266	0.03532
3766.01689	0.03543
3764.73112	0.03542
3763.44536	0.03538
3762.15959	0.03537
3760.87382	0.03535
3759.58805	0.03522
3758.30228	0.03484
3757.01651	0.03430
3755.73074	0.03373
3754.44497	0.03311
3753.15921	0.03259
3751.87344	0.03254
3750.58767	0.03319
3749.30190	0.03438
3748.01613	0.03549
3746.73036	0.03559
3745.44459	0.03467
3744.15882	0.03399
3742.87305	0.03433
3741.58729	0.03516
3740.30152	0.03571
3739.01575	0.03574
3737.72998	0.03537
3736.44421	0.03493
3735.15844	0.03466
3733.87267	0.03448
3732.58690	0.03423
3731.30114	0.03400
3730.01537	0.03386
3728.72960	0.03373
3727.44383	0.03360
3726.15806	0.03350
3724.87229	0.03323
3723.58652	0.03270
3722.30075	0.03220
3721.01498	0.03211
3719.72922	0.03250
3718.44345	0.03321
3717.15768	0.03408
3715.87191	0.03481
3714.58614	0.03495
3713.30037	0.03431
3712.01460	0.03335
3710.72883	0.03275
3709.44307	0.03283
3708.15730	0.03338
3706.87153	0.03388
3705.58576	0.03392
3704.29999	0.03357
3703.01422	0.03323
3701.72845	0.03320
3700.44268	0.03332
3699.15691	0.03325
3697.87115	0.03284
3696.58538	0.03232
3695.29961	0.03203
3694.01384	0.03207
3692.72807	0.03244
3691.44230	0.03296
3690.15653	0.03322
3688.87076	0.03286
3687.58500	0.03199
3686.29923	0.03117
3685.01346	0.03091
3683.72769	0.03143
3682.44192	0.03245
3681.15615	0.03347
3679.87038	0.03422
3678.58461	0.03463
3677.29884	0.03468
3676.01308	0.03463
3674.72731	0.03479
3673.44154	0.03503
3672.15577	0.03509
3670.87000	0.03528
3669.58423	0.03584
3668.29846	0.03613
3667.01269	0.03546
3665.72693	0.03408
3664.44116	0.03282
3663.15539	0.03220
3661.86962	0.03217
3660.58385	0.03244
3659.29808	0.03270
3658.01231	0.03280
3656.72654	0.03289
3655.44077	0.03332
3654.15501	0.03420
3652.86924	0.03528
3651.58347	0.03620
3650.29770	0.03672
3649.01193	0.03669
3647.72616	0.03625
3646.44039	0.03569
3645.15462	0.03517
3643.86886	0.03466
3642.58309	0.03417
3641.29732	0.03390
3640.01155	0.03406
3638.72578	0.03458
3637.44001	0.03510
3636.15424	0.03523
3634.86847	0.03491
3633.58270	0.03446
3632.29694	0.03415
3631.01117	0.03396
3629.72540	0.03388
3628.43963	0.03406
3627.15386	0.03438
3625.86809	0.03457
3624.58232	0.03463
3623.29655	0.03473
3622.01079	0.03481
3620.72502	0.03479
3619.43925	0.03477
3618.15348	0.03482
3616.86771	0.03475
3615.58194	0.03445
3614.29617	0.03418
3613.01040	0.03429
3611.72463	0.03475
3610.43887	0.03522
3609.15310	0.03557
3607.86733	0.03594
3606.58156	0.03638
3605.29579	0.03672
3604.01002	0.03693
3602.72425	0.03713
3601.43848	0.03737
3600.15272	0.03742
3598.86695	0.03695
3597.58118	0.03592
3596.29541	0.03474
3595.00964	0.03405
3593.72387	0.03420
3592.43810	0.03504
3591.15233	0.03601
3589.86656	0.03662
3588.58080	0.03671
3587.29503	0.03646
3586.00926	0.03613
3584.72349	0.03592
3583.43772	0.03591
3582.15195	0.03618
3580.86618	0.03677
3579.58041	0.03753
3578.29464	0.03817
3577.00888	0.03851
3575.72311	0.03863
3574.43734	0.03885
3573.15157	0.03940
3571.86580	0.04019
3570.58003	0.04088
3569.29426	0.04117
3568.00849	0.04103
3566.72273	0.04062
3565.43696	0.04007
3564.15119	0.03944
3562.86542	0.03895
3561.57965	0.03884
3560.29388	0.03912
3559.00811	0.03951
3557.72234	0.03975
3556.43657	0.03980
3555.15081	0.03973
3553.86504	0.03961
3552.57927	0.03956
3551.29350	0.03969
3550.00773	0.04002
3548.72196	0.04048
3547.43619	0.04104
3546.15042	0.04168
3544.86466	0.04226
3543.57889	0.04258
3542.29312	0.04259
3541.00735	0.04252
3539.72158	0.04254
3538.43581	0.04263
3537.15004	0.04264
3535.86427	0.04259
3534.57850	0.04261
3533.29274	0.04273
3532.00697	0.04282
3530.72120	0.04278
3529.43543	0.04271
3528.14966	0.04281
3526.86389	0.04307
3525.57812	0.04320
3524.29235	0.04302
3523.00659	0.04271
3521.72082	0.04264
3520.43505	0.04293
3519.14928	0.04331
3517.86351	0.04338
3516.57774	0.04307
3515.29197	0.04266
3514.00620	0.04257
3512.72043	0.04285
3511.43467	0.04326
3510.14890	0.04354
3508.86313	0.04374
3507.57736	0.04400
3506.29159	0.04430
3505.00582	0.04453
3503.72005	0.04464
3502.43428	0.04465
3501.14852	0.04454
3499.86275	0.04429
3498.57698	0.04406
3497.29121	0.04407
3496.00544	0.04443
3494.71967	0.04499
3493.43390	0.04542
3492.14813	0.04545
3490.86236	0.04505
3489.57660	0.04453
3488.29083	0.04425
3487.00506	0.04428
3485.71929	0.04441
3484.43352	0.04442
3483.14775	0.04440
3481.86198	0.04458
3480.57621	0.04503
3479.29045	0.04562
3478.00468	0.04620
3476.71891	0.04669
3475.43314	0.04710
3474.14737	0.04747
3472.86160	0.04781
3471.57583	0.04806
3470.29006	0.04825
3469.00429	0.04844
3467.71853	0.04868
3466.43276	0.04891
3465.14699	0.04894
3463.86122	0.04865
3462.57545	0.04809
3461.28968	0.04759
3460.00391	0.04749
3458.71814	0.04783
3457.43238	0.04826
3456.14661	0.04841
3454.86084	0.04833
3453.57507	0.04835
3452.28930	0.04865
3451.00353	0.04912
3449.71776	0.04953
3448.43199	0.04980
3447.14622	0.04999
3445.86046	0.05014
3444.57469	0.05023
3443.28892	0.05025
3442.00315	0.05026
3440.71738	0.05032
3439.43161	0.05042
3438.14584	0.05055
3436.86007	0.05059
3435.57431	0.05036
3434.28854	0.04981
3433.00277	0.04919
3431.71700	0.04882
3430.43123	0.04885
3429.14546	0.04910
3427.85969	0.04937
3426.57392	0.04960
3425.28815	0.04983
3424.00239	0.05003
3422.71662	0.05016
3421.43085	0.05020
3420.14508	0.05019
3418.85931	0.05012
3417.57354	0.05000
3416.28777	0.04994
3415.00200	0.05010
3413.71624	0.05057
3412.43047	0.05115
3411.14470	0.05150
3409.85893	0.05144
3408.57316	0.05107
3407.28739	0.05068
3406.00162	0.05055
3404.71585	0.05080
3403.43008	0.05139
3402.14432	0.05209
3400.85855	0.05264
3399.57278	0.05289
3398.28701	0.05282
3397.00124	0.05254
3395.71547	0.05222
3394.42970	0.05205
3393.14393	0.05215
3391.85817	0.05241
3390.57240	0.05248
3389.28663	0.05210
3388.00086	0.05140
3386.71509	0.05084
3385.42932	0.05084
3384.14355	0.05143
3382.85778	0.05229
3381.57201	0.05298
3380.28625	0.05327
3379.00048	0.05318
3377.71471	0.05285
3376.42894	0.05244
3375.14317	0.05204
3373.85740	0.05175
3372.57163	0.05170
3371.28586	0.05195
3370.00010	0.05241
3368.71433	0.05289
3367.42856	0.05325
3366.14279	0.05342
3364.85702	0.05335
3363.57125	0.05308
3362.28548	0.05274
3360.99971	0.05250
3359.71394	0.05250
3358.42818	0.05278
3357.14241	0.05335
3355.85664	0.05418
3354.57087	0.05504
3353.28510	0.05554
3351.99933	0.05545
3350.71356	0.05485
3349.42779	0.05410
3348.14202	0.05361
3346.85626	0.05352
3345.57049	0.05373
3344.28472	0.05399
3342.99895	0.05418
3341.71318	0.05432
3340.42741	0.05452
3339.14164	0.05479
3337.85587	0.05503
3336.57011	0.05512
3335.28434	0.05499
3333.99857	0.05467
3332.71280	0.05427
3331.42703	0.05394
3330.14126	0.05378
3328.85549	0.05379
3327.56972	0.05391
3326.28395	0.05409
3324.99819	0.05427
3323.71242	0.05429
3322.42665	0.05404
3321.14088	0.05357
3319.85511	0.05311
3318.56934	0.05290
3317.28357	0.05302
3315.99780	0.05339
3314.71204	0.05383
3313.42627	0.05417
3312.14050	0.05434
3310.85473	0.05443
3309.56896	0.05457
3308.28319	0.05479
3306.99742	0.05503
3305.71165	0.05516
3304.42588	0.05519
3303.14012	0.05525
3301.85435	0.05548
3300.56858	0.05582
3299.28281	0.05600
3297.99704	0.05575
3296.71127	0.05512
3295.42550	0.05446
3294.13973	0.05410
3292.85397	0.05409
3291.56820	0.05414
3290.28243	0.05400
3288.99666	0.05380
3287.71089	0.05388
3286.42512	0.05436
3285.13935	0.05490
3283.85358	0.05506
3282.56781	0.05477
3281.28205	0.05443
3279.99628	0.05452
3278.71051	0.05511
3277.42474	0.05583
3276.13897	0.05617
3274.85320	0.05594
3273.56743	0.05534
3272.28166	0.05471
3270.99590	0.05424
3269.71013	0.05397
3268.42436	0.05380
3267.13859	0.05362
3265.85282	0.05335
3264.56705	0.05305
3263.28128	0.05286
3261.99551	0.05281
3260.70974	0.05284
3259.42398	0.05288
3258.13821	0.05296
3256.85244	0.05315
3255.56667	0.05344
3254.28090	0.05372
3252.99513	0.05386
3251.70936	0.05381
3250.42359	0.05358
3249.13783	0.05323
3247.85206	0.05284
3246.56629	0.05256
3245.28052	0.05257
3243.99475	0.05284
3242.70898	0.05313
3241.42321	0.05314
3240.13744	0.05279
3238.85167	0.05230
3237.56591	0.05192
3236.28014	0.05177
3234.99437	0.05172
3233.70860	0.05167
3232.42283	0.05161
3231.13706	0.05165
3229.85129	0.05189
3228.56552	0.05225
3227.27976	0.05248
3225.99399	0.05238
3224.70822	0.05199
3223.42245	0.05167
3222.13668	0.05170
3220.85091	0.05202
3219.56514	0.05222
3218.27937	0.05201
3216.99360	0.05152
3215.70784	0.05118
3214.42207	0.05122
3213.13630	0.05141
3211.85053	0.05141
3210.56476	0.05117
3209.27899	0.05094
3207.99322	0.05091
3206.70745	0.05100
3205.42169	0.05101
3204.13592	0.05088
3202.85015	0.05077
3201.56438	0.05094
3200.27861	0.05139
3198.99284	0.05185
3197.70707	0.05201
3196.42130	0.05186
3195.13553	0.05158
3193.84977	0.05132
3192.56400	0.05102
3191.27823	0.05060
3189.99246	0.05022
3188.70669	0.05019
3187.42092	0.05054
3186.13515	0.05088
3184.84938	0.05077
3183.56362	0.05025
3182.27785	0.04977
3180.99208	0.04972
3179.70631	0.05002
3178.42054	0.05029
3177.13477	0.05013
3175.84900	0.04946
3174.56323	0.04859
3173.27746	0.04799
3171.99170	0.04792
3170.70593	0.04827
3169.42016	0.04873
3168.13439	0.04910
3166.84862	0.04931
3165.56285	0.04934
3164.27708	0.04914
3162.99131	0.04872
3161.70555	0.04824
3160.41978	0.04791
3159.13401	0.04781
3157.84824	0.04787
3156.56247	0.04791
3155.27670	0.04783
3153.99093	0.04765
3152.70516	0.04746
3151.41939	0.04734
3150.13363	0.04730
3148.84786	0.04727
3147.56209	0.04719
3146.27632	0.04704
3144.99055	0.04687
3143.70478	0.04675
3142.41901	0.04664
3141.13324	0.04652
3139.84748	0.04637
3138.56171	0.04624
3137.27594	0.04620
3135.99017	0.04622
3134.70440	0.04623
3133.41863	0.04621
3132.13286	0.04623
3130.84709	0.04641
3129.56132	0.04674
3128.27556	0.04707
3126.98979	0.04718
3125.70402	0.04694
3124.41825	0.04651
3123.13248	0.04611
3121.84671	0.04591
3120.56094	0.04593
3119.27517	0.04609
3117.98940	0.04629
3116.70364	0.04642
3115.41787	0.04644
3114.13210	0.04637
3112.84633	0.04628
3111.56056	0.04616
3110.27479	0.04588
3108.98902	0.04536
3107.70325	0.04477
3106.41749	0.04444
3105.13172	0.04462
3103.84595	0.04519
3102.56018	0.04578
3101.27441	0.04611
3099.98864	0.04621
3098.70287	0.04628
3097.41710	0.04643
3096.13133	0.04655
3094.84557	0.04649
3093.55980	0.04622
3092.27403	0.04585
3090.98826	0.04548
3089.70249	0.04517
3088.41672	0.04493
3087.13095	0.04474
3085.84518	0.04462
3084.55942	0.04464
3083.27365	0.04487
3081.98788	0.04528
3080.70211	0.04569
3079.41634	0.04592
3078.13057	0.04593
3076.84480	0.04583
3075.55903	0.04569
3074.27326	0.04547
3072.98750	0.04509
3071.70173	0.04470
3070.41596	0.04455
3069.13019	0.04472
3067.84442	0.04495
3066.55865	0.04488
3065.27288	0.04443
3063.98711	0.04388
3062.70135	0.04364
3061.41558	0.04387
3060.12981	0.04434
3058.84404	0.04464
3057.55827	0.04451
3056.27250	0.04402
3054.98673	0.04354
3053.70096	0.04338
3052.41519	0.04356
3051.12943	0.04387
3049.84366	0.04402
3048.55789	0.04388
3047.27212	0.04356
3045.98635	0.04333
3044.70058	0.04339
3043.41481	0.04373
3042.12904	0.04410
3040.84328	0.04427
3039.55751	0.04419
3038.27174	0.04401
3036.98597	0.04380
3035.70020	0.04357
3034.41443	0.04333
3033.12866	0.04318
3031.84289	0.04314
3030.55712	0.04310
3029.27136	0.04292
3027.98559	0.04258
3026.69982	0.04224
3025.41405	0.04204
3024.12828	0.04203
3022.84251	0.04210
3021.55674	0.04222
3020.27097	0.04241
3018.98521	0.04268
3017.69944	0.04287
3016.41367	0.04276
3015.12790	0.04237
3013.84213	0.04189
3012.55636	0.04155
3011.27059	0.04140
3009.98482	0.04134
3008.69905	0.04131
3007.41329	0.04127
3006.12752	0.04117
3004.84175	0.04097
3003.55598	0.04071
3002.27021	0.04048
3000.98444	0.04038
2999.69867	0.04048
2998.41290	0.04080
2997.12714	0.04123
2995.84137	0.04162
2994.55560	0.04183
2993.26983	0.04180
2991.98406	0.04159
2990.69829	0.04141
2989.41252	0.04143
2988.12675	0.04163
2986.84098	0.04182
2985.55522	0.04194
2984.26945	0.04209
2982.98368	0.04231
2981.69791	0.04244
2980.41214	0.04233
2979.12637	0.04200
2977.84060	0.04156
2976.55483	0.04118
2975.26907	0.04109
2973.98330	0.04144
2972.69753	0.04207
2971.41176	0.04264
2970.12599	0.04295
2968.84022	0.04307
2967.55445	0.04322
2966.26868	0.04359
2964.98291	0.04415
2963.69715	0.04467
2962.41138	0.04494
2961.12561	0.04500
2959.83984	0.04508
2958.55407	0.04534
2957.26830	0.04576
2955.98253	0.04616
2954.69676	0.04642
2953.41100	0.04657
2952.12523	0.04676
2950.83946	0.04708
2949.55369	0.04741
2948.26792	0.04758
2946.98215	0.04758
2945.69638	0.04755
2944.41061	0.04758
2943.12484	0.04762
2941.83908	0.04755
2940.55331	0.04734
2939.26754	0.04710
2937.98177	0.04700
2936.69600	0.04718
2935.41023	0.04759
2934.12446	0.04806
2932.83869	0.04845
2931.55293	0.04875
2930.26716	0.04898
2928.98139	0.04912
2927.69562	0.04913
2926.40985	0.04899
2925.12408	0.04877
2923.83831	0.04857
2922.55254	0.04849
2921.26677	0.04853
2919.98101	0.04858
2918.69524	0.04854
2917.40947	0.04842
2916.12370	0.04831
2914.83793	0.04824
2913.55216	0.04816
2912.26639	0.04801
2910.98062	0.04778
2909.69486	0.04749
2908.40909	0.04714
2907.12332	0.04667
2905.83755	0.04615
2904.55178	0.04574
2903.26601	0.04551
2901.98024	0.04538
2900.69447	0.04530
2899.40870	0.04529
2898.12294	0.04534
2896.83717	0.04530
2895.55140	0.04504
2894.26563	0.04462
2892.97986	0.04424
2891.69409	0.04402
2890.40832	0.04396
2889.12255	0.04395
2887.83678	0.04392
2886.55102	0.04385
2885.26525	0.04379
2883.97948	0.04376
2882.69371	0.04375
2881.40794	0.04376
2880.12217	0.04380
2878.83640	0.04384
2877.55063	0.04378
2876.26487	0.04361
2874.97910	0.04350
2873.69333	0.04363
2872.40756	0.04394
2871.12179	0.04417
2869.83602	0.04410
2868.55025	0.04384
2867.26448	0.04361
2865.97871	0.04352
2864.69295	0.04351
2863.40718	0.04348
2862.12141	0.04342
2860.83564	0.04330
2859.54987	0.04307
2858.26410	0.04272
2856.97833	0.04238
2855.69256	0.04228
2854.40680	0.04255
2853.12103	0.04305
2851.83526	0.04341
2850.54949	0.04337
2849.26372	0.04296
2847.97795	0.04245
2846.69218	0.04203
2845.40641	0.04167
2844.12064	0.04133
2842.83488	0.04105
2841.54911	0.04090
2840.26334	0.04083
2838.97757	0.04073
2837.69180	0.04050
2836.40603	0.04014
2835.12026	0.03974
2833.83449	0.03943
2832.54873	0.03924
2831.26296	0.03915
2829.97719	0.03907
2828.69142	0.03891
2827.40565	0.03868
2826.11988	0.03844
2824.83411	0.03828
2823.54834	0.03821
2822.26257	0.03813
2820.97681	0.03795
2819.69104	0.03777
2818.40527	0.03775
2817.11950	0.03786
2815.83373	0.03792
2814.54796	0.03772
2813.26219	0.03734
2811.97642	0.03703
2810.69066	0.03694
2809.40489	0.03697
2808.11912	0.03695
2806.83335	0.03678
2805.54758	0.03651
2804.26181	0.03624
2802.97604	0.03599
2801.69027	0.03579
2800.40450	0.03565
2799.11874	0.03557
2797.83297	0.03552
2796.54720	0.03547
2795.26143	0.03543
2793.97566	0.03539
2792.68989	0.03535
2791.40412	0.03530
2790.11835	0.03526
2788.83259	0.03525
2787.54682	0.03527
2786.26105	0.03530
2784.97528	0.03531
2783.68951	0.03529
2782.40374	0.03525
2781.11797	0.03521
2779.83220	0.03515
2778.54643	0.03502
2777.26067	0.03487
2775.97490	0.03478
2774.68913	0.03478
2773.40336	0.03480
2772.11759	0.03477
2770.83182	0.03466
2769.54605	0.03451
2768.26028	0.03439
2766.97452	0.03432
2765.68875	0.03433
2764.40298	0.03445
2763.11721	0.03465
2761.83144	0.03482
2760.54567	0.03485
2759.25990	0.03477
2757.97413	0.03469
2756.68836	0.03467
2755.40260	0.03468
2754.11683	0.03469
2752.83106	0.03467
2751.54529	0.03465
2750.25952	0.03458
2748.97375	0.03441
2747.68798	0.03410
2746.40221	0.03381
2745.11645	0.03371
2743.83068	0.03385
2742.54491	0.03405
2741.25914	0.03416
2739.97337	0.03419
2738.68760	0.03419
2737.40183	0.03415
2736.11606	0.03402
2734.83029	0.03384
2733.54453	0.03368
2732.25876	0.03354
2730.97299	0.03339
2729.68722	0.03325
2728.40145	0.03308
2727.11568	0.03285
2725.82991	0.03255
2724.54414	0.03232
2723.25838	0.03230
2721.97261	0.03254
2720.68684	0.03284
2719.40107	0.03294
2718.11530	0.03275
2716.82953	0.03242
2715.54376	0.03218
2714.25799	0.03215
2712.97222	0.03226
2711.68646	0.03233
2710.40069	0.03226
2709.11492	0.03208
2707.82915	0.03190
2706.54338	0.03180
2705.25761	0.03178
2703.97184	0.03183
2702.68607	0.03191
2701.40031	0.03203
2700.11454	0.03216
2698.82877	0.03227
2697.54300	0.03235
2696.25723	0.03240
2694.97146	0.03245
2693.68569	0.03248
2692.39992	0.03243
2691.11415	0.03230
2689.82839	0.03219
2688.54262	0.03221
2687.25685	0.03232
2685.97108	0.03237
2684.68531	0.03226
2683.39954	0.03204
2682.11377	0.03184
2680.82800	0.03175
2679.54224	0.03175
2678.25647	0.03178
2676.97070	0.03183
2675.68493	0.03184
2674.39916	0.03179
2673.11339	0.03169
2671.82762	0.03161
2670.54185	0.03157
2669.25608	0.03151
2667.97032	0.03137
2666.68455	0.03118
2665.39878	0.03109
2664.11301	0.03115
2662.82724	0.03132
2661.54147	0.03147
2660.25570	0.03153
2658.96993	0.03149
2657.68417	0.03135
2656.39840	0.03115
2655.11263	0.03096
2653.82686	0.03085
2652.54109	0.03084
2651.25532	0.03089
2649.96955	0.03096
2648.68378	0.03104
2647.39801	0.03109
2646.11225	0.03109
2644.82648	0.03102
2643.54071	0.03083
2642.25494	0.03049
2640.96917	0.03005
2639.68340	0.02964
2638.39763	0.02942
2637.11186	0.02945
2635.82609	0.02963
2634.54033	0.02980
2633.25456	0.02984
2631.96879	0.02976
2630.68302	0.02963
2629.39725	0.02955
2628.11148	0.02951
2626.82571	0.02945
2625.53994	0.02930
2624.25418	0.02903
2622.96841	0.02871
2621.68264	0.02839
2620.39687	0.02811
2619.11110	0.02791
2617.82533	0.02787
2616.53956	0.02805
2615.25379	0.02838
2613.96802	0.02866
2612.68226	0.02875
2611.39649	0.02861
2610.11072	0.02834
2608.82495	0.02810
2607.53918	0.02799
2606.25341	0.02797
2604.96764	0.02791
2603.68187	0.02773
2602.39611	0.02752
2601.11034	0.02742
2599.82457	0.02746
2598.53880	0.02748
2597.25303	0.02736
2595.96726	0.02716
2594.68149	0.02701
2593.39572	0.02687
2592.10995	0.02663
2590.82419	0.02631
2589.53842	0.02612
2588.25265	0.02618
2586.96688	0.02644
2585.68111	0.02673
2584.39534	0.02688
2583.10957	0.02678
2581.82380	0.02647
2580.53804	0.02606
2579.25227	0.02568
2577.96650	0.02543
2576.68073	0.02543
2575.39496	0.02567
2574.10919	0.02597
2572.82342	0.02609
2571.53765	0.02602
2570.25188	0.02596
2568.96612	0.02597
2567.68035	0.02591
2566.39458	0.02572
2565.10881	0.02552
2563.82304	0.02548
2562.53727	0.02551
2561.25150	0.02541
2559.96573	0.02517
2558.67997	0.02488
2557.39420	0.02461
2556.10843	0.02430
2554.82266	0.02401
2553.53689	0.02391
2552.25112	0.02402
2550.96535	0.02419
2549.67958	0.02424
2548.39381	0.02429
2547.10805	0.02457
2545.82228	0.02514
2544.53651	0.02580
2543.25074	0.02622
2541.96497	0.02630
2540.67920	0.02617
2539.39343	0.02607
2538.10766	0.02604
2536.82190	0.02597
2535.53613	0.02581
2534.25036	0.02567
2532.96459	0.02562
2531.67882	0.02550
2530.39305	0.02516
2529.10728	0.02468
2527.82151	0.02427
2526.53574	0.02410
2525.24998	0.02415
2523.96421	0.02428
2522.67844	0.02436
2521.39267	0.02430
2520.10690	0.02411
2518.82113	0.02389
2517.53536	0.02377
2516.24959	0.02376
2514.96383	0.02372
2513.67806	0.02359
2512.39229	0.02354
2511.10652	0.02372
2509.82075	0.02399
2508.53498	0.02402
2507.24921	0.02374
2505.96344	0.02334
2504.67767	0.02303
2503.39191	0.02285
2502.10614	0.02285
2500.82037	0.02305
2499.53460	0.02344
2498.24883	0.02385
2496.96306	0.02412
2495.67729	0.02414
2494.39152	0.02394
2493.10576	0.02359
2491.81999	0.02323
2490.53422	0.02299
2489.24845	0.02288
2487.96268	0.02290
2486.67691	0.02304
2485.39114	0.02327
2484.10537	0.02350
2482.81960	0.02368
2481.53384	0.02379
2480.24807	0.02385
2478.96230	0.02389
2477.67653	0.02389
2476.39076	0.02383
2475.10499	0.02376
2473.81922	0.02370
2472.53345	0.02365
2471.24769	0.02355
2469.96192	0.02340
2468.67615	0.02327
2467.39038	0.02325
2466.10461	0.02336
2464.81884	0.02351
2463.53307	0.02356
2462.24730	0.02341
2460.96153	0.02307
2459.67577	0.02265
2458.39000	0.02230
2457.10423	0.02212
2455.81846	0.02221
2454.53269	0.02258
2453.24692	0.02308
2451.96115	0.02351
2450.67538	0.02368
2449.38962	0.02356
2448.10385	0.02324
2446.81808	0.02284
2445.53231	0.02246
2444.24654	0.02215
2442.96077	0.02193
2441.67500	0.02185
2440.38923	0.02193
2439.10346	0.02207
2437.81770	0.02211
2436.53193	0.02198
2435.24616	0.02185
2433.96039	0.02185
2432.67462	0.02195
2431.38885	0.02200
2430.10308	0.02192
2428.81731	0.02178
2427.53155	0.02163
2426.24578	0.02150
2424.96001	0.02141
2423.67424	0.02136
2422.38847	0.02136
2421.10270	0.02146
2419.81693	0.02167
2418.53116	0.02193
2417.24539	0.02209
2415.95963	0.02216
2414.67386	0.02231
2413.38809	0.02266
2412.10232	0.02307
2410.81655	0.02327
2409.53078	0.02314
2408.24501	0.02283
2406.95924	0.02255
2405.67347	0.02247
2404.38771	0.02258
2403.10194	0.02278
2401.81617	0.02283
2400.53040	0.02254
2399.24463	0.02190
2397.95886	0.02122
2396.67309	0.02085
2395.38732	0.02094
2394.10156	0.02134
2392.81579	0.02169
2391.53002	0.02178
2390.24425	0.02165
2388.95848	0.02154
2387.67271	0.02167
2386.38694	0.02203
2385.10117	0.02238
2383.81540	0.02257
2382.52964	0.02263
2381.24387	0.02266
2379.95810	0.02274
2378.67233	0.02265
2377.38656	0.02252
2376.10079	0.02264
2374.81502	0.02294
2373.52925	0.02280
2372.24349	0.02225
2370.95772	0.02182
2369.67195	0.02169
2368.38618	0.02172
2367.10041	0.02169
2365.81464	0.02172
2364.52887	0.02180
2363.24310	0.02191
2361.95733	0.02197
2360.67157	0.02188
2359.38580	0.02184
2358.10003	0.02198
2356.81426	0.02231
2355.52849	0.02287
2354.24272	0.02363
2352.95695	0.02427
2351.67118	0.02422
2350.38542	0.02383
2349.09965	0.02364
2347.81388	0.02349
2346.52811	0.02307
2345.24234	0.02284
2343.95657	0.02323
2342.67080	0.02417
2341.38503	0.02388
2340.09926	0.02270
2338.81350	0.02268
2337.52773	0.02363
2336.24196	0.02343
2334.95619	0.02272
2333.67042	0.02287
2332.38465	0.02365
2331.09888	0.02285
2329.81311	0.02273
2328.52735	0.02365
2327.24158	0.02402
2325.95581	0.02430
2324.67004	0.02478
2323.38427	0.02518
2322.09850	0.02464
2320.81273	0.02404
2319.52696	0.02348
2318.24119	0.02308
2316.95543	0.02297
2315.66966	0.02298
2314.38389	0.02321
2313.09812	0.02345
2311.81235	0.02344
2310.52658	0.02334
2309.24081	0.02308
2307.95504	0.02256
2306.66928	0.02212
2305.38351	0.02185
2304.09774	0.02179
2302.81197	0.02175
2301.52620	0.02156
2300.24043	0.02134
2298.95466	0.02118
2297.66889	0.02115
2296.38312	0.02116
2295.09736	0.02118
2293.81159	0.02126
2292.52582	0.02141
2291.24005	0.02157
2289.95428	0.02160
2288.66851	0.02133
2287.38274	0.02078
2286.09697	0.02017
2284.81121	0.01982
2283.52544	0.01986
2282.23967	0.02015
2280.95390	0.02044
2279.66813	0.02063
2278.38236	0.02077
2277.09659	0.02090
2275.81082	0.02092
2274.52505	0.02071
2273.23929	0.02030
2271.95352	0.01986
2270.66775	0.01950
2269.38198	0.01913
2268.09621	0.01860
2266.81044	0.01796
2265.52467	0.01743
2264.23890	0.01720
2262.95314	0.01714
2261.66737	0.01703
2260.38160	0.01689
2259.09583	0.01687
2257.81006	0.01708
2256.52429	0.01743
2255.23852	0.01778
2253.95275	0.01804
2252.66698	0.01811
2251.38122	0.01787
2250.09545	0.01734
2248.80968	0.01668
2247.52391	0.01610
2246.23814	0.01576
2244.95237	0.01566
2243.66660	0.01568
2242.38083	0.01562
2241.09507	0.01537
2239.80930	0.01512
2238.52353	0.01526
2237.23776	0.01594
2235.95199	0.01682
2234.66622	0.01729
2233.38045	0.01706
2232.09468	0.01640
2230.80891	0.01577
2229.52315	0.01528
2228.23738	0.01467
2226.95161	0.01394
2225.66584	0.01350
2224.38007	0.01361
2223.09430	0.01407
2221.80853	0.01452
2220.52276	0.01486
2219.23700	0.01523
2217.95123	0.01558
2216.66546	0.01570
2215.37969	0.01540
2214.09392	0.01467
2212.80815	0.01373
2211.52238	0.01309
2210.23661	0.01316
2208.95084	0.01371
2207.66508	0.01387
2206.37931	0.01302
2205.09354	0.01154
2203.80777	0.01050
2202.52200	0.01059
2201.23623	0.01160
2199.95046	0.01278
2198.66469	0.01354
2197.37893	0.01373
2196.09316	0.01336
2194.80739	0.01241
2193.52162	0.01109
2192.23585	0.00981
2190.95008	0.00894
2189.66431	0.00853
2188.37854	0.00851
2187.09277	0.00890
2185.80701	0.00970
2184.52124	0.01064
2183.23547	0.01121
2181.94970	0.01114
2180.66393	0.01077
2179.37816	0.01072
2178.09239	0.01130
2176.80662	0.01213
2175.52085	0.01256
2174.23509	0.01220
2172.94932	0.01128
2171.66355	0.01035
2170.37778	0.00996
2169.09201	0.01018
2167.80624	0.01058
2166.52047	0.01052
2165.23470	0.00981
2163.94894	0.00891
2162.66317	0.00840
2161.37740	0.00841
2160.09163	0.00853
2158.80586	0.00839
2157.52009	0.00788
2156.23432	0.00716
2154.94855	0.00654
2153.66278	0.00636
2152.37702	0.00673
2151.09125	0.00730
2149.80548	0.00764
2148.51971	0.00766
2147.23394	0.00774
2145.94817	0.00824
2144.66240	0.00911
2143.37663	0.00989
2142.09087	0.01013
2140.80510	0.00989
2139.51933	0.00971
2138.23356	0.01014
2136.94779	0.01114
2135.66202	0.01208
2134.37625	0.01237
2133.09048	0.01205
2131.80471	0.01160
2130.51895	0.01137
2129.23318	0.01132
2127.94741	0.01128
2126.66164	0.01132
2125.37587	0.01158
2124.09010	0.01208
2122.80433	0.01266
2121.51856	0.01319
2120.23280	0.01353
2118.94703	0.01354
2117.66126	0.01330
2116.37549	0.01304
2115.08972	0.01294
2113.80395	0.01294
2112.51818	0.01293
2111.23241	0.01299
2109.94664	0.01318
2108.66088	0.01334
2107.37511	0.01320
2106.08934	0.01266
2104.80357	0.01198
2103.51780	0.01156
2102.23203	0.01160
2100.94626	0.01203
2099.66049	0.01305
2098.37473	0.01358
2097.08896	0.01356
2095.80319	0.01333
2094.51742	0.01310
2093.23165	0.01289
2091.94588	0.01262
2090.66011	0.01224
2089.37434	0.01185
2088.08857	0.01161
2086.80281	0.01158
2085.51704	0.01172
2084.23127	0.01201
2082.94550	0.01244
2081.65973	0.01285
2080.37396	0.01304
2079.08819	0.01294
2077.80242	0.01281
2076.51666	0.01292
2075.23089	0.01329
2073.94512	0.01364
2072.65935	0.01372
2071.37358	0.01352
2070.08781	0.01312
2068.80204	0.01246
2067.51627	0.01149
2066.23050	0.01039
2064.94474	0.00948
2063.65897	0.00903
2062.37320	0.00903
2061.08743	0.00928
2059.80166	0.00961
2058.51589	0.00987
2057.23012	0.00992
2055.94435	0.00974
2054.65859	0.00948
2053.37282	0.00938
2052.08705	0.00949
2050.80128	0.00964
2049.51551	0.00973
2048.22974	0.00989
2046.94397	0.01038
2045.65820	0.01109
2044.37243	0.01148
2043.08667	0.01100
2041.80090	0.00963
2040.51513	0.00805
2039.22936	0.00699
2037.94359	0.00672
2036.65782	0.00706
2035.37205	0.00780
2034.08628	0.00883
2032.80052	0.00979
2031.51475	0.01022
2030.22898	0.00993
2028.94321	0.00919
2027.65744	0.00849
2026.37167	0.00813
2025.08590	0.00807
2023.80013	0.00810
2022.51436	0.00798
2021.22860	0.00767
2019.94283	0.00726
2018.65706	0.00680
2017.37129	0.00637
2016.08552	0.00614
2014.79975	0.00630
2013.51398	0.00684
2012.22821	0.00747
2010.94245	0.00783
2009.65668	0.00765
2008.37091	0.00693
2007.08514	0.00606
2005.79937	0.00555
2004.51360	0.00573
2003.22783	0.00655
2001.94206	0.00769
2000.65629	0.00875
1999.37053	0.00933
1998.08476	0.00926
1996.79899	0.00880
1995.51322	0.00852
1994.22745	0.00874
1992.94168	0.00922
1991.65591	0.00946
1990.37014	0.00916
1989.08438	0.00843
1987.79861	0.00769
1986.51284	0.00739
1985.22707	0.00774
1983.94130	0.00849
1982.65553	0.00916
1981.36976	0.00931
1980.08399	0.00888
1978.79822	0.00817
1977.51246	0.00767
1976.22669	0.00764
1974.94092	0.00789
1973.65515	0.00796
1972.36938	0.00764
1971.08361	0.00718
1969.79784	0.00699
1968.51207	0.00720
1967.22631	0.00763
1965.94054	0.00809
1964.65477	0.00860
1963.36900	0.00923
1962.08323	0.00991
1960.79746	0.01039
1959.51169	0.01056
1958.22592	0.01047
1956.94015	0.01021
1955.65439	0.00984
1954.36862	0.00956
1953.08285	0.00965
1951.79708	0.01023
1950.51131	0.01106
1949.22554	0.01166
1947.93977	0.01179
1946.65400	0.01164
1945.36823	0.01156
1944.08247	0.01162
1942.79670	0.01163
1941.51093	0.01147
1940.22516	0.01135
1938.93939	0.01148
1937.65362	0.01184
1936.36785	0.01220
1935.08208	0.01237
1933.79632	0.01232
1932.51055	0.01209
1931.22478	0.01179
1929.93901	0.01163
1928.65324	0.01177
1927.36747	0.01217
1926.08170	0.01255
1924.79593	0.01265
1923.51016	0.01249
1922.22440	0.01228
1920.93863	0.01220
1919.65286	0.01219
1918.36709	0.01219
1917.08132	0.01224
1915.79555	0.01241
1914.50978	0.01274
1913.22401	0.01314
1911.93825	0.01346
1910.65248	0.01347
1909.36671	0.01306
1908.08094	0.01246
1906.79517	0.01206
1905.50940	0.01211
1904.22363	0.01243
1902.93786	0.01266
1901.65209	0.01261
1900.36633	0.01238
1899.08056	0.01218
1897.79479	0.01209
1896.50902	0.01200
1895.22325	0.01185
1893.93748	0.01166
1892.65171	0.01159
1891.36594	0.01179
1890.08018	0.01223
1888.79441	0.01270
1887.50864	0.01301
1886.22287	0.01312
1884.93710	0.01309
1883.65133	0.01300
1882.36556	0.01287
1881.07979	0.01273
1879.79402	0.01265
1878.50826	0.01265
1877.22249	0.01265
1875.93672	0.01260
1874.65095	0.01251
1873.36518	0.01249
1872.07941	0.01261
1870.79364	0.01281
1869.50787	0.01296
1868.22211	0.01301
1866.93634	0.01303
1865.65057	0.01307
1864.36480	0.01309
1863.07903	0.01294
1861.79326	0.01261
1860.50749	0.01229
1859.22172	0.01218
1857.93595	0.01226
1856.65019	0.01237
1855.36442	0.01240
1854.07865	0.01237
1852.79288	0.01237
1851.50711	0.01245
1850.22134	0.01260
1848.93557	0.01278
1847.64980	0.01292
1846.36404	0.01298
1845.07827	0.01296
1843.79250	0.01300
1842.50673	0.01312
1841.22096	0.01319
1839.93519	0.01313
1838.64942	0.01298
1837.36365	0.01283
1836.07788	0.01272
1834.79212	0.01268
1833.50635	0.01272
1832.22058	0.01283
1830.93481	0.01299
1829.64904	0.01321
1828.36327	0.01343
1827.07750	0.01355
1825.79173	0.01357
1824.50597	0.01356
1823.22020	0.01356
1821.93443	0.01354
1820.64866	0.01347
1819.36289	0.01331
1818.07712	0.01306
1816.79135	0.01281
1815.50558	0.01267
1814.21981	0.01269
1812.93405	0.01279
1811.64828	0.01287
1810.36251	0.01292
1809.07674	0.01299
1807.79097	0.01310
1806.50520	0.01321
1805.21943	0.01324
1803.93366	0.01315
1802.64790	0.01298
1801.36213	0.01282
1800.07636	0.01277
1798.79059	0.01288
1797.50482	0.01311
1796.21905	0.01340
1794.93328	0.01361
1793.64751	0.01369
1792.36174	0.01370
1791.07598	0.01370
1789.79021	0.01369
1788.50444	0.01363
1787.21867	0.01356
1785.93290	0.01349
1784.64713	0.01346
1783.36136	0.01340
1782.07559	0.01328
1780.78983	0.01311
1779.50406	0.01301
1778.21829	0.01302
1776.93252	0.01312
1775.64675	0.01325
1774.36098	0.01333
1773.07521	0.01339
1771.78944	0.01354
1770.50367	0.01367
1769.21791	0.01365
1767.93214	0.01350
1766.64637	0.01339
1765.36060	0.01336
1764.07483	0.01335
1762.78906	0.01336
1761.50329	0.01344
1760.21752	0.01354
1758.93176	0.01356
1757.64599	0.01348
1756.36022	0.01345
1755.07445	0.01351
1753.78868	0.01356
1752.50291	0.01352
1751.21714	0.01350
1749.93137	0.01358
1748.64560	0.01373
1747.35984	0.01382
1746.07407	0.01381
1744.78830	0.01373
1743.50253	0.01361
1742.21676	0.01351
1740.93099	0.01347
1739.64522	0.01354
1738.35945	0.01377
1737.07369	0.01399
1735.78792	0.01402
1734.50215	0.01397
1733.21638	0.01405
1731.93061	0.01419
1730.64484	0.01419
1729.35907	0.01406
1728.07330	0.01396
1726.78753	0.01392
1725.50177	0.01388
1724.21600	0.01385
1722.93023	0.01392
1721.64446	0.01416
1720.35869	0.01445
1719.07292	0.01467
1717.78715	0.01486
1716.50138	0.01512
1715.21561	0.01541
1713.92985	0.01564
1712.64408	0.01577
1711.35831	0.01588
1710.07254	0.01603
1708.78677	0.01630
1707.50100	0.01666
1706.21523	0.01713
1704.92946	0.01772
1703.64370	0.01836
1702.35793	0.01887
1701.07216	0.01937
1699.78639	0.02014
1698.50062	0.02108
1697.21485	0.02181
1695.92908	0.02237
1694.64331	0.02303
1693.35754	0.02374
1692.07178	0.02430
1690.78601	0.02479
1689.50024	0.02546
1688.21447	0.02628
1686.92870	0.02705
1685.64293	0.02770
1684.35716	0.02843
1683.07139	0.02932
1681.78563	0.03016
1680.49986	0.03081
1679.21409	0.03139
1677.92832	0.03197
1676.64255	0.03255
1675.35678	0.03319
1674.07101	0.03400
1672.78524	0.03489
1671.49947	0.03568
1670.21371	0.03637
1668.92794	0.03702
1667.64217	0.03770
1666.35640	0.03836
1665.07063	0.03895
1663.78486	0.03949
1662.49909	0.04005
1661.21332	0.04063
1659.92756	0.04121
1658.64179	0.04189
1657.35602	0.04271
1656.07025	0.04350
1654.78448	0.04399
1653.49871	0.04427
1652.21294	0.04466
1650.92717	0.04517
1649.64140	0.04547
1648.35564	0.04550
1647.06987	0.04552
1645.78410	0.04568
1644.49833	0.04589
1643.21256	0.04597
1641.92679	0.04594
1640.64102	0.04590
1639.35525	0.04590
1638.06949	0.04582
1636.78372	0.04555
1635.49795	0.04519
1634.21218	0.04486
1632.92641	0.04452
1631.64064	0.04409
1630.35487	0.04361
1629.06910	0.04311
1627.78333	0.04261
1626.49757	0.04207
1625.21180	0.04144
1623.92603	0.04075
1622.64026	0.04013
1621.35449	0.03965
1620.06872	0.03919
1618.78295	0.03860
1617.49718	0.03789
1616.21142	0.03724
1614.92565	0.03673
1613.63988	0.03625
1612.35411	0.03576
1611.06834	0.03533
1609.78257	0.03495
1608.49680	0.03457
1607.21103	0.03420
1605.92526	0.03386
1604.63950	0.03357
1603.35373	0.03334
1602.06796	0.03316
1600.78219	0.03303
1599.49642	0.03293
1598.21065	0.03283
1596.92488	0.03271
1595.63911	0.03257
1594.35335	0.03244
1593.06758	0.03233
1591.78181	0.03226
1590.49604	0.03224
1589.21027	0.03228
1587.92450	0.03235
1586.63873	0.03244
1585.35296	0.03254
1584.06719	0.03265
1582.78143	0.03276
1581.49566	0.03293
1580.20989	0.03318
1578.92412	0.03343
1577.63835	0.03359
1576.35258	0.03377
1575.06681	0.03409
1573.78104	0.03445
1572.49528	0.03467
1571.20951	0.03478
1569.92374	0.03495
1568.63797	0.03527
1567.35220	0.03562
1566.06643	0.03592
1564.78066	0.03625
1563.49489	0.03669
1562.20912	0.03712
1560.92336	0.03739
1559.63759	0.03761
1558.35182	0.03792
1557.06605	0.03825
1555.78028	0.03835
1554.49451	0.03828
1553.20874	0.03827
1551.92297	0.03838
1550.63721	0.03851
1549.35144	0.03863
1548.06567	0.03875
1546.77990	0.03885
1545.49413	0.03896
1544.20836	0.03912
1542.92259	0.03928
1541.63682	0.03930
1540.35105	0.03922
1539.06529	0.03918
1537.77952	0.03922
1536.49375	0.03917
1535.20798	0.03894
1533.92221	0.03870
1532.63644	0.03860
1531.35067	0.03861
1530.06490	0.03862
1528.77914	0.03861
1527.49337	0.03863
1526.20760	0.03874
1524.92183	0.03889
1523.63606	0.03900
1522.35029	0.03903
1521.06452	0.03909
1519.77875	0.03924
1518.49298	0.03934
1517.20722	0.03935
1515.92145	0.03941
1514.63568	0.03957
1513.34991	0.03977
1512.06414	0.04004
1510.77837	0.04040
1509.49260	0.04075
1508.20683	0.04096
1506.92107	0.04107
1505.63530	0.04123
1504.34953	0.04144
1503.06376	0.04157
1501.77799	0.04160
1500.49222	0.04163
1499.20645	0.04168
1497.92068	0.04169
1496.63491	0.04171
1495.34915	0.04181
1494.06338	0.04197
1492.77761	0.04210
1491.49184	0.04219
1490.20607	0.04231
1488.92030	0.04249
1487.63453	0.04271
1486.34876	0.04296
1485.06299	0.04326
1483.77723	0.04358
1482.49146	0.04389
1481.20569	0.04422
1479.91992	0.04461
1478.63415	0.04509
1477.34838	0.04564
1476.06261	0.04625
1474.77684	0.04685
1473.49108	0.04740
1472.20531	0.04793
1470.91954	0.04847
1469.63377	0.04893
1468.34800	0.04932
1467.06223	0.04966
1465.77646	0.05000
1464.49069	0.05036
1463.20492	0.05077
1461.91916	0.05125
1460.63339	0.05179
1459.34762	0.05235
1458.06185	0.05285
1456.77608	0.05337
1455.49031	0.05390
1454.20454	0.05430
1452.91877	0.05454
1451.63301	0.05474
1450.34724	0.05501
1449.06147	0.05532
1447.77570	0.05555
1446.48993	0.05567
1445.20416	0.05566
1443.91839	0.05553
1442.63262	0.05530
1441.34685	0.05503
1440.06109	0.05472
1438.77532	0.05436
1437.48955	0.05400
1436.20378	0.05376
1434.91801	0.05366
1433.63224	0.05360
1432.34647	0.05355
1431.06070	0.05359
1429.77494	0.05379
1428.48917	0.05413
1427.20340	0.05455
1425.91763	0.05501
1424.63186	0.05555
1423.34609	0.05618
1422.06032	0.05682
1420.77455	0.05737
1419.48878	0.05783
1418.20302	0.05830
1416.91725	0.05875
1415.63148	0.05908
1414.34571	0.05929
1413.05994	0.05939
1411.77417	0.05939
1410.48840	0.05933
1409.20263	0.05923
1407.91687	0.05906
1406.63110	0.05877
1405.34533	0.05837
1404.05956	0.05788
1402.77379	0.05735
1401.48802	0.05674
1400.20225	0.05604
1398.91648	0.05528
1397.63071	0.05445
1396.34495	0.05353
1395.05918	0.05256
1393.77341	0.05162
1392.48764	0.05073
1391.20187	0.04987
1389.91610	0.04900
1388.63033	0.04814
1387.34456	0.04733
1386.05880	0.04655
1384.77303	0.04574
1383.48726	0.04492
1382.20149	0.04415
1380.91572	0.04344
1379.62995	0.04276
1378.34418	0.04202
1377.05841	0.04121
1375.77264	0.04032
1374.48688	0.03940
1373.20111	0.03850
1371.91534	0.03762
1370.62957	0.03675
1369.34380	0.03591
1368.05803	0.03511
1366.77226	0.03435
1365.48649	0.03361
1364.20073	0.03292
1362.91496	0.03230
1361.62919	0.03176
1360.34342	0.03128
1359.05765	0.03082
1357.77188	0.03038
1356.48611	0.02998
1355.20034	0.02962
1353.91457	0.02927
1352.62881	0.02890
1351.34304	0.02852
1350.05727	0.02816
1348.77150	0.02787
1347.48573	0.02765
1346.19996	0.02749
1344.91419	0.02738
1343.62842	0.02728
1342.34266	0.02719
1341.05689	0.02707
1339.77112	0.02690
1338.48535	0.02668
1337.19958	0.02643
1335.91381	0.02618
1334.62804	0.02594
1333.34227	0.02573
1332.05650	0.02555
1330.77074	0.02540
1329.48497	0.02529
1328.19920	0.02514
1326.91343	0.02492
1325.62766	0.02466
1324.34189	0.02444
1323.05612	0.02434
1321.77035	0.02431
1320.48459	0.02429
1319.19882	0.02419
1317.91305	0.02402
1316.62728	0.02381
1315.34151	0.02362
1314.05574	0.02348
1312.76997	0.02334
1311.48420	0.02318
1310.19843	0.02299
1308.91267	0.02279
1307.62690	0.02263
1306.34113	0.02249
1305.05536	0.02234
1303.76959	0.02217
1302.48382	0.02197
1301.19805	0.02177
1299.91228	0.02159
1298.62652	0.02145
1297.34075	0.02136
1296.05498	0.02130
1294.76921	0.02125
1293.48344	0.02120
1292.19767	0.02113
1290.91190	0.02104
1289.62613	0.02097
1288.34036	0.02091
1287.05460	0.02086
1285.76883	0.02083
1284.48306	0.02081
1283.19729	0.02079
1281.91152	0.02077
1280.62575	0.02071
1279.33998	0.02061
1278.05421	0.02049
1276.76845	0.02038
1275.48268	0.02031
1274.19691	0.02028
1272.91114	0.02030
1271.62537	0.02033
1270.33960	0.02037
1269.05383	0.02041
1267.76806	0.02043
1266.48229	0.02042
1265.19653	0.02036
1263.91076	0.02028
1262.62499	0.02021
1261.33922	0.02019
1260.05345	0.02019
1258.76768	0.02020
1257.48191	0.02020
1256.19614	0.02021
1254.91037	0.02024
1253.62461	0.02026
1252.33884	0.02027
1251.05307	0.02029
1249.76730	0.02032
1248.48153	0.02037
1247.19576	0.02042
1245.90999	0.02045
1244.62422	0.02042
1243.33846	0.02036
1242.05269	0.02031
1240.76692	0.02028
1239.48115	0.02028
1238.19538	0.02029
1236.90961	0.02029
1235.62384	0.02028
1234.33807	0.02025
1233.05230	0.02018
1231.76654	0.02007
1230.48077	0.01992
1229.19500	0.01976
1227.90923	0.01962
1226.62346	0.01950
1225.33769	0.01940
1224.05192	0.01928
1222.76615	0.01917
1221.48039	0.01910
1220.19462	0.01907
1218.90885	0.01905
1217.62308	0.01899
1216.33731	0.01887
1215.05154	0.01872
1213.76577	0.01858
1212.48000	0.01851
1211.19423	0.01853
1209.90847	0.01859
1208.62270	0.01867
1207.33693	0.01873
1206.05116	0.01880
1204.76539	0.01892
1203.47962	0.01908
1202.19385	0.01925
1200.90808	0.01935
1199.62232	0.01936
1198.33655	0.01945
1197.05078	0.01954
1195.76501	0.01960
1194.47924	0.01956
1193.19347	0.01944
1191.90770	0.01927
1190.62193	0.01912
1189.33616	0.01903
1188.05040	0.01898
1186.76463	0.01896
1185.47886	0.01896
1184.19309	0.01900
1182.90732	0.01905
1181.62155	0.01905
1180.33578	0.01901
1179.05001	0.01896
1177.76425	0.01893
1176.47848	0.01893
1175.19271	0.01900
1173.90694	0.01914
1172.62117	0.01934
1171.33540	0.01952
1170.04963	0.01963
1168.76386	0.01968
1167.47809	0.01973
1166.19233	0.01980
1164.90656	0.01990
1163.62079	0.01999
1162.33502	0.02004
1161.04925	0.02005
1159.76348	0.02007
1158.47771	0.02013
1157.19194	0.02025
1155.90618	0.02038
1154.62041	0.02054
1153.33464	0.02070
1152.04887	0.02087
1150.76310	0.02104
1149.47733	0.02121
1148.19156	0.02140
1146.90579	0.02168
1145.62002	0.02203
1144.33426	0.02242
1143.04849	0.02282
1141.76272	0.02320
1140.47695	0.02360
1139.19118	0.02411
1137.90541	0.02477
1136.61964	0.02556
1135.33387	0.02635
1134.04811	0.02707
1132.76234	0.02771
1131.47657	0.02838
1130.19080	0.02916
1128.90503	0.03011
1127.61926	0.03121
1126.33349	0.03246
1125.04772	0.03384
1123.76195	0.03535
1122.47619	0.03695
1121.19042	0.03865
1119.90465	0.04040
1118.61888	0.04216
1117.33311	0.04389
1116.04734	0.04560
1114.76157	0.04733
1113.47580	0.04914
1112.19004	0.05103
1110.90427	0.05293
1109.61850	0.05478
1108.33273	0.05653
1107.04696	0.05821
1105.76119	0.05986
1104.47542	0.06151
1103.18965	0.06318
1101.90388	0.06484
1100.61812	0.06648
1099.33235	0.06811
1098.04658	0.06968
1096.76081	0.07112
1095.47504	0.07238
1094.18927	0.07350
1092.90350	0.07456
1091.61773	0.07560
1090.33197	0.07663
1089.04620	0.07762
1087.76043	0.07858
1086.47466	0.07956
1085.18889	0.08062
1083.90312	0.08173
1082.61735	0.08284
1081.33158	0.08395
1080.04581	0.08509
1078.76005	0.08630
1077.47428	0.08758
1076.18851	0.08889
1074.90274	0.09024
1073.61697	0.09167
1072.33120	0.09318
1071.04543	0.09472
1069.75966	0.09624
1068.47390	0.09774
1067.18813	0.09927
1065.90236	0.10090
1064.61659	0.10266
1063.33082	0.10446
1062.04505	0.10621
1060.75928	0.10787
1059.47351	0.10941
1058.18774	0.11088
1056.90198	0.11228
1055.61621	0.11363
1054.33044	0.11498
1053.04467	0.11638
1051.75890	0.11783
1050.47313	0.11929
1049.18736	0.12076
1047.90159	0.12229
1046.61583	0.12392
1045.33006	0.12564
1044.04429	0.12737
1042.75852	0.12908
1041.47275	0.13073
1040.18698	0.13233
1038.90121	0.13389
1037.61544	0.13544
1036.32967	0.13699
1035.04391	0.13856
1033.75814	0.14011
1032.47237	0.14158
1031.18660	0.14293
1029.90083	0.14416
1028.61506	0.14527
1027.32929	0.14622
1026.04352	0.14695
1024.75775	0.14752
1023.47199	0.14800
1022.18622	0.14841
1020.90045	0.14867
1019.61468	0.14868
1018.32891	0.14840
1017.04314	0.14793
1015.75737	0.14737
1014.47160	0.14674
1013.18584	0.14598
1011.90007	0.14498
1010.61430	0.14367
1009.32853	0.14212
1008.04276	0.14041
1006.75699	0.13861
1005.47122	0.13666
1004.18545	0.13451
1002.89968	0.13215
1001.61392	0.12961
1000.32815	0.12698
999.04238	0.12428
997.75661	0.12153
996.47084	0.11871
995.18507	0.11584
993.89930	0.11295
992.61353	0.11006
991.32777	0.10713
990.04200	0.10415
988.75623	0.10118
987.47046	0.09832
986.18469	0.09558
984.89892	0.09291
983.61315	0.09029
982.32738	0.08778
981.04161	0.08547
979.75585	0.08332
978.47008	0.08122
977.18431	0.07908
975.89854	0.07699
974.61277	0.07506
973.32700	0.07338
972.04123	0.07197
970.75546	0.07079
969.46970	0.06980
968.18393	0.06906
966.89816	0.06861
965.61239	0.06849
964.32662	0.06862
963.04085	0.06881
961.75508	0.06890
960.46931	0.06883
959.18354	0.06857
957.89778	0.06808
956.61201	0.06729
955.32624	0.06623
954.04047	0.06503
952.75470	0.06379
951.46893	0.06253
950.18316	0.06125
948.89739	0.05999
947.61163	0.05881
946.32586	0.05770
945.04009	0.05657
943.75432	0.05538
942.46855	0.05421
941.18278	0.05314
939.89701	0.05217
938.61124	0.05123
937.32547	0.05027
936.03971	0.04930
934.75394	0.04836
933.46817	0.04748
932.18240	0.04668
930.89663	0.04594
929.61086	0.04525
928.32509	0.04459
927.03932	0.04392
925.75356	0.04323
924.46779	0.04256
923.18202	0.04198
921.89625	0.04151
920.61048	0.04111
919.32471	0.04071
918.03894	0.04027
916.75317	0.03980
915.46740	0.03936
914.18164	0.03897
912.89587	0.03868
911.61010	0.03846
910.32433	0.03825
909.03856	0.03796
907.75279	0.03756
906.46702	0.03710
905.18125	0.03670
903.89549	0.03643
902.60972	0.03620
901.32395	0.03586
900.03818	0.03537
898.75241	0.03479
897.46664	0.03425
896.18087	0.03379
894.89510	0.03340
893.60933	0.03311
892.32357	0.03293
891.03780	0.03281
889.75203	0.03274
888.46626	0.03277
887.18049	0.03302
885.89472	0.03361
884.60895	0.03457
883.32318	0.03577
882.03742	0.03702
880.75165	0.03822
879.46588	0.03928
878.18011	0.04018
876.89434	0.04100
875.60857	0.04182
874.32280	0.04266
873.03703	0.04336
871.75126	0.04368
870.46550	0.04352
869.17973	0.04292
867.89396	0.04200
866.60819	0.04091
865.32242	0.03977
864.03665	0.03866
862.75088	0.03758
861.46511	0.03653
860.17935	0.03557
858.89358	0.03478
857.60781	0.03415
856.32204	0.03364
855.03627	0.03319
853.75050	0.03276
852.46473	0.03233
851.17896	0.03192
849.89319	0.03153
848.60743	0.03119
847.32166	0.03090
846.03589	0.03062
844.75012	0.03035
843.46435	0.03011
842.17858	0.02994
840.89281	0.02984
839.60704	0.02977
838.32128	0.02971
837.03551	0.02964
835.74974	0.02951
834.46397	0.02933
833.17820	0.02914
831.89243	0.02896
830.60666	0.02881
829.32089	0.02865
828.03512	0.02848
826.74936	0.02838
825.46359	0.02839
824.17782	0.02847
822.89205	0.02854
821.60628	0.02855
820.32051	0.02846
819.03474	0.02826
817.74897	0.02799
816.46321	0.02772
815.17744	0.02755
813.89167	0.02752
812.60590	0.02758
811.32013	0.02767
810.03436	0.02771
808.74859	0.02767
807.46282	0.02757
806.17705	0.02748
804.89129	0.02746
803.60552	0.02754
802.31975	0.02768
801.03398	0.02781
799.74821	0.02788
798.46244	0.02788
797.17667	0.02784
795.89090	0.02783
794.60513	0.02781
793.31937	0.02776
792.03360	0.02765
790.74783	0.02753
789.46206	0.02746
788.17629	0.02745
786.89052	0.02749
785.60475	0.02752
784.31898	0.02751
783.03322	0.02747
781.74745	0.02742
780.46168	0.02739
779.17591	0.02734
777.89014	0.02729
776.60437	0.02730
775.31860	0.02742
774.03283	0.02760
772.74706	0.02772
771.46130	0.02769
770.17553	0.02757
768.88976	0.02747
767.60399	0.02743
766.31822	0.02745
765.03245	0.02747
763.74668	0.02747
762.46091	0.02744
761.17515	0.02737
759.88938	0.02731
758.60361	0.02728
757.31784	0.02729
756.03207	0.02730
754.74630	0.02732
753.46053	0.02736
752.17476	0.02740
750.88899	0.02736
749.60323	0.02719
748.31746	0.02699
747.03169	0.02691
745.74592	0.02701
744.46015	0.02720
743.17438	0.02730
741.88861	0.02723
740.60284	0.02710
739.31708	0.02703
738.03131	0.02706
736.74554	0.02709
735.45977	0.02702
734.17400	0.02687
732.88823	0.02672
731.60246	0.02662
730.31669	0.02660
729.03092	0.02661
727.74516	0.02664
726.45939	0.02669
725.17362	0.02677
723.88785	0.02687
722.60208	0.02696
721.31631	0.02701
720.03054	0.02699
718.74477	0.02697
717.45901	0.02699
716.17324	0.02707
714.88747	0.02717
713.60170	0.02721
712.31593	0.02720
711.03016	0.02716
709.74439	0.02715
708.45862	0.02715
707.17285	0.02714
705.88709	0.02708
704.60132	0.02699
703.31555	0.02690
702.02978	0.02684
700.74401	0.02685
699.45824	0.02691
698.17247	0.02701
696.88670	0.02708
695.60094	0.02706
694.31517	0.02700
693.02940	0.02695
691.74363	0.02695
690.45786	0.02699
689.17209	0.02703
687.88632	0.02705
686.60055	0.02704
685.31478	0.02700
684.02902	0.02691
682.74325	0.02674
681.45748	0.02658
680.17171	0.02650
678.88594	0.02650
677.60017	0.02655
676.31440	0.02658
675.02863	0.02659
673.74287	0.02663
672.45710	0.02671
671.17133	0.02683
669.88556	0.02695
668.59979	0.02704
667.31402	0.02710
666.02825	0.02707
664.74248	0.02697
663.45671	0.02681
662.17095	0.02664
660.88518	0.02649
659.59941	0.02642
658.31364	0.02641
657.02787	0.02641
655.74210	0.02640
654.45633	0.02636
653.17056	0.02635
651.88480	0.02640
650.59903	0.02649
649.31326	0.02658
648.02749	0.02665
646.74172	0.02667
645.45595	0.02668
644.17018	0.02673
642.88441	0.02684
641.59864	0.02698
640.31288	0.02707
639.02711	0.02706
637.74134	0.02700
636.45557	0.02697
635.16980	0.02707
633.88403	0.02730
632.59826	0.02760
631.31249	0.02797
630.02673	0.02873
628.74096	0.02971
627.45519	0.02959
626.16942	0.03062
624.88365	0.03252
623.59788	0.03473
622.31211	0.03712
621.02634	0.03929
619.74057	0.04048
618.45481	0.04051
617.16904	0.03993
615.88327	0.03951
614.59750	0.03975
613.31173	0.04092
612.02596	0.04327
610.74019	0.04674
609.45442	0.05069
608.16866	0.05438
606.88289	0.05762
605.59712	0.06056
604.31135	0.06305
603.02558	0.06457
601.73981	0.06483
600.45404	0.06404
599.16827	0.06265
597.88250	0.06109
596.59674	0.05960
595.31097	0.05830
594.02520	0.05721
592.73943	0.05631
591.45366	0.05558
590.16789	0.05511
588.88212	0.05501
587.59635	0.05533
586.31059	0.05597
585.02482	0.05675
583.73905	0.05758
582.45328	0.05849
581.16751	0.05957
579.88174	0.06083
578.59597	0.06226
577.31020	0.06380
576.02443	0.06540
574.73867	0.06693
573.45290	0.06834
572.16713	0.06970
570.88136	0.07120
569.59559	0.07302
568.30982	0.07514
567.02405	0.07735
565.73828	0.07941
564.45251	0.08115
563.16675	0.08249
561.88098	0.08325
560.59521	0.08321
559.30944	0.08224
558.02367	0.08046
556.73790	0.07812
555.45213	0.07541
554.16636	0.07248
552.88060	0.06950
551.59483	0.06660
550.30906	0.06390
549.02329	0.06141
547.73752	0.05916
546.45175	0.05713
545.16598	0.05528
543.88021	0.05355
542.59444	0.05199
541.30868	0.05067
540.02291	0.04960
538.73714	0.04866
537.45137	0.04770
536.16560	0.04672
534.87983	0.04576
533.59406	0.04484
532.30829	0.04392
531.02253	0.04301
529.73676	0.04214
528.45099	0.04138
527.16522	0.04073
525.87945	0.04013
524.59368	0.03952
523.30791	0.03885
522.02214	0.03819
520.73637	0.03759
519.45061	0.03710
518.16484	0.03670
516.87907	0.03632
515.59330	0.03590
514.30753	0.03541
513.02176	0.03487
511.73599	0.03437
510.45022	0.03395
509.16446	0.03356
507.87869	0.03306
506.59292	0.03241
505.30715	0.03171
504.02138	0.03114
502.73561	0.03081
501.44984	0.03064
500.16407	0.03049
498.87830	0.03029
497.59254	0.03005
496.30677	0.02981
495.02100	0.02960
493.73523	0.02943
492.44946	0.02933
491.16369	0.02932
489.87792	0.02930
488.59215	0.02918
487.30639	0.02895
486.02062	0.02868
484.73485	0.02850
483.44908	0.02845
482.16331	0.02850
480.87754	0.02861
479.59177	0.02874
478.30600	0.02892
477.02023	0.02918
475.73447	0.02949
474.44870	0.02979
473.16293	0.03001
471.87716	0.03010
470.59139	0.03005
469.30562	0.02987
468.01985	0.02963
466.73408	0.02937
465.44832	0.02911
464.16255	0.02884
462.87678	0.02857
461.59101	0.02830
460.30524	0.02802
459.01947	0.02772
457.73370	0.02745
456.44793	0.02723
455.16216	0.02705
453.87640	0.02681
452.59063	0.02646
451.30486	0.02600
450.01909	0.02551
448.73332	0.02513
447.44755	0.02494
446.16178	0.02488
444.87601	0.02485
443.59025	0.02477
442.30448	0.02464
441.01871	0.02448
439.73294	0.02431
438.44717	0.02415
437.16140	0.02399
435.87563	0.02385
434.58986	0.02371
433.30409	0.02357
432.01833	0.02342
430.73256	0.02327
429.44679	0.02310
428.16102	0.02291
426.87525	0.02275
425.58948	0.02263
424.30371	0.02254
423.01794	0.02243
421.73218	0.02229
420.44641	0.02210
419.16064	0.02187
417.87487	0.02163
416.58910	0.02141
415.30333	0.02123
414.01756	0.02109
412.73179	0.02097
411.44602	0.02086
410.16026	0.02075
408.87449	0.02065
407.58872	0.02054
406.30295	0.02044
405.01718	0.02035
403.73141	0.02031
402.44564	0.02034
401.15987	0.02041
399.87411	0.02049
