3997.45528	0.05030
3996.16951	0.04959
3994.88374	0.04909
3993.59798	0.04915
3992.31221	0.05001
3991.02644	0.05125
3989.74067	0.05211
3988.45490	0.05223
3987.16913	0.05203
3985.88336	0.05209
3984.59759	0.05234
3983.31183	0.05229
3982.02606	0.05171
3980.74029	0.05101
3979.45452	0.05070
3978.16875	0.05089
3976.88298	0.05126
3975.59721	0.05149
3974.31144	0.05152
3973.02567	0.05147
3971.73991	0.05136
3970.45414	0.05110
3969.16837	0.05073
3967.88260	0.05037
3966.59683	0.05013
3965.31106	0.04988
3964.02529	0.04948
3962.73952	0.04907
3961.45376	0.04892
3960.16799	0.04911
3958.88222	0.04931
3957.59645	0.04922
3956.31068	0.04895
3955.02491	0.04892
3953.73914	0.04941
3952.45337	0.05018
3951.16760	0.05072
3949.88184	0.05067
3948.59607	0.05015
3947.31030	0.04952
3946.02453	0.04905
3944.73876	0.04879
3943.45299	0.04877
3942.16722	0.04894
3940.88145	0.04912
3939.59569	0.04909
3938.30992	0.04887
3937.02415	0.04862
3935.73838	0.04847
3934.45261	0.04841
3933.16684	0.04840
3931.88107	0.04841
3930.59530	0.04846
3929.30953	0.04868
3928.02377	0.04916
3926.73800	0.04978
3925.45223	0.05024
3924.16646	0.05040
3922.88069	0.05033
3921.59492	0.05014
3920.30915	0.04989
3919.02338	0.04959
3917.73762	0.04922
3916.45185	0.04883
3915.16608	0.04845
3913.88031	0.04811
3912.59454	0.04782
3911.30877	0.04755
3910.02300	0.04730
3908.73723	0.04726
3907.45146	0.04762
3906.16570	0.04833
3904.87993	0.04922
3903.59416	0.05014
3902.30839	0.05094
3901.02262	0.05134
3899.73685	0.05113
3898.45108	0.05030
3897.16531	0.04908
3895.87955	0.04789
3894.59378	0.04709
3893.30801	0.04680
3892.02224	0.04688
3890.73647	0.04718
3889.45070	0.04751
3888.16493	0.04757
3886.87916	0.04745
3885.59339	0.04757
3884.30763	0.04803
3883.02186	0.04844
3881.73609	0.04843
3880.45032	0.04820
3879.16455	0.04799
3877.87878	0.04766
3876.59301	0.04701
3875.30724	0.04631
3874.02148	0.04602
3872.73571	0.04612
3871.44994	0.04627
3870.16417	0.04653
3868.87840	0.04714
3867.59263	0.04780
3866.30686	0.04804
3865.02109	0.04783
3863.73532	0.04738
3862.44956	0.04681
3861.16379	0.04626
3859.87802	0.04595
3858.59225	0.04591
3857.30648	0.04582
3856.02071	0.04537
3854.73494	0.04484
3853.44917	0.04491
3852.16341	0.04572
3850.87764	0.04667
3849.59187	0.04728
3848.30610	0.04755
3847.02033	0.04766
3845.73456	0.04764
3844.44879	0.04745
3843.16302	0.04706
3841.87725	0.04649
3840.59149	0.04576
3839.30572	0.04507
3838.01995	0.04480
3836.73418	0.04508
3835.44841	0.04559
3834.16264	0.04594
3832.87687	0.04608
3831.59110	0.04615
3830.30534	0.04623
3829.01957	0.04632
3827.73380	0.04651
3826.44803	0.04690
3825.16226	0.04734
3823.87649	0.04753
3822.59072	0.04747
3821.30495	0.04758
3820.01918	0.04795
3818.73342	0.04800
3817.44765	0.04734
3816.16188	0.04649
3814.87611	0.04609
3813.59034	0.04605
3812.30457	0.04598
3811.01880	0.04575
3809.73303	0.04531
3808.44726	0.04474
3807.16150	0.04448
3805.87573	0.04486
3804.58996	0.04543
3803.30419	0.04564
3802.01842	0.04574
3800.73265	0.04635
3799.44688	0.04737
3798.16111	0.04807
3796.87535	0.04810
3795.58958	0.04763
3794.30381	0.04693
3793.01804	0.04610
3791.73227	0.04527
3790.44650	0.04457
3789.16073	0.04420
3787.87496	0.04422
3786.58919	0.04444
3785.30343	0.04460
3784.01766	0.04474
3782.73189	0.04501
3781.44612	0.04537
3780.16035	0.04555
3778.87458	0.04548
3777.58881	0.04527
3776.30304	0.04508
3775.01728	0.04498
3773.73151	0.04496
3772.44574	0.04498
3771.15997	0.04511
3769.87420	0.04542
3768.58843	0.04576
3767.30266	0.04572
3766.01689	0.04516
3764.73112	0.04439
3763.44536	0.04384
3762.15959	0.04367
3760.87382	0.04385
3759.58805	0.04420
3758.30228	0.04444
3757.01651	0.04441
3755.73074	0.04405
3754.44497	0.04329
3753.15921	0.04234
3751.87344	0.04172
3750.58767	0.04181
3749.30190	0.04258
3748.01613	0.04346
3746.73036	0.04361
3745.44459	0.04305
3744.15882	0.04281
3742.87305	0.04335
3741.58729	0.04401
3740.30152	0.04426
3739.01575	0.04415
3737.72998	0.04383
3736.44421	0.04347
3735.15844	0.04332
3733.87267	0.04347
3732.58690	0.04386
3731.30114	0.04428
3730.01537	0.04430
3728.72960	0.04365
3727.44383	0.04258
3726.15806	0.04165
3724.87229	0.04102
3723.58652	0.04062
3722.30075	0.04058
3721.01498	0.04108
3719.72922	0.04197
3718.44345	0.04290
3717.15768	0.04356
3715.87191	0.04377
3714.58614	0.04342
3713.30037	0.04259
3712.01460	0.04165
3710.72883	0.04102
3709.44307	0.04092
3708.15730	0.04138
3706.87153	0.04214
3705.58576	0.04272
3704.29999	0.04278
3703.01422	0.04248
3701.72845	0.04217
3700.44268	0.04199
3699.15691	0.04175
3697.87115	0.04126
3696.58538	0.04069
3695.29961	0.04032
3694.01384	0.04022
3692.72807	0.04034
3691.44230	0.04063
3690.15653	0.04105
3688.87076	0.04152
3687.58500	0.04198
3686.29923	0.04226
3685.01346	0.04218
3683.72769	0.04190
3682.44192	0.04169
3681.15615	0.04154
3679.87038	0.04131
3678.58461	0.04099
3677.29884	0.04079
3676.01308	0.04116
3674.72731	0.04221
3673.44154	0.04322
3672.15577	0.04350
3670.87000	0.04338
3669.58423	0.04349
3668.29846	0.04371
3667.01269	0.04355
3665.72693	0.04300
3664.44116	0.04246
3663.15539	0.04215
3661.86962	0.04210
3660.58385	0.04227
3659.29808	0.04256
3658.01231	0.04281
3656.72654	0.04305
3655.44077	0.04339
3654.15501	0.04378
3652.86924	0.04399
3651.58347	0.04402
3650.29770	0.04415
3649.01193	0.04454
3647.72616	0.04504
3646.44039	0.04541
3645.15462	0.04551
3643.86886	0.04539
3642.58309	0.04524
3641.29732	0.04515
3640.01155	0.04504
3638.72578	0.04484
3637.44001	0.04459
3636.15424	0.04434
3634.86847	0.04414
3633.58270	0.04400
3632.29694	0.04381
3631.01117	0.04353
3629.72540	0.04340
3628.43963	0.04379
3627.15386	0.04454
3625.86809	0.04515
3624.58232	0.04552
3623.29655	0.04596
3622.01079	0.04658
3620.72502	0.04722
3619.43925	0.04764
3618.15348	0.04771
3616.86771	0.04735
3615.58194	0.04672
3614.29617	0.04625
3613.01040	0.04631
3611.72463	0.04681
3610.43887	0.04738
3609.15310	0.04789
3607.86733	0.04848
3606.58156	0.04920
3605.29579	0.04984
3604.01002	0.05019
3602.72425	0.05027
3601.43848	0.05027
3600.15272	0.05028
3598.86695	0.05016
3597.58118	0.04972
3596.29541	0.04907
3595.00964	0.04868
3593.72387	0.04901
3592.43810	0.05000
3591.15233	0.05114
3589.86656	0.05195
3588.58080	0.05224
3587.29503	0.05196
3586.00926	0.05118
3584.72349	0.05024
3583.43772	0.04962
3582.15195	0.04969
3580.86618	0.05049
3579.58041	0.05170
3578.29464	0.05284
3577.00888	0.05353
3575.72311	0.05369
3574.43734	0.05367
3573.15157	0.05398
3571.86580	0.05476
3570.58003	0.05563
3569.29426	0.05608
3568.00849	0.05600
3566.72273	0.05557
3565.43696	0.05500
3564.15119	0.05434
3562.86542	0.05373
3561.57965	0.05344
3560.29388	0.05368
3559.00811	0.05434
3557.72234	0.05507
3556.43657	0.05546
3555.15081	0.05527
3553.86504	0.05468
3552.57927	0.05413
3551.29350	0.05396
3550.00773	0.05413
3548.72196	0.05443
3547.43619	0.05484
3546.15042	0.05549
3544.86466	0.05638
3543.57889	0.05721
3542.29312	0.05775
3541.00735	0.05806
3539.72158	0.05832
3538.43581	0.05858
3537.15004	0.05874
3535.86427	0.05884
3534.57850	0.05907
3533.29274	0.05946
3532.00697	0.05977
3530.72120	0.05972
3529.43543	0.05929
3528.14966	0.05879
3526.86389	0.05852
3525.57812	0.05854
3524.29235	0.05879
3523.00659	0.05919
3521.72082	0.05971
3520.43505	0.06023
3519.14928	0.06054
3517.86351	0.06051
3516.57774	0.06018
3515.29197	0.05979
3514.00620	0.05970
3512.72043	0.06005
3511.43467	0.06060
3510.14890	0.06096
3508.86313	0.06100
3507.57736	0.06093
3506.29159	0.06100
3505.00582	0.06128
3503.72005	0.06167
3502.43428	0.06203
3501.14852	0.06228
3499.86275	0.06251
3498.57698	0.06285
3497.29121	0.06326
3496.00544	0.06352
3494.71967	0.06343
3493.43390	0.06306
3492.14813	0.06259
3490.86236	0.06225
3489.57660	0.06217
3488.29083	0.06238
3487.00506	0.06277
3485.71929	0.06316
3484.43352	0.06343
3483.14775	0.06365
3481.86198	0.06393
3480.57621	0.06429
3479.29045	0.06462
3478.00468	0.06483
3476.71891	0.06494
3475.43314	0.06511
3474.14737	0.06539
3472.86160	0.06570
3471.57583	0.06589
3470.29006	0.06596
3469.00429	0.06609
3467.71853	0.06647
3466.43276	0.06701
3465.14699	0.06738
3463.86122	0.06730
3462.57545	0.06685
3461.28968	0.06647
3460.00391	0.06658
3458.71814	0.06722
3457.43238	0.06796
3456.14661	0.06823
3454.86084	0.06786
3453.57507	0.06718
3452.28930	0.06679
3451.00353	0.06698
3449.71776	0.06755
3448.43199	0.06814
3447.14622	0.06857
3445.86046	0.06890
3444.57469	0.06922
3443.28892	0.06948
3442.00315	0.06951
3440.71738	0.06930
3439.43161	0.06904
3438.14584	0.06897
3436.86007	0.06918
3435.57431	0.06943
3434.28854	0.06949
3433.00277	0.06931
3431.71700	0.06907
3430.43123	0.06891
3429.14546	0.06887
3427.85969	0.06900
3426.57392	0.06937
3425.28815	0.06992
3424.00239	0.07042
3422.71662	0.07060
3421.43085	0.07044
3420.14508	0.07021
3418.85931	0.07014
3417.57354	0.07028
3416.28777	0.07054
3415.00200	0.07087
3413.71624	0.07123
3412.43047	0.07148
3411.14470	0.07135
3409.85893	0.07069
3408.57316	0.06975
3407.28739	0.06908
3406.00162	0.06907
3404.71585	0.06965
3403.43008	0.07042
3402.14432	0.07105
3400.85855	0.07147
3399.57278	0.07170
3398.28701	0.07174
3397.00124	0.07160
3395.71547	0.07143
3394.42970	0.07145
3393.14393	0.07180
3391.85817	0.07240
3390.57240	0.07298
3389.28663	0.07319
3388.00086	0.07296
3386.71509	0.07256
3385.42932	0.07237
3384.14355	0.07255
3382.85778	0.07294
3381.57201	0.07331
3380.28625	0.07358
3379.00048	0.07376
3377.71471	0.07378
3376.42894	0.07350
3375.14317	0.07287
3373.85740	0.07211
3372.57163	0.07167
3371.28586	0.07191
3370.00010	0.07276
3368.71433	0.07380
3367.42856	0.07450
3366.14279	0.07464
3364.85702	0.07431
3363.57125	0.07381
3362.28548	0.07341
3360.99971	0.07317
3359.71394	0.07300
3358.42818	0.07287
3357.14241	0.07298
3355.85664	0.07349
3354.57087	0.07423
3353.28510	0.07477
3351.99933	0.07481
3350.71356	0.07442
3349.42779	0.07398
3348.14202	0.07384
3346.85626	0.07408
3345.57049	0.07449
3344.28472	0.07474
3342.99895	0.07463
3341.71318	0.07431
3340.42741	0.07406
3339.14164	0.07403
3337.85587	0.07409
3336.57011	0.07402
3335.28434	0.07374
3333.99857	0.07338
3332.71280	0.07312
3331.42703	0.07306
3330.14126	0.07313
3328.85549	0.07313
3327.56972	0.07289
3326.28395	0.07249
3324.99819	0.07222
3323.71242	0.07222
3322.42665	0.07237
3321.14088	0.07247
3319.85511	0.07248
3318.56934	0.07251
3317.28357	0.07265
3315.99780	0.07280
3314.71204	0.07285
3313.42627	0.07278
3312.14050	0.07265
3310.85473	0.07262
3309.56896	0.07279
3308.28319	0.07310
3306.99742	0.07331
3305.71165	0.07319
3304.42588	0.07274
3303.14012	0.07217
3301.85435	0.07177
3300.56858	0.07162
3299.28281	0.07162
3297.99704	0.07162
3296.71127	0.07160
3295.42550	0.07174
3294.13973	0.07225
3292.85397	0.07309
3291.56820	0.07393
3290.28243	0.07434
3288.99666	0.07422
3287.71089	0.07376
3286.42512	0.07320
3285.13935	0.07261
3283.85358	0.07201
3282.56781	0.07153
3281.28205	0.07134
3279.99628	0.07146
3278.71051	0.07172
3277.42474	0.07192
3276.13897	0.07199
3274.85320	0.07192
3273.56743	0.07170
3272.28166	0.07142
3270.99590	0.07120
3269.71013	0.07119
3268.42436	0.07140
3267.13859	0.07167
3265.85282	0.07180
3264.56705	0.07166
3263.28128	0.07132
3261.99551	0.07097
3260.70974	0.07077
3259.42398	0.07081
3258.13821	0.07104
3256.85244	0.07140
3255.56667	0.07175
3254.28090	0.07197
3252.99513	0.07200
3251.70936	0.07189
3250.42359	0.07168
3249.13783	0.07130
3247.85206	0.07071
3246.56629	0.07009
3245.28052	0.06971
3243.99475	0.06974
3242.70898	0.07010
3241.42321	0.07059
3240.13744	0.07103
3238.85167	0.07135
3237.56591	0.07153
3236.28014	0.07161
3234.99437	0.07157
3233.70860	0.07136
3232.42283	0.07092
3231.13706	0.07040
3229.85129	0.07009
3228.56552	0.07014
3227.27976	0.07042
3225.99399	0.07062
3224.70822	0.07060
3223.42245	0.07041
3222.13668	0.07020
3220.85091	0.07008
3219.56514	0.07009
3218.27937	0.07023
3216.99360	0.07048
3215.70784	0.07076
3214.42207	0.07090
3213.13630	0.07079
3211.85053	0.07046
3210.56476	0.07014
3209.27899	0.06999
3207.99322	0.07000
3206.70745	0.07010
3205.42169	0.07035
3204.13592	0.07075
3202.85015	0.07118
3201.56438	0.07138
3200.27861	0.07127
3198.99284	0.07090
3197.70707	0.07040
3196.42130	0.06989
3195.13553	0.06948
3193.84977	0.06925
3192.56400	0.06922
3191.27823	0.06925
3189.99246	0.06925
3188.70669	0.06920
3187.42092	0.06916
3186.13515	0.06911
3184.84938	0.06897
3183.56362	0.06871
3182.27785	0.06849
3180.99208	0.06850
3179.70631	0.06879
3178.42054	0.06910
3177.13477	0.06906
3175.84900	0.06855
3174.56323	0.06778
3173.27746	0.06719
3171.99170	0.06700
3170.70593	0.06714
3169.42016	0.06731
3168.13439	0.06733
3166.84862	0.06723
3165.56285	0.06713
3164.27708	0.06713
3162.99131	0.06714
3161.70555	0.06706
3160.41978	0.06682
3159.13401	0.06653
3157.84824	0.06639
3156.56247	0.06650
3155.27670	0.06677
3153.99093	0.06690
3152.70516	0.06669
3151.41939	0.06617
3150.13363	0.06556
3148.84786	0.06505
3147.56209	0.06468
3146.27632	0.06448
3144.99055	0.06455
3143.70478	0.06496
3142.41901	0.06557
3141.13324	0.06600
3139.84748	0.06595
3138.56171	0.06547
3137.27594	0.06490
3135.99017	0.06459
3134.70440	0.06469
3133.41863	0.06512
3132.13286	0.06563
3130.84709	0.06589
3129.56132	0.06570
3128.27556	0.06519
3126.98979	0.06468
3125.70402	0.06440
3124.41825	0.06431
3123.13248	0.06425
3121.84671	0.06418
3120.56094	0.06419
3119.27517	0.06435
3117.98940	0.06462
3116.70364	0.06490
3115.41787	0.06505
3114.13210	0.06503
3112.84633	0.06491
3111.56056	0.06472
3110.27479	0.06435
3108.98902	0.06372
3107.70325	0.06300
3106.41749	0.06258
3105.13172	0.06273
3103.84595	0.06330
3102.56018	0.06388
3101.27441	0.06416
3099.98864	0.06416
3098.70287	0.06407
3097.41710	0.06399
3096.13133	0.06385
3094.84557	0.06351
3093.55980	0.06306
3092.27403	0.06269
3090.98826	0.06254
3089.70249	0.06254
3088.41672	0.06252
3087.13095	0.06241
3085.84518	0.06230
3084.55942	0.06228
3083.27365	0.06240
3081.98788	0.06260
3080.70211	0.06281
3079.41634	0.06291
3078.13057	0.06284
3076.84480	0.06268
3075.55903	0.06254
3074.27326	0.06246
3072.98750	0.06228
3071.70173	0.06191
3070.41596	0.06149
3069.13019	0.06128
3067.84442	0.06135
3066.55865	0.06148
3065.27288	0.06142
3063.98711	0.06118
3062.70135	0.06097
3061.41558	0.06102
3060.12981	0.06134
3058.84404	0.06174
3057.55827	0.06189
3056.27250	0.06168
3054.98673	0.06129
3053.70096	0.06101
3052.41519	0.06094
3051.12943	0.06098
3049.84366	0.06099
3048.55789	0.06095
3047.27212	0.06090
3045.98635	0.06079
3044.70058	0.06060
3043.41481	0.06037
3042.12904	0.06016
3040.84328	0.06002
3039.55751	0.05989
3038.27174	0.05970
3036.98597	0.05938
3035.70020	0.05900
3034.41443	0.05874
3033.12866	0.05876
3031.84289	0.05904
3030.55712	0.05935
3029.27136	0.05941
3027.98559	0.05918
3026.69982	0.05886
3025.41405	0.05869
3024.12828	0.05866
3022.84251	0.05864
3021.55674	0.05856
3020.27097	0.05853
3018.98521	0.05861
3017.69944	0.05867
3016.41367	0.05850
3015.12790	0.05810
3013.84213	0.05770
3012.55636	0.05749
3011.27059	0.05748
3009.98482	0.05753
3008.69905	0.05746
3007.41329	0.05715
3006.12752	0.05664
3004.84175	0.05616
3003.55598	0.05594
3002.27021	0.05603
3000.98444	0.05623
2999.69867	0.05638
2998.41290	0.05646
2997.12714	0.05653
2995.84137	0.05659
2994.55560	0.05657
2993.26983	0.05658
2991.98406	0.05672
2990.69829	0.05703
2989.41252	0.05738
2988.12675	0.05759
2986.84098	0.05755
2985.55522	0.05731
2984.26945	0.05707
2982.98368	0.05703
2981.69791	0.05718
2980.41214	0.05739
2979.12637	0.05756
2977.84060	0.05769
2976.55483	0.05790
2975.26907	0.05832
2973.98330	0.05905
2972.69753	0.06000
2971.41176	0.06093
2970.12599	0.06160
2968.84022	0.06208
2967.55445	0.06265
2966.26868	0.06359
2964.98291	0.06493
2963.69715	0.06637
2962.41138	0.06754
2961.12561	0.06827
2959.83984	0.06872
2958.55407	0.06919
2957.26830	0.06988
2955.98253	0.07068
2954.69676	0.07131
2953.41100	0.07162
2952.12523	0.07180
2950.83946	0.07207
2949.55369	0.07239
2948.26792	0.07254
2946.98215	0.07247
2945.69638	0.07230
2944.41061	0.07214
2943.12484	0.07195
2941.83908	0.07172
2940.55331	0.07157
2939.26754	0.07163
2937.98177	0.07194
2936.69600	0.07247
2935.41023	0.07323
2934.12446	0.07423
2932.83869	0.07532
2931.55293	0.07625
2930.26716	0.07685
2928.98139	0.07722
2927.69562	0.07755
2926.40985	0.07794
2925.12408	0.07829
2923.83831	0.07846
2922.55254	0.07842
2921.26677	0.07825
2919.98101	0.07803
2918.69524	0.07779
2917.40947	0.07746
2916.12370	0.07699
2914.83793	0.07641
2913.55216	0.07577
2912.26639	0.07510
2910.98062	0.07443
2909.69486	0.07382
2908.40909	0.07328
2907.12332	0.07273
2905.83755	0.07208
2904.55178	0.07137
2903.26601	0.07071
2901.98024	0.07014
2900.69447	0.06966
2899.40870	0.06931
2898.12294	0.06904
2896.83717	0.06873
2895.55140	0.06824
2894.26563	0.06761
2892.97986	0.06702
2891.69409	0.06657
2890.40832	0.06623
2889.12255	0.06592
2887.83678	0.06560
2886.55102	0.06524
2885.26525	0.06483
2883.97948	0.06440
2882.69371	0.06405
2881.40794	0.06386
2880.12217	0.06382
2878.83640	0.06388
2877.55063	0.06403
2876.26487	0.06426
2874.97910	0.06455
2873.69333	0.06488
2872.40756	0.06522
2871.12179	0.06551
2869.83602	0.06565
2868.55025	0.06556
2867.26448	0.06531
2865.97871	0.06503
2864.69295	0.06479
2863.40718	0.06465
2862.12141	0.06459
2860.83564	0.06456
2859.54987	0.06452
2858.26410	0.06450
2856.97833	0.06458
2855.69256	0.06474
2854.40680	0.06489
2853.12103	0.06491
2851.83526	0.06475
2850.54949	0.06440
2849.26372	0.06386
2847.97795	0.06320
2846.69218	0.06249
2845.40641	0.06181
2844.12064	0.06120
2842.83488	0.06069
2841.54911	0.06019
2840.26334	0.05963
2838.97757	0.05898
2837.69180	0.05827
2836.40603	0.05756
2835.12026	0.05691
2833.83449	0.05634
2832.54873	0.05584
2831.26296	0.05534
2829.97719	0.05477
2828.69142	0.05410
2827.40565	0.05338
2826.11988	0.05272
2824.83411	0.05223
2823.54834	0.05197
2822.26257	0.05187
2820.97681	0.05178
2819.69104	0.05168
2818.40527	0.05160
2817.11950	0.05152
2815.83373	0.05137
2814.54796	0.05109
2813.26219	0.05074
2811.97642	0.05041
2810.69066	0.05013
2809.40489	0.04989
2808.11912	0.04964
2806.83335	0.04937
2805.54758	0.04910
2804.26181	0.04890
2802.97604	0.04886
2801.69027	0.04896
2800.40450	0.04910
2799.11874	0.04914
2797.83297	0.04903
2796.54720	0.04887
2795.26143	0.04872
2793.97566	0.04853
2792.68989	0.04822
2791.40412	0.04782
2790.11835	0.04753
2788.83259	0.04744
2787.54682	0.04746
2786.26105	0.04744
2784.97528	0.04737
2783.68951	0.04732
2782.40374	0.04732
2781.11797	0.04727
2779.83220	0.04709
2778.54643	0.04682
2777.26067	0.04659
2775.97490	0.04652
2774.68913	0.04658
2773.40336	0.04660
2772.11759	0.04648
2770.83182	0.04628
2769.54605	0.04615
2768.26028	0.04617
2766.97452	0.04629
2765.68875	0.04640
2764.40298	0.04644
2763.11721	0.04643
2761.83144	0.04639
2760.54567	0.04632
2759.25990	0.04623
2757.97413	0.04617
2756.68836	0.04614
2755.40260	0.04608
2754.11683	0.04593
2752.83106	0.04569
2751.54529	0.04543
2750.25952	0.04524
2748.97375	0.04515
2747.68798	0.04511
2746.40221	0.04506
2745.11645	0.04498
2743.83068	0.04493
2742.54491	0.04496
2741.25914	0.04510
2739.97337	0.04527
2738.68760	0.04535
2737.40183	0.04524
2736.11606	0.04502
2734.83029	0.04487
2733.54453	0.04482
2732.25876	0.04477
2730.97299	0.04468
2729.68722	0.04459
2728.40145	0.04453
2727.11568	0.04440
2725.82991	0.04415
2724.54414	0.04387
2723.25838	0.04372
2721.97261	0.04374
2720.68684	0.04380
2719.40107	0.04372
2718.11530	0.04349
2716.82953	0.04319
2715.54376	0.04295
2714.25799	0.04282
2712.97222	0.04278
2711.68646	0.04276
2710.40069	0.04268
2709.11492	0.04252
2707.82915	0.04232
2706.54338	0.04216
2705.25761	0.04215
2703.97184	0.04230
2702.68607	0.04250
2701.40031	0.04266
2700.11454	0.04272
2698.82877	0.04270
2697.54300	0.04264
2696.25723	0.04252
2694.97146	0.04239
2693.68569	0.04226
2692.39992	0.04214
2691.11415	0.04202
2689.82839	0.04192
2688.54262	0.04186
2687.25685	0.04187
2685.97108	0.04193
2684.68531	0.04199
2683.39954	0.04204
2682.11377	0.04205
2680.82800	0.04200
2679.54224	0.04182
2678.25647	0.04158
2676.97070	0.04137
2675.68493	0.04124
2674.39916	0.04119
2673.11339	0.04121
2671.82762	0.04127
2670.54185	0.04130
2669.25608	0.04124
2667.97032	0.04107
2666.68455	0.04087
2665.39878	0.04072
2664.11301	0.04069
2662.82724	0.04077
2661.54147	0.04091
2660.25570	0.04102
2658.96993	0.04101
2657.68417	0.04084
2656.39840	0.04059
2655.11263	0.04037
2653.82686	0.04026
2652.54109	0.04023
2651.25532	0.04018
2649.96955	0.04008
2648.68378	0.03993
2647.39801	0.03977
2646.11225	0.03967
2644.82648	0.03964
2643.54071	0.03961
2642.25494	0.03945
2640.96917	0.03910
2639.68340	0.03863
2638.39763	0.03821
2637.11186	0.03802
2635.82609	0.03808
2634.54033	0.03827
2633.25456	0.03837
2631.96879	0.03828
2630.68302	0.03803
2629.39725	0.03775
2628.11148	0.03753
2626.82571	0.03739
2625.53994	0.03722
2624.25418	0.03699
2622.96841	0.03675
2621.68264	0.03654
2620.39687	0.03635
2619.11110	0.03615
2617.82533	0.03602
2616.53956	0.03609
2615.25379	0.03634
2613.96802	0.03651
2612.68226	0.03632
2611.39649	0.03580
2610.11072	0.03528
2608.82495	0.03507
2607.53918	0.03522
2606.25341	0.03552
2604.96764	0.03578
2603.68187	0.03591
2602.39611	0.03593
2601.11034	0.03585
2599.82457	0.03566
2598.53880	0.03532
2597.25303	0.03490
2595.96726	0.03455
2594.68149	0.03439
2593.39572	0.03437
2592.10995	0.03434
2590.82419	0.03428
2589.53842	0.03423
2588.25265	0.03423
2586.96688	0.03428
2585.68111	0.03436
2584.39534	0.03439
2583.10957	0.03423
2581.82380	0.03387
2580.53804	0.03341
2579.25227	0.03305
2577.96650	0.03291
2576.68073	0.03306
2575.39496	0.03347
2574.10919	0.03389
2572.82342	0.03393
2571.53765	0.03348
2570.25188	0.03289
2568.96612	0.03261
2567.68035	0.03275
2566.39458	0.03300
2565.10881	0.03303
2563.82304	0.03283
2562.53727	0.03255
2561.25150	0.03229
2559.96573	0.03209
2558.67997	0.03202
2557.39420	0.03208
2556.10843	0.03213
2554.82266	0.03201
2553.53689	0.03176
2552.25112	0.03164
2550.96535	0.03181
2549.67958	0.03214
2548.39381	0.03235
2547.10805	0.03231
2545.82228	0.03218
2544.53651	0.03221
2543.25074	0.03238
2541.96497	0.03253
2540.67920	0.03256
2539.39343	0.03252
2538.10766	0.03237
2536.82190	0.03203
2535.53613	0.03152
2534.25036	0.03108
2532.96459	0.03097
2531.67882	0.03120
2530.39305	0.03151
2529.10728	0.03164
2527.82151	0.03151
2526.53574	0.03120
2525.24998	0.03083
2523.96421	0.03054
2522.67844	0.03042
2521.39267	0.03043
2520.10690	0.03038
2518.82113	0.03024
2517.53536	0.03020
2516.24959	0.03040
2514.96383	0.03062
2513.67806	0.03062
2512.39229	0.03046
2511.10652	0.03043
2509.82075	0.03056
2508.53498	0.03057
2507.24921	0.03030
2505.96344	0.02992
2504.67767	0.02969
2503.39191	0.02969
2502.10614	0.02984
2500.82037	0.03007
2499.53460	0.03031
2498.24883	0.03050
2496.96306	0.03062
2495.67729	0.03073
2494.39152	0.03083
2493.10576	0.03078
2491.81999	0.03048
2490.53422	0.03001
2489.24845	0.02957
2487.96268	0.02932
2486.67691	0.02924
2485.39114	0.02925
2484.10537	0.02925
2482.81960	0.02925
2481.53384	0.02931
2480.24807	0.02945
2478.96230	0.02954
2477.67653	0.02954
2476.39076	0.02957
2475.10499	0.02979
2473.81922	0.03015
2472.53345	0.03046
2471.24769	0.03057
2469.96192	0.03053
2468.67615	0.03047
2467.39038	0.03039
2466.10461	0.03025
2464.81884	0.03004
2463.53307	0.02986
2462.24730	0.02973
2460.96153	0.02958
2459.67577	0.02935
2458.39000	0.02912
2457.10423	0.02902
2455.81846	0.02912
2454.53269	0.02940
2453.24692	0.02975
2451.96115	0.03006
2450.67538	0.03019
2449.38962	0.03012
2448.10385	0.02985
2446.81808	0.02949
2445.53231	0.02913
2444.24654	0.02880
2442.96077	0.02850
2441.67500	0.02823
2440.38923	0.02805
2439.10346	0.02801
2437.81770	0.02805
2436.53193	0.02807
2435.24616	0.02803
2433.96039	0.02797
2432.67462	0.02791
2431.38885	0.02789
2430.10308	0.02794
2428.81731	0.02807
2427.53155	0.02830
2426.24578	0.02862
2424.96001	0.02895
2423.67424	0.02904
2422.38847	0.02877
2421.10270	0.02826
2419.81693	0.02787
2418.53116	0.02779
2417.24539	0.02796
2415.95963	0.02819
2414.67386	0.02837
2413.38809	0.02843
2412.10232	0.02834
2410.81655	0.02808
2409.53078	0.02771
2408.24501	0.02735
2406.95924	0.02709
2405.67347	0.02699
2404.38771	0.02709
2403.10194	0.02737
2401.81617	0.02771
2400.53040	0.02796
2399.24463	0.02799
2397.95886	0.02782
2396.67309	0.02753
2395.38732	0.02727
2394.10156	0.02718
2392.81579	0.02727
2391.53002	0.02739
2390.24425	0.02742
2388.95848	0.02740
2387.67271	0.02745
2386.38694	0.02760
2385.10117	0.02776
2383.81540	0.02783
2382.52964	0.02780
2381.24387	0.02780
2379.95810	0.02796
2378.67233	0.02822
2377.38656	0.02848
2376.10079	0.02860
2374.81502	0.02851
2373.52925	0.02815
2372.24349	0.02768
2370.95772	0.02737
2369.67195	0.02738
2368.38618	0.02760
2367.10041	0.02784
2365.81464	0.02810
2364.52887	0.02834
2363.24310	0.02850
2361.95733	0.02854
2360.67157	0.02841
2359.38580	0.02834
2358.10003	0.02854
2356.81426	0.02895
2355.52849	0.02942
2354.24272	0.02984
2352.95695	0.02999
2351.67118	0.02972
2350.38542	0.02930
2349.09965	0.02909
2347.81388	0.02902
2346.52811	0.02870
2345.24234	0.02844
2343.95657	0.02892
2342.67080	0.02982
2341.38503	0.02983
2340.09926	0.02902
2338.81350	0.02904
2337.52773	0.02993
2336.24196	0.02978
2334.95619	0.02884
2333.67042	0.02894
2332.38465	0.02959
2331.09888	0.02904
2329.81311	0.02864
2328.52735	0.02951
2327.24158	0.02988
2325.95581	0.02985
2324.67004	0.03046
2323.38427	0.03068
2322.09850	0.03020
2320.81273	0.03015
2319.52696	0.03000
2318.24119	0.02964
2316.95543	0.02953
2315.66966	0.02919
2314.38389	0.02884
2313.09812	0.02880
2311.81235	0.02871
2310.52658	0.02861
2309.24081	0.02839
2307.95504	0.02794
2306.66928	0.02760
2305.38351	0.02740
2304.09774	0.02734
2302.81197	0.02727
2301.52620	0.02703
2300.24043	0.02671
2298.95466	0.02638
2297.66889	0.02611
2296.38312	0.02598
2295.09736	0.02608
2293.81159	0.02644
2292.52582	0.02692
2291.24005	0.02724
2289.95428	0.02715
2288.66851	0.02660
2287.38274	0.02580
2286.09697	0.02506
2284.81121	0.02460
2283.52544	0.02441
2282.23967	0.02437
2280.95390	0.02436
2279.66813	0.02433
2278.38236	0.02424
2277.09659	0.02409
2275.81082	0.02386
2274.52505	0.02362
2273.23929	0.02339
2271.95352	0.02318
2270.66775	0.02291
2269.38198	0.02259
2268.09621	0.02232
2266.81044	0.02225
2265.52467	0.02236
2264.23890	0.02248
2262.95314	0.02240
2261.66737	0.02212
2260.38160	0.02181
2259.09583	0.02166
2257.81006	0.02167
2256.52429	0.02170
2255.23852	0.02165
2253.95275	0.02147
2252.66698	0.02113
2251.38122	0.02064
2250.09545	0.02014
2248.80968	0.01984
2247.52391	0.01979
2246.23814	0.02008
2244.95237	0.02059
2243.66660	0.02118
2242.38083	0.02159
2241.09507	0.02159
2239.80930	0.02128
2238.52353	0.02094
2237.23776	0.02082
2235.95199	0.02082
2234.66622	0.02067
2233.38045	0.02014
2232.09468	0.01931
2230.80891	0.01847
2229.52315	0.01788
2228.23738	0.01757
2226.95161	0.01754
2225.66584	0.01782
2224.38007	0.01829
2223.09430	0.01858
2221.80853	0.01838
2220.52276	0.01779
2219.23700	0.01717
2217.95123	0.01685
2216.66546	0.01684
2215.37969	0.01690
2214.09392	0.01659
2212.80815	0.01570
2211.52238	0.01463
2210.23661	0.01409
2208.95084	0.01428
2207.66508	0.01462
2206.37931	0.01453
2205.09354	0.01417
2203.80777	0.01429
2202.52200	0.01531
2201.23623	0.01682
2199.95046	0.01793
2198.66469	0.01799
2197.37893	0.01698
2196.09316	0.01543
2194.80739	0.01402
2193.52162	0.01323
2192.23585	0.01309
2190.95008	0.01335
2189.66431	0.01371
2188.37854	0.01409
2187.09277	0.01444
2185.80701	0.01461
2184.52124	0.01449
2183.23547	0.01415
2181.94970	0.01379
2180.66393	0.01342
2179.37816	0.01285
2178.09239	0.01207
2176.80662	0.01137
2175.52085	0.01101
2174.23509	0.01105
2172.94932	0.01134
2171.66355	0.01180
2170.37778	0.01237
2169.09201	0.01279
2167.80624	0.01259
2166.52047	0.01154
2165.23470	0.01006
2163.94894	0.00895
2162.66317	0.00856
2161.37740	0.00848
2160.09163	0.00818
2158.80586	0.00756
2157.52009	0.00695
2156.23432	0.00662
2154.94855	0.00665
2153.66278	0.00692
2152.37702	0.00725
2151.09125	0.00759
2149.80548	0.00817
2148.51971	0.00928
2147.23394	0.01087
2145.94817	0.01242
2144.66240	0.01329
2143.37663	0.01324
2142.09087	0.01254
2140.80510	0.01180
2139.51933	0.01152
2138.23356	0.01180
2136.94779	0.01230
2135.66202	0.01258
2134.37625	0.01247
2133.09048	0.01215
2131.80471	0.01186
2130.51895	0.01168
2129.23318	0.01166
2127.94741	0.01193
2126.66164	0.01266
2125.37587	0.01380
2124.09010	0.01501
2122.80433	0.01600
2121.51856	0.01672
2120.23280	0.01725
2118.94703	0.01750
2117.66126	0.01727
2116.37549	0.01659
2115.08972	0.01577
2113.80395	0.01513
2112.51818	0.01486
2111.23241	0.01505
2109.94664	0.01555
2108.66088	0.01594
2107.37511	0.01574
2106.08934	0.01493
2104.80357	0.01403
2103.51780	0.01353
2102.23203	0.01349
2100.94626	0.01357
2099.66049	0.01286
2098.37473	0.01222
2097.08896	0.01188
2095.80319	0.01200
2094.51742	0.01277
2093.23165	0.01391
2091.94588	0.01485
2090.66011	0.01515
2089.37434	0.01487
2088.08857	0.01437
2086.80281	0.01393
2085.51704	0.01368
2084.23127	0.01365
2082.94550	0.01385
2081.65973	0.01414
2080.37396	0.01428
2079.08819	0.01419
2077.80242	0.01395
2076.51666	0.01369
2075.23089	0.01340
2073.94512	0.01305
2072.65935	0.01278
2071.37358	0.01274
2070.08781	0.01290
2068.80204	0.01297
2067.51627	0.01271
2066.23050	0.01216
2064.94474	0.01152
2063.65897	0.01102
2062.37320	0.01073
2061.08743	0.01066
2059.80166	0.01074
2058.51589	0.01093
2057.23012	0.01121
2055.94435	0.01149
2054.65859	0.01162
2053.37282	0.01139
2052.08705	0.01066
2050.80128	0.00952
2049.51551	0.00844
2048.22974	0.00813
2046.94397	0.00904
2045.65820	0.01077
2044.37243	0.01216
2043.08667	0.01215
2041.80090	0.01066
2040.51513	0.00855
2039.22936	0.00675
2037.94359	0.00557
2036.65782	0.00486
2035.37205	0.00442
2034.08628	0.00409
2032.80052	0.00365
2031.51475	0.00307
2030.22898	0.00279
2028.94321	0.00336
2027.65744	0.00482
2026.37167	0.00647
2025.08590	0.00741
2023.80013	0.00719
2022.51436	0.00613
2021.22860	0.00493
2019.94283	0.00422
2018.65706	0.00406
2017.37129	0.00413
2016.08552	0.00417
2014.79975	0.00423
2013.51398	0.00438
2012.22821	0.00447
2010.94245	0.00425
2009.65668	0.00370
2008.37091	0.00317
2007.08514	0.00306
2005.79937	0.00356
2004.51360	0.00442
2003.22783	0.00531
2001.94206	0.00609
2000.65629	0.00683
1999.37053	0.00753
1998.08476	0.00804
1996.79899	0.00834
1995.51322	0.00871
1994.22745	0.00938
1992.94168	0.01019
1991.65591	0.01075
1990.37014	0.01087
1989.08438	0.01060
1987.79861	0.01008
1986.51284	0.00943
1985.22707	0.00884
1983.94130	0.00850
1982.65553	0.00848
1981.36976	0.00862
1980.08399	0.00853
1978.79822	0.00793
1977.51246	0.00698
1976.22669	0.00627
1974.94092	0.00627
1973.65515	0.00682
1972.36938	0.00738
1971.08361	0.00760
1969.79784	0.00747
1968.51207	0.00715
1967.22631	0.00690
1965.94054	0.00703
1964.65477	0.00780
1963.36900	0.00914
1962.08323	0.01060
1960.79746	0.01174
1959.51169	0.01234
1958.22592	0.01244
1956.94015	0.01220
1955.65439	0.01179
1954.36862	0.01139
1953.08285	0.01122
1951.79708	0.01145
1950.51131	0.01201
1949.22554	0.01263
1947.93977	0.01306
1946.65400	0.01327
1945.36823	0.01342
1944.08247	0.01351
1942.79670	0.01344
1941.51093	0.01315
1940.22516	0.01287
1938.93939	0.01289
1937.65362	0.01334
1936.36785	0.01394
1935.08208	0.01426
1933.79632	0.01399
1932.51055	0.01330
1931.22478	0.01266
1929.93901	0.01246
1928.65324	0.01267
1927.36747	0.01295
1926.08170	0.01303
1924.79593	0.01291
1923.51016	0.01280
1922.22440	0.01288
1920.93863	0.01309
1919.65286	0.01320
1918.36709	0.01320
1917.08132	0.01324
1915.79555	0.01348
1914.50978	0.01387
1913.22401	0.01427
1911.93825	0.01455
1910.65248	0.01468
1909.36671	0.01467
1908.08094	0.01457
1906.79517	0.01450
1905.50940	0.01454
1904.22363	0.01465
1902.93786	0.01468
1901.65209	0.01452
1900.36633	0.01425
1899.08056	0.01404
1897.79479	0.01396
1896.50902	0.01394
1895.22325	0.01390
1893.93748	0.01386
1892.65171	0.01390
1891.36594	0.01406
1890.08018	0.01428
1888.79441	0.01445
1887.50864	0.01457
1886.22287	0.01468
1884.93710	0.01480
1883.65133	0.01487
1882.36556	0.01481
1881.07979	0.01463
1879.79402	0.01450
1878.50826	0.01451
1877.22249	0.01462
1875.93672	0.01478
1874.65095	0.01495
1873.36518	0.01509
1872.07941	0.01512
1870.79364	0.01500
1869.50787	0.01476
1868.22211	0.01461
1866.93634	0.01468
1865.65057	0.01491
1864.36480	0.01509
1863.07903	0.01502
1861.79326	0.01471
1860.50749	0.01437
1859.22172	0.01424
1857.93595	0.01436
1856.65019	0.01459
1855.36442	0.01480
1854.07865	0.01493
1852.79288	0.01499
1851.50711	0.01502
1850.22134	0.01506
1848.93557	0.01511
1847.64980	0.01512
1846.36404	0.01502
1845.07827	0.01487
1843.79250	0.01487
1842.50673	0.01504
1841.22096	0.01521
1839.93519	0.01520
1838.64942	0.01510
1837.36365	0.01505
1836.07788	0.01506
1834.79212	0.01508
1833.50635	0.01509
1832.22058	0.01510
1830.93481	0.01520
1829.64904	0.01547
1828.36327	0.01585
1827.07750	0.01612
1825.79173	0.01614
1824.50597	0.01597
1823.22020	0.01569
1821.93443	0.01534
1820.64866	0.01498
1819.36289	0.01469
1818.07712	0.01458
1816.79135	0.01470
1815.50558	0.01500
1814.21981	0.01538
1812.93405	0.01575
1811.64828	0.01601
1810.36251	0.01618
1809.07674	0.01629
1807.79097	0.01635
1806.50520	0.01635
1805.21943	0.01625
1803.93366	0.01605
1802.64790	0.01584
1801.36213	0.01575
1800.07636	0.01586
1798.79059	0.01612
1797.50482	0.01636
1796.21905	0.01646
1794.93328	0.01638
1793.64751	0.01621
1792.36174	0.01614
1791.07598	0.01625
1789.79021	0.01645
1788.50444	0.01660
1787.21867	0.01668
1785.93290	0.01672
1784.64713	0.01675
1783.36136	0.01671
1782.07559	0.01656
1780.78983	0.01633
1779.50406	0.01611
1778.21829	0.01601
1776.93252	0.01603
1775.64675	0.01613
1774.36098	0.01625
1773.07521	0.01641
1771.78944	0.01668
1770.50367	0.01694
1769.21791	0.01706
1767.93214	0.01707
1766.64637	0.01710
1765.36060	0.01716
1764.07483	0.01715
1762.78906	0.01710
1761.50329	0.01714
1760.21752	0.01725
1758.93176	0.01728
1757.64599	0.01725
1756.36022	0.01729
1755.07445	0.01745
1753.78868	0.01755
1752.50291	0.01748
1751.21714	0.01736
1749.93137	0.01735
1748.64560	0.01747
1747.35984	0.01765
1746.07407	0.01784
1744.78830	0.01797
1743.50253	0.01800
1742.21676	0.01794
1740.93099	0.01787
1739.64522	0.01793
1738.35945	0.01812
1737.07369	0.01820
1735.78792	0.01802
1734.50215	0.01782
1733.21638	0.01794
1731.93061	0.01830
1730.64484	0.01859
1729.35907	0.01869
1728.07330	0.01871
1726.78753	0.01873
1725.50177	0.01874
1724.21600	0.01876
1722.93023	0.01890
1721.64446	0.01914
1720.35869	0.01935
1719.07292	0.01946
1717.78715	0.01960
1716.50138	0.01992
1715.21561	0.02035
1713.92985	0.02075
1712.64408	0.02108
1711.35831	0.02137
1710.07254	0.02162
1708.78677	0.02184
1707.50100	0.02201
1706.21523	0.02221
1704.92946	0.02252
1703.64370	0.02284
1702.35793	0.02298
1701.07216	0.02307
1699.78639	0.02341
1698.50062	0.02390
1697.21485	0.02416
1695.92908	0.02427
1694.64331	0.02461
1693.35754	0.02513
1692.07178	0.02551
1690.78601	0.02567
1689.50024	0.02578
1688.21447	0.02586
1686.92870	0.02584
1685.64293	0.02580
1684.35716	0.02607
1683.07139	0.02669
1681.78563	0.02733
1680.49986	0.02772
1679.21409	0.02792
1677.92832	0.02802
1676.64255	0.02807
1675.35678	0.02819
1674.07101	0.02851
1672.78524	0.02890
1671.49947	0.02921
1670.21371	0.02946
1668.92794	0.02978
1667.64217	0.03022
1666.35640	0.03066
1665.07063	0.03097
1663.78486	0.03113
1662.49909	0.03129
1661.21332	0.03150
1659.92756	0.03178
1658.64179	0.03214
1657.35602	0.03254
1656.07025	0.03274
1654.78448	0.03260
1653.49871	0.03246
1652.21294	0.03277
1650.92717	0.03342
1649.64140	0.03387
1648.35564	0.03390
1647.06987	0.03376
1645.78410	0.03373
1644.49833	0.03381
1643.21256	0.03384
1641.92679	0.03379
1640.64102	0.03378
1639.35525	0.03382
1638.06949	0.03380
1636.78372	0.03367
1635.49795	0.03363
1634.21218	0.03380
1632.92641	0.03405
1631.64064	0.03420
1630.35487	0.03426
1629.06910	0.03431
1627.78333	0.03442
1626.49757	0.03451
1625.21180	0.03449
1623.92603	0.03443
1622.64026	0.03448
1621.35449	0.03469
1620.06872	0.03485
1618.78295	0.03480
1617.49718	0.03465
1616.21142	0.03469
1614.92565	0.03496
1613.63988	0.03527
1612.35411	0.03551
1611.06834	0.03573
1609.78257	0.03595
1608.49680	0.03616
1607.21103	0.03632
1605.92526	0.03645
1604.63950	0.03656
1603.35373	0.03669
1602.06796	0.03686
1600.78219	0.03709
1599.49642	0.03736
1598.21065	0.03765
1596.92488	0.03790
1595.63911	0.03809
1594.35335	0.03825
1593.06758	0.03840
1591.78181	0.03857
1590.49604	0.03878
1589.21027	0.03903
1587.92450	0.03931
1586.63873	0.03959
1585.35296	0.03986
1584.06719	0.04012
1582.78143	0.04036
1581.49566	0.04061
1580.20989	0.04083
1578.92412	0.04095
1577.63835	0.04098
1576.35258	0.04112
1575.06681	0.04158
1573.78104	0.04217
1572.49528	0.04259
1571.20951	0.04281
1569.92374	0.04305
1568.63797	0.04344
1567.35220	0.04387
1566.06643	0.04420
1564.78066	0.04448
1563.49489	0.04477
1562.20912	0.04496
1560.92336	0.04497
1559.63759	0.04501
1558.35182	0.04539
1557.06605	0.04598
1555.78028	0.04645
1554.49451	0.04671
1553.20874	0.04692
1551.92297	0.04715
1550.63721	0.04734
1549.35144	0.04748
1548.06567	0.04758
1546.77990	0.04764
1545.49413	0.04768
1544.20836	0.04771
1542.92259	0.04767
1541.63682	0.04752
1540.35105	0.04739
1539.06529	0.04751
1537.77952	0.04783
1536.49375	0.04808
1535.20798	0.04811
1533.92221	0.04809
1532.63644	0.04827
1531.35067	0.04862
1530.06490	0.04899
1528.77914	0.04935
1527.49337	0.04975
1526.20760	0.05025
1524.92183	0.05081
1523.63606	0.05136
1522.35029	0.05191
1521.06452	0.05264
1519.77875	0.05357
1518.49298	0.05453
1517.20722	0.05545
1515.92145	0.05643
1514.63568	0.05752
1513.34991	0.05867
1512.06414	0.05987
1510.77837	0.06107
1509.49260	0.06216
1508.20683	0.06309
1506.92107	0.06405
1505.63530	0.06527
1504.34953	0.06663
1503.06376	0.06783
1501.77799	0.06874
1500.49222	0.06950
1499.20645	0.07020
1497.92068	0.07087
1496.63491	0.07159
1495.34915	0.07241
1494.06338	0.07327
1492.77761	0.07404
1491.49184	0.07470
1490.20607	0.07540
1488.92030	0.07620
1487.63453	0.07705
1486.34876	0.07790
1485.06299	0.07873
1483.77723	0.07951
1482.49146	0.08023
1481.20569	0.08097
1479.91992	0.08175
1478.63415	0.08260
1477.34838	0.08350
1476.06261	0.08437
1474.77684	0.08515
1473.49108	0.08581
1472.20531	0.08646
1470.91954	0.08714
1469.63377	0.08780
1468.34800	0.08831
1467.06223	0.08867
1465.77646	0.08897
1464.49069	0.08931
1463.20492	0.08974
1461.91916	0.09017
1460.63339	0.09055
1459.34762	0.09084
1458.06185	0.09116
1456.77608	0.09166
1455.49031	0.09234
1454.20454	0.09293
1452.91877	0.09328
1451.63301	0.09350
1450.34724	0.09375
1449.06147	0.09402
1447.77570	0.09430
1446.48993	0.09458
1445.20416	0.09485
1443.91839	0.09504
1442.63262	0.09511
1441.34685	0.09506
1440.06109	0.09492
1438.77532	0.09474
1437.48955	0.09468
1436.20378	0.09495
1434.91801	0.09552
1433.63224	0.09618
1432.34647	0.09683
1431.06070	0.09753
1429.77494	0.09841
1428.48917	0.09949
1427.20340	0.10074
1425.91763	0.10208
1424.63186	0.10348
1423.34609	0.10490
1422.06032	0.10621
1420.77455	0.10736
1419.48878	0.10841
1418.20302	0.10944
1416.91725	0.11038
1415.63148	0.11112
1414.34571	0.11163
1413.05994	0.11198
1411.77417	0.11218
1410.48840	0.11223
1409.20263	0.11213
1407.91687	0.11181
1406.63110	0.11125
1405.34533	0.11050
1404.05956	0.10961
1402.77379	0.10860
1401.48802	0.10739
1400.20225	0.10596
1398.91648	0.10438
1397.63071	0.10273
1396.34495	0.10097
1395.05918	0.09910
1393.77341	0.09720
1392.48764	0.09530
1391.20187	0.09340
1389.91610	0.09149
1388.63033	0.08962
1387.34456	0.08781
1386.05880	0.08607
1384.77303	0.08429
1383.48726	0.08245
1382.20149	0.08060
1380.91572	0.07878
1379.62995	0.07699
1378.34418	0.07515
1377.05841	0.07323
1375.77264	0.07118
1374.48688	0.06901
1373.20111	0.06680
1371.91534	0.06461
1370.62957	0.06251
1369.34380	0.06050
1368.05803	0.05860
1366.77226	0.05677
1365.48649	0.05499
1364.20073	0.05327
1362.91496	0.05162
1361.62919	0.05006
1360.34342	0.04861
1359.05765	0.04725
1357.77188	0.04600
1356.48611	0.04485
1355.20034	0.04378
1353.91457	0.04277
1352.62881	0.04180
1351.34304	0.04087
1350.05727	0.04001
1348.77150	0.03922
1347.48573	0.03851
1346.19996	0.03784
1344.91419	0.03718
1343.62842	0.03654
1342.34266	0.03593
1341.05689	0.03535
1339.77112	0.03476
1338.48535	0.03416
1337.19958	0.03357
1335.91381	0.03301
1334.62804	0.03248
1333.34227	0.03198
1332.05650	0.03151
1330.77074	0.03111
1329.48497	0.03076
1328.19920	0.03042
1326.91343	0.03006
1325.62766	0.02970
1324.34189	0.02940
1323.05612	0.02916
1321.77035	0.02897
1320.48459	0.02878
1319.19882	0.02856
1317.91305	0.02831
1316.62728	0.02806
1315.34151	0.02782
1314.05574	0.02759
1312.76997	0.02738
1311.48420	0.02715
1310.19843	0.02691
1308.91267	0.02668
1307.62690	0.02648
1306.34113	0.02630
1305.05536	0.02614
1303.76959	0.02596
1302.48382	0.02575
1301.19805	0.02552
1299.91228	0.02530
1298.62652	0.02508
1297.34075	0.02488
1296.05498	0.02467
1294.76921	0.02447
1293.48344	0.02430
1292.19767	0.02415
1290.91190	0.02399
1289.62613	0.02380
1288.34036	0.02359
1287.05460	0.02338
1285.76883	0.02323
1284.48306	0.02314
1283.19729	0.02307
1281.91152	0.02296
1280.62575	0.02277
1279.33998	0.02254
1278.05421	0.02233
1276.76845	0.02217
1275.48268	0.02209
1274.19691	0.02204
1272.91114	0.02200
1271.62537	0.02195
1270.33960	0.02188
1269.05383	0.02181
1267.76806	0.02172
1266.48229	0.02160
1265.19653	0.02145
1263.91076	0.02127
1262.62499	0.02107
1261.33922	0.02088
1260.05345	0.02070
1258.76768	0.02054
1257.48191	0.02044
1256.19614	0.02038
1254.91037	0.02035
1253.62461	0.02028
1252.33884	0.02017
1251.05307	0.02005
1249.76730	0.01996
1248.48153	0.01988
1247.19576	0.01975
1245.90999	0.01958
1244.62422	0.01938
1243.33846	0.01922
1242.05269	0.01910
1240.76692	0.01902
1239.48115	0.01895
1238.19538	0.01888
1236.90961	0.01881
1235.62384	0.01876
1234.33807	0.01870
1233.05230	0.01863
1231.76654	0.01851
1230.48077	0.01835
1229.19500	0.01817
1227.90923	0.01804
1226.62346	0.01796
1225.33769	0.01791
1224.05192	0.01786
1222.76615	0.01781
1221.48039	0.01779
1220.19462	0.01781
1218.90885	0.01781
1217.62308	0.01777
1216.33731	0.01766
1215.05154	0.01752
1213.76577	0.01738
1212.48000	0.01726
1211.19423	0.01718
1209.90847	0.01715
1208.62270	0.01712
1207.33693	0.01707
1206.05116	0.01698
1204.76539	0.01688
1203.47962	0.01678
1202.19385	0.01670
1200.90808	0.01667
1199.62232	0.01671
1198.33655	0.01668
1197.05078	0.01664
1195.76501	0.01658
1194.47924	0.01650
1193.19347	0.01642
1191.90770	0.01639
1190.62193	0.01640
1189.33616	0.01642
1188.05040	0.01642
1186.76463	0.01640
1185.47886	0.01639
1184.19309	0.01642
1182.90732	0.01644
1181.62155	0.01643
1180.33578	0.01636
1179.05001	0.01629
1177.76425	0.01623
1176.47848	0.01621
1175.19271	0.01625
1173.90694	0.01638
1172.62117	0.01657
1171.33540	0.01676
1170.04963	0.01689
1168.76386	0.01694
1167.47809	0.01698
1166.19233	0.01708
1164.90656	0.01725
1163.62079	0.01745
1162.33502	0.01762
1161.04925	0.01775
1159.76348	0.01787
1158.47771	0.01807
1157.19194	0.01837
1155.90618	0.01876
1154.62041	0.01917
1153.33464	0.01953
1152.04887	0.01983
1150.76310	0.02010
1149.47733	0.02045
1148.19156	0.02093
1146.90579	0.02153
1145.62002	0.02221
1144.33426	0.02293
1143.04849	0.02369
1141.76272	0.02453
1140.47695	0.02550
1139.19118	0.02658
1137.90541	0.02774
1136.61964	0.02897
1135.33387	0.03026
1134.04811	0.03165
1132.76234	0.03315
1131.47657	0.03481
1130.19080	0.03668
1128.90503	0.03877
1127.61926	0.04105
1126.33349	0.04348
1125.04772	0.04605
1123.76195	0.04877
1122.47619	0.05163
1121.19042	0.05460
1119.90465	0.05764
1118.61888	0.06069
1117.33311	0.06375
1116.04734	0.06680
1114.76157	0.06986
1113.47580	0.07297
1112.19004	0.07612
1110.90427	0.07925
1109.61850	0.08228
1108.33273	0.08520
1107.04696	0.08809
1105.76119	0.09098
1104.47542	0.09383
1103.18965	0.09657
1101.90388	0.09913
1100.61812	0.10154
1099.33235	0.10390
1098.04658	0.10628
1096.76081	0.10866
1095.47504	0.11095
1094.18927	0.11313
1092.90350	0.11520
1091.61773	0.11716
1090.33197	0.11898
1089.04620	0.12068
1087.76043	0.12233
1086.47466	0.12401
1085.18889	0.12576
1083.90312	0.12758
1082.61735	0.12942
1081.33158	0.13132
1080.04581	0.13334
1078.76005	0.13552
1077.47428	0.13783
1076.18851	0.14022
1074.90274	0.14265
1073.61697	0.14516
1072.33120	0.14773
1071.04543	0.15035
1069.75966	0.15297
1068.47390	0.15556
1067.18813	0.15817
1065.90236	0.16089
1064.61659	0.16375
1063.33082	0.16672
1062.04505	0.16968
1060.75928	0.17257
1059.47351	0.17540
1058.18774	0.17820
1056.90198	0.18098
1055.61621	0.18368
1054.33044	0.18627
1053.04467	0.18880
1051.75890	0.19135
1050.47313	0.19399
1049.18736	0.19675
1047.90159	0.19963
1046.61583	0.20257
1045.33006	0.20552
1044.04429	0.20848
1042.75852	0.21144
1041.47275	0.21440
1040.18698	0.21739
1038.90121	0.22041
1037.61544	0.22350
1036.32967	0.22666
1035.04391	0.22982
1033.75814	0.23289
1032.47237	0.23571
1031.18660	0.23824
1029.90083	0.24048
1028.61506	0.24247
1027.32929	0.24424
1026.04352	0.24581
1024.75775	0.24723
1023.47199	0.24846
1022.18622	0.24937
1020.90045	0.24986
1019.61468	0.24994
1018.32891	0.24975
1017.04314	0.24935
1015.75737	0.24871
1014.47160	0.24770
1013.18584	0.24629
1011.90007	0.24445
1010.61430	0.24218
1009.32853	0.23948
1008.04276	0.23638
1006.75699	0.23294
1005.47122	0.22921
1004.18545	0.22523
1002.89968	0.22099
1001.61392	0.21645
1000.32815	0.21162
999.04238	0.20650
997.75661	0.20110
996.47084	0.19547
995.18507	0.18973
993.89930	0.18399
992.61353	0.17833
991.32777	0.17272
990.04200	0.16712
988.75623	0.16152
987.47046	0.15597
986.18469	0.15054
984.89892	0.14528
983.61315	0.14024
982.32738	0.13545
981.04161	0.13091
979.75585	0.12663
978.47008	0.12259
977.18431	0.11878
975.89854	0.11519
974.61277	0.11189
973.32700	0.10899
972.04123	0.10661
970.75546	0.10482
969.46970	0.10360
968.18393	0.10297
966.89816	0.10294
965.61239	0.10340
964.32662	0.10413
963.04085	0.10481
961.75508	0.10520
960.46931	0.10518
959.18354	0.10472
957.89778	0.10381
956.61201	0.10243
955.32624	0.10060
954.04047	0.09843
952.75470	0.09611
951.46893	0.09381
950.18316	0.09158
948.89739	0.08940
947.61163	0.08722
946.32586	0.08501
945.04009	0.08276
943.75432	0.08056
942.46855	0.07849
941.18278	0.07658
939.89701	0.07477
938.61124	0.07298
937.32547	0.07122
936.03971	0.06954
934.75394	0.06802
933.46817	0.06665
932.18240	0.06537
930.89663	0.06412
929.61086	0.06291
928.32509	0.06180
927.03932	0.06074
925.75356	0.05964
924.46779	0.05851
923.18202	0.05742
921.89625	0.05647
920.61048	0.05566
919.32471	0.05495
918.03894	0.05428
916.75317	0.05366
915.46740	0.05306
914.18164	0.05248
912.89587	0.05189
911.61010	0.05131
910.32433	0.05074
909.03856	0.05021
907.75279	0.04973
906.46702	0.04931
905.18125	0.04892
903.89549	0.04850
902.60972	0.04803
901.32395	0.04751
900.03818	0.04696
898.75241	0.04641
897.46664	0.04584
896.18087	0.04528
894.89510	0.04477
893.60933	0.04445
892.32357	0.04441
891.03780	0.04466
889.75203	0.04509
888.46626	0.04562
887.18049	0.04629
885.89472	0.04730
884.60895	0.04896
883.32318	0.05136
882.03742	0.05431
880.75165	0.05732
879.46588	0.05988
878.18011	0.06185
876.89434	0.06345
875.60857	0.06507
874.32280	0.06684
873.03703	0.06851
871.75126	0.06965
870.46550	0.06997
869.17973	0.06941
867.89396	0.06805
866.60819	0.06610
865.32242	0.06381
864.03665	0.06144
862.75088	0.05914
861.46511	0.05697
860.17935	0.05498
858.89358	0.05323
857.60781	0.05172
856.32204	0.05040
855.03627	0.04921
853.75050	0.04812
852.46473	0.04717
851.17896	0.04635
849.89319	0.04564
848.60743	0.04497
847.32166	0.04434
846.03589	0.04378
844.75012	0.04331
843.46435	0.04293
842.17858	0.04261
840.89281	0.04232
839.60704	0.04204
838.32128	0.04178
837.03551	0.04153
835.74974	0.04127
834.46397	0.04098
833.17820	0.04066
831.89243	0.04035
830.60666	0.04006
829.32089	0.03980
828.03512	0.03958
826.74936	0.03946
825.46359	0.03944
824.17782	0.03947
822.89205	0.03943
821.60628	0.03928
820.32051	0.03901
819.03474	0.03873
817.74897	0.03851
816.46321	0.03840
815.17744	0.03838
813.89167	0.03843
812.60590	0.03852
811.32013	0.03860
810.03436	0.03859
808.74859	0.03843
807.46282	0.03820
806.17705	0.03800
804.89129	0.03788
803.60552	0.03781
802.31975	0.03772
801.03398	0.03756
799.74821	0.03733
798.46244	0.03710
797.17667	0.03693
795.89090	0.03685
794.60513	0.03682
793.31937	0.03679
792.03360	0.03671
790.74783	0.03661
789.46206	0.03649
788.17629	0.03638
786.89052	0.03630
785.60475	0.03623
784.31898	0.03616
783.03322	0.03605
781.74745	0.03588
780.46168	0.03568
779.17591	0.03550
777.89014	0.03540
776.60437	0.03544
775.31860	0.03559
774.03283	0.03573
772.74706	0.03579
771.46130	0.03575
770.17553	0.03569
768.88976	0.03562
767.60399	0.03552
766.31822	0.03541
765.03245	0.03538
763.74668	0.03548
762.46091	0.03569
761.17515	0.03588
759.88938	0.03596
758.60361	0.03589
757.31784	0.03573
756.03207	0.03557
754.74630	0.03547
753.46053	0.03546
752.17476	0.03554
750.88899	0.03566
749.60323	0.03573
748.31746	0.03573
747.03169	0.03569
745.74592	0.03564
744.46015	0.03559
743.17438	0.03554
741.88861	0.03549
740.60284	0.03546
739.31708	0.03543
738.03131	0.03533
736.74554	0.03512
735.45977	0.03484
734.17400	0.03463
732.88823	0.03454
731.60246	0.03452
730.31669	0.03451
729.03092	0.03450
727.74516	0.03450
726.45939	0.03452
725.17362	0.03455
723.88785	0.03457
722.60208	0.03467
721.31631	0.03480
720.03054	0.03485
718.74477	0.03477
717.45901	0.03460
716.17324	0.03443
714.88747	0.03433
713.60170	0.03431
712.31593	0.03432
711.03016	0.03433
709.74439	0.03435
708.45862	0.03437
707.17285	0.03437
705.88709	0.03433
704.60132	0.03428
703.31555	0.03424
702.02978	0.03420
700.74401	0.03416
699.45824	0.03412
698.17247	0.03409
696.88670	0.03405
695.60094	0.03397
694.31517	0.03388
693.02940	0.03380
691.74363	0.03379
690.45786	0.03380
689.17209	0.03381
687.88632	0.03378
686.60055	0.03373
685.31478	0.03367
684.02902	0.03360
682.74325	0.03352
681.45748	0.03343
680.17171	0.03338
678.88594	0.03333
677.60017	0.03326
676.31440	0.03313
675.02863	0.03300
673.74287	0.03292
672.45710	0.03295
671.17133	0.03308
669.88556	0.03326
668.59979	0.03342
667.31402	0.03353
666.02825	0.03341
664.74248	0.03314
663.45671	0.03279
662.17095	0.03246
660.88518	0.03220
659.59941	0.03201
658.31364	0.03187
657.02787	0.03174
655.74210	0.03161
654.45633	0.03148
653.17056	0.03138
651.88480	0.03131
650.59903	0.03130
649.31326	0.03133
648.02749	0.03134
646.74172	0.03131
645.45595	0.03125
644.17018	0.03120
642.88441	0.03121
641.59864	0.03128
640.31288	0.03140
639.02711	0.03150
637.74134	0.03159
636.45557	0.03172
635.16980	0.03198
633.88403	0.03241
632.59826	0.03299
631.31249	0.03361
630.02673	0.03392
628.74096	0.03411
627.45519	0.03548
626.16942	0.03550
624.88365	0.03457
623.59788	0.03409
622.31211	0.03524
621.02634	0.03831
619.74057	0.04241
618.45481	0.04647
617.16904	0.05019
615.88327	0.05370
614.59750	0.05700
613.31173	0.06011
612.02596	0.06333
610.74019	0.06714
609.45442	0.07167
608.16866	0.07654
606.88289	0.08108
605.59712	0.08487
604.31135	0.08784
603.02558	0.09008
601.73981	0.09159
600.45404	0.09220
599.16827	0.09172
597.88250	0.09025
596.59674	0.08820
595.31097	0.08613
594.02520	0.08442
592.73943	0.08318
591.45366	0.08228
590.16789	0.08165
588.88212	0.08137
587.59635	0.08160
586.31059	0.08245
585.02482	0.08384
583.73905	0.08559
582.45328	0.08751
581.16751	0.08952
579.88174	0.09162
578.59597	0.09387
577.31020	0.09628
576.02443	0.09876
574.73867	0.10117
573.45290	0.10342
572.16713	0.10552
570.88136	0.10765
569.59559	0.11004
568.30982	0.11285
567.02405	0.11604
565.73828	0.11928
564.45251	0.12215
563.16675	0.12436
561.88098	0.12573
560.59521	0.12609
559.30944	0.12516
558.02367	0.12275
556.73790	0.11893
555.45213	0.11409
554.16636	0.10874
552.88060	0.10332
551.59483	0.09805
550.30906	0.09307
549.02329	0.08854
547.73752	0.08454
546.45175	0.08100
545.16598	0.07773
543.88021	0.07459
542.59444	0.07162
541.30868	0.06892
540.02291	0.06653
538.73714	0.06440
537.45137	0.06243
536.16560	0.06056
534.87983	0.05872
533.59406	0.05688
532.30829	0.05505
531.02253	0.05331
529.73676	0.05177
528.45099	0.05047
527.16522	0.04937
525.87945	0.04834
524.59368	0.04731
523.30791	0.04626
522.02214	0.04520
520.73637	0.04413
519.45061	0.04313
518.16484	0.04221
516.87907	0.04139
515.59330	0.04063
514.30753	0.03988
513.02176	0.03918
511.73599	0.03858
510.45022	0.03811
509.16446	0.03770
507.87869	0.03723
506.59292	0.03662
505.30715	0.03589
504.02138	0.03519
502.73561	0.03460
501.44984	0.03414
500.16407	0.03373
498.87830	0.03334
497.59254	0.03297
496.30677	0.03266
495.02100	0.03241
493.73523	0.03217
492.44946	0.03191
491.16369	0.03163
489.87792	0.03135
488.59215	0.03110
487.30639	0.03089
486.02062	0.03071
484.73485	0.03056
483.44908	0.03046
482.16331	0.03044
480.87754	0.03051
479.59177	0.03063
478.30600	0.03076
477.02023	0.03093
475.73447	0.03115
474.44870	0.03138
473.16293	0.03155
471.87716	0.03159
470.59139	0.03149
469.30562	0.03133
468.01985	0.03116
466.73408	0.03099
465.44832	0.03077
464.16255	0.03046
462.87678	0.03007
461.59101	0.02965
460.30524	0.02925
459.01947	0.02890
457.73370	0.02864
456.44793	0.02845
455.16216	0.02829
453.87640	0.02809
452.59063	0.02782
451.30486	0.02746
450.01909	0.02706
448.73332	0.02668
447.44755	0.02639
446.16178	0.02620
444.87601	0.02609
443.59025	0.02603
442.30448	0.02599
441.01871	0.02595
439.73294	0.02585
438.44717	0.02570
437.16140	0.02551
435.87563	0.02535
434.58986	0.02528
433.30409	0.02528
432.01833	0.02528
430.73256	0.02520
429.44679	0.02502
428.16102	0.02480
426.87525	0.02462
425.58948	0.02450
424.30371	0.02443
423.01794	0.02434
421.73218	0.02418
420.44641	0.02396
419.16064	0.02374
417.87487	0.02360
416.58910	0.02358
415.30333	0.02365
414.01756	0.02378
412.73179	0.02389
411.44602	0.02394
410.16026	0.02394
408.87449	0.02394
407.58872	0.02396
406.30295	0.02396
405.01718	0.02392
403.73141	0.02386
402.44564	0.02384
401.15987	0.02389
399.87411	0.02398
