3997.45528	0.05622
3996.16951	0.05624
3994.88374	0.05601
3993.59798	0.05549
3992.31221	0.05501
3991.02644	0.05500
3989.74067	0.05561
3988.45490	0.05661
3987.16913	0.05749
3985.88336	0.05782
3984.59759	0.05754
3983.31183	0.05696
3982.02606	0.05658
3980.74029	0.05662
3979.45452	0.05696
3978.16875	0.05724
3976.88298	0.05723
3975.59721	0.05698
3974.31144	0.05674
3973.02567	0.05671
3971.73991	0.05687
3970.45414	0.05705
3969.16837	0.05710
3967.88260	0.05694
3966.59683	0.05654
3965.31106	0.05597
3964.02529	0.05541
3962.73952	0.05504
3961.45376	0.05499
3960.16799	0.05525
3958.88222	0.05567
3957.59645	0.05596
3956.31068	0.05594
3955.02491	0.05572
3953.73914	0.05563
3952.45337	0.05586
3951.16760	0.05617
3949.88184	0.05606
3948.59607	0.05531
3947.31030	0.05421
3946.02453	0.05324
3944.73876	0.05269
3943.45299	0.05252
3942.16722	0.05258
3940.88145	0.05268
3939.59569	0.05268
3938.30992	0.05262
3937.02415	0.05277
3935.73838	0.05333
3934.45261	0.05413
3933.16684	0.05471
3931.88107	0.05477
3930.59530	0.05444
3929.30953	0.05414
3928.02377	0.05425
3926.73800	0.05477
3925.45223	0.05535
3924.16646	0.05556
3922.88069	0.05521
3921.59492	0.05444
3920.30915	0.05352
3919.02338	0.05274
3917.73762	0.05231
3916.45185	0.05224
3915.16608	0.05243
3913.88031	0.05262
3912.59454	0.05249
3911.30877	0.05192
3910.02300	0.05125
3908.73723	0.05112
3907.45146	0.05186
3906.16570	0.05314
3904.87993	0.05421
3903.59416	0.05457
3902.30839	0.05430
3901.02262	0.05374
3899.73685	0.05319
3898.45108	0.05273
3897.16531	0.05239
3895.87955	0.05220
3894.59378	0.05225
3893.30801	0.05256
3892.02224	0.05305
3890.73647	0.05358
3889.45070	0.05408
3888.16493	0.05453
3886.87916	0.05490
3885.59339	0.05518
3884.30763	0.05536
3883.02186	0.05538
3881.73609	0.05510
3880.45032	0.05455
3879.16455	0.05397
3877.87878	0.05359
3876.59301	0.05337
3875.30724	0.05321
3874.02148	0.05315
3872.73571	0.05328
3871.44994	0.05358
3870.16417	0.05381
3868.87840	0.05382
3867.59263	0.05356
3866.30686	0.05309
3865.02109	0.05250
3863.73532	0.05201
3862.44956	0.05186
3861.16379	0.05214
3859.87802	0.05264
3858.59225	0.05317
3857.30648	0.05368
3856.02071	0.05422
3854.73494	0.05465
3853.44917	0.05475
3852.16341	0.05458
3850.87764	0.05445
3849.59187	0.05452
3848.30610	0.05465
3847.02033	0.05457
3845.73456	0.05419
3844.44879	0.05367
3843.16302	0.05320
3841.87725	0.05287
3840.59149	0.05265
3839.30572	0.05244
3838.01995	0.05211
3836.73418	0.05172
3835.44841	0.05143
3834.16264	0.05139
3832.87687	0.05161
3831.59110	0.05192
3830.30534	0.05218
3829.01957	0.05230
3827.73380	0.05229
3826.44803	0.05220
3825.16226	0.05220
3823.87649	0.05243
3822.59072	0.05288
3821.30495	0.05338
3820.01918	0.05374
3818.73342	0.05390
3817.44765	0.05380
3816.16188	0.05339
3814.87611	0.05275
3813.59034	0.05210
3812.30457	0.05163
3811.01880	0.05124
3809.73303	0.05077
3808.44726	0.05018
3807.16150	0.04972
3805.87573	0.04971
3804.58996	0.05021
3803.30419	0.05093
3802.01842	0.05148
3800.73265	0.05169
3799.44688	0.05171
3798.16111	0.05173
3796.87535	0.05177
3795.58958	0.05182
3794.30381	0.05187
3793.01804	0.05183
3791.73227	0.05147
3790.44650	0.05081
3789.16073	0.05019
3787.87496	0.05000
3786.58919	0.05019
3785.30343	0.05030
3784.01766	0.05007
3782.73189	0.04971
3781.44612	0.04959
3780.16035	0.04973
3778.87458	0.04992
3777.58881	0.05013
3776.30304	0.05054
3775.01728	0.05117
3773.73151	0.05176
3772.44574	0.05197
3771.15997	0.05168
3769.87420	0.05115
3768.58843	0.05079
3767.30266	0.05079
3766.01689	0.05093
3764.73112	0.05082
3763.44536	0.05043
3762.15959	0.05003
3760.87382	0.04983
3759.58805	0.04972
3758.30228	0.04948
3757.01651	0.04908
3755.73074	0.04867
3754.44497	0.04844
3753.15921	0.04833
3751.87344	0.04812
3750.58767	0.04774
3749.30190	0.04745
3748.01613	0.04753
3746.73036	0.04783
3745.44459	0.04789
3744.15882	0.04757
3742.87305	0.04726
3741.58729	0.04743
3740.30152	0.04804
3739.01575	0.04864
3737.72998	0.04884
3736.44421	0.04871
3735.15844	0.04870
3733.87267	0.04906
3732.58690	0.04959
3731.30114	0.04979
3730.01537	0.04931
3728.72960	0.04831
3727.44383	0.04723
3726.15806	0.04645
3724.87229	0.04602
3723.58652	0.04578
3722.30075	0.04553
3721.01498	0.04520
3719.72922	0.04491
3718.44345	0.04501
3717.15768	0.04585
3715.87191	0.04730
3714.58614	0.04861
3713.30037	0.04904
3712.01460	0.04852
3710.72883	0.04772
3709.44307	0.04726
3708.15730	0.04719
3706.87153	0.04709
3705.58576	0.04670
3704.29999	0.04623
3703.01422	0.04620
3701.72845	0.04688
3700.44268	0.04774
3699.15691	0.04792
3697.87115	0.04717
3696.58538	0.04603
3695.29961	0.04520
3694.01384	0.04508
3692.72807	0.04575
3691.44230	0.04675
3690.15653	0.04731
3688.87076	0.04703
3687.58500	0.04618
3686.29923	0.04530
3685.01346	0.04494
3683.72769	0.04522
3682.44192	0.04588
3681.15615	0.04658
3679.87038	0.04703
3678.58461	0.04708
3677.29884	0.04685
3676.01308	0.04661
3674.72731	0.04668
3673.44154	0.04720
3672.15577	0.04800
3670.87000	0.04864
3669.58423	0.04868
3668.29846	0.04801
3667.01269	0.04697
3665.72693	0.04603
3664.44116	0.04553
3663.15539	0.04561
3661.86962	0.04618
3660.58385	0.04688
3659.29808	0.04727
3658.01231	0.04714
3656.72654	0.04674
3655.44077	0.04655
3654.15501	0.04696
3652.86924	0.04791
3651.58347	0.04890
3650.29770	0.04930
3649.01193	0.04884
3647.72616	0.04784
3646.44039	0.04699
3645.15462	0.04669
3643.86886	0.04690
3642.58309	0.04730
3641.29732	0.04766
3640.01155	0.04792
3638.72578	0.04811
3637.44001	0.04823
3636.15424	0.04823
3634.86847	0.04810
3633.58270	0.04795
3632.29694	0.04794
3631.01117	0.04808
3629.72540	0.04824
3628.43963	0.04827
3627.15386	0.04829
3625.86809	0.04861
3624.58232	0.04939
3623.29655	0.05032
3622.01079	0.05086
3620.72502	0.05075
3619.43925	0.05027
3618.15348	0.04978
3616.86771	0.04942
3615.58194	0.04913
3614.29617	0.04901
3613.01040	0.04921
3611.72463	0.04973
3610.43887	0.05038
3609.15310	0.05103
3607.86733	0.05168
3606.58156	0.05230
3605.29579	0.05272
3604.01002	0.05280
3602.72425	0.05253
3601.43848	0.05210
3600.15272	0.05167
3598.86695	0.05126
3597.58118	0.05092
3596.29541	0.05082
3595.00964	0.05110
3593.72387	0.05167
3592.43810	0.05234
3591.15233	0.05295
3589.86656	0.05333
3588.58080	0.05335
3587.29503	0.05304
3586.00926	0.05250
3584.72349	0.05198
3583.43772	0.05181
3582.15195	0.05205
3580.86618	0.05253
3579.58041	0.05308
3578.29464	0.05364
3577.00888	0.05419
3575.72311	0.05469
3574.43734	0.05520
3573.15157	0.05582
3571.86580	0.05666
3570.58003	0.05761
3569.29426	0.05847
3568.00849	0.05902
3566.72273	0.05910
3565.43696	0.05873
3564.15119	0.05808
3562.86542	0.05744
3561.57965	0.05708
3560.29388	0.05709
3559.00811	0.05742
3557.72234	0.05793
3556.43657	0.05839
3555.15081	0.05849
3553.86504	0.05808
3552.57927	0.05733
3551.29350	0.05671
3550.00773	0.05668
3548.72196	0.05738
3547.43619	0.05861
3546.15042	0.05999
3544.86466	0.06121
3543.57889	0.06212
3542.29312	0.06271
3541.00735	0.06304
3539.72158	0.06320
3538.43581	0.06325
3537.15004	0.06332
3535.86427	0.06353
3534.57850	0.06381
3533.29274	0.06393
3532.00697	0.06366
3530.72120	0.06305
3529.43543	0.06247
3528.14966	0.06236
3526.86389	0.06286
3525.57812	0.06367
3524.29235	0.06434
3523.00659	0.06474
3521.72082	0.06509
3520.43505	0.06550
3519.14928	0.06581
3517.86351	0.06573
3516.57774	0.06526
3515.29197	0.06472
3514.00620	0.06444
3512.72043	0.06451
3511.43467	0.06474
3510.14890	0.06487
3508.86313	0.06481
3507.57736	0.06467
3506.29159	0.06476
3505.00582	0.06528
3503.72005	0.06607
3502.43428	0.06674
3501.14852	0.06706
3499.86275	0.06714
3498.57698	0.06726
3497.29121	0.06756
3496.00544	0.06796
3494.71967	0.06832
3493.43390	0.06851
3492.14813	0.06845
3490.86236	0.06813
3489.57660	0.06767
3488.29083	0.06733
3487.00506	0.06725
3485.71929	0.06738
3484.43352	0.06755
3483.14775	0.06768
3481.86198	0.06779
3480.57621	0.06795
3479.29045	0.06829
3478.00468	0.06892
3476.71891	0.06976
3475.43314	0.07058
3474.14737	0.07111
3472.86160	0.07127
3471.57583	0.07123
3470.29006	0.07119
3469.00429	0.07128
3467.71853	0.07148
3466.43276	0.07178
3465.14699	0.07206
3463.86122	0.07218
3462.57545	0.07212
3461.28968	0.07217
3460.00391	0.07254
3458.71814	0.07308
3457.43238	0.07335
3456.14661	0.07312
3454.86084	0.07261
3453.57507	0.07226
3452.28930	0.07235
3451.00353	0.07288
3449.71776	0.07356
3448.43199	0.07400
3447.14622	0.07398
3445.86046	0.07366
3444.57469	0.07343
3443.28892	0.07350
3442.00315	0.07386
3440.71738	0.07439
3439.43161	0.07504
3438.14584	0.07572
3436.86007	0.07613
3435.57431	0.07598
3434.28854	0.07528
3433.00277	0.07434
3431.71700	0.07358
3430.43123	0.07327
3429.14546	0.07343
3427.85969	0.07386
3426.57392	0.07428
3425.28815	0.07448
3424.00239	0.07445
3422.71662	0.07433
3421.43085	0.07424
3420.14508	0.07427
3418.85931	0.07443
3417.57354	0.07470
3416.28777	0.07505
3415.00200	0.07543
3413.71624	0.07580
3412.43047	0.07616
3411.14470	0.07648
3409.85893	0.07677
3408.57316	0.07706
3407.28739	0.07742
3406.00162	0.07788
3404.71585	0.07835
3403.43008	0.07872
3402.14432	0.07893
3400.85855	0.07898
3399.57278	0.07885
3398.28701	0.07854
3397.00124	0.07811
3395.71547	0.07768
3394.42970	0.07745
3393.14393	0.07764
3391.85817	0.07823
3390.57240	0.07891
3389.28663	0.07930
3388.00086	0.07926
3386.71509	0.07894
3385.42932	0.07860
3384.14355	0.07839
3382.85778	0.07832
3381.57201	0.07838
3380.28625	0.07855
3379.00048	0.07876
3377.71471	0.07896
3376.42894	0.07908
3375.14317	0.07909
3373.85740	0.07895
3372.57163	0.07876
3371.28586	0.07870
3370.00010	0.07895
3368.71433	0.07949
3367.42856	0.08012
3366.14279	0.08060
3364.85702	0.08076
3363.57125	0.08063
3362.28548	0.08032
3360.99971	0.07999
3359.71394	0.07977
3358.42818	0.07977
3357.14241	0.08009
3355.85664	0.08076
3354.57087	0.08159
3353.28510	0.08221
3351.99933	0.08235
3350.71356	0.08209
3349.42779	0.08174
3348.14202	0.08157
3346.85626	0.08160
3345.57049	0.08165
3344.28472	0.08164
3342.99895	0.08160
3341.71318	0.08162
3340.42741	0.08171
3339.14164	0.08174
3337.85587	0.08161
3336.57011	0.08134
3335.28434	0.08109
3333.99857	0.08098
3332.71280	0.08102
3331.42703	0.08116
3330.14126	0.08134
3328.85549	0.08145
3327.56972	0.08137
3326.28395	0.08118
3324.99819	0.08110
3323.71242	0.08127
3322.42665	0.08157
3321.14088	0.08176
3319.85511	0.08181
3318.56934	0.08186
3317.28357	0.08211
3315.99780	0.08258
3314.71204	0.08307
3313.42627	0.08328
3312.14050	0.08311
3310.85473	0.08279
3309.56896	0.08261
3308.28319	0.08264
3306.99742	0.08267
3305.71165	0.08247
3304.42588	0.08205
3303.14012	0.08160
3301.85435	0.08133
3300.56858	0.08135
3299.28281	0.08162
3297.99704	0.08189
3296.71127	0.08198
3295.42550	0.08189
3294.13973	0.08184
3292.85397	0.08198
3291.56820	0.08216
3290.28243	0.08212
3288.99666	0.08182
3287.71089	0.08157
3286.42512	0.08160
3285.13935	0.08186
3283.85358	0.08205
3282.56781	0.08200
3281.28205	0.08182
3279.99628	0.08179
3278.71051	0.08206
3277.42474	0.08253
3276.13897	0.08293
3274.85320	0.08311
3273.56743	0.08307
3272.28166	0.08291
3270.99590	0.08267
3269.71013	0.08239
3268.42436	0.08217
3267.13859	0.08202
3265.85282	0.08187
3264.56705	0.08163
3263.28128	0.08131
3261.99551	0.08103
3260.70974	0.08093
3259.42398	0.08101
3258.13821	0.08120
3256.85244	0.08136
3255.56667	0.08143
3254.28090	0.08134
3252.99513	0.08104
3251.70936	0.08054
3250.42359	0.08000
3249.13783	0.07963
3247.85206	0.07948
3246.56629	0.07945
3245.28052	0.07936
3243.99475	0.07917
3242.70898	0.07895
3241.42321	0.07882
3240.13744	0.07885
3238.85167	0.07901
3237.56591	0.07915
3236.28014	0.07914
3234.99437	0.07895
3233.70860	0.07865
3232.42283	0.07834
3231.13706	0.07820
3229.85129	0.07836
3228.56552	0.07883
3227.27976	0.07936
3225.99399	0.07960
3224.70822	0.07943
3223.42245	0.07901
3222.13668	0.07855
3220.85091	0.07815
3219.56514	0.07781
3218.27937	0.07754
3216.99360	0.07748
3215.70784	0.07767
3214.42207	0.07793
3213.13630	0.07794
3211.85053	0.07757
3210.56476	0.07708
3209.27899	0.07684
3207.99322	0.07690
3206.70745	0.07697
3205.42169	0.07676
3204.13592	0.07632
3202.85015	0.07601
3201.56438	0.07605
3200.27861	0.07637
3198.99284	0.07666
3197.70707	0.07670
3196.42130	0.07653
3195.13553	0.07631
3193.84977	0.07610
3192.56400	0.07580
3191.27823	0.07538
3189.99246	0.07490
3188.70669	0.07451
3187.42092	0.07429
3186.13515	0.07421
3184.84938	0.07420
3183.56362	0.07418
3182.27785	0.07418
3180.99208	0.07422
3179.70631	0.07429
3178.42054	0.07426
3177.13477	0.07401
3175.84900	0.07349
3174.56323	0.07292
3173.27746	0.07259
3171.99170	0.07270
3170.70593	0.07312
3169.42016	0.07354
3168.13439	0.07366
3166.84862	0.07342
3165.56285	0.07300
3164.27708	0.07264
3162.99131	0.07250
3161.70555	0.07252
3160.41978	0.07256
3159.13401	0.07249
3157.84824	0.07225
3156.56247	0.07188
3155.27670	0.07149
3153.99093	0.07120
3152.70516	0.07111
3151.41939	0.07117
3150.13363	0.07120
3148.84786	0.07104
3147.56209	0.07069
3146.27632	0.07031
3144.99055	0.07013
3143.70478	0.07016
3142.41901	0.07023
3141.13324	0.07010
3139.84748	0.06973
3138.56171	0.06927
3137.27594	0.06896
3135.99017	0.06892
3134.70440	0.06909
3133.41863	0.06934
3132.13286	0.06955
3130.84709	0.06964
3129.56132	0.06961
3128.27556	0.06957
3126.98979	0.06963
3125.70402	0.06974
3124.41825	0.06971
3123.13248	0.06941
3121.84671	0.06893
3120.56094	0.06849
3119.27517	0.06824
3117.98940	0.06820
3116.70364	0.06825
3115.41787	0.06823
3114.13210	0.06810
3112.84633	0.06792
3111.56056	0.06778
3110.27479	0.06767
3108.98902	0.06751
3107.70325	0.06732
3106.41749	0.06725
3105.13172	0.06742
3103.84595	0.06773
3102.56018	0.06795
3101.27441	0.06799
3099.98864	0.06798
3098.70287	0.06803
3097.41710	0.06808
3096.13133	0.06801
3094.84557	0.06784
3093.55980	0.06764
3092.27403	0.06748
3090.98826	0.06738
3089.70249	0.06735
3088.41672	0.06737
3087.13095	0.06738
3085.84518	0.06735
3084.55942	0.06738
3083.27365	0.06754
3081.98788	0.06769
3080.70211	0.06761
3079.41634	0.06723
3078.13057	0.06677
3076.84480	0.06653
3075.55903	0.06663
3074.27326	0.06693
3072.98750	0.06718
3071.70173	0.06724
3070.41596	0.06717
3069.13019	0.06711
3067.84442	0.06713
3066.55865	0.06715
3065.27288	0.06702
3063.98711	0.06671
3062.70135	0.06636
3061.41558	0.06615
3060.12981	0.06613
3058.84404	0.06617
3057.55827	0.06614
3056.27250	0.06594
3054.98673	0.06562
3053.70096	0.06528
3052.41519	0.06503
3051.12943	0.06493
3049.84366	0.06494
3048.55789	0.06495
3047.27212	0.06493
3045.98635	0.06490
3044.70058	0.06482
3043.41481	0.06458
3042.12904	0.06416
3040.84328	0.06370
3039.55751	0.06342
3038.27174	0.06336
3036.98597	0.06335
3035.70020	0.06319
3034.41443	0.06285
3033.12866	0.06261
3031.84289	0.06271
3030.55712	0.06303
3029.27136	0.06321
3027.98559	0.06297
3026.69982	0.06242
3025.41405	0.06191
3024.12828	0.06169
3022.84251	0.06176
3021.55674	0.06199
3020.27097	0.06230
3018.98521	0.06261
3017.69944	0.06281
3016.41367	0.06275
3015.12790	0.06240
3013.84213	0.06186
3012.55636	0.06131
3011.27059	0.06091
3009.98482	0.06075
3008.69905	0.06078
3007.41329	0.06082
3006.12752	0.06069
3004.84175	0.06040
3003.55598	0.06011
3002.27021	0.06000
3000.98444	0.06009
2999.69867	0.06028
2998.41290	0.06060
2997.12714	0.06095
2995.84137	0.06121
2994.55560	0.06130
2993.26983	0.06129
2991.98406	0.06127
2990.69829	0.06123
2989.41252	0.06110
2988.12675	0.06085
2986.84098	0.06058
2985.55522	0.06049
2984.26945	0.06066
2982.98368	0.06102
2981.69791	0.06139
2980.41214	0.06160
2979.12637	0.06158
2977.84060	0.06136
2976.55483	0.06115
2975.26907	0.06125
2973.98330	0.06178
2972.69753	0.06256
2971.41176	0.06327
2970.12599	0.06369
2968.84022	0.06389
2967.55445	0.06411
2966.26868	0.06465
2964.98291	0.06558
2963.69715	0.06665
2962.41138	0.06745
2961.12561	0.06779
2959.83984	0.06786
2958.55407	0.06797
2957.26830	0.06824
2955.98253	0.06857
2954.69676	0.06886
2953.41100	0.06914
2952.12523	0.06953
2950.83946	0.06994
2949.55369	0.07021
2948.26792	0.07024
2946.98215	0.07019
2945.69638	0.07016
2944.41061	0.07011
2943.12484	0.06991
2941.83908	0.06960
2940.55331	0.06931
2939.26754	0.06916
2937.98177	0.06922
2936.69600	0.06957
2935.41023	0.07021
2934.12446	0.07104
2932.83869	0.07189
2931.55293	0.07254
2930.26716	0.07283
2928.98139	0.07277
2927.69562	0.07254
2926.40985	0.07233
2925.12408	0.07218
2923.83831	0.07203
2922.55254	0.07182
2921.26677	0.07159
2919.98101	0.07140
2918.69524	0.07128
2917.40947	0.07122
2916.12370	0.07118
2914.83793	0.07109
2913.55216	0.07087
2912.26639	0.07050
2910.98062	0.07003
2909.69486	0.06955
2908.40909	0.06910
2907.12332	0.06863
2905.83755	0.06812
2904.55178	0.06759
2903.26601	0.06713
2901.98024	0.06682
2900.69447	0.06663
2899.40870	0.06652
2898.12294	0.06634
2896.83717	0.06598
2895.55140	0.06547
2894.26563	0.06499
2892.97986	0.06474
2891.69409	0.06468
2890.40832	0.06467
2889.12255	0.06458
2887.83678	0.06441
2886.55102	0.06422
2885.26525	0.06408
2883.97948	0.06399
2882.69371	0.06384
2881.40794	0.06356
2880.12217	0.06321
2878.83640	0.06296
2877.55063	0.06296
2876.26487	0.06316
2874.97910	0.06341
2873.69333	0.06360
2872.40756	0.06375
2871.12179	0.06390
2869.83602	0.06406
2868.55025	0.06418
2867.26448	0.06419
2865.97871	0.06411
2864.69295	0.06395
2863.40718	0.06372
2862.12141	0.06347
2860.83564	0.06322
2859.54987	0.06303
2858.26410	0.06290
2856.97833	0.06282
2855.69256	0.06278
2854.40680	0.06282
2853.12103	0.06292
2851.83526	0.06296
2850.54949	0.06280
2849.26372	0.06244
2847.97795	0.06199
2846.69218	0.06156
2845.40641	0.06113
2844.12064	0.06070
2842.83488	0.06030
2841.54911	0.05995
2840.26334	0.05957
2838.97757	0.05907
2837.69180	0.05846
2836.40603	0.05788
2835.12026	0.05749
2833.83449	0.05731
2832.54873	0.05722
2831.26296	0.05705
2829.97719	0.05673
2828.69142	0.05631
2827.40565	0.05585
2826.11988	0.05545
2824.83411	0.05517
2823.54834	0.05505
2822.26257	0.05498
2820.97681	0.05486
2819.69104	0.05466
2818.40527	0.05451
2817.11950	0.05446
2815.83373	0.05443
2814.54796	0.05429
2813.26219	0.05402
2811.97642	0.05372
2810.69066	0.05349
2809.40489	0.05338
2808.11912	0.05337
2806.83335	0.05337
2805.54758	0.05328
2804.26181	0.05309
2802.97604	0.05284
2801.69027	0.05260
2800.40450	0.05237
2799.11874	0.05219
2797.83297	0.05208
2796.54720	0.05205
2795.26143	0.05205
2793.97566	0.05203
2792.68989	0.05195
2791.40412	0.05182
2790.11835	0.05166
2788.83259	0.05151
2787.54682	0.05134
2786.26105	0.05118
2784.97528	0.05110
2783.68951	0.05112
2782.40374	0.05115
2781.11797	0.05105
2779.83220	0.05077
2778.54643	0.05041
2777.26067	0.05016
2775.97490	0.05017
2774.68913	0.05037
2773.40336	0.05057
2772.11759	0.05062
2770.83182	0.05053
2769.54605	0.05041
2768.26028	0.05034
2766.97452	0.05028
2765.68875	0.05018
2764.40298	0.05005
2763.11721	0.04996
2761.83144	0.04996
2760.54567	0.04999
2759.25990	0.04994
2757.97413	0.04978
2756.68836	0.04956
2755.40260	0.04937
2754.11683	0.04922
2752.83106	0.04910
2751.54529	0.04902
2750.25952	0.04901
2748.97375	0.04906
2747.68798	0.04908
2746.40221	0.04899
2745.11645	0.04883
2743.83068	0.04867
2742.54491	0.04857
2741.25914	0.04855
2739.97337	0.04856
2738.68760	0.04852
2737.40183	0.04833
2736.11606	0.04807
2734.83029	0.04790
2733.54453	0.04793
2732.25876	0.04809
2730.97299	0.04824
2729.68722	0.04832
2728.40145	0.04829
2727.11568	0.04809
2725.82991	0.04773
2724.54414	0.04738
2723.25838	0.04725
2721.97261	0.04736
2720.68684	0.04752
2719.40107	0.04751
2718.11530	0.04732
2716.82953	0.04710
2715.54376	0.04696
2714.25799	0.04692
2712.97222	0.04695
2711.68646	0.04696
2710.40069	0.04685
2709.11492	0.04661
2707.82915	0.04636
2706.54338	0.04624
2705.25761	0.04628
2703.97184	0.04640
2702.68607	0.04647
2701.40031	0.04647
2700.11454	0.04644
2698.82877	0.04645
2697.54300	0.04648
2696.25723	0.04649
2694.97146	0.04643
2693.68569	0.04627
2692.39992	0.04599
2691.11415	0.04570
2689.82839	0.04557
2688.54262	0.04566
2687.25685	0.04585
2685.97108	0.04594
2684.68531	0.04589
2683.39954	0.04578
2682.11377	0.04573
2680.82800	0.04580
2679.54224	0.04592
2678.25647	0.04600
2676.97070	0.04597
2675.68493	0.04586
2674.39916	0.04571
2673.11339	0.04554
2671.82762	0.04536
2670.54185	0.04524
2669.25608	0.04519
2667.97032	0.04520
2666.68455	0.04522
2665.39878	0.04522
2664.11301	0.04523
2662.82724	0.04530
2661.54147	0.04540
2660.25570	0.04544
2658.96993	0.04539
2657.68417	0.04527
2656.39840	0.04513
2655.11263	0.04501
2653.82686	0.04490
2652.54109	0.04479
2651.25532	0.04467
2649.96955	0.04456
2648.68378	0.04447
2647.39801	0.04445
2646.11225	0.04454
2644.82648	0.04468
2643.54071	0.04475
2642.25494	0.04461
2640.96917	0.04423
2639.68340	0.04373
2638.39763	0.04330
2637.11186	0.04312
2635.82609	0.04323
2634.54033	0.04350
2633.25456	0.04369
2631.96879	0.04363
2630.68302	0.04334
2629.39725	0.04299
2628.11148	0.04278
2626.82571	0.04269
2625.53994	0.04260
2624.25418	0.04240
2622.96841	0.04209
2621.68264	0.04174
2620.39687	0.04139
2619.11110	0.04108
2617.82533	0.04086
2616.53956	0.04082
2615.25379	0.04097
2613.96802	0.04115
2612.68226	0.04115
2611.39649	0.04092
2610.11072	0.04064
2608.82495	0.04047
2607.53918	0.04043
2606.25341	0.04040
2604.96764	0.04024
2603.68187	0.03994
2602.39611	0.03965
2601.11034	0.03955
2599.82457	0.03963
2598.53880	0.03970
2597.25303	0.03961
2595.96726	0.03944
2594.68149	0.03932
2593.39572	0.03917
2592.10995	0.03883
2590.82419	0.03836
2589.53842	0.03804
2588.25265	0.03807
2586.96688	0.03842
2585.68111	0.03889
2584.39534	0.03920
2583.10957	0.03914
2581.82380	0.03869
2580.53804	0.03796
2579.25227	0.03717
2577.96650	0.03661
2576.68073	0.03647
2575.39496	0.03673
2574.10919	0.03710
2572.82342	0.03724
2571.53765	0.03706
2570.25188	0.03678
2568.96612	0.03667
2567.68035	0.03678
2566.39458	0.03690
2565.10881	0.03684
2563.82304	0.03659
2562.53727	0.03626
2561.25150	0.03589
2559.96573	0.03543
2558.67997	0.03496
2557.39420	0.03464
2556.10843	0.03450
2554.82266	0.03443
2553.53689	0.03441
2552.25112	0.03450
2550.96535	0.03478
2549.67958	0.03516
2548.39381	0.03547
2547.10805	0.03563
2545.82228	0.03572
2544.53651	0.03589
2543.25074	0.03614
2541.96497	0.03628
2540.67920	0.03613
2539.39343	0.03575
2538.10766	0.03531
2536.82190	0.03498
2535.53613	0.03474
2534.25036	0.03464
2532.96459	0.03473
2531.67882	0.03500
2530.39305	0.03524
2529.10728	0.03525
2527.82151	0.03511
2526.53574	0.03511
2525.24998	0.03541
2523.96421	0.03579
2522.67844	0.03578
2521.39267	0.03512
2520.10690	0.03407
2518.82113	0.03326
2517.53536	0.03308
2516.24959	0.03335
2514.96383	0.03360
2513.67806	0.03356
2512.39229	0.03340
2511.10652	0.03332
2509.82075	0.03333
2508.53498	0.03333
2507.24921	0.03330
2505.96344	0.03336
2504.67767	0.03353
2503.39191	0.03374
2502.10614	0.03389
2500.82037	0.03392
2499.53460	0.03387
2498.24883	0.03380
2496.96306	0.03371
2495.67729	0.03357
2494.39152	0.03337
2493.10576	0.03315
2491.81999	0.03295
2490.53422	0.03277
2489.24845	0.03266
2487.96268	0.03276
2486.67691	0.03314
2485.39114	0.03363
2484.10537	0.03389
2482.81960	0.03377
2481.53384	0.03341
2480.24807	0.03304
2478.96230	0.03275
2477.67653	0.03255
2476.39076	0.03246
2475.10499	0.03251
2473.81922	0.03261
2472.53345	0.03256
2471.24769	0.03234
2469.96192	0.03215
2468.67615	0.03221
2467.39038	0.03251
2466.10461	0.03288
2464.81884	0.03314
2463.53307	0.03322
2462.24730	0.03306
2460.96153	0.03273
2459.67577	0.03241
2458.39000	0.03232
2457.10423	0.03244
2455.81846	0.03256
2454.53269	0.03256
2453.24692	0.03253
2451.96115	0.03257
2450.67538	0.03263
2449.38962	0.03255
2448.10385	0.03220
2446.81808	0.03172
2445.53231	0.03134
2444.24654	0.03120
2442.96077	0.03117
2441.67500	0.03114
2440.38923	0.03116
2439.10346	0.03135
2437.81770	0.03168
2436.53193	0.03198
2435.24616	0.03216
2433.96039	0.03223
2432.67462	0.03223
2431.38885	0.03208
2430.10308	0.03170
2428.81731	0.03114
2427.53155	0.03073
2426.24578	0.03079
2424.96001	0.03135
2423.67424	0.03203
2422.38847	0.03237
2421.10270	0.03218
2419.81693	0.03165
2418.53116	0.03109
2417.24539	0.03072
2415.95963	0.03062
2414.67386	0.03076
2413.38809	0.03106
2412.10232	0.03134
2410.81655	0.03131
2409.53078	0.03085
2408.24501	0.03018
2406.95924	0.02976
2405.67347	0.02986
2404.38771	0.03036
2403.10194	0.03089
2401.81617	0.03111
2400.53040	0.03098
2399.24463	0.03078
2397.95886	0.03034
2396.67309	0.03001
2395.38732	0.02995
2394.10156	0.03008
2392.81579	0.03029
2391.53002	0.03049
2390.24425	0.03069
2388.95848	0.03088
2387.67271	0.03107
2386.38694	0.03119
2385.10117	0.03117
2383.81540	0.03103
2382.52964	0.03088
2381.24387	0.03081
2379.95810	0.03080
2378.67233	0.03078
2377.38656	0.03075
2376.10079	0.03078
2374.81502	0.03084
2373.52925	0.03101
2372.24349	0.03122
2370.95772	0.03151
2369.67195	0.03151
2368.38618	0.03132
2367.10041	0.03131
2365.81464	0.03159
2364.52887	0.03164
2363.24310	0.03155
2361.95733	0.03173
2360.67157	0.03234
2359.38580	0.03259
2358.10003	0.03244
2356.81426	0.03217
2355.52849	0.03204
2354.24272	0.03208
2352.95695	0.03215
2351.67118	0.03259
2350.38542	0.03329
2349.09965	0.03340
2347.81388	0.03273
2346.52811	0.03252
2345.24234	0.03294
2343.95657	0.03293
2342.67080	0.03216
2341.38503	0.03222
2340.09926	0.03331
2338.81350	0.03328
2337.52773	0.03221
2336.24196	0.03263
2334.95619	0.03411
2333.67042	0.03395
2332.38465	0.03259
2331.09888	0.03327
2329.81311	0.03433
2328.52735	0.03360
2327.24158	0.03464
2325.95581	0.03658
2324.67004	0.03633
2323.38427	0.03598
2322.09850	0.03608
2320.81273	0.03452
2319.52696	0.03362
2318.24119	0.03346
2316.95543	0.03262
2315.66966	0.03249
2314.38389	0.03274
2313.09812	0.03250
2311.81235	0.03248
2310.52658	0.03206
2309.24081	0.03149
2307.95504	0.03124
2306.66928	0.03093
2305.38351	0.03095
2304.09774	0.03109
2302.81197	0.03116
2301.52620	0.03129
2300.24043	0.03133
2298.95466	0.03135
2297.66889	0.03119
2296.38312	0.03091
2295.09736	0.03076
2293.81159	0.03087
2292.52582	0.03119
2291.24005	0.03137
2289.95428	0.03123
2288.66851	0.03075
2287.38274	0.03004
2286.09697	0.02927
2284.81121	0.02861
2283.52544	0.02817
2282.23967	0.02795
2280.95390	0.02789
2279.66813	0.02794
2278.38236	0.02812
2277.09659	0.02838
2275.81082	0.02861
2274.52505	0.02866
2273.23929	0.02846
2271.95352	0.02806
2270.66775	0.02752
2269.38198	0.02689
2268.09621	0.02627
2266.81044	0.02576
2265.52467	0.02530
2264.23890	0.02474
2262.95314	0.02412
2261.66737	0.02371
2260.38160	0.02372
2259.09583	0.02413
2257.81006	0.02473
2256.52429	0.02515
2255.23852	0.02515
2253.95275	0.02476
2252.66698	0.02421
2251.38122	0.02373
2250.09545	0.02336
2248.80968	0.02314
2247.52391	0.02301
2246.23814	0.02281
2244.95237	0.02272
2243.66660	0.02293
2242.38083	0.02331
2241.09507	0.02350
2239.80930	0.02336
2238.52353	0.02313
2237.23776	0.02311
2235.95199	0.02336
2234.66622	0.02375
2233.38045	0.02409
2232.09468	0.02409
2230.80891	0.02355
2229.52315	0.02253
2228.23738	0.02142
2226.95161	0.02060
2225.66584	0.02032
2224.38007	0.02055
2223.09430	0.02095
2221.80853	0.02101
2220.52276	0.02062
2219.23700	0.02027
2217.95123	0.02051
2216.66546	0.02127
2215.37969	0.02190
2214.09392	0.02186
2212.80815	0.02111
2211.52238	0.02013
2210.23661	0.01940
2208.95084	0.01901
2207.66508	0.01862
2206.37931	0.01795
2205.09354	0.01722
2203.80777	0.01694
2202.52200	0.01731
2201.23623	0.01809
2199.95046	0.01876
2198.66469	0.01884
2197.37893	0.01825
2196.09316	0.01732
2194.80739	0.01650
2193.52162	0.01598
2192.23585	0.01570
2190.95008	0.01565
2189.66431	0.01597
2188.37854	0.01664
2187.09277	0.01722
2185.80701	0.01716
2184.52124	0.01640
2183.23547	0.01554
2181.94970	0.01521
2180.66393	0.01543
2179.37816	0.01576
2178.09239	0.01588
2176.80662	0.01578
2175.52085	0.01550
2174.23509	0.01507
2172.94932	0.01469
2171.66355	0.01473
2170.37778	0.01526
2169.09201	0.01587
2167.80624	0.01592
2166.52047	0.01527
2165.23470	0.01447
2163.94894	0.01421
2162.66317	0.01444
2161.37740	0.01434
2160.09163	0.01314
2158.80586	0.01091
2157.52009	0.00850
2156.23432	0.00681
2154.94855	0.00640
2153.66278	0.00733
2152.37702	0.00901
2151.09125	0.01057
2149.80548	0.01141
2148.51971	0.01162
2147.23394	0.01161
2145.94817	0.01167
2144.66240	0.01179
2143.37663	0.01184
2142.09087	0.01182
2140.80510	0.01184
2139.51933	0.01208
2138.23356	0.01248
2136.94779	0.01281
2135.66202	0.01299
2134.37625	0.01317
2133.09048	0.01356
2131.80471	0.01411
2130.51895	0.01461
2129.23318	0.01495
2127.94741	0.01522
2126.66164	0.01554
2125.37587	0.01598
2124.09010	0.01647
2122.80433	0.01690
2121.51856	0.01729
2120.23280	0.01768
2118.94703	0.01807
2117.66126	0.01836
2116.37549	0.01853
2115.08972	0.01863
2113.80395	0.01874
2112.51818	0.01892
2111.23241	0.01919
2109.94664	0.01938
2108.66088	0.01919
2107.37511	0.01848
2106.08934	0.01759
2104.80357	0.01711
2103.51780	0.01728
2102.23203	0.01779
2100.94626	0.01817
2099.66049	0.01855
2098.37473	0.01856
2097.08896	0.01826
2095.80319	0.01788
2094.51742	0.01753
2093.23165	0.01733
2091.94588	0.01734
2090.66011	0.01750
2089.37434	0.01768
2088.08857	0.01775
2086.80281	0.01767
2085.51704	0.01752
2084.23127	0.01741
2082.94550	0.01745
2081.65973	0.01762
2080.37396	0.01782
2079.08819	0.01790
2077.80242	0.01781
2076.51666	0.01755
2075.23089	0.01715
2073.94512	0.01673
2072.65935	0.01644
2071.37358	0.01639
2070.08781	0.01654
2068.80204	0.01665
2067.51627	0.01655
2066.23050	0.01621
2064.94474	0.01574
2063.65897	0.01528
2062.37320	0.01487
2061.08743	0.01442
2059.80166	0.01392
2058.51589	0.01349
2057.23012	0.01330
2055.94435	0.01342
2054.65859	0.01381
2053.37282	0.01434
2052.08705	0.01484
2050.80128	0.01509
2049.51551	0.01493
2048.22974	0.01452
2046.94397	0.01421
2045.65820	0.01419
2044.37243	0.01426
2043.08667	0.01405
2041.80090	0.01343
2040.51513	0.01254
2039.22936	0.01160
2037.94359	0.01069
2036.65782	0.00987
2035.37205	0.00925
2034.08628	0.00892
2032.80052	0.00891
2031.51475	0.00927
2030.22898	0.01003
2028.94321	0.01098
2027.65744	0.01170
2026.37167	0.01176
2025.08590	0.01113
2023.80013	0.01016
2022.51436	0.00937
2021.22860	0.00903
2019.94283	0.00897
2018.65706	0.00878
2017.37129	0.00823
2016.08552	0.00749
2014.79975	0.00691
2013.51398	0.00670
2012.22821	0.00688
2010.94245	0.00732
2009.65668	0.00773
2008.37091	0.00777
2007.08514	0.00738
2005.79937	0.00684
2004.51360	0.00660
2003.22783	0.00699
2001.94206	0.00810
2000.65629	0.00969
1999.37053	0.01114
1998.08476	0.01188
1996.79899	0.01188
1995.51322	0.01158
1994.22745	0.01139
1992.94168	0.01139
1991.65591	0.01152
1990.37014	0.01182
1989.08438	0.01223
1987.79861	0.01250
1986.51284	0.01246
1985.22707	0.01226
1983.94130	0.01228
1982.65553	0.01272
1981.36976	0.01334
1980.08399	0.01367
1978.79822	0.01337
1977.51246	0.01261
1976.22669	0.01187
1974.94092	0.01142
1973.65515	0.01124
1972.36938	0.01127
1971.08361	0.01150
1969.79784	0.01182
1968.51207	0.01201
1967.22631	0.01196
1965.94054	0.01182
1964.65477	0.01176
1963.36900	0.01166
1962.08323	0.01140
1960.79746	0.01108
1959.51169	0.01101
1958.22592	0.01131
1956.94015	0.01166
1955.65439	0.01177
1954.36862	0.01170
1953.08285	0.01188
1951.79708	0.01259
1950.51131	0.01374
1949.22554	0.01493
1947.93977	0.01570
1946.65400	0.01591
1945.36823	0.01570
1944.08247	0.01529
1942.79670	0.01488
1941.51093	0.01458
1940.22516	0.01452
1938.93939	0.01481
1937.65362	0.01538
1936.36785	0.01591
1935.08208	0.01604
1933.79632	0.01566
1932.51055	0.01504
1931.22478	0.01468
1929.93901	0.01485
1928.65324	0.01543
1927.36747	0.01607
1926.08170	0.01645
1924.79593	0.01650
1923.51016	0.01635
1922.22440	0.01623
1920.93863	0.01627
1919.65286	0.01639
1918.36709	0.01641
1917.08132	0.01636
1915.79555	0.01643
1914.50978	0.01676
1913.22401	0.01723
1911.93825	0.01755
1910.65248	0.01750
1909.36671	0.01706
1908.08094	0.01644
1906.79517	0.01595
1905.50940	0.01579
1904.22363	0.01598
1902.93786	0.01638
1901.65209	0.01683
1900.36633	0.01720
1899.08056	0.01742
1897.79479	0.01741
1896.50902	0.01717
1895.22325	0.01673
1893.93748	0.01627
1892.65171	0.01605
1891.36594	0.01620
1890.08018	0.01656
1888.79441	0.01678
1887.50864	0.01669
1886.22287	0.01639
1884.93710	0.01615
1883.65133	0.01608
1882.36556	0.01614
1881.07979	0.01626
1879.79402	0.01640
1878.50826	0.01656
1877.22249	0.01674
1875.93672	0.01689
1874.65095	0.01696
1873.36518	0.01697
1872.07941	0.01697
1870.79364	0.01700
1869.50787	0.01700
1868.22211	0.01698
1866.93634	0.01701
1865.65057	0.01715
1864.36480	0.01732
1863.07903	0.01737
1861.79326	0.01724
1860.50749	0.01705
1859.22172	0.01694
1857.93595	0.01694
1856.65019	0.01702
1855.36442	0.01715
1854.07865	0.01731
1852.79288	0.01745
1851.50711	0.01754
1850.22134	0.01758
1848.93557	0.01757
1847.64980	0.01752
1846.36404	0.01748
1845.07827	0.01752
1843.79250	0.01760
1842.50673	0.01761
1841.22096	0.01749
1839.93519	0.01728
1838.64942	0.01710
1837.36365	0.01703
1836.07788	0.01707
1834.79212	0.01715
1833.50635	0.01721
1832.22058	0.01723
1830.93481	0.01729
1829.64904	0.01743
1828.36327	0.01760
1827.07750	0.01768
1825.79173	0.01766
1824.50597	0.01761
1823.22020	0.01760
1821.93443	0.01761
1820.64866	0.01756
1819.36289	0.01736
1818.07712	0.01708
1816.79135	0.01686
1815.50558	0.01683
1814.21981	0.01701
1812.93405	0.01729
1811.64828	0.01754
1810.36251	0.01769
1809.07674	0.01777
1807.79097	0.01785
1806.50520	0.01789
1805.21943	0.01785
1803.93366	0.01771
1802.64790	0.01753
1801.36213	0.01739
1800.07636	0.01736
1798.79059	0.01747
1797.50482	0.01767
1796.21905	0.01789
1794.93328	0.01804
1793.64751	0.01810
1792.36174	0.01807
1791.07598	0.01801
1789.79021	0.01796
1788.50444	0.01795
1787.21867	0.01798
1785.93290	0.01803
1784.64713	0.01803
1783.36136	0.01794
1782.07559	0.01776
1780.78983	0.01754
1779.50406	0.01735
1778.21829	0.01725
1776.93252	0.01728
1775.64675	0.01741
1774.36098	0.01755
1773.07521	0.01769
1771.78944	0.01781
1770.50367	0.01792
1769.21791	0.01802
1767.93214	0.01808
1766.64637	0.01813
1765.36060	0.01819
1764.07483	0.01826
1762.78906	0.01830
1761.50329	0.01828
1760.21752	0.01820
1758.93176	0.01809
1757.64599	0.01801
1756.36022	0.01803
1755.07445	0.01814
1753.78868	0.01828
1752.50291	0.01838
1751.21714	0.01840
1749.93137	0.01837
1748.64560	0.01833
1747.35984	0.01830
1746.07407	0.01827
1744.78830	0.01824
1743.50253	0.01823
1742.21676	0.01825
1740.93099	0.01830
1739.64522	0.01839
1738.35945	0.01852
1737.07369	0.01868
1735.78792	0.01880
1734.50215	0.01881
1733.21638	0.01871
1731.93061	0.01859
1730.64484	0.01852
1729.35907	0.01855
1728.07330	0.01864
1726.78753	0.01878
1725.50177	0.01893
1724.21600	0.01907
1722.93023	0.01921
1721.64446	0.01940
1720.35869	0.01965
1719.07292	0.01992
1717.78715	0.02017
1716.50138	0.02039
1715.21561	0.02062
1713.92985	0.02086
1712.64408	0.02113
1711.35831	0.02145
1710.07254	0.02187
1708.78677	0.02238
1707.50100	0.02295
1706.21523	0.02353
1704.92946	0.02414
1703.64370	0.02484
1702.35793	0.02565
1701.07216	0.02652
1699.78639	0.02741
1698.50062	0.02830
1697.21485	0.02916
1695.92908	0.02998
1694.64331	0.03077
1693.35754	0.03158
1692.07178	0.03246
1690.78601	0.03340
1689.50024	0.03436
1688.21447	0.03536
1686.92870	0.03641
1685.64293	0.03746
1684.35716	0.03840
1683.07139	0.03923
1681.78563	0.04003
1680.49986	0.04091
1679.21409	0.04190
1677.92832	0.04293
1676.64255	0.04394
1675.35678	0.04492
1674.07101	0.04589
1672.78524	0.04690
1671.49947	0.04791
1670.21371	0.04889
1668.92794	0.04981
1667.64217	0.05074
1666.35640	0.05174
1665.07063	0.05275
1663.78486	0.05368
1662.49909	0.05445
1661.21332	0.05513
1659.92756	0.05583
1658.64179	0.05665
1657.35602	0.05759
1656.07025	0.05854
1654.78448	0.05935
1653.49871	0.05991
1652.21294	0.06025
1650.92717	0.06051
1649.64140	0.06082
1648.35564	0.06118
1647.06987	0.06149
1645.78410	0.06167
1644.49833	0.06173
1643.21256	0.06176
1641.92679	0.06181
1640.64102	0.06188
1639.35525	0.06192
1638.06949	0.06189
1636.78372	0.06172
1635.49795	0.06137
1634.21218	0.06088
1632.92641	0.06033
1631.64064	0.05977
1630.35487	0.05922
1629.06910	0.05863
1627.78333	0.05799
1626.49757	0.05732
1625.21180	0.05661
1623.92603	0.05586
1622.64026	0.05509
1621.35449	0.05433
1620.06872	0.05361
1618.78295	0.05290
1617.49718	0.05216
1616.21142	0.05138
1614.92565	0.05063
1613.63988	0.04997
1612.35411	0.04943
1611.06834	0.04893
1609.78257	0.04846
1608.49680	0.04801
1607.21103	0.04763
1605.92526	0.04733
1604.63950	0.04707
1603.35373	0.04684
1602.06796	0.04662
1600.78219	0.04642
1599.49642	0.04626
1598.21065	0.04611
1596.92488	0.04596
1595.63911	0.04580
1594.35335	0.04565
1593.06758	0.04553
1591.78181	0.04546
1590.49604	0.04543
1589.21027	0.04544
1587.92450	0.04549
1586.63873	0.04557
1585.35296	0.04569
1584.06719	0.04584
1582.78143	0.04601
1581.49566	0.04619
1580.20989	0.04637
1578.92412	0.04658
1577.63835	0.04682
1576.35258	0.04707
1575.06681	0.04734
1573.78104	0.04764
1572.49528	0.04798
1571.20951	0.04834
1569.92374	0.04868
1568.63797	0.04900
1567.35220	0.04932
1566.06643	0.04966
1564.78066	0.05003
1563.49489	0.05045
1562.20912	0.05090
1560.92336	0.05132
1559.63759	0.05162
1558.35182	0.05178
1557.06605	0.05187
1555.78028	0.05199
1554.49451	0.05217
1553.20874	0.05238
1551.92297	0.05254
1550.63721	0.05264
1549.35144	0.05270
1548.06567	0.05278
1546.77990	0.05289
1545.49413	0.05303
1544.20836	0.05314
1542.92259	0.05319
1541.63682	0.05316
1540.35105	0.05302
1539.06529	0.05277
1537.77952	0.05248
1536.49375	0.05222
1535.20798	0.05204
1533.92221	0.05193
1532.63644	0.05185
1531.35067	0.05181
1530.06490	0.05182
1528.77914	0.05189
1527.49337	0.05199
1526.20760	0.05210
1524.92183	0.05221
1523.63606	0.05233
1522.35029	0.05245
1521.06452	0.05257
1519.77875	0.05269
1518.49298	0.05284
1517.20722	0.05303
1515.92145	0.05326
1514.63568	0.05353
1513.34991	0.05385
1512.06414	0.05426
1510.77837	0.05474
1509.49260	0.05527
1508.20683	0.05576
1506.92107	0.05615
1505.63530	0.05644
1504.34953	0.05667
1503.06376	0.05691
1501.77799	0.05717
1500.49222	0.05745
1499.20645	0.05771
1497.92068	0.05791
1496.63491	0.05807
1495.34915	0.05822
1494.06338	0.05841
1492.77761	0.05865
1491.49184	0.05892
1490.20607	0.05916
1488.92030	0.05939
1487.63453	0.05967
1486.34876	0.06004
1485.06299	0.06053
1483.77723	0.06110
1482.49146	0.06170
1481.20569	0.06235
1479.91992	0.06303
1478.63415	0.06377
1477.34838	0.06456
1476.06261	0.06538
1474.77684	0.06620
1473.49108	0.06695
1472.20531	0.06761
1470.91954	0.06822
1469.63377	0.06882
1468.34800	0.06942
1467.06223	0.06998
1465.77646	0.07046
1464.49069	0.07086
1463.20492	0.07127
1461.91916	0.07179
1460.63339	0.07247
1459.34762	0.07325
1458.06185	0.07401
1456.77608	0.07468
1455.49031	0.07523
1454.20454	0.07570
1452.91877	0.07609
1451.63301	0.07641
1450.34724	0.07668
1449.06147	0.07688
1447.77570	0.07699
1446.48993	0.07699
1445.20416	0.07688
1443.91839	0.07666
1442.63262	0.07636
1441.34685	0.07599
1440.06109	0.07560
1438.77532	0.07523
1437.48955	0.07489
1436.20378	0.07459
1434.91801	0.07435
1433.63224	0.07425
1432.34647	0.07432
1431.06070	0.07454
1429.77494	0.07491
1428.48917	0.07542
1427.20340	0.07609
1425.91763	0.07691
1424.63186	0.07784
1423.34609	0.07879
1422.06032	0.07972
1420.77455	0.08057
1419.48878	0.08131
1418.20302	0.08193
1416.91725	0.08245
1415.63148	0.08292
1414.34571	0.08329
1413.05994	0.08350
1411.77417	0.08354
1410.48840	0.08344
1409.20263	0.08323
1407.91687	0.08293
1406.63110	0.08252
1405.34533	0.08198
1404.05956	0.08134
1402.77379	0.08060
1401.48802	0.07976
1400.20225	0.07878
1398.91648	0.07766
1397.63071	0.07641
1396.34495	0.07508
1395.05918	0.07374
1393.77341	0.07242
1392.48764	0.07117
1391.20187	0.06998
1389.91610	0.06881
1388.63033	0.06763
1387.34456	0.06643
1386.05880	0.06521
1384.77303	0.06400
1383.48726	0.06283
1382.20149	0.06171
1380.91572	0.06062
1379.62995	0.05952
1378.34418	0.05836
1377.05841	0.05711
1375.77264	0.05580
1374.48688	0.05447
1373.20111	0.05315
1371.91534	0.05186
1370.62957	0.05061
1369.34380	0.04940
1368.05803	0.04826
1366.77226	0.04719
1365.48649	0.04620
1364.20073	0.04527
1362.91496	0.04439
1361.62919	0.04357
1360.34342	0.04281
1359.05765	0.04212
1357.77188	0.04150
1356.48611	0.04094
1355.20034	0.04044
1353.91457	0.03998
1352.62881	0.03955
1351.34304	0.03914
1350.05727	0.03874
1348.77150	0.03836
1347.48573	0.03802
1346.19996	0.03772
1344.91419	0.03744
1343.62842	0.03716
1342.34266	0.03687
1341.05689	0.03656
1339.77112	0.03626
1338.48535	0.03599
1337.19958	0.03573
1335.91381	0.03549
1334.62804	0.03522
1333.34227	0.03491
1332.05650	0.03458
1330.77074	0.03426
1329.48497	0.03395
1328.19920	0.03363
1326.91343	0.03328
1325.62766	0.03294
1324.34189	0.03268
1323.05612	0.03252
1321.77035	0.03242
1320.48459	0.03230
1319.19882	0.03209
1317.91305	0.03181
1316.62728	0.03151
1315.34151	0.03125
1314.05574	0.03103
1312.76997	0.03081
1311.48420	0.03056
1310.19843	0.03030
1308.91267	0.03005
1307.62690	0.02982
1306.34113	0.02963
1305.05536	0.02945
1303.76959	0.02927
1302.48382	0.02907
1301.19805	0.02884
1299.91228	0.02860
1298.62652	0.02837
1297.34075	0.02817
1296.05498	0.02801
1294.76921	0.02788
1293.48344	0.02776
1292.19767	0.02765
1290.91190	0.02756
1289.62613	0.02749
1288.34036	0.02742
1287.05460	0.02737
1285.76883	0.02733
1284.48306	0.02732
1283.19729	0.02731
1281.91152	0.02726
1280.62575	0.02715
1279.33998	0.02695
1278.05421	0.02675
1276.76845	0.02659
1275.48268	0.02652
1274.19691	0.02650
1272.91114	0.02651
1271.62537	0.02652
1270.33960	0.02652
1269.05383	0.02652
1267.76806	0.02650
1266.48229	0.02645
1265.19653	0.02639
1263.91076	0.02634
1262.62499	0.02628
1261.33922	0.02624
1260.05345	0.02621
1258.76768	0.02621
1257.48191	0.02624
1256.19614	0.02627
1254.91037	0.02626
1253.62461	0.02620
1252.33884	0.02616
1251.05307	0.02616
1249.76730	0.02623
1248.48153	0.02634
1247.19576	0.02644
1245.90999	0.02649
1244.62422	0.02648
1243.33846	0.02641
1242.05269	0.02632
1240.76692	0.02626
1239.48115	0.02625
1238.19538	0.02624
1236.90961	0.02619
1235.62384	0.02608
1234.33807	0.02592
1233.05230	0.02577
1231.76654	0.02562
1230.48077	0.02546
1229.19500	0.02526
1227.90923	0.02504
1226.62346	0.02483
1225.33769	0.02465
1224.05192	0.02448
1222.76615	0.02431
1221.48039	0.02416
1220.19462	0.02402
1218.90885	0.02389
1217.62308	0.02375
1216.33731	0.02359
1215.05154	0.02344
1213.76577	0.02330
1212.48000	0.02321
1211.19423	0.02318
1209.90847	0.02318
1208.62270	0.02320
1207.33693	0.02322
1206.05116	0.02325
1204.76539	0.02331
1203.47962	0.02340
1202.19385	0.02351
1200.90808	0.02358
1199.62232	0.02364
1198.33655	0.02370
1197.05078	0.02371
1195.76501	0.02363
1194.47924	0.02347
1193.19347	0.02327
1191.90770	0.02310
1190.62193	0.02298
1189.33616	0.02289
1188.05040	0.02283
1186.76463	0.02280
1185.47886	0.02281
1184.19309	0.02284
1182.90732	0.02285
1181.62155	0.02279
1180.33578	0.02267
1179.05001	0.02252
1177.76425	0.02238
1176.47848	0.02230
1175.19271	0.02230
1173.90694	0.02238
1172.62117	0.02248
1171.33540	0.02255
1170.04963	0.02258
1168.76386	0.02262
1167.47809	0.02271
1166.19233	0.02287
1164.90656	0.02306
1163.62079	0.02322
1162.33502	0.02330
1161.04925	0.02329
1159.76348	0.02323
1158.47771	0.02316
1157.19194	0.02315
1155.90618	0.02322
1154.62041	0.02338
1153.33464	0.02357
1152.04887	0.02373
1150.76310	0.02389
1149.47733	0.02409
1148.19156	0.02440
1146.90579	0.02481
1145.62002	0.02531
1144.33426	0.02588
1143.04849	0.02651
1141.76272	0.02716
1140.47695	0.02782
1139.19118	0.02852
1137.90541	0.02931
1136.61964	0.03021
1135.33387	0.03120
1134.04811	0.03222
1132.76234	0.03325
1131.47657	0.03435
1130.19080	0.03560
1128.90503	0.03705
1127.61926	0.03870
1126.33349	0.04048
1125.04772	0.04237
1123.76195	0.04435
1122.47619	0.04644
1121.19042	0.04866
1119.90465	0.05099
1118.61888	0.05340
1117.33311	0.05584
1116.04734	0.05826
1114.76157	0.06065
1113.47580	0.06309
1112.19004	0.06558
1110.90427	0.06806
1109.61850	0.07047
1108.33273	0.07280
1107.04696	0.07510
1105.76119	0.07739
1104.47542	0.07965
1103.18965	0.08186
1101.90388	0.08401
1100.61812	0.08611
1099.33235	0.08813
1098.04658	0.09003
1096.76081	0.09179
1095.47504	0.09346
1094.18927	0.09510
1092.90350	0.09673
1091.61773	0.09829
1090.33197	0.09972
1089.04620	0.10104
1087.76043	0.10232
1086.47466	0.10360
1085.18889	0.10488
1083.90312	0.10619
1082.61735	0.10755
1081.33158	0.10899
1080.04581	0.11056
1078.76005	0.11225
1077.47428	0.11405
1076.18851	0.11594
1074.90274	0.11790
1073.61697	0.11995
1072.33120	0.12206
1071.04543	0.12419
1069.75966	0.12634
1068.47390	0.12851
1067.18813	0.13073
1065.90236	0.13301
1064.61659	0.13534
1063.33082	0.13770
1062.04505	0.14004
1060.75928	0.14234
1059.47351	0.14459
1058.18774	0.14679
1056.90198	0.14895
1055.61621	0.15108
1054.33044	0.15319
1053.04467	0.15531
1051.75890	0.15746
1050.47313	0.15968
1049.18736	0.16193
1047.90159	0.16419
1046.61583	0.16644
1045.33006	0.16873
1044.04429	0.17108
1042.75852	0.17347
1041.47275	0.17587
1040.18698	0.17828
1038.90121	0.18070
1037.61544	0.18314
1036.32967	0.18556
1035.04391	0.18798
1033.75814	0.19037
1032.47237	0.19267
1031.18660	0.19479
1029.90083	0.19665
1028.61506	0.19826
1027.32929	0.19967
1026.04352	0.20093
1024.75775	0.20202
1023.47199	0.20293
1022.18622	0.20363
1020.90045	0.20406
1019.61468	0.20419
1018.32891	0.20398
1017.04314	0.20347
1015.75737	0.20269
1014.47160	0.20167
1013.18584	0.20043
1011.90007	0.19890
1010.61430	0.19703
1009.32853	0.19482
1008.04276	0.19231
1006.75699	0.18957
1005.47122	0.18664
1004.18545	0.18355
1002.89968	0.18029
1001.61392	0.17681
1000.32815	0.17307
999.04238	0.16906
997.75661	0.16488
996.47084	0.16061
995.18507	0.15636
993.89930	0.15216
992.61353	0.14798
991.32777	0.14381
990.04200	0.13965
988.75623	0.13557
987.47046	0.13161
986.18469	0.12779
984.89892	0.12408
983.61315	0.12043
982.32738	0.11687
981.04161	0.11347
979.75585	0.11028
978.47008	0.10728
977.18431	0.10443
975.89854	0.10172
974.61277	0.09918
973.32700	0.09687
972.04123	0.09491
970.75546	0.09336
969.46970	0.09221
968.18393	0.09143
966.89816	0.09104
965.61239	0.09103
964.32662	0.09129
963.04085	0.09163
961.75508	0.09184
960.46931	0.09178
959.18354	0.09135
957.89778	0.09053
956.61201	0.08932
955.32624	0.08777
954.04047	0.08605
952.75470	0.08431
951.46893	0.08263
950.18316	0.08099
948.89739	0.07935
947.61163	0.07767
946.32586	0.07595
945.04009	0.07424
943.75432	0.07263
942.46855	0.07115
941.18278	0.06980
939.89701	0.06850
938.61124	0.06719
937.32547	0.06584
936.03971	0.06450
934.75394	0.06322
933.46817	0.06206
932.18240	0.06102
930.89663	0.06009
929.61086	0.05926
928.32509	0.05851
927.03932	0.05779
925.75356	0.05704
924.46779	0.05625
923.18202	0.05544
921.89625	0.05469
920.61048	0.05401
919.32471	0.05336
918.03894	0.05269
916.75317	0.05203
915.46740	0.05142
914.18164	0.05086
912.89587	0.05034
911.61010	0.04983
910.32433	0.04936
909.03856	0.04892
907.75279	0.04847
906.46702	0.04800
905.18125	0.04754
903.89549	0.04712
902.60972	0.04671
901.32395	0.04626
900.03818	0.04576
898.75241	0.04527
897.46664	0.04482
896.18087	0.04436
894.89510	0.04383
893.60933	0.04333
892.32357	0.04298
891.03780	0.04284
889.75203	0.04287
888.46626	0.04301
887.18049	0.04331
885.89472	0.04391
884.60895	0.04495
883.32318	0.04646
882.03742	0.04829
880.75165	0.05012
879.46588	0.05165
878.18011	0.05281
876.89434	0.05378
875.60857	0.05481
874.32280	0.05599
873.03703	0.05710
871.75126	0.05775
870.46550	0.05771
869.17973	0.05696
867.89396	0.05573
866.60819	0.05428
865.32242	0.05275
864.03665	0.05119
862.75088	0.04964
861.46511	0.04821
860.17935	0.04700
858.89358	0.04602
857.60781	0.04521
856.32204	0.04448
855.03627	0.04377
853.75050	0.04310
852.46473	0.04245
851.17896	0.04185
849.89319	0.04132
848.60743	0.04089
847.32166	0.04053
846.03589	0.04021
844.75012	0.03991
843.46435	0.03969
842.17858	0.03957
840.89281	0.03948
839.60704	0.03936
838.32128	0.03917
837.03551	0.03891
835.74974	0.03864
834.46397	0.03837
833.17820	0.03812
831.89243	0.03789
830.60666	0.03768
829.32089	0.03749
828.03512	0.03732
826.74936	0.03721
825.46359	0.03715
824.17782	0.03715
822.89205	0.03721
821.60628	0.03723
820.32051	0.03714
819.03474	0.03691
817.74897	0.03661
816.46321	0.03638
815.17744	0.03630
813.89167	0.03636
812.60590	0.03646
811.32013	0.03652
810.03436	0.03646
808.74859	0.03626
807.46282	0.03603
806.17705	0.03589
804.89129	0.03590
803.60552	0.03599
802.31975	0.03608
801.03398	0.03609
799.74821	0.03602
798.46244	0.03592
797.17667	0.03588
795.89090	0.03599
794.60513	0.03617
793.31937	0.03628
792.03360	0.03623
790.74783	0.03605
789.46206	0.03585
788.17629	0.03570
786.89052	0.03565
785.60475	0.03565
784.31898	0.03564
783.03322	0.03558
781.74745	0.03551
780.46168	0.03548
779.17591	0.03547
777.89014	0.03543
776.60437	0.03540
775.31860	0.03545
774.03283	0.03561
772.74706	0.03581
771.46130	0.03594
770.17553	0.03596
768.88976	0.03590
767.60399	0.03581
766.31822	0.03574
765.03245	0.03570
763.74668	0.03571
762.46091	0.03574
761.17515	0.03576
759.88938	0.03579
758.60361	0.03583
757.31784	0.03583
756.03207	0.03579
754.74630	0.03572
753.46053	0.03572
752.17476	0.03578
750.88899	0.03578
749.60323	0.03563
748.31746	0.03537
747.03169	0.03519
745.74592	0.03518
744.46015	0.03530
743.17438	0.03547
741.88861	0.03559
740.60284	0.03563
739.31708	0.03556
738.03131	0.03540
736.74554	0.03521
735.45977	0.03508
734.17400	0.03502
732.88823	0.03500
731.60246	0.03496
730.31669	0.03489
729.03092	0.03482
727.74516	0.03478
726.45939	0.03477
725.17362	0.03479
723.88785	0.03497
722.60208	0.03500
721.31631	0.03493
720.03054	0.03480
718.74477	0.03466
717.45901	0.03455
716.17324	0.03455
714.88747	0.03466
713.60170	0.03480
712.31593	0.03494
711.03016	0.03506
709.74439	0.03516
708.45862	0.03521
707.17285	0.03519
705.88709	0.03512
704.60132	0.03503
703.31555	0.03494
702.02978	0.03488
700.74401	0.03486
699.45824	0.03489
698.17247	0.03496
696.88670	0.03502
695.60094	0.03501
694.31517	0.03490
693.02940	0.03476
691.74363	0.03465
690.45786	0.03464
689.17209	0.03468
687.88632	0.03473
686.60055	0.03472
685.31478	0.03464
684.02902	0.03453
682.74325	0.03443
681.45748	0.03437
680.17171	0.03435
678.88594	0.03436
677.60017	0.03437
676.31440	0.03438
675.02863	0.03440
673.74287	0.03446
672.45710	0.03465
671.17133	0.03494
669.88556	0.03487
668.59979	0.03417
667.31402	0.03409
666.02825	0.03491
664.74248	0.03491
663.45671	0.03442
662.17095	0.03399
660.88518	0.03372
659.59941	0.03355
658.31364	0.03348
657.02787	0.03347
655.74210	0.03351
654.45633	0.03354
653.17056	0.03354
651.88480	0.03350
650.59903	0.03345
649.31326	0.03339
648.02749	0.03333
646.74172	0.03324
645.45595	0.03315
644.17018	0.03313
642.88441	0.03322
641.59864	0.03338
640.31288	0.03351
639.02711	0.03358
637.74134	0.03361
636.45557	0.03369
635.16980	0.03386
633.88403	0.03411
632.59826	0.03440
631.31249	0.03468
630.02673	0.03514
628.74096	0.03603
627.45519	0.03668
626.16942	0.03808
624.88365	0.03989
623.59788	0.04151
622.31211	0.04276
621.02634	0.04386
619.74057	0.04501
618.45481	0.04630
617.16904	0.04779
615.88327	0.04952
614.59750	0.05126
613.31173	0.05279
612.02596	0.05447
610.74019	0.05718
609.45442	0.06142
608.16866	0.06666
606.88289	0.07195
605.59712	0.07677
604.31135	0.08084
603.02558	0.08369
601.73981	0.08489
600.45404	0.08448
599.16827	0.08296
597.88250	0.08091
596.59674	0.07874
595.31097	0.07669
594.02520	0.07489
592.73943	0.07339
591.45366	0.07221
590.16789	0.07142
588.88212	0.07112
587.59635	0.07138
586.31059	0.07220
585.02482	0.07342
583.73905	0.07491
582.45328	0.07654
581.16751	0.07827
579.88174	0.08004
578.59597	0.08181
577.31020	0.08364
576.02443	0.08554
574.73867	0.08743
573.45290	0.08917
572.16713	0.09078
570.88136	0.09251
569.59559	0.09463
568.30982	0.09727
567.02405	0.10025
565.73828	0.10315
564.45251	0.10559
563.16675	0.10734
561.88098	0.10831
560.59521	0.10839
559.30944	0.10750
558.02367	0.10565
556.73790	0.10292
555.45213	0.09948
554.16636	0.09561
552.88060	0.09163
551.59483	0.08780
550.30906	0.08426
549.02329	0.08100
547.73752	0.07798
546.45175	0.07518
545.16598	0.07258
543.88021	0.07015
542.59444	0.06790
541.30868	0.06588
540.02291	0.06415
538.73714	0.06268
537.45137	0.06136
536.16560	0.06008
534.87983	0.05880
533.59406	0.05755
532.30829	0.05635
531.02253	0.05524
529.73676	0.05421
528.45099	0.05322
527.16522	0.05221
525.87945	0.05119
524.59368	0.05023
523.30791	0.04939
522.02214	0.04865
520.73637	0.04793
519.45061	0.04721
518.16484	0.04652
516.87907	0.04590
515.59330	0.04534
514.30753	0.04477
513.02176	0.04417
511.73599	0.04354
510.45022	0.04293
509.16446	0.04236
507.87869	0.04180
506.59292	0.04115
505.30715	0.04041
504.02138	0.03966
502.73561	0.03905
501.44984	0.03862
500.16407	0.03833
498.87830	0.03806
497.59254	0.03778
496.30677	0.03747
495.02100	0.03718
493.73523	0.03695
492.44946	0.03677
491.16369	0.03663
489.87792	0.03649
488.59215	0.03631
487.30639	0.03608
486.02062	0.03582
484.73485	0.03560
483.44908	0.03545
482.16331	0.03540
480.87754	0.03542
479.59177	0.03550
478.30600	0.03562
477.02023	0.03579
475.73447	0.03601
474.44870	0.03625
473.16293	0.03645
471.87716	0.03655
470.59139	0.03650
469.30562	0.03633
468.01985	0.03609
466.73408	0.03585
465.44832	0.03560
464.16255	0.03532
462.87678	0.03498
461.59101	0.03458
460.30524	0.03412
459.01947	0.03365
457.73370	0.03321
456.44793	0.03283
455.16216	0.03249
453.87640	0.03214
452.59063	0.03174
451.30486	0.03130
450.01909	0.03085
448.73332	0.03046
447.44755	0.03021
446.16178	0.03007
444.87601	0.02999
443.59025	0.02989
442.30448	0.02972
441.01871	0.02947
439.73294	0.02917
438.44717	0.02885
437.16140	0.02856
435.87563	0.02833
434.58986	0.02816
433.30409	0.02804
432.01833	0.02795
430.73256	0.02786
429.44679	0.02773
428.16102	0.02756
426.87525	0.02735
425.58948	0.02715
424.30371	0.02696
423.01794	0.02679
421.73218	0.02659
420.44641	0.02637
419.16064	0.02610
417.87487	0.02580
416.58910	0.02552
415.30333	0.02532
414.01756	0.02519
412.73179	0.02511
411.44602	0.02500
410.16026	0.02487
408.87449	0.02473
407.58872	0.02460
406.30295	0.02447
405.01718	0.02432
403.73141	0.02416
402.44564	0.02403
401.15987	0.02397
399.87411	0.02398
