3997.45528	0.03558
3996.16951	0.03511
3994.88374	0.03480
3993.59798	0.03468
3992.31221	0.03469
3991.02644	0.03473
3989.74067	0.03485
3988.45490	0.03520
3987.16913	0.03579
3985.88336	0.03638
3984.59759	0.03658
3983.31183	0.03619
3982.02606	0.03535
3980.74029	0.03440
3979.45452	0.03362
3978.16875	0.03321
3976.88298	0.03329
3975.59721	0.03389
3974.31144	0.03483
3973.02567	0.03564
3971.73991	0.03584
3970.45414	0.03527
3969.16837	0.03433
3967.88260	0.03369
3966.59683	0.03377
3965.31106	0.03443
3964.02529	0.03512
3962.73952	0.03523
3961.45376	0.03454
3960.16799	0.03339
3958.88222	0.03251
3957.59645	0.03236
3956.31068	0.03283
3955.02491	0.03351
3953.73914	0.03420
3952.45337	0.03491
3951.16760	0.03563
3949.88184	0.03608
3948.59607	0.03602
3947.31030	0.03553
3946.02453	0.03493
3944.73876	0.03456
3943.45299	0.03445
3942.16722	0.03442
3940.88145	0.03433
3939.59569	0.03420
3938.30992	0.03403
3937.02415	0.03368
3935.73838	0.03301
3934.45261	0.03222
3933.16684	0.03175
3931.88107	0.03193
3930.59530	0.03262
3929.30953	0.03335
3928.02377	0.03367
3926.73800	0.03350
3925.45223	0.03307
3924.16646	0.03265
3922.88069	0.03231
3921.59492	0.03193
3920.30915	0.03139
3919.02338	0.03079
3917.73762	0.03044
3916.45185	0.03058
3915.16608	0.03121
3913.88031	0.03213
3912.59454	0.03312
3911.30877	0.03396
3910.02300	0.03439
3908.73723	0.03428
3907.45146	0.03388
3906.16570	0.03368
3904.87993	0.03392
3903.59416	0.03432
3902.30839	0.03443
3901.02262	0.03410
3899.73685	0.03358
3898.45108	0.03324
3897.16531	0.03318
3895.87955	0.03325
3894.59378	0.03332
3893.30801	0.03338
3892.02224	0.03339
3890.73647	0.03327
3889.45070	0.03300
3888.16493	0.03270
3886.87916	0.03249
3885.59339	0.03235
3884.30763	0.03230
3883.02186	0.03253
3881.73609	0.03313
3880.45032	0.03386
3879.16455	0.03425
3877.87878	0.03403
3876.59301	0.03340
3875.30724	0.03282
3874.02148	0.03271
3872.73571	0.03312
3871.44994	0.03370
3870.16417	0.03402
3868.87840	0.03389
3867.59263	0.03353
3866.30686	0.03327
3865.02109	0.03323
3863.73532	0.03328
3862.44956	0.03317
3861.16379	0.03281
3859.87802	0.03232
3858.59225	0.03203
3857.30648	0.03216
3856.02071	0.03272
3854.73494	0.03345
3853.44917	0.03401
3852.16341	0.03419
3850.87764	0.03401
3849.59187	0.03360
3848.30610	0.03315
3847.02033	0.03290
3845.73456	0.03305
3844.44879	0.03361
3843.16302	0.03422
3841.87725	0.03428
3840.59149	0.03340
3839.30572	0.03183
3838.01995	0.03041
3836.73418	0.02995
3835.44841	0.03050
3834.16264	0.03138
3832.87687	0.03182
3831.59110	0.03160
3830.30534	0.03110
3829.01957	0.03081
3827.73380	0.03081
3826.44803	0.03094
3825.16226	0.03106
3823.87649	0.03127
3822.59072	0.03163
3821.30495	0.03200
3820.01918	0.03229
3818.73342	0.03259
3817.44765	0.03291
3816.16188	0.03297
3814.87611	0.03247
3813.59034	0.03147
3812.30457	0.03040
3811.01880	0.02969
3809.73303	0.02943
3808.44726	0.02946
3807.16150	0.02951
3805.87573	0.02952
3804.58996	0.02972
3803.30419	0.03029
3802.01842	0.03102
3800.73265	0.03145
3799.44688	0.03135
3798.16111	0.03094
3796.87535	0.03052
3795.58958	0.03021
3794.30381	0.02998
3793.01804	0.02989
3791.73227	0.03001
3790.44650	0.03034
3789.16073	0.03070
3787.87496	0.03084
3786.58919	0.03058
3785.30343	0.02995
3784.01766	0.02927
3782.73189	0.02895
3781.44612	0.02916
3780.16035	0.02962
3778.87458	0.02983
3777.58881	0.02954
3776.30304	0.02895
3775.01728	0.02850
3773.73151	0.02845
3772.44574	0.02875
3771.15997	0.02922
3769.87420	0.02976
3768.58843	0.03038
3767.30266	0.03111
3766.01689	0.03195
3764.73112	0.03279
3763.44536	0.03342
3762.15959	0.03358
3760.87382	0.03314
3759.58805	0.03224
3758.30228	0.03132
3757.01651	0.03079
3755.73074	0.03078
3754.44497	0.03110
3753.15921	0.03143
3751.87344	0.03153
3750.58767	0.03127
3749.30190	0.03071
3748.01613	0.03014
3746.73036	0.02995
3745.44459	0.03021
3744.15882	0.03060
3742.87305	0.03082
3741.58729	0.03092
3740.30152	0.03107
3739.01575	0.03123
3737.72998	0.03116
3736.44421	0.03072
3735.15844	0.03004
3733.87267	0.02931
3732.58690	0.02870
3731.30114	0.02827
3730.01537	0.02803
3728.72960	0.02785
3727.44383	0.02757
3726.15806	0.02715
3724.87229	0.02680
3723.58652	0.02675
3722.30075	0.02697
3721.01498	0.02732
3719.72922	0.02757
3718.44345	0.02759
3717.15768	0.02739
3715.87191	0.02722
3714.58614	0.02744
3713.30037	0.02811
3712.01460	0.02894
3710.72883	0.02959
3709.44307	0.03004
3708.15730	0.03048
3706.87153	0.03095
3705.58576	0.03127
3704.29999	0.03126
3703.01422	0.03092
3701.72845	0.03033
3700.44268	0.02959
3699.15691	0.02885
3697.87115	0.02833
3696.58538	0.02819
3695.29961	0.02842
3694.01384	0.02886
3692.72807	0.02929
3691.44230	0.02959
3690.15653	0.02978
3688.87076	0.02981
3687.58500	0.02948
3686.29923	0.02866
3685.01346	0.02755
3683.72769	0.02673
3682.44192	0.02673
3681.15615	0.02771
3679.87038	0.02944
3678.58461	0.03145
3677.29884	0.03314
3676.01308	0.03396
3674.72731	0.03373
3673.44154	0.03272
3672.15577	0.03153
3670.87000	0.03066
3669.58423	0.03023
3668.29846	0.02999
3667.01269	0.02959
3665.72693	0.02890
3664.44116	0.02812
3663.15539	0.02744
3661.86962	0.02694
3660.58385	0.02666
3659.29808	0.02674
3658.01231	0.02730
3656.72654	0.02828
3655.44077	0.02932
3654.15501	0.03009
3652.86924	0.03052
3651.58347	0.03077
3650.29770	0.03093
3649.01193	0.03094
3647.72616	0.03073
3646.44039	0.03036
3645.15462	0.02998
3643.86886	0.02964
3642.58309	0.02928
3641.29732	0.02888
3640.01155	0.02860
3638.72578	0.02869
3637.44001	0.02922
3636.15424	0.02993
3634.86847	0.03045
3633.58270	0.03068
3632.29694	0.03085
3631.01117	0.03117
3629.72540	0.03149
3628.43963	0.03147
3627.15386	0.03100
3625.86809	0.03046
3624.58232	0.03040
3623.29655	0.03099
3622.01079	0.03178
3620.72502	0.03220
3619.43925	0.03210
3618.15348	0.03178
3616.86771	0.03162
3615.58194	0.03160
3614.29617	0.03145
3613.01040	0.03098
3611.72463	0.03039
3610.43887	0.03005
3609.15310	0.03008
3607.86733	0.03022
3606.58156	0.03025
3605.29579	0.03029
3604.01002	0.03056
3602.72425	0.03101
3601.43848	0.03139
3600.15272	0.03153
3598.86695	0.03153
3597.58118	0.03147
3596.29541	0.03125
3595.00964	0.03082
3593.72387	0.03039
3592.43810	0.03033
3591.15233	0.03078
3589.86656	0.03147
3588.58080	0.03196
3587.29503	0.03206
3586.00926	0.03189
3584.72349	0.03165
3583.43772	0.03147
3582.15195	0.03143
3580.86618	0.03157
3579.58041	0.03178
3578.29464	0.03190
3577.00888	0.03188
3575.72311	0.03187
3574.43734	0.03198
3573.15157	0.03210
3571.86580	0.03199
3570.58003	0.03163
3569.29426	0.03124
3568.00849	0.03111
3566.72273	0.03139
3565.43696	0.03205
3564.15119	0.03290
3562.86542	0.03364
3561.57965	0.03394
3560.29388	0.03370
3559.00811	0.03311
3557.72234	0.03266
3556.43657	0.03272
3555.15081	0.03328
3553.86504	0.03397
3552.57927	0.03442
3551.29350	0.03455
3550.00773	0.03461
3548.72196	0.03480
3547.43619	0.03513
3546.15042	0.03546
3544.86466	0.03570
3543.57889	0.03591
3542.29312	0.03618
3541.00735	0.03645
3539.72158	0.03649
3538.43581	0.03608
3537.15004	0.03522
3535.86427	0.03421
3534.57850	0.03353
3533.29274	0.03351
3532.00697	0.03404
3530.72120	0.03470
3529.43543	0.03518
3528.14966	0.03553
3526.86389	0.03601
3525.57812	0.03666
3524.29235	0.03714
3523.00659	0.03713
3521.72082	0.03663
3520.43505	0.03597
3519.14928	0.03558
3517.86351	0.03567
3516.57774	0.03620
3515.29197	0.03690
3514.00620	0.03736
3512.72043	0.03734
3511.43467	0.03694
3510.14890	0.03651
3508.86313	0.03639
3507.57736	0.03665
3506.29159	0.03703
3505.00582	0.03717
3503.72005	0.03695
3502.43428	0.03649
3501.14852	0.03611
3499.86275	0.03609
3498.57698	0.03647
3497.29121	0.03708
3496.00544	0.03756
3494.71967	0.03765
3493.43390	0.03735
3492.14813	0.03696
3490.86236	0.03685
3489.57660	0.03718
3488.29083	0.03781
3487.00506	0.03851
3485.71929	0.03914
3484.43352	0.03968
3483.14775	0.04005
3481.86198	0.04015
3480.57621	0.03992
3479.29045	0.03946
3478.00468	0.03898
3476.71891	0.03870
3475.43314	0.03873
3474.14737	0.03899
3472.86160	0.03925
3471.57583	0.03932
3470.29006	0.03917
3469.00429	0.03895
3467.71853	0.03885
3466.43276	0.03897
3465.14699	0.03922
3463.86122	0.03942
3462.57545	0.03956
3461.28968	0.03972
3460.00391	0.03999
3458.71814	0.04032
3457.43238	0.04066
3456.14661	0.04102
3454.86084	0.04141
3453.57507	0.04177
3452.28930	0.04194
3451.00353	0.04178
3449.71776	0.04123
3448.43199	0.04045
3447.14622	0.03977
3445.86046	0.03947
3444.57469	0.03968
3443.28892	0.04026
3442.00315	0.04092
3440.71738	0.04135
3439.43161	0.04140
3438.14584	0.04105
3436.86007	0.04047
3435.57431	0.04000
3434.28854	0.04002
3433.00277	0.04059
3431.71700	0.04132
3430.43123	0.04173
3429.14546	0.04168
3427.85969	0.04138
3426.57392	0.04111
3425.28815	0.04097
3424.00239	0.04086
3422.71662	0.04065
3421.43085	0.04034
3420.14508	0.04010
3418.85931	0.04014
3417.57354	0.04051
3416.28777	0.04104
3415.00200	0.04139
3413.71624	0.04126
3412.43047	0.04065
3411.14470	0.03991
3409.85893	0.03954
3408.57316	0.03974
3407.28739	0.04034
3406.00162	0.04097
3404.71585	0.04138
3403.43008	0.04155
3402.14432	0.04159
3400.85855	0.04159
3399.57278	0.04155
3398.28701	0.04137
3397.00124	0.04112
3395.71547	0.04097
3394.42970	0.04108
3393.14393	0.04143
3391.85817	0.04192
3390.57240	0.04244
3389.28663	0.04299
3388.00086	0.04351
3386.71509	0.04390
3385.42932	0.04405
3384.14355	0.04399
3382.85778	0.04383
3381.57201	0.04361
3380.28625	0.04342
3379.00048	0.04340
3377.71471	0.04363
3376.42894	0.04407
3375.14317	0.04454
3373.85740	0.04492
3372.57163	0.04519
3371.28586	0.04530
3370.00010	0.04513
3368.71433	0.04468
3367.42856	0.04422
3366.14279	0.04399
3364.85702	0.04401
3363.57125	0.04407
3362.28548	0.04404
3360.99971	0.04397
3359.71394	0.04392
3358.42818	0.04384
3357.14241	0.04369
3355.85664	0.04358
3354.57087	0.04369
3353.28510	0.04402
3351.99933	0.04443
3350.71356	0.04466
3349.42779	0.04463
3348.14202	0.04439
3346.85626	0.04415
3345.57049	0.04412
3344.28472	0.04434
3342.99895	0.04469
3341.71318	0.04495
3340.42741	0.04498
3339.14164	0.04474
3337.85587	0.04436
3336.57011	0.04398
3335.28434	0.04379
3333.99857	0.04380
3332.71280	0.04388
3331.42703	0.04384
3330.14126	0.04369
3328.85549	0.04367
3327.56972	0.04401
3326.28395	0.04465
3324.99819	0.04527
3323.71242	0.04564
3322.42665	0.04579
3321.14088	0.04590
3319.85511	0.04609
3318.56934	0.04634
3317.28357	0.04665
3315.99780	0.04699
3314.71204	0.04727
3313.42627	0.04733
3312.14050	0.04714
3310.85473	0.04685
3309.56896	0.04662
3308.28319	0.04643
3306.99742	0.04611
3305.71165	0.04565
3304.42588	0.04525
3303.14012	0.04515
3301.85435	0.04538
3300.56858	0.04573
3299.28281	0.04609
3297.99704	0.04647
3296.71127	0.04689
3295.42550	0.04718
3294.13973	0.04717
3292.85397	0.04687
3291.56820	0.04648
3290.28243	0.04611
3288.99666	0.04583
3287.71089	0.04579
3286.42512	0.04611
3285.13935	0.04665
3283.85358	0.04700
3282.56781	0.04688
3281.28205	0.04642
3279.99628	0.04595
3278.71051	0.04564
3277.42474	0.04546
3276.13897	0.04534
3274.85320	0.04530
3273.56743	0.04539
3272.28166	0.04563
3270.99590	0.04587
3269.71013	0.04595
3268.42436	0.04580
3267.13859	0.04554
3265.85282	0.04548
3264.56705	0.04577
3263.28128	0.04633
3261.99551	0.04689
3260.70974	0.04719
3259.42398	0.04713
3258.13821	0.04677
3256.85244	0.04627
3255.56667	0.04589
3254.28090	0.04584
3252.99513	0.04605
3251.70936	0.04627
3250.42359	0.04621
3249.13783	0.04581
3247.85206	0.04527
3246.56629	0.04489
3245.28052	0.04476
3243.99475	0.04475
3242.70898	0.04466
3241.42321	0.04439
3240.13744	0.04403
3238.85167	0.04373
3237.56591	0.04359
3236.28014	0.04358
3234.99437	0.04361
3233.70860	0.04364
3232.42283	0.04369
3231.13706	0.04372
3229.85129	0.04372
3228.56552	0.04362
3227.27976	0.04349
3225.99399	0.04345
3224.70822	0.04363
3223.42245	0.04395
3222.13668	0.04419
3220.85091	0.04419
3219.56514	0.04400
3218.27937	0.04381
3216.99360	0.04374
3215.70784	0.04378
3214.42207	0.04386
3213.13630	0.04390
3211.85053	0.04383
3210.56476	0.04359
3209.27899	0.04327
3207.99322	0.04304
3206.70745	0.04300
3205.42169	0.04311
3204.13592	0.04320
3202.85015	0.04310
3201.56438	0.04285
3200.27861	0.04258
3198.99284	0.04246
3197.70707	0.04248
3196.42130	0.04253
3195.13553	0.04249
3193.84977	0.04235
3192.56400	0.04219
3191.27823	0.04214
3189.99246	0.04227
3188.70669	0.04248
3187.42092	0.04261
3186.13515	0.04268
3184.84938	0.04285
3183.56362	0.04318
3182.27785	0.04345
3180.99208	0.04335
3179.70631	0.04281
3178.42054	0.04208
3177.13477	0.04151
3175.84900	0.04126
3174.56323	0.04125
3173.27746	0.04132
3171.99170	0.04131
3170.70593	0.04109
3169.42016	0.04058
3168.13439	0.03989
3166.84862	0.03939
3165.56285	0.03938
3164.27708	0.03984
3162.99131	0.04034
3161.70555	0.04044
3160.41978	0.04009
3159.13401	0.03962
3157.84824	0.03943
3156.56247	0.03967
3155.27670	0.04008
3153.99093	0.04031
3152.70516	0.04021
3151.41939	0.03998
3150.13363	0.03985
3148.84786	0.03982
3147.56209	0.03973
3146.27632	0.03953
3144.99055	0.03940
3143.70478	0.03952
3142.41901	0.03982
3141.13324	0.04001
3139.84748	0.03990
3138.56171	0.03957
3137.27594	0.03924
3135.99017	0.03909
3134.70440	0.03911
3133.41863	0.03916
3132.13286	0.03907
3130.84709	0.03879
3129.56132	0.03838
3128.27556	0.03799
3126.98979	0.03777
3125.70402	0.03781
3124.41825	0.03805
3123.13248	0.03832
3121.84671	0.03847
3120.56094	0.03845
3119.27517	0.03844
3117.98940	0.03859
3116.70364	0.03892
3115.41787	0.03927
3114.13210	0.03941
3112.84633	0.03922
3111.56056	0.03877
3110.27479	0.03826
3108.98902	0.03787
3107.70325	0.03766
3106.41749	0.03755
3105.13172	0.03738
3103.84595	0.03716
3102.56018	0.03701
3101.27441	0.03711
3099.98864	0.03754
3098.70287	0.03823
3097.41710	0.03897
3096.13133	0.03943
3094.84557	0.03944
3093.55980	0.03914
3092.27403	0.03881
3090.98826	0.03857
3089.70249	0.03829
3088.41672	0.03787
3087.13095	0.03742
3085.84518	0.03710
3084.55942	0.03695
3083.27365	0.03695
3081.98788	0.03710
3080.70211	0.03742
3079.41634	0.03781
3078.13057	0.03810
3076.84480	0.03822
3075.55903	0.03823
3074.27326	0.03821
3072.98750	0.03815
3071.70173	0.03801
3070.41596	0.03784
3069.13019	0.03772
3067.84442	0.03774
3066.55865	0.03784
3065.27288	0.03788
3063.98711	0.03768
3062.70135	0.03727
3061.41558	0.03686
3060.12981	0.03666
3058.84404	0.03665
3057.55827	0.03667
3056.27250	0.03661
3054.98673	0.03646
3053.70096	0.03624
3052.41519	0.03603
3051.12943	0.03593
3049.84366	0.03607
3048.55789	0.03635
3047.27212	0.03652
3045.98635	0.03630
3044.70058	0.03574
3043.41481	0.03513
3042.12904	0.03478
3040.84328	0.03476
3039.55751	0.03493
3038.27174	0.03517
3036.98597	0.03541
3035.70020	0.03558
3034.41443	0.03566
3033.12866	0.03564
3031.84289	0.03551
3030.55712	0.03529
3029.27136	0.03506
3027.98559	0.03498
3026.69982	0.03511
3025.41405	0.03532
3024.12828	0.03542
3022.84251	0.03530
3021.55674	0.03509
3020.27097	0.03494
3018.98521	0.03493
3017.69944	0.03497
3016.41367	0.03491
3015.12790	0.03466
3013.84213	0.03429
3012.55636	0.03402
3011.27059	0.03396
3009.98482	0.03402
3008.69905	0.03403
3007.41329	0.03393
3006.12752	0.03385
3004.84175	0.03393
3003.55598	0.03414
3002.27021	0.03431
3000.98444	0.03430
2999.69867	0.03412
2998.41290	0.03390
2997.12714	0.03381
2995.84137	0.03381
2994.55560	0.03376
2993.26983	0.03361
2991.98406	0.03341
2990.69829	0.03328
2989.41252	0.03334
2988.12675	0.03361
2986.84098	0.03394
2985.55522	0.03410
2984.26945	0.03407
2982.98368	0.03408
2981.69791	0.03436
2980.41214	0.03480
2979.12637	0.03508
2977.84060	0.03499
2976.55483	0.03456
2975.26907	0.03409
2973.98330	0.03385
2972.69753	0.03395
2971.41176	0.03431
2970.12599	0.03470
2968.84022	0.03499
2967.55445	0.03508
2966.26868	0.03501
2964.98291	0.03491
2963.69715	0.03490
2962.41138	0.03497
2961.12561	0.03504
2959.83984	0.03507
2958.55407	0.03510
2957.26830	0.03515
2955.98253	0.03519
2954.69676	0.03519
2953.41100	0.03518
2952.12523	0.03521
2950.83946	0.03529
2949.55369	0.03528
2948.26792	0.03511
2946.98215	0.03482
2945.69638	0.03463
2944.41061	0.03467
2943.12484	0.03483
2941.83908	0.03493
2940.55331	0.03493
2939.26754	0.03486
2937.98177	0.03478
2936.69600	0.03472
2935.41023	0.03465
2934.12446	0.03453
2932.83869	0.03433
2931.55293	0.03417
2930.26716	0.03424
2928.98139	0.03460
2927.69562	0.03508
2926.40985	0.03538
2925.12408	0.03532
2923.83831	0.03495
2922.55254	0.03445
2921.26677	0.03401
2919.98101	0.03375
2918.69524	0.03366
2917.40947	0.03375
2916.12370	0.03392
2914.83793	0.03405
2913.55216	0.03400
2912.26639	0.03382
2910.98062	0.03362
2909.69486	0.03346
2908.40909	0.03324
2907.12332	0.03292
2905.83755	0.03256
2904.55178	0.03231
2903.26601	0.03227
2901.98024	0.03248
2900.69447	0.03290
2899.40870	0.03338
2898.12294	0.03371
2896.83717	0.03372
2895.55140	0.03341
2894.26563	0.03300
2892.97986	0.03274
2891.69409	0.03270
2890.40832	0.03274
2889.12255	0.03266
2887.83678	0.03239
2886.55102	0.03203
2885.26525	0.03170
2883.97948	0.03147
2882.69371	0.03137
2881.40794	0.03139
2880.12217	0.03148
2878.83640	0.03156
2877.55063	0.03165
2876.26487	0.03180
2874.97910	0.03198
2873.69333	0.03212
2872.40756	0.03216
2871.12179	0.03210
2869.83602	0.03201
2868.55025	0.03195
2867.26448	0.03199
2865.97871	0.03208
2864.69295	0.03211
2863.40718	0.03201
2862.12141	0.03187
2860.83564	0.03179
2859.54987	0.03170
2858.26410	0.03145
2856.97833	0.03101
2855.69256	0.03058
2854.40680	0.03039
2853.12103	0.03047
2851.83526	0.03060
2850.54949	0.03058
2849.26372	0.03036
2847.97795	0.03009
2846.69218	0.02992
2845.40641	0.02988
2844.12064	0.02988
2842.83488	0.02980
2841.54911	0.02964
2840.26334	0.02948
2838.97757	0.02939
2837.69180	0.02929
2836.40603	0.02911
2835.12026	0.02892
2833.83449	0.02883
2832.54873	0.02885
2831.26296	0.02888
2829.97719	0.02886
2828.69142	0.02881
2827.40565	0.02881
2826.11988	0.02886
2824.83411	0.02895
2823.54834	0.02902
2822.26257	0.02900
2820.97681	0.02879
2819.69104	0.02840
2818.40527	0.02801
2817.11950	0.02783
2815.83373	0.02792
2814.54796	0.02813
2813.26219	0.02823
2811.97642	0.02819
2810.69066	0.02808
2809.40489	0.02800
2808.11912	0.02789
2806.83335	0.02768
2805.54758	0.02739
2804.26181	0.02710
2802.97604	0.02693
2801.69027	0.02690
2800.40450	0.02697
2799.11874	0.02707
2797.83297	0.02712
2796.54720	0.02709
2795.26143	0.02703
2793.97566	0.02702
2792.68989	0.02709
2791.40412	0.02717
2790.11835	0.02715
2788.83259	0.02704
2787.54682	0.02692
2786.26105	0.02688
2784.97528	0.02689
2783.68951	0.02693
2782.40374	0.02693
2781.11797	0.02687
2779.83220	0.02681
2778.54643	0.02680
2777.26067	0.02678
2775.97490	0.02663
2774.68913	0.02638
2773.40336	0.02617
2772.11759	0.02611
2770.83182	0.02613
2769.54605	0.02615
2768.26028	0.02617
2766.97452	0.02616
2765.68875	0.02603
2764.40298	0.02573
2763.11721	0.02541
2761.83144	0.02527
2760.54567	0.02537
2759.25990	0.02561
2757.97413	0.02586
2756.68836	0.02600
2755.40260	0.02601
2754.11683	0.02596
2752.83106	0.02593
2751.54529	0.02600
2750.25952	0.02617
2748.97375	0.02633
2747.68798	0.02637
2746.40221	0.02621
2745.11645	0.02593
2743.83068	0.02572
2742.54491	0.02568
2741.25914	0.02575
2739.97337	0.02577
2738.68760	0.02559
2737.40183	0.02529
2736.11606	0.02504
2734.83029	0.02497
2733.54453	0.02503
2732.25876	0.02506
2730.97299	0.02502
2729.68722	0.02499
2728.40145	0.02505
2727.11568	0.02516
2725.82991	0.02519
2724.54414	0.02507
2723.25838	0.02482
2721.97261	0.02454
2720.68684	0.02435
2719.40107	0.02432
2718.11530	0.02437
2716.82953	0.02442
2715.54376	0.02441
2714.25799	0.02442
2712.97222	0.02455
2711.68646	0.02482
2710.40069	0.02512
2709.11492	0.02531
2707.82915	0.02535
2706.54338	0.02529
2705.25761	0.02515
2703.97184	0.02494
2702.68607	0.02467
2701.40031	0.02440
2700.11454	0.02423
2698.82877	0.02414
2697.54300	0.02405
2696.25723	0.02392
2694.97146	0.02378
2693.68569	0.02371
2692.39992	0.02378
2691.11415	0.02393
2689.82839	0.02403
2688.54262	0.02401
2687.25685	0.02393
2685.97108	0.02392
2684.68531	0.02397
2683.39954	0.02399
2682.11377	0.02394
2680.82800	0.02387
2679.54224	0.02383
2678.25647	0.02377
2676.97070	0.02371
2675.68493	0.02370
2674.39916	0.02380
2673.11339	0.02395
2671.82762	0.02402
2670.54185	0.02398
2669.25608	0.02391
2667.97032	0.02389
2666.68455	0.02391
2665.39878	0.02386
2664.11301	0.02370
2662.82724	0.02354
2661.54147	0.02347
2660.25570	0.02352
2658.96993	0.02362
2657.68417	0.02370
2656.39840	0.02368
2655.11263	0.02354
2653.82686	0.02335
2652.54109	0.02317
2651.25532	0.02305
2649.96955	0.02297
2648.68378	0.02291
2647.39801	0.02287
2646.11225	0.02283
2644.82648	0.02279
2643.54071	0.02274
2642.25494	0.02275
2640.96917	0.02284
2639.68340	0.02291
2638.39763	0.02289
2637.11186	0.02275
2635.82609	0.02256
2634.54033	0.02236
2633.25456	0.02219
2631.96879	0.02206
2630.68302	0.02197
2629.39725	0.02183
2628.11148	0.02161
2626.82571	0.02136
2625.53994	0.02123
2624.25418	0.02127
2622.96841	0.02142
2621.68264	0.02159
2620.39687	0.02173
2619.11110	0.02187
2617.82533	0.02194
2616.53956	0.02182
2615.25379	0.02150
2613.96802	0.02115
2612.68226	0.02091
2611.39649	0.02080
2610.11072	0.02076
2608.82495	0.02082
2607.53918	0.02102
2606.25341	0.02124
2604.96764	0.02127
2603.68187	0.02103
2602.39611	0.02063
2601.11034	0.02025
2599.82457	0.02001
2598.53880	0.01987
2597.25303	0.01976
2595.96726	0.01962
2594.68149	0.01943
2593.39572	0.01928
2592.10995	0.01927
2590.82419	0.01944
2589.53842	0.01979
2588.25265	0.02017
2586.96688	0.02039
2585.68111	0.02029
2584.39534	0.01992
2583.10957	0.01953
2581.82380	0.01931
2580.53804	0.01913
2579.25227	0.01887
2577.96650	0.01865
2576.68073	0.01872
2575.39496	0.01907
2574.10919	0.01936
2572.82342	0.01940
2571.53765	0.01931
2570.25188	0.01930
2568.96612	0.01937
2567.68035	0.01938
2566.39458	0.01928
2565.10881	0.01914
2563.82304	0.01907
2562.53727	0.01912
2561.25150	0.01927
2559.96573	0.01943
2558.67997	0.01942
2557.39420	0.01909
2556.10843	0.01850
2554.82266	0.01796
2553.53689	0.01780
2552.25112	0.01804
2550.96535	0.01841
2549.67958	0.01866
2548.39381	0.01874
2547.10805	0.01871
2545.82228	0.01861
2544.53651	0.01852
2543.25074	0.01854
2541.96497	0.01872
2540.67920	0.01900
2539.39343	0.01927
2538.10766	0.01940
2536.82190	0.01936
2535.53613	0.01914
2534.25036	0.01878
2532.96459	0.01840
2531.67882	0.01818
2530.39305	0.01818
2529.10728	0.01828
2527.82151	0.01828
2526.53574	0.01811
2525.24998	0.01791
2523.96421	0.01778
2522.67844	0.01770
2521.39267	0.01763
2520.10690	0.01766
2518.82113	0.01787
2517.53536	0.01820
2516.24959	0.01843
2514.96383	0.01840
2513.67806	0.01813
2512.39229	0.01772
2511.10652	0.01732
2509.82075	0.01708
2508.53498	0.01703
2507.24921	0.01706
2505.96344	0.01695
2504.67767	0.01669
2503.39191	0.01645
2502.10614	0.01638
2500.82037	0.01649
2499.53460	0.01664
2498.24883	0.01676
2496.96306	0.01684
2495.67729	0.01695
2494.39152	0.01709
2493.10576	0.01727
2491.81999	0.01743
2490.53422	0.01748
2489.24845	0.01739
2487.96268	0.01725
2486.67691	0.01719
2485.39114	0.01719
2484.10537	0.01711
2482.81960	0.01702
2481.53384	0.01708
2480.24807	0.01730
2478.96230	0.01741
2477.67653	0.01724
2476.39076	0.01691
2475.10499	0.01678
2473.81922	0.01699
2472.53345	0.01732
2471.24769	0.01749
2469.96192	0.01748
2468.67615	0.01753
2467.39038	0.01774
2466.10461	0.01794
2464.81884	0.01782
2463.53307	0.01733
2462.24730	0.01671
2460.96153	0.01631
2459.67577	0.01633
2458.39000	0.01673
2457.10423	0.01725
2455.81846	0.01759
2454.53269	0.01759
2453.24692	0.01733
2451.96115	0.01705
2450.67538	0.01694
2449.38962	0.01700
2448.10385	0.01708
2446.81808	0.01702
2445.53231	0.01685
2444.24654	0.01668
2442.96077	0.01662
2441.67500	0.01669
2440.38923	0.01682
2439.10346	0.01685
2437.81770	0.01665
2436.53193	0.01622
2435.24616	0.01578
2433.96039	0.01565
2432.67462	0.01593
2431.38885	0.01644
2430.10308	0.01687
2428.81731	0.01707
2427.53155	0.01713
2426.24578	0.01712
2424.96001	0.01704
2423.67424	0.01687
2422.38847	0.01664
2421.10270	0.01652
2419.81693	0.01657
2418.53116	0.01672
2417.24539	0.01681
2415.95963	0.01675
2414.67386	0.01659
2413.38809	0.01645
2412.10232	0.01639
2410.81655	0.01640
2409.53078	0.01641
2408.24501	0.01634
2406.95924	0.01621
2405.67347	0.01610
2404.38771	0.01607
2403.10194	0.01611
2401.81617	0.01618
2400.53040	0.01623
2399.24463	0.01623
2397.95886	0.01626
2396.67309	0.01633
2395.38732	0.01634
2394.10156	0.01618
2392.81579	0.01591
2391.53002	0.01572
2390.24425	0.01575
2388.95848	0.01593
2387.67271	0.01611
2386.38694	0.01626
2385.10117	0.01647
2383.81540	0.01675
2382.52964	0.01700
2381.24387	0.01710
2379.95810	0.01708
2378.67233	0.01703
2377.38656	0.01703
2376.10079	0.01706
2374.81502	0.01708
2373.52925	0.01701
2372.24349	0.01679
2370.95772	0.01639
2369.67195	0.01592
2368.38618	0.01556
2367.10041	0.01549
2365.81464	0.01567
2364.52887	0.01598
2363.24310	0.01624
2361.95733	0.01640
2360.67157	0.01650
2359.38580	0.01665
2358.10003	0.01689
2356.81426	0.01712
2355.52849	0.01719
2354.24272	0.01704
2352.95695	0.01681
2351.67118	0.01671
2350.38542	0.01683
2349.09965	0.01712
2347.81388	0.01744
2346.52811	0.01766
2345.24234	0.01768
2343.95657	0.01750
2342.67080	0.01725
2341.38503	0.01705
2340.09926	0.01696
2338.81350	0.01701
2337.52773	0.01707
2336.24196	0.01697
2334.95619	0.01673
2333.67042	0.01651
2332.38465	0.01644
2331.09888	0.01646
2329.81311	0.01658
2328.52735	0.01682
2327.24158	0.01703
2325.95581	0.01726
2324.67004	0.01758
2323.38427	0.01772
2322.09850	0.01752
2320.81273	0.01716
2319.52696	0.01681
2318.24119	0.01669
2316.95543	0.01687
2315.66966	0.01704
2314.38389	0.01701
2313.09812	0.01684
2311.81235	0.01666
2310.52658	0.01669
2309.24081	0.01687
2307.95504	0.01699
2306.66928	0.01689
2305.38351	0.01654
2304.09774	0.01601
2302.81197	0.01539
2301.52620	0.01486
2300.24043	0.01469
2298.95466	0.01499
2297.66889	0.01550
2296.38312	0.01582
2295.09736	0.01581
2293.81159	0.01576
2292.52582	0.01599
2291.24005	0.01645
2289.95428	0.01684
2288.66851	0.01691
2287.38274	0.01673
2286.09697	0.01644
2284.81121	0.01601
2283.52544	0.01527
2282.23967	0.01430
2280.95390	0.01348
2279.66813	0.01315
2278.38236	0.01326
2277.09659	0.01346
2275.81082	0.01349
2274.52505	0.01347
2273.23929	0.01370
2271.95352	0.01425
2270.66775	0.01492
2269.38198	0.01536
2268.09621	0.01545
2266.81044	0.01527
2265.52467	0.01494
2264.23890	0.01447
2262.95314	0.01390
2261.66737	0.01346
2260.38160	0.01343
2259.09583	0.01377
2257.81006	0.01424
2256.52429	0.01466
2255.23852	0.01507
2253.95275	0.01549
2252.66698	0.01582
2251.38122	0.01594
2250.09545	0.01592
2248.80968	0.01584
2247.52391	0.01555
2246.23814	0.01521
2244.95237	0.01490
2243.66660	0.01467
2242.38083	0.01443
2241.09507	0.01408
2239.80930	0.01354
2238.52353	0.01290
2237.23776	0.01236
2235.95199	0.01206
2234.66622	0.01206
2233.38045	0.01241
2232.09468	0.01316
2230.80891	0.01400
2229.52315	0.01428
2228.23738	0.01351
2226.95161	0.01197
2225.66584	0.01057
2224.38007	0.01013
2223.09430	0.01072
2221.80853	0.01156
2220.52276	0.01178
2219.23700	0.01130
2217.95123	0.01095
2216.66546	0.01153
2215.37969	0.01284
2214.09392	0.01399
2212.80815	0.01439
2211.52238	0.01417
2210.23661	0.01378
2208.95084	0.01339
2207.66508	0.01294
2206.37931	0.01243
2205.09354	0.01191
2203.80777	0.01133
2202.52200	0.01059
2201.23623	0.00979
2199.95046	0.00933
2198.66469	0.00948
2197.37893	0.01011
2196.09316	0.01070
2194.80739	0.01069
2193.52162	0.00992
2192.23585	0.00880
2190.95008	0.00797
2189.66431	0.00769
2188.37854	0.00770
2187.09277	0.00775
2185.80701	0.00793
2184.52124	0.00825
2183.23547	0.00836
2181.94970	0.00802
2180.66393	0.00758
2179.37816	0.00758
2178.09239	0.00822
2176.80662	0.00926
2175.52085	0.01024
2174.23509	0.01077
2172.94932	0.01067
2171.66355	0.01010
2170.37778	0.00935
2169.09201	0.00843
2167.80624	0.00718
2166.52047	0.00568
2165.23470	0.00439
2163.94894	0.00370
2162.66317	0.00351
2161.37740	0.00344
2160.09163	0.00328
2158.80586	0.00311
2157.52009	0.00307
2156.23432	0.00324
2154.94855	0.00358
2153.66278	0.00393
2152.37702	0.00421
2151.09125	0.00451
2149.80548	0.00490
2148.51971	0.00520
2147.23394	0.00514
2145.94817	0.00477
2144.66240	0.00459
2143.37663	0.00511
2142.09087	0.00638
2140.80510	0.00782
2139.51933	0.00864
2138.23356	0.00849
2136.94779	0.00771
2135.66202	0.00693
2134.37625	0.00664
2133.09048	0.00698
2131.80471	0.00774
2130.51895	0.00842
2129.23318	0.00861
2127.94741	0.00829
2126.66164	0.00785
2125.37587	0.00770
2124.09010	0.00794
2122.80433	0.00837
2121.51856	0.00877
2120.23280	0.00911
2118.94703	0.00945
2117.66126	0.00973
2116.37549	0.00972
2115.08972	0.00930
2113.80395	0.00872
2112.51818	0.00838
2111.23241	0.00846
2109.94664	0.00876
2108.66088	0.00895
2107.37511	0.00876
2106.08934	0.00825
2104.80357	0.00771
2103.51780	0.00751
2102.23203	0.00774
2100.94626	0.00820
2099.66049	0.00968
2098.37473	0.01019
2097.08896	0.00984
2095.80319	0.00928
2094.51742	0.00885
2093.23165	0.00880
2091.94588	0.00918
2090.66011	0.00971
2089.37434	0.00992
2088.08857	0.00958
2086.80281	0.00899
2085.51704	0.00868
2084.23127	0.00897
2082.94550	0.00976
2081.65973	0.01059
2080.37396	0.01097
2079.08819	0.01062
2077.80242	0.00971
2076.51666	0.00874
2075.23089	0.00819
2073.94512	0.00818
2072.65935	0.00857
2071.37358	0.00919
2070.08781	0.00992
2068.80204	0.01056
2067.51627	0.01085
2066.23050	0.01068
2064.94474	0.01031
2063.65897	0.01010
2062.37320	0.01008
2061.08743	0.00995
2059.80166	0.00956
2058.51589	0.00907
2057.23012	0.00870
2055.94435	0.00848
2054.65859	0.00837
2053.37282	0.00828
2052.08705	0.00798
2050.80128	0.00724
2049.51551	0.00617
2048.22974	0.00531
2046.94397	0.00517
2045.65820	0.00578
2044.37243	0.00677
2043.08667	0.00777
2041.80090	0.00848
2040.51513	0.00875
2039.22936	0.00860
2037.94359	0.00821
2036.65782	0.00764
2035.37205	0.00686
2034.08628	0.00581
2032.80052	0.00459
2031.51475	0.00349
2030.22898	0.00281
2028.94321	0.00263
2027.65744	0.00286
2026.37167	0.00344
2025.08590	0.00430
2023.80013	0.00518
2022.51436	0.00554
2021.22860	0.00501
2019.94283	0.00383
2018.65706	0.00272
2017.37129	0.00241
2016.08552	0.00318
2014.79975	0.00474
2013.51398	0.00639
2012.22821	0.00746
2010.94245	0.00771
2009.65668	0.00742
2008.37091	0.00705
2007.08514	0.00690
2005.79937	0.00698
2004.51360	0.00723
2003.22783	0.00754
2001.94206	0.00779
2000.65629	0.00794
1999.37053	0.00813
1998.08476	0.00855
1996.79899	0.00917
1995.51322	0.00969
1994.22745	0.00979
1992.94168	0.00936
1991.65591	0.00851
1990.37014	0.00750
1989.08438	0.00674
1987.79861	0.00670
1986.51284	0.00752
1985.22707	0.00874
1983.94130	0.00970
1982.65553	0.01018
1981.36976	0.01057
1980.08399	0.01134
1978.79822	0.01242
1977.51246	0.01323
1976.22669	0.01317
1974.94092	0.01213
1973.65515	0.01059
1972.36938	0.00930
1971.08361	0.00886
1969.79784	0.00931
1968.51207	0.01009
1967.22631	0.01047
1965.94054	0.01009
1964.65477	0.00908
1963.36900	0.00781
1962.08323	0.00666
1960.79746	0.00597
1959.51169	0.00591
1958.22592	0.00632
1956.94015	0.00676
1955.65439	0.00691
1954.36862	0.00687
1953.08285	0.00697
1951.79708	0.00740
1950.51131	0.00806
1949.22554	0.00865
1947.93977	0.00897
1946.65400	0.00908
1945.36823	0.00922
1944.08247	0.00958
1942.79670	0.01008
1941.51093	0.01044
1940.22516	0.01042
1938.93939	0.01004
1937.65362	0.00958
1936.36785	0.00927
1935.08208	0.00909
1933.79632	0.00897
1932.51055	0.00895
1931.22478	0.00913
1929.93901	0.00942
1928.65324	0.00955
1927.36747	0.00936
1926.08170	0.00902
1924.79593	0.00882
1923.51016	0.00892
1922.22440	0.00922
1920.93863	0.00954
1919.65286	0.00972
1918.36709	0.00976
1917.08132	0.00974
1915.79555	0.00977
1914.50978	0.00984
1913.22401	0.00987
1911.93825	0.00986
1910.65248	0.00993
1909.36671	0.01023
1908.08094	0.01071
1906.79517	0.01109
1905.50940	0.01115
1904.22363	0.01085
1902.93786	0.01038
1901.65209	0.00991
1900.36633	0.00957
1899.08056	0.00941
1897.79479	0.00948
1896.50902	0.00974
1895.22325	0.01005
1893.93748	0.01029
1892.65171	0.01046
1891.36594	0.01062
1890.08018	0.01072
1888.79441	0.01068
1887.50864	0.01051
1886.22287	0.01031
1884.93710	0.01018
1883.65133	0.01005
1882.36556	0.00981
1881.07979	0.00948
1879.79402	0.00919
1878.50826	0.00907
1877.22249	0.00909
1875.93672	0.00920
1874.65095	0.00938
1873.36518	0.00971
1872.07941	0.01013
1870.79364	0.01045
1869.50787	0.01048
1868.22211	0.01025
1866.93634	0.00993
1865.65057	0.00967
1864.36480	0.00957
1863.07903	0.00962
1861.79326	0.00974
1860.50749	0.00983
1859.22172	0.00980
1857.93595	0.00964
1856.65019	0.00949
1855.36442	0.00942
1854.07865	0.00940
1852.79288	0.00934
1851.50711	0.00926
1850.22134	0.00930
1848.93557	0.00956
1847.64980	0.00995
1846.36404	0.01025
1845.07827	0.01033
1843.79250	0.01022
1842.50673	0.01007
1841.22096	0.00996
1839.93519	0.00990
1838.64942	0.00981
1837.36365	0.00967
1836.07788	0.00960
1834.79212	0.00969
1833.50635	0.00992
1832.22058	0.01023
1830.93481	0.01051
1829.64904	0.01076
1828.36327	0.01097
1827.07750	0.01110
1825.79173	0.01114
1824.50597	0.01110
1823.22020	0.01106
1821.93443	0.01107
1820.64866	0.01110
1819.36289	0.01102
1818.07712	0.01074
1816.79135	0.01031
1815.50558	0.00991
1814.21981	0.00970
1812.93405	0.00967
1811.64828	0.00970
1810.36251	0.00962
1809.07674	0.00941
1807.79097	0.00919
1806.50520	0.00909
1805.21943	0.00915
1803.93366	0.00932
1802.64790	0.00951
1801.36213	0.00967
1800.07636	0.00977
1798.79059	0.00983
1797.50482	0.00990
1796.21905	0.01001
1794.93328	0.01018
1793.64751	0.01036
1792.36174	0.01049
1791.07598	0.01050
1789.79021	0.01040
1788.50444	0.01030
1787.21867	0.01027
1785.93290	0.01033
1784.64713	0.01044
1783.36136	0.01054
1782.07559	0.01059
1780.78983	0.01055
1779.50406	0.01042
1778.21829	0.01027
1776.93252	0.01020
1775.64675	0.01023
1774.36098	0.01035
1773.07521	0.01047
1771.78944	0.01050
1770.50367	0.01042
1769.21791	0.01028
1767.93214	0.01017
1766.64637	0.01015
1765.36060	0.01020
1764.07483	0.01028
1762.78906	0.01027
1761.50329	0.01016
1760.21752	0.01001
1758.93176	0.00990
1757.64599	0.00987
1756.36022	0.00988
1755.07445	0.00993
1753.78868	0.01002
1752.50291	0.01013
1751.21714	0.01020
1749.93137	0.01016
1748.64560	0.01004
1747.35984	0.00990
1746.07407	0.00978
1744.78830	0.00970
1743.50253	0.00968
1742.21676	0.00971
1740.93099	0.00975
1739.64522	0.00975
1738.35945	0.00974
1737.07369	0.00983
1735.78792	0.01009
1734.50215	0.01038
1733.21638	0.01052
1731.93061	0.01042
1730.64484	0.01021
1729.35907	0.01005
1728.07330	0.01001
1726.78753	0.01007
1725.50177	0.01017
1724.21600	0.01025
1722.93023	0.01033
1721.64446	0.01049
1720.35869	0.01078
1719.07292	0.01112
1717.78715	0.01135
1716.50138	0.01140
1715.21561	0.01133
1713.92985	0.01131
1712.64408	0.01140
1711.35831	0.01161
1710.07254	0.01187
1708.78677	0.01219
1707.50100	0.01261
1706.21523	0.01312
1704.92946	0.01369
1703.64370	0.01430
1702.35793	0.01494
1701.07216	0.01558
1699.78639	0.01623
1698.50062	0.01690
1697.21485	0.01760
1695.92908	0.01827
1694.64331	0.01886
1693.35754	0.01939
1692.07178	0.01994
1690.78601	0.02058
1689.50024	0.02134
1688.21447	0.02221
1686.92870	0.02318
1685.64293	0.02413
1684.35716	0.02491
1683.07139	0.02544
1681.78563	0.02583
1680.49986	0.02626
1679.21409	0.02686
1677.92832	0.02765
1676.64255	0.02854
1675.35678	0.02942
1674.07101	0.03025
1672.78524	0.03103
1671.49947	0.03180
1670.21371	0.03251
1668.92794	0.03317
1667.64217	0.03381
1666.35640	0.03451
1665.07063	0.03530
1663.78486	0.03611
1662.49909	0.03681
1661.21332	0.03735
1659.92756	0.03780
1658.64179	0.03830
1657.35602	0.03897
1656.07025	0.03983
1654.78448	0.04073
1653.49871	0.04139
1652.21294	0.04166
1650.92717	0.04168
1649.64140	0.04173
1648.35564	0.04201
1647.06987	0.04246
1645.78410	0.04288
1644.49833	0.04312
1643.21256	0.04316
1641.92679	0.04308
1640.64102	0.04295
1639.35525	0.04288
1638.06949	0.04292
1636.78372	0.04299
1635.49795	0.04292
1634.21218	0.04260
1632.92641	0.04207
1631.64064	0.04150
1630.35487	0.04099
1629.06910	0.04055
1627.78333	0.04013
1626.49757	0.03969
1625.21180	0.03923
1623.92603	0.03876
1622.64026	0.03828
1621.35449	0.03778
1620.06872	0.03730
1618.78295	0.03687
1617.49718	0.03646
1616.21142	0.03600
1614.92565	0.03549
1613.63988	0.03496
1612.35411	0.03450
1611.06834	0.03412
1609.78257	0.03379
1608.49680	0.03350
1607.21103	0.03325
1605.92526	0.03304
1604.63950	0.03289
1603.35373	0.03280
1602.06796	0.03279
1600.78219	0.03281
1599.49642	0.03281
1598.21065	0.03274
1596.92488	0.03262
1595.63911	0.03248
1594.35335	0.03241
1593.06758	0.03245
1591.78181	0.03259
1590.49604	0.03276
1589.21027	0.03289
1587.92450	0.03298
1586.63873	0.03304
1585.35296	0.03310
1584.06719	0.03318
1582.78143	0.03330
1581.49566	0.03352
1580.20989	0.03387
1578.92412	0.03436
1577.63835	0.03489
1576.35258	0.03528
1575.06681	0.03547
1573.78104	0.03552
1572.49528	0.03561
1571.20951	0.03584
1569.92374	0.03616
1568.63797	0.03649
1567.35220	0.03678
1566.06643	0.03707
1564.78066	0.03742
1563.49489	0.03788
1562.20912	0.03848
1560.92336	0.03915
1559.63759	0.03970
1558.35182	0.03996
1557.06605	0.03993
1555.78028	0.03978
1554.49451	0.03966
1553.20874	0.03961
1551.92297	0.03959
1550.63721	0.03958
1549.35144	0.03958
1548.06567	0.03957
1546.77990	0.03953
1545.49413	0.03946
1544.20836	0.03945
1542.92259	0.03952
1541.63682	0.03963
1540.35105	0.03961
1539.06529	0.03937
1537.77952	0.03898
1536.49375	0.03861
1535.20798	0.03835
1533.92221	0.03813
1532.63644	0.03787
1531.35067	0.03757
1530.06490	0.03734
1528.77914	0.03724
1527.49337	0.03721
1526.20760	0.03720
1524.92183	0.03719
1523.63606	0.03720
1522.35029	0.03720
1521.06452	0.03714
1519.77875	0.03700
1518.49298	0.03682
1517.20722	0.03664
1515.92145	0.03650
1514.63568	0.03643
1513.34991	0.03645
1512.06414	0.03658
1510.77837	0.03684
1509.49260	0.03723
1508.20683	0.03767
1506.92107	0.03799
1505.63530	0.03803
1504.34953	0.03780
1503.06376	0.03750
1501.77799	0.03735
1500.49222	0.03742
1499.20645	0.03764
1497.92068	0.03785
1496.63491	0.03791
1495.34915	0.03780
1494.06338	0.03762
1492.77761	0.03752
1491.49184	0.03757
1490.20607	0.03771
1488.92030	0.03786
1487.63453	0.03800
1486.34876	0.03814
1485.06299	0.03829
1483.77723	0.03844
1482.49146	0.03861
1481.20569	0.03879
1479.91992	0.03903
1478.63415	0.03938
1477.34838	0.03986
1476.06261	0.04043
1474.77684	0.04100
1473.49108	0.04147
1472.20531	0.04177
1470.91954	0.04193
1469.63377	0.04208
1468.34800	0.04231
1467.06223	0.04266
1465.77646	0.04307
1464.49069	0.04348
1463.20492	0.04388
1461.91916	0.04433
1460.63339	0.04492
1459.34762	0.04564
1458.06185	0.04640
1456.77608	0.04704
1455.49031	0.04748
1454.20454	0.04772
1452.91877	0.04784
1451.63301	0.04792
1450.34724	0.04800
1449.06147	0.04807
1447.77570	0.04811
1446.48993	0.04809
1445.20416	0.04800
1443.91839	0.04788
1442.63262	0.04779
1441.34685	0.04775
1440.06109	0.04778
1438.77532	0.04783
1437.48955	0.04787
1436.20378	0.04785
1434.91801	0.04778
1433.63224	0.04774
1432.34647	0.04781
1431.06070	0.04802
1429.77494	0.04836
1428.48917	0.04878
1427.20340	0.04924
1425.91763	0.04971
1424.63186	0.05020
1423.34609	0.05072
1422.06032	0.05126
1420.77455	0.05182
1419.48878	0.05232
1418.20302	0.05269
1416.91725	0.05292
1415.63148	0.05306
1414.34571	0.05314
1413.05994	0.05318
1411.77417	0.05317
1410.48840	0.05309
1409.20263	0.05294
1407.91687	0.05273
1406.63110	0.05247
1405.34533	0.05212
1404.05956	0.05166
1402.77379	0.05112
1401.48802	0.05052
1400.20225	0.04990
1398.91648	0.04926
1397.63071	0.04860
1396.34495	0.04788
1395.05918	0.04707
1393.77341	0.04618
1392.48764	0.04524
1391.20187	0.04434
1389.91610	0.04350
1388.63033	0.04270
1387.34456	0.04190
1386.05880	0.04106
1384.77303	0.04017
1383.48726	0.03927
1382.20149	0.03841
1380.91572	0.03762
1379.62995	0.03688
1378.34418	0.03619
1377.05841	0.03549
1375.77264	0.03478
1374.48688	0.03405
1373.20111	0.03331
1371.91534	0.03258
1370.62957	0.03185
1369.34380	0.03115
1368.05803	0.03048
1366.77226	0.02988
1365.48649	0.02939
1364.20073	0.02899
1362.91496	0.02860
1361.62919	0.02818
1360.34342	0.02771
1359.05765	0.02725
1357.77188	0.02686
1356.48611	0.02655
1355.20034	0.02628
1353.91457	0.02604
1352.62881	0.02583
1351.34304	0.02565
1350.05727	0.02550
1348.77150	0.02535
1347.48573	0.02520
1346.19996	0.02503
1344.91419	0.02487
1343.62842	0.02473
1342.34266	0.02461
1341.05689	0.02451
1339.77112	0.02436
1338.48535	0.02414
1337.19958	0.02389
1335.91381	0.02364
1334.62804	0.02342
1333.34227	0.02318
1332.05650	0.02292
1330.77074	0.02265
1329.48497	0.02238
1328.19920	0.02214
1326.91343	0.02192
1325.62766	0.02173
1324.34189	0.02157
1323.05612	0.02142
1321.77035	0.02124
1320.48459	0.02107
1319.19882	0.02093
1317.91305	0.02080
1316.62728	0.02065
1315.34151	0.02047
1314.05574	0.02027
1312.76997	0.02005
1311.48420	0.01983
1310.19843	0.01959
1308.91267	0.01935
1307.62690	0.01913
1306.34113	0.01894
1305.05536	0.01876
1303.76959	0.01861
1302.48382	0.01851
1301.19805	0.01849
1299.91228	0.01850
1298.62652	0.01848
1297.34075	0.01835
1296.05498	0.01814
1294.76921	0.01795
1293.48344	0.01785
1292.19767	0.01782
1290.91190	0.01783
1289.62613	0.01781
1288.34036	0.01779
1287.05460	0.01776
1285.76883	0.01776
1284.48306	0.01777
1283.19729	0.01778
1281.91152	0.01776
1280.62575	0.01774
1279.33998	0.01771
1278.05421	0.01767
1276.76845	0.01760
1275.48268	0.01751
1274.19691	0.01743
1272.91114	0.01738
1271.62537	0.01737
1270.33960	0.01737
1269.05383	0.01734
1267.76806	0.01728
1266.48229	0.01723
1265.19653	0.01720
1263.91076	0.01719
1262.62499	0.01719
1261.33922	0.01718
1260.05345	0.01717
1258.76768	0.01715
1257.48191	0.01713
1256.19614	0.01715
1254.91037	0.01722
1253.62461	0.01732
1252.33884	0.01740
1251.05307	0.01743
1249.76730	0.01743
1248.48153	0.01743
1247.19576	0.01748
1245.90999	0.01755
1244.62422	0.01763
1243.33846	0.01768
1242.05269	0.01768
1240.76692	0.01765
1239.48115	0.01759
1238.19538	0.01752
1236.90961	0.01745
1235.62384	0.01738
1234.33807	0.01728
1233.05230	0.01710
1231.76654	0.01687
1230.48077	0.01662
1229.19500	0.01637
1227.90923	0.01618
1226.62346	0.01604
1225.33769	0.01591
1224.05192	0.01576
1222.76615	0.01554
1221.48039	0.01527
1220.19462	0.01498
1218.90885	0.01469
1217.62308	0.01443
1216.33731	0.01421
1215.05154	0.01405
1213.76577	0.01394
1212.48000	0.01389
1211.19423	0.01389
1209.90847	0.01393
1208.62270	0.01398
1207.33693	0.01403
1206.05116	0.01408
1204.76539	0.01414
1203.47962	0.01419
1202.19385	0.01421
1200.90808	0.01411
1199.62232	0.01386
1198.33655	0.01378
1197.05078	0.01370
1195.76501	0.01363
1194.47924	0.01353
1193.19347	0.01341
1191.90770	0.01324
1190.62193	0.01306
1189.33616	0.01289
1188.05040	0.01278
1186.76463	0.01271
1185.47886	0.01264
1184.19309	0.01254
1182.90732	0.01243
1181.62155	0.01234
1180.33578	0.01227
1179.05001	0.01224
1177.76425	0.01224
1176.47848	0.01227
1175.19271	0.01231
1173.90694	0.01235
1172.62117	0.01239
1171.33540	0.01242
1170.04963	0.01245
1168.76386	0.01248
1167.47809	0.01249
1166.19233	0.01251
1164.90656	0.01257
1163.62079	0.01269
1162.33502	0.01283
1161.04925	0.01296
1159.76348	0.01306
1158.47771	0.01314
1157.19194	0.01323
1155.90618	0.01335
1154.62041	0.01348
1153.33464	0.01358
1152.04887	0.01363
1150.76310	0.01369
1149.47733	0.01383
1148.19156	0.01409
1146.90579	0.01442
1145.62002	0.01474
1144.33426	0.01505
1143.04849	0.01535
1141.76272	0.01568
1140.47695	0.01603
1139.19118	0.01644
1137.90541	0.01697
1136.61964	0.01764
1135.33387	0.01841
1134.04811	0.01923
1132.76234	0.02009
1131.47657	0.02098
1130.19080	0.02197
1128.90503	0.02310
1127.61926	0.02439
1126.33349	0.02579
1125.04772	0.02728
1123.76195	0.02881
1122.47619	0.03039
1121.19042	0.03200
1119.90465	0.03364
1118.61888	0.03532
1117.33311	0.03707
1116.04734	0.03884
1114.76157	0.04060
1113.47580	0.04230
1112.19004	0.04395
1110.90427	0.04558
1109.61850	0.04722
1108.33273	0.04886
1107.04696	0.05045
1105.76119	0.05187
1104.47542	0.05311
1103.18965	0.05426
1101.90388	0.05541
1100.61812	0.05660
1099.33235	0.05777
1098.04658	0.05889
1096.76081	0.05992
1095.47504	0.06086
1094.18927	0.06170
1092.90350	0.06246
1091.61773	0.06318
1090.33197	0.06392
1089.04620	0.06470
1087.76043	0.06553
1086.47466	0.06636
1085.18889	0.06720
1083.90312	0.06806
1082.61735	0.06900
1081.33158	0.07005
1080.04581	0.07117
1078.76005	0.07230
1077.47428	0.07340
1076.18851	0.07451
1074.90274	0.07568
1073.61697	0.07696
1072.33120	0.07833
1071.04543	0.07975
1069.75966	0.08121
1068.47390	0.08272
1067.18813	0.08429
1065.90236	0.08589
1064.61659	0.08749
1063.33082	0.08902
1062.04505	0.09052
1060.75928	0.09204
1059.47351	0.09360
1058.18774	0.09520
1056.90198	0.09679
1055.61621	0.09836
1054.33044	0.09991
1053.04467	0.10147
1051.75890	0.10308
1050.47313	0.10474
1049.18736	0.10639
1047.90159	0.10801
1046.61583	0.10959
1045.33006	0.11121
1044.04429	0.11291
1042.75852	0.11469
1041.47275	0.11648
1040.18698	0.11827
1038.90121	0.12006
1037.61544	0.12185
1036.32967	0.12364
1035.04391	0.12538
1033.75814	0.12699
1032.47237	0.12840
1031.18660	0.12957
1029.90083	0.13053
1028.61506	0.13132
1027.32929	0.13202
1026.04352	0.13261
1024.75775	0.13302
1023.47199	0.13320
1022.18622	0.13314
1020.90045	0.13288
1019.61468	0.13248
1018.32891	0.13194
1017.04314	0.13121
1015.75737	0.13023
1014.47160	0.12899
1013.18584	0.12754
1011.90007	0.12594
1010.61430	0.12423
1009.32853	0.12242
1008.04276	0.12049
1006.75699	0.11843
1005.47122	0.11623
1004.18545	0.11391
1002.89968	0.11142
1001.61392	0.10875
1000.32815	0.10594
999.04238	0.10308
997.75661	0.10024
996.47084	0.09745
995.18507	0.09471
993.89930	0.09198
992.61353	0.08925
991.32777	0.08654
990.04200	0.08388
988.75623	0.08133
987.47046	0.07893
986.18469	0.07663
984.89892	0.07440
983.61315	0.07221
982.32738	0.07009
981.04161	0.06807
979.75585	0.06617
978.47008	0.06435
977.18431	0.06261
975.89854	0.06098
974.61277	0.05956
973.32700	0.05836
972.04123	0.05738
970.75546	0.05660
969.46970	0.05607
968.18393	0.05582
966.89816	0.05583
965.61239	0.05599
964.32662	0.05613
963.04085	0.05615
961.75508	0.05603
960.46931	0.05581
959.18354	0.05545
957.89778	0.05491
956.61201	0.05420
955.32624	0.05338
954.04047	0.05250
952.75470	0.05152
951.46893	0.05045
950.18316	0.04932
948.89739	0.04821
947.61163	0.04715
946.32586	0.04615
945.04009	0.04520
943.75432	0.04433
942.46855	0.04351
941.18278	0.04274
939.89701	0.04201
938.61124	0.04129
937.32547	0.04059
936.03971	0.03989
934.75394	0.03924
933.46817	0.03868
932.18240	0.03821
930.89663	0.03777
929.61086	0.03726
928.32509	0.03666
927.03932	0.03602
925.75356	0.03545
924.46779	0.03502
923.18202	0.03472
921.89625	0.03446
920.61048	0.03415
919.32471	0.03375
918.03894	0.03332
916.75317	0.03287
915.46740	0.03241
914.18164	0.03199
912.89587	0.03165
911.61010	0.03142
910.32433	0.03121
909.03856	0.03097
907.75279	0.03072
906.46702	0.03051
905.18125	0.03033
903.89549	0.03009
902.60972	0.02977
901.32395	0.02947
900.03818	0.02927
898.75241	0.02918
897.46664	0.02908
896.18087	0.02889
894.89510	0.02860
893.60933	0.02832
892.32357	0.02816
891.03780	0.02815
889.75203	0.02821
888.46626	0.02831
887.18049	0.02847
885.89472	0.02875
884.60895	0.02920
883.32318	0.02985
882.03742	0.03070
880.75165	0.03166
879.46588	0.03258
878.18011	0.03340
876.89434	0.03411
875.60857	0.03479
874.32280	0.03543
873.03703	0.03597
871.75126	0.03626
870.46550	0.03621
869.17973	0.03583
867.89396	0.03521
866.60819	0.03446
865.32242	0.03366
864.03665	0.03284
862.75088	0.03206
861.46511	0.03134
860.17935	0.03067
858.89358	0.03004
857.60781	0.02948
856.32204	0.02901
855.03627	0.02860
853.75050	0.02819
852.46473	0.02778
851.17896	0.02741
849.89319	0.02712
848.60743	0.02688
847.32166	0.02662
846.03589	0.02636
844.75012	0.02615
843.46435	0.02601
842.17858	0.02592
840.89281	0.02581
839.60704	0.02564
838.32128	0.02542
837.03551	0.02519
835.74974	0.02501
834.46397	0.02490
833.17820	0.02484
831.89243	0.02480
830.60666	0.02473
829.32089	0.02464
828.03512	0.02453
826.74936	0.02443
825.46359	0.02434
824.17782	0.02425
822.89205	0.02416
821.60628	0.02408
820.32051	0.02399
819.03474	0.02390
817.74897	0.02381
816.46321	0.02376
815.17744	0.02375
813.89167	0.02376
812.60590	0.02374
811.32013	0.02369
810.03436	0.02359
808.74859	0.02349
807.46282	0.02345
806.17705	0.02351
804.89129	0.02362
803.60552	0.02370
802.31975	0.02372
801.03398	0.02370
799.74821	0.02371
798.46244	0.02379
797.17667	0.02390
795.89090	0.02401
794.60513	0.02411
793.31937	0.02418
792.03360	0.02424
790.74783	0.02426
789.46206	0.02428
788.17629	0.02433
786.89052	0.02445
785.60475	0.02460
784.31898	0.02473
783.03322	0.02479
781.74745	0.02473
780.46168	0.02459
779.17591	0.02443
777.89014	0.02432
776.60437	0.02427
775.31860	0.02430
774.03283	0.02441
772.74706	0.02457
771.46130	0.02472
770.17553	0.02477
768.88976	0.02471
767.60399	0.02462
766.31822	0.02456
765.03245	0.02460
763.74668	0.02468
762.46091	0.02473
761.17515	0.02467
759.88938	0.02452
758.60361	0.02443
757.31784	0.02454
756.03207	0.02481
754.74630	0.02504
753.46053	0.02511
752.17476	0.02505
750.88899	0.02495
749.60323	0.02486
748.31746	0.02476
747.03169	0.02471
745.74592	0.02475
744.46015	0.02485
743.17438	0.02495
741.88861	0.02499
740.60284	0.02496
739.31708	0.02486
738.03131	0.02473
736.74554	0.02470
735.45977	0.02485
734.17400	0.02508
732.88823	0.02523
731.60246	0.02528
730.31669	0.02528
729.03092	0.02531
727.74516	0.02536
726.45939	0.02534
725.17362	0.02521
723.88785	0.02496
722.60208	0.02480
721.31631	0.02479
720.03054	0.02495
718.74477	0.02522
717.45901	0.02547
716.17324	0.02559
714.88747	0.02556
713.60170	0.02548
712.31593	0.02543
711.03016	0.02543
709.74439	0.02549
708.45862	0.02555
707.17285	0.02557
705.88709	0.02554
704.60132	0.02544
703.31555	0.02533
702.02978	0.02528
700.74401	0.02530
699.45824	0.02537
698.17247	0.02545
696.88670	0.02552
695.60094	0.02558
694.31517	0.02562
693.02940	0.02562
691.74363	0.02559
690.45786	0.02555
689.17209	0.02553
687.88632	0.02555
686.60055	0.02558
685.31478	0.02563
684.02902	0.02567
682.74325	0.02568
681.45748	0.02563
680.17171	0.02549
678.88594	0.02531
677.60017	0.02517
676.31440	0.02513
675.02863	0.02519
673.74287	0.02529
672.45710	0.02536
671.17133	0.02539
669.88556	0.02542
668.59979	0.02547
667.31402	0.02547
666.02825	0.02540
664.74248	0.02530
663.45671	0.02519
662.17095	0.02510
660.88518	0.02503
659.59941	0.02498
658.31364	0.02492
657.02787	0.02485
655.74210	0.02478
654.45633	0.02472
653.17056	0.02466
651.88480	0.02457
650.59903	0.02444
649.31326	0.02429
648.02749	0.02416
646.74172	0.02406
645.45595	0.02399
644.17018	0.02392
642.88441	0.02384
641.59864	0.02373
640.31288	0.02363
639.02711	0.02357
637.74134	0.02357
636.45557	0.02364
635.16980	0.02374
633.88403	0.02384
632.59826	0.02387
631.31249	0.02400
630.02673	0.02494
628.74096	0.02638
627.45519	0.02555
626.16942	0.02732
624.88365	0.03075
623.59788	0.03368
622.31211	0.03541
621.02634	0.03640
619.74057	0.03751
618.45481	0.03882
617.16904	0.03958
615.88327	0.03940
614.59750	0.03915
613.31173	0.04036
612.02596	0.04366
610.74019	0.04799
609.45442	0.05167
608.16866	0.05416
606.88289	0.05621
605.59712	0.05835
604.31135	0.06021
603.02558	0.06115
601.73981	0.06110
600.45404	0.06043
599.16827	0.05946
597.88250	0.05824
596.59674	0.05673
595.31097	0.05499
594.02520	0.05325
592.73943	0.05177
591.45366	0.05072
590.16789	0.05013
588.88212	0.04997
587.59635	0.05019
586.31059	0.05076
585.02482	0.05158
583.73905	0.05251
582.45328	0.05353
581.16751	0.05467
579.88174	0.05596
578.59597	0.05732
577.31020	0.05866
576.02443	0.05994
574.73867	0.06116
573.45290	0.06238
572.16713	0.06369
570.88136	0.06517
569.59559	0.06685
568.30982	0.06870
567.02405	0.07060
565.73828	0.07239
564.45251	0.07394
563.16675	0.07507
561.88098	0.07561
560.59521	0.07538
559.30944	0.07432
558.02367	0.07254
556.73790	0.07026
555.45213	0.06768
554.16636	0.06496
552.88060	0.06225
551.59483	0.05966
550.30906	0.05729
549.02329	0.05518
547.73752	0.05333
546.45175	0.05172
545.16598	0.05031
543.88021	0.04900
542.59444	0.04772
541.30868	0.04646
540.02291	0.04526
538.73714	0.04415
537.45137	0.04315
536.16560	0.04222
534.87983	0.04135
533.59406	0.04055
532.30829	0.03981
531.02253	0.03914
529.73676	0.03858
528.45099	0.03813
527.16522	0.03775
525.87945	0.03736
524.59368	0.03689
523.30791	0.03633
522.02214	0.03573
520.73637	0.03514
519.45061	0.03459
518.16484	0.03407
516.87907	0.03352
515.59330	0.03290
514.30753	0.03227
513.02176	0.03174
511.73599	0.03141
510.45022	0.03120
509.16446	0.03093
507.87869	0.03047
506.59292	0.02989
505.30715	0.02939
504.02138	0.02912
502.73561	0.02904
501.44984	0.02896
500.16407	0.02874
498.87830	0.02833
497.59254	0.02783
496.30677	0.02739
495.02100	0.02712
493.73523	0.02705
492.44946	0.02712
491.16369	0.02715
489.87792	0.02702
488.59215	0.02671
487.30639	0.02633
486.02062	0.02607
484.73485	0.02600
483.44908	0.02605
482.16331	0.02608
480.87754	0.02604
479.59177	0.02594
478.30600	0.02586
477.02023	0.02585
475.73447	0.02594
474.44870	0.02607
473.16293	0.02620
471.87716	0.02630
470.59139	0.02638
469.30562	0.02647
468.01985	0.02654
466.73408	0.02653
465.44832	0.02642
464.16255	0.02618
462.87678	0.02588
461.59101	0.02558
460.30524	0.02531
459.01947	0.02507
457.73370	0.02483
456.44793	0.02456
455.16216	0.02427
453.87640	0.02397
452.59063	0.02368
451.30486	0.02342
450.01909	0.02316
448.73332	0.02289
447.44755	0.02263
446.16178	0.02239
444.87601	0.02218
443.59025	0.02199
442.30448	0.02179
441.01871	0.02164
439.73294	0.02157
438.44717	0.02157
437.16140	0.02159
435.87563	0.02158
434.58986	0.02153
433.30409	0.02146
432.01833	0.02141
430.73256	0.02136
429.44679	0.02130
428.16102	0.02120
426.87525	0.02109
425.58948	0.02098
424.30371	0.02091
423.01794	0.02086
421.73218	0.02081
420.44641	0.02075
419.16064	0.02064
417.87487	0.02048
416.58910	0.02029
415.30333	0.02007
414.01756	0.01986
412.73179	0.01966
411.44602	0.01951
410.16026	0.01939
408.87449	0.01933
407.58872	0.01931
406.30295	0.01930
405.01718	0.01926
403.73141	0.01917
402.44564	0.01909
401.15987	0.01907
399.87411	0.01912
