3997.45528	0.05470
3996.16951	0.05466
3994.88374	0.05487
3993.59798	0.05515
3992.31221	0.05515
3991.02644	0.05488
3989.74067	0.05462
3988.45490	0.05459
3987.16913	0.05472
3985.88336	0.05489
3984.59759	0.05503
3983.31183	0.05511
3982.02606	0.05506
3980.74029	0.05491
3979.45452	0.05475
3978.16875	0.05461
3976.88298	0.05438
3975.59721	0.05396
3974.31144	0.05339
3973.02567	0.05287
3971.73991	0.05261
3970.45414	0.05268
3969.16837	0.05302
3967.88260	0.05358
3966.59683	0.05425
3965.31106	0.05486
3964.02529	0.05519
3962.73952	0.05502
3961.45376	0.05435
3960.16799	0.05348
3958.88222	0.05283
3957.59645	0.05257
3956.31068	0.05252
3955.02491	0.05240
3953.73914	0.05221
3952.45337	0.05215
3951.16760	0.05230
3949.88184	0.05251
3948.59607	0.05262
3947.31030	0.05262
3946.02453	0.05255
3944.73876	0.05241
3943.45299	0.05233
3942.16722	0.05264
3940.88145	0.05360
3939.59569	0.05491
3938.30992	0.05579
3937.02415	0.05578
3935.73838	0.05519
3934.45261	0.05472
3933.16684	0.05466
3931.88107	0.05468
3930.59530	0.05438
3929.30953	0.05373
3928.02377	0.05307
3926.73800	0.05275
3925.45223	0.05278
3924.16646	0.05293
3922.88069	0.05302
3921.59492	0.05303
3920.30915	0.05307
3919.02338	0.05327
3917.73762	0.05355
3916.45185	0.05362
3915.16608	0.05327
3913.88031	0.05271
3912.59454	0.05241
3911.30877	0.05280
3910.02300	0.05375
3908.73723	0.05460
3907.45146	0.05465
3906.16570	0.05381
3904.87993	0.05268
3903.59416	0.05203
3902.30839	0.05213
3901.02262	0.05261
3899.73685	0.05283
3898.45108	0.05256
3897.16531	0.05217
3895.87955	0.05216
3894.59378	0.05266
3893.30801	0.05338
3892.02224	0.05382
3890.73647	0.05372
3889.45070	0.05337
3888.16493	0.05329
3886.87916	0.05344
3885.59339	0.05326
3884.30763	0.05257
3883.02186	0.05197
3881.73609	0.05191
3880.45032	0.05206
3879.16455	0.05180
3877.87878	0.05109
3876.59301	0.05041
3875.30724	0.05010
3874.02148	0.05029
3872.73571	0.05106
3871.44994	0.05230
3870.16417	0.05331
3868.87840	0.05335
3867.59263	0.05250
3866.30686	0.05144
3865.02109	0.05065
3863.73532	0.05031
3862.44956	0.05041
3861.16379	0.05068
3859.87802	0.05077
3858.59225	0.05065
3857.30648	0.05067
3856.02071	0.05108
3854.73494	0.05144
3853.44917	0.05105
3852.16341	0.04995
3850.87764	0.04902
3849.59187	0.04881
3848.30610	0.04898
3847.02033	0.04904
3845.73456	0.04887
3844.44879	0.04866
3843.16302	0.04847
3841.87725	0.04829
3840.59149	0.04823
3839.30572	0.04840
3838.01995	0.04875
3836.73418	0.04916
3835.44841	0.04968
3834.16264	0.05024
3832.87687	0.05057
3831.59110	0.05041
3830.30534	0.04986
3829.01957	0.04925
3827.73380	0.04881
3826.44803	0.04856
3825.16226	0.04847
3823.87649	0.04863
3822.59072	0.04891
3821.30495	0.04890
3820.01918	0.04853
3818.73342	0.04838
3817.44765	0.04889
3816.16188	0.04954
3814.87611	0.04961
3813.59034	0.04922
3812.30457	0.04891
3811.01880	0.04894
3809.73303	0.04931
3808.44726	0.04976
3807.16150	0.04979
3805.87573	0.04921
3804.58996	0.04864
3803.30419	0.04867
3802.01842	0.04897
3800.73265	0.04876
3799.44688	0.04808
3798.16111	0.04766
3796.87535	0.04788
3795.58958	0.04850
3794.30381	0.04911
3793.01804	0.04939
3791.73227	0.04924
3790.44650	0.04892
3789.16073	0.04874
3787.87496	0.04873
3786.58919	0.04867
3785.30343	0.04848
3784.01766	0.04830
3782.73189	0.04832
3781.44612	0.04848
3780.16035	0.04840
3778.87458	0.04775
3777.58881	0.04671
3776.30304	0.04586
3775.01728	0.04566
3773.73151	0.04618
3772.44574	0.04719
3771.15997	0.04826
3769.87420	0.04893
3768.58843	0.04907
3767.30266	0.04895
3766.01689	0.04882
3764.73112	0.04872
3763.44536	0.04865
3762.15959	0.04862
3760.87382	0.04854
3759.58805	0.04830
3758.30228	0.04790
3757.01651	0.04735
3755.73074	0.04667
3754.44497	0.04595
3753.15921	0.04524
3751.87344	0.04458
3750.58767	0.04408
3749.30190	0.04381
3748.01613	0.04397
3746.73036	0.04491
3745.44459	0.04642
3744.15882	0.04755
3742.87305	0.04786
3741.58729	0.04789
3740.30152	0.04803
3739.01575	0.04812
3737.72998	0.04786
3736.44421	0.04718
3735.15844	0.04635
3733.87267	0.04586
3732.58690	0.04589
3731.30114	0.04602
3730.01537	0.04587
3728.72960	0.04559
3727.44383	0.04556
3726.15806	0.04596
3724.87229	0.04672
3723.58652	0.04747
3722.30075	0.04776
3721.01498	0.04746
3719.72922	0.04681
3718.44345	0.04608
3717.15768	0.04541
3715.87191	0.04499
3714.58614	0.04509
3713.30037	0.04565
3712.01460	0.04632
3710.72883	0.04680
3709.44307	0.04715
3708.15730	0.04747
3706.87153	0.04770
3705.58576	0.04778
3704.29999	0.04773
3703.01422	0.04759
3701.72845	0.04735
3700.44268	0.04703
3699.15691	0.04667
3697.87115	0.04626
3696.58538	0.04573
3695.29961	0.04517
3694.01384	0.04484
3692.72807	0.04481
3691.44230	0.04494
3690.15653	0.04514
3688.87076	0.04526
3687.58500	0.04518
3686.29923	0.04498
3685.01346	0.04494
3683.72769	0.04523
3682.44192	0.04576
3681.15615	0.04622
3679.87038	0.04630
3678.58461	0.04607
3677.29884	0.04581
3676.01308	0.04544
3674.72731	0.04470
3673.44154	0.04392
3672.15577	0.04383
3670.87000	0.04438
3669.58423	0.04485
3668.29846	0.04488
3667.01269	0.04472
3665.72693	0.04475
3664.44116	0.04514
3663.15539	0.04590
3661.86962	0.04689
3660.58385	0.04797
3659.29808	0.04901
3658.01231	0.04978
3656.72654	0.04987
3655.44077	0.04904
3654.15501	0.04769
3652.86924	0.04662
3651.58347	0.04635
3650.29770	0.04678
3649.01193	0.04753
3647.72616	0.04827
3646.44039	0.04881
3645.15462	0.04916
3643.86886	0.04940
3642.58309	0.04963
3641.29732	0.04987
3640.01155	0.05007
3638.72578	0.05017
3637.44001	0.05009
3636.15424	0.04987
3634.86847	0.04952
3633.58270	0.04913
3632.29694	0.04892
3631.01117	0.04903
3629.72540	0.04922
3628.43963	0.04909
3627.15386	0.04870
3625.86809	0.04857
3624.58232	0.04894
3623.29655	0.04972
3622.01079	0.05079
3620.72502	0.05193
3619.43925	0.05265
3618.15348	0.05262
3616.86771	0.05209
3615.58194	0.05169
3614.29617	0.05171
3613.01040	0.05189
3611.72463	0.05179
3610.43887	0.05137
3609.15310	0.05108
3607.86733	0.05137
3606.58156	0.05229
3605.29579	0.05334
3604.01002	0.05394
3602.72425	0.05406
3601.43848	0.05416
3600.15272	0.05459
3598.86695	0.05530
3597.58118	0.05605
3596.29541	0.05666
3595.00964	0.05693
3593.72387	0.05669
3592.43810	0.05611
3591.15233	0.05563
3589.86656	0.05552
3588.58080	0.05557
3587.29503	0.05550
3586.00926	0.05552
3584.72349	0.05614
3583.43772	0.05746
3582.15195	0.05890
3580.86618	0.05968
3579.58041	0.05949
3578.29464	0.05878
3577.00888	0.05826
3575.72311	0.05828
3574.43734	0.05859
3573.15157	0.05878
3571.86580	0.05884
3570.58003	0.05910
3569.29426	0.05972
3568.00849	0.06036
3566.72273	0.06062
3565.43696	0.06054
3564.15119	0.06057
3562.86542	0.06099
3561.57965	0.06161
3560.29388	0.06196
3559.00811	0.06182
3557.72234	0.06132
3556.43657	0.06079
3555.15081	0.06043
3553.86504	0.06034
3552.57927	0.06062
3551.29350	0.06133
3550.00773	0.06237
3548.72196	0.06352
3547.43619	0.06458
3546.15042	0.06536
3544.86466	0.06576
3543.57889	0.06575
3542.29312	0.06547
3541.00735	0.06524
3539.72158	0.06527
3538.43581	0.06550
3537.15004	0.06566
3535.86427	0.06561
3534.57850	0.06553
3533.29274	0.06574
3532.00697	0.06621
3530.72120	0.06666
3529.43543	0.06685
3528.14966	0.06685
3526.86389	0.06692
3525.57812	0.06724
3524.29235	0.06779
3523.00659	0.06832
3521.72082	0.06859
3520.43505	0.06861
3519.14928	0.06863
3517.86351	0.06893
3516.57774	0.06951
3515.29197	0.07002
3514.00620	0.07008
3512.72043	0.06964
3511.43467	0.06898
3510.14890	0.06850
3508.86313	0.06850
3507.57736	0.06902
3506.29159	0.06987
3505.00582	0.07062
3503.72005	0.07088
3502.43428	0.07064
3501.14852	0.07024
3499.86275	0.07002
3498.57698	0.07007
3497.29121	0.07032
3496.00544	0.07077
3494.71967	0.07142
3493.43390	0.07204
3492.14813	0.07227
3490.86236	0.07195
3489.57660	0.07129
3488.29083	0.07074
3487.00506	0.07066
3485.71929	0.07113
3484.43352	0.07187
3483.14775	0.07253
3481.86198	0.07288
3480.57621	0.07294
3479.29045	0.07284
3478.00468	0.07271
3476.71891	0.07260
3475.43314	0.07252
3474.14737	0.07255
3472.86160	0.07285
3471.57583	0.07344
3470.29006	0.07406
3469.00429	0.07439
3467.71853	0.07433
3466.43276	0.07409
3465.14699	0.07403
3463.86122	0.07437
3462.57545	0.07497
3461.28968	0.07550
3460.00391	0.07572
3458.71814	0.07576
3457.43238	0.07588
3456.14661	0.07613
3454.86084	0.07629
3453.57507	0.07615
3452.28930	0.07577
3451.00353	0.07540
3449.71776	0.07536
3448.43199	0.07573
3447.14622	0.07634
3445.86046	0.07692
3444.57469	0.07735
3443.28892	0.07762
3442.00315	0.07767
3440.71738	0.07747
3439.43161	0.07711
3438.14584	0.07690
3436.86007	0.07707
3435.57431	0.07756
3434.28854	0.07812
3433.00277	0.07849
3431.71700	0.07850
3430.43123	0.07821
3429.14546	0.07787
3427.85969	0.07786
3426.57392	0.07832
3425.28815	0.07906
3424.00239	0.07972
3422.71662	0.08013
3421.43085	0.08031
3420.14508	0.08030
3418.85931	0.08010
3417.57354	0.07981
3416.28777	0.07960
3415.00200	0.07953
3413.71624	0.07951
3412.43047	0.07952
3411.14470	0.07974
3409.85893	0.08037
3408.57316	0.08126
3407.28739	0.08195
3406.00162	0.08211
3404.71585	0.08187
3403.43008	0.08164
3402.14432	0.08166
3400.85855	0.08186
3399.57278	0.08204
3398.28701	0.08203
3397.00124	0.08178
3395.71547	0.08142
3394.42970	0.08121
3393.14393	0.08128
3391.85817	0.08151
3390.57240	0.08171
3389.28663	0.08183
3388.00086	0.08193
3386.71509	0.08204
3385.42932	0.08210
3384.14355	0.08206
3382.85778	0.08198
3381.57201	0.08200
3380.28625	0.08213
3379.00048	0.08223
3377.71471	0.08210
3376.42894	0.08174
3375.14317	0.08128
3373.85740	0.08093
3372.57163	0.08083
3371.28586	0.08105
3370.00010	0.08160
3368.71433	0.08240
3367.42856	0.08317
3366.14279	0.08364
3364.85702	0.08366
3363.57125	0.08337
3362.28548	0.08303
3360.99971	0.08285
3359.71394	0.08284
3358.42818	0.08286
3357.14241	0.08282
3355.85664	0.08280
3354.57087	0.08295
3353.28510	0.08320
3351.99933	0.08330
3350.71356	0.08313
3349.42779	0.08282
3348.14202	0.08258
3346.85626	0.08248
3345.57049	0.08248
3344.28472	0.08255
3342.99895	0.08268
3341.71318	0.08278
3340.42741	0.08265
3339.14164	0.08226
3337.85587	0.08189
3336.57011	0.08196
3335.28434	0.08257
3333.99857	0.08334
3332.71280	0.08378
3331.42703	0.08371
3330.14126	0.08342
3328.85549	0.08325
3327.56972	0.08324
3326.28395	0.08316
3324.99819	0.08283
3323.71242	0.08240
3322.42665	0.08220
3321.14088	0.08242
3319.85511	0.08282
3318.56934	0.08308
3317.28357	0.08320
3315.99780	0.08342
3314.71204	0.08381
3313.42627	0.08412
3312.14050	0.08413
3310.85473	0.08390
3309.56896	0.08369
3308.28319	0.08358
3306.99742	0.08347
3305.71165	0.08329
3304.42588	0.08310
3303.14012	0.08298
3301.85435	0.08281
3300.56858	0.08242
3299.28281	0.08186
3297.99704	0.08138
3296.71127	0.08113
3295.42550	0.08104
3294.13973	0.08096
3292.85397	0.08087
3291.56820	0.08088
3290.28243	0.08109
3288.99666	0.08145
3287.71089	0.08172
3286.42512	0.08168
3285.13935	0.08136
3283.85358	0.08101
3282.56781	0.08096
3281.28205	0.08127
3279.99628	0.08172
3278.71051	0.08197
3277.42474	0.08186
3276.13897	0.08155
3274.85320	0.08134
3273.56743	0.08142
3272.28166	0.08170
3270.99590	0.08199
3269.71013	0.08211
3268.42436	0.08204
3267.13859	0.08179
3265.85282	0.08146
3264.56705	0.08124
3263.28128	0.08128
3261.99551	0.08154
3260.70974	0.08182
3259.42398	0.08201
3258.13821	0.08220
3256.85244	0.08250
3255.56667	0.08277
3254.28090	0.08273
3252.99513	0.08222
3251.70936	0.08138
3250.42359	0.08063
3249.13783	0.08035
3247.85206	0.08063
3246.56629	0.08124
3245.28052	0.08180
3243.99475	0.08206
3242.70898	0.08200
3241.42321	0.08175
3240.13744	0.08134
3238.85167	0.08073
3237.56591	0.08002
3236.28014	0.07952
3234.99437	0.07953
3233.70860	0.07994
3232.42283	0.08042
3231.13706	0.08071
3229.85129	0.08085
3228.56552	0.08095
3227.27976	0.08097
3225.99399	0.08086
3224.70822	0.08069
3223.42245	0.08059
3222.13668	0.08055
3220.85091	0.08043
3219.56514	0.08012
3218.27937	0.07968
3216.99360	0.07934
3215.70784	0.07923
3214.42207	0.07927
3213.13630	0.07923
3211.85053	0.07895
3210.56476	0.07850
3209.27899	0.07802
3207.99322	0.07765
3206.70745	0.07745
3205.42169	0.07741
3204.13592	0.07748
3202.85015	0.07755
3201.56438	0.07755
3200.27861	0.07757
3198.99284	0.07773
3197.70707	0.07812
3196.42130	0.07861
3195.13553	0.07898
3193.84977	0.07902
3192.56400	0.07871
3191.27823	0.07820
3189.99246	0.07765
3188.70669	0.07714
3187.42092	0.07670
3186.13515	0.07640
3184.84938	0.07634
3183.56362	0.07651
3182.27785	0.07687
3180.99208	0.07726
3179.70631	0.07750
3178.42054	0.07743
3177.13477	0.07708
3175.84900	0.07657
3174.56323	0.07608
3173.27746	0.07572
3171.99170	0.07554
3170.70593	0.07553
3169.42016	0.07560
3168.13439	0.07564
3166.84862	0.07557
3165.56285	0.07544
3164.27708	0.07533
3162.99131	0.07526
3161.70555	0.07520
3160.41978	0.07511
3159.13401	0.07501
3157.84824	0.07488
3156.56247	0.07466
3155.27670	0.07441
3153.99093	0.07420
3152.70516	0.07409
3151.41939	0.07402
3150.13363	0.07392
3148.84786	0.07375
3147.56209	0.07355
3146.27632	0.07339
3144.99055	0.07341
3143.70478	0.07361
3142.41901	0.07389
3141.13324	0.07404
3139.84748	0.07393
3138.56171	0.07361
3137.27594	0.07327
3135.99017	0.07306
3134.70440	0.07300
3133.41863	0.07297
3132.13286	0.07288
3130.84709	0.07277
3129.56132	0.07275
3128.27556	0.07280
3126.98979	0.07280
3125.70402	0.07269
3124.41825	0.07249
3123.13248	0.07232
3121.84671	0.07225
3120.56094	0.07227
3119.27517	0.07233
3117.98940	0.07229
3116.70364	0.07203
3115.41787	0.07161
3114.13210	0.07125
3112.84633	0.07112
3111.56056	0.07121
3110.27479	0.07131
3108.98902	0.07130
3107.70325	0.07126
3106.41749	0.07129
3105.13172	0.07137
3103.84595	0.07133
3102.56018	0.07111
3101.27441	0.07077
3099.98864	0.07044
3098.70287	0.07015
3097.41710	0.06990
3096.13133	0.06975
3094.84557	0.06978
3093.55980	0.06995
3092.27403	0.07004
3090.98826	0.06987
3089.70249	0.06949
3088.41672	0.06915
3087.13095	0.06904
3085.84518	0.06917
3084.55942	0.06936
3083.27365	0.06944
3081.98788	0.06937
3080.70211	0.06932
3079.41634	0.06944
3078.13057	0.06963
3076.84480	0.06969
3075.55903	0.06951
3074.27326	0.06924
3072.98750	0.06907
3071.70173	0.06901
3070.41596	0.06892
3069.13019	0.06868
3067.84442	0.06841
3066.55865	0.06828
3065.27288	0.06832
3063.98711	0.06831
3062.70135	0.06803
3061.41558	0.06752
3060.12981	0.06711
3058.84404	0.06708
3057.55827	0.06739
3056.27250	0.06774
3054.98673	0.06790
3053.70096	0.06791
3052.41519	0.06784
3051.12943	0.06763
3049.84366	0.06716
3048.55789	0.06646
3047.27212	0.06581
3045.98635	0.06546
3044.70058	0.06548
3043.41481	0.06572
3042.12904	0.06600
3040.84328	0.06611
3039.55751	0.06594
3038.27174	0.06554
3036.98597	0.06516
3035.70020	0.06497
3034.41443	0.06484
3033.12866	0.06457
3031.84289	0.06419
3030.55712	0.06398
3029.27136	0.06410
3027.98559	0.06436
3026.69982	0.06447
3025.41405	0.06432
3024.12828	0.06408
3022.84251	0.06391
3021.55674	0.06387
3020.27097	0.06389
3018.98521	0.06390
3017.69944	0.06382
3016.41367	0.06361
3015.12790	0.06330
3013.84213	0.06300
3012.55636	0.06284
3011.27059	0.06289
3009.98482	0.06308
3008.69905	0.06330
3007.41329	0.06344
3006.12752	0.06343
3004.84175	0.06330
3003.55598	0.06307
3002.27021	0.06278
3000.98444	0.06251
2999.69867	0.06240
2998.41290	0.06258
2997.12714	0.06293
2995.84137	0.06332
2994.55560	0.06362
2993.26983	0.06375
2991.98406	0.06368
2990.69829	0.06351
2989.41252	0.06346
2988.12675	0.06358
2986.84098	0.06376
2985.55522	0.06381
2984.26945	0.06374
2982.98368	0.06362
2981.69791	0.06354
2980.41214	0.06360
2979.12637	0.06390
2977.84060	0.06448
2976.55483	0.06529
2975.26907	0.06621
2973.98330	0.06715
2972.69753	0.06800
2971.41176	0.06882
2970.12599	0.06978
2968.84022	0.07103
2967.55445	0.07255
2966.26868	0.07409
2964.98291	0.07540
2963.69715	0.07635
2962.41138	0.07704
2961.12561	0.07765
2959.83984	0.07839
2958.55407	0.07934
2957.26830	0.08043
2955.98253	0.08152
2954.69676	0.08241
2953.41100	0.08297
2952.12523	0.08314
2950.83946	0.08303
2949.55369	0.08282
2948.26792	0.08272
2946.98215	0.08278
2945.69638	0.08293
2944.41061	0.08306
2943.12484	0.08309
2941.83908	0.08301
2940.55331	0.08290
2939.26754	0.08296
2937.98177	0.08336
2936.69600	0.08415
2935.41023	0.08526
2934.12446	0.08654
2932.83869	0.08779
2931.55293	0.08884
2930.26716	0.08960
2928.98139	0.09016
2927.69562	0.09065
2926.40985	0.09111
2925.12408	0.09142
2923.83831	0.09147
2922.55254	0.09129
2921.26677	0.09099
2919.98101	0.09062
2918.69524	0.09021
2917.40947	0.08973
2916.12370	0.08914
2914.83793	0.08838
2913.55216	0.08746
2912.26639	0.08655
2910.98062	0.08580
2909.69486	0.08525
2908.40909	0.08472
2907.12332	0.08403
2905.83755	0.08312
2904.55178	0.08213
2903.26601	0.08132
2901.98024	0.08081
2900.69447	0.08055
2899.40870	0.08035
2898.12294	0.07998
2896.83717	0.07931
2895.55140	0.07837
2894.26563	0.07730
2892.97986	0.07629
2891.69409	0.07541
2890.40832	0.07466
2889.12255	0.07409
2887.83678	0.07370
2886.55102	0.07338
2885.26525	0.07301
2883.97948	0.07256
2882.69371	0.07218
2881.40794	0.07200
2880.12217	0.07203
2878.83640	0.07222
2877.55063	0.07249
2876.26487	0.07275
2874.97910	0.07300
2873.69333	0.07326
2872.40756	0.07360
2871.12179	0.07404
2869.83602	0.07459
2868.55025	0.07516
2867.26448	0.07559
2865.97871	0.07568
2864.69295	0.07544
2863.40718	0.07511
2862.12141	0.07490
2860.83564	0.07484
2859.54987	0.07481
2858.26410	0.07477
2856.97833	0.07476
2855.69256	0.07474
2854.40680	0.07457
2853.12103	0.07413
2851.83526	0.07346
2850.54949	0.07271
2849.26372	0.07199
2847.97795	0.07128
2846.69218	0.07051
2845.40641	0.06977
2844.12064	0.06914
2842.83488	0.06854
2841.54911	0.06776
2840.26334	0.06674
2838.97757	0.06568
2837.69180	0.06482
2836.40603	0.06418
2835.12026	0.06357
2833.83449	0.06286
2832.54873	0.06206
2831.26296	0.06128
2829.97719	0.06054
2828.69142	0.05982
2827.40565	0.05912
2826.11988	0.05849
2824.83411	0.05801
2823.54834	0.05772
2822.26257	0.05751
2820.97681	0.05726
2819.69104	0.05694
2818.40527	0.05666
2817.11950	0.05651
2815.83373	0.05645
2814.54796	0.05636
2813.26219	0.05620
2811.97642	0.05598
2810.69066	0.05569
2809.40489	0.05532
2808.11912	0.05494
2806.83335	0.05467
2805.54758	0.05450
2804.26181	0.05439
2802.97604	0.05434
2801.69027	0.05441
2800.40450	0.05456
2799.11874	0.05460
2797.83297	0.05438
2796.54720	0.05391
2795.26143	0.05340
2793.97566	0.05301
2792.68989	0.05275
2791.40412	0.05256
2790.11835	0.05237
2788.83259	0.05218
2787.54682	0.05205
2786.26105	0.05204
2784.97528	0.05213
2783.68951	0.05231
2782.40374	0.05251
2781.11797	0.05259
2779.83220	0.05249
2778.54643	0.05220
2777.26067	0.05189
2775.97490	0.05172
2774.68913	0.05172
2773.40336	0.05171
2772.11759	0.05150
2770.83182	0.05118
2769.54605	0.05099
2768.26028	0.05107
2766.97452	0.05126
2765.68875	0.05136
2764.40298	0.05132
2763.11721	0.05121
2761.83144	0.05103
2760.54567	0.05077
2759.25990	0.05049
2757.97413	0.05030
2756.68836	0.05022
2755.40260	0.05016
2754.11683	0.05004
2752.83106	0.04989
2751.54529	0.04979
2750.25952	0.04976
2748.97375	0.04975
2747.68798	0.04969
2746.40221	0.04953
2745.11645	0.04929
2743.83068	0.04899
2742.54491	0.04874
2741.25914	0.04865
2739.97337	0.04879
2738.68760	0.04906
2737.40183	0.04932
2736.11606	0.04942
2734.83029	0.04932
2733.54453	0.04913
2732.25876	0.04899
2730.97299	0.04898
2729.68722	0.04904
2728.40145	0.04898
2727.11568	0.04867
2725.82991	0.04818
2724.54414	0.04773
2723.25838	0.04762
2721.97261	0.04790
2720.68684	0.04837
2719.40107	0.04871
2718.11530	0.04873
2716.82953	0.04849
2715.54376	0.04812
2714.25799	0.04770
2712.97222	0.04729
2711.68646	0.04699
2710.40069	0.04690
2709.11492	0.04697
2707.82915	0.04700
2706.54338	0.04688
2705.25761	0.04666
2703.97184	0.04646
2702.68607	0.04634
2701.40031	0.04630
2700.11454	0.04633
2698.82877	0.04643
2697.54300	0.04659
2696.25723	0.04682
2694.97146	0.04710
2693.68569	0.04734
2692.39992	0.04744
2691.11415	0.04738
2689.82839	0.04725
2688.54262	0.04710
2687.25685	0.04697
2685.97108	0.04686
2684.68531	0.04674
2683.39954	0.04656
2682.11377	0.04627
2680.82800	0.04591
2679.54224	0.04558
2678.25647	0.04535
2676.97070	0.04526
2675.68493	0.04525
2674.39916	0.04529
2673.11339	0.04534
2671.82762	0.04536
2670.54185	0.04532
2669.25608	0.04524
2667.97032	0.04513
2666.68455	0.04504
2665.39878	0.04501
2664.11301	0.04505
2662.82724	0.04516
2661.54147	0.04525
2660.25570	0.04526
2658.96993	0.04516
2657.68417	0.04504
2656.39840	0.04493
2655.11263	0.04479
2653.82686	0.04457
2652.54109	0.04428
2651.25532	0.04398
2649.96955	0.04369
2648.68378	0.04345
2647.39801	0.04336
2646.11225	0.04347
2644.82648	0.04366
2643.54071	0.04371
2642.25494	0.04353
2640.96917	0.04317
2639.68340	0.04274
2638.39763	0.04234
2637.11186	0.04199
2635.82609	0.04172
2634.54033	0.04156
2633.25456	0.04154
2631.96879	0.04170
2630.68302	0.04194
2629.39725	0.04207
2628.11148	0.04193
2626.82571	0.04153
2625.53994	0.04110
2624.25418	0.04085
2622.96841	0.04079
2621.68264	0.04075
2620.39687	0.04062
2619.11110	0.04039
2617.82533	0.04010
2616.53956	0.03984
2615.25379	0.03964
2613.96802	0.03945
2612.68226	0.03919
2611.39649	0.03895
2610.11072	0.03894
2608.82495	0.03923
2607.53918	0.03961
2606.25341	0.03983
2604.96764	0.03977
2603.68187	0.03956
2602.39611	0.03933
2601.11034	0.03914
2599.82457	0.03896
2598.53880	0.03872
2597.25303	0.03843
2595.96726	0.03815
2594.68149	0.03792
2593.39572	0.03772
2592.10995	0.03749
2590.82419	0.03723
2589.53842	0.03711
2588.25265	0.03728
2586.96688	0.03770
2585.68111	0.03812
2584.39534	0.03828
2583.10957	0.03811
2581.82380	0.03769
2580.53804	0.03714
2579.25227	0.03661
2577.96650	0.03630
2576.68073	0.03633
2575.39496	0.03665
2574.10919	0.03702
2572.82342	0.03718
2571.53765	0.03701
2570.25188	0.03663
2568.96612	0.03629
2567.68035	0.03616
2566.39458	0.03619
2565.10881	0.03624
2563.82304	0.03624
2562.53727	0.03615
2561.25150	0.03596
2559.96573	0.03563
2558.67997	0.03522
2557.39420	0.03488
2556.10843	0.03469
2554.82266	0.03462
2553.53689	0.03466
2552.25112	0.03486
2550.96535	0.03511
2549.67958	0.03519
2548.39381	0.03498
2547.10805	0.03469
2545.82228	0.03467
2544.53651	0.03499
2543.25074	0.03551
2541.96497	0.03604
2540.67920	0.03648
2539.39343	0.03663
2538.10766	0.03628
2536.82190	0.03549
2535.53613	0.03460
2534.25036	0.03392
2532.96459	0.03349
2531.67882	0.03321
2530.39305	0.03311
2529.10728	0.03325
2527.82151	0.03362
2526.53574	0.03406
2525.24998	0.03435
2523.96421	0.03436
2522.67844	0.03411
2521.39267	0.03375
2520.10690	0.03350
2518.82113	0.03342
2517.53536	0.03338
2516.24959	0.03324
2514.96383	0.03300
2513.67806	0.03282
2512.39229	0.03284
2511.10652	0.03306
2509.82075	0.03341
2508.53498	0.03377
2507.24921	0.03408
2505.96344	0.03427
2504.67767	0.03425
2503.39191	0.03397
2502.10614	0.03355
2500.82037	0.03319
2499.53460	0.03308
2498.24883	0.03317
2496.96306	0.03326
2495.67729	0.03321
2494.39152	0.03308
2493.10576	0.03298
2491.81999	0.03291
2490.53422	0.03282
2489.24845	0.03271
2487.96268	0.03274
2486.67691	0.03305
2485.39114	0.03362
2484.10537	0.03418
2482.81960	0.03441
2481.53384	0.03425
2480.24807	0.03401
2478.96230	0.03401
2477.67653	0.03417
2476.39076	0.03418
2475.10499	0.03388
2473.81922	0.03338
2472.53345	0.03293
2471.24769	0.03274
2469.96192	0.03288
2468.67615	0.03320
2467.39038	0.03337
2466.10461	0.03320
2464.81884	0.03276
2463.53307	0.03229
2462.24730	0.03194
2460.96153	0.03171
2459.67577	0.03156
2458.39000	0.03150
2457.10423	0.03163
2455.81846	0.03201
2454.53269	0.03253
2453.24692	0.03297
2451.96115	0.03321
2450.67538	0.03332
2449.38962	0.03333
2448.10385	0.03320
2446.81808	0.03292
2445.53231	0.03257
2444.24654	0.03226
2442.96077	0.03197
2441.67500	0.03169
2440.38923	0.03142
2439.10346	0.03120
2437.81770	0.03110
2436.53193	0.03114
2435.24616	0.03127
2433.96039	0.03134
2432.67462	0.03121
2431.38885	0.03090
2430.10308	0.03064
2428.81731	0.03064
2427.53155	0.03087
2426.24578	0.03113
2424.96001	0.03127
2423.67424	0.03132
2422.38847	0.03134
2421.10270	0.03137
2419.81693	0.03144
2418.53116	0.03147
2417.24539	0.03136
2415.95963	0.03106
2414.67386	0.03072
2413.38809	0.03047
2412.10232	0.03035
2410.81655	0.03035
2409.53078	0.03048
2408.24501	0.03069
2406.95924	0.03087
2405.67347	0.03096
2404.38771	0.03099
2403.10194	0.03095
2401.81617	0.03077
2400.53040	0.03039
2399.24463	0.03003
2397.95886	0.02987
2396.67309	0.02999
2395.38732	0.03031
2394.10156	0.03062
2392.81579	0.03085
2391.53002	0.03104
2390.24425	0.03124
2388.95848	0.03138
2387.67271	0.03137
2386.38694	0.03119
2385.10117	0.03096
2383.81540	0.03079
2382.52964	0.03073
2381.24387	0.03069
2379.95810	0.03056
2378.67233	0.03029
2377.38656	0.02991
2376.10079	0.02948
2374.81502	0.02902
2373.52925	0.02857
2372.24349	0.02816
2370.95772	0.02788
2369.67195	0.02768
2368.38618	0.02750
2367.10041	0.02727
2365.81464	0.02706
2364.52887	0.02694
2363.24310	0.02693
2361.95733	0.02699
2360.67157	0.02707
2359.38580	0.02717
2358.10003	0.02739
2356.81426	0.02778
2355.52849	0.02834
2354.24272	0.02900
2352.95695	0.02963
2351.67118	0.03011
2350.38542	0.03033
2349.09965	0.03027
2347.81388	0.03003
2346.52811	0.02974
2345.24234	0.02948
2343.95657	0.02926
2342.67080	0.02903
2341.38503	0.02880
2340.09926	0.02868
2338.81350	0.02874
2337.52773	0.02890
2336.24196	0.02900
2334.95619	0.02887
2333.67042	0.02850
2332.38465	0.02802
2331.09888	0.02763
2329.81311	0.02753
2328.52735	0.02779
2327.24158	0.02836
2325.95581	0.02909
2324.67004	0.02969
2323.38427	0.03000
2322.09850	0.02998
2320.81273	0.02981
2319.52696	0.02965
2318.24119	0.02955
2316.95543	0.02949
2315.66966	0.02946
2314.38389	0.02954
2313.09812	0.02980
2311.81235	0.03019
2310.52658	0.03052
2309.24081	0.03056
2307.95504	0.03020
2306.66928	0.02953
2305.38351	0.02883
2304.09774	0.02834
2302.81197	0.02820
2301.52620	0.02837
2300.24043	0.02872
2298.95466	0.02906
2297.66889	0.02919
2296.38312	0.02905
2295.09736	0.02880
2293.81159	0.02864
2292.52582	0.02867
2291.24005	0.02877
2289.95428	0.02876
2288.66851	0.02858
2287.38274	0.02827
2286.09697	0.02790
2284.81121	0.02757
2283.52544	0.02738
2282.23967	0.02736
2280.95390	0.02734
2279.66813	0.02712
2278.38236	0.02666
2277.09659	0.02623
2275.81082	0.02617
2274.52505	0.02648
2273.23929	0.02686
2271.95352	0.02712
2270.66775	0.02739
2269.38198	0.02779
2268.09621	0.02805
2266.81044	0.02767
2265.52467	0.02655
2264.23890	0.02521
2262.95314	0.02433
2261.66737	0.02421
2260.38160	0.02463
2259.09583	0.02518
2257.81006	0.02555
2256.52429	0.02556
2255.23852	0.02515
2253.95275	0.02446
2252.66698	0.02374
2251.38122	0.02326
2250.09545	0.02318
2248.80968	0.02343
2247.52391	0.02340
2246.23814	0.02342
2244.95237	0.02364
2243.66660	0.02406
2242.38083	0.02434
2241.09507	0.02415
2239.80930	0.02350
2238.52353	0.02274
2237.23776	0.02211
2235.95199	0.02159
2234.66622	0.02116
2233.38045	0.02091
2232.09468	0.02086
2230.80891	0.02086
2229.52315	0.02075
2228.23738	0.02063
2226.95161	0.02079
2225.66584	0.02123
2224.38007	0.02160
2223.09430	0.02162
2221.80853	0.02144
2220.52276	0.02132
2219.23700	0.02125
2217.95123	0.02101
2216.66546	0.02062
2215.37969	0.02026
2214.09392	0.01983
2212.80815	0.01911
2211.52238	0.01822
2210.23661	0.01766
2208.95084	0.01770
2207.66508	0.01808
2206.37931	0.01834
2205.09354	0.01831
2203.80777	0.01808
2202.52200	0.01787
2201.23623	0.01786
2199.95046	0.01807
2198.66469	0.01832
2197.37893	0.01833
2196.09316	0.01804
2194.80739	0.01765
2193.52162	0.01750
2192.23585	0.01783
2190.95008	0.01859
2189.66431	0.01946
2188.37854	0.01988
2187.09277	0.01947
2185.80701	0.01842
2184.52124	0.01730
2183.23547	0.01644
2181.94970	0.01558
2180.66393	0.01422
2179.37816	0.01243
2178.09239	0.01100
2176.80662	0.01078
2175.52085	0.01187
2174.23509	0.01352
2172.94932	0.01477
2171.66355	0.01516
2170.37778	0.01478
2169.09201	0.01399
2167.80624	0.01319
2166.52047	0.01265
2165.23470	0.01230
2163.94894	0.01188
2162.66317	0.01110
2161.37740	0.00988
2160.09163	0.00859
2158.80586	0.00791
2157.52009	0.00828
2156.23432	0.00930
2154.94855	0.01015
2153.66278	0.01041
2152.37702	0.01032
2151.09125	0.01025
2149.80548	0.01033
2148.51971	0.01055
2147.23394	0.01109
2145.94817	0.01223
2144.66240	0.01391
2143.37663	0.01542
2142.09087	0.01586
2140.80510	0.01511
2139.51933	0.01398
2138.23356	0.01342
2136.94779	0.01368
2135.66202	0.01439
2134.37625	0.01525
2133.09048	0.01616
2131.80471	0.01697
2130.51895	0.01737
2129.23318	0.01719
2127.94741	0.01665
2126.66164	0.01624
2125.37587	0.01628
2124.09010	0.01666
2122.80433	0.01708
2121.51856	0.01746
2120.23280	0.01795
2118.94703	0.01864
2117.66126	0.01930
2116.37549	0.01955
2115.08972	0.01926
2113.80395	0.01875
2112.51818	0.01847
2111.23241	0.01847
2109.94664	0.01842
2108.66088	0.01817
2107.37511	0.01789
2106.08934	0.01778
2104.80357	0.01767
2103.51780	0.01742
2102.23203	0.01712
2100.94626	0.01702
2099.66049	0.01735
2098.37473	0.01752
2097.08896	0.01739
2095.80319	0.01707
2094.51742	0.01667
2093.23165	0.01638
2091.94588	0.01641
2090.66011	0.01677
2089.37434	0.01725
2088.08857	0.01755
2086.80281	0.01755
2085.51704	0.01735
2084.23127	0.01712
2082.94550	0.01696
2081.65973	0.01686
2080.37396	0.01666
2079.08819	0.01621
2077.80242	0.01553
2076.51666	0.01484
2075.23089	0.01440
2073.94512	0.01431
2072.65935	0.01445
2071.37358	0.01466
2070.08781	0.01473
2068.80204	0.01453
2067.51627	0.01404
2066.23050	0.01349
2064.94474	0.01312
2063.65897	0.01301
2062.37320	0.01302
2061.08743	0.01303
2059.80166	0.01302
2058.51589	0.01287
2057.23012	0.01243
2055.94435	0.01177
2054.65859	0.01132
2053.37282	0.01144
2052.08705	0.01192
2050.80128	0.01215
2049.51551	0.01189
2048.22974	0.01151
2046.94397	0.01135
2045.65820	0.01128
2044.37243	0.01102
2043.08667	0.01067
2041.80090	0.01046
2040.51513	0.01022
2039.22936	0.00947
2037.94359	0.00801
2036.65782	0.00638
2035.37205	0.00544
2034.08628	0.00559
2032.80052	0.00650
2031.51475	0.00755
2030.22898	0.00841
2028.94321	0.00910
2027.65744	0.00976
2026.37167	0.01033
2025.08590	0.01064
2023.80013	0.01052
2022.51436	0.01002
2021.22860	0.00938
2019.94283	0.00883
2018.65706	0.00842
2017.37129	0.00806
2016.08552	0.00769
2014.79975	0.00738
2013.51398	0.00723
2012.22821	0.00723
2010.94245	0.00732
2009.65668	0.00740
2008.37091	0.00753
2007.08514	0.00796
2005.79937	0.00892
2004.51360	0.01036
2003.22783	0.01182
2001.94206	0.01280
2000.65629	0.01314
1999.37053	0.01315
1998.08476	0.01320
1996.79899	0.01334
1995.51322	0.01330
1994.22745	0.01285
1992.94168	0.01215
1991.65591	0.01163
1990.37014	0.01166
1989.08438	0.01223
1987.79861	0.01298
1986.51284	0.01363
1985.22707	0.01421
1983.94130	0.01489
1982.65553	0.01567
1981.36976	0.01625
1980.08399	0.01623
1978.79822	0.01541
1977.51246	0.01391
1976.22669	0.01215
1974.94092	0.01063
1973.65515	0.00973
1972.36938	0.00953
1971.08361	0.00978
1969.79784	0.01013
1968.51207	0.01035
1967.22631	0.01052
1965.94054	0.01083
1964.65477	0.01136
1963.36900	0.01185
1962.08323	0.01190
1960.79746	0.01144
1959.51169	0.01092
1958.22592	0.01088
1956.94015	0.01146
1955.65439	0.01242
1954.36862	0.01347
1953.08285	0.01439
1951.79708	0.01494
1950.51131	0.01505
1949.22554	0.01489
1947.93977	0.01480
1946.65400	0.01498
1945.36823	0.01537
1944.08247	0.01578
1942.79670	0.01599
1941.51093	0.01587
1940.22516	0.01551
1938.93939	0.01511
1937.65362	0.01477
1936.36785	0.01452
1935.08208	0.01438
1933.79632	0.01448
1932.51055	0.01493
1931.22478	0.01566
1929.93901	0.01638
1928.65324	0.01682
1927.36747	0.01687
1926.08170	0.01668
1924.79593	0.01646
1923.51016	0.01631
1922.22440	0.01623
1920.93863	0.01625
1919.65286	0.01643
1918.36709	0.01673
1917.08132	0.01702
1915.79555	0.01714
1914.50978	0.01708
1913.22401	0.01699
1911.93825	0.01707
1910.65248	0.01734
1909.36671	0.01763
1908.08094	0.01779
1906.79517	0.01792
1905.50940	0.01820
1904.22363	0.01864
1902.93786	0.01904
1901.65209	0.01922
1900.36633	0.01916
1899.08056	0.01896
1897.79479	0.01870
1896.50902	0.01837
1895.22325	0.01801
1893.93748	0.01773
1892.65171	0.01767
1891.36594	0.01784
1890.08018	0.01808
1888.79441	0.01818
1887.50864	0.01806
1886.22287	0.01784
1884.93710	0.01766
1883.65133	0.01757
1882.36556	0.01752
1881.07979	0.01746
1879.79402	0.01744
1878.50826	0.01753
1877.22249	0.01769
1875.93672	0.01784
1874.65095	0.01790
1873.36518	0.01789
1872.07941	0.01789
1870.79364	0.01791
1869.50787	0.01788
1868.22211	0.01779
1866.93634	0.01777
1865.65057	0.01789
1864.36480	0.01804
1863.07903	0.01805
1861.79326	0.01790
1860.50749	0.01778
1859.22172	0.01786
1857.93595	0.01811
1856.65019	0.01832
1855.36442	0.01830
1854.07865	0.01804
1852.79288	0.01773
1851.50711	0.01752
1850.22134	0.01747
1848.93557	0.01751
1847.64980	0.01761
1846.36404	0.01782
1845.07827	0.01812
1843.79250	0.01839
1842.50673	0.01854
1841.22096	0.01858
1839.93519	0.01855
1838.64942	0.01842
1837.36365	0.01823
1836.07788	0.01810
1834.79212	0.01813
1833.50635	0.01830
1832.22058	0.01852
1830.93481	0.01868
1829.64904	0.01868
1828.36327	0.01858
1827.07750	0.01855
1825.79173	0.01866
1824.50597	0.01885
1823.22020	0.01900
1821.93443	0.01909
1820.64866	0.01908
1819.36289	0.01899
1818.07712	0.01885
1816.79135	0.01871
1815.50558	0.01862
1814.21981	0.01860
1812.93405	0.01863
1811.64828	0.01866
1810.36251	0.01865
1809.07674	0.01863
1807.79097	0.01865
1806.50520	0.01874
1805.21943	0.01883
1803.93366	0.01886
1802.64790	0.01882
1801.36213	0.01880
1800.07636	0.01883
1798.79059	0.01892
1797.50482	0.01899
1796.21905	0.01898
1794.93328	0.01896
1793.64751	0.01898
1792.36174	0.01901
1791.07598	0.01902
1789.79021	0.01906
1788.50444	0.01922
1787.21867	0.01946
1785.93290	0.01967
1784.64713	0.01973
1783.36136	0.01964
1782.07559	0.01952
1780.78983	0.01944
1779.50406	0.01944
1778.21829	0.01948
1776.93252	0.01949
1775.64675	0.01948
1774.36098	0.01953
1773.07521	0.01963
1771.78944	0.01973
1770.50367	0.01982
1769.21791	0.01998
1767.93214	0.02017
1766.64637	0.02027
1765.36060	0.02031
1764.07483	0.02037
1762.78906	0.02046
1761.50329	0.02046
1760.21752	0.02039
1758.93176	0.02035
1757.64599	0.02044
1756.36022	0.02058
1755.07445	0.02069
1753.78868	0.02077
1752.50291	0.02078
1751.21714	0.02070
1749.93137	0.02058
1748.64560	0.02060
1747.35984	0.02081
1746.07407	0.02109
1744.78830	0.02126
1743.50253	0.02129
1742.21676	0.02129
1740.93099	0.02135
1739.64522	0.02140
1738.35945	0.02138
1737.07369	0.02140
1735.78792	0.02162
1734.50215	0.02190
1733.21638	0.02203
1731.93061	0.02205
1730.64484	0.02218
1729.35907	0.02243
1728.07330	0.02266
1726.78753	0.02278
1725.50177	0.02286
1724.21600	0.02290
1722.93023	0.02288
1721.64446	0.02286
1720.35869	0.02298
1719.07292	0.02333
1717.78715	0.02377
1716.50138	0.02414
1715.21561	0.02444
1713.92985	0.02473
1712.64408	0.02507
1711.35831	0.02542
1710.07254	0.02579
1708.78677	0.02614
1707.50100	0.02649
1706.21523	0.02679
1704.92946	0.02697
1703.64370	0.02716
1702.35793	0.02755
1701.07216	0.02801
1699.78639	0.02824
1698.50062	0.02834
1697.21485	0.02868
1695.92908	0.02928
1694.64331	0.02979
1693.35754	0.03013
1692.07178	0.03046
1690.78601	0.03078
1689.50024	0.03096
1688.21447	0.03107
1686.92870	0.03132
1685.64293	0.03175
1684.35716	0.03212
1683.07139	0.03231
1681.78563	0.03254
1680.49986	0.03294
1679.21409	0.03341
1677.92832	0.03386
1676.64255	0.03432
1675.35678	0.03470
1674.07101	0.03491
1672.78524	0.03501
1671.49947	0.03518
1670.21371	0.03548
1668.92794	0.03584
1667.64217	0.03620
1666.35640	0.03657
1665.07063	0.03700
1663.78486	0.03744
1662.49909	0.03784
1661.21332	0.03819
1659.92756	0.03847
1658.64179	0.03864
1657.35602	0.03868
1656.07025	0.03876
1654.78448	0.03908
1653.49871	0.03947
1652.21294	0.03959
1650.92717	0.03952
1649.64140	0.03964
1648.35564	0.04006
1647.06987	0.04049
1645.78410	0.04068
1644.49833	0.04069
1643.21256	0.04072
1641.92679	0.04081
1640.64102	0.04090
1639.35525	0.04094
1638.06949	0.04105
1636.78372	0.04128
1635.49795	0.04149
1634.21218	0.04155
1632.92641	0.04152
1631.64064	0.04158
1630.35487	0.04174
1629.06910	0.04192
1627.78333	0.04200
1626.49757	0.04199
1625.21180	0.04198
1623.92603	0.04205
1622.64026	0.04213
1621.35449	0.04215
1620.06872	0.04221
1618.78295	0.04242
1617.49718	0.04274
1616.21142	0.04299
1614.92565	0.04316
1613.63988	0.04338
1612.35411	0.04368
1611.06834	0.04398
1609.78257	0.04420
1608.49680	0.04440
1607.21103	0.04463
1605.92526	0.04488
1604.63950	0.04516
1603.35373	0.04548
1602.06796	0.04582
1600.78219	0.04617
1599.49642	0.04646
1598.21065	0.04668
1596.92488	0.04685
1595.63911	0.04702
1594.35335	0.04724
1593.06758	0.04753
1591.78181	0.04786
1590.49604	0.04819
1589.21027	0.04849
1587.92450	0.04874
1586.63873	0.04897
1585.35296	0.04923
1584.06719	0.04955
1582.78143	0.04989
1581.49566	0.05019
1580.20989	0.05041
1578.92412	0.05071
1577.63835	0.05120
1576.35258	0.05177
1575.06681	0.05222
1573.78104	0.05258
1572.49528	0.05306
1571.20951	0.05370
1569.92374	0.05432
1568.63797	0.05482
1567.35220	0.05523
1566.06643	0.05563
1564.78066	0.05593
1563.49489	0.05612
1562.20912	0.05633
1560.92336	0.05672
1559.63759	0.05713
1558.35182	0.05738
1557.06605	0.05754
1555.78028	0.05790
1554.49451	0.05843
1553.20874	0.05891
1551.92297	0.05927
1550.63721	0.05952
1549.35144	0.05967
1548.06567	0.05967
1546.77990	0.05955
1545.49413	0.05927
1544.20836	0.05879
1542.92259	0.05825
1541.63682	0.05784
1540.35105	0.05761
1539.06529	0.05735
1537.77952	0.05700
1536.49375	0.05674
1535.20798	0.05670
1533.92221	0.05678
1532.63644	0.05682
1531.35067	0.05681
1530.06490	0.05687
1528.77914	0.05702
1527.49337	0.05721
1526.20760	0.05738
1524.92183	0.05757
1523.63606	0.05794
1522.35029	0.05853
1521.06452	0.05919
1519.77875	0.05981
1518.49298	0.06051
1517.20722	0.06141
1515.92145	0.06249
1514.63568	0.06367
1513.34991	0.06487
1512.06414	0.06599
1510.77837	0.06699
1509.49260	0.06803
1508.20683	0.06929
1506.92107	0.07070
1505.63530	0.07203
1504.34953	0.07321
1503.06376	0.07435
1501.77799	0.07547
1500.49222	0.07651
1499.20645	0.07749
1497.92068	0.07849
1496.63491	0.07945
1495.34915	0.08025
1494.06338	0.08091
1492.77761	0.08160
1491.49184	0.08241
1490.20607	0.08333
1488.92030	0.08433
1487.63453	0.08543
1486.34876	0.08662
1485.06299	0.08783
1483.77723	0.08905
1482.49146	0.09027
1481.20569	0.09149
1479.91992	0.09273
1478.63415	0.09397
1477.34838	0.09520
1476.06261	0.09640
1474.77684	0.09758
1473.49108	0.09876
1472.20531	0.09985
1470.91954	0.10079
1469.63377	0.10164
1468.34800	0.10251
1467.06223	0.10342
1465.77646	0.10432
1464.49069	0.10513
1463.20492	0.10585
1461.91916	0.10649
1460.63339	0.10711
1459.34762	0.10778
1458.06185	0.10849
1456.77608	0.10914
1455.49031	0.10967
1454.20454	0.11021
1452.91877	0.11079
1451.63301	0.11134
1450.34724	0.11176
1449.06147	0.11206
1447.77570	0.11221
1446.48993	0.11218
1445.20416	0.11195
1443.91839	0.11158
1442.63262	0.11109
1441.34685	0.11054
1440.06109	0.11005
1438.77532	0.10972
1437.48955	0.10956
1436.20378	0.10950
1434.91801	0.10958
1433.63224	0.10993
1432.34647	0.11064
1431.06070	0.11164
1429.77494	0.11286
1428.48917	0.11425
1427.20340	0.11581
1425.91763	0.11751
1424.63186	0.11925
1423.34609	0.12092
1422.06032	0.12255
1420.77455	0.12418
1419.48878	0.12577
1418.20302	0.12717
1416.91725	0.12837
1415.63148	0.12938
1414.34571	0.13017
1413.05994	0.13069
1411.77417	0.13091
1410.48840	0.13086
1409.20263	0.13055
1407.91687	0.12998
1406.63110	0.12914
1405.34533	0.12799
1404.05956	0.12653
1402.77379	0.12483
1401.48802	0.12297
1400.20225	0.12100
1398.91648	0.11887
1397.63071	0.11661
1396.34495	0.11431
1395.05918	0.11198
1393.77341	0.10961
1392.48764	0.10719
1391.20187	0.10477
1389.91610	0.10240
1388.63033	0.10010
1387.34456	0.09788
1386.05880	0.09569
1384.77303	0.09356
1383.48726	0.09148
1382.20149	0.08946
1380.91572	0.08748
1379.62995	0.08552
1378.34418	0.08351
1377.05841	0.08140
1375.77264	0.07916
1374.48688	0.07678
1373.20111	0.07430
1371.91534	0.07183
1370.62957	0.06950
1369.34380	0.06736
1368.05803	0.06536
1366.77226	0.06344
1365.48649	0.06157
1364.20073	0.05977
1362.91496	0.05804
1361.62919	0.05637
1360.34342	0.05478
1359.05765	0.05332
1357.77188	0.05203
1356.48611	0.05093
1355.20034	0.04995
1353.91457	0.04902
1352.62881	0.04810
1351.34304	0.04720
1350.05727	0.04637
1348.77150	0.04560
1347.48573	0.04486
1346.19996	0.04410
1344.91419	0.04335
1343.62842	0.04262
1342.34266	0.04195
1341.05689	0.04134
1339.77112	0.04079
1338.48535	0.04028
1337.19958	0.03981
1335.91381	0.03940
1334.62804	0.03901
1333.34227	0.03861
1332.05650	0.03819
1330.77074	0.03775
1329.48497	0.03731
1328.19920	0.03693
1326.91343	0.03663
1325.62766	0.03641
1324.34189	0.03624
1323.05612	0.03606
1321.77035	0.03584
1320.48459	0.03554
1319.19882	0.03521
1317.91305	0.03489
1316.62728	0.03463
1315.34151	0.03440
1314.05574	0.03416
1312.76997	0.03390
1311.48420	0.03361
1310.19843	0.03332
1308.91267	0.03306
1307.62690	0.03284
1306.34113	0.03263
1305.05536	0.03242
1303.76959	0.03219
1302.48382	0.03195
1301.19805	0.03172
1299.91228	0.03151
1298.62652	0.03128
1297.34075	0.03101
1296.05498	0.03076
1294.76921	0.03055
1293.48344	0.03041
1292.19767	0.03029
1290.91190	0.03014
1289.62613	0.02996
1288.34036	0.02977
1287.05460	0.02960
1285.76883	0.02944
1284.48306	0.02924
1283.19729	0.02902
1281.91152	0.02880
1280.62575	0.02865
1279.33998	0.02858
1278.05421	0.02853
1276.76845	0.02843
1275.48268	0.02824
1274.19691	0.02798
1272.91114	0.02768
1271.62537	0.02738
1270.33960	0.02714
1269.05383	0.02699
1267.76806	0.02692
1266.48229	0.02690
1265.19653	0.02688
1263.91076	0.02680
1262.62499	0.02665
1261.33922	0.02646
1260.05345	0.02626
1258.76768	0.02607
1257.48191	0.02593
1256.19614	0.02582
1254.91037	0.02572
1253.62461	0.02559
1252.33884	0.02542
1251.05307	0.02524
1249.76730	0.02507
1248.48153	0.02492
1247.19576	0.02480
1245.90999	0.02470
1244.62422	0.02460
1243.33846	0.02449
1242.05269	0.02438
1240.76692	0.02423
1239.48115	0.02404
1238.19538	0.02383
1236.90961	0.02363
1235.62384	0.02349
1234.33807	0.02342
1233.05230	0.02336
1231.76654	0.02326
1230.48077	0.02312
1229.19500	0.02293
1227.90923	0.02273
1226.62346	0.02256
1225.33769	0.02245
1224.05192	0.02237
1222.76615	0.02230
1221.48039	0.02221
1220.19462	0.02209
1218.90885	0.02195
1217.62308	0.02182
1216.33731	0.02171
1215.05154	0.02162
1213.76577	0.02157
1212.48000	0.02153
1211.19423	0.02147
1209.90847	0.02138
1208.62270	0.02129
1207.33693	0.02122
1206.05116	0.02118
1204.76539	0.02115
1203.47962	0.02111
1202.19385	0.02106
1200.90808	0.02100
1199.62232	0.02094
1198.33655	0.02092
1197.05078	0.02086
1195.76501	0.02076
1194.47924	0.02062
1193.19347	0.02052
1191.90770	0.02050
1190.62193	0.02053
1189.33616	0.02055
1188.05040	0.02052
1186.76463	0.02049
1185.47886	0.02051
1184.19309	0.02057
1182.90732	0.02066
1181.62155	0.02075
1180.33578	0.02082
1179.05001	0.02084
1177.76425	0.02082
1176.47848	0.02078
1175.19271	0.02074
1173.90694	0.02074
1172.62117	0.02078
1171.33540	0.02087
1170.04963	0.02097
1168.76386	0.02109
1167.47809	0.02125
1166.19233	0.02148
1164.90656	0.02175
1163.62079	0.02200
1162.33502	0.02225
1161.04925	0.02254
1159.76348	0.02289
1158.47771	0.02326
1157.19194	0.02361
1155.90618	0.02393
1154.62041	0.02425
1153.33464	0.02457
1152.04887	0.02492
1150.76310	0.02530
1149.47733	0.02570
1148.19156	0.02612
1146.90579	0.02662
1145.62002	0.02722
1144.33426	0.02792
1143.04849	0.02869
1141.76272	0.02953
1140.47695	0.03045
1139.19118	0.03151
1137.90541	0.03273
1136.61964	0.03409
1135.33387	0.03556
1134.04811	0.03714
1132.76234	0.03888
1131.47657	0.04083
1130.19080	0.04303
1128.90503	0.04546
1127.61926	0.04815
1126.33349	0.05109
1125.04772	0.05429
1123.76195	0.05771
1122.47619	0.06126
1121.19042	0.06487
1119.90465	0.06852
1118.61888	0.07228
1117.33311	0.07620
1116.04734	0.08023
1114.76157	0.08424
1113.47580	0.08816
1112.19004	0.09200
1110.90427	0.09578
1109.61850	0.09950
1108.33273	0.10310
1107.04696	0.10657
1105.76119	0.10992
1104.47542	0.11313
1103.18965	0.11621
1101.90388	0.11920
1100.61812	0.12218
1099.33235	0.12517
1098.04658	0.12810
1096.76081	0.13089
1095.47504	0.13347
1094.18927	0.13588
1092.90350	0.13816
1091.61773	0.14033
1090.33197	0.14239
1089.04620	0.14432
1087.76043	0.14618
1086.47466	0.14803
1085.18889	0.14993
1083.90312	0.15189
1082.61735	0.15393
1081.33158	0.15611
1080.04581	0.15844
1078.76005	0.16095
1077.47428	0.16361
1076.18851	0.16643
1074.90274	0.16941
1073.61697	0.17254
1072.33120	0.17577
1071.04543	0.17906
1069.75966	0.18244
1068.47390	0.18598
1067.18813	0.18966
1065.90236	0.19341
1064.61659	0.19717
1063.33082	0.20095
1062.04505	0.20480
1060.75928	0.20872
1059.47351	0.21263
1058.18774	0.21647
1056.90198	0.22022
1055.61621	0.22390
1054.33044	0.22752
1053.04467	0.23109
1051.75890	0.23466
1050.47313	0.23834
1049.18736	0.24223
1047.90159	0.24632
1046.61583	0.25052
1045.33006	0.25479
1044.04429	0.25911
1042.75852	0.26347
1041.47275	0.26786
1040.18698	0.27230
1038.90121	0.27684
1037.61544	0.28150
1036.32967	0.28620
1035.04391	0.29078
1033.75814	0.29512
1032.47237	0.29918
1031.18660	0.30298
1029.90083	0.30651
1028.61506	0.30969
1027.32929	0.31245
1026.04352	0.31474
1024.75775	0.31657
1023.47199	0.31796
1022.18622	0.31897
1020.90045	0.31959
1019.61468	0.31976
1018.32891	0.31939
1017.04314	0.31842
1015.75737	0.31686
1014.47160	0.31476
1013.18584	0.31215
1011.90007	0.30902
1010.61430	0.30536
1009.32853	0.30112
1008.04276	0.29629
1006.75699	0.29091
1005.47122	0.28507
1004.18545	0.27891
1002.89968	0.27242
1001.61392	0.26556
1000.32815	0.25832
999.04238	0.25081
997.75661	0.24315
996.47084	0.23545
995.18507	0.22774
993.89930	0.22011
992.61353	0.21261
991.32777	0.20525
990.04200	0.19802
988.75623	0.19091
987.47046	0.18395
986.18469	0.17718
984.89892	0.17070
983.61315	0.16460
982.32738	0.15893
981.04161	0.15363
979.75585	0.14859
978.47008	0.14379
977.18431	0.13936
975.89854	0.13541
974.61277	0.13198
973.32700	0.12905
972.04123	0.12664
970.75546	0.12484
969.46970	0.12373
968.18393	0.12332
966.89816	0.12357
965.61239	0.12437
964.32662	0.12547
963.04085	0.12652
961.75508	0.12719
960.46931	0.12725
959.18354	0.12663
957.89778	0.12534
956.61201	0.12345
955.32624	0.12107
954.04047	0.11831
952.75470	0.11534
951.46893	0.11236
950.18316	0.10950
948.89739	0.10674
947.61163	0.10399
946.32586	0.10122
945.04009	0.09850
943.75432	0.09587
942.46855	0.09335
941.18278	0.09092
939.89701	0.08861
938.61124	0.08647
937.32547	0.08452
936.03971	0.08270
934.75394	0.08097
933.46817	0.07933
932.18240	0.07779
930.89663	0.07633
929.61086	0.07496
928.32509	0.07367
927.03932	0.07247
925.75356	0.07131
924.46779	0.07018
923.18202	0.06908
921.89625	0.06806
920.61048	0.06713
919.32471	0.06630
918.03894	0.06557
916.75317	0.06493
915.46740	0.06432
914.18164	0.06367
912.89587	0.06296
911.61010	0.06222
910.32433	0.06151
909.03856	0.06088
907.75279	0.06033
906.46702	0.05982
905.18125	0.05929
903.89549	0.05876
902.60972	0.05824
901.32395	0.05775
900.03818	0.05726
898.75241	0.05675
897.46664	0.05621
896.18087	0.05571
894.89510	0.05527
893.60933	0.05493
892.32357	0.05475
891.03780	0.05476
889.75203	0.05496
888.46626	0.05533
887.18049	0.05592
885.89472	0.05697
884.60895	0.05882
883.32318	0.06164
882.03742	0.06519
880.75165	0.06885
879.46588	0.07194
878.18011	0.07417
876.89434	0.07588
875.60857	0.07759
874.32280	0.07949
873.03703	0.08120
871.75126	0.08216
870.46550	0.08202
869.17973	0.08087
867.89396	0.07897
866.60819	0.07654
865.32242	0.07378
864.03665	0.07087
862.75088	0.06802
861.46511	0.06543
860.17935	0.06319
858.89358	0.06134
857.60781	0.05982
856.32204	0.05857
855.03627	0.05756
853.75050	0.05674
852.46473	0.05594
851.17896	0.05505
849.89319	0.05407
848.60743	0.05313
847.32166	0.05238
846.03589	0.05184
844.75012	0.05143
843.46435	0.05106
842.17858	0.05065
840.89281	0.05019
839.60704	0.04974
838.32128	0.04937
837.03551	0.04912
835.74974	0.04895
834.46397	0.04880
833.17820	0.04857
831.89243	0.04824
830.60666	0.04789
829.32089	0.04759
828.03512	0.04741
826.74936	0.04732
825.46359	0.04722
824.17782	0.04704
822.89205	0.04680
821.60628	0.04659
820.32051	0.04649
819.03474	0.04648
817.74897	0.04647
816.46321	0.04638
815.17744	0.04622
813.89167	0.04605
812.60590	0.04592
811.32013	0.04579
810.03436	0.04560
808.74859	0.04537
807.46282	0.04514
806.17705	0.04495
804.89129	0.04476
803.60552	0.04459
802.31975	0.04449
801.03398	0.04447
799.74821	0.04448
798.46244	0.04449
797.17667	0.04445
795.89090	0.04434
794.60513	0.04414
793.31937	0.04387
792.03360	0.04362
790.74783	0.04348
789.46206	0.04341
788.17629	0.04336
786.89052	0.04331
785.60475	0.04332
784.31898	0.04338
783.03322	0.04340
781.74745	0.04325
780.46168	0.04295
779.17591	0.04264
777.89014	0.04243
776.60437	0.04236
775.31860	0.04237
774.03283	0.04243
772.74706	0.04252
771.46130	0.04258
770.17553	0.04251
768.88976	0.04228
767.60399	0.04200
766.31822	0.04184
765.03245	0.04187
763.74668	0.04200
762.46091	0.04215
761.17515	0.04230
759.88938	0.04246
758.60361	0.04264
757.31784	0.04275
756.03207	0.04275
754.74630	0.04267
753.46053	0.04258
752.17476	0.04250
750.88899	0.04242
749.60323	0.04230
748.31746	0.04219
747.03169	0.04217
745.74592	0.04221
744.46015	0.04223
743.17438	0.04214
741.88861	0.04198
740.60284	0.04184
739.31708	0.04171
738.03131	0.04155
736.74554	0.04135
735.45977	0.04121
734.17400	0.04114
732.88823	0.04114
731.60246	0.04116
730.31669	0.04121
729.03092	0.04126
727.74516	0.04130
726.45939	0.04128
725.17362	0.04120
723.88785	0.04104
722.60208	0.04108
721.31631	0.04122
720.03054	0.04133
718.74477	0.04136
717.45901	0.04132
716.17324	0.04120
714.88747	0.04099
713.60170	0.04071
712.31593	0.04042
711.03016	0.04019
709.74439	0.04005
708.45862	0.03998
707.17285	0.03993
705.88709	0.03987
704.60132	0.03982
703.31555	0.03980
702.02978	0.03979
700.74401	0.03976
699.45824	0.03966
698.17247	0.03948
696.88670	0.03929
695.60094	0.03916
694.31517	0.03910
693.02940	0.03909
691.74363	0.03909
690.45786	0.03910
689.17209	0.03911
687.88632	0.03910
686.60055	0.03903
685.31478	0.03891
684.02902	0.03876
682.74325	0.03861
681.45748	0.03845
680.17171	0.03827
678.88594	0.03808
677.60017	0.03794
676.31440	0.03784
675.02863	0.03777
673.74287	0.03774
672.45710	0.03776
671.17133	0.03782
669.88556	0.03789
668.59979	0.03795
667.31402	0.03799
666.02825	0.03797
664.74248	0.03785
663.45671	0.03767
662.17095	0.03749
660.88518	0.03734
659.59941	0.03722
658.31364	0.03710
657.02787	0.03696
655.74210	0.03683
654.45633	0.03674
653.17056	0.03669
651.88480	0.03666
650.59903	0.03660
649.31326	0.03649
648.02749	0.03637
646.74172	0.03629
645.45595	0.03631
644.17018	0.03639
642.88441	0.03648
641.59864	0.03652
640.31288	0.03654
639.02711	0.03657
637.74134	0.03667
636.45557	0.03686
635.16980	0.03722
633.88403	0.03773
632.59826	0.03831
631.31249	0.03891
630.02673	0.03961
628.74096	0.04038
627.45519	0.04064
626.16942	0.04150
624.88365	0.04263
623.59788	0.04363
622.31211	0.04494
621.02634	0.04730
619.74057	0.05077
618.45481	0.05459
617.16904	0.05811
615.88327	0.06128
614.59750	0.06434
613.31173	0.06762
612.02596	0.07171
610.74019	0.07747
609.45442	0.08514
608.16866	0.09355
606.88289	0.10103
605.59712	0.10675
604.31135	0.11089
603.02558	0.11367
601.73981	0.11490
600.45404	0.11442
599.16827	0.11251
597.88250	0.10974
596.59674	0.10658
595.31097	0.10335
594.02520	0.10027
592.73943	0.09756
591.45366	0.09548
590.16789	0.09415
588.88212	0.09360
587.59635	0.09378
586.31059	0.09467
585.02482	0.09625
583.73905	0.09838
582.45328	0.10088
581.16751	0.10356
579.88174	0.10639
578.59597	0.10941
577.31020	0.11261
576.02443	0.11585
574.73867	0.11895
573.45290	0.12180
572.16713	0.12447
570.88136	0.12723
569.59559	0.13045
568.30982	0.13439
567.02405	0.13900
565.73828	0.14391
564.45251	0.14852
563.16675	0.15214
561.88098	0.15421
560.59521	0.15438
559.30944	0.15254
558.02367	0.14882
556.73790	0.14357
555.45213	0.13727
554.16636	0.13041
552.88060	0.12332
551.59483	0.11634
550.30906	0.10978
549.02329	0.10391
547.73752	0.09874
546.45175	0.09413
545.16598	0.08992
543.88021	0.08614
542.59444	0.08283
541.30868	0.07995
540.02291	0.07737
538.73714	0.07501
537.45137	0.07278
536.16560	0.07061
534.87983	0.06844
533.59406	0.06630
532.30829	0.06426
531.02253	0.06240
529.73676	0.06077
528.45099	0.05935
527.16522	0.05803
525.87945	0.05669
524.59368	0.05532
523.30791	0.05401
522.02214	0.05283
520.73637	0.05178
519.45061	0.05077
518.16484	0.04974
516.87907	0.04872
515.59330	0.04777
514.30753	0.04696
513.02176	0.04624
511.73599	0.04551
510.45022	0.04471
509.16446	0.04387
507.87869	0.04310
506.59292	0.04245
505.30715	0.04189
504.02138	0.04134
502.73561	0.04077
501.44984	0.04019
500.16407	0.03969
498.87830	0.03927
497.59254	0.03893
496.30677	0.03862
495.02100	0.03834
493.73523	0.03806
492.44946	0.03778
491.16369	0.03752
489.87792	0.03727
488.59215	0.03702
487.30639	0.03673
486.02062	0.03647
484.73485	0.03633
483.44908	0.03636
482.16331	0.03652
480.87754	0.03670
479.59177	0.03686
478.30600	0.03703
477.02023	0.03728
475.73447	0.03759
474.44870	0.03788
473.16293	0.03805
471.87716	0.03805
470.59139	0.03793
469.30562	0.03773
468.01985	0.03748
466.73408	0.03720
465.44832	0.03690
464.16255	0.03656
462.87678	0.03616
461.59101	0.03570
460.30524	0.03526
459.01947	0.03492
457.73370	0.03465
456.44793	0.03440
455.16216	0.03413
453.87640	0.03384
452.59063	0.03351
451.30486	0.03312
450.01909	0.03272
448.73332	0.03234
447.44755	0.03204
446.16178	0.03181
444.87601	0.03160
443.59025	0.03139
442.30448	0.03121
441.01871	0.03107
439.73294	0.03095
438.44717	0.03085
437.16140	0.03076
435.87563	0.03071
434.58986	0.03067
433.30409	0.03061
432.01833	0.03047
430.73256	0.03024
429.44679	0.02997
428.16102	0.02972
426.87525	0.02954
425.58948	0.02944
424.30371	0.02935
423.01794	0.02921
421.73218	0.02901
420.44641	0.02882
419.16064	0.02867
417.87487	0.02856
416.58910	0.02846
415.30333	0.02837
414.01756	0.02829
412.73179	0.02819
411.44602	0.02809
410.16026	0.02801
408.87449	0.02800
407.58872	0.02806
406.30295	0.02817
405.01718	0.02827
403.73141	0.02830
402.44564	0.02825
401.15987	0.02819
399.87411	0.02816
