3997.45528	0.00576
3996.16951	0.00590
3994.88374	0.00600
3993.59798	0.00606
3992.31221	0.00615
3991.02644	0.00633
3989.74067	0.00661
3988.45490	0.00688
3987.16913	0.00702
3985.88336	0.00694
3984.59759	0.00671
3983.31183	0.00663
3982.02606	0.00700
3980.74029	0.00779
3979.45452	0.00870
3978.16875	0.00950
3976.88298	0.01014
3975.59721	0.01052
3974.31144	0.01048
3973.02567	0.01008
3971.73991	0.00974
3970.45414	0.00979
3969.16837	0.01019
3967.88260	0.01056
3966.59683	0.01057
3965.31106	0.01011
3964.02529	0.00943
3962.73952	0.00907
3961.45376	0.00946
3960.16799	0.01049
3958.88222	0.01152
3957.59645	0.01193
3956.31068	0.01162
3955.02491	0.01096
3953.73914	0.01049
3952.45337	0.01050
3951.16760	0.01101
3949.88184	0.01165
3948.59607	0.01189
3947.31030	0.01140
3946.02453	0.01037
3944.73876	0.00936
3943.45299	0.00882
3942.16722	0.00873
3940.88145	0.00876
3939.59569	0.00879
3938.30992	0.00913
3937.02415	0.00997
3935.73838	0.01102
3934.45261	0.01167
3933.16684	0.01156
3931.88107	0.01082
3930.59530	0.00994
3929.30953	0.00946
3928.02377	0.00968
3926.73800	0.01040
3925.45223	0.01113
3924.16646	0.01157
3922.88069	0.01168
3921.59492	0.01144
3920.30915	0.01083
3919.02338	0.00982
3917.73762	0.00874
3916.45185	0.00821
3915.16608	0.00859
3913.88031	0.00964
3912.59454	0.01095
3911.30877	0.01223
3910.02300	0.01321
3908.73723	0.01369
3907.45146	0.01345
3906.16570	0.01245
3904.87993	0.01109
3903.59416	0.01006
3902.30839	0.00965
3901.02262	0.00957
3899.73685	0.00950
3898.45108	0.00947
3897.16531	0.00963
3895.87955	0.01012
3894.59378	0.01087
3893.30801	0.01159
3892.02224	0.01212
3890.73647	0.01274
3889.45070	0.01331
3888.16493	0.01308
3886.87916	0.01206
3885.59339	0.01139
3884.30763	0.01164
3883.02186	0.01208
3881.73609	0.01203
3880.45032	0.01188
3879.16455	0.01208
3877.87878	0.01217
3876.59301	0.01166
3875.30724	0.01093
3874.02148	0.01063
3872.73571	0.01058
3871.44994	0.01034
3870.16417	0.01043
3868.87840	0.01143
3867.59263	0.01255
3866.30686	0.01277
3865.02109	0.01221
3863.73532	0.01146
3862.44956	0.01064
3861.16379	0.01003
3859.87802	0.01025
3858.59225	0.01141
3857.30648	0.01251
3856.02071	0.01250
3854.73494	0.01176
3853.44917	0.01193
3852.16341	0.01349
3850.87764	0.01518
3849.59187	0.01590
3848.30610	0.01570
3847.02033	0.01490
3845.73456	0.01367
3844.44879	0.01238
3843.16302	0.01160
3841.87725	0.01137
3840.59149	0.01109
3839.30572	0.01057
3838.01995	0.01051
3836.73418	0.01141
3835.44841	0.01250
3834.16264	0.01273
3832.87687	0.01212
3831.59110	0.01146
3830.30534	0.01117
3829.01957	0.01110
3827.73380	0.01118
3826.44803	0.01169
3825.16226	0.01258
3823.87649	0.01316
3822.59072	0.01331
3821.30495	0.01388
3820.01918	0.01500
3818.73342	0.01528
3817.44765	0.01395
3816.16188	0.01251
3814.87611	0.01241
3813.59034	0.01284
3812.30457	0.01248
3811.01880	0.01139
3809.73303	0.01018
3808.44726	0.00927
3807.16150	0.00941
3805.87573	0.01088
3804.58996	0.01237
3803.30419	0.01252
3802.01842	0.01194
3800.73265	0.01221
3799.44688	0.01318
3798.16111	0.01349
3796.87535	0.01301
3795.58958	0.01257
3794.30381	0.01247
3793.01804	0.01248
3791.73227	0.01259
3790.44650	0.01287
3789.16073	0.01312
3787.87496	0.01304
3786.58919	0.01256
3785.30343	0.01196
3784.01766	0.01157
3782.73189	0.01151
3781.44612	0.01165
3780.16035	0.01191
3778.87458	0.01218
3777.58881	0.01221
3776.30304	0.01191
3775.01728	0.01171
3773.73151	0.01198
3772.44574	0.01246
3771.15997	0.01271
3769.87420	0.01276
3768.58843	0.01279
3767.30266	0.01281
3766.01689	0.01298
3764.73112	0.01351
3763.44536	0.01395
3762.15959	0.01366
3760.87382	0.01281
3759.58805	0.01223
3758.30228	0.01231
3757.01651	0.01274
3755.73074	0.01283
3754.44497	0.01210
3753.15921	0.01097
3751.87344	0.01043
3750.58767	0.01098
3749.30190	0.01248
3748.01613	0.01398
3746.73036	0.01410
3745.44459	0.01313
3744.15882	0.01300
3742.87305	0.01419
3741.58729	0.01503
3740.30152	0.01466
3739.01575	0.01375
3737.72998	0.01304
3736.44421	0.01284
3735.15844	0.01330
3733.87267	0.01388
3732.58690	0.01432
3731.30114	0.01471
3730.01537	0.01469
3728.72960	0.01388
3727.44383	0.01269
3726.15806	0.01223
3724.87229	0.01264
3723.58652	0.01282
3722.30075	0.01216
3721.01498	0.01091
3719.72922	0.00973
3718.44345	0.00945
3717.15768	0.01027
3715.87191	0.01155
3714.58614	0.01229
3713.30037	0.01228
3712.01460	0.01237
3710.72883	0.01281
3709.44307	0.01306
3708.15730	0.01313
3706.87153	0.01310
3705.58576	0.01286
3704.29999	0.01216
3703.01422	0.01117
3701.72845	0.01046
3700.44268	0.01038
3699.15691	0.01069
3697.87115	0.01106
3696.58538	0.01142
3695.29961	0.01175
3694.01384	0.01187
3692.72807	0.01202
3691.44230	0.01226
3690.15653	0.01236
3688.87076	0.01252
3687.58500	0.01304
3686.29923	0.01355
3685.01346	0.01345
3683.72769	0.01283
3682.44192	0.01249
3681.15615	0.01295
3679.87038	0.01383
3678.58461	0.01408
3677.29884	0.01329
3676.01308	0.01262
3674.72731	0.01334
3673.44154	0.01457
3672.15577	0.01449
3670.87000	0.01344
3669.58423	0.01315
3668.29846	0.01392
3667.01269	0.01463
3665.72693	0.01464
3664.44116	0.01416
3663.15539	0.01359
3661.86962	0.01327
3660.58385	0.01338
3659.29808	0.01374
3658.01231	0.01415
3656.72654	0.01482
3655.44077	0.01602
3654.15501	0.01726
3652.86924	0.01766
3651.58347	0.01715
3650.29770	0.01653
3649.01193	0.01642
3647.72616	0.01672
3646.44039	0.01690
3645.15462	0.01664
3643.86886	0.01606
3642.58309	0.01547
3641.29732	0.01514
3640.01155	0.01514
3638.72578	0.01545
3637.44001	0.01603
3636.15424	0.01663
3634.86847	0.01713
3633.58270	0.01773
3632.29694	0.01811
3631.01117	0.01758
3629.72540	0.01649
3628.43963	0.01594
3627.15386	0.01636
3625.86809	0.01711
3624.58232	0.01797
3623.29655	0.01884
3622.01079	0.01951
3620.72502	0.01963
3619.43925	0.01966
3618.15348	0.01991
3616.86771	0.02012
3615.58194	0.02013
3614.29617	0.02030
3613.01040	0.02085
3611.72463	0.02119
3610.43887	0.02075
3609.15310	0.01981
3607.86733	0.01935
3606.58156	0.01978
3605.29579	0.02077
3604.01002	0.02176
3602.72425	0.02242
3601.43848	0.02290
3600.15272	0.02333
3598.86695	0.02355
3597.58118	0.02327
3596.29541	0.02275
3595.00964	0.02233
3593.72387	0.02235
3592.43810	0.02300
3591.15233	0.02350
3589.86656	0.02325
3588.58080	0.02283
3587.29503	0.02291
3586.00926	0.02368
3584.72349	0.02461
3583.43772	0.02514
3582.15195	0.02532
3580.86618	0.02545
3579.58041	0.02553
3578.29464	0.02540
3577.00888	0.02510
3575.72311	0.02486
3574.43734	0.02486
3573.15157	0.02512
3571.86580	0.02547
3570.58003	0.02568
3569.29426	0.02568
3568.00849	0.02563
3566.72273	0.02579
3565.43696	0.02624
3564.15119	0.02685
3562.86542	0.02751
3561.57965	0.02811
3560.29388	0.02854
3559.00811	0.02891
3557.72234	0.02942
3556.43657	0.03010
3555.15081	0.03064
3553.86504	0.03082
3552.57927	0.03071
3551.29350	0.03054
3550.00773	0.03031
3548.72196	0.02989
3547.43619	0.02937
3546.15042	0.02902
3544.86466	0.02893
3543.57889	0.02900
3542.29312	0.02916
3541.00735	0.02949
3539.72158	0.03001
3538.43581	0.03062
3537.15004	0.03122
3535.86427	0.03171
3534.57850	0.03194
3533.29274	0.03174
3532.00697	0.03113
3530.72120	0.03043
3529.43543	0.03003
3528.14966	0.03020
3526.86389	0.03092
3525.57812	0.03192
3524.29235	0.03293
3523.00659	0.03373
3521.72082	0.03411
3520.43505	0.03391
3519.14928	0.03327
3517.86351	0.03268
3516.57774	0.03267
3515.29197	0.03331
3514.00620	0.03413
3512.72043	0.03460
3511.43467	0.03458
3510.14890	0.03438
3508.86313	0.03433
3507.57736	0.03440
3506.29159	0.03445
3505.00582	0.03447
3503.72005	0.03468
3502.43428	0.03516
3501.14852	0.03582
3499.86275	0.03645
3498.57698	0.03691
3497.29121	0.03717
3496.00544	0.03732
3494.71967	0.03743
3493.43390	0.03747
3492.14813	0.03736
3490.86236	0.03713
3489.57660	0.03692
3488.29083	0.03690
3487.00506	0.03718
3485.71929	0.03769
3484.43352	0.03826
3483.14775	0.03868
3481.86198	0.03879
3480.57621	0.03859
3479.29045	0.03819
3478.00468	0.03780
3476.71891	0.03765
3475.43314	0.03784
3474.14737	0.03834
3472.86160	0.03895
3471.57583	0.03948
3470.29006	0.03983
3469.00429	0.04008
3467.71853	0.04028
3466.43276	0.04040
3465.14699	0.04035
3463.86122	0.04013
3462.57545	0.03988
3461.28968	0.03971
3460.00391	0.03960
3458.71814	0.03947
3457.43238	0.03940
3456.14661	0.03951
3454.86084	0.03984
3453.57507	0.04029
3452.28930	0.04073
3451.00353	0.04103
3449.71776	0.04115
3448.43199	0.04105
3447.14622	0.04078
3445.86046	0.04045
3444.57469	0.04031
3443.28892	0.04065
3442.00315	0.04152
3440.71738	0.04259
3439.43161	0.04335
3438.14584	0.04355
3436.86007	0.04322
3435.57431	0.04263
3434.28854	0.04207
3433.00277	0.04175
3431.71700	0.04167
3430.43123	0.04171
3429.14546	0.04185
3427.85969	0.04221
3426.57392	0.04289
3425.28815	0.04378
3424.00239	0.04461
3422.71662	0.04507
3421.43085	0.04507
3420.14508	0.04477
3418.85931	0.04447
3417.57354	0.04427
3416.28777	0.04410
3415.00200	0.04382
3413.71624	0.04353
3412.43047	0.04350
3411.14470	0.04393
3409.85893	0.04467
3408.57316	0.04536
3407.28739	0.04584
3406.00162	0.04630
3404.71585	0.04687
3403.43008	0.04732
3402.14432	0.04732
3400.85855	0.04672
3399.57278	0.04576
3398.28701	0.04484
3397.00124	0.04429
3395.71547	0.04428
3394.42970	0.04477
3393.14393	0.04550
3391.85817	0.04617
3390.57240	0.04660
3389.28663	0.04679
3388.00086	0.04685
3386.71509	0.04688
3385.42932	0.04687
3384.14355	0.04676
3382.85778	0.04648
3381.57201	0.04608
3380.28625	0.04573
3379.00048	0.04558
3377.71471	0.04562
3376.42894	0.04576
3375.14317	0.04596
3373.85740	0.04623
3372.57163	0.04660
3371.28586	0.04703
3370.00010	0.04744
3368.71433	0.04775
3367.42856	0.04787
3366.14279	0.04770
3364.85702	0.04725
3363.57125	0.04664
3362.28548	0.04607
3360.99971	0.04574
3359.71394	0.04570
3358.42818	0.04592
3357.14241	0.04629
3355.85664	0.04674
3354.57087	0.04720
3353.28510	0.04751
3351.99933	0.04755
3350.71356	0.04729
3349.42779	0.04692
3348.14202	0.04675
3346.85626	0.04690
3345.57049	0.04718
3344.28472	0.04730
3342.99895	0.04711
3341.71318	0.04675
3340.42741	0.04646
3339.14164	0.04635
3337.85587	0.04642
3336.57011	0.04664
3335.28434	0.04695
3333.99857	0.04732
3332.71280	0.04762
3331.42703	0.04764
3330.14126	0.04719
3328.85549	0.04630
3327.56972	0.04542
3326.28395	0.04510
3324.99819	0.04558
3323.71242	0.04661
3322.42665	0.04771
3321.14088	0.04854
3319.85511	0.04899
3318.56934	0.04907
3317.28357	0.04884
3315.99780	0.04841
3314.71204	0.04796
3313.42627	0.04764
3312.14050	0.04750
3310.85473	0.04751
3309.56896	0.04763
3308.28319	0.04779
3306.99742	0.04788
3305.71165	0.04773
3304.42588	0.04720
3303.14012	0.04637
3301.85435	0.04561
3300.56858	0.04532
3299.28281	0.04559
3297.99704	0.04605
3296.71127	0.04632
3295.42550	0.04638
3294.13973	0.04648
3292.85397	0.04684
3291.56820	0.04733
3290.28243	0.04763
3288.99666	0.04752
3287.71089	0.04702
3286.42512	0.04643
3285.13935	0.04613
3283.85358	0.04624
3282.56781	0.04658
3281.28205	0.04680
3279.99628	0.04669
3278.71051	0.04633
3277.42474	0.04599
3276.13897	0.04592
3274.85320	0.04616
3273.56743	0.04657
3272.28166	0.04695
3270.99590	0.04717
3269.71013	0.04723
3268.42436	0.04718
3267.13859	0.04711
3265.85282	0.04713
3264.56705	0.04726
3263.28128	0.04739
3261.99551	0.04742
3260.70974	0.04732
3259.42398	0.04724
3258.13821	0.04735
3256.85244	0.04763
3255.56667	0.04781
3254.28090	0.04763
3252.99513	0.04710
3251.70936	0.04655
3250.42359	0.04634
3249.13783	0.04653
3247.85206	0.04693
3246.56629	0.04724
3245.28052	0.04733
3243.99475	0.04727
3242.70898	0.04723
3241.42321	0.04724
3240.13744	0.04714
3238.85167	0.04676
3237.56591	0.04620
3236.28014	0.04578
3234.99437	0.04581
3233.70860	0.04630
3232.42283	0.04692
3231.13706	0.04726
3229.85129	0.04718
3228.56552	0.04684
3227.27976	0.04643
3225.99399	0.04607
3224.70822	0.04572
3223.42245	0.04537
3222.13668	0.04501
3220.85091	0.04466
3219.56514	0.04437
3218.27937	0.04418
3216.99360	0.04410
3215.70784	0.04411
3214.42207	0.04429
3213.13630	0.04465
3211.85053	0.04505
3210.56476	0.04525
3209.27899	0.04512
3207.99322	0.04471
3206.70745	0.04426
3205.42169	0.04401
3204.13592	0.04407
3202.85015	0.04431
3201.56438	0.04458
3200.27861	0.04478
3198.99284	0.04493
3197.70707	0.04503
3196.42130	0.04513
3195.13553	0.04532
3193.84977	0.04567
3192.56400	0.04616
3191.27823	0.04662
3189.99246	0.04681
3188.70669	0.04655
3187.42092	0.04589
3186.13515	0.04509
3184.84938	0.04443
3183.56362	0.04404
3182.27785	0.04393
3180.99208	0.04404
3179.70631	0.04429
3178.42054	0.04451
3177.13477	0.04458
3175.84900	0.04452
3174.56323	0.04442
3173.27746	0.04426
3171.99170	0.04399
3170.70593	0.04365
3169.42016	0.04335
3168.13439	0.04325
3166.84862	0.04338
3165.56285	0.04372
3164.27708	0.04407
3162.99131	0.04422
3161.70555	0.04406
3160.41978	0.04373
3159.13401	0.04352
3157.84824	0.04357
3156.56247	0.04375
3155.27670	0.04378
3153.99093	0.04355
3152.70516	0.04320
3151.41939	0.04290
3150.13363	0.04266
3148.84786	0.04243
3147.56209	0.04219
3146.27632	0.04206
3144.99055	0.04213
3143.70478	0.04231
3142.41901	0.04239
3141.13324	0.04221
3139.84748	0.04176
3138.56171	0.04116
3137.27594	0.04062
3135.99017	0.04036
3134.70440	0.04050
3133.41863	0.04101
3132.13286	0.04163
3130.84709	0.04212
3129.56132	0.04240
3128.27556	0.04255
3126.98979	0.04265
3125.70402	0.04266
3124.41825	0.04253
3123.13248	0.04229
3121.84671	0.04204
3120.56094	0.04181
3119.27517	0.04162
3117.98940	0.04157
3116.70364	0.04177
3115.41787	0.04216
3114.13210	0.04247
3112.84633	0.04247
3111.56056	0.04224
3110.27479	0.04205
3108.98902	0.04204
3107.70325	0.04211
3106.41749	0.04210
3105.13172	0.04198
3103.84595	0.04182
3102.56018	0.04170
3101.27441	0.04165
3099.98864	0.04166
3098.70287	0.04167
3097.41710	0.04159
3096.13133	0.04137
3094.84557	0.04106
3093.55980	0.04076
3092.27403	0.04052
3090.98826	0.04042
3089.70249	0.04047
3088.41672	0.04068
3087.13095	0.04093
3085.84518	0.04113
3084.55942	0.04119
3083.27365	0.04105
3081.98788	0.04075
3080.70211	0.04038
3079.41634	0.04008
3078.13057	0.03992
3076.84480	0.03991
3075.55903	0.03997
3074.27326	0.03998
3072.98750	0.03986
3071.70173	0.03956
3070.41596	0.03917
3069.13019	0.03882
3067.84442	0.03864
3066.55865	0.03863
3065.27288	0.03871
3063.98711	0.03884
3062.70135	0.03903
3061.41558	0.03930
3060.12981	0.03956
3058.84404	0.03963
3057.55827	0.03944
3056.27250	0.03907
3054.98673	0.03868
3053.70096	0.03844
3052.41519	0.03831
3051.12943	0.03818
3049.84366	0.03800
3048.55789	0.03779
3047.27212	0.03761
3045.98635	0.03756
3044.70058	0.03763
3043.41481	0.03773
3042.12904	0.03776
3040.84328	0.03770
3039.55751	0.03767
3038.27174	0.03770
3036.98597	0.03769
3035.70020	0.03750
3034.41443	0.03712
3033.12866	0.03676
3031.84289	0.03667
3030.55712	0.03691
3029.27136	0.03732
3027.98559	0.03762
3026.69982	0.03769
3025.41405	0.03754
3024.12828	0.03728
3022.84251	0.03708
3021.55674	0.03708
3020.27097	0.03732
3018.98521	0.03766
3017.69944	0.03789
3016.41367	0.03786
3015.12790	0.03759
3013.84213	0.03721
3012.55636	0.03688
3011.27059	0.03667
3009.98482	0.03662
3008.69905	0.03679
3007.41329	0.03711
3006.12752	0.03744
3004.84175	0.03751
3003.55598	0.03720
3002.27021	0.03665
3000.98444	0.03615
2999.69867	0.03591
2998.41290	0.03597
2997.12714	0.03602
2995.84137	0.03594
2994.55560	0.03582
2993.26983	0.03579
2991.98406	0.03587
2990.69829	0.03598
2989.41252	0.03607
2988.12675	0.03617
2986.84098	0.03630
2985.55522	0.03652
2984.26945	0.03683
2982.98368	0.03722
2981.69791	0.03766
2980.41214	0.03809
2979.12637	0.03845
2977.84060	0.03872
2976.55483	0.03898
2975.26907	0.03927
2973.98330	0.03954
2972.69753	0.03972
2971.41176	0.03979
2970.12599	0.03986
2968.84022	0.04008
2967.55445	0.04048
2966.26868	0.04102
2964.98291	0.04155
2963.69715	0.04193
2962.41138	0.04217
2961.12561	0.04243
2959.83984	0.04288
2958.55407	0.04347
2957.26830	0.04397
2955.98253	0.04424
2954.69676	0.04433
2953.41100	0.04441
2952.12523	0.04459
2950.83946	0.04492
2949.55369	0.04536
2948.26792	0.04580
2946.98215	0.04608
2945.69638	0.04609
2944.41061	0.04583
2943.12484	0.04540
2941.83908	0.04497
2940.55331	0.04480
2939.26754	0.04501
2937.98177	0.04556
2936.69600	0.04620
2935.41023	0.04673
2934.12446	0.04711
2932.83869	0.04743
2931.55293	0.04773
2930.26716	0.04799
2928.98139	0.04822
2927.69562	0.04856
2926.40985	0.04903
2925.12408	0.04952
2923.83831	0.04983
2922.55254	0.04987
2921.26677	0.04971
2919.98101	0.04940
2918.69524	0.04892
2917.40947	0.04826
2916.12370	0.04750
2914.83793	0.04675
2913.55216	0.04611
2912.26639	0.04569
2910.98062	0.04552
2909.69486	0.04555
2908.40909	0.04568
2907.12332	0.04571
2905.83755	0.04548
2904.55178	0.04496
2903.26601	0.04426
2901.98024	0.04355
2900.69447	0.04290
2899.40870	0.04227
2898.12294	0.04172
2896.83717	0.04143
2895.55140	0.04149
2894.26563	0.04172
2892.97986	0.04170
2891.69409	0.04125
2890.40832	0.04056
2889.12255	0.03997
2887.83678	0.03968
2886.55102	0.03959
2885.26525	0.03960
2883.97948	0.03966
2882.69371	0.03967
2881.40794	0.03955
2880.12217	0.03937
2878.83640	0.03935
2877.55063	0.03962
2876.26487	0.04005
2874.97910	0.04036
2873.69333	0.04042
2872.40756	0.04032
2871.12179	0.04027
2869.83602	0.04032
2868.55025	0.04035
2867.26448	0.04026
2865.97871	0.04011
2864.69295	0.04003
2863.40718	0.04008
2862.12141	0.04023
2860.83564	0.04045
2859.54987	0.04068
2858.26410	0.04088
2856.97833	0.04095
2855.69256	0.04084
2854.40680	0.04056
2853.12103	0.04023
2851.83526	0.03996
2850.54949	0.03975
2849.26372	0.03948
2847.97795	0.03906
2846.69218	0.03846
2845.40641	0.03777
2844.12064	0.03710
2842.83488	0.03656
2841.54911	0.03625
2840.26334	0.03617
2838.97757	0.03617
2837.69180	0.03608
2836.40603	0.03584
2835.12026	0.03548
2833.83449	0.03500
2832.54873	0.03445
2831.26296	0.03391
2829.97719	0.03351
2828.69142	0.03329
2827.40565	0.03321
2826.11988	0.03315
2824.83411	0.03301
2823.54834	0.03277
2822.26257	0.03248
2820.97681	0.03218
2819.69104	0.03192
2818.40527	0.03171
2817.11950	0.03156
2815.83373	0.03149
2814.54796	0.03152
2813.26219	0.03163
2811.97642	0.03173
2810.69066	0.03174
2809.40489	0.03162
2808.11912	0.03144
2806.83335	0.03128
2805.54758	0.03113
2804.26181	0.03092
2802.97604	0.03060
2801.69027	0.03024
2800.40450	0.03003
2799.11874	0.03010
2797.83297	0.03041
2796.54720	0.03067
2795.26143	0.03064
2793.97566	0.03029
2792.68989	0.02981
2791.40412	0.02946
2790.11835	0.02938
2788.83259	0.02953
2787.54682	0.02975
2786.26105	0.02987
2784.97528	0.02982
2783.68951	0.02960
2782.40374	0.02931
2781.11797	0.02911
2779.83220	0.02917
2778.54643	0.02942
2777.26067	0.02961
2775.97490	0.02953
2774.68913	0.02928
2773.40336	0.02907
2772.11759	0.02899
2770.83182	0.02894
2769.54605	0.02884
2768.26028	0.02869
2766.97452	0.02862
2765.68875	0.02870
2764.40298	0.02891
2763.11721	0.02911
2761.83144	0.02912
2760.54567	0.02892
2759.25990	0.02866
2757.97413	0.02852
2756.68836	0.02853
2755.40260	0.02859
2754.11683	0.02858
2752.83106	0.02850
2751.54529	0.02842
2750.25952	0.02840
2748.97375	0.02843
2747.68798	0.02845
2746.40221	0.02841
2745.11645	0.02833
2743.83068	0.02823
2742.54491	0.02814
2741.25914	0.02804
2739.97337	0.02790
2738.68760	0.02775
2737.40183	0.02761
2736.11606	0.02754
2734.83029	0.02756
2733.54453	0.02767
2732.25876	0.02776
2730.97299	0.02774
2729.68722	0.02767
2728.40145	0.02768
2727.11568	0.02784
2725.82991	0.02801
2724.54414	0.02796
2723.25838	0.02763
2721.97261	0.02723
2720.68684	0.02702
2719.40107	0.02706
2718.11530	0.02723
2716.82953	0.02738
2715.54376	0.02750
2714.25799	0.02763
2712.97222	0.02775
2711.68646	0.02777
2710.40069	0.02760
2709.11492	0.02729
2707.82915	0.02699
2706.54338	0.02688
2705.25761	0.02699
2703.97184	0.02715
2702.68607	0.02717
2701.40031	0.02701
2700.11454	0.02676
2698.82877	0.02656
2697.54300	0.02648
2696.25723	0.02656
2694.97146	0.02674
2693.68569	0.02694
2692.39992	0.02705
2691.11415	0.02704
2689.82839	0.02688
2688.54262	0.02665
2687.25685	0.02644
2685.97108	0.02630
2684.68531	0.02619
2683.39954	0.02608
2682.11377	0.02597
2680.82800	0.02593
2679.54224	0.02599
2678.25647	0.02610
2676.97070	0.02622
2675.68493	0.02633
2674.39916	0.02639
2673.11339	0.02633
2671.82762	0.02613
2670.54185	0.02592
2669.25608	0.02581
2667.97032	0.02582
2666.68455	0.02588
2665.39878	0.02594
2664.11301	0.02599
2662.82724	0.02606
2661.54147	0.02620
2660.25570	0.02644
2658.96993	0.02670
2657.68417	0.02684
2656.39840	0.02676
2655.11263	0.02654
2653.82686	0.02631
2652.54109	0.02617
2651.25532	0.02606
2649.96955	0.02586
2648.68378	0.02555
2647.39801	0.02527
2646.11225	0.02511
2644.82648	0.02502
2643.54071	0.02485
2642.25494	0.02456
2640.96917	0.02428
2639.68340	0.02412
2638.39763	0.02408
2637.11186	0.02406
2635.82609	0.02402
2634.54033	0.02394
2633.25456	0.02384
2631.96879	0.02375
2630.68302	0.02372
2629.39725	0.02379
2628.11148	0.02386
2626.82571	0.02383
2625.53994	0.02366
2624.25418	0.02340
2622.96841	0.02305
2621.68264	0.02262
2620.39687	0.02222
2619.11110	0.02201
2617.82533	0.02206
2616.53956	0.02231
2615.25379	0.02267
2613.96802	0.02297
2612.68226	0.02303
2611.39649	0.02281
2610.11072	0.02248
2608.82495	0.02225
2607.53918	0.02213
2606.25341	0.02199
2604.96764	0.02176
2603.68187	0.02149
2602.39611	0.02124
2601.11034	0.02103
2599.82457	0.02090
2598.53880	0.02093
2597.25303	0.02111
2595.96726	0.02130
2594.68149	0.02137
2593.39572	0.02136
2592.10995	0.02138
2590.82419	0.02143
2589.53842	0.02139
2588.25265	0.02121
2586.96688	0.02105
2585.68111	0.02111
2584.39534	0.02139
2583.10957	0.02159
2581.82380	0.02145
2580.53804	0.02095
2579.25227	0.02028
2577.96650	0.01964
2576.68073	0.01922
2575.39496	0.01917
2574.10919	0.01954
2572.82342	0.02006
2571.53765	0.02032
2570.25188	0.02012
2568.96612	0.01966
2567.68035	0.01934
2566.39458	0.01934
2565.10881	0.01952
2563.82304	0.01969
2562.53727	0.01988
2561.25150	0.02023
2559.96573	0.02071
2558.67997	0.02101
2557.39420	0.02099
2556.10843	0.02077
2554.82266	0.02059
2553.53689	0.02049
2552.25112	0.02036
2550.96535	0.02011
2549.67958	0.01972
2548.39381	0.01928
2547.10805	0.01889
2545.82228	0.01864
2544.53651	0.01855
2543.25074	0.01858
2541.96497	0.01862
2540.67920	0.01862
2539.39343	0.01859
2538.10766	0.01859
2536.82190	0.01860
2535.53613	0.01858
2534.25036	0.01854
2532.96459	0.01854
2531.67882	0.01861
2530.39305	0.01868
2529.10728	0.01869
2527.82151	0.01866
2526.53574	0.01863
2525.24998	0.01868
2523.96421	0.01887
2522.67844	0.01916
2521.39267	0.01935
2520.10690	0.01928
2518.82113	0.01899
2517.53536	0.01872
2516.24959	0.01863
2514.96383	0.01868
2513.67806	0.01874
2512.39229	0.01877
2511.10652	0.01881
2509.82075	0.01883
2508.53498	0.01871
2507.24921	0.01844
2505.96344	0.01824
2504.67767	0.01837
2503.39191	0.01878
2502.10614	0.01912
2500.82037	0.01908
2499.53460	0.01864
2498.24883	0.01806
2496.96306	0.01765
2495.67729	0.01754
2494.39152	0.01773
2493.10576	0.01816
2491.81999	0.01868
2490.53422	0.01902
2489.24845	0.01909
2487.96268	0.01906
2486.67691	0.01909
2485.39114	0.01909
2484.10537	0.01890
2482.81960	0.01858
2481.53384	0.01833
2480.24807	0.01822
2478.96230	0.01820
2477.67653	0.01817
2476.39076	0.01806
2475.10499	0.01783
2473.81922	0.01756
2472.53345	0.01747
2471.24769	0.01769
2469.96192	0.01814
2468.67615	0.01849
2467.39038	0.01854
2466.10461	0.01835
2464.81884	0.01815
2463.53307	0.01806
2462.24730	0.01810
2460.96153	0.01821
2459.67577	0.01839
2458.39000	0.01864
2457.10423	0.01891
2455.81846	0.01905
2454.53269	0.01895
2453.24692	0.01873
2451.96115	0.01866
2450.67538	0.01882
2449.38962	0.01896
2448.10385	0.01877
2446.81808	0.01828
2445.53231	0.01778
2444.24654	0.01754
2442.96077	0.01759
2441.67500	0.01782
2440.38923	0.01808
2439.10346	0.01825
2437.81770	0.01823
2436.53193	0.01801
2435.24616	0.01774
2433.96039	0.01764
2432.67462	0.01783
2431.38885	0.01819
2430.10308	0.01844
2428.81731	0.01840
2427.53155	0.01807
2426.24578	0.01762
2424.96001	0.01726
2423.67424	0.01714
2422.38847	0.01725
2421.10270	0.01748
2419.81693	0.01764
2418.53116	0.01766
2417.24539	0.01759
2415.95963	0.01752
2414.67386	0.01743
2413.38809	0.01729
2412.10232	0.01720
2410.81655	0.01730
2409.53078	0.01759
2408.24501	0.01792
2406.95924	0.01814
2405.67347	0.01821
2404.38771	0.01810
2403.10194	0.01784
2401.81617	0.01749
2400.53040	0.01723
2399.24463	0.01763
2397.95886	0.01807
2396.67309	0.01830
2395.38732	0.01832
2394.10156	0.01811
2392.81579	0.01772
2391.53002	0.01725
2390.24425	0.01686
2388.95848	0.01667
2387.67271	0.01675
2386.38694	0.01703
2385.10117	0.01733
2383.81540	0.01743
2382.52964	0.01725
2381.24387	0.01692
2379.95810	0.01652
2378.67233	0.01631
2377.38656	0.01655
2376.10079	0.01663
2374.81502	0.01633
2373.52925	0.01589
2372.24349	0.01519
2370.95772	0.01466
2369.67195	0.01357
2368.38618	0.01235
2367.10041	0.01231
2365.81464	0.01299
2364.52887	0.01269
2363.24310	0.01216
2361.95733	0.01279
2360.67157	0.01402
2359.38580	0.01405
2358.10003	0.01351
2356.81426	0.01294
2355.52849	0.01195
2354.24272	0.01127
2352.95695	0.01127
2351.67118	0.01305
2350.38542	0.01723
2349.09965	0.01975
2347.81388	0.01691
2346.52811	0.01238
2345.24234	0.01110
2343.95657	0.01265
2342.67080	0.01381
2341.38503	0.01436
2340.09926	0.01526
2338.81350	0.01602
2337.52773	0.01653
2336.24196	0.01595
2334.95619	0.01516
2333.67042	0.01517
2332.38465	0.01496
2331.09888	0.01490
2329.81311	0.01548
2328.52735	0.01562
2327.24158	0.01593
2325.95581	0.01659
2324.67004	0.01669
2323.38427	0.01664
2322.09850	0.01669
2320.81273	0.01619
2319.52696	0.01589
2318.24119	0.01604
2316.95543	0.01596
2315.66966	0.01559
2314.38389	0.01528
2313.09812	0.01540
2311.81235	0.01578
2310.52658	0.01616
2309.24081	0.01662
2307.95504	0.01696
2306.66928	0.01693
2305.38351	0.01679
2304.09774	0.01659
2302.81197	0.01628
2301.52620	0.01602
2300.24043	0.01596
2298.95466	0.01604
2297.66889	0.01610
2296.38312	0.01605
2295.09736	0.01587
2293.81159	0.01569
2292.52582	0.01559
2291.24005	0.01550
2289.95428	0.01539
2288.66851	0.01524
2287.38274	0.01509
2286.09697	0.01499
2284.81121	0.01499
2283.52544	0.01506
2282.23967	0.01519
2280.95390	0.01536
2279.66813	0.01551
2278.38236	0.01561
2277.09659	0.01560
2275.81082	0.01555
2274.52505	0.01544
2273.23929	0.01520
2271.95352	0.01480
2270.66775	0.01434
2269.38198	0.01394
2268.09621	0.01362
2266.81044	0.01332
2265.52467	0.01292
2264.23890	0.01254
2262.95314	0.01242
2261.66737	0.01273
2260.38160	0.01340
2259.09583	0.01420
2257.81006	0.01471
2256.52429	0.01467
2255.23852	0.01416
2253.95275	0.01356
2252.66698	0.01323
2251.38122	0.01327
2250.09545	0.01352
2248.80968	0.01368
2247.52391	0.01319
2246.23814	0.01254
2244.95237	0.01220
2243.66660	0.01234
2242.38083	0.01278
2241.09507	0.01316
2239.80930	0.01329
2238.52353	0.01316
2237.23776	0.01295
2235.95199	0.01285
2234.66622	0.01282
2233.38045	0.01269
2232.09468	0.01242
2230.80891	0.01221
2229.52315	0.01214
2228.23738	0.01209
2226.95161	0.01200
2225.66584	0.01202
2224.38007	0.01213
2223.09430	0.01200
2221.80853	0.01143
2220.52276	0.01073
2219.23700	0.01048
2217.95123	0.01093
2216.66546	0.01170
2215.37969	0.01212
2214.09392	0.01178
2212.80815	0.01088
2211.52238	0.00997
2210.23661	0.00942
2208.95084	0.00918
2207.66508	0.00906
2206.37931	0.00895
2205.09354	0.00884
2203.80777	0.00869
2202.52200	0.00844
2201.23623	0.00815
2199.95046	0.00793
2198.66469	0.00786
2197.37893	0.00792
2196.09316	0.00814
2194.80739	0.00854
2193.52162	0.00892
2192.23585	0.00891
2190.95008	0.00820
2189.66431	0.00694
2188.37854	0.00574
2187.09277	0.00520
2185.80701	0.00538
2184.52124	0.00574
2183.23547	0.00583
2181.94970	0.00576
2180.66393	0.00588
2179.37816	0.00613
2178.09239	0.00599
2176.80662	0.00509
2175.52085	0.00364
2174.23509	0.00225
2172.94932	0.00147
2171.66355	0.00145
2170.37778	0.00191
2169.09201	0.00240
2167.80624	0.00269
2166.52047	0.00291
2165.23470	0.00339
2163.94894	0.00422
2162.66317	0.00515
2161.37740	0.00569
2160.09163	0.00542
2158.80586	0.00432
2157.52009	0.00294
2156.23432	0.00198
2154.94855	0.00174
2153.66278	0.00201
2152.37702	0.00253
2151.09125	0.00333
2149.80548	0.00453
2148.51971	0.00580
2147.23394	0.00651
2145.94817	0.00638
2144.66240	0.00574
2143.37663	0.00515
2142.09087	0.00505
2140.80510	0.00565
2139.51933	0.00682
2138.23356	0.00792
2136.94779	0.00820
2135.66202	0.00750
2134.37625	0.00638
2133.09048	0.00559
2131.80471	0.00542
2130.51895	0.00579
2129.23318	0.00645
2127.94741	0.00715
2126.66164	0.00772
2125.37587	0.00804
2124.09010	0.00813
2122.80433	0.00808
2121.51856	0.00805
2120.23280	0.00818
2118.94703	0.00844
2117.66126	0.00859
2116.37549	0.00846
2115.08972	0.00817
2113.80395	0.00799
2112.51818	0.00800
2111.23241	0.00804
2109.94664	0.00801
2108.66088	0.00804
2107.37511	0.00832
2106.08934	0.00882
2104.80357	0.00922
2103.51780	0.00928
2102.23203	0.00902
2100.94626	0.00865
2099.66049	0.00856
2098.37473	0.00808
2097.08896	0.00730
2095.80319	0.00669
2094.51742	0.00664
2093.23165	0.00717
2091.94588	0.00787
2090.66011	0.00823
2089.37434	0.00807
2088.08857	0.00764
2086.80281	0.00732
2085.51704	0.00718
2084.23127	0.00701
2082.94550	0.00677
2081.65973	0.00672
2080.37396	0.00709
2079.08819	0.00769
2077.80242	0.00800
2076.51666	0.00780
2075.23089	0.00731
2073.94512	0.00687
2072.65935	0.00660
2071.37358	0.00636
2070.08781	0.00603
2068.80204	0.00565
2067.51627	0.00535
2066.23050	0.00522
2064.94474	0.00528
2063.65897	0.00551
2062.37320	0.00581
2061.08743	0.00609
2059.80166	0.00626
2058.51589	0.00621
2057.23012	0.00580
2055.94435	0.00495
2054.65859	0.00399
2053.37282	0.00354
2052.08705	0.00397
2050.80128	0.00495
2049.51551	0.00574
2048.22974	0.00578
2046.94397	0.00497
2045.65820	0.00352
2044.37243	0.00186
2043.08667	0.00061
2041.80090	0.00034
2040.51513	0.00116
2039.22936	0.00253
2037.94359	0.00372
2036.65782	0.00441
2035.37205	0.00478
2034.08628	0.00507
2032.80052	0.00512
2031.51475	0.00455
2030.22898	0.00333
2028.94321	0.00189
2027.65744	0.00085
2026.37167	0.00058
2025.08590	0.00114
2023.80013	0.00221
2022.51436	0.00334
2021.22860	0.00417
2019.94283	0.00461
2018.65706	0.00475
2017.37129	0.00475
2016.08552	0.00475
2014.79975	0.00484
2013.51398	0.00516
2012.22821	0.00578
2010.94245	0.00648
2009.65668	0.00667
2008.37091	0.00594
2007.08514	0.00459
2005.79937	0.00342
2004.51360	0.00295
2003.22783	0.00299
2001.94206	0.00308
2000.65629	0.00308
1999.37053	0.00319
1998.08476	0.00363
1996.79899	0.00431
1995.51322	0.00497
1994.22745	0.00538
1992.94168	0.00566
1991.65591	0.00605
1990.37014	0.00664
1989.08438	0.00725
1987.79861	0.00768
1986.51284	0.00776
1985.22707	0.00750
1983.94130	0.00714
1982.65553	0.00703
1981.36976	0.00727
1980.08399	0.00761
1978.79822	0.00774
1977.51246	0.00756
1976.22669	0.00724
1974.94092	0.00695
1973.65515	0.00680
1972.36938	0.00680
1971.08361	0.00703
1969.79784	0.00747
1968.51207	0.00804
1967.22631	0.00849
1965.94054	0.00863
1964.65477	0.00839
1963.36900	0.00797
1962.08323	0.00773
1960.79746	0.00794
1959.51169	0.00843
1958.22592	0.00874
1956.94015	0.00851
1955.65439	0.00789
1954.36862	0.00739
1953.08285	0.00740
1951.79708	0.00790
1950.51131	0.00859
1949.22554	0.00916
1947.93977	0.00943
1946.65400	0.00939
1945.36823	0.00911
1944.08247	0.00887
1942.79670	0.00900
1941.51093	0.00961
1940.22516	0.01035
1938.93939	0.01079
1937.65362	0.01081
1936.36785	0.01058
1935.08208	0.01031
1933.79632	0.01002
1932.51055	0.00973
1931.22478	0.00945
1929.93901	0.00923
1928.65324	0.00905
1927.36747	0.00888
1926.08170	0.00869
1924.79593	0.00845
1923.51016	0.00825
1922.22440	0.00827
1920.93863	0.00852
1919.65286	0.00884
1918.36709	0.00911
1917.08132	0.00931
1915.79555	0.00945
1914.50978	0.00960
1913.22401	0.00980
1911.93825	0.00993
1910.65248	0.00982
1909.36671	0.00949
1908.08094	0.00922
1906.79517	0.00920
1905.50940	0.00942
1904.22363	0.00970
1902.93786	0.00994
1901.65209	0.01016
1900.36633	0.01043
1899.08056	0.01075
1897.79479	0.01095
1896.50902	0.01088
1895.22325	0.01058
1893.93748	0.01024
1892.65171	0.01001
1891.36594	0.00994
1890.08018	0.01005
1888.79441	0.01031
1887.50864	0.01061
1886.22287	0.01081
1884.93710	0.01087
1883.65133	0.01083
1882.36556	0.01068
1881.07979	0.01045
1879.79402	0.01024
1878.50826	0.01016
1877.22249	0.01024
1875.93672	0.01046
1874.65095	0.01080
1873.36518	0.01122
1872.07941	0.01156
1870.79364	0.01166
1869.50787	0.01154
1868.22211	0.01135
1866.93634	0.01118
1865.65057	0.01100
1864.36480	0.01083
1863.07903	0.01075
1861.79326	0.01076
1860.50749	0.01079
1859.22172	0.01075
1857.93595	0.01067
1856.65019	0.01062
1855.36442	0.01064
1854.07865	0.01067
1852.79288	0.01064
1851.50711	0.01056
1850.22134	0.01054
1848.93557	0.01072
1847.64980	0.01105
1846.36404	0.01124
1845.07827	0.01118
1843.79250	0.01111
1842.50673	0.01120
1841.22096	0.01127
1839.93519	0.01119
1838.64942	0.01104
1837.36365	0.01094
1836.07788	0.01088
1834.79212	0.01086
1833.50635	0.01090
1832.22058	0.01097
1830.93481	0.01103
1829.64904	0.01109
1828.36327	0.01108
1827.07750	0.01087
1825.79173	0.01057
1824.50597	0.01050
1823.22020	0.01072
1821.93443	0.01099
1820.64866	0.01109
1819.36289	0.01096
1818.07712	0.01076
1816.79135	0.01068
1815.50558	0.01081
1814.21981	0.01105
1812.93405	0.01122
1811.64828	0.01130
1810.36251	0.01135
1809.07674	0.01137
1807.79097	0.01136
1806.50520	0.01130
1805.21943	0.01126
1803.93366	0.01122
1802.64790	0.01116
1801.36213	0.01110
1800.07636	0.01108
1798.79059	0.01113
1797.50482	0.01125
1796.21905	0.01141
1794.93328	0.01151
1793.64751	0.01151
1792.36174	0.01157
1791.07598	0.01180
1789.79021	0.01204
1788.50444	0.01205
1787.21867	0.01183
1785.93290	0.01159
1784.64713	0.01152
1783.36136	0.01163
1782.07559	0.01174
1780.78983	0.01179
1779.50406	0.01187
1778.21829	0.01207
1776.93252	0.01237
1775.64675	0.01263
1774.36098	0.01264
1773.07521	0.01252
1771.78944	0.01259
1770.50367	0.01281
1769.21791	0.01289
1767.93214	0.01286
1766.64637	0.01296
1765.36060	0.01310
1764.07483	0.01306
1762.78906	0.01290
1761.50329	0.01289
1760.21752	0.01305
1758.93176	0.01311
1757.64599	0.01300
1756.36022	0.01298
1755.07445	0.01314
1753.78868	0.01322
1752.50291	0.01308
1751.21714	0.01292
1749.93137	0.01292
1748.64560	0.01298
1747.35984	0.01298
1746.07407	0.01299
1744.78830	0.01307
1743.50253	0.01320
1742.21676	0.01328
1740.93099	0.01329
1739.64522	0.01347
1738.35945	0.01396
1737.07369	0.01432
1735.78792	0.01417
1734.50215	0.01389
1733.21638	0.01407
1731.93061	0.01453
1730.64484	0.01467
1729.35907	0.01443
1728.07330	0.01422
1726.78753	0.01419
1725.50177	0.01426
1724.21600	0.01441
1722.93023	0.01471
1721.64446	0.01512
1720.35869	0.01538
1719.07292	0.01541
1717.78715	0.01551
1716.50138	0.01591
1715.21561	0.01637
1713.92985	0.01658
1712.64408	0.01658
1711.35831	0.01655
1710.07254	0.01660
1708.78677	0.01673
1707.50100	0.01689
1706.21523	0.01720
1704.92946	0.01787
1703.64370	0.01861
1702.35793	0.01887
1701.07216	0.01880
1699.78639	0.01914
1698.50062	0.01973
1697.21485	0.01976
1695.92908	0.01939
1694.64331	0.01941
1693.35754	0.01977
1692.07178	0.01989
1690.78601	0.01987
1689.50024	0.02018
1688.21447	0.02077
1686.92870	0.02105
1685.64293	0.02085
1684.35716	0.02077
1683.07139	0.02115
1681.78563	0.02156
1680.49986	0.02165
1679.21409	0.02168
1677.92832	0.02179
1676.64255	0.02187
1675.35678	0.02207
1674.07101	0.02258
1672.78524	0.02310
1671.49947	0.02328
1670.21371	0.02322
1668.92794	0.02331
1667.64217	0.02367
1666.35640	0.02400
1665.07063	0.02407
1663.78486	0.02397
1662.49909	0.02400
1661.21332	0.02425
1659.92756	0.02464
1658.64179	0.02519
1657.35602	0.02592
1656.07025	0.02639
1654.78448	0.02616
1653.49871	0.02575
1652.21294	0.02607
1650.92717	0.02691
1649.64140	0.02727
1648.35564	0.02682
1647.06987	0.02625
1645.78410	0.02612
1644.49833	0.02632
1643.21256	0.02645
1641.92679	0.02644
1640.64102	0.02652
1639.35525	0.02678
1638.06949	0.02692
1636.78372	0.02682
1635.49795	0.02677
1634.21218	0.02699
1632.92641	0.02725
1631.64064	0.02727
1630.35487	0.02714
1629.06910	0.02715
1627.78333	0.02735
1626.49757	0.02761
1625.21180	0.02770
1623.92603	0.02766
1622.64026	0.02775
1621.35449	0.02804
1620.06872	0.02823
1618.78295	0.02806
1617.49718	0.02777
1616.21142	0.02783
1614.92565	0.02822
1613.63988	0.02847
1612.35411	0.02841
1611.06834	0.02836
1609.78257	0.02851
1608.49680	0.02877
1607.21103	0.02899
1605.92526	0.02913
1604.63950	0.02921
1603.35373	0.02928
1602.06796	0.02937
1600.78219	0.02945
1599.49642	0.02953
1598.21065	0.02961
1596.92488	0.02969
1595.63911	0.02978
1594.35335	0.02989
1593.06758	0.03001
1591.78181	0.03011
1590.49604	0.03019
1589.21027	0.03030
1587.92450	0.03045
1586.63873	0.03062
1585.35296	0.03079
1584.06719	0.03092
1582.78143	0.03107
1581.49566	0.03134
1580.20989	0.03172
1578.92412	0.03196
1577.63835	0.03186
1576.35258	0.03178
1575.06681	0.03216
1573.78104	0.03279
1572.49528	0.03309
1571.20951	0.03297
1569.92374	0.03283
1568.63797	0.03297
1567.35220	0.03322
1566.06643	0.03341
1564.78066	0.03373
1563.49489	0.03429
1562.20912	0.03471
1560.92336	0.03465
1559.63759	0.03445
1558.35182	0.03471
1557.06605	0.03524
1555.78028	0.03538
1554.49451	0.03512
1553.20874	0.03497
1551.92297	0.03506
1550.63721	0.03516
1549.35144	0.03526
1548.06567	0.03543
1546.77990	0.03561
1545.49413	0.03579
1544.20836	0.03604
1542.92259	0.03622
1541.63682	0.03610
1540.35105	0.03584
1539.06529	0.03585
1537.77952	0.03617
1536.49375	0.03628
1535.20798	0.03593
1533.92221	0.03551
1532.63644	0.03549
1531.35067	0.03579
1530.06490	0.03610
1528.77914	0.03632
1527.49337	0.03661
1526.20760	0.03711
1524.92183	0.03777
1523.63606	0.03833
1522.35029	0.03874
1521.06452	0.03933
1519.77875	0.04019
1518.49298	0.04094
1517.20722	0.04144
1515.92145	0.04200
1514.63568	0.04275
1513.34991	0.04362
1512.06414	0.04467
1510.77837	0.04591
1509.49260	0.04705
1508.20683	0.04782
1506.92107	0.04847
1505.63530	0.04944
1504.34953	0.05062
1503.06376	0.05153
1501.77799	0.05210
1500.49222	0.05263
1499.20645	0.05324
1497.92068	0.05382
1496.63491	0.05443
1495.34915	0.05522
1494.06338	0.05607
1492.77761	0.05672
1491.49184	0.05716
1490.20607	0.05768
1488.92030	0.05836
1487.63453	0.05913
1486.34876	0.05991
1485.06299	0.06073
1483.77723	0.06160
1482.49146	0.06253
1481.20569	0.06356
1479.91992	0.06466
1478.63415	0.06573
1477.34838	0.06673
1476.06261	0.06769
1474.77684	0.06851
1473.49108	0.06918
1472.20531	0.06986
1470.91954	0.07060
1469.63377	0.07126
1468.34800	0.07165
1467.06223	0.07181
1465.77646	0.07190
1464.49069	0.07213
1463.20492	0.07258
1461.91916	0.07315
1460.63339	0.07368
1459.34762	0.07398
1458.06185	0.07409
1456.77608	0.07436
1455.49031	0.07492
1454.20454	0.07538
1452.91877	0.07548
1451.63301	0.07538
1450.34724	0.07531
1449.06147	0.07522
1447.77570	0.07504
1446.48993	0.07477
1445.20416	0.07440
1443.91839	0.07394
1442.63262	0.07351
1441.34685	0.07324
1440.06109	0.07305
1438.77532	0.07276
1437.48955	0.07242
1436.20378	0.07238
1434.91801	0.07270
1433.63224	0.07314
1432.34647	0.07355
1431.06070	0.07410
1429.77494	0.07491
1428.48917	0.07596
1427.20340	0.07708
1425.91763	0.07820
1424.63186	0.07935
1423.34609	0.08059
1422.06032	0.08172
1420.77455	0.08256
1419.48878	0.08332
1418.20302	0.08418
1416.91725	0.08500
1415.63148	0.08549
1414.34571	0.08565
1413.05994	0.08561
1411.77417	0.08544
1410.48840	0.08511
1409.20263	0.08463
1407.91687	0.08396
1406.63110	0.08309
1405.34533	0.08206
1404.05956	0.08097
1402.77379	0.07978
1401.48802	0.07842
1400.20225	0.07691
1398.91648	0.07537
1397.63071	0.07385
1396.34495	0.07223
1395.05918	0.07052
1393.77341	0.06888
1392.48764	0.06736
1391.20187	0.06580
1389.91610	0.06411
1388.63033	0.06237
1387.34456	0.06071
1386.05880	0.05923
1384.77303	0.05782
1383.48726	0.05639
1382.20149	0.05498
1380.91572	0.05361
1379.62995	0.05224
1378.34418	0.05083
1377.05841	0.04934
1375.77264	0.04778
1374.48688	0.04620
1373.20111	0.04470
1371.91534	0.04326
1370.62957	0.04181
1369.34380	0.04039
1368.05803	0.03913
1366.77226	0.03805
1365.48649	0.03703
1364.20073	0.03593
1362.91496	0.03480
1361.62919	0.03376
1360.34342	0.03285
1359.05765	0.03202
1357.77188	0.03120
1356.48611	0.03040
1355.20034	0.02963
1353.91457	0.02892
1352.62881	0.02829
1351.34304	0.02773
1350.05727	0.02723
1348.77150	0.02678
1347.48573	0.02633
1346.19996	0.02589
1344.91419	0.02545
1343.62842	0.02503
1342.34266	0.02460
1341.05689	0.02418
1339.77112	0.02381
1338.48535	0.02354
1337.19958	0.02334
1335.91381	0.02315
1334.62804	0.02295
1333.34227	0.02271
1332.05650	0.02244
1330.77074	0.02215
1329.48497	0.02187
1328.19920	0.02162
1326.91343	0.02140
1325.62766	0.02121
1324.34189	0.02104
1323.05612	0.02088
1321.77035	0.02072
1320.48459	0.02053
1319.19882	0.02033
1317.91305	0.02014
1316.62728	0.01997
1315.34151	0.01983
1314.05574	0.01972
1312.76997	0.01965
1311.48420	0.01961
1310.19843	0.01956
1308.91267	0.01947
1307.62690	0.01936
1306.34113	0.01924
1305.05536	0.01910
1303.76959	0.01897
1302.48382	0.01882
1301.19805	0.01868
1299.91228	0.01853
1298.62652	0.01841
1297.34075	0.01831
1296.05498	0.01823
1294.76921	0.01815
1293.48344	0.01807
1292.19767	0.01801
1290.91190	0.01795
1289.62613	0.01786
1288.34036	0.01776
1287.05460	0.01766
1285.76883	0.01758
1284.48306	0.01749
1283.19729	0.01740
1281.91152	0.01733
1280.62575	0.01728
1279.33998	0.01723
1278.05421	0.01715
1276.76845	0.01702
1275.48268	0.01684
1274.19691	0.01666
1272.91114	0.01655
1271.62537	0.01652
1270.33960	0.01654
1269.05383	0.01653
1267.76806	0.01646
1266.48229	0.01636
1265.19653	0.01624
1263.91076	0.01614
1262.62499	0.01606
1261.33922	0.01598
1260.05345	0.01588
1258.76768	0.01577
1257.48191	0.01566
1256.19614	0.01561
1254.91037	0.01563
1253.62461	0.01570
1252.33884	0.01576
1251.05307	0.01576
1249.76730	0.01570
1248.48153	0.01558
1247.19576	0.01544
1245.90999	0.01530
1244.62422	0.01519
1243.33846	0.01510
1242.05269	0.01504
1240.76692	0.01498
1239.48115	0.01492
1238.19538	0.01485
1236.90961	0.01480
1235.62384	0.01477
1234.33807	0.01476
1233.05230	0.01473
1231.76654	0.01469
1230.48077	0.01465
1229.19500	0.01461
1227.90923	0.01458
1226.62346	0.01455
1225.33769	0.01449
1224.05192	0.01442
1222.76615	0.01436
1221.48039	0.01431
1220.19462	0.01426
1218.90885	0.01420
1217.62308	0.01414
1216.33731	0.01410
1215.05154	0.01407
1213.76577	0.01403
1212.48000	0.01398
1211.19423	0.01395
1209.90847	0.01396
1208.62270	0.01402
1207.33693	0.01411
1206.05116	0.01417
1204.76539	0.01418
1203.47962	0.01413
1202.19385	0.01404
1200.90808	0.01393
1199.62232	0.01379
1198.33655	0.01373
1197.05078	0.01369
1195.76501	0.01365
1194.47924	0.01360
1193.19347	0.01353
1191.90770	0.01347
1190.62193	0.01347
1189.33616	0.01353
1188.05040	0.01362
1186.76463	0.01370
1185.47886	0.01377
1184.19309	0.01383
1182.90732	0.01388
1181.62155	0.01395
1180.33578	0.01401
1179.05001	0.01406
1177.76425	0.01407
1176.47848	0.01407
1175.19271	0.01408
1173.90694	0.01413
1172.62117	0.01421
1171.33540	0.01426
1170.04963	0.01432
1168.76386	0.01444
1167.47809	0.01466
1166.19233	0.01495
1164.90656	0.01526
1163.62079	0.01553
1162.33502	0.01574
1161.04925	0.01591
1159.76348	0.01607
1158.47771	0.01627
1157.19194	0.01655
1155.90618	0.01689
1154.62041	0.01726
1153.33464	0.01764
1152.04887	0.01803
1150.76310	0.01843
1149.47733	0.01884
1148.19156	0.01925
1146.90579	0.01971
1145.62002	0.02027
1144.33426	0.02094
1143.04849	0.02172
1141.76272	0.02254
1140.47695	0.02339
1139.19118	0.02430
1137.90541	0.02539
1136.61964	0.02671
1135.33387	0.02820
1134.04811	0.02974
1132.76234	0.03131
1131.47657	0.03299
1130.19080	0.03487
1128.90503	0.03699
1127.61926	0.03935
1126.33349	0.04195
1125.04772	0.04478
1123.76195	0.04783
1122.47619	0.05103
1121.19042	0.05433
1119.90465	0.05771
1118.61888	0.06112
1117.33311	0.06450
1116.04734	0.06785
1114.76157	0.07120
1113.47580	0.07455
1112.19004	0.07787
1110.90427	0.08107
1109.61850	0.08413
1108.33273	0.08708
1107.04696	0.08996
1105.76119	0.09274
1104.47542	0.09537
1103.18965	0.09783
1101.90388	0.10018
1100.61812	0.10252
1099.33235	0.10488
1098.04658	0.10723
1096.76081	0.10952
1095.47504	0.11170
1094.18927	0.11376
1092.90350	0.11572
1091.61773	0.11757
1090.33197	0.11931
1089.04620	0.12095
1087.76043	0.12255
1086.47466	0.12419
1085.18889	0.12596
1083.90312	0.12788
1082.61735	0.12988
1081.33158	0.13195
1080.04581	0.13406
1078.76005	0.13626
1077.47428	0.13860
1076.18851	0.14111
1074.90274	0.14380
1073.61697	0.14666
1072.33120	0.14967
1071.04543	0.15281
1069.75966	0.15601
1068.47390	0.15920
1067.18813	0.16235
1065.90236	0.16544
1064.61659	0.16854
1063.33082	0.17170
1062.04505	0.17495
1060.75928	0.17825
1059.47351	0.18153
1058.18774	0.18479
1056.90198	0.18803
1055.61621	0.19128
1054.33044	0.19455
1053.04467	0.19780
1051.75890	0.20102
1050.47313	0.20424
1049.18736	0.20751
1047.90159	0.21088
1046.61583	0.21439
1045.33006	0.21803
1044.04429	0.22174
1042.75852	0.22549
1041.47275	0.22928
1040.18698	0.23312
1038.90121	0.23698
1037.61544	0.24080
1036.32967	0.24453
1035.04391	0.24809
1033.75814	0.25141
1032.47237	0.25438
1031.18660	0.25693
1029.90083	0.25904
1028.61506	0.26074
1027.32929	0.26209
1026.04352	0.26309
1024.75775	0.26368
1023.47199	0.26381
1022.18622	0.26343
1020.90045	0.26257
1019.61468	0.26124
1018.32891	0.25937
1017.04314	0.25688
1015.75737	0.25372
1014.47160	0.24991
1013.18584	0.24553
1011.90007	0.24060
1010.61430	0.23515
1009.32853	0.22925
1008.04276	0.22295
1006.75699	0.21624
1005.47122	0.20910
1004.18545	0.20159
1002.89968	0.19388
1001.61392	0.18606
1000.32815	0.17819
999.04238	0.17030
997.75661	0.16242
996.47084	0.15459
995.18507	0.14685
993.89930	0.13929
992.61353	0.13205
991.32777	0.12522
990.04200	0.11880
988.75623	0.11277
987.47046	0.10708
986.18469	0.10177
984.89892	0.09684
983.61315	0.09230
982.32738	0.08816
981.04161	0.08443
979.75585	0.08111
978.47008	0.07817
977.18431	0.07558
975.89854	0.07337
974.61277	0.07157
973.32700	0.07019
972.04123	0.06921
970.75546	0.06859
969.46970	0.06838
968.18393	0.06864
966.89816	0.06935
965.61239	0.07039
964.32662	0.07154
963.04085	0.07254
961.75508	0.07317
960.46931	0.07327
959.18354	0.07276
957.89778	0.07164
956.61201	0.06998
955.32624	0.06794
954.04047	0.06575
952.75470	0.06358
951.46893	0.06149
950.18316	0.05945
948.89739	0.05747
947.61163	0.05560
946.32586	0.05382
945.04009	0.05207
943.75432	0.05034
942.46855	0.04869
941.18278	0.04725
939.89701	0.04604
938.61124	0.04496
937.32547	0.04394
936.03971	0.04296
934.75394	0.04208
933.46817	0.04131
932.18240	0.04060
930.89663	0.03990
929.61086	0.03916
928.32509	0.03840
927.03932	0.03768
925.75356	0.03706
924.46779	0.03656
923.18202	0.03616
921.89625	0.03582
920.61048	0.03550
919.32471	0.03517
918.03894	0.03483
916.75317	0.03451
915.46740	0.03422
914.18164	0.03393
912.89587	0.03362
911.61010	0.03325
910.32433	0.03286
909.03856	0.03250
907.75279	0.03226
906.46702	0.03214
905.18125	0.03211
903.89549	0.03208
902.60972	0.03198
901.32395	0.03185
900.03818	0.03175
898.75241	0.03168
897.46664	0.03161
896.18087	0.03149
894.89510	0.03140
893.60933	0.03138
892.32357	0.03148
891.03780	0.03170
889.75203	0.03210
888.46626	0.03274
887.18049	0.03364
885.89472	0.03486
884.60895	0.03651
883.32318	0.03866
882.03742	0.04118
880.75165	0.04372
879.46588	0.04585
878.18011	0.04739
876.89434	0.04852
875.60857	0.04954
874.32280	0.05056
873.03703	0.05136
871.75126	0.05158
870.46550	0.05101
869.17973	0.04970
867.89396	0.04787
866.60819	0.04576
865.32242	0.04359
864.03665	0.04152
862.75088	0.03968
861.46511	0.03814
860.17935	0.03686
858.89358	0.03576
857.60781	0.03481
856.32204	0.03400
855.03627	0.03334
853.75050	0.03279
852.46473	0.03233
851.17896	0.03192
849.89319	0.03156
848.60743	0.03123
847.32166	0.03094
846.03589	0.03067
844.75012	0.03043
843.46435	0.03023
842.17858	0.03003
840.89281	0.02981
839.60704	0.02958
838.32128	0.02941
837.03551	0.02933
835.74974	0.02931
834.46397	0.02923
833.17820	0.02907
831.89243	0.02889
830.60666	0.02878
829.32089	0.02870
828.03512	0.02860
826.74936	0.02846
825.46359	0.02835
824.17782	0.02832
822.89205	0.02835
821.60628	0.02835
820.32051	0.02832
819.03474	0.02830
817.74897	0.02829
816.46321	0.02825
815.17744	0.02813
813.89167	0.02796
812.60590	0.02784
811.32013	0.02781
810.03436	0.02779
808.74859	0.02772
807.46282	0.02763
806.17705	0.02761
804.89129	0.02764
803.60552	0.02768
802.31975	0.02772
801.03398	0.02776
799.74821	0.02784
798.46244	0.02791
797.17667	0.02793
795.89090	0.02786
794.60513	0.02776
793.31937	0.02772
792.03360	0.02778
790.74783	0.02785
789.46206	0.02782
788.17629	0.02770
786.89052	0.02757
785.60475	0.02748
784.31898	0.02737
783.03322	0.02722
781.74745	0.02709
780.46168	0.02709
779.17591	0.02719
777.89014	0.02729
776.60437	0.02728
775.31860	0.02719
774.03283	0.02711
772.74706	0.02711
771.46130	0.02718
770.17553	0.02728
768.88976	0.02738
767.60399	0.02747
766.31822	0.02753
765.03245	0.02759
763.74668	0.02765
762.46091	0.02771
761.17515	0.02779
759.88938	0.02789
758.60361	0.02797
757.31784	0.02797
756.03207	0.02788
754.74630	0.02772
753.46053	0.02754
752.17476	0.02740
750.88899	0.02738
749.60323	0.02750
748.31746	0.02769
747.03169	0.02784
745.74592	0.02788
744.46015	0.02783
743.17438	0.02775
741.88861	0.02769
740.60284	0.02765
739.31708	0.02763
738.03131	0.02763
736.74554	0.02766
735.45977	0.02769
734.17400	0.02773
732.88823	0.02779
731.60246	0.02789
730.31669	0.02803
729.03092	0.02818
727.74516	0.02826
726.45939	0.02824
725.17362	0.02811
723.88785	0.02796
722.60208	0.02798
721.31631	0.02801
720.03054	0.02815
718.74477	0.02842
717.45901	0.02848
716.17324	0.02836
714.88747	0.02819
713.60170	0.02804
712.31593	0.02790
711.03016	0.02780
709.74439	0.02773
708.45862	0.02769
707.17285	0.02769
705.88709	0.02771
704.60132	0.02773
703.31555	0.02772
702.02978	0.02769
700.74401	0.02766
699.45824	0.02767
698.17247	0.02774
696.88670	0.02787
695.60094	0.02803
694.31517	0.02821
693.02940	0.02838
691.74363	0.02850
690.45786	0.02859
689.17209	0.02865
687.88632	0.02866
686.60055	0.02862
685.31478	0.02854
684.02902	0.02846
682.74325	0.02841
681.45748	0.02838
680.17171	0.02833
678.88594	0.02824
677.60017	0.02813
676.31440	0.02803
675.02863	0.02806
673.74287	0.02857
672.45710	0.02992
671.17133	0.03142
669.88556	0.03060
668.59979	0.02715
667.31402	0.02736
666.02825	0.03031
664.74248	0.03038
663.45671	0.02882
662.17095	0.02776
660.88518	0.02742
659.59941	0.02743
658.31364	0.02752
657.02787	0.02760
655.74210	0.02764
654.45633	0.02768
653.17056	0.02773
651.88480	0.02780
650.59903	0.02788
649.31326	0.02793
648.02749	0.02802
646.74172	0.02808
645.45595	0.02808
644.17018	0.02810
642.88441	0.02818
641.59864	0.02832
640.31288	0.02850
639.02711	0.02871
637.74134	0.02895
636.45557	0.02922
635.16980	0.02950
633.88403	0.02981
632.59826	0.03020
631.31249	0.03080
630.02673	0.03175
628.74096	0.03278
627.45519	0.03337
626.16942	0.03484
624.88365	0.03648
623.59788	0.03760
622.31211	0.03872
621.02634	0.04080
619.74057	0.04398
618.45481	0.04766
617.16904	0.05143
615.88327	0.05526
614.59750	0.05923
613.31173	0.06348
612.02596	0.06834
610.74019	0.07410
609.45442	0.08037
608.16866	0.08612
606.88289	0.09067
605.59712	0.09418
604.31135	0.09685
603.02558	0.09839
601.73981	0.09833
600.45404	0.09657
599.16827	0.09350
597.88250	0.08975
596.59674	0.08597
595.31097	0.08259
594.02520	0.07975
592.73943	0.07743
591.45366	0.07567
590.16789	0.07463
588.88212	0.07445
587.59635	0.07503
586.31059	0.07615
585.02482	0.07765
583.73905	0.07954
582.45328	0.08185
581.16751	0.08451
579.88174	0.08735
578.59597	0.09025
577.31020	0.09314
576.02443	0.09591
574.73867	0.09842
573.45290	0.10063
572.16713	0.10270
570.88136	0.10500
569.59559	0.10790
568.30982	0.11155
567.02405	0.11571
565.73828	0.11984
564.45251	0.12330
563.16675	0.12552
561.88098	0.12605
560.59521	0.12456
559.30944	0.12094
558.02367	0.11551
556.73790	0.10892
555.45213	0.10188
554.16636	0.09484
552.88060	0.08807
551.59483	0.08173
550.30906	0.07599
549.02329	0.07095
547.73752	0.06663
546.45175	0.06293
545.16598	0.05970
543.88021	0.05676
542.59444	0.05405
541.30868	0.05163
540.02291	0.04957
538.73714	0.04784
537.45137	0.04630
536.16560	0.04483
534.87983	0.04338
533.59406	0.04198
532.30829	0.04069
531.02253	0.03954
529.73676	0.03852
528.45099	0.03755
527.16522	0.03660
525.87945	0.03569
524.59368	0.03489
523.30791	0.03417
522.02214	0.03346
520.73637	0.03277
519.45061	0.03216
518.16484	0.03166
516.87907	0.03117
515.59330	0.03059
514.30753	0.02992
513.02176	0.02930
511.73599	0.02890
510.45022	0.02871
509.16446	0.02858
507.87869	0.02838
506.59292	0.02808
505.30715	0.02768
504.02138	0.02721
502.73561	0.02672
501.44984	0.02624
500.16407	0.02581
498.87830	0.02545
497.59254	0.02515
496.30677	0.02494
495.02100	0.02481
493.73523	0.02477
492.44946	0.02482
491.16369	0.02488
489.87792	0.02487
488.59215	0.02474
487.30639	0.02455
486.02062	0.02439
484.73485	0.02427
483.44908	0.02423
482.16331	0.02429
480.87754	0.02446
479.59177	0.02475
478.30600	0.02507
477.02023	0.02536
475.73447	0.02559
474.44870	0.02577
473.16293	0.02591
471.87716	0.02602
470.59139	0.02605
469.30562	0.02601
468.01985	0.02591
466.73408	0.02579
465.44832	0.02563
464.16255	0.02540
462.87678	0.02511
461.59101	0.02482
460.30524	0.02461
459.01947	0.02450
457.73370	0.02445
456.44793	0.02439
455.16216	0.02422
453.87640	0.02396
452.59063	0.02371
451.30486	0.02352
450.01909	0.02338
448.73332	0.02324
447.44755	0.02311
446.16178	0.02299
444.87601	0.02288
443.59025	0.02281
442.30448	0.02278
441.01871	0.02279
439.73294	0.02278
438.44717	0.02274
437.16140	0.02267
435.87563	0.02263
434.58986	0.02263
433.30409	0.02267
432.01833	0.02273
430.73256	0.02280
429.44679	0.02283
428.16102	0.02280
426.87525	0.02273
425.58948	0.02269
424.30371	0.02269
423.01794	0.02273
421.73218	0.02276
420.44641	0.02273
419.16064	0.02271
417.87487	0.02276
416.58910	0.02282
415.30333	0.02281
414.01756	0.02275
412.73179	0.02269
411.44602	0.02265
410.16026	0.02267
408.87449	0.02279
407.58872	0.02302
406.30295	0.02329
405.01718	0.02351
403.73141	0.02366
402.44564	0.02376
401.15987	0.02384
399.87411	0.02393
