3997.45528	0.07326
3996.16951	0.07360
3994.88374	0.07344
3993.59798	0.07288
3992.31221	0.07229
3991.02644	0.07189
3989.74067	0.07162
3988.45490	0.07140
3987.16913	0.07132
3985.88336	0.07147
3984.59759	0.07175
3983.31183	0.07195
3982.02606	0.07193
3980.74029	0.07172
3979.45452	0.07145
3978.16875	0.07115
3976.88298	0.07082
3975.59721	0.07043
3974.31144	0.07009
3973.02567	0.06989
3971.73991	0.06991
3970.45414	0.07007
3969.16837	0.07025
3967.88260	0.07029
3966.59683	0.07009
3965.31106	0.06970
3964.02529	0.06938
3962.73952	0.06945
3961.45376	0.07001
3960.16799	0.07070
3958.88222	0.07104
3957.59645	0.07084
3956.31068	0.07022
3955.02491	0.06937
3953.73914	0.06841
3952.45337	0.06763
3951.16760	0.06734
3949.88184	0.06758
3948.59607	0.06801
3947.31030	0.06824
3946.02453	0.06806
3944.73876	0.06746
3943.45299	0.06656
3942.16722	0.06555
3940.88145	0.06471
3939.59569	0.06430
3938.30992	0.06447
3937.02415	0.06514
3935.73838	0.06592
3934.45261	0.06643
3933.16684	0.06664
3931.88107	0.06679
3930.59530	0.06708
3929.30953	0.06743
3928.02377	0.06768
3926.73800	0.06773
3925.45223	0.06750
3924.16646	0.06706
3922.88069	0.06667
3921.59492	0.06656
3920.30915	0.06667
3919.02338	0.06676
3917.73762	0.06681
3916.45185	0.06697
3915.16608	0.06727
3913.88031	0.06739
3912.59454	0.06691
3911.30877	0.06584
3910.02300	0.06475
3908.73723	0.06426
3907.45146	0.06449
3906.16570	0.06508
3904.87993	0.06549
3903.59416	0.06553
3902.30839	0.06536
3901.02262	0.06516
3899.73685	0.06493
3898.45108	0.06461
3897.16531	0.06433
3895.87955	0.06429
3894.59378	0.06445
3893.30801	0.06456
3892.02224	0.06441
3890.73647	0.06405
3889.45070	0.06381
3888.16493	0.06412
3886.87916	0.06505
3885.59339	0.06618
3884.30763	0.06707
3883.02186	0.06754
3881.73609	0.06753
3880.45032	0.06698
3879.16455	0.06602
3877.87878	0.06510
3876.59301	0.06464
3875.30724	0.06461
3874.02148	0.06458
3872.73571	0.06420
3871.44994	0.06358
3870.16417	0.06318
3868.87840	0.06333
3867.59263	0.06395
3866.30686	0.06449
3865.02109	0.06450
3863.73532	0.06415
3862.44956	0.06404
3861.16379	0.06437
3859.87802	0.06477
3858.59225	0.06482
3857.30648	0.06456
3856.02071	0.06432
3854.73494	0.06428
3853.44917	0.06428
3852.16341	0.06418
3850.87764	0.06399
3849.59187	0.06364
3848.30610	0.06293
3847.02033	0.06193
3845.73456	0.06108
3844.44879	0.06087
3843.16302	0.06137
3841.87725	0.06221
3840.59149	0.06297
3839.30572	0.06348
3838.01995	0.06373
3836.73418	0.06371
3835.44841	0.06347
3834.16264	0.06307
3832.87687	0.06260
3831.59110	0.06215
3830.30534	0.06181
3829.01957	0.06175
3827.73380	0.06204
3826.44803	0.06260
3825.16226	0.06320
3823.87649	0.06363
3822.59072	0.06377
3821.30495	0.06358
3820.01918	0.06313
3818.73342	0.06266
3817.44765	0.06244
3816.16188	0.06242
3814.87611	0.06240
3813.59034	0.06228
3812.30457	0.06203
3811.01880	0.06161
3809.73303	0.06118
3808.44726	0.06095
3807.16150	0.06092
3805.87573	0.06079
3804.58996	0.06040
3803.30419	0.05988
3802.01842	0.05947
3800.73265	0.05935
3799.44688	0.05961
3798.16111	0.06015
3796.87535	0.06068
3795.58958	0.06092
3794.30381	0.06092
3793.01804	0.06083
3791.73227	0.06064
3790.44650	0.06021
3789.16073	0.05946
3787.87496	0.05862
3786.58919	0.05810
3785.30343	0.05818
3784.01766	0.05879
3782.73189	0.05954
3781.44612	0.06004
3780.16035	0.06010
3778.87458	0.05990
3777.58881	0.05980
3776.30304	0.05997
3775.01728	0.06030
3773.73151	0.06054
3772.44574	0.06054
3771.15997	0.06029
3769.87420	0.05978
3768.58843	0.05916
3767.30266	0.05871
3766.01689	0.05870
3764.73112	0.05906
3763.44536	0.05956
3762.15959	0.05998
3760.87382	0.06023
3759.58805	0.06034
3758.30228	0.06035
3757.01651	0.06017
3755.73074	0.05975
3754.44497	0.05918
3753.15921	0.05872
3751.87344	0.05857
3750.58767	0.05872
3749.30190	0.05899
3748.01613	0.05920
3746.73036	0.05939
3745.44459	0.05948
3744.15882	0.05920
3742.87305	0.05856
3741.58729	0.05811
3740.30152	0.05821
3739.01575	0.05868
3737.72998	0.05899
3736.44421	0.05879
3735.15844	0.05823
3733.87267	0.05781
3732.58690	0.05777
3731.30114	0.05783
3730.01537	0.05762
3728.72960	0.05714
3727.44383	0.05662
3726.15806	0.05627
3724.87229	0.05619
3723.58652	0.05633
3722.30075	0.05655
3721.01498	0.05682
3719.72922	0.05724
3718.44345	0.05779
3717.15768	0.05822
3715.87191	0.05828
3714.58614	0.05793
3713.30037	0.05728
3712.01460	0.05644
3710.72883	0.05566
3709.44307	0.05521
3708.15730	0.05523
3706.87153	0.05554
3705.58576	0.05585
3704.29999	0.05606
3703.01422	0.05631
3701.72845	0.05681
3700.44268	0.05763
3699.15691	0.05859
3697.87115	0.05926
3696.58538	0.05916
3695.29961	0.05825
3694.01384	0.05697
3692.72807	0.05587
3691.44230	0.05511
3690.15653	0.05459
3688.87076	0.05422
3687.58500	0.05403
3686.29923	0.05419
3685.01346	0.05470
3683.72769	0.05517
3682.44192	0.05526
3681.15615	0.05501
3679.87038	0.05483
3678.58461	0.05510
3677.29884	0.05586
3676.01308	0.05675
3674.72731	0.05744
3673.44154	0.05799
3672.15577	0.05855
3670.87000	0.05883
3669.58423	0.05844
3668.29846	0.05740
3667.01269	0.05610
3665.72693	0.05491
3664.44116	0.05421
3663.15539	0.05431
3661.86962	0.05521
3660.58385	0.05640
3659.29808	0.05728
3658.01231	0.05750
3656.72654	0.05720
3655.44077	0.05675
3654.15501	0.05650
3652.86924	0.05659
3651.58347	0.05688
3650.29770	0.05721
3649.01193	0.05744
3647.72616	0.05748
3646.44039	0.05737
3645.15462	0.05727
3643.86886	0.05742
3642.58309	0.05784
3641.29732	0.05837
3640.01155	0.05887
3638.72578	0.05928
3637.44001	0.05946
3636.15424	0.05925
3634.86847	0.05866
3633.58270	0.05795
3632.29694	0.05748
3631.01117	0.05751
3629.72540	0.05806
3628.43963	0.05897
3627.15386	0.06001
3625.86809	0.06087
3624.58232	0.06124
3623.29655	0.06115
3622.01079	0.06104
3620.72502	0.06130
3619.43925	0.06185
3618.15348	0.06239
3616.86771	0.06275
3615.58194	0.06281
3614.29617	0.06249
3613.01040	0.06183
3611.72463	0.06122
3610.43887	0.06110
3609.15310	0.06152
3607.86733	0.06206
3606.58156	0.06228
3605.29579	0.06208
3604.01002	0.06169
3602.72425	0.06154
3601.43848	0.06188
3600.15272	0.06257
3598.86695	0.06328
3597.58118	0.06379
3596.29541	0.06418
3595.00964	0.06454
3593.72387	0.06472
3592.43810	0.06459
3591.15233	0.06439
3589.86656	0.06462
3588.58080	0.06541
3587.29503	0.06629
3586.00926	0.06664
3584.72349	0.06637
3583.43772	0.06582
3582.15195	0.06537
3580.86618	0.06508
3579.58041	0.06487
3578.29464	0.06474
3577.00888	0.06478
3575.72311	0.06512
3574.43734	0.06575
3573.15157	0.06642
3571.86580	0.06690
3570.58003	0.06720
3569.29426	0.06753
3568.00849	0.06788
3566.72273	0.06801
3565.43696	0.06775
3564.15119	0.06726
3562.86542	0.06683
3561.57965	0.06662
3560.29388	0.06661
3559.00811	0.06668
3557.72234	0.06673
3556.43657	0.06681
3555.15081	0.06704
3553.86504	0.06751
3552.57927	0.06810
3551.29350	0.06862
3550.00773	0.06898
3548.72196	0.06926
3547.43619	0.06963
3546.15042	0.07003
3544.86466	0.07020
3543.57889	0.06994
3542.29312	0.06951
3541.00735	0.06943
3539.72158	0.06993
3538.43581	0.07074
3537.15004	0.07135
3535.86427	0.07140
3534.57850	0.07092
3533.29274	0.07030
3532.00697	0.06992
3530.72120	0.06992
3529.43543	0.07013
3528.14966	0.07033
3526.86389	0.07045
3525.57812	0.07051
3524.29235	0.07053
3523.00659	0.07054
3521.72082	0.07053
3520.43505	0.07055
3519.14928	0.07067
3517.86351	0.07104
3516.57774	0.07166
3515.29197	0.07231
3514.00620	0.07264
3512.72043	0.07254
3511.43467	0.07217
3510.14890	0.07185
3508.86313	0.07183
3507.57736	0.07232
3506.29159	0.07336
3505.00582	0.07469
3503.72005	0.07583
3502.43428	0.07633
3501.14852	0.07613
3499.86275	0.07551
3498.57698	0.07482
3497.29121	0.07424
3496.00544	0.07381
3494.71967	0.07358
3493.43390	0.07370
3492.14813	0.07427
3490.86236	0.07526
3489.57660	0.07633
3488.29083	0.07696
3487.00506	0.07679
3485.71929	0.07591
3484.43352	0.07483
3483.14775	0.07400
3481.86198	0.07361
3480.57621	0.07358
3479.29045	0.07382
3478.00468	0.07424
3476.71891	0.07482
3475.43314	0.07545
3474.14737	0.07604
3472.86160	0.07651
3471.57583	0.07689
3470.29006	0.07725
3469.00429	0.07762
3467.71853	0.07799
3466.43276	0.07832
3465.14699	0.07860
3463.86122	0.07882
3462.57545	0.07892
3461.28968	0.07894
3460.00391	0.07896
3458.71814	0.07906
3457.43238	0.07916
3456.14661	0.07918
3454.86084	0.07915
3453.57507	0.07921
3452.28930	0.07938
3451.00353	0.07956
3449.71776	0.07970
3448.43199	0.07987
3447.14622	0.08009
3445.86046	0.08030
3444.57469	0.08039
3443.28892	0.08034
3442.00315	0.08032
3440.71738	0.08049
3439.43161	0.08082
3438.14584	0.08112
3436.86007	0.08121
3435.57431	0.08112
3434.28854	0.08098
3433.00277	0.08088
3431.71700	0.08083
3430.43123	0.08089
3429.14546	0.08110
3427.85969	0.08141
3426.57392	0.08169
3425.28815	0.08180
3424.00239	0.08180
3422.71662	0.08181
3421.43085	0.08189
3420.14508	0.08205
3418.85931	0.08225
3417.57354	0.08240
3416.28777	0.08237
3415.00200	0.08218
3413.71624	0.08200
3412.43047	0.08201
3411.14470	0.08223
3409.85893	0.08248
3408.57316	0.08266
3407.28739	0.08276
3406.00162	0.08284
3404.71585	0.08293
3403.43008	0.08296
3402.14432	0.08288
3400.85855	0.08275
3399.57278	0.08273
3398.28701	0.08292
3397.00124	0.08329
3395.71547	0.08363
3394.42970	0.08381
3393.14393	0.08389
3391.85817	0.08403
3390.57240	0.08427
3389.28663	0.08439
3388.00086	0.08412
3386.71509	0.08340
3385.42932	0.08250
3384.14355	0.08181
3382.85778	0.08155
3381.57201	0.08162
3380.28625	0.08176
3379.00048	0.08193
3377.71471	0.08228
3376.42894	0.08294
3375.14317	0.08374
3373.85740	0.08428
3372.57163	0.08433
3371.28586	0.08401
3370.00010	0.08372
3368.71433	0.08379
3367.42856	0.08429
3366.14279	0.08504
3364.85702	0.08572
3363.57125	0.08604
3362.28548	0.08591
3360.99971	0.08548
3359.71394	0.08509
3358.42818	0.08499
3357.14241	0.08521
3355.85664	0.08556
3354.57087	0.08576
3353.28510	0.08563
3351.99933	0.08518
3350.71356	0.08456
3349.42779	0.08387
3348.14202	0.08322
3346.85626	0.08270
3345.57049	0.08239
3344.28472	0.08235
3342.99895	0.08260
3341.71318	0.08314
3340.42741	0.08393
3339.14164	0.08479
3337.85587	0.08547
3336.57011	0.08576
3335.28434	0.08558
3333.99857	0.08515
3332.71280	0.08480
3331.42703	0.08479
3330.14126	0.08507
3328.85549	0.08544
3327.56972	0.08567
3326.28395	0.08565
3324.99819	0.08539
3323.71242	0.08498
3322.42665	0.08458
3321.14088	0.08427
3319.85511	0.08410
3318.56934	0.08406
3317.28357	0.08416
3315.99780	0.08434
3314.71204	0.08444
3313.42627	0.08432
3312.14050	0.08406
3310.85473	0.08383
3309.56896	0.08373
3308.28319	0.08367
3306.99742	0.08350
3305.71165	0.08319
3304.42588	0.08282
3303.14012	0.08252
3301.85435	0.08239
3300.56858	0.08241
3299.28281	0.08251
3297.99704	0.08269
3296.71127	0.08295
3295.42550	0.08331
3294.13973	0.08372
3292.85397	0.08407
3291.56820	0.08428
3290.28243	0.08428
3288.99666	0.08406
3287.71089	0.08370
3286.42512	0.08336
3285.13935	0.08320
3283.85358	0.08334
3282.56781	0.08378
3281.28205	0.08435
3279.99628	0.08479
3278.71051	0.08487
3277.42474	0.08457
3276.13897	0.08402
3274.85320	0.08342
3273.56743	0.08292
3272.28166	0.08253
3270.99590	0.08219
3269.71013	0.08179
3268.42436	0.08136
3267.13859	0.08109
3265.85282	0.08111
3264.56705	0.08131
3263.28128	0.08152
3261.99551	0.08175
3260.70974	0.08215
3259.42398	0.08269
3258.13821	0.08310
3256.85244	0.08311
3255.56667	0.08271
3254.28090	0.08218
3252.99513	0.08185
3251.70936	0.08180
3250.42359	0.08185
3249.13783	0.08182
3247.85206	0.08170
3246.56629	0.08165
3245.28052	0.08177
3243.99475	0.08202
3242.70898	0.08228
3241.42321	0.08245
3240.13744	0.08247
3238.85167	0.08231
3237.56591	0.08192
3236.28014	0.08139
3234.99437	0.08087
3233.70860	0.08052
3232.42283	0.08040
3231.13706	0.08043
3229.85129	0.08050
3228.56552	0.08056
3227.27976	0.08061
3225.99399	0.08069
3224.70822	0.08081
3223.42245	0.08091
3222.13668	0.08086
3220.85091	0.08059
3219.56514	0.08024
3218.27937	0.08007
3216.99360	0.08027
3215.70784	0.08073
3214.42207	0.08109
3213.13630	0.08099
3211.85053	0.08040
3210.56476	0.07963
3209.27899	0.07903
3207.99322	0.07866
3206.70745	0.07837
3205.42169	0.07811
3204.13592	0.07811
3202.85015	0.07855
3201.56438	0.07925
3200.27861	0.07978
3198.99284	0.07986
3197.70707	0.07970
3196.42130	0.07968
3195.13553	0.07988
3193.84977	0.08002
3192.56400	0.07983
3191.27823	0.07930
3189.99246	0.07874
3188.70669	0.07848
3187.42092	0.07863
3186.13515	0.07898
3184.84938	0.07916
3183.56362	0.07903
3182.27785	0.07877
3180.99208	0.07866
3179.70631	0.07875
3178.42054	0.07881
3177.13477	0.07861
3175.84900	0.07814
3174.56323	0.07759
3173.27746	0.07712
3171.99170	0.07678
3170.70593	0.07657
3169.42016	0.07651
3168.13439	0.07663
3166.84862	0.07688
3165.56285	0.07723
3164.27708	0.07756
3162.99131	0.07774
3161.70555	0.07759
3160.41978	0.07709
3159.13401	0.07650
3157.84824	0.07621
3156.56247	0.07647
3155.27670	0.07715
3153.99093	0.07779
3152.70516	0.07803
3151.41939	0.07782
3150.13363	0.07738
3148.84786	0.07688
3147.56209	0.07626
3146.27632	0.07554
3144.99055	0.07487
3143.70478	0.07451
3142.41901	0.07453
3141.13324	0.07482
3139.84748	0.07519
3138.56171	0.07551
3137.27594	0.07569
3135.99017	0.07570
3134.70440	0.07560
3133.41863	0.07548
3132.13286	0.07538
3130.84709	0.07528
3129.56132	0.07513
3128.27556	0.07488
3126.98979	0.07450
3125.70402	0.07404
3124.41825	0.07366
3123.13248	0.07352
3121.84671	0.07366
3120.56094	0.07393
3119.27517	0.07411
3117.98940	0.07409
3116.70364	0.07391
3115.41787	0.07364
3114.13210	0.07335
3112.84633	0.07301
3111.56056	0.07266
3110.27479	0.07242
3108.98902	0.07240
3107.70325	0.07256
3106.41749	0.07272
3105.13172	0.07259
3103.84595	0.07210
3102.56018	0.07143
3101.27441	0.07093
3099.98864	0.07086
3098.70287	0.07117
3097.41710	0.07156
3096.13133	0.07178
3094.84557	0.07168
3093.55980	0.07135
3092.27403	0.07095
3090.98826	0.07066
3089.70249	0.07055
3088.41672	0.07057
3087.13095	0.07064
3085.84518	0.07073
3084.55942	0.07079
3083.27365	0.07078
3081.98788	0.07068
3080.70211	0.07055
3079.41634	0.07049
3078.13057	0.07058
3076.84480	0.07080
3075.55903	0.07107
3074.27326	0.07124
3072.98750	0.07123
3071.70173	0.07102
3070.41596	0.07070
3069.13019	0.07037
3067.84442	0.07013
3066.55865	0.06996
3065.27288	0.06979
3063.98711	0.06958
3062.70135	0.06943
3061.41558	0.06942
3060.12981	0.06954
3058.84404	0.06964
3057.55827	0.06953
3056.27250	0.06919
3054.98673	0.06872
3053.70096	0.06832
3052.41519	0.06818
3051.12943	0.06838
3049.84366	0.06882
3048.55789	0.06921
3047.27212	0.06931
3045.98635	0.06902
3044.70058	0.06850
3043.41481	0.06798
3042.12904	0.06768
3040.84328	0.06767
3039.55751	0.06789
3038.27174	0.06814
3036.98597	0.06818
3035.70020	0.06783
3034.41443	0.06723
3033.12866	0.06669
3031.84289	0.06645
3030.55712	0.06648
3029.27136	0.06653
3027.98559	0.06647
3026.69982	0.06633
3025.41405	0.06624
3024.12828	0.06623
3022.84251	0.06627
3021.55674	0.06631
3020.27097	0.06633
3018.98521	0.06630
3017.69944	0.06619
3016.41367	0.06599
3015.12790	0.06578
3013.84213	0.06564
3012.55636	0.06557
3011.27059	0.06548
3009.98482	0.06528
3008.69905	0.06499
3007.41329	0.06468
3006.12752	0.06445
3004.84175	0.06437
3003.55598	0.06444
3002.27021	0.06458
3000.98444	0.06470
2999.69867	0.06473
2998.41290	0.06466
2997.12714	0.06454
2995.84137	0.06447
2994.55560	0.06449
2993.26983	0.06464
2991.98406	0.06484
2990.69829	0.06496
2989.41252	0.06493
2988.12675	0.06483
2986.84098	0.06478
2985.55522	0.06483
2984.26945	0.06495
2982.98368	0.06516
2981.69791	0.06556
2980.41214	0.06617
2979.12637	0.06690
2977.84060	0.06756
2976.55483	0.06806
2975.26907	0.06840
2973.98330	0.06874
2972.69753	0.06928
2971.41176	0.07016
2970.12599	0.07133
2968.84022	0.07256
2967.55445	0.07362
2966.26868	0.07447
2964.98291	0.07533
2963.69715	0.07635
2962.41138	0.07747
2961.12561	0.07842
2959.83984	0.07908
2958.55407	0.07957
2957.26830	0.08012
2955.98253	0.08085
2954.69676	0.08169
2953.41100	0.08244
2952.12523	0.08292
2950.83946	0.08310
2949.55369	0.08308
2948.26792	0.08306
2946.98215	0.08317
2945.69638	0.08339
2944.41061	0.08367
2943.12484	0.08401
2941.83908	0.08443
2940.55331	0.08481
2939.26754	0.08506
2937.98177	0.08531
2936.69600	0.08577
2935.41023	0.08649
2934.12446	0.08727
2932.83869	0.08796
2931.55293	0.08866
2930.26716	0.08955
2928.98139	0.09064
2927.69562	0.09170
2926.40985	0.09250
2925.12408	0.09297
2923.83831	0.09317
2922.55254	0.09317
2921.26677	0.09305
2919.98101	0.09290
2918.69524	0.09270
2917.40947	0.09229
2916.12370	0.09148
2914.83793	0.09028
2913.55216	0.08894
2912.26639	0.08775
2910.98062	0.08694
2909.69486	0.08652
2908.40909	0.08630
2907.12332	0.08597
2905.83755	0.08534
2904.55178	0.08447
2903.26601	0.08358
2901.98024	0.08278
2900.69447	0.08203
2899.40870	0.08134
2898.12294	0.08077
2896.83717	0.08031
2895.55140	0.07981
2894.26563	0.07920
2892.97986	0.07859
2891.69409	0.07809
2890.40832	0.07771
2889.12255	0.07728
2887.83678	0.07666
2886.55102	0.07591
2885.26525	0.07528
2883.97948	0.07495
2882.69371	0.07482
2881.40794	0.07469
2880.12217	0.07451
2878.83640	0.07444
2877.55063	0.07454
2876.26487	0.07474
2874.97910	0.07494
2873.69333	0.07516
2872.40756	0.07552
2871.12179	0.07610
2869.83602	0.07674
2868.55025	0.07716
2867.26448	0.07723
2865.97871	0.07710
2864.69295	0.07708
2863.40718	0.07730
2862.12141	0.07758
2860.83564	0.07766
2859.54987	0.07751
2858.26410	0.07729
2856.97833	0.07714
2855.69256	0.07699
2854.40680	0.07677
2853.12103	0.07648
2851.83526	0.07614
2850.54949	0.07575
2849.26372	0.07524
2847.97795	0.07459
2846.69218	0.07386
2845.40641	0.07312
2844.12064	0.07247
2842.83488	0.07191
2841.54911	0.07124
2840.26334	0.07028
2838.97757	0.06905
2837.69180	0.06781
2836.40603	0.06680
2835.12026	0.06608
2833.83449	0.06556
2832.54873	0.06507
2831.26296	0.06450
2829.97719	0.06384
2828.69142	0.06317
2827.40565	0.06254
2826.11988	0.06199
2824.83411	0.06160
2823.54834	0.06140
2822.26257	0.06127
2820.97681	0.06106
2819.69104	0.06069
2818.40527	0.06027
2817.11950	0.05996
2815.83373	0.05984
2814.54796	0.05981
2813.26219	0.05974
2811.97642	0.05961
2810.69066	0.05946
2809.40489	0.05931
2808.11912	0.05908
2806.83335	0.05874
2805.54758	0.05838
2804.26181	0.05815
2802.97604	0.05814
2801.69027	0.05824
2800.40450	0.05822
2799.11874	0.05795
2797.83297	0.05751
2796.54720	0.05710
2795.26143	0.05683
2793.97566	0.05662
2792.68989	0.05639
2791.40412	0.05616
2790.11835	0.05605
2788.83259	0.05608
2787.54682	0.05613
2786.26105	0.05612
2784.97528	0.05607
2783.68951	0.05597
2782.40374	0.05584
2781.11797	0.05573
2779.83220	0.05571
2778.54643	0.05582
2777.26067	0.05595
2775.97490	0.05594
2774.68913	0.05572
2773.40336	0.05535
2772.11759	0.05497
2770.83182	0.05471
2769.54605	0.05459
2768.26028	0.05450
2766.97452	0.05437
2765.68875	0.05417
2764.40298	0.05398
2763.11721	0.05384
2761.83144	0.05376
2760.54567	0.05369
2759.25990	0.05360
2757.97413	0.05352
2756.68836	0.05351
2755.40260	0.05361
2754.11683	0.05379
2752.83106	0.05390
2751.54529	0.05380
2750.25952	0.05355
2748.97375	0.05331
2747.68798	0.05319
2746.40221	0.05312
2745.11645	0.05306
2743.83068	0.05299
2742.54491	0.05293
2741.25914	0.05281
2739.97337	0.05257
2738.68760	0.05229
2737.40183	0.05208
2736.11606	0.05201
2734.83029	0.05203
2733.54453	0.05209
2732.25876	0.05214
2730.97299	0.05219
2729.68722	0.05228
2728.40145	0.05242
2727.11568	0.05255
2725.82991	0.05261
2724.54414	0.05256
2723.25838	0.05242
2721.97261	0.05222
2720.68684	0.05194
2719.40107	0.05163
2718.11530	0.05138
2716.82953	0.05128
2715.54376	0.05130
2714.25799	0.05136
2712.97222	0.05135
2711.68646	0.05125
2710.40069	0.05106
2709.11492	0.05087
2707.82915	0.05076
2706.54338	0.05076
2705.25761	0.05079
2703.97184	0.05077
2702.68607	0.05068
2701.40031	0.05054
2700.11454	0.05038
2698.82877	0.05026
2697.54300	0.05025
2696.25723	0.05034
2694.97146	0.05042
2693.68569	0.05041
2692.39992	0.05031
2691.11415	0.05021
2689.82839	0.05014
2688.54262	0.05006
2687.25685	0.04992
2685.97108	0.04976
2684.68531	0.04961
2683.39954	0.04954
2682.11377	0.04953
2680.82800	0.04950
2679.54224	0.04942
2678.25647	0.04929
2676.97070	0.04922
2675.68493	0.04930
2674.39916	0.04942
2673.11339	0.04945
2671.82762	0.04930
2670.54185	0.04908
2669.25608	0.04894
2667.97032	0.04898
2666.68455	0.04911
2665.39878	0.04916
2664.11301	0.04903
2662.82724	0.04877
2661.54147	0.04857
2660.25570	0.04852
2658.96993	0.04859
2657.68417	0.04864
2656.39840	0.04857
2655.11263	0.04835
2653.82686	0.04803
2652.54109	0.04777
2651.25532	0.04764
2649.96955	0.04763
2648.68378	0.04763
2647.39801	0.04751
2646.11225	0.04728
2644.82648	0.04703
2643.54071	0.04684
2642.25494	0.04666
2640.96917	0.04639
2639.68340	0.04599
2638.39763	0.04562
2637.11186	0.04543
2635.82609	0.04548
2634.54033	0.04563
2633.25456	0.04571
2631.96879	0.04560
2630.68302	0.04528
2629.39725	0.04486
2628.11148	0.04446
2626.82571	0.04420
2625.53994	0.04410
2624.25418	0.04407
2622.96841	0.04402
2621.68264	0.04391
2620.39687	0.04375
2619.11110	0.04359
2617.82533	0.04349
2616.53956	0.04343
2615.25379	0.04333
2613.96802	0.04311
2612.68226	0.04278
2611.39649	0.04244
2610.11072	0.04221
2608.82495	0.04212
2607.53918	0.04218
2606.25341	0.04235
2604.96764	0.04254
2603.68187	0.04261
2602.39611	0.04249
2601.11034	0.04227
2599.82457	0.04212
2598.53880	0.04213
2597.25303	0.04217
2595.96726	0.04203
2594.68149	0.04160
2593.39572	0.04093
2592.10995	0.04029
2590.82419	0.04003
2589.53842	0.04031
2588.25265	0.04087
2586.96688	0.04127
2585.68111	0.04126
2584.39534	0.04094
2583.10957	0.04059
2581.82380	0.04042
2580.53804	0.04049
2579.25227	0.04070
2577.96650	0.04083
2576.68073	0.04065
2575.39496	0.04014
2574.10919	0.03952
2572.82342	0.03908
2571.53765	0.03894
2570.25188	0.03903
2568.96612	0.03929
2567.68035	0.03960
2566.39458	0.03978
2565.10881	0.03965
2563.82304	0.03929
2562.53727	0.03902
2561.25150	0.03907
2559.96573	0.03933
2558.67997	0.03945
2557.39420	0.03924
2556.10843	0.03893
2554.82266	0.03880
2553.53689	0.03887
2552.25112	0.03891
2550.96535	0.03876
2549.67958	0.03853
2548.39381	0.03835
2547.10805	0.03827
2545.82228	0.03823
2544.53651	0.03823
2543.25074	0.03821
2541.96497	0.03812
2540.67920	0.03788
2539.39343	0.03755
2538.10766	0.03733
2536.82190	0.03741
2535.53613	0.03773
2534.25036	0.03802
2532.96459	0.03806
2531.67882	0.03790
2530.39305	0.03781
2529.10728	0.03799
2527.82151	0.03836
2526.53574	0.03861
2525.24998	0.03857
2523.96421	0.03831
2522.67844	0.03802
2521.39267	0.03777
2520.10690	0.03754
2518.82113	0.03729
2517.53536	0.03709
2516.24959	0.03696
2514.96383	0.03691
2513.67806	0.03698
2512.39229	0.03722
2511.10652	0.03749
2509.82075	0.03756
2508.53498	0.03726
2507.24921	0.03665
2505.96344	0.03593
2504.67767	0.03533
2503.39191	0.03503
2502.10614	0.03514
2500.82037	0.03552
2499.53460	0.03586
2498.24883	0.03597
2496.96306	0.03593
2495.67729	0.03592
2494.39152	0.03599
2493.10576	0.03601
2491.81999	0.03593
2490.53422	0.03578
2489.24845	0.03563
2487.96268	0.03557
2486.67691	0.03571
2485.39114	0.03607
2484.10537	0.03656
2482.81960	0.03698
2481.53384	0.03728
2480.24807	0.03750
2478.96230	0.03763
2477.67653	0.03756
2476.39076	0.03722
2475.10499	0.03677
2473.81922	0.03640
2472.53345	0.03612
2471.24769	0.03584
2469.96192	0.03554
2468.67615	0.03538
2467.39038	0.03541
2466.10461	0.03553
2464.81884	0.03558
2463.53307	0.03557
2462.24730	0.03558
2460.96153	0.03562
2459.67577	0.03564
2458.39000	0.03564
2457.10423	0.03567
2455.81846	0.03573
2454.53269	0.03579
2453.24692	0.03580
2451.96115	0.03569
2450.67538	0.03539
2449.38962	0.03492
2448.10385	0.03449
2446.81808	0.03432
2445.53231	0.03448
2444.24654	0.03476
2442.96077	0.03498
2441.67500	0.03499
2440.38923	0.03478
2439.10346	0.03437
2437.81770	0.03390
2436.53193	0.03354
2435.24616	0.03342
2433.96039	0.03358
2432.67462	0.03394
2431.38885	0.03440
2430.10308	0.03487
2428.81731	0.03526
2427.53155	0.03547
2426.24578	0.03540
2424.96001	0.03505
2423.67424	0.03453
2422.38847	0.03404
2421.10270	0.03378
2419.81693	0.03385
2418.53116	0.03419
2417.24539	0.03461
2415.95963	0.03489
2414.67386	0.03489
2413.38809	0.03456
2412.10232	0.03401
2410.81655	0.03345
2409.53078	0.03305
2408.24501	0.03281
2406.95924	0.03273
2405.67347	0.03287
2404.38771	0.03332
2403.10194	0.03389
2401.81617	0.03429
2400.53040	0.03430
2399.24463	0.03399
2397.95886	0.03365
2396.67309	0.03344
2395.38732	0.03336
2394.10156	0.03335
2392.81579	0.03334
2391.53002	0.03328
2390.24425	0.03317
2388.95848	0.03304
2387.67271	0.03298
2386.38694	0.03306
2385.10117	0.03327
2383.81540	0.03350
2382.52964	0.03366
2381.24387	0.03373
2379.95810	0.03380
2378.67233	0.03393
2377.38656	0.03411
2376.10079	0.03428
2374.81502	0.03440
2373.52925	0.03447
2372.24349	0.03449
2370.95772	0.03445
2369.67195	0.03434
2368.38618	0.03424
2367.10041	0.03428
2365.81464	0.03449
2364.52887	0.03477
2363.24310	0.03496
2361.95733	0.03506
2360.67157	0.03515
2359.38580	0.03531
2358.10003	0.03552
2356.81426	0.03565
2355.52849	0.03560
2354.24272	0.03535
2352.95695	0.03504
2351.67118	0.03482
2350.38542	0.03473
2349.09965	0.03469
2347.81388	0.03464
2346.52811	0.03456
2345.24234	0.03448
2343.95657	0.03442
2342.67080	0.03442
2341.38503	0.03449
2340.09926	0.03456
2338.81350	0.03464
2337.52773	0.03476
2336.24196	0.03494
2334.95619	0.03512
2333.67042	0.03513
2332.38465	0.03491
2331.09888	0.03458
2329.81311	0.03440
2328.52735	0.03458
2327.24158	0.03517
2325.95581	0.03596
2324.67004	0.03658
2323.38427	0.03677
2322.09850	0.03650
2320.81273	0.03600
2319.52696	0.03543
2318.24119	0.03485
2316.95543	0.03430
2315.66966	0.03390
2314.38389	0.03376
2313.09812	0.03380
2311.81235	0.03382
2310.52658	0.03363
2309.24081	0.03319
2307.95504	0.03268
2306.66928	0.03230
2305.38351	0.03217
2304.09774	0.03223
2302.81197	0.03234
2301.52620	0.03241
2300.24043	0.03240
2298.95466	0.03228
2297.66889	0.03199
2296.38312	0.03156
2295.09736	0.03114
2293.81159	0.03090
2292.52582	0.03090
2291.24005	0.03105
2289.95428	0.03122
2288.66851	0.03128
2287.38274	0.03115
2286.09697	0.03086
2284.81121	0.03053
2283.52544	0.03032
2282.23967	0.03024
2280.95390	0.03016
2279.66813	0.02999
2278.38236	0.02979
2277.09659	0.02968
2275.81082	0.02959
2274.52505	0.02933
2273.23929	0.02882
2271.95352	0.02820
2270.66775	0.02771
2269.38198	0.02744
2268.09621	0.02736
2266.81044	0.02742
2265.52467	0.02752
2264.23890	0.02749
2262.95314	0.02712
2261.66737	0.02648
2260.38160	0.02593
2259.09583	0.02590
2257.81006	0.02643
2256.52429	0.02713
2255.23852	0.02751
2253.95275	0.02724
2252.66698	0.02635
2251.38122	0.02528
2250.09545	0.02470
2248.80968	0.02501
2247.52391	0.02576
2246.23814	0.02629
2244.95237	0.02615
2243.66660	0.02542
2242.38083	0.02433
2241.09507	0.02306
2239.80930	0.02201
2238.52353	0.02172
2237.23776	0.02238
2235.95199	0.02355
2234.66622	0.02455
2233.38045	0.02509
2232.09468	0.02533
2230.80891	0.02546
2229.52315	0.02542
2228.23738	0.02509
2226.95161	0.02453
2225.66584	0.02393
2224.38007	0.02341
2223.09430	0.02297
2221.80853	0.02257
2220.52276	0.02212
2219.23700	0.02158
2217.95123	0.02100
2216.66546	0.02057
2215.37969	0.02036
2214.09392	0.02030
2212.80815	0.02031
2211.52238	0.02031
2210.23661	0.02023
2208.95084	0.01998
2207.66508	0.01970
2206.37931	0.01965
2205.09354	0.01987
2203.80777	0.02007
2202.52200	0.01984
2201.23623	0.01912
2199.95046	0.01847
2198.66469	0.01862
2197.37893	0.01970
2196.09316	0.02099
2194.80739	0.02172
2193.52162	0.02177
2192.23585	0.02157
2190.95008	0.02144
2189.66431	0.02140
2188.37854	0.02139
2187.09277	0.02128
2185.80701	0.02093
2184.52124	0.02025
2183.23547	0.01935
2181.94970	0.01823
2180.66393	0.01686
2179.37816	0.01538
2178.09239	0.01412
2176.80662	0.01331
2175.52085	0.01298
2174.23509	0.01327
2172.94932	0.01452
2171.66355	0.01659
2170.37778	0.01853
2169.09201	0.01921
2167.80624	0.01852
2166.52047	0.01750
2165.23470	0.01722
2163.94894	0.01768
2162.66317	0.01799
2161.37740	0.01724
2160.09163	0.01525
2158.80586	0.01276
2157.52009	0.01087
2156.23432	0.01021
2154.94855	0.01057
2153.66278	0.01137
2152.37702	0.01210
2151.09125	0.01245
2149.80548	0.01231
2148.51971	0.01193
2147.23394	0.01181
2145.94817	0.01223
2144.66240	0.01309
2143.37663	0.01415
2142.09087	0.01523
2140.80510	0.01624
2139.51933	0.01701
2138.23356	0.01742
2136.94779	0.01751
2135.66202	0.01753
2134.37625	0.01773
2133.09048	0.01812
2131.80471	0.01845
2130.51895	0.01849
2129.23318	0.01824
2127.94741	0.01804
2126.66164	0.01825
2125.37587	0.01890
2124.09010	0.01952
2122.80433	0.01955
2121.51856	0.01896
2120.23280	0.01835
2118.94703	0.01835
2117.66126	0.01898
2116.37549	0.01969
2115.08972	0.02001
2113.80395	0.01992
2112.51818	0.01975
2111.23241	0.01978
2109.94664	0.02007
2108.66088	0.02051
2107.37511	0.02090
2106.08934	0.02105
2104.80357	0.02086
2103.51780	0.02029
2102.23203	0.01934
2100.94626	0.01812
2099.66049	0.01627
2098.37473	0.01521
2097.08896	0.01501
2095.80319	0.01531
2094.51742	0.01598
2093.23165	0.01697
2091.94588	0.01808
2090.66011	0.01891
2089.37434	0.01919
2088.08857	0.01904
2086.80281	0.01878
2085.51704	0.01864
2084.23127	0.01855
2082.94550	0.01836
2081.65973	0.01804
2080.37396	0.01763
2079.08819	0.01716
2077.80242	0.01660
2076.51666	0.01589
2075.23089	0.01510
2073.94512	0.01443
2072.65935	0.01417
2071.37358	0.01451
2070.08781	0.01527
2068.80204	0.01603
2067.51627	0.01643
2066.23050	0.01643
2064.94474	0.01620
2063.65897	0.01599
2062.37320	0.01600
2061.08743	0.01633
2059.80166	0.01684
2058.51589	0.01721
2057.23012	0.01728
2055.94435	0.01710
2054.65859	0.01682
2053.37282	0.01641
2052.08705	0.01566
2050.80128	0.01438
2049.51551	0.01270
2048.22974	0.01102
2046.94397	0.00972
2045.65820	0.00882
2044.37243	0.00811
2043.08667	0.00745
2041.80090	0.00697
2040.51513	0.00691
2039.22936	0.00721
2037.94359	0.00749
2036.65782	0.00737
2035.37205	0.00694
2034.08628	0.00664
2032.80052	0.00675
2031.51475	0.00725
2030.22898	0.00795
2028.94321	0.00875
2027.65744	0.00954
2026.37167	0.01004
2025.08590	0.01006
2023.80013	0.00973
2022.51436	0.00942
2021.22860	0.00938
2019.94283	0.00945
2018.65706	0.00929
2017.37129	0.00869
2016.08552	0.00775
2014.79975	0.00683
2013.51398	0.00639
2012.22821	0.00666
2010.94245	0.00743
2009.65668	0.00820
2008.37091	0.00872
2007.08514	0.00919
2005.79937	0.00989
2004.51360	0.01073
2003.22783	0.01146
2001.94206	0.01204
2000.65629	0.01257
1999.37053	0.01302
1998.08476	0.01326
1996.79899	0.01334
1995.51322	0.01351
1994.22745	0.01395
1992.94168	0.01445
1991.65591	0.01458
1990.37014	0.01409
1989.08438	0.01321
1987.79861	0.01240
1986.51284	0.01192
1985.22707	0.01166
1983.94130	0.01137
1982.65553	0.01087
1981.36976	0.01021
1980.08399	0.00955
1978.79822	0.00905
1977.51246	0.00863
1976.22669	0.00811
1974.94092	0.00749
1973.65515	0.00702
1972.36938	0.00689
1971.08361	0.00707
1969.79784	0.00753
1968.51207	0.00828
1967.22631	0.00927
1965.94054	0.01032
1964.65477	0.01128
1963.36900	0.01216
1962.08323	0.01307
1960.79746	0.01401
1959.51169	0.01466
1958.22592	0.01467
1956.94015	0.01406
1955.65439	0.01332
1954.36862	0.01301
1953.08285	0.01333
1951.79708	0.01409
1950.51131	0.01501
1949.22554	0.01576
1947.93977	0.01606
1946.65400	0.01583
1945.36823	0.01536
1944.08247	0.01512
1942.79670	0.01538
1941.51093	0.01594
1940.22516	0.01634
1938.93939	0.01632
1937.65362	0.01592
1936.36785	0.01535
1935.08208	0.01490
1933.79632	0.01479
1932.51055	0.01519
1931.22478	0.01604
1929.93901	0.01706
1928.65324	0.01788
1927.36747	0.01829
1926.08170	0.01835
1924.79593	0.01828
1923.51016	0.01826
1922.22440	0.01830
1920.93863	0.01836
1919.65286	0.01840
1918.36709	0.01844
1917.08132	0.01843
1915.79555	0.01830
1914.50978	0.01802
1913.22401	0.01769
1911.93825	0.01745
1910.65248	0.01740
1909.36671	0.01749
1908.08094	0.01762
1906.79517	0.01773
1905.50940	0.01782
1904.22363	0.01786
1902.93786	0.01784
1901.65209	0.01782
1900.36633	0.01788
1899.08056	0.01804
1897.79479	0.01825
1896.50902	0.01847
1895.22325	0.01865
1893.93748	0.01871
1892.65171	0.01857
1891.36594	0.01825
1890.08018	0.01791
1888.79441	0.01774
1887.50864	0.01784
1886.22287	0.01817
1884.93710	0.01856
1883.65133	0.01881
1882.36556	0.01883
1881.07979	0.01866
1879.79402	0.01841
1878.50826	0.01820
1877.22249	0.01808
1875.93672	0.01808
1874.65095	0.01816
1873.36518	0.01831
1872.07941	0.01851
1870.79364	0.01873
1869.50787	0.01893
1868.22211	0.01905
1866.93634	0.01905
1865.65057	0.01895
1864.36480	0.01878
1863.07903	0.01858
1861.79326	0.01845
1860.50749	0.01845
1859.22172	0.01857
1857.93595	0.01871
1856.65019	0.01874
1855.36442	0.01860
1854.07865	0.01840
1852.79288	0.01827
1851.50711	0.01829
1850.22134	0.01839
1848.93557	0.01849
1847.64980	0.01851
1846.36404	0.01852
1845.07827	0.01858
1843.79250	0.01871
1842.50673	0.01886
1841.22096	0.01900
1839.93519	0.01909
1838.64942	0.01909
1837.36365	0.01902
1836.07788	0.01897
1834.79212	0.01902
1833.50635	0.01917
1832.22058	0.01932
1830.93481	0.01935
1829.64904	0.01919
1828.36327	0.01893
1827.07750	0.01870
1825.79173	0.01854
1824.50597	0.01840
1823.22020	0.01829
1821.93443	0.01831
1820.64866	0.01848
1819.36289	0.01869
1818.07712	0.01886
1816.79135	0.01902
1815.50558	0.01922
1814.21981	0.01946
1812.93405	0.01967
1811.64828	0.01982
1810.36251	0.01996
1809.07674	0.02009
1807.79097	0.02015
1806.50520	0.02008
1805.21943	0.01994
1803.93366	0.01981
1802.64790	0.01975
1801.36213	0.01971
1800.07636	0.01964
1798.79059	0.01953
1797.50482	0.01944
1796.21905	0.01940
1794.93328	0.01941
1793.64751	0.01952
1792.36174	0.01972
1791.07598	0.01995
1789.79021	0.02015
1788.50444	0.02025
1787.21867	0.02025
1785.93290	0.02022
1784.64713	0.02020
1783.36136	0.02022
1782.07559	0.02027
1780.78983	0.02031
1779.50406	0.02025
1778.21829	0.02008
1776.93252	0.01984
1775.64675	0.01967
1774.36098	0.01967
1773.07521	0.01979
1771.78944	0.01994
1770.50367	0.02015
1769.21791	0.02045
1767.93214	0.02075
1766.64637	0.02090
1765.36060	0.02088
1764.07483	0.02082
1762.78906	0.02083
1761.50329	0.02089
1760.21752	0.02096
1758.93176	0.02102
1757.64599	0.02101
1756.36022	0.02090
1755.07445	0.02074
1753.78868	0.02067
1752.50291	0.02076
1751.21714	0.02094
1749.93137	0.02109
1748.64560	0.02117
1747.35984	0.02120
1746.07407	0.02119
1744.78830	0.02117
1743.50253	0.02117
1742.21676	0.02122
1740.93099	0.02133
1739.64522	0.02140
1738.35945	0.02137
1737.07369	0.02131
1735.78792	0.02135
1734.50215	0.02150
1733.21638	0.02165
1731.93061	0.02176
1730.64484	0.02186
1729.35907	0.02197
1728.07330	0.02208
1726.78753	0.02224
1725.50177	0.02248
1724.21600	0.02277
1722.93023	0.02303
1721.64446	0.02321
1720.35869	0.02333
1719.07292	0.02345
1717.78715	0.02358
1716.50138	0.02370
1715.21561	0.02388
1713.92985	0.02411
1712.64408	0.02439
1711.35831	0.02466
1710.07254	0.02494
1708.78677	0.02521
1707.50100	0.02550
1706.21523	0.02578
1704.92946	0.02606
1703.64370	0.02636
1702.35793	0.02673
1701.07216	0.02713
1699.78639	0.02742
1698.50062	0.02765
1697.21485	0.02797
1695.92908	0.02836
1694.64331	0.02872
1693.35754	0.02902
1692.07178	0.02934
1690.78601	0.02967
1689.50024	0.02995
1688.21447	0.03020
1686.92870	0.03050
1685.64293	0.03089
1684.35716	0.03131
1683.07139	0.03173
1681.78563	0.03215
1680.49986	0.03255
1679.21409	0.03288
1677.92832	0.03317
1676.64255	0.03352
1675.35678	0.03393
1674.07101	0.03432
1672.78524	0.03466
1671.49947	0.03498
1670.21371	0.03530
1668.92794	0.03562
1667.64217	0.03594
1666.35640	0.03629
1665.07063	0.03667
1663.78486	0.03706
1662.49909	0.03746
1661.21332	0.03783
1659.92756	0.03815
1658.64179	0.03836
1657.35602	0.03843
1656.07025	0.03843
1654.78448	0.03854
1653.49871	0.03875
1652.21294	0.03895
1650.92717	0.03914
1649.64140	0.03939
1648.35564	0.03972
1647.06987	0.04000
1645.78410	0.04014
1644.49833	0.04015
1643.21256	0.04010
1641.92679	0.04005
1640.64102	0.03997
1639.35525	0.03987
1638.06949	0.03977
1636.78372	0.03968
1635.49795	0.03957
1634.21218	0.03948
1632.92641	0.03948
1631.64064	0.03958
1630.35487	0.03968
1629.06910	0.03970
1627.78333	0.03966
1626.49757	0.03959
1625.21180	0.03954
1623.92603	0.03949
1622.64026	0.03944
1621.35449	0.03939
1620.06872	0.03942
1618.78295	0.03955
1617.49718	0.03972
1616.21142	0.03982
1614.92565	0.03985
1613.63988	0.03991
1612.35411	0.04003
1611.06834	0.04018
1609.78257	0.04033
1608.49680	0.04048
1607.21103	0.04064
1605.92526	0.04082
1604.63950	0.04098
1603.35373	0.04114
1602.06796	0.04135
1600.78219	0.04162
1599.49642	0.04193
1598.21065	0.04223
1596.92488	0.04248
1595.63911	0.04269
1594.35335	0.04291
1593.06758	0.04318
1591.78181	0.04349
1590.49604	0.04381
1589.21027	0.04413
1587.92450	0.04444
1586.63873	0.04477
1585.35296	0.04515
1584.06719	0.04558
1582.78143	0.04601
1581.49566	0.04642
1580.20989	0.04679
1578.92412	0.04718
1577.63835	0.04765
1576.35258	0.04818
1575.06681	0.04865
1573.78104	0.04909
1572.49528	0.04953
1571.20951	0.05001
1569.92374	0.05052
1568.63797	0.05103
1567.35220	0.05155
1566.06643	0.05206
1564.78066	0.05246
1563.49489	0.05274
1562.20912	0.05300
1560.92336	0.05335
1559.63759	0.05379
1558.35182	0.05423
1557.06605	0.05464
1555.78028	0.05506
1554.49451	0.05548
1553.20874	0.05584
1551.92297	0.05610
1550.63721	0.05632
1549.35144	0.05649
1548.06567	0.05659
1546.77990	0.05660
1545.49413	0.05647
1544.20836	0.05620
1542.92259	0.05586
1541.63682	0.05558
1540.35105	0.05541
1539.06529	0.05529
1537.77952	0.05514
1536.49375	0.05499
1535.20798	0.05491
1533.92221	0.05488
1532.63644	0.05487
1531.35067	0.05491
1530.06490	0.05502
1528.77914	0.05520
1527.49337	0.05545
1526.20760	0.05576
1524.92183	0.05611
1523.63606	0.05653
1522.35029	0.05706
1521.06452	0.05765
1519.77875	0.05831
1518.49298	0.05910
1517.20722	0.06005
1515.92145	0.06107
1514.63568	0.06212
1513.34991	0.06319
1512.06414	0.06428
1510.77837	0.06539
1509.49260	0.06656
1508.20683	0.06781
1506.92107	0.06911
1505.63530	0.07036
1504.34953	0.07153
1503.06376	0.07264
1501.77799	0.07366
1500.49222	0.07456
1499.20645	0.07538
1497.92068	0.07617
1496.63491	0.07696
1495.34915	0.07770
1494.06338	0.07840
1492.77761	0.07911
1491.49184	0.07985
1490.20607	0.08061
1488.92030	0.08143
1487.63453	0.08236
1486.34876	0.08339
1485.06299	0.08451
1483.77723	0.08565
1482.49146	0.08679
1481.20569	0.08791
1479.91992	0.08898
1478.63415	0.09002
1477.34838	0.09101
1476.06261	0.09195
1474.77684	0.09283
1473.49108	0.09365
1472.20531	0.09440
1470.91954	0.09513
1469.63377	0.09585
1468.34800	0.09659
1467.06223	0.09729
1465.77646	0.09791
1464.49069	0.09843
1463.20492	0.09886
1461.91916	0.09922
1460.63339	0.09953
1459.34762	0.09987
1458.06185	0.10029
1456.77608	0.10078
1455.49031	0.10136
1454.20454	0.10206
1452.91877	0.10284
1451.63301	0.10354
1450.34724	0.10405
1449.06147	0.10438
1447.77570	0.10459
1446.48993	0.10471
1445.20416	0.10474
1443.91839	0.10467
1442.63262	0.10452
1441.34685	0.10432
1440.06109	0.10415
1438.77532	0.10406
1437.48955	0.10408
1436.20378	0.10418
1434.91801	0.10437
1433.63224	0.10469
1432.34647	0.10523
1431.06070	0.10600
1429.77494	0.10699
1428.48917	0.10820
1427.20340	0.10956
1425.91763	0.11103
1424.63186	0.11252
1423.34609	0.11397
1422.06032	0.11539
1420.77455	0.11679
1419.48878	0.11812
1418.20302	0.11931
1416.91725	0.12036
1415.63148	0.12127
1414.34571	0.12199
1413.05994	0.12250
1411.77417	0.12280
1410.48840	0.12293
1409.20263	0.12287
1407.91687	0.12258
1406.63110	0.12202
1405.34533	0.12118
1404.05956	0.12007
1402.77379	0.11871
1401.48802	0.11719
1400.20225	0.11553
1398.91648	0.11377
1397.63071	0.11191
1396.34495	0.10997
1395.05918	0.10795
1393.77341	0.10584
1392.48764	0.10368
1391.20187	0.10154
1389.91610	0.09946
1388.63033	0.09742
1387.34456	0.09541
1386.05880	0.09339
1384.77303	0.09139
1383.48726	0.08944
1382.20149	0.08756
1380.91572	0.08574
1379.62995	0.08393
1378.34418	0.08205
1377.05841	0.08006
1375.77264	0.07796
1374.48688	0.07575
1373.20111	0.07345
1371.91534	0.07111
1370.62957	0.06882
1369.34380	0.06665
1368.05803	0.06466
1366.77226	0.06284
1365.48649	0.06115
1364.20073	0.05952
1362.91496	0.05789
1361.62919	0.05628
1360.34342	0.05474
1359.05765	0.05333
1357.77188	0.05204
1356.48611	0.05087
1355.20034	0.04978
1353.91457	0.04875
1352.62881	0.04776
1351.34304	0.04682
1350.05727	0.04595
1348.77150	0.04514
1347.48573	0.04435
1346.19996	0.04356
1344.91419	0.04279
1343.62842	0.04210
1342.34266	0.04149
1341.05689	0.04094
1339.77112	0.04044
1338.48535	0.03997
1337.19958	0.03952
1335.91381	0.03907
1334.62804	0.03860
1333.34227	0.03812
1332.05650	0.03767
1330.77074	0.03727
1329.48497	0.03690
1328.19920	0.03655
1326.91343	0.03622
1325.62766	0.03594
1324.34189	0.03566
1323.05612	0.03536
1321.77035	0.03501
1320.48459	0.03464
1319.19882	0.03432
1317.91305	0.03407
1316.62728	0.03389
1315.34151	0.03370
1314.05574	0.03347
1312.76997	0.03319
1311.48420	0.03289
1310.19843	0.03259
1308.91267	0.03232
1307.62690	0.03208
1306.34113	0.03184
1305.05536	0.03161
1303.76959	0.03140
1302.48382	0.03123
1301.19805	0.03109
1299.91228	0.03097
1298.62652	0.03082
1297.34075	0.03062
1296.05498	0.03038
1294.76921	0.03013
1293.48344	0.02993
1292.19767	0.02979
1290.91190	0.02969
1289.62613	0.02956
1288.34036	0.02936
1287.05460	0.02911
1285.76883	0.02883
1284.48306	0.02859
1283.19729	0.02839
1281.91152	0.02824
1280.62575	0.02811
1279.33998	0.02798
1278.05421	0.02780
1276.76845	0.02761
1275.48268	0.02743
1274.19691	0.02726
1272.91114	0.02710
1271.62537	0.02692
1270.33960	0.02671
1269.05383	0.02651
1267.76806	0.02632
1266.48229	0.02616
1265.19653	0.02603
1263.91076	0.02591
1262.62499	0.02579
1261.33922	0.02566
1260.05345	0.02554
1258.76768	0.02544
1257.48191	0.02536
1256.19614	0.02529
1254.91037	0.02518
1253.62461	0.02504
1252.33884	0.02485
1251.05307	0.02466
1249.76730	0.02450
1248.48153	0.02436
1247.19576	0.02423
1245.90999	0.02412
1244.62422	0.02404
1243.33846	0.02396
1242.05269	0.02387
1240.76692	0.02376
1239.48115	0.02364
1238.19538	0.02350
1236.90961	0.02336
1235.62384	0.02322
1234.33807	0.02308
1233.05230	0.02295
1231.76654	0.02285
1230.48077	0.02276
1229.19500	0.02266
1227.90923	0.02252
1226.62346	0.02236
1225.33769	0.02220
1224.05192	0.02203
1222.76615	0.02188
1221.48039	0.02175
1220.19462	0.02164
1218.90885	0.02155
1217.62308	0.02143
1216.33731	0.02128
1215.05154	0.02113
1213.76577	0.02101
1212.48000	0.02091
1211.19423	0.02084
1209.90847	0.02079
1208.62270	0.02076
1207.33693	0.02071
1206.05116	0.02063
1204.76539	0.02052
1203.47962	0.02037
1202.19385	0.02022
1200.90808	0.02011
1199.62232	0.02008
1198.33655	0.01998
1197.05078	0.01993
1195.76501	0.01991
1194.47924	0.01987
1193.19347	0.01979
1191.90770	0.01971
1190.62193	0.01967
1189.33616	0.01965
1188.05040	0.01963
1186.76463	0.01958
1185.47886	0.01952
1184.19309	0.01950
1182.90732	0.01952
1181.62155	0.01953
1180.33578	0.01950
1179.05001	0.01944
1177.76425	0.01939
1176.47848	0.01939
1175.19271	0.01942
1173.90694	0.01948
1172.62117	0.01953
1171.33540	0.01956
1170.04963	0.01956
1168.76386	0.01961
1167.47809	0.01974
1166.19233	0.01994
1164.90656	0.02016
1163.62079	0.02034
1162.33502	0.02045
1161.04925	0.02051
1159.76348	0.02057
1158.47771	0.02070
1157.19194	0.02094
1155.90618	0.02127
1154.62041	0.02162
1153.33464	0.02192
1152.04887	0.02218
1150.76310	0.02245
1149.47733	0.02280
1148.19156	0.02324
1146.90579	0.02376
1145.62002	0.02436
1144.33426	0.02505
1143.04849	0.02584
1141.76272	0.02668
1140.47695	0.02754
1139.19118	0.02843
1137.90541	0.02942
1136.61964	0.03059
1135.33387	0.03195
1134.04811	0.03350
1132.76234	0.03517
1131.47657	0.03699
1130.19080	0.03900
1128.90503	0.04129
1127.61926	0.04385
1126.33349	0.04662
1125.04772	0.04952
1123.76195	0.05252
1122.47619	0.05564
1121.19042	0.05891
1119.90465	0.06228
1118.61888	0.06568
1117.33311	0.06910
1116.04734	0.07259
1114.76157	0.07618
1113.47580	0.07983
1112.19004	0.08344
1110.90427	0.08694
1109.61850	0.09028
1108.33273	0.09343
1107.04696	0.09644
1105.76119	0.09938
1104.47542	0.10232
1103.18965	0.10528
1101.90388	0.10825
1100.61812	0.11115
1099.33235	0.11391
1098.04658	0.11648
1096.76081	0.11892
1095.47504	0.12126
1094.18927	0.12346
1092.90350	0.12548
1091.61773	0.12735
1090.33197	0.12914
1089.04620	0.13091
1087.76043	0.13265
1086.47466	0.13437
1085.18889	0.13607
1083.90312	0.13782
1082.61735	0.13970
1081.33158	0.14176
1080.04581	0.14398
1078.76005	0.14636
1077.47428	0.14885
1076.18851	0.15141
1074.90274	0.15400
1073.61697	0.15666
1072.33120	0.15948
1071.04543	0.16248
1069.75966	0.16559
1068.47390	0.16875
1067.18813	0.17195
1065.90236	0.17525
1064.61659	0.17868
1063.33082	0.18218
1062.04505	0.18563
1060.75928	0.18895
1059.47351	0.19212
1058.18774	0.19518
1056.90198	0.19818
1055.61621	0.20121
1054.33044	0.20426
1053.04467	0.20734
1051.75890	0.21044
1050.47313	0.21360
1049.18736	0.21690
1047.90159	0.22035
1046.61583	0.22392
1045.33006	0.22754
1044.04429	0.23119
1042.75852	0.23488
1041.47275	0.23865
1040.18698	0.24249
1038.90121	0.24633
1037.61544	0.25012
1036.32967	0.25388
1035.04391	0.25764
1033.75814	0.26138
1032.47237	0.26500
1031.18660	0.26839
1029.90083	0.27145
1028.61506	0.27412
1027.32929	0.27640
1026.04352	0.27834
1024.75775	0.28003
1023.47199	0.28146
1022.18622	0.28258
1020.90045	0.28329
1019.61468	0.28357
1018.32891	0.28349
1017.04314	0.28306
1015.75737	0.28223
1014.47160	0.28088
1013.18584	0.27899
1011.90007	0.27663
1010.61430	0.27387
1009.32853	0.27070
1008.04276	0.26707
1006.75699	0.26300
1005.47122	0.25848
1004.18545	0.25346
1002.89968	0.24793
1001.61392	0.24190
1000.32815	0.23548
999.04238	0.22881
997.75661	0.22201
996.47084	0.21511
995.18507	0.20810
993.89930	0.20099
992.61353	0.19387
991.32777	0.18683
990.04200	0.17992
988.75623	0.17316
987.47046	0.16656
986.18469	0.16018
984.89892	0.15410
983.61315	0.14841
982.32738	0.14311
981.04161	0.13817
979.75585	0.13352
978.47008	0.12913
977.18431	0.12500
975.89854	0.12119
974.61277	0.11782
973.32700	0.11497
972.04123	0.11270
970.75546	0.11105
969.46970	0.11002
968.18393	0.10963
966.89816	0.10976
965.61239	0.11028
964.32662	0.11105
963.04085	0.11193
961.75508	0.11274
960.46931	0.11320
959.18354	0.11302
957.89778	0.11207
956.61201	0.11041
955.32624	0.10822
954.04047	0.10574
952.75470	0.10314
951.46893	0.10056
950.18316	0.09807
948.89739	0.09568
947.61163	0.09333
946.32586	0.09095
945.04009	0.08853
943.75432	0.08611
942.46855	0.08383
941.18278	0.08174
939.89701	0.07982
938.61124	0.07796
937.32547	0.07615
936.03971	0.07443
934.75394	0.07287
933.46817	0.07147
932.18240	0.07016
930.89663	0.06887
929.61086	0.06758
928.32509	0.06632
927.03932	0.06512
925.75356	0.06401
924.46779	0.06299
923.18202	0.06208
921.89625	0.06131
920.61048	0.06066
919.32471	0.06005
918.03894	0.05939
916.75317	0.05868
915.46740	0.05797
914.18164	0.05732
912.89587	0.05673
911.61010	0.05619
910.32433	0.05566
909.03856	0.05518
907.75279	0.05470
906.46702	0.05418
905.18125	0.05360
903.89549	0.05306
902.60972	0.05263
901.32395	0.05228
900.03818	0.05192
898.75241	0.05154
897.46664	0.05116
896.18087	0.05082
894.89510	0.05049
893.60933	0.05020
892.32357	0.05000
891.03780	0.04997
889.75203	0.05015
888.46626	0.05059
887.18049	0.05135
885.89472	0.05253
884.60895	0.05431
883.32318	0.05679
882.03742	0.05985
880.75165	0.06307
879.46588	0.06590
878.18011	0.06804
876.89434	0.06965
875.60857	0.07114
874.32280	0.07275
873.03703	0.07428
871.75126	0.07531
870.46550	0.07551
869.17973	0.07480
867.89396	0.07329
866.60819	0.07117
865.32242	0.06869
864.03665	0.06605
862.75088	0.06343
861.46511	0.06093
860.17935	0.05867
858.89358	0.05670
857.60781	0.05506
856.32204	0.05373
855.03627	0.05267
853.75050	0.05179
852.46473	0.05099
851.17896	0.05021
849.89319	0.04951
848.60743	0.04898
847.32166	0.04858
846.03589	0.04819
844.75012	0.04773
843.46435	0.04725
842.17858	0.04681
840.89281	0.04646
839.60704	0.04614
838.32128	0.04582
837.03551	0.04545
835.74974	0.04505
834.46397	0.04461
833.17820	0.04419
831.89243	0.04384
830.60666	0.04359
829.32089	0.04343
828.03512	0.04334
826.74936	0.04326
825.46359	0.04315
824.17782	0.04298
822.89205	0.04276
821.60628	0.04255
820.32051	0.04239
819.03474	0.04227
817.74897	0.04214
816.46321	0.04195
815.17744	0.04169
813.89167	0.04144
812.60590	0.04129
811.32013	0.04126
810.03436	0.04127
808.74859	0.04123
807.46282	0.04112
806.17705	0.04099
804.89129	0.04090
803.60552	0.04086
802.31975	0.04083
801.03398	0.04077
799.74821	0.04065
798.46244	0.04050
797.17667	0.04036
795.89090	0.04024
794.60513	0.04010
793.31937	0.03992
792.03360	0.03971
790.74783	0.03957
789.46206	0.03952
788.17629	0.03957
786.89052	0.03964
785.60475	0.03968
784.31898	0.03963
783.03322	0.03950
781.74745	0.03933
780.46168	0.03916
779.17591	0.03902
777.89014	0.03890
776.60437	0.03884
775.31860	0.03882
774.03283	0.03881
772.74706	0.03870
771.46130	0.03850
770.17553	0.03833
768.88976	0.03828
767.60399	0.03832
766.31822	0.03831
765.03245	0.03823
763.74668	0.03814
762.46091	0.03814
761.17515	0.03825
759.88938	0.03842
758.60361	0.03860
757.31784	0.03875
756.03207	0.03884
754.74630	0.03886
753.46053	0.03879
752.17476	0.03864
750.88899	0.03847
749.60323	0.03837
748.31746	0.03832
747.03169	0.03826
745.74592	0.03808
744.46015	0.03775
743.17438	0.03742
741.88861	0.03721
740.60284	0.03720
739.31708	0.03730
738.03131	0.03741
736.74554	0.03747
735.45977	0.03751
734.17400	0.03752
732.88823	0.03745
731.60246	0.03726
730.31669	0.03699
729.03092	0.03675
727.74516	0.03662
726.45939	0.03658
725.17362	0.03654
723.88785	0.03643
722.60208	0.03643
721.31631	0.03651
720.03054	0.03664
718.74477	0.03681
717.45901	0.03697
716.17324	0.03706
714.88747	0.03705
713.60170	0.03697
712.31593	0.03685
711.03016	0.03669
709.74439	0.03649
708.45862	0.03629
707.17285	0.03613
705.88709	0.03603
704.60132	0.03598
703.31555	0.03597
702.02978	0.03598
700.74401	0.03602
699.45824	0.03605
698.17247	0.03606
696.88670	0.03602
695.60094	0.03596
694.31517	0.03591
693.02940	0.03591
691.74363	0.03597
690.45786	0.03605
689.17209	0.03608
687.88632	0.03602
686.60055	0.03589
685.31478	0.03576
684.02902	0.03564
682.74325	0.03555
681.45748	0.03545
680.17171	0.03532
678.88594	0.03519
677.60017	0.03507
676.31440	0.03498
675.02863	0.03491
673.74287	0.03484
672.45710	0.03478
671.17133	0.03477
669.88556	0.03486
668.59979	0.03500
667.31402	0.03510
666.02825	0.03505
664.74248	0.03485
663.45671	0.03455
662.17095	0.03426
660.88518	0.03402
659.59941	0.03388
658.31364	0.03383
657.02787	0.03381
655.74210	0.03373
654.45633	0.03357
653.17056	0.03337
651.88480	0.03323
650.59903	0.03318
649.31326	0.03320
648.02749	0.03326
646.74172	0.03329
645.45595	0.03329
644.17018	0.03328
642.88441	0.03332
641.59864	0.03343
640.31288	0.03361
639.02711	0.03381
637.74134	0.03402
636.45557	0.03426
635.16980	0.03457
633.88403	0.03501
632.59826	0.03558
631.31249	0.03619
630.02673	0.03639
628.74096	0.03639
627.45519	0.03784
626.16942	0.03772
624.88365	0.03653
623.59788	0.03570
622.31211	0.03618
621.02634	0.03841
619.74057	0.04216
618.45481	0.04677
617.16904	0.05147
615.88327	0.05572
614.59750	0.05949
613.31173	0.06339
612.02596	0.06815
610.74019	0.07374
609.45442	0.07924
608.16866	0.08375
606.88289	0.08730
605.59712	0.09061
604.31135	0.09420
603.02558	0.09779
601.73981	0.10042
600.45404	0.10132
599.16827	0.10052
597.88250	0.09859
596.59674	0.09615
595.31097	0.09357
594.02520	0.09107
592.73943	0.08882
591.45366	0.08703
590.16789	0.08588
588.88212	0.08544
587.59635	0.08568
586.31059	0.08652
585.02482	0.08792
583.73905	0.08979
582.45328	0.09203
581.16751	0.09455
579.88174	0.09724
578.59597	0.10002
577.31020	0.10279
576.02443	0.10548
574.73867	0.10808
573.45290	0.11058
572.16713	0.11310
570.88136	0.11580
569.59559	0.11889
568.30982	0.12255
567.02405	0.12670
565.73828	0.13101
564.45251	0.13496
563.16675	0.13804
561.88098	0.13987
560.59521	0.14017
559.30944	0.13873
558.02367	0.13550
556.73790	0.13070
555.45213	0.12476
554.16636	0.11826
552.88060	0.11171
551.59483	0.10546
550.30906	0.09966
549.02329	0.09430
547.73752	0.08934
546.45175	0.08474
545.16598	0.08050
543.88021	0.07670
542.59444	0.07346
541.30868	0.07078
540.02291	0.06850
538.73714	0.06640
537.45137	0.06437
536.16560	0.06245
534.87983	0.06070
533.59406	0.05912
532.30829	0.05762
531.02253	0.05613
529.73676	0.05463
528.45099	0.05319
527.16522	0.05187
525.87945	0.05069
524.59368	0.04963
523.30791	0.04862
522.02214	0.04759
520.73637	0.04653
519.45061	0.04546
518.16484	0.04442
516.87907	0.04346
515.59330	0.04260
514.30753	0.04184
513.02176	0.04115
511.73599	0.04052
510.45022	0.03997
509.16446	0.03950
507.87869	0.03902
506.59292	0.03842
505.30715	0.03774
504.02138	0.03706
502.73561	0.03652
501.44984	0.03611
500.16407	0.03576
498.87830	0.03538
497.59254	0.03499
496.30677	0.03460
495.02100	0.03422
493.73523	0.03385
492.44946	0.03350
491.16369	0.03320
489.87792	0.03297
488.59215	0.03283
487.30639	0.03275
486.02062	0.03271
484.73485	0.03270
483.44908	0.03268
482.16331	0.03263
480.87754	0.03259
479.59177	0.03261
478.30600	0.03276
477.02023	0.03302
475.73447	0.03334
474.44870	0.03363
473.16293	0.03383
471.87716	0.03394
470.59139	0.03399
469.30562	0.03399
468.01985	0.03391
466.73408	0.03365
465.44832	0.03319
464.16255	0.03266
462.87678	0.03218
461.59101	0.03181
460.30524	0.03150
459.01947	0.03118
457.73370	0.03084
456.44793	0.03053
455.16216	0.03026
453.87640	0.03002
452.59063	0.02981
451.30486	0.02959
450.01909	0.02935
448.73332	0.02909
447.44755	0.02881
446.16178	0.02852
444.87601	0.02827
443.59025	0.02806
442.30448	0.02788
441.01871	0.02771
439.73294	0.02755
438.44717	0.02740
437.16140	0.02727
435.87563	0.02716
434.58986	0.02706
433.30409	0.02696
432.01833	0.02686
430.73256	0.02676
429.44679	0.02670
428.16102	0.02663
426.87525	0.02655
425.58948	0.02642
424.30371	0.02626
423.01794	0.02610
421.73218	0.02593
420.44641	0.02576
419.16064	0.02559
417.87487	0.02542
416.58910	0.02526
415.30333	0.02509
414.01756	0.02493
412.73179	0.02483
411.44602	0.02482
410.16026	0.02488
408.87449	0.02496
407.58872	0.02500
406.30295	0.02502
405.01718	0.02503
403.73141	0.02505
402.44564	0.02511
401.15987	0.02520
399.87411	0.02531
