3997.45528	0.06854
3996.16951	0.06899
3994.88374	0.06983
3993.59798	0.07066
3992.31221	0.07085
3991.02644	0.07033
3989.74067	0.06957
3988.45490	0.06905
3987.16913	0.06887
3985.88336	0.06887
3984.59759	0.06888
3983.31183	0.06885
3982.02606	0.06877
3980.74029	0.06870
3979.45452	0.06865
3978.16875	0.06860
3976.88298	0.06852
3975.59721	0.06845
3974.31144	0.06848
3973.02567	0.06862
3971.73991	0.06879
3970.45414	0.06883
3969.16837	0.06867
3967.88260	0.06840
3966.59683	0.06816
3965.31106	0.06804
3964.02529	0.06801
3962.73952	0.06795
3961.45376	0.06779
3960.16799	0.06768
3958.88222	0.06777
3957.59645	0.06802
3956.31068	0.06818
3955.02491	0.06814
3953.73914	0.06803
3952.45337	0.06799
3951.16760	0.06795
3949.88184	0.06776
3948.59607	0.06748
3947.31030	0.06727
3946.02453	0.06712
3944.73876	0.06686
3943.45299	0.06649
3942.16722	0.06632
3940.88145	0.06663
3939.59569	0.06730
3938.30992	0.06790
3937.02415	0.06808
3935.73838	0.06785
3934.45261	0.06743
3933.16684	0.06704
3931.88107	0.06676
3930.59530	0.06657
3929.30953	0.06642
3928.02377	0.06627
3926.73800	0.06612
3925.45223	0.06592
3924.16646	0.06560
3922.88069	0.06521
3921.59492	0.06495
3920.30915	0.06496
3919.02338	0.06522
3917.73762	0.06562
3916.45185	0.06595
3915.16608	0.06606
3913.88031	0.06602
3912.59454	0.06603
3911.30877	0.06631
3910.02300	0.06687
3908.73723	0.06743
3907.45146	0.06766
3906.16570	0.06758
3904.87993	0.06750
3903.59416	0.06765
3902.30839	0.06801
3901.02262	0.06838
3899.73685	0.06851
3898.45108	0.06816
3897.16531	0.06732
3895.87955	0.06632
3894.59378	0.06568
3893.30801	0.06574
3892.02224	0.06625
3890.73647	0.06658
3889.45070	0.06646
3888.16493	0.06621
3886.87916	0.06601
3885.59339	0.06565
3884.30763	0.06511
3883.02186	0.06475
3881.73609	0.06471
3880.45032	0.06459
3879.16455	0.06405
3877.87878	0.06333
3876.59301	0.06280
3875.30724	0.06243
3874.02148	0.06208
3872.73571	0.06207
3871.44994	0.06275
3870.16417	0.06372
3868.87840	0.06430
3867.59263	0.06449
3866.30686	0.06474
3865.02109	0.06513
3863.73532	0.06544
3862.44956	0.06555
3861.16379	0.06538
3859.87802	0.06484
3858.59225	0.06406
3857.30648	0.06348
3856.02071	0.06342
3854.73494	0.06358
3853.44917	0.06311
3852.16341	0.06175
3850.87764	0.06035
3849.59187	0.05978
3848.30610	0.06015
3847.02033	0.06095
3845.73456	0.06163
3844.44879	0.06186
3843.16302	0.06161
3841.87725	0.06112
3840.59149	0.06082
3839.30572	0.06090
3838.01995	0.06104
3836.73418	0.06091
3835.44841	0.06065
3834.16264	0.06063
3832.87687	0.06090
3831.59110	0.06116
3830.30534	0.06122
3829.01957	0.06122
3827.73380	0.06134
3826.44803	0.06152
3825.16226	0.06164
3823.87649	0.06176
3822.59072	0.06178
3821.30495	0.06140
3820.01918	0.06077
3818.73342	0.06078
3817.44765	0.06193
3816.16188	0.06338
3814.87611	0.06392
3813.59034	0.06350
3812.30457	0.06280
3811.01880	0.06225
3809.73303	0.06195
3808.44726	0.06178
3807.16150	0.06139
3805.87573	0.06067
3804.58996	0.06016
3803.30419	0.06038
3802.01842	0.06097
3800.73265	0.06118
3799.44688	0.06091
3798.16111	0.06063
3796.87535	0.06046
3795.58958	0.06027
3794.30381	0.06017
3793.01804	0.06038
3791.73227	0.06097
3790.44650	0.06180
3789.16073	0.06266
3787.87496	0.06330
3786.58919	0.06354
3785.30343	0.06336
3784.01766	0.06292
3782.73189	0.06244
3781.44612	0.06205
3780.16035	0.06156
3778.87458	0.06073
3777.58881	0.05975
3776.30304	0.05907
3775.01728	0.05888
3773.73151	0.05897
3772.44574	0.05910
3771.15997	0.05919
3769.87420	0.05916
3768.58843	0.05908
3767.30266	0.05914
3766.01689	0.05943
3764.73112	0.05986
3763.44536	0.06029
3762.15959	0.06062
3760.87382	0.06077
3759.58805	0.06072
3758.30228	0.06052
3757.01651	0.06014
3755.73074	0.05961
3754.44497	0.05907
3753.15921	0.05858
3751.87344	0.05798
3750.58767	0.05715
3749.30190	0.05627
3748.01613	0.05581
3746.73036	0.05633
3745.44459	0.05754
3744.15882	0.05839
3742.87305	0.05858
3741.58729	0.05882
3740.30152	0.05938
3739.01575	0.05966
3737.72998	0.05913
3736.44421	0.05784
3735.15844	0.05640
3733.87267	0.05553
3732.58690	0.05538
3731.30114	0.05540
3730.01537	0.05515
3728.72960	0.05486
3727.44383	0.05497
3726.15806	0.05570
3724.87229	0.05692
3723.58652	0.05810
3722.30075	0.05855
3721.01498	0.05796
3719.72922	0.05673
3718.44345	0.05562
3717.15768	0.05511
3715.87191	0.05520
3714.58614	0.05567
3713.30037	0.05623
3712.01460	0.05670
3710.72883	0.05700
3709.44307	0.05721
3708.15730	0.05746
3706.87153	0.05785
3705.58576	0.05833
3704.29999	0.05867
3703.01422	0.05852
3701.72845	0.05781
3700.44268	0.05682
3699.15691	0.05599
3697.87115	0.05551
3696.58538	0.05531
3695.29961	0.05538
3694.01384	0.05578
3692.72807	0.05634
3691.44230	0.05670
3690.15653	0.05661
3688.87076	0.05603
3687.58500	0.05513
3686.29923	0.05446
3685.01346	0.05447
3683.72769	0.05497
3682.44192	0.05535
3681.15615	0.05518
3679.87038	0.05461
3678.58461	0.05427
3677.29884	0.05464
3676.01308	0.05531
3674.72731	0.05553
3673.44154	0.05539
3672.15577	0.05557
3670.87000	0.05609
3669.58423	0.05633
3668.29846	0.05610
3667.01269	0.05588
3665.72693	0.05612
3664.44116	0.05678
3663.15539	0.05754
3661.86962	0.05817
3660.58385	0.05869
3659.29808	0.05935
3658.01231	0.06013
3656.72654	0.06048
3655.44077	0.05974
3654.15501	0.05812
3652.86924	0.05675
3651.58347	0.05662
3650.29770	0.05768
3649.01193	0.05905
3647.72616	0.05992
3646.44039	0.06021
3645.15462	0.06035
3643.86886	0.06071
3642.58309	0.06128
3641.29732	0.06182
3640.01155	0.06215
3638.72578	0.06239
3637.44001	0.06279
3636.15424	0.06345
3634.86847	0.06404
3633.58270	0.06403
3632.29694	0.06334
3631.01117	0.06250
3629.72540	0.06199
3628.43963	0.06183
3627.15386	0.06199
3625.86809	0.06257
3624.58232	0.06345
3623.29655	0.06428
3622.01079	0.06484
3620.72502	0.06506
3619.43925	0.06490
3618.15348	0.06449
3616.86771	0.06424
3615.58194	0.06447
3614.29617	0.06503
3613.01040	0.06544
3611.72463	0.06548
3610.43887	0.06529
3609.15310	0.06526
3607.86733	0.06567
3606.58156	0.06652
3605.29579	0.06752
3604.01002	0.06828
3602.72425	0.06872
3601.43848	0.06909
3600.15272	0.06954
3598.86695	0.06999
3597.58118	0.07028
3596.29541	0.07033
3595.00964	0.07013
3593.72387	0.06973
3592.43810	0.06927
3591.15233	0.06895
3589.86656	0.06886
3588.58080	0.06897
3587.29503	0.06924
3586.00926	0.06979
3584.72349	0.07083
3583.43772	0.07232
3582.15195	0.07386
3580.86618	0.07490
3579.58041	0.07515
3578.29464	0.07479
3577.00888	0.07425
3575.72311	0.07386
3574.43734	0.07364
3573.15157	0.07357
3571.86580	0.07389
3570.58003	0.07482
3569.29426	0.07616
3568.00849	0.07724
3566.72273	0.07758
3565.43696	0.07741
3564.15119	0.07734
3562.86542	0.07766
3561.57965	0.07820
3560.29388	0.07863
3559.00811	0.07877
3557.72234	0.07865
3556.43657	0.07842
3555.15081	0.07827
3553.86504	0.07828
3552.57927	0.07846
3551.29350	0.07882
3550.00773	0.07940
3548.72196	0.08012
3547.43619	0.08071
3546.15042	0.08099
3544.86466	0.08103
3543.57889	0.08114
3542.29312	0.08151
3541.00735	0.08210
3539.72158	0.08272
3538.43581	0.08323
3537.15004	0.08356
3535.86427	0.08367
3534.57850	0.08368
3533.29274	0.08383
3532.00697	0.08425
3530.72120	0.08486
3529.43543	0.08542
3528.14966	0.08578
3526.86389	0.08595
3525.57812	0.08606
3524.29235	0.08624
3523.00659	0.08643
3521.72082	0.08646
3520.43505	0.08625
3519.14928	0.08591
3517.86351	0.08569
3516.57774	0.08579
3515.29197	0.08620
3514.00620	0.08670
3512.72043	0.08706
3511.43467	0.08724
3510.14890	0.08734
3508.86313	0.08751
3507.57736	0.08790
3506.29159	0.08857
3505.00582	0.08936
3503.72005	0.08986
3502.43428	0.08976
3501.14852	0.08916
3499.86275	0.08855
3498.57698	0.08840
3497.29121	0.08878
3496.00544	0.08944
3494.71967	0.09004
3493.43390	0.09038
3492.14813	0.09040
3490.86236	0.09010
3489.57660	0.08964
3488.29083	0.08933
3487.00506	0.08945
3485.71929	0.09011
3484.43352	0.09120
3483.14775	0.09242
3481.86198	0.09334
3480.57621	0.09369
3479.29045	0.09352
3478.00468	0.09325
3476.71891	0.09327
3475.43314	0.09374
3474.14737	0.09450
3472.86160	0.09525
3471.57583	0.09576
3470.29006	0.09588
3469.00429	0.09565
3467.71853	0.09524
3466.43276	0.09486
3465.14699	0.09466
3463.86122	0.09470
3462.57545	0.09498
3461.28968	0.09543
3460.00391	0.09597
3458.71814	0.09656
3457.43238	0.09722
3456.14661	0.09784
3454.86084	0.09821
3453.57507	0.09818
3452.28930	0.09780
3451.00353	0.09731
3449.71776	0.09691
3448.43199	0.09670
3447.14622	0.09673
3445.86046	0.09706
3444.57469	0.09765
3443.28892	0.09830
3442.00315	0.09869
3440.71738	0.09866
3439.43161	0.09832
3438.14584	0.09796
3436.86007	0.09783
3435.57431	0.09800
3434.28854	0.09838
3433.00277	0.09878
3431.71700	0.09900
3430.43123	0.09896
3429.14546	0.09883
3427.85969	0.09893
3426.57392	0.09945
3425.28815	0.10024
3424.00239	0.10096
3422.71662	0.10143
3421.43085	0.10163
3420.14508	0.10162
3418.85931	0.10137
3417.57354	0.10100
3416.28777	0.10073
3415.00200	0.10074
3413.71624	0.10092
3412.43047	0.10105
3411.14470	0.10110
3409.85893	0.10128
3408.57316	0.10176
3407.28739	0.10238
3406.00162	0.10282
3404.71585	0.10294
3403.43008	0.10280
3402.14432	0.10262
3400.85855	0.10258
3399.57278	0.10270
3398.28701	0.10294
3397.00124	0.10313
3395.71547	0.10323
3394.42970	0.10334
3393.14393	0.10348
3391.85817	0.10350
3390.57240	0.10333
3389.28663	0.10313
3388.00086	0.10310
3386.71509	0.10323
3385.42932	0.10331
3384.14355	0.10315
3382.85778	0.10277
3381.57201	0.10231
3380.28625	0.10200
3379.00048	0.10199
3377.71471	0.10226
3376.42894	0.10262
3375.14317	0.10293
3373.85740	0.10321
3372.57163	0.10350
3371.28586	0.10379
3370.00010	0.10402
3368.71433	0.10417
3367.42856	0.10428
3366.14279	0.10444
3364.85702	0.10469
3363.57125	0.10495
3362.28548	0.10507
3360.99971	0.10493
3359.71394	0.10463
3358.42818	0.10437
3357.14241	0.10424
3355.85664	0.10424
3354.57087	0.10432
3353.28510	0.10447
3351.99933	0.10465
3350.71356	0.10470
3349.42779	0.10456
3348.14202	0.10436
3346.85626	0.10430
3345.57049	0.10449
3344.28472	0.10481
3342.99895	0.10508
3341.71318	0.10517
3340.42741	0.10501
3339.14164	0.10464
3337.85587	0.10424
3336.57011	0.10406
3335.28434	0.10426
3333.99857	0.10471
3332.71280	0.10516
3331.42703	0.10546
3330.14126	0.10558
3328.85549	0.10556
3327.56972	0.10537
3326.28395	0.10496
3324.99819	0.10432
3323.71242	0.10360
3322.42665	0.10304
3321.14088	0.10284
3319.85511	0.10299
3318.56934	0.10334
3317.28357	0.10374
3315.99780	0.10417
3314.71204	0.10461
3313.42627	0.10499
3312.14050	0.10515
3310.85473	0.10504
3309.56896	0.10479
3308.28319	0.10457
3306.99742	0.10443
3305.71165	0.10432
3304.42588	0.10417
3303.14012	0.10405
3301.85435	0.10400
3300.56858	0.10395
3299.28281	0.10373
3297.99704	0.10330
3296.71127	0.10286
3295.42550	0.10267
3294.13973	0.10282
3292.85397	0.10319
3291.56820	0.10353
3290.28243	0.10368
3288.99666	0.10360
3287.71089	0.10331
3286.42512	0.10289
3285.13935	0.10245
3283.85358	0.10214
3282.56781	0.10203
3281.28205	0.10218
3279.99628	0.10262
3278.71051	0.10320
3277.42474	0.10369
3276.13897	0.10385
3274.85320	0.10363
3273.56743	0.10321
3272.28166	0.10285
3270.99590	0.10270
3269.71013	0.10263
3268.42436	0.10237
3267.13859	0.10186
3265.85282	0.10132
3264.56705	0.10107
3263.28128	0.10122
3261.99551	0.10168
3260.70974	0.10226
3259.42398	0.10275
3258.13821	0.10300
3256.85244	0.10296
3255.56667	0.10272
3254.28090	0.10238
3252.99513	0.10197
3251.70936	0.10147
3250.42359	0.10092
3249.13783	0.10043
3247.85206	0.10012
3246.56629	0.10006
3245.28052	0.10022
3243.99475	0.10053
3242.70898	0.10084
3241.42321	0.10097
3240.13744	0.10074
3238.85167	0.10023
3237.56591	0.09974
3236.28014	0.09956
3234.99437	0.09973
3233.70860	0.10002
3232.42283	0.10020
3231.13706	0.10024
3229.85129	0.10029
3228.56552	0.10040
3227.27976	0.10049
3225.99399	0.10044
3224.70822	0.10019
3223.42245	0.09977
3222.13668	0.09917
3220.85091	0.09846
3219.56514	0.09778
3218.27937	0.09732
3216.99360	0.09727
3215.70784	0.09761
3214.42207	0.09812
3213.13630	0.09846
3211.85053	0.09841
3210.56476	0.09814
3209.27899	0.09795
3207.99322	0.09793
3206.70745	0.09787
3205.42169	0.09755
3204.13592	0.09701
3202.85015	0.09647
3201.56438	0.09611
3200.27861	0.09592
3198.99284	0.09582
3197.70707	0.09582
3196.42130	0.09593
3195.13553	0.09612
3193.84977	0.09617
3192.56400	0.09592
3191.27823	0.09539
3189.99246	0.09483
3188.70669	0.09451
3187.42092	0.09451
3186.13515	0.09472
3184.84938	0.09498
3183.56362	0.09516
3182.27785	0.09525
3180.99208	0.09531
3179.70631	0.09544
3178.42054	0.09559
3177.13477	0.09559
3175.84900	0.09531
3174.56323	0.09482
3173.27746	0.09432
3171.99170	0.09397
3170.70593	0.09373
3169.42016	0.09350
3168.13439	0.09323
3166.84862	0.09297
3165.56285	0.09275
3164.27708	0.09258
3162.99131	0.09245
3161.70555	0.09240
3160.41978	0.09242
3159.13401	0.09247
3157.84824	0.09243
3156.56247	0.09220
3155.27670	0.09182
3153.99093	0.09146
3152.70516	0.09129
3151.41939	0.09131
3150.13363	0.09138
3148.84786	0.09140
3147.56209	0.09136
3146.27632	0.09133
3144.99055	0.09128
3143.70478	0.09112
3142.41901	0.09079
3141.13324	0.09038
3139.84748	0.09006
3138.56171	0.08994
3137.27594	0.08995
3135.99017	0.08992
3134.70440	0.08970
3133.41863	0.08929
3132.13286	0.08886
3130.84709	0.08869
3129.56132	0.08884
3128.27556	0.08905
3126.98979	0.08903
3125.70402	0.08881
3124.41825	0.08861
3123.13248	0.08860
3121.84671	0.08865
3120.56094	0.08860
3119.27517	0.08847
3117.98940	0.08835
3116.70364	0.08821
3115.41787	0.08796
3114.13210	0.08761
3112.84633	0.08730
3111.56056	0.08713
3110.27479	0.08703
3108.98902	0.08692
3107.70325	0.08684
3106.41749	0.08690
3105.13172	0.08705
3103.84595	0.08711
3102.56018	0.08693
3101.27441	0.08659
3099.98864	0.08632
3098.70287	0.08617
3097.41710	0.08601
3096.13133	0.08576
3094.84557	0.08550
3093.55980	0.08532
3092.27403	0.08519
3090.98826	0.08506
3089.70249	0.08489
3088.41672	0.08470
3087.13095	0.08448
3085.84518	0.08424
3084.55942	0.08406
3083.27365	0.08397
3081.98788	0.08390
3080.70211	0.08378
3079.41634	0.08367
3078.13057	0.08364
3076.84480	0.08370
3075.55903	0.08374
3074.27326	0.08366
3072.98750	0.08351
3071.70173	0.08336
3070.41596	0.08323
3069.13019	0.08308
3067.84442	0.08287
3066.55865	0.08268
3065.27288	0.08255
3063.98711	0.08244
3062.70135	0.08224
3061.41558	0.08200
3060.12981	0.08189
3058.84404	0.08196
3057.55827	0.08211
3056.27250	0.08213
3054.98673	0.08196
3053.70096	0.08171
3052.41519	0.08148
3051.12943	0.08128
3049.84366	0.08105
3048.55789	0.08075
3047.27212	0.08042
3045.98635	0.08015
3044.70058	0.08000
3043.41481	0.07996
3042.12904	0.07996
3040.84328	0.07988
3039.55751	0.07957
3038.27174	0.07895
3036.98597	0.07821
3035.70020	0.07761
3034.41443	0.07734
3033.12866	0.07731
3031.84289	0.07735
3030.55712	0.07736
3029.27136	0.07731
3027.98559	0.07720
3026.69982	0.07701
3025.41405	0.07676
3024.12828	0.07652
3022.84251	0.07635
3021.55674	0.07623
3020.27097	0.07615
3018.98521	0.07612
3017.69944	0.07616
3016.41367	0.07625
3015.12790	0.07634
3013.84213	0.07639
3012.55636	0.07637
3011.27059	0.07626
3009.98482	0.07605
3008.69905	0.07581
3007.41329	0.07562
3006.12752	0.07550
3004.84175	0.07547
3003.55598	0.07546
3002.27021	0.07545
3000.98444	0.07544
2999.69867	0.07547
2998.41290	0.07555
2997.12714	0.07560
2995.84137	0.07558
2994.55560	0.07547
2993.26983	0.07530
2991.98406	0.07506
2990.69829	0.07491
2989.41252	0.07505
2988.12675	0.07551
2986.84098	0.07603
2985.55522	0.07637
2984.26945	0.07654
2982.98368	0.07673
2981.69791	0.07708
2980.41214	0.07758
2979.12637	0.07819
2977.84060	0.07893
2976.55483	0.07986
2975.26907	0.08095
2973.98330	0.08210
2972.69753	0.08329
2971.41176	0.08462
2970.12599	0.08618
2968.84022	0.08792
2967.55445	0.08966
2966.26868	0.09131
2964.98291	0.09287
2963.69715	0.09440
2962.41138	0.09589
2961.12561	0.09733
2959.83984	0.09874
2958.55407	0.10022
2957.26830	0.10177
2955.98253	0.10316
2954.69676	0.10421
2953.41100	0.10488
2952.12523	0.10530
2950.83946	0.10561
2949.55369	0.10588
2948.26792	0.10612
2946.98215	0.10624
2945.69638	0.10608
2944.41061	0.10562
2943.12484	0.10503
2941.83908	0.10467
2940.55331	0.10486
2939.26754	0.10572
2937.98177	0.10698
2936.69600	0.10827
2935.41023	0.10944
2934.12446	0.11062
2932.83869	0.11198
2931.55293	0.11341
2930.26716	0.11470
2928.98139	0.11583
2927.69562	0.11692
2926.40985	0.11804
2925.12408	0.11900
2923.83831	0.11952
2922.55254	0.11944
2921.26677	0.11889
2919.98101	0.11808
2918.69524	0.11712
2917.40947	0.11600
2916.12370	0.11472
2914.83793	0.11338
2913.55216	0.11217
2912.26639	0.11119
2910.98062	0.11038
2909.69486	0.10955
2908.40909	0.10859
2907.12332	0.10751
2905.83755	0.10641
2904.55178	0.10535
2903.26601	0.10438
2901.98024	0.10352
2900.69447	0.10277
2899.40870	0.10206
2898.12294	0.10131
2896.83717	0.10041
2895.55140	0.09928
2894.26563	0.09798
2892.97986	0.09668
2891.69409	0.09554
2890.40832	0.09456
2889.12255	0.09370
2887.83678	0.09299
2886.55102	0.09248
2885.26525	0.09212
2883.97948	0.09178
2882.69371	0.09140
2881.40794	0.09101
2880.12217	0.09075
2878.83640	0.09073
2877.55063	0.09100
2876.26487	0.09151
2874.97910	0.09213
2873.69333	0.09272
2872.40756	0.09327
2871.12179	0.09384
2869.83602	0.09448
2868.55025	0.09510
2867.26448	0.09551
2865.97871	0.09565
2864.69295	0.09562
2863.40718	0.09551
2862.12141	0.09530
2860.83564	0.09495
2859.54987	0.09458
2858.26410	0.09440
2856.97833	0.09446
2855.69256	0.09463
2854.40680	0.09466
2853.12103	0.09436
2851.83526	0.09370
2850.54949	0.09277
2849.26372	0.09170
2847.97795	0.09056
2846.69218	0.08936
2845.40641	0.08820
2844.12064	0.08718
2842.83488	0.08621
2841.54911	0.08509
2840.26334	0.08374
2838.97757	0.08227
2837.69180	0.08087
2836.40603	0.07958
2835.12026	0.07832
2833.83449	0.07710
2832.54873	0.07601
2831.26296	0.07512
2829.97719	0.07433
2828.69142	0.07349
2827.40565	0.07260
2826.11988	0.07184
2824.83411	0.07133
2823.54834	0.07105
2822.26257	0.07085
2820.97681	0.07061
2819.69104	0.07028
2818.40527	0.06985
2817.11950	0.06937
2815.83373	0.06892
2814.54796	0.06856
2813.26219	0.06825
2811.97642	0.06789
2810.69066	0.06739
2809.40489	0.06686
2808.11912	0.06646
2806.83335	0.06625
2805.54758	0.06611
2804.26181	0.06588
2802.97604	0.06556
2801.69027	0.06528
2800.40450	0.06509
2799.11874	0.06494
2797.83297	0.06478
2796.54720	0.06462
2795.26143	0.06451
2793.97566	0.06441
2792.68989	0.06423
2791.40412	0.06391
2790.11835	0.06354
2788.83259	0.06322
2787.54682	0.06303
2786.26105	0.06296
2784.97528	0.06299
2783.68951	0.06309
2782.40374	0.06319
2781.11797	0.06317
2779.83220	0.06300
2778.54643	0.06273
2777.26067	0.06247
2775.97490	0.06229
2774.68913	0.06211
2773.40336	0.06183
2772.11759	0.06144
2770.83182	0.06111
2769.54605	0.06099
2768.26028	0.06107
2766.97452	0.06115
2765.68875	0.06110
2764.40298	0.06093
2763.11721	0.06073
2761.83144	0.06055
2760.54567	0.06035
2759.25990	0.06017
2757.97413	0.06009
2756.68836	0.06009
2755.40260	0.06010
2754.11683	0.06007
2752.83106	0.05999
2751.54529	0.05986
2750.25952	0.05972
2748.97375	0.05965
2747.68798	0.05970
2746.40221	0.05978
2745.11645	0.05969
2743.83068	0.05940
2742.54491	0.05911
2741.25914	0.05903
2739.97337	0.05913
2738.68760	0.05917
2737.40183	0.05894
2736.11606	0.05850
2734.83029	0.05809
2733.54453	0.05793
2732.25876	0.05802
2730.97299	0.05817
2729.68722	0.05818
2728.40145	0.05797
2727.11568	0.05756
2725.82991	0.05715
2724.54414	0.05700
2723.25838	0.05723
2721.97261	0.05770
2720.68684	0.05809
2719.40107	0.05817
2718.11530	0.05795
2716.82953	0.05767
2715.54376	0.05747
2714.25799	0.05734
2712.97222	0.05717
2711.68646	0.05695
2710.40069	0.05677
2709.11492	0.05670
2707.82915	0.05667
2706.54338	0.05654
2705.25761	0.05624
2703.97184	0.05581
2702.68607	0.05541
2701.40031	0.05518
2700.11454	0.05515
2698.82877	0.05520
2697.54300	0.05526
2696.25723	0.05529
2694.97146	0.05535
2693.68569	0.05543
2692.39992	0.05547
2691.11415	0.05542
2689.82839	0.05527
2688.54262	0.05513
2687.25685	0.05505
2685.97108	0.05500
2684.68531	0.05489
2683.39954	0.05470
2682.11377	0.05453
2680.82800	0.05445
2679.54224	0.05443
2678.25647	0.05438
2676.97070	0.05427
2675.68493	0.05419
2674.39916	0.05419
2673.11339	0.05424
2671.82762	0.05425
2670.54185	0.05414
2669.25608	0.05392
2667.97032	0.05364
2666.68455	0.05342
2665.39878	0.05339
2664.11301	0.05354
2662.82724	0.05372
2661.54147	0.05375
2660.25570	0.05361
2658.96993	0.05336
2657.68417	0.05311
2656.39840	0.05290
2655.11263	0.05272
2653.82686	0.05251
2652.54109	0.05227
2651.25532	0.05202
2649.96955	0.05183
2648.68378	0.05172
2647.39801	0.05167
2646.11225	0.05161
2644.82648	0.05147
2643.54071	0.05126
2642.25494	0.05108
2640.96917	0.05098
2639.68340	0.05094
2638.39763	0.05083
2637.11186	0.05056
2635.82609	0.05020
2634.54033	0.04993
2633.25456	0.04987
2631.96879	0.05001
2630.68302	0.05018
2629.39725	0.05017
2628.11148	0.04987
2626.82571	0.04938
2625.53994	0.04887
2624.25418	0.04850
2622.96841	0.04830
2621.68264	0.04821
2620.39687	0.04813
2619.11110	0.04795
2617.82533	0.04764
2616.53956	0.04722
2615.25379	0.04678
2613.96802	0.04642
2612.68226	0.04620
2611.39649	0.04613
2610.11072	0.04615
2608.82495	0.04615
2607.53918	0.04610
2606.25341	0.04606
2604.96764	0.04607
2603.68187	0.04611
2602.39611	0.04617
2601.11034	0.04620
2599.82457	0.04612
2598.53880	0.04576
2597.25303	0.04511
2595.96726	0.04442
2594.68149	0.04402
2593.39572	0.04401
2592.10995	0.04424
2590.82419	0.04446
2589.53842	0.04457
2588.25265	0.04453
2586.96688	0.04442
2585.68111	0.04430
2584.39534	0.04417
2583.10957	0.04398
2581.82380	0.04374
2580.53804	0.04352
2579.25227	0.04340
2577.96650	0.04343
2576.68073	0.04350
2575.39496	0.04346
2574.10919	0.04328
2572.82342	0.04305
2571.53765	0.04295
2570.25188	0.04303
2568.96612	0.04319
2567.68035	0.04325
2566.39458	0.04310
2565.10881	0.04276
2563.82304	0.04235
2562.53727	0.04194
2561.25150	0.04154
2559.96573	0.04117
2558.67997	0.04090
2557.39420	0.04077
2556.10843	0.04073
2554.82266	0.04075
2553.53689	0.04095
2552.25112	0.04138
2550.96535	0.04185
2549.67958	0.04197
2548.39381	0.04157
2547.10805	0.04090
2545.82228	0.04050
2544.53651	0.04065
2543.25074	0.04123
2541.96497	0.04183
2540.67920	0.04222
2539.39343	0.04239
2538.10766	0.04235
2536.82190	0.04201
2535.53613	0.04133
2534.25036	0.04046
2532.96459	0.03972
2531.67882	0.03940
2530.39305	0.03953
2529.10728	0.03983
2527.82151	0.03996
2526.53574	0.03981
2525.24998	0.03955
2523.96421	0.03948
2522.67844	0.03969
2521.39267	0.03999
2520.10690	0.04006
2518.82113	0.03981
2517.53536	0.03948
2516.24959	0.03934
2514.96383	0.03936
2513.67806	0.03931
2512.39229	0.03914
2511.10652	0.03907
2509.82075	0.03928
2508.53498	0.03968
2507.24921	0.03997
2505.96344	0.04001
2504.67767	0.03995
2503.39191	0.03995
2502.10614	0.03997
2500.82037	0.03981
2499.53460	0.03941
2498.24883	0.03898
2496.96306	0.03869
2495.67729	0.03860
2494.39152	0.03864
2493.10576	0.03879
2491.81999	0.03890
2490.53422	0.03881
2489.24845	0.03856
2487.96268	0.03840
2486.67691	0.03851
2485.39114	0.03886
2484.10537	0.03916
2482.81960	0.03920
2481.53384	0.03897
2480.24807	0.03875
2478.96230	0.03886
2477.67653	0.03931
2476.39076	0.03972
2475.10499	0.03971
2473.81922	0.03928
2472.53345	0.03874
2471.24769	0.03839
2469.96192	0.03829
2468.67615	0.03830
2467.39038	0.03827
2466.10461	0.03809
2464.81884	0.03783
2463.53307	0.03765
2462.24730	0.03764
2460.96153	0.03776
2459.67577	0.03791
2458.39000	0.03798
2457.10423	0.03796
2455.81846	0.03789
2454.53269	0.03779
2453.24692	0.03772
2451.96115	0.03773
2450.67538	0.03785
2449.38962	0.03799
2448.10385	0.03801
2446.81808	0.03791
2445.53231	0.03778
2444.24654	0.03765
2442.96077	0.03747
2441.67500	0.03721
2440.38923	0.03694
2439.10346	0.03675
2437.81770	0.03676
2436.53193	0.03697
2435.24616	0.03716
2433.96039	0.03708
2432.67462	0.03667
2431.38885	0.03616
2430.10308	0.03581
2428.81731	0.03570
2427.53155	0.03571
2426.24578	0.03570
2424.96001	0.03564
2423.67424	0.03564
2422.38847	0.03584
2421.10270	0.03624
2419.81693	0.03661
2418.53116	0.03666
2417.24539	0.03628
2415.95963	0.03572
2414.67386	0.03539
2413.38809	0.03543
2412.10232	0.03566
2410.81655	0.03582
2409.53078	0.03589
2408.24501	0.03596
2406.95924	0.03605
2405.67347	0.03614
2404.38771	0.03621
2403.10194	0.03625
2401.81617	0.03619
2400.53040	0.03602
2399.24463	0.03594
2397.95886	0.03600
2396.67309	0.03626
2395.38732	0.03657
2394.10156	0.03672
2392.81579	0.03663
2391.53002	0.03641
2390.24425	0.03621
2388.95848	0.03608
2387.67271	0.03600
2386.38694	0.03593
2385.10117	0.03582
2383.81540	0.03567
2382.52964	0.03546
2381.24387	0.03514
2379.95810	0.03465
2378.67233	0.03395
2377.38656	0.03312
2376.10079	0.03226
2374.81502	0.03141
2373.52925	0.03063
2372.24349	0.02990
2370.95772	0.02918
2369.67195	0.02835
2368.38618	0.02733
2367.10041	0.02622
2365.81464	0.02524
2364.52887	0.02460
2363.24310	0.02433
2361.95733	0.02439
2360.67157	0.02474
2359.38580	0.02536
2358.10003	0.02617
2356.81426	0.02712
2355.52849	0.02822
2354.24272	0.02948
2352.95695	0.03077
2351.67118	0.03185
2350.38542	0.03247
2349.09965	0.03251
2347.81388	0.03210
2346.52811	0.03145
2345.24234	0.03075
2343.95657	0.03008
2342.67080	0.02944
2341.38503	0.02890
2340.09926	0.02859
2338.81350	0.02854
2337.52773	0.02862
2336.24196	0.02865
2334.95619	0.02851
2333.67042	0.02825
2332.38465	0.02796
2331.09888	0.02775
2329.81311	0.02772
2328.52735	0.02792
2327.24158	0.02842
2325.95581	0.02921
2324.67004	0.03018
2323.38427	0.03113
2322.09850	0.03188
2320.81273	0.03238
2319.52696	0.03268
2318.24119	0.03291
2316.95543	0.03314
2315.66966	0.03342
2314.38389	0.03372
2313.09812	0.03402
2311.81235	0.03431
2310.52658	0.03452
2309.24081	0.03456
2307.95504	0.03435
2306.66928	0.03396
2305.38351	0.03356
2304.09774	0.03333
2302.81197	0.03325
2301.52620	0.03326
2300.24043	0.03332
2298.95466	0.03343
2297.66889	0.03351
2296.38312	0.03345
2295.09736	0.03320
2293.81159	0.03290
2292.52582	0.03268
2291.24005	0.03256
2289.95428	0.03246
2288.66851	0.03233
2287.38274	0.03222
2286.09697	0.03218
2284.81121	0.03217
2283.52544	0.03218
2282.23967	0.03215
2280.95390	0.03198
2279.66813	0.03155
2278.38236	0.03088
2277.09659	0.03020
2275.81082	0.02979
2274.52505	0.02977
2273.23929	0.02999
2271.95352	0.03022
2270.66775	0.03024
2269.38198	0.02992
2268.09621	0.02926
2266.81044	0.02841
2265.52467	0.02767
2264.23890	0.02734
2262.95314	0.02741
2261.66737	0.02754
2260.38160	0.02744
2259.09583	0.02722
2257.81006	0.02719
2256.52429	0.02746
2255.23852	0.02775
2253.95275	0.02784
2252.66698	0.02781
2251.38122	0.02788
2250.09545	0.02822
2248.80968	0.02868
2247.52391	0.02829
2246.23814	0.02768
2244.95237	0.02714
2243.66660	0.02665
2242.38083	0.02598
2241.09507	0.02518
2239.80930	0.02461
2238.52353	0.02445
2237.23776	0.02447
2235.95199	0.02440
2234.66622	0.02430
2233.38045	0.02433
2232.09468	0.02441
2230.80891	0.02431
2229.52315	0.02398
2228.23738	0.02357
2226.95161	0.02336
2225.66584	0.02352
2224.38007	0.02401
2223.09430	0.02455
2221.80853	0.02483
2220.52276	0.02466
2219.23700	0.02399
2217.95123	0.02305
2216.66546	0.02236
2215.37969	0.02224
2214.09392	0.02240
2212.80815	0.02226
2211.52238	0.02160
2210.23661	0.02083
2208.95084	0.02051
2207.66508	0.02071
2206.37931	0.02107
2205.09354	0.02122
2203.80777	0.02116
2202.52200	0.02126
2201.23623	0.02182
2199.95046	0.02262
2198.66469	0.02308
2197.37893	0.02279
2196.09316	0.02186
2194.80739	0.02079
2193.52162	0.02002
2192.23585	0.01962
2190.95008	0.01955
2189.66431	0.01982
2188.37854	0.02035
2187.09277	0.02092
2185.80701	0.02130
2184.52124	0.02147
2183.23547	0.02146
2181.94970	0.02116
2180.66393	0.02047
2179.37816	0.01946
2178.09239	0.01845
2176.80662	0.01766
2175.52085	0.01704
2174.23509	0.01641
2172.94932	0.01591
2171.66355	0.01583
2170.37778	0.01594
2169.09201	0.01545
2167.80624	0.01410
2166.52047	0.01275
2165.23470	0.01238
2163.94894	0.01292
2162.66317	0.01351
2161.37740	0.01358
2160.09163	0.01322
2158.80586	0.01264
2157.52009	0.01201
2156.23432	0.01154
2154.94855	0.01148
2153.66278	0.01190
2152.37702	0.01270
2151.09125	0.01368
2149.80548	0.01474
2148.51971	0.01602
2147.23394	0.01771
2145.94817	0.01965
2144.66240	0.02122
2143.37663	0.02176
2142.09087	0.02107
2140.80510	0.01962
2139.51933	0.01819
2138.23356	0.01732
2136.94779	0.01701
2135.66202	0.01712
2134.37625	0.01763
2133.09048	0.01853
2131.80471	0.01947
2130.51895	0.01996
2129.23318	0.01980
2127.94741	0.01931
2126.66164	0.01910
2125.37587	0.01946
2124.09010	0.02018
2122.80433	0.02073
2121.51856	0.02083
2120.23280	0.02062
2118.94703	0.02046
2117.66126	0.02048
2116.37549	0.02053
2115.08972	0.02049
2113.80395	0.02049
2112.51818	0.02072
2111.23241	0.02106
2109.94664	0.02119
2108.66088	0.02107
2107.37511	0.02096
2106.08934	0.02102
2104.80357	0.02101
2103.51780	0.02070
2102.23203	0.02018
2100.94626	0.01971
2099.66049	0.02043
2098.37473	0.02069
2097.08896	0.02046
2095.80319	0.02009
2094.51742	0.01968
2093.23165	0.01938
2091.94588	0.01937
2090.66011	0.01970
2089.37434	0.02011
2088.08857	0.02034
2086.80281	0.02033
2085.51704	0.02027
2084.23127	0.02037
2082.94550	0.02061
2081.65973	0.02084
2080.37396	0.02084
2079.08819	0.02054
2077.80242	0.02007
2076.51666	0.01974
2075.23089	0.01985
2073.94512	0.02029
2072.65935	0.02065
2071.37358	0.02051
2070.08781	0.01987
2068.80204	0.01905
2067.51627	0.01834
2066.23050	0.01782
2064.94474	0.01744
2063.65897	0.01708
2062.37320	0.01664
2061.08743	0.01608
2059.80166	0.01549
2058.51589	0.01495
2057.23012	0.01443
2055.94435	0.01390
2054.65859	0.01357
2053.37282	0.01379
2052.08705	0.01468
2050.80128	0.01597
2049.51551	0.01716
2048.22974	0.01790
2046.94397	0.01796
2045.65820	0.01722
2044.37243	0.01572
2043.08667	0.01382
2041.80090	0.01209
2040.51513	0.01090
2039.22936	0.01026
2037.94359	0.01008
2036.65782	0.01039
2035.37205	0.01126
2034.08628	0.01244
2032.80052	0.01344
2031.51475	0.01401
2030.22898	0.01439
2028.94321	0.01491
2027.65744	0.01550
2026.37167	0.01566
2025.08590	0.01504
2023.80013	0.01380
2022.51436	0.01258
2021.22860	0.01195
2019.94283	0.01199
2018.65706	0.01222
2017.37129	0.01198
2016.08552	0.01112
2014.79975	0.01019
2013.51398	0.00995
2012.22821	0.01058
2010.94245	0.01158
2009.65668	0.01236
2008.37091	0.01271
2007.08514	0.01286
2005.79937	0.01305
2004.51360	0.01325
2003.22783	0.01322
2001.94206	0.01287
2000.65629	0.01252
1999.37053	0.01267
1998.08476	0.01342
1996.79899	0.01428
1995.51322	0.01469
1994.22745	0.01467
1992.94168	0.01460
1991.65591	0.01466
1990.37014	0.01466
1989.08438	0.01445
1987.79861	0.01428
1986.51284	0.01453
1985.22707	0.01523
1983.94130	0.01614
1982.65553	0.01699
1981.36976	0.01774
1980.08399	0.01831
1978.79822	0.01855
1977.51246	0.01831
1976.22669	0.01754
1974.94092	0.01641
1973.65515	0.01531
1972.36938	0.01472
1971.08361	0.01490
1969.79784	0.01549
1968.51207	0.01589
1967.22631	0.01576
1965.94054	0.01534
1964.65477	0.01502
1963.36900	0.01497
1962.08323	0.01509
1960.79746	0.01533
1959.51169	0.01562
1958.22592	0.01588
1956.94015	0.01606
1955.65439	0.01620
1954.36862	0.01645
1953.08285	0.01677
1951.79708	0.01703
1950.51131	0.01707
1949.22554	0.01694
1947.93977	0.01688
1946.65400	0.01706
1945.36823	0.01750
1944.08247	0.01804
1942.79670	0.01859
1941.51093	0.01912
1940.22516	0.01956
1938.93939	0.01967
1937.65362	0.01929
1936.36785	0.01856
1935.08208	0.01791
1933.79632	0.01772
1932.51055	0.01812
1931.22478	0.01896
1929.93901	0.01988
1928.65324	0.02046
1927.36747	0.02047
1926.08170	0.02003
1924.79593	0.01950
1923.51016	0.01920
1922.22440	0.01923
1920.93863	0.01949
1919.65286	0.01979
1918.36709	0.01989
1917.08132	0.01972
1915.79555	0.01943
1914.50978	0.01928
1913.22401	0.01941
1911.93825	0.01975
1910.65248	0.02015
1909.36671	0.02043
1908.08094	0.02058
1906.79517	0.02068
1905.50940	0.02087
1904.22363	0.02118
1902.93786	0.02151
1901.65209	0.02176
1900.36633	0.02187
1899.08056	0.02184
1897.79479	0.02173
1896.50902	0.02156
1895.22325	0.02130
1893.93748	0.02101
1892.65171	0.02079
1891.36594	0.02072
1890.08018	0.02073
1888.79441	0.02067
1887.50864	0.02053
1886.22287	0.02041
1884.93710	0.02038
1883.65133	0.02039
1882.36556	0.02033
1881.07979	0.02021
1879.79402	0.02014
1878.50826	0.02017
1877.22249	0.02031
1875.93672	0.02053
1874.65095	0.02079
1873.36518	0.02101
1872.07941	0.02113
1870.79364	0.02115
1869.50787	0.02107
1868.22211	0.02090
1866.93634	0.02072
1865.65057	0.02062
1864.36480	0.02057
1863.07903	0.02050
1861.79326	0.02043
1860.50749	0.02050
1859.22172	0.02077
1857.93595	0.02110
1856.65019	0.02129
1855.36442	0.02125
1854.07865	0.02109
1852.79288	0.02092
1851.50711	0.02078
1850.22134	0.02065
1848.93557	0.02054
1847.64980	0.02054
1846.36404	0.02074
1845.07827	0.02108
1843.79250	0.02134
1842.50673	0.02136
1841.22096	0.02122
1839.93519	0.02105
1838.64942	0.02092
1837.36365	0.02084
1836.07788	0.02082
1834.79212	0.02085
1833.50635	0.02089
1832.22058	0.02091
1830.93481	0.02091
1829.64904	0.02082
1828.36327	0.02072
1827.07750	0.02074
1825.79173	0.02099
1824.50597	0.02140
1823.22020	0.02186
1821.93443	0.02226
1820.64866	0.02251
1819.36289	0.02250
1818.07712	0.02226
1816.79135	0.02186
1815.50558	0.02143
1814.21981	0.02109
1812.93405	0.02089
1811.64828	0.02083
1810.36251	0.02086
1809.07674	0.02094
1807.79097	0.02107
1806.50520	0.02124
1805.21943	0.02140
1803.93366	0.02153
1802.64790	0.02162
1801.36213	0.02169
1800.07636	0.02176
1798.79059	0.02184
1797.50482	0.02187
1796.21905	0.02185
1794.93328	0.02184
1793.64751	0.02190
1792.36174	0.02197
1791.07598	0.02193
1789.79021	0.02185
1788.50444	0.02187
1787.21867	0.02206
1785.93290	0.02230
1784.64713	0.02245
1783.36136	0.02248
1782.07559	0.02247
1780.78983	0.02248
1779.50406	0.02248
1778.21829	0.02246
1776.93252	0.02241
1775.64675	0.02237
1774.36098	0.02244
1773.07521	0.02259
1771.78944	0.02276
1770.50367	0.02300
1769.21791	0.02334
1767.93214	0.02365
1766.64637	0.02376
1765.36060	0.02371
1764.07483	0.02367
1762.78906	0.02367
1761.50329	0.02365
1760.21752	0.02363
1758.93176	0.02373
1757.64599	0.02399
1756.36022	0.02425
1755.07445	0.02442
1753.78868	0.02450
1752.50291	0.02450
1751.21714	0.02437
1749.93137	0.02420
1748.64560	0.02415
1747.35984	0.02430
1746.07407	0.02452
1744.78830	0.02471
1743.50253	0.02485
1742.21676	0.02502
1740.93099	0.02524
1739.64522	0.02540
1738.35945	0.02541
1737.07369	0.02547
1735.78792	0.02576
1734.50215	0.02613
1733.21638	0.02632
1731.93061	0.02638
1730.64484	0.02656
1729.35907	0.02689
1728.07330	0.02720
1726.78753	0.02742
1725.50177	0.02759
1724.21600	0.02775
1722.93023	0.02788
1721.64446	0.02802
1720.35869	0.02828
1719.07292	0.02869
1717.78715	0.02913
1716.50138	0.02949
1715.21561	0.02987
1713.92985	0.03036
1712.64408	0.03094
1711.35831	0.03150
1710.07254	0.03200
1708.78677	0.03248
1707.50100	0.03299
1706.21523	0.03348
1704.92946	0.03385
1703.64370	0.03419
1702.35793	0.03472
1701.07216	0.03533
1699.78639	0.03573
1698.50062	0.03602
1697.21485	0.03653
1695.92908	0.03720
1694.64331	0.03768
1693.35754	0.03797
1692.07178	0.03833
1690.78601	0.03876
1689.50024	0.03910
1688.21447	0.03936
1686.92870	0.03973
1685.64293	0.04024
1684.35716	0.04061
1683.07139	0.04074
1681.78563	0.04091
1680.49986	0.04133
1679.21409	0.04191
1677.92832	0.04252
1676.64255	0.04314
1675.35678	0.04364
1674.07101	0.04395
1672.78524	0.04417
1671.49947	0.04448
1670.21371	0.04489
1668.92794	0.04533
1667.64217	0.04576
1666.35640	0.04622
1665.07063	0.04673
1663.78486	0.04722
1662.49909	0.04763
1661.21332	0.04795
1659.92756	0.04824
1658.64179	0.04847
1657.35602	0.04859
1656.07025	0.04878
1654.78448	0.04919
1653.49871	0.04959
1652.21294	0.04962
1650.92717	0.04939
1649.64140	0.04937
1648.35564	0.04972
1647.06987	0.05016
1645.78410	0.05043
1644.49833	0.05055
1643.21256	0.05071
1641.92679	0.05090
1640.64102	0.05103
1639.35525	0.05105
1638.06949	0.05111
1636.78372	0.05130
1635.49795	0.05149
1634.21218	0.05155
1632.92641	0.05157
1631.64064	0.05170
1630.35487	0.05192
1629.06910	0.05210
1627.78333	0.05214
1626.49757	0.05207
1625.21180	0.05203
1623.92603	0.05210
1622.64026	0.05215
1621.35449	0.05214
1620.06872	0.05217
1618.78295	0.05238
1617.49718	0.05269
1616.21142	0.05287
1614.92565	0.05290
1613.63988	0.05299
1612.35411	0.05320
1611.06834	0.05341
1609.78257	0.05354
1608.49680	0.05364
1607.21103	0.05382
1605.92526	0.05409
1604.63950	0.05440
1603.35373	0.05468
1602.06796	0.05491
1600.78219	0.05509
1599.49642	0.05524
1598.21065	0.05536
1596.92488	0.05545
1595.63911	0.05552
1594.35335	0.05562
1593.06758	0.05573
1591.78181	0.05587
1590.49604	0.05601
1589.21027	0.05613
1587.92450	0.05623
1586.63873	0.05633
1585.35296	0.05645
1584.06719	0.05662
1582.78143	0.05680
1581.49566	0.05691
1580.20989	0.05691
1578.92412	0.05690
1577.63835	0.05705
1576.35258	0.05729
1575.06681	0.05743
1573.78104	0.05748
1572.49528	0.05766
1571.20951	0.05801
1569.92374	0.05839
1568.63797	0.05866
1567.35220	0.05884
1566.06643	0.05900
1564.78066	0.05906
1563.49489	0.05900
1562.20912	0.05900
1560.92336	0.05920
1559.63759	0.05947
1558.35182	0.05955
1557.06605	0.05951
1555.78028	0.05964
1554.49451	0.05996
1553.20874	0.06028
1551.92297	0.06051
1550.63721	0.06067
1549.35144	0.06072
1548.06567	0.06064
1546.77990	0.06048
1545.49413	0.06022
1544.20836	0.05986
1542.92259	0.05948
1541.63682	0.05929
1540.35105	0.05926
1539.06529	0.05918
1537.77952	0.05898
1536.49375	0.05886
1535.20798	0.05899
1533.92221	0.05928
1532.63644	0.05953
1531.35067	0.05975
1530.06490	0.06003
1528.77914	0.06040
1527.49337	0.06080
1526.20760	0.06114
1524.92183	0.06147
1523.63606	0.06194
1522.35029	0.06264
1521.06452	0.06345
1519.77875	0.06430
1518.49298	0.06529
1517.20722	0.06650
1515.92145	0.06780
1514.63568	0.06911
1513.34991	0.07042
1512.06414	0.07166
1510.77837	0.07283
1509.49260	0.07409
1508.20683	0.07557
1506.92107	0.07721
1505.63530	0.07872
1504.34953	0.08003
1503.06376	0.08126
1501.77799	0.08244
1500.49222	0.08353
1499.20645	0.08452
1497.92068	0.08548
1496.63491	0.08638
1495.34915	0.08710
1494.06338	0.08770
1492.77761	0.08835
1491.49184	0.08913
1490.20607	0.09002
1488.92030	0.09097
1487.63453	0.09199
1486.34876	0.09309
1485.06299	0.09426
1483.77723	0.09548
1482.49146	0.09674
1481.20569	0.09798
1479.91992	0.09919
1478.63415	0.10037
1477.34838	0.10149
1476.06261	0.10255
1474.77684	0.10360
1473.49108	0.10470
1472.20531	0.10578
1470.91954	0.10676
1469.63377	0.10768
1468.34800	0.10861
1467.06223	0.10955
1465.77646	0.11044
1464.49069	0.11116
1463.20492	0.11172
1461.91916	0.11220
1460.63339	0.11271
1459.34762	0.11338
1458.06185	0.11420
1456.77608	0.11500
1455.49031	0.11564
1454.20454	0.11620
1452.91877	0.11679
1451.63301	0.11739
1450.34724	0.11797
1449.06147	0.11850
1447.77570	0.11887
1446.48993	0.11902
1445.20416	0.11895
1443.91839	0.11873
1442.63262	0.11838
1441.34685	0.11793
1440.06109	0.11745
1438.77532	0.11709
1437.48955	0.11689
1436.20378	0.11678
1434.91801	0.11676
1433.63224	0.11696
1432.34647	0.11750
1431.06070	0.11833
1429.77494	0.11935
1428.48917	0.12055
1427.20340	0.12191
1425.91763	0.12342
1424.63186	0.12493
1423.34609	0.12633
1422.06032	0.12764
1420.77455	0.12897
1419.48878	0.13028
1418.20302	0.13143
1416.91725	0.13239
1415.63148	0.13320
1414.34571	0.13388
1413.05994	0.13437
1411.77417	0.13460
1410.48840	0.13454
1409.20263	0.13414
1407.91687	0.13345
1406.63110	0.13252
1405.34533	0.13141
1404.05956	0.13012
1402.77379	0.12865
1401.48802	0.12699
1400.20225	0.12513
1398.91648	0.12311
1397.63071	0.12103
1396.34495	0.11895
1395.05918	0.11684
1393.77341	0.11462
1392.48764	0.11231
1391.20187	0.11006
1389.91610	0.10801
1388.63033	0.10614
1387.34456	0.10437
1386.05880	0.10258
1384.77303	0.10074
1383.48726	0.09890
1382.20149	0.09711
1380.91572	0.09540
1379.62995	0.09373
1378.34418	0.09198
1377.05841	0.09005
1375.77264	0.08788
1374.48688	0.08547
1373.20111	0.08286
1371.91534	0.08020
1370.62957	0.07765
1369.34380	0.07529
1368.05803	0.07313
1366.77226	0.07111
1365.48649	0.06918
1364.20073	0.06731
1362.91496	0.06545
1361.62919	0.06359
1360.34342	0.06181
1359.05765	0.06018
1357.77188	0.05874
1356.48611	0.05748
1355.20034	0.05635
1353.91457	0.05528
1352.62881	0.05421
1351.34304	0.05315
1350.05727	0.05213
1348.77150	0.05123
1347.48573	0.05044
1346.19996	0.04970
1344.91419	0.04895
1343.62842	0.04818
1342.34266	0.04746
1341.05689	0.04680
1339.77112	0.04620
1338.48535	0.04560
1337.19958	0.04501
1335.91381	0.04447
1334.62804	0.04400
1333.34227	0.04357
1332.05650	0.04313
1330.77074	0.04267
1329.48497	0.04222
1328.19920	0.04182
1326.91343	0.04146
1325.62766	0.04114
1324.34189	0.04085
1323.05612	0.04058
1321.77035	0.04033
1320.48459	0.04007
1319.19882	0.03978
1317.91305	0.03949
1316.62728	0.03920
1315.34151	0.03895
1314.05574	0.03871
1312.76997	0.03848
1311.48420	0.03825
1310.19843	0.03799
1308.91267	0.03771
1307.62690	0.03739
1306.34113	0.03707
1305.05536	0.03678
1303.76959	0.03654
1302.48382	0.03636
1301.19805	0.03622
1299.91228	0.03608
1298.62652	0.03592
1297.34075	0.03576
1296.05498	0.03560
1294.76921	0.03544
1293.48344	0.03525
1292.19767	0.03502
1290.91190	0.03479
1289.62613	0.03461
1288.34036	0.03447
1287.05460	0.03434
1285.76883	0.03416
1284.48306	0.03393
1283.19729	0.03367
1281.91152	0.03342
1280.62575	0.03322
1279.33998	0.03307
1278.05421	0.03293
1276.76845	0.03279
1275.48268	0.03262
1274.19691	0.03243
1272.91114	0.03220
1271.62537	0.03194
1270.33960	0.03170
1269.05383	0.03156
1267.76806	0.03155
1266.48229	0.03163
1265.19653	0.03169
1263.91076	0.03163
1262.62499	0.03144
1261.33922	0.03120
1260.05345	0.03096
1258.76768	0.03077
1257.48191	0.03061
1256.19614	0.03047
1254.91037	0.03036
1253.62461	0.03028
1252.33884	0.03022
1251.05307	0.03015
1249.76730	0.03003
1248.48153	0.02987
1247.19576	0.02970
1245.90999	0.02955
1244.62422	0.02943
1243.33846	0.02934
1242.05269	0.02929
1240.76692	0.02926
1239.48115	0.02919
1238.19538	0.02907
1236.90961	0.02892
1235.62384	0.02881
1234.33807	0.02874
1233.05230	0.02868
1231.76654	0.02856
1230.48077	0.02838
1229.19500	0.02818
1227.90923	0.02802
1226.62346	0.02792
1225.33769	0.02786
1224.05192	0.02778
1222.76615	0.02765
1221.48039	0.02748
1220.19462	0.02730
1218.90885	0.02714
1217.62308	0.02699
1216.33731	0.02689
1215.05154	0.02685
1213.76577	0.02688
1212.48000	0.02694
1211.19423	0.02696
1209.90847	0.02692
1208.62270	0.02686
1207.33693	0.02681
1206.05116	0.02680
1204.76539	0.02679
1203.47962	0.02679
1202.19385	0.02678
1200.90808	0.02673
1199.62232	0.02658
1198.33655	0.02659
1197.05078	0.02656
1195.76501	0.02648
1194.47924	0.02636
1193.19347	0.02623
1191.90770	0.02614
1190.62193	0.02611
1189.33616	0.02610
1188.05040	0.02612
1186.76463	0.02614
1185.47886	0.02618
1184.19309	0.02623
1182.90732	0.02630
1181.62155	0.02639
1180.33578	0.02648
1179.05001	0.02655
1177.76425	0.02657
1176.47848	0.02657
1175.19271	0.02659
1173.90694	0.02667
1172.62117	0.02679
1171.33540	0.02692
1170.04963	0.02702
1168.76386	0.02714
1167.47809	0.02733
1166.19233	0.02759
1164.90656	0.02786
1163.62079	0.02807
1162.33502	0.02822
1161.04925	0.02836
1159.76348	0.02855
1158.47771	0.02882
1157.19194	0.02915
1155.90618	0.02951
1154.62041	0.02988
1153.33464	0.03022
1152.04887	0.03056
1150.76310	0.03090
1149.47733	0.03125
1148.19156	0.03167
1146.90579	0.03225
1145.62002	0.03299
1144.33426	0.03384
1143.04849	0.03469
1141.76272	0.03557
1140.47695	0.03660
1139.19118	0.03783
1137.90541	0.03924
1136.61964	0.04072
1135.33387	0.04225
1134.04811	0.04387
1132.76234	0.04567
1131.47657	0.04777
1130.19080	0.05021
1128.90503	0.05302
1127.61926	0.05616
1126.33349	0.05958
1125.04772	0.06325
1123.76195	0.06708
1122.47619	0.07100
1121.19042	0.07494
1119.90465	0.07885
1118.61888	0.08275
1117.33311	0.08668
1116.04734	0.09063
1114.76157	0.09450
1113.47580	0.09820
1112.19004	0.10170
1110.90427	0.10500
1109.61850	0.10817
1108.33273	0.11126
1107.04696	0.11429
1105.76119	0.11721
1104.47542	0.12000
1103.18965	0.12267
1101.90388	0.12530
1100.61812	0.12787
1099.33235	0.13031
1098.04658	0.13259
1096.76081	0.13474
1095.47504	0.13681
1094.18927	0.13879
1092.90350	0.14064
1091.61773	0.14233
1090.33197	0.14390
1089.04620	0.14543
1087.76043	0.14697
1086.47466	0.14856
1085.18889	0.15015
1083.90312	0.15175
1082.61735	0.15339
1081.33158	0.15518
1080.04581	0.15721
1078.76005	0.15950
1077.47428	0.16195
1076.18851	0.16446
1074.90274	0.16702
1073.61697	0.16963
1072.33120	0.17234
1071.04543	0.17514
1069.75966	0.17805
1068.47390	0.18111
1067.18813	0.18433
1065.90236	0.18767
1064.61659	0.19109
1063.33082	0.19461
1062.04505	0.19822
1060.75928	0.20183
1059.47351	0.20536
1058.18774	0.20876
1056.90198	0.21212
1055.61621	0.21553
1054.33044	0.21901
1053.04467	0.22255
1051.75890	0.22612
1050.47313	0.22974
1049.18736	0.23343
1047.90159	0.23717
1046.61583	0.24098
1045.33006	0.24493
1044.04429	0.24908
1042.75852	0.25342
1041.47275	0.25784
1040.18698	0.26229
1038.90121	0.26679
1037.61544	0.27136
1036.32967	0.27596
1035.04391	0.28049
1033.75814	0.28481
1032.47237	0.28888
1031.18660	0.29271
1029.90083	0.29630
1028.61506	0.29964
1027.32929	0.30268
1026.04352	0.30541
1024.75775	0.30776
1023.47199	0.30965
1022.18622	0.31109
1020.90045	0.31212
1019.61468	0.31276
1018.32891	0.31296
1017.04314	0.31260
1015.75737	0.31157
1014.47160	0.30984
1013.18584	0.30745
1011.90007	0.30447
1010.61430	0.30098
1009.32853	0.29701
1008.04276	0.29252
1006.75699	0.28746
1005.47122	0.28180
1004.18545	0.27558
1002.89968	0.26891
1001.61392	0.26186
1000.32815	0.25449
999.04238	0.24684
997.75661	0.23899
996.47084	0.23105
995.18507	0.22309
993.89930	0.21515
992.61353	0.20731
991.32777	0.19968
990.04200	0.19231
988.75623	0.18521
987.47046	0.17833
986.18469	0.17168
984.89892	0.16528
983.61315	0.15916
982.32738	0.15338
981.04161	0.14799
979.75585	0.14302
978.47008	0.13848
977.18431	0.13433
975.89854	0.13056
974.61277	0.12719
973.32700	0.12430
972.04123	0.12199
970.75546	0.12031
969.46970	0.11928
968.18393	0.11886
966.89816	0.11899
965.61239	0.11959
964.32662	0.12046
963.04085	0.12133
961.75508	0.12193
960.46931	0.12204
959.18354	0.12154
957.89778	0.12034
956.61201	0.11844
955.32624	0.11597
954.04047	0.11312
952.75470	0.11015
951.46893	0.10724
950.18316	0.10448
948.89739	0.10185
947.61163	0.09926
946.32586	0.09670
945.04009	0.09420
943.75432	0.09178
942.46855	0.08945
941.18278	0.08718
939.89701	0.08500
938.61124	0.08294
937.32547	0.08103
936.03971	0.07924
934.75394	0.07753
933.46817	0.07589
932.18240	0.07437
930.89663	0.07297
929.61086	0.07171
928.32509	0.07056
927.03932	0.06952
925.75356	0.06856
924.46779	0.06765
923.18202	0.06678
921.89625	0.06595
920.61048	0.06514
919.32471	0.06438
918.03894	0.06368
916.75317	0.06303
915.46740	0.06236
914.18164	0.06167
912.89587	0.06098
911.61010	0.06036
910.32433	0.05985
909.03856	0.05943
907.75279	0.05903
906.46702	0.05857
905.18125	0.05803
903.89549	0.05749
902.60972	0.05703
901.32395	0.05666
900.03818	0.05631
898.75241	0.05595
897.46664	0.05559
896.18087	0.05525
894.89510	0.05491
893.60933	0.05456
892.32357	0.05430
891.03780	0.05424
889.75203	0.05445
888.46626	0.05493
887.18049	0.05571
885.89472	0.05697
884.60895	0.05892
883.32318	0.06167
882.03742	0.06500
880.75165	0.06837
879.46588	0.07123
878.18011	0.07339
876.89434	0.07516
875.60857	0.07698
874.32280	0.07897
873.03703	0.08078
871.75126	0.08184
870.46550	0.08178
869.17973	0.08058
867.89396	0.07851
866.60819	0.07590
865.32242	0.07298
864.03665	0.06992
862.75088	0.06690
861.46511	0.06415
860.17935	0.06184
858.89358	0.05999
857.60781	0.05850
856.32204	0.05726
855.03627	0.05622
853.75050	0.05537
852.46473	0.05465
851.17896	0.05397
849.89319	0.05326
848.60743	0.05255
847.32166	0.05195
846.03589	0.05153
844.75012	0.05123
843.46435	0.05099
842.17858	0.05074
840.89281	0.05047
839.60704	0.05016
838.32128	0.04981
837.03551	0.04947
835.74974	0.04922
834.46397	0.04907
833.17820	0.04898
831.89243	0.04887
830.60666	0.04868
829.32089	0.04846
828.03512	0.04828
826.74936	0.04821
825.46359	0.04820
824.17782	0.04817
822.89205	0.04806
821.60628	0.04792
820.32051	0.04784
819.03474	0.04782
817.74897	0.04780
816.46321	0.04771
815.17744	0.04754
813.89167	0.04735
812.60590	0.04723
811.32013	0.04716
810.03436	0.04711
808.74859	0.04707
807.46282	0.04705
806.17705	0.04705
804.89129	0.04702
803.60552	0.04695
802.31975	0.04687
801.03398	0.04679
799.74821	0.04672
798.46244	0.04662
797.17667	0.04649
795.89090	0.04633
794.60513	0.04615
793.31937	0.04599
792.03360	0.04589
790.74783	0.04586
789.46206	0.04587
788.17629	0.04587
786.89052	0.04582
785.60475	0.04575
784.31898	0.04569
783.03322	0.04563
781.74745	0.04553
780.46168	0.04535
779.17591	0.04515
777.89014	0.04499
776.60437	0.04494
775.31860	0.04496
774.03283	0.04498
772.74706	0.04495
771.46130	0.04490
770.17553	0.04489
768.88976	0.04494
767.60399	0.04505
766.31822	0.04515
765.03245	0.04522
763.74668	0.04524
762.46091	0.04523
761.17515	0.04523
759.88938	0.04525
758.60361	0.04522
757.31784	0.04513
756.03207	0.04505
754.74630	0.04505
753.46053	0.04513
752.17476	0.04527
750.88899	0.04544
749.60323	0.04555
748.31746	0.04557
747.03169	0.04545
745.74592	0.04524
744.46015	0.04499
743.17438	0.04474
741.88861	0.04454
740.60284	0.04438
739.31708	0.04425
738.03131	0.04416
736.74554	0.04411
735.45977	0.04405
734.17400	0.04394
732.88823	0.04379
731.60246	0.04365
730.31669	0.04358
729.03092	0.04355
727.74516	0.04352
726.45939	0.04351
725.17362	0.04356
723.88785	0.04352
722.60208	0.04372
721.31631	0.04396
720.03054	0.04408
718.74477	0.04408
717.45901	0.04402
716.17324	0.04393
714.88747	0.04379
713.60170	0.04362
712.31593	0.04343
711.03016	0.04325
709.74439	0.04311
708.45862	0.04300
707.17285	0.04290
705.88709	0.04283
704.60132	0.04280
703.31555	0.04282
702.02978	0.04289
700.74401	0.04295
699.45824	0.04297
698.17247	0.04294
696.88670	0.04288
695.60094	0.04284
694.31517	0.04283
693.02940	0.04281
691.74363	0.04276
690.45786	0.04270
689.17209	0.04264
687.88632	0.04258
686.60055	0.04250
685.31478	0.04234
684.02902	0.04212
682.74325	0.04189
681.45748	0.04168
680.17171	0.04151
678.88594	0.04140
677.60017	0.04133
676.31440	0.04131
675.02863	0.04131
673.74287	0.04131
672.45710	0.04126
671.17133	0.04114
669.88556	0.04099
668.59979	0.04093
667.31402	0.04103
666.02825	0.04122
664.74248	0.04134
663.45671	0.04130
662.17095	0.04114
660.88518	0.04092
659.59941	0.04069
658.31364	0.04048
657.02787	0.04031
655.74210	0.04019
654.45633	0.04012
653.17056	0.04010
651.88480	0.04009
650.59903	0.04008
649.31326	0.04003
648.02749	0.03997
646.74172	0.03995
645.45595	0.03999
644.17018	0.04007
642.88441	0.04016
641.59864	0.04023
640.31288	0.04030
639.02711	0.04041
637.74134	0.04059
636.45557	0.04083
635.16980	0.04112
633.88403	0.04144
632.59826	0.04179
631.31249	0.04231
630.02673	0.04362
628.74096	0.04539
627.45519	0.04515
626.16942	0.04743
624.88365	0.05157
623.59788	0.05584
622.31211	0.05959
621.02634	0.06266
619.74057	0.06505
618.45481	0.06694
617.16904	0.06871
615.88327	0.07068
614.59750	0.07284
613.31173	0.07521
612.02596	0.07822
610.74019	0.08262
609.45442	0.08865
608.16866	0.09555
606.88289	0.10226
605.59712	0.10802
604.31135	0.11242
603.02558	0.11510
601.73981	0.11582
600.45404	0.11471
599.16827	0.11234
597.88250	0.10935
596.59674	0.10626
595.31097	0.10333
594.02520	0.10065
592.73943	0.09827
591.45366	0.09630
590.16789	0.09490
588.88212	0.09427
587.59635	0.09452
586.31059	0.09555
585.02482	0.09708
583.73905	0.09877
582.45328	0.10051
581.16751	0.10238
579.88174	0.10454
578.59597	0.10699
577.31020	0.10957
576.02443	0.11215
574.73867	0.11463
573.45290	0.11705
572.16713	0.11948
570.88136	0.12211
569.59559	0.12521
568.30982	0.12904
567.02405	0.13354
565.73828	0.13834
564.45251	0.14285
563.16675	0.14645
561.88098	0.14866
560.59521	0.14913
559.30944	0.14764
558.02367	0.14418
556.73790	0.13899
555.45213	0.13264
554.16636	0.12578
552.88060	0.11899
551.59483	0.11259
550.30906	0.10671
549.02329	0.10137
547.73752	0.09658
546.45175	0.09231
545.16598	0.08852
543.88021	0.08512
542.59444	0.08203
541.30868	0.07925
540.02291	0.07677
538.73714	0.07461
537.45137	0.07273
536.16560	0.07103
534.87983	0.06940
533.59406	0.06779
532.30829	0.06618
531.02253	0.06458
529.73676	0.06307
528.45099	0.06171
527.16522	0.06047
525.87945	0.05927
524.59368	0.05803
523.30791	0.05683
522.02214	0.05575
520.73637	0.05481
519.45061	0.05389
518.16484	0.05292
516.87907	0.05187
515.59330	0.05088
514.30753	0.05005
513.02176	0.04940
511.73599	0.04884
510.45022	0.04826
509.16446	0.04761
507.87869	0.04690
506.59292	0.04616
505.30715	0.04543
504.02138	0.04473
502.73561	0.04408
501.44984	0.04349
500.16407	0.04302
498.87830	0.04269
497.59254	0.04247
496.30677	0.04230
495.02100	0.04209
493.73523	0.04177
492.44946	0.04138
491.16369	0.04097
489.87792	0.04065
488.59215	0.04047
487.30639	0.04041
486.02062	0.04043
484.73485	0.04048
483.44908	0.04058
482.16331	0.04076
480.87754	0.04105
479.59177	0.04142
478.30600	0.04185
477.02023	0.04229
475.73447	0.04271
474.44870	0.04306
473.16293	0.04332
471.87716	0.04347
470.59139	0.04356
469.30562	0.04360
468.01985	0.04354
466.73408	0.04337
465.44832	0.04310
464.16255	0.04281
462.87678	0.04248
461.59101	0.04213
460.30524	0.04173
459.01947	0.04134
457.73370	0.04098
456.44793	0.04062
455.16216	0.04025
453.87640	0.03982
452.59063	0.03933
451.30486	0.03884
450.01909	0.03840
448.73332	0.03803
447.44755	0.03770
446.16178	0.03740
444.87601	0.03712
443.59025	0.03687
442.30448	0.03662
441.01871	0.03636
439.73294	0.03611
438.44717	0.03590
437.16140	0.03575
435.87563	0.03564
434.58986	0.03554
433.30409	0.03542
432.01833	0.03524
430.73256	0.03502
429.44679	0.03479
428.16102	0.03460
426.87525	0.03445
425.58948	0.03432
424.30371	0.03416
423.01794	0.03394
421.73218	0.03365
420.44641	0.03334
419.16064	0.03302
417.87487	0.03273
416.58910	0.03250
415.30333	0.03235
414.01756	0.03225
412.73179	0.03215
411.44602	0.03206
410.16026	0.03199
408.87449	0.03194
407.58872	0.03188
406.30295	0.03182
405.01718	0.03175
403.73141	0.03167
402.44564	0.03158
401.15987	0.03152
399.87411	0.03151
