3997.45528	0.02057
3996.16951	0.02056
3994.88374	0.02050
3993.59798	0.02042
3992.31221	0.02043
3991.02644	0.02057
3989.74067	0.02077
3988.45490	0.02090
3987.16913	0.02085
3985.88336	0.02056
3984.59759	0.02012
3983.31183	0.01978
3982.02606	0.01983
3980.74029	0.02029
3979.45452	0.02092
3978.16875	0.02138
3976.88298	0.02147
3975.59721	0.02126
3974.31144	0.02096
3973.02567	0.02076
3971.73991	0.02070
3970.45414	0.02071
3969.16837	0.02068
3967.88260	0.02051
3966.59683	0.02020
3965.31106	0.01977
3964.02529	0.01922
3962.73952	0.01862
3961.45376	0.01816
3960.16799	0.01794
3958.88222	0.01792
3957.59645	0.01795
3956.31068	0.01806
3955.02491	0.01839
3953.73914	0.01905
3952.45337	0.01991
3951.16760	0.02060
3949.88184	0.02073
3948.59607	0.02026
3947.31030	0.01953
3946.02453	0.01894
3944.73876	0.01861
3943.45299	0.01839
3942.16722	0.01821
3940.88145	0.01817
3939.59569	0.01826
3938.30992	0.01836
3937.02415	0.01834
3935.73838	0.01822
3934.45261	0.01808
3933.16684	0.01799
3931.88107	0.01802
3930.59530	0.01825
3929.30953	0.01876
3928.02377	0.01947
3926.73800	0.02006
3925.45223	0.02023
3924.16646	0.01988
3922.88069	0.01918
3921.59492	0.01840
3920.30915	0.01774
3919.02338	0.01737
3917.73762	0.01743
3916.45185	0.01788
3915.16608	0.01858
3913.88031	0.01932
3912.59454	0.01991
3911.30877	0.02013
3910.02300	0.01997
3908.73723	0.01967
3907.45146	0.01960
3906.16570	0.01985
3904.87993	0.02023
3903.59416	0.02043
3902.30839	0.02039
3901.02262	0.02024
3899.73685	0.02021
3898.45108	0.02033
3897.16531	0.02043
3895.87955	0.02026
3894.59378	0.01982
3893.30801	0.01937
3892.02224	0.01919
3890.73647	0.01933
3889.45070	0.01963
3888.16493	0.01988
3886.87916	0.01996
3885.59339	0.01989
3884.30763	0.01988
3883.02186	0.02001
3881.73609	0.02023
3880.45032	0.02038
3879.16455	0.02042
3877.87878	0.02032
3876.59301	0.02003
3875.30724	0.01964
3874.02148	0.01930
3872.73571	0.01905
3871.44994	0.01877
3870.16417	0.01838
3868.87840	0.01804
3867.59263	0.01793
3866.30686	0.01810
3865.02109	0.01841
3863.73532	0.01869
3862.44956	0.01876
3861.16379	0.01853
3859.87802	0.01814
3858.59225	0.01789
3857.30648	0.01796
3856.02071	0.01828
3854.73494	0.01860
3853.44917	0.01883
3852.16341	0.01902
3850.87764	0.01931
3849.59187	0.01972
3848.30610	0.02004
3847.02033	0.02003
3845.73456	0.01959
3844.44879	0.01894
3843.16302	0.01840
3841.87725	0.01807
3840.59149	0.01781
3839.30572	0.01753
3838.01995	0.01728
3836.73418	0.01720
3835.44841	0.01732
3834.16264	0.01746
3832.87687	0.01749
3831.59110	0.01747
3830.30534	0.01760
3829.01957	0.01793
3827.73380	0.01828
3826.44803	0.01851
3825.16226	0.01869
3823.87649	0.01890
3822.59072	0.01901
3821.30495	0.01884
3820.01918	0.01844
3818.73342	0.01812
3817.44765	0.01806
3816.16188	0.01823
3814.87611	0.01842
3813.59034	0.01844
3812.30457	0.01831
3811.01880	0.01811
3809.73303	0.01785
3808.44726	0.01751
3807.16150	0.01727
3805.87573	0.01746
3804.58996	0.01825
3803.30419	0.01925
3802.01842	0.01983
3800.73265	0.01970
3799.44688	0.01916
3798.16111	0.01881
3796.87535	0.01892
3795.58958	0.01930
3794.30381	0.01957
3793.01804	0.01949
3791.73227	0.01911
3790.44650	0.01871
3789.16073	0.01858
3787.87496	0.01886
3786.58919	0.01937
3785.30343	0.01973
3784.01766	0.01978
3782.73189	0.01976
3781.44612	0.01998
3780.16035	0.02044
3778.87458	0.02087
3777.58881	0.02106
3776.30304	0.02095
3775.01728	0.02057
3773.73151	0.01999
3772.44574	0.01937
3771.15997	0.01889
3769.87420	0.01863
3768.58843	0.01858
3767.30266	0.01869
3766.01689	0.01878
3764.73112	0.01862
3763.44536	0.01826
3762.15959	0.01803
3760.87382	0.01817
3759.58805	0.01848
3758.30228	0.01860
3757.01651	0.01847
3755.73074	0.01836
3754.44497	0.01855
3753.15921	0.01899
3751.87344	0.01932
3750.58767	0.01923
3749.30190	0.01875
3748.01613	0.01810
3746.73036	0.01745
3745.44459	0.01688
3744.15882	0.01653
3742.87305	0.01657
3741.58729	0.01703
3740.30152	0.01764
3739.01575	0.01806
3737.72998	0.01816
3736.44421	0.01806
3735.15844	0.01802
3733.87267	0.01815
3732.58690	0.01840
3731.30114	0.01854
3730.01537	0.01843
3728.72960	0.01802
3727.44383	0.01737
3726.15806	0.01661
3724.87229	0.01595
3723.58652	0.01561
3722.30075	0.01569
3721.01498	0.01605
3719.72922	0.01642
3718.44345	0.01665
3717.15768	0.01680
3715.87191	0.01698
3714.58614	0.01720
3713.30037	0.01731
3712.01460	0.01727
3710.72883	0.01728
3709.44307	0.01755
3708.15730	0.01794
3706.87153	0.01798
3705.58576	0.01732
3704.29999	0.01626
3703.01422	0.01544
3701.72845	0.01525
3700.44268	0.01542
3699.15691	0.01540
3697.87115	0.01492
3696.58538	0.01422
3695.29961	0.01382
3694.01384	0.01404
3692.72807	0.01475
3691.44230	0.01563
3690.15653	0.01639
3688.87076	0.01680
3687.58500	0.01684
3686.29923	0.01664
3685.01346	0.01641
3683.72769	0.01624
3682.44192	0.01612
3681.15615	0.01600
3679.87038	0.01595
3678.58461	0.01614
3677.29884	0.01663
3676.01308	0.01727
3674.72731	0.01783
3673.44154	0.01818
3672.15577	0.01837
3670.87000	0.01847
3669.58423	0.01853
3668.29846	0.01850
3667.01269	0.01831
3665.72693	0.01791
3664.44116	0.01737
3663.15539	0.01689
3661.86962	0.01668
3660.58385	0.01678
3659.29808	0.01691
3658.01231	0.01677
3656.72654	0.01642
3655.44077	0.01630
3654.15501	0.01678
3652.86924	0.01774
3651.58347	0.01863
3650.29770	0.01898
3649.01193	0.01875
3647.72616	0.01813
3646.44039	0.01737
3645.15462	0.01665
3643.86886	0.01612
3642.58309	0.01595
3641.29732	0.01613
3640.01155	0.01646
3638.72578	0.01669
3637.44001	0.01675
3636.15424	0.01668
3634.86847	0.01656
3633.58270	0.01643
3632.29694	0.01640
3631.01117	0.01657
3629.72540	0.01689
3628.43963	0.01712
3627.15386	0.01703
3625.86809	0.01665
3624.58232	0.01629
3623.29655	0.01626
3622.01079	0.01659
3620.72502	0.01712
3619.43925	0.01766
3618.15348	0.01803
3616.86771	0.01807
3615.58194	0.01778
3614.29617	0.01743
3613.01040	0.01747
3611.72463	0.01801
3610.43887	0.01872
3609.15310	0.01911
3607.86733	0.01901
3606.58156	0.01860
3605.29579	0.01819
3604.01002	0.01795
3602.72425	0.01798
3601.43848	0.01825
3600.15272	0.01857
3598.86695	0.01867
3597.58118	0.01846
3596.29541	0.01816
3595.00964	0.01808
3593.72387	0.01837
3592.43810	0.01885
3591.15233	0.01919
3589.86656	0.01911
3588.58080	0.01843
3587.29503	0.01722
3586.00926	0.01595
3584.72349	0.01519
3583.43772	0.01517
3582.15195	0.01568
3580.86618	0.01639
3579.58041	0.01714
3578.29464	0.01784
3577.00888	0.01831
3575.72311	0.01851
3574.43734	0.01873
3573.15157	0.01938
3571.86580	0.02046
3570.58003	0.02151
3569.29426	0.02211
3568.00849	0.02220
3566.72273	0.02199
3565.43696	0.02150
3564.15119	0.02068
3562.86542	0.01958
3561.57965	0.01855
3560.29388	0.01801
3559.00811	0.01814
3557.72234	0.01881
3556.43657	0.01964
3555.15081	0.02020
3553.86504	0.02026
3552.57927	0.01993
3551.29350	0.01953
3550.00773	0.01929
3548.72196	0.01927
3547.43619	0.01948
3546.15042	0.01992
3544.86466	0.02052
3543.57889	0.02116
3542.29312	0.02171
3541.00735	0.02207
3539.72158	0.02222
3538.43581	0.02213
3537.15004	0.02193
3535.86427	0.02182
3534.57850	0.02194
3533.29274	0.02225
3532.00697	0.02257
3530.72120	0.02272
3529.43543	0.02263
3528.14966	0.02242
3526.86389	0.02219
3525.57812	0.02197
3524.29235	0.02179
3523.00659	0.02178
3521.72082	0.02206
3520.43505	0.02254
3519.14928	0.02286
3517.86351	0.02274
3516.57774	0.02222
3515.29197	0.02167
3514.00620	0.02140
3512.72043	0.02139
3511.43467	0.02134
3510.14890	0.02110
3508.86313	0.02082
3507.57736	0.02087
3506.29159	0.02146
3505.00582	0.02239
3503.72005	0.02316
3502.43428	0.02329
3501.14852	0.02269
3499.86275	0.02174
3498.57698	0.02099
3497.29121	0.02080
3496.00544	0.02119
3494.71967	0.02188
3493.43390	0.02247
3492.14813	0.02273
3490.86236	0.02266
3489.57660	0.02249
3488.29083	0.02237
3487.00506	0.02229
3485.71929	0.02221
3484.43352	0.02218
3483.14775	0.02234
3481.86198	0.02265
3480.57621	0.02296
3479.29045	0.02316
3478.00468	0.02323
3476.71891	0.02320
3475.43314	0.02310
3474.14737	0.02302
3472.86160	0.02310
3471.57583	0.02340
3470.29006	0.02389
3469.00429	0.02449
3467.71853	0.02507
3466.43276	0.02541
3465.14699	0.02525
3463.86122	0.02457
3462.57545	0.02371
3461.28968	0.02317
3460.00391	0.02328
3458.71814	0.02384
3457.43238	0.02437
3456.14661	0.02443
3454.86084	0.02405
3453.57507	0.02364
3452.28930	0.02367
3451.00353	0.02420
3449.71776	0.02485
3448.43199	0.02515
3447.14622	0.02506
3445.86046	0.02493
3444.57469	0.02512
3443.28892	0.02565
3442.00315	0.02625
3440.71738	0.02671
3439.43161	0.02701
3438.14584	0.02721
3436.86007	0.02723
3435.57431	0.02697
3434.28854	0.02641
3433.00277	0.02574
3431.71700	0.02521
3430.43123	0.02495
3429.14546	0.02494
3427.85969	0.02506
3426.57392	0.02519
3425.28815	0.02522
3424.00239	0.02510
3422.71662	0.02475
3421.43085	0.02422
3420.14508	0.02374
3418.85931	0.02358
3417.57354	0.02384
3416.28777	0.02432
3415.00200	0.02474
3413.71624	0.02488
3412.43047	0.02477
3411.14470	0.02451
3409.85893	0.02413
3408.57316	0.02369
3407.28739	0.02340
3406.00162	0.02351
3404.71585	0.02399
3403.43008	0.02456
3402.14432	0.02497
3400.85855	0.02525
3399.57278	0.02546
3398.28701	0.02554
3397.00124	0.02536
3395.71547	0.02500
3394.42970	0.02479
3393.14393	0.02506
3391.85817	0.02576
3390.57240	0.02648
3389.28663	0.02670
3388.00086	0.02623
3386.71509	0.02536
3385.42932	0.02466
3384.14355	0.02448
3382.85778	0.02481
3381.57201	0.02541
3380.28625	0.02600
3379.00048	0.02639
3377.71471	0.02645
3376.42894	0.02621
3375.14317	0.02584
3373.85740	0.02547
3372.57163	0.02522
3371.28586	0.02511
3370.00010	0.02518
3368.71433	0.02540
3367.42856	0.02569
3366.14279	0.02593
3364.85702	0.02608
3363.57125	0.02614
3362.28548	0.02615
3360.99971	0.02610
3359.71394	0.02596
3358.42818	0.02581
3357.14241	0.02582
3355.85664	0.02614
3354.57087	0.02665
3353.28510	0.02706
3351.99933	0.02716
3350.71356	0.02702
3349.42779	0.02689
3348.14202	0.02701
3346.85626	0.02739
3345.57049	0.02781
3344.28472	0.02805
3342.99895	0.02804
3341.71318	0.02789
3340.42741	0.02775
3339.14164	0.02769
3337.85587	0.02764
3336.57011	0.02756
3335.28434	0.02742
3333.99857	0.02725
3332.71280	0.02708
3331.42703	0.02696
3330.14126	0.02694
3328.85549	0.02701
3327.56972	0.02715
3326.28395	0.02737
3324.99819	0.02766
3323.71242	0.02797
3322.42665	0.02813
3321.14088	0.02804
3319.85511	0.02777
3318.56934	0.02748
3317.28357	0.02726
3315.99780	0.02711
3314.71204	0.02699
3313.42627	0.02695
3312.14050	0.02712
3310.85473	0.02749
3309.56896	0.02791
3308.28319	0.02816
3306.99742	0.02811
3305.71165	0.02780
3304.42588	0.02738
3303.14012	0.02705
3301.85435	0.02696
3300.56858	0.02710
3299.28281	0.02733
3297.99704	0.02742
3296.71127	0.02727
3295.42550	0.02701
3294.13973	0.02687
3292.85397	0.02698
3291.56820	0.02726
3290.28243	0.02755
3288.99666	0.02776
3287.71089	0.02791
3286.42512	0.02793
3285.13935	0.02777
3283.85358	0.02747
3282.56781	0.02712
3281.28205	0.02682
3279.99628	0.02662
3278.71051	0.02661
3277.42474	0.02684
3276.13897	0.02721
3274.85320	0.02747
3273.56743	0.02746
3272.28166	0.02724
3270.99590	0.02703
3269.71013	0.02700
3268.42436	0.02717
3267.13859	0.02744
3265.85282	0.02767
3264.56705	0.02777
3263.28128	0.02776
3261.99551	0.02769
3260.70974	0.02761
3259.42398	0.02752
3258.13821	0.02743
3256.85244	0.02742
3255.56667	0.02749
3254.28090	0.02759
3252.99513	0.02761
3251.70936	0.02752
3250.42359	0.02731
3249.13783	0.02696
3247.85206	0.02650
3246.56629	0.02605
3245.28052	0.02579
3243.99475	0.02583
3242.70898	0.02610
3241.42321	0.02647
3240.13744	0.02680
3238.85167	0.02695
3237.56591	0.02681
3236.28014	0.02642
3234.99437	0.02592
3233.70860	0.02542
3232.42283	0.02492
3231.13706	0.02451
3229.85129	0.02446
3228.56552	0.02491
3227.27976	0.02565
3225.99399	0.02625
3224.70822	0.02646
3223.42245	0.02638
3222.13668	0.02622
3220.85091	0.02610
3219.56514	0.02596
3218.27937	0.02567
3216.99360	0.02532
3215.70784	0.02511
3214.42207	0.02516
3213.13630	0.02541
3211.85053	0.02574
3210.56476	0.02606
3209.27899	0.02626
3207.99322	0.02623
3206.70745	0.02599
3205.42169	0.02578
3204.13592	0.02578
3202.85015	0.02594
3201.56438	0.02610
3200.27861	0.02611
3198.99284	0.02596
3197.70707	0.02573
3196.42130	0.02549
3195.13553	0.02526
3193.84977	0.02498
3192.56400	0.02451
3191.27823	0.02386
3189.99246	0.02325
3188.70669	0.02296
3187.42092	0.02314
3186.13515	0.02362
3184.84938	0.02408
3183.56362	0.02431
3182.27785	0.02437
3180.99208	0.02441
3179.70631	0.02453
3178.42054	0.02461
3177.13477	0.02451
3175.84900	0.02419
3174.56323	0.02383
3173.27746	0.02374
3171.99170	0.02400
3170.70593	0.02443
3169.42016	0.02468
3168.13439	0.02455
3166.84862	0.02415
3165.56285	0.02377
3164.27708	0.02360
3162.99131	0.02366
3161.70555	0.02382
3160.41978	0.02396
3159.13401	0.02403
3157.84824	0.02404
3156.56247	0.02398
3155.27670	0.02387
3153.99093	0.02376
3152.70516	0.02369
3151.41939	0.02365
3150.13363	0.02356
3148.84786	0.02339
3147.56209	0.02316
3146.27632	0.02295
3144.99055	0.02280
3143.70478	0.02273
3142.41901	0.02271
3141.13324	0.02265
3139.84748	0.02250
3138.56171	0.02234
3137.27594	0.02227
3135.99017	0.02231
3134.70440	0.02242
3133.41863	0.02250
3132.13286	0.02252
3130.84709	0.02250
3129.56132	0.02241
3128.27556	0.02228
3126.98979	0.02223
3125.70402	0.02236
3124.41825	0.02269
3123.13248	0.02312
3121.84671	0.02350
3120.56094	0.02378
3119.27517	0.02400
3117.98940	0.02416
3116.70364	0.02416
3115.41787	0.02390
3114.13210	0.02339
3112.84633	0.02284
3111.56056	0.02244
3110.27479	0.02217
3108.98902	0.02188
3107.70325	0.02158
3106.41749	0.02151
3105.13172	0.02188
3103.84595	0.02254
3102.56018	0.02307
3101.27441	0.02321
3099.98864	0.02308
3098.70287	0.02301
3097.41710	0.02315
3096.13133	0.02334
3094.84557	0.02332
3093.55980	0.02301
3092.27403	0.02253
3090.98826	0.02206
3089.70249	0.02177
3088.41672	0.02165
3087.13095	0.02161
3085.84518	0.02159
3084.55942	0.02163
3083.27365	0.02188
3081.98788	0.02237
3080.70211	0.02292
3079.41634	0.02323
3078.13057	0.02315
3076.84480	0.02287
3075.55903	0.02267
3074.27326	0.02264
3072.98750	0.02261
3071.70173	0.02251
3070.41596	0.02245
3069.13019	0.02252
3067.84442	0.02262
3066.55865	0.02258
3065.27288	0.02236
3063.98711	0.02207
3062.70135	0.02186
3061.41558	0.02180
3060.12981	0.02185
3058.84404	0.02192
3057.55827	0.02185
3056.27250	0.02161
3054.98673	0.02135
3053.70096	0.02130
3052.41519	0.02154
3051.12943	0.02191
3049.84366	0.02222
3048.55789	0.02241
3047.27212	0.02252
3045.98635	0.02267
3044.70058	0.02286
3043.41481	0.02297
3042.12904	0.02285
3040.84328	0.02251
3039.55751	0.02211
3038.27174	0.02185
3036.98597	0.02177
3035.70020	0.02174
3034.41443	0.02172
3033.12866	0.02178
3031.84289	0.02200
3030.55712	0.02225
3029.27136	0.02233
3027.98559	0.02214
3026.69982	0.02181
3025.41405	0.02154
3024.12828	0.02141
3022.84251	0.02134
3021.55674	0.02133
3020.27097	0.02145
3018.98521	0.02171
3017.69944	0.02196
3016.41367	0.02199
3015.12790	0.02175
3013.84213	0.02141
3012.55636	0.02119
3011.27059	0.02114
3009.98482	0.02117
3008.69905	0.02117
3007.41329	0.02111
3006.12752	0.02102
3004.84175	0.02094
3003.55598	0.02084
3002.27021	0.02072
3000.98444	0.02060
2999.69867	0.02056
2998.41290	0.02071
2997.12714	0.02100
2995.84137	0.02126
2994.55560	0.02139
2993.26983	0.02145
2991.98406	0.02152
2990.69829	0.02158
2989.41252	0.02153
2988.12675	0.02136
2986.84098	0.02112
2985.55522	0.02095
2984.26945	0.02096
2982.98368	0.02115
2981.69791	0.02141
2980.41214	0.02156
2979.12637	0.02145
2977.84060	0.02109
2976.55483	0.02064
2975.26907	0.02036
2973.98330	0.02041
2972.69753	0.02069
2971.41176	0.02091
2970.12599	0.02092
2968.84022	0.02080
2967.55445	0.02072
2966.26868	0.02083
2964.98291	0.02112
2963.69715	0.02139
2962.41138	0.02145
2961.12561	0.02126
2959.83984	0.02100
2958.55407	0.02088
2957.26830	0.02097
2955.98253	0.02119
2954.69676	0.02138
2953.41100	0.02155
2952.12523	0.02179
2950.83946	0.02212
2949.55369	0.02241
2948.26792	0.02249
2946.98215	0.02239
2945.69638	0.02229
2944.41061	0.02224
2943.12484	0.02220
2941.83908	0.02213
2940.55331	0.02202
2939.26754	0.02186
2937.98177	0.02165
2936.69600	0.02142
2935.41023	0.02127
2934.12446	0.02126
2932.83869	0.02138
2931.55293	0.02150
2930.26716	0.02147
2928.98139	0.02128
2927.69562	0.02103
2926.40985	0.02088
2925.12408	0.02089
2923.83831	0.02106
2922.55254	0.02130
2921.26677	0.02154
2919.98101	0.02172
2918.69524	0.02182
2917.40947	0.02181
2916.12370	0.02167
2914.83793	0.02146
2913.55216	0.02128
2912.26639	0.02121
2910.98062	0.02123
2909.69486	0.02128
2908.40909	0.02126
2907.12332	0.02106
2905.83755	0.02072
2904.55178	0.02042
2903.26601	0.02031
2901.98024	0.02040
2900.69447	0.02061
2899.40870	0.02086
2898.12294	0.02104
2896.83717	0.02099
2895.55140	0.02061
2894.26563	0.02015
2892.97986	0.01995
2891.69409	0.02017
2890.40832	0.02066
2889.12255	0.02112
2887.83678	0.02132
2886.55102	0.02122
2885.26525	0.02099
2883.97948	0.02083
2882.69371	0.02080
2881.40794	0.02084
2880.12217	0.02087
2878.83640	0.02093
2877.55063	0.02100
2876.26487	0.02102
2874.97910	0.02092
2873.69333	0.02075
2872.40756	0.02059
2871.12179	0.02043
2869.83602	0.02024
2868.55025	0.02000
2867.26448	0.01979
2865.97871	0.01966
2864.69295	0.01959
2863.40718	0.01959
2862.12141	0.01964
2860.83564	0.01965
2859.54987	0.01953
2858.26410	0.01930
2856.97833	0.01911
2855.69256	0.01909
2854.40680	0.01926
2853.12103	0.01948
2851.83526	0.01961
2850.54949	0.01961
2849.26372	0.01953
2847.97795	0.01950
2846.69218	0.01954
2845.40641	0.01957
2844.12064	0.01949
2842.83488	0.01932
2841.54911	0.01918
2840.26334	0.01917
2838.97757	0.01922
2837.69180	0.01917
2836.40603	0.01901
2835.12026	0.01886
2833.83449	0.01883
2832.54873	0.01890
2831.26296	0.01901
2829.97719	0.01914
2828.69142	0.01924
2827.40565	0.01921
2826.11988	0.01901
2824.83411	0.01875
2823.54834	0.01861
2822.26257	0.01860
2820.97681	0.01863
2819.69104	0.01865
2818.40527	0.01870
2817.11950	0.01879
2815.83373	0.01887
2814.54796	0.01883
2813.26219	0.01867
2811.97642	0.01842
2810.69066	0.01821
2809.40489	0.01812
2808.11912	0.01816
2806.83335	0.01822
2805.54758	0.01817
2804.26181	0.01797
2802.97604	0.01771
2801.69027	0.01750
2800.40450	0.01741
2799.11874	0.01741
2797.83297	0.01742
2796.54720	0.01736
2795.26143	0.01727
2793.97566	0.01718
2792.68989	0.01712
2791.40412	0.01709
2790.11835	0.01711
2788.83259	0.01721
2787.54682	0.01735
2786.26105	0.01746
2784.97528	0.01752
2783.68951	0.01756
2782.40374	0.01760
2781.11797	0.01758
2779.83220	0.01743
2778.54643	0.01719
2777.26067	0.01700
2775.97490	0.01692
2774.68913	0.01691
2773.40336	0.01688
2772.11759	0.01684
2770.83182	0.01683
2769.54605	0.01687
2768.26028	0.01693
2766.97452	0.01698
2765.68875	0.01701
2764.40298	0.01706
2763.11721	0.01715
2761.83144	0.01720
2760.54567	0.01714
2759.25990	0.01702
2757.97413	0.01696
2756.68836	0.01698
2755.40260	0.01702
2754.11683	0.01702
2752.83106	0.01698
2751.54529	0.01695
2750.25952	0.01691
2748.97375	0.01686
2747.68798	0.01684
2746.40221	0.01688
2745.11645	0.01694
2743.83068	0.01696
2742.54491	0.01689
2741.25914	0.01683
2739.97337	0.01686
2738.68760	0.01696
2737.40183	0.01694
2736.11606	0.01672
2734.83029	0.01645
2733.54453	0.01627
2732.25876	0.01624
2730.97299	0.01634
2729.68722	0.01652
2728.40145	0.01672
2727.11568	0.01683
2725.82991	0.01675
2724.54414	0.01651
2723.25838	0.01631
2721.97261	0.01630
2720.68684	0.01647
2719.40107	0.01665
2718.11530	0.01664
2716.82953	0.01642
2715.54376	0.01614
2714.25799	0.01598
2712.97222	0.01595
2711.68646	0.01599
2710.40069	0.01607
2709.11492	0.01614
2707.82915	0.01618
2706.54338	0.01614
2705.25761	0.01600
2703.97184	0.01587
2702.68607	0.01583
2701.40031	0.01594
2700.11454	0.01612
2698.82877	0.01627
2697.54300	0.01635
2696.25723	0.01637
2694.97146	0.01637
2693.68569	0.01637
2692.39992	0.01631
2691.11415	0.01620
2689.82839	0.01612
2688.54262	0.01612
2687.25685	0.01616
2685.97108	0.01618
2684.68531	0.01614
2683.39954	0.01609
2682.11377	0.01604
2680.82800	0.01594
2679.54224	0.01577
2678.25647	0.01556
2676.97070	0.01541
2675.68493	0.01541
2674.39916	0.01557
2673.11339	0.01581
2671.82762	0.01603
2670.54185	0.01611
2669.25608	0.01602
2667.97032	0.01578
2666.68455	0.01556
2665.39878	0.01549
2664.11301	0.01563
2662.82724	0.01592
2661.54147	0.01622
2660.25570	0.01643
2658.96993	0.01648
2657.68417	0.01640
2656.39840	0.01632
2655.11263	0.01636
2653.82686	0.01649
2652.54109	0.01659
2651.25532	0.01660
2649.96955	0.01657
2648.68378	0.01654
2647.39801	0.01650
2646.11225	0.01646
2644.82648	0.01647
2643.54071	0.01656
2642.25494	0.01661
2640.96917	0.01648
2639.68340	0.01613
2638.39763	0.01571
2637.11186	0.01543
2635.82609	0.01543
2634.54033	0.01562
2633.25456	0.01584
2631.96879	0.01592
2630.68302	0.01586
2629.39725	0.01576
2628.11148	0.01566
2626.82571	0.01557
2625.53994	0.01549
2624.25418	0.01542
2622.96841	0.01536
2621.68264	0.01526
2620.39687	0.01502
2619.11110	0.01466
2617.82533	0.01433
2616.53956	0.01425
2615.25379	0.01452
2613.96802	0.01494
2612.68226	0.01523
2611.39649	0.01524
2610.11072	0.01507
2608.82495	0.01493
2607.53918	0.01491
2606.25341	0.01497
2604.96764	0.01495
2603.68187	0.01477
2602.39611	0.01450
2601.11034	0.01434
2599.82457	0.01443
2598.53880	0.01469
2597.25303	0.01498
2595.96726	0.01522
2594.68149	0.01535
2593.39572	0.01526
2592.10995	0.01493
2590.82419	0.01447
2589.53842	0.01409
2588.25265	0.01385
2586.96688	0.01374
2585.68111	0.01374
2584.39534	0.01384
2583.10957	0.01400
2581.82380	0.01410
2580.53804	0.01395
2579.25227	0.01350
2577.96650	0.01292
2576.68073	0.01256
2575.39496	0.01263
2574.10919	0.01293
2572.82342	0.01310
2571.53765	0.01303
2570.25188	0.01293
2568.96612	0.01299
2567.68035	0.01308
2566.39458	0.01298
2565.10881	0.01271
2563.82304	0.01254
2562.53727	0.01262
2561.25150	0.01285
2559.96573	0.01302
2558.67997	0.01304
2557.39420	0.01292
2556.10843	0.01270
2554.82266	0.01241
2553.53689	0.01213
2552.25112	0.01202
2550.96535	0.01216
2549.67958	0.01249
2548.39381	0.01278
2547.10805	0.01288
2545.82228	0.01287
2544.53651	0.01286
2543.25074	0.01283
2541.96497	0.01273
2540.67920	0.01267
2539.39343	0.01281
2538.10766	0.01304
2536.82190	0.01306
2535.53613	0.01276
2534.25036	0.01236
2532.96459	0.01221
2531.67882	0.01236
2530.39305	0.01262
2529.10728	0.01276
2527.82151	0.01269
2526.53574	0.01254
2525.24998	0.01244
2523.96421	0.01244
2522.67844	0.01242
2521.39267	0.01227
2520.10690	0.01197
2518.82113	0.01169
2517.53536	0.01161
2516.24959	0.01171
2514.96383	0.01174
2513.67806	0.01154
2512.39229	0.01119
2511.10652	0.01098
2509.82075	0.01108
2508.53498	0.01135
2507.24921	0.01157
2505.96344	0.01166
2504.67767	0.01168
2503.39191	0.01166
2502.10614	0.01163
2500.82037	0.01160
2499.53460	0.01166
2498.24883	0.01185
2496.96306	0.01209
2495.67729	0.01222
2494.39152	0.01215
2493.10576	0.01196
2491.81999	0.01177
2490.53422	0.01157
2489.24845	0.01136
2487.96268	0.01125
2486.67691	0.01135
2485.39114	0.01158
2484.10537	0.01177
2482.81960	0.01183
2481.53384	0.01178
2480.24807	0.01169
2478.96230	0.01156
2477.67653	0.01143
2476.39076	0.01143
2475.10499	0.01166
2473.81922	0.01203
2472.53345	0.01223
2471.24769	0.01206
2469.96192	0.01168
2468.67615	0.01147
2467.39038	0.01163
2466.10461	0.01199
2464.81884	0.01221
2463.53307	0.01214
2462.24730	0.01188
2460.96153	0.01158
2459.67577	0.01132
2458.39000	0.01107
2457.10423	0.01084
2455.81846	0.01070
2454.53269	0.01073
2453.24692	0.01089
2451.96115	0.01112
2450.67538	0.01141
2449.38962	0.01173
2448.10385	0.01198
2446.81808	0.01209
2445.53231	0.01213
2444.24654	0.01218
2442.96077	0.01218
2441.67500	0.01202
2440.38923	0.01176
2439.10346	0.01152
2437.81770	0.01133
2436.53193	0.01113
2435.24616	0.01091
2433.96039	0.01076
2432.67462	0.01070
2431.38885	0.01066
2430.10308	0.01058
2428.81731	0.01054
2427.53155	0.01067
2426.24578	0.01093
2424.96001	0.01116
2423.67424	0.01116
2422.38847	0.01088
2421.10270	0.01046
2419.81693	0.01010
2418.53116	0.00997
2417.24539	0.01015
2415.95963	0.01059
2414.67386	0.01111
2413.38809	0.01151
2412.10232	0.01164
2410.81655	0.01152
2409.53078	0.01130
2408.24501	0.01115
2406.95924	0.01112
2405.67347	0.01113
2404.38771	0.01114
2403.10194	0.01114
2401.81617	0.01115
2400.53040	0.01105
2399.24463	0.01079
2397.95886	0.01040
2396.67309	0.01013
2395.38732	0.01010
2394.10156	0.01024
2392.81579	0.01038
2391.53002	0.01040
2390.24425	0.01032
2388.95848	0.01023
2387.67271	0.01021
2386.38694	0.01027
2385.10117	0.01033
2383.81540	0.01033
2382.52964	0.01031
2381.24387	0.01033
2379.95810	0.01042
2378.67233	0.01044
2377.38656	0.01045
2376.10079	0.01063
2374.81502	0.01090
2373.52925	0.01083
2372.24349	0.01042
2370.95772	0.01011
2369.67195	0.01013
2368.38618	0.01032
2367.10041	0.01037
2365.81464	0.01036
2364.52887	0.01033
2363.24310	0.01041
2361.95733	0.01057
2360.67157	0.01060
2359.38580	0.01058
2358.10003	0.01066
2356.81426	0.01092
2355.52849	0.01136
2354.24272	0.01192
2352.95695	0.01235
2351.67118	0.01226
2350.38542	0.01192
2349.09965	0.01177
2347.81388	0.01166
2346.52811	0.01134
2345.24234	0.01124
2343.95657	0.01187
2342.67080	0.01298
2341.38503	0.01295
2340.09926	0.01198
2338.81350	0.01195
2337.52773	0.01285
2336.24196	0.01273
2334.95619	0.01196
2333.67042	0.01204
2332.38465	0.01269
2331.09888	0.01204
2329.81311	0.01192
2328.52735	0.01296
2327.24158	0.01364
2325.95581	0.01416
2324.67004	0.01489
2323.38427	0.01532
2322.09850	0.01482
2320.81273	0.01432
2319.52696	0.01377
2318.24119	0.01325
2316.95543	0.01302
2315.66966	0.01285
2314.38389	0.01286
2313.09812	0.01294
2311.81235	0.01282
2310.52658	0.01268
2309.24081	0.01253
2307.95504	0.01227
2306.66928	0.01217
2305.38351	0.01226
2304.09774	0.01251
2302.81197	0.01267
2301.52620	0.01250
2300.24043	0.01204
2298.95466	0.01144
2297.66889	0.01092
2296.38312	0.01068
2295.09736	0.01083
2293.81159	0.01130
2292.52582	0.01180
2291.24005	0.01209
2289.95428	0.01212
2288.66851	0.01199
2287.38274	0.01189
2286.09697	0.01189
2284.81121	0.01201
2283.52544	0.01216
2282.23967	0.01223
2280.95390	0.01215
2279.66813	0.01198
2278.38236	0.01181
2277.09659	0.01167
2275.81082	0.01152
2274.52505	0.01137
2273.23929	0.01126
2271.95352	0.01119
2270.66775	0.01107
2269.38198	0.01081
2268.09621	0.01046
2266.81044	0.01018
2265.52467	0.01004
2264.23890	0.00999
2262.95314	0.00989
2261.66737	0.00976
2260.38160	0.00979
2259.09583	0.01003
2257.81006	0.01019
2256.52429	0.00990
2255.23852	0.00918
2253.95275	0.00851
2252.66698	0.00824
2251.38122	0.00824
2250.09545	0.00809
2248.80968	0.00765
2247.52391	0.00717
2246.23814	0.00718
2244.95237	0.00778
2243.66660	0.00854
2242.38083	0.00887
2241.09507	0.00851
2239.80930	0.00780
2238.52353	0.00740
2237.23776	0.00766
2235.95199	0.00831
2234.66622	0.00880
2233.38045	0.00878
2232.09468	0.00835
2230.80891	0.00773
2229.52315	0.00698
2228.23738	0.00611
2226.95161	0.00533
2225.66584	0.00510
2224.38007	0.00553
2223.09430	0.00627
2221.80853	0.00685
2220.52276	0.00728
2219.23700	0.00788
2217.95123	0.00871
2216.66546	0.00940
2215.37969	0.00958
2214.09392	0.00915
2212.80815	0.00833
2211.52238	0.00756
2210.23661	0.00721
2208.95084	0.00707
2207.66508	0.00641
2206.37931	0.00491
2205.09354	0.00338
2203.80777	0.00300
2202.52200	0.00402
2201.23623	0.00548
2199.95046	0.00636
2198.66469	0.00658
2197.37893	0.00677
2196.09316	0.00732
2194.80739	0.00784
2193.52162	0.00764
2192.23585	0.00666
2190.95008	0.00570
2189.66431	0.00558
2188.37854	0.00620
2187.09277	0.00670
2185.80701	0.00641
2184.52124	0.00560
2183.23547	0.00505
2181.94970	0.00518
2180.66393	0.00560
2179.37816	0.00572
2178.09239	0.00533
2176.80662	0.00468
2175.52085	0.00401
2174.23509	0.00342
2172.94932	0.00302
2171.66355	0.00293
2170.37778	0.00316
2169.09201	0.00348
2167.80624	0.00355
2166.52047	0.00316
2165.23470	0.00261
2163.94894	0.00244
2162.66317	0.00286
2161.37740	0.00341
2160.09163	0.00336
2158.80586	0.00241
2157.52009	0.00098
2156.23432	-0.00006
2154.94855	-0.00001
2153.66278	0.00103
2152.37702	0.00230
2151.09125	0.00313
2149.80548	0.00346
2148.51971	0.00361
2147.23394	0.00364
2145.94817	0.00340
2144.66240	0.00287
2143.37663	0.00220
2142.09087	0.00161
2140.80510	0.00132
2139.51933	0.00155
2138.23356	0.00233
2136.94779	0.00325
2135.66202	0.00369
2134.37625	0.00339
2133.09048	0.00278
2131.80471	0.00244
2130.51895	0.00250
2129.23318	0.00267
2127.94741	0.00276
2126.66164	0.00295
2125.37587	0.00343
2124.09010	0.00415
2122.80433	0.00493
2121.51856	0.00560
2120.23280	0.00603
2118.94703	0.00611
2117.66126	0.00591
2116.37549	0.00569
2115.08972	0.00573
2113.80395	0.00599
2112.51818	0.00627
2111.23241	0.00640
2109.94664	0.00630
2108.66088	0.00596
2107.37511	0.00538
2106.08934	0.00475
2104.80357	0.00441
2103.51780	0.00451
2102.23203	0.00480
2100.94626	0.00499
2099.66049	0.00490
2098.37473	0.00475
2097.08896	0.00456
2095.80319	0.00434
2094.51742	0.00429
2093.23165	0.00457
2091.94588	0.00508
2090.66011	0.00554
2089.37434	0.00570
2088.08857	0.00559
2086.80281	0.00539
2085.51704	0.00530
2084.23127	0.00538
2082.94550	0.00565
2081.65973	0.00597
2080.37396	0.00620
2079.08819	0.00626
2077.80242	0.00628
2076.51666	0.00637
2075.23089	0.00642
2073.94512	0.00618
2072.65935	0.00557
2071.37358	0.00484
2070.08781	0.00433
2068.80204	0.00416
2067.51627	0.00422
2066.23050	0.00443
2064.94474	0.00467
2063.65897	0.00481
2062.37320	0.00471
2061.08743	0.00442
2059.80166	0.00423
2058.51589	0.00431
2057.23012	0.00459
2055.94435	0.00482
2054.65859	0.00498
2053.37282	0.00513
2052.08705	0.00520
2050.80128	0.00507
2049.51551	0.00478
2048.22974	0.00453
2046.94397	0.00439
2045.65820	0.00423
2044.37243	0.00396
2043.08667	0.00371
2041.80090	0.00365
2040.51513	0.00372
2039.22936	0.00362
2037.94359	0.00301
2036.65782	0.00192
2035.37205	0.00081
2034.08628	0.00004
2032.80052	-0.00046
2031.51475	-0.00088
2030.22898	-0.00102
2028.94321	-0.00046
2027.65744	0.00084
2026.37167	0.00235
2025.08590	0.00342
2023.80013	0.00371
2022.51436	0.00328
2021.22860	0.00239
2019.94283	0.00124
2018.65706	0.00003
2017.37129	-0.00095
2016.08552	-0.00133
2014.79975	-0.00095
2013.51398	-0.00005
2012.22821	0.00082
2010.94245	0.00109
2009.65668	0.00047
2008.37091	-0.00070
2007.08514	-0.00161
2005.79937	-0.00152
2004.51360	-0.00039
2003.22783	0.00129
2001.94206	0.00297
2000.65629	0.00420
1999.37053	0.00467
1998.08476	0.00435
1996.79899	0.00371
1995.51322	0.00334
1994.22745	0.00339
1992.94168	0.00343
1991.65591	0.00298
1990.37014	0.00207
1989.08438	0.00118
1987.79861	0.00069
1986.51284	0.00066
1985.22707	0.00102
1983.94130	0.00184
1982.65553	0.00318
1981.36976	0.00468
1980.08399	0.00555
1978.79822	0.00529
1977.51246	0.00421
1976.22669	0.00314
1974.94092	0.00253
1973.65515	0.00218
1972.36938	0.00189
1971.08361	0.00180
1969.79784	0.00213
1968.51207	0.00276
1967.22631	0.00330
1965.94054	0.00360
1964.65477	0.00380
1963.36900	0.00398
1962.08323	0.00399
1960.79746	0.00365
1959.51169	0.00312
1958.22592	0.00268
1956.94015	0.00245
1955.65439	0.00226
1954.36862	0.00204
1953.08285	0.00197
1951.79708	0.00227
1950.51131	0.00291
1949.22554	0.00365
1947.93977	0.00424
1946.65400	0.00462
1945.36823	0.00487
1944.08247	0.00513
1942.79670	0.00540
1941.51093	0.00558
1940.22516	0.00559
1938.93939	0.00542
1937.65362	0.00512
1936.36785	0.00477
1935.08208	0.00444
1933.79632	0.00423
1932.51055	0.00423
1931.22478	0.00446
1929.93901	0.00481
1928.65324	0.00514
1927.36747	0.00532
1926.08170	0.00533
1924.79593	0.00521
1923.51016	0.00507
1922.22440	0.00501
1920.93863	0.00499
1919.65286	0.00485
1918.36709	0.00458
1917.08132	0.00443
1915.79555	0.00463
1914.50978	0.00512
1913.22401	0.00555
1911.93825	0.00565
1910.65248	0.00546
1909.36671	0.00513
1908.08094	0.00481
1906.79517	0.00465
1905.50940	0.00473
1904.22363	0.00504
1902.93786	0.00541
1901.65209	0.00569
1900.36633	0.00583
1899.08056	0.00586
1897.79479	0.00580
1896.50902	0.00561
1895.22325	0.00530
1893.93748	0.00497
1892.65171	0.00477
1891.36594	0.00480
1890.08018	0.00498
1888.79441	0.00513
1887.50864	0.00515
1886.22287	0.00511
1884.93710	0.00513
1883.65133	0.00521
1882.36556	0.00526
1881.07979	0.00522
1879.79402	0.00512
1878.50826	0.00504
1877.22249	0.00502
1875.93672	0.00505
1874.65095	0.00506
1873.36518	0.00506
1872.07941	0.00508
1870.79364	0.00520
1869.50787	0.00540
1868.22211	0.00559
1866.93634	0.00571
1865.65057	0.00569
1864.36480	0.00552
1863.07903	0.00524
1861.79326	0.00492
1860.50749	0.00467
1859.22172	0.00459
1857.93595	0.00471
1856.65019	0.00496
1855.36442	0.00528
1854.07865	0.00556
1852.79288	0.00575
1851.50711	0.00583
1850.22134	0.00583
1848.93557	0.00582
1847.64980	0.00585
1846.36404	0.00596
1845.07827	0.00612
1843.79250	0.00628
1842.50673	0.00633
1841.22096	0.00621
1839.93519	0.00598
1838.64942	0.00577
1837.36365	0.00570
1836.07788	0.00574
1834.79212	0.00579
1833.50635	0.00580
1832.22058	0.00581
1830.93481	0.00586
1829.64904	0.00594
1828.36327	0.00600
1827.07750	0.00599
1825.79173	0.00593
1824.50597	0.00582
1823.22020	0.00572
1821.93443	0.00564
1820.64866	0.00558
1819.36289	0.00554
1818.07712	0.00551
1816.79135	0.00545
1815.50558	0.00538
1814.21981	0.00536
1812.93405	0.00544
1811.64828	0.00562
1810.36251	0.00583
1809.07674	0.00599
1807.79097	0.00607
1806.50520	0.00605
1805.21943	0.00597
1803.93366	0.00590
1802.64790	0.00588
1801.36213	0.00589
1800.07636	0.00592
1798.79059	0.00595
1797.50482	0.00602
1796.21905	0.00614
1794.93328	0.00626
1793.64751	0.00632
1792.36174	0.00630
1791.07598	0.00623
1789.79021	0.00621
1788.50444	0.00627
1787.21867	0.00639
1785.93290	0.00649
1784.64713	0.00649
1783.36136	0.00639
1782.07559	0.00627
1780.78983	0.00616
1779.50406	0.00610
1778.21829	0.00607
1776.93252	0.00606
1775.64675	0.00608
1774.36098	0.00610
1773.07521	0.00611
1771.78944	0.00616
1770.50367	0.00627
1769.21791	0.00643
1767.93214	0.00658
1766.64637	0.00667
1765.36060	0.00674
1764.07483	0.00679
1762.78906	0.00681
1761.50329	0.00680
1760.21752	0.00677
1758.93176	0.00674
1757.64599	0.00675
1756.36022	0.00683
1755.07445	0.00697
1753.78868	0.00706
1752.50291	0.00702
1751.21714	0.00686
1749.93137	0.00671
1748.64560	0.00664
1747.35984	0.00666
1746.07407	0.00669
1744.78830	0.00670
1743.50253	0.00669
1742.21676	0.00667
1740.93099	0.00665
1739.64522	0.00664
1738.35945	0.00666
1737.07369	0.00673
1735.78792	0.00681
1734.50215	0.00685
1733.21638	0.00683
1731.93061	0.00679
1730.64484	0.00678
1729.35907	0.00681
1728.07330	0.00687
1726.78753	0.00693
1725.50177	0.00698
1724.21600	0.00705
1722.93023	0.00717
1721.64446	0.00734
1720.35869	0.00750
1719.07292	0.00758
1717.78715	0.00756
1716.50138	0.00753
1715.21561	0.00756
1713.92985	0.00767
1712.64408	0.00783
1711.35831	0.00801
1710.07254	0.00817
1708.78677	0.00832
1707.50100	0.00848
1706.21523	0.00866
1704.92946	0.00888
1703.64370	0.00915
1702.35793	0.00947
1701.07216	0.00984
1699.78639	0.01025
1698.50062	0.01070
1697.21485	0.01114
1695.92908	0.01152
1694.64331	0.01188
1693.35754	0.01233
1692.07178	0.01290
1690.78601	0.01351
1689.50024	0.01406
1688.21447	0.01453
1686.92870	0.01495
1685.64293	0.01535
1684.35716	0.01575
1683.07139	0.01617
1681.78563	0.01661
1680.49986	0.01707
1679.21409	0.01752
1677.92832	0.01792
1676.64255	0.01826
1675.35678	0.01857
1674.07101	0.01891
1672.78524	0.01936
1671.49947	0.01987
1670.21371	0.02038
1668.92794	0.02081
1667.64217	0.02120
1666.35640	0.02160
1665.07063	0.02203
1663.78486	0.02242
1662.49909	0.02275
1661.21332	0.02306
1659.92756	0.02342
1658.64179	0.02386
1657.35602	0.02438
1656.07025	0.02487
1654.78448	0.02522
1653.49871	0.02537
1652.21294	0.02542
1650.92717	0.02551
1649.64140	0.02573
1648.35564	0.02599
1647.06987	0.02618
1645.78410	0.02623
1644.49833	0.02618
1643.21256	0.02613
1641.92679	0.02609
1640.64102	0.02606
1639.35525	0.02600
1638.06949	0.02590
1636.78372	0.02574
1635.49795	0.02549
1634.21218	0.02520
1632.92641	0.02493
1631.64064	0.02474
1630.35487	0.02458
1629.06910	0.02440
1627.78333	0.02415
1626.49757	0.02384
1625.21180	0.02347
1623.92603	0.02307
1622.64026	0.02268
1621.35449	0.02234
1620.06872	0.02205
1618.78295	0.02174
1617.49718	0.02135
1616.21142	0.02091
1614.92565	0.02048
1613.63988	0.02013
1612.35411	0.01985
1611.06834	0.01959
1609.78257	0.01931
1608.49680	0.01900
1607.21103	0.01870
1605.92526	0.01848
1604.63950	0.01832
1603.35373	0.01819
1602.06796	0.01807
1600.78219	0.01794
1599.49642	0.01782
1598.21065	0.01769
1596.92488	0.01757
1595.63911	0.01746
1594.35335	0.01737
1593.06758	0.01732
1591.78181	0.01732
1590.49604	0.01736
1589.21027	0.01743
1587.92450	0.01751
1586.63873	0.01758
1585.35296	0.01763
1584.06719	0.01765
1582.78143	0.01765
1581.49566	0.01766
1580.20989	0.01770
1578.92412	0.01779
1577.63835	0.01790
1576.35258	0.01800
1575.06681	0.01809
1573.78104	0.01820
1572.49528	0.01836
1571.20951	0.01856
1569.92374	0.01879
1568.63797	0.01902
1567.35220	0.01924
1566.06643	0.01946
1564.78066	0.01968
1563.49489	0.01991
1562.20912	0.02015
1560.92336	0.02036
1559.63759	0.02052
1558.35182	0.02062
1557.06605	0.02072
1555.78028	0.02084
1554.49451	0.02098
1553.20874	0.02110
1551.92297	0.02118
1550.63721	0.02124
1549.35144	0.02129
1548.06567	0.02136
1546.77990	0.02148
1545.49413	0.02165
1544.20836	0.02186
1542.92259	0.02206
1541.63682	0.02219
1540.35105	0.02224
1539.06529	0.02226
1537.77952	0.02230
1536.49375	0.02239
1535.20798	0.02251
1533.92221	0.02262
1532.63644	0.02272
1531.35067	0.02280
1530.06490	0.02286
1528.77914	0.02291
1527.49337	0.02297
1526.20760	0.02309
1524.92183	0.02325
1523.63606	0.02342
1522.35029	0.02356
1521.06452	0.02368
1519.77875	0.02380
1518.49298	0.02393
1517.20722	0.02403
1515.92145	0.02409
1514.63568	0.02416
1513.34991	0.02428
1512.06414	0.02446
1510.77837	0.02468
1509.49260	0.02490
1508.20683	0.02510
1506.92107	0.02524
1505.63530	0.02535
1504.34953	0.02546
1503.06376	0.02560
1501.77799	0.02575
1500.49222	0.02587
1499.20645	0.02595
1497.92068	0.02597
1496.63491	0.02600
1495.34915	0.02608
1494.06338	0.02624
1492.77761	0.02646
1491.49184	0.02669
1490.20607	0.02688
1488.92030	0.02701
1487.63453	0.02712
1486.34876	0.02726
1485.06299	0.02744
1483.77723	0.02767
1482.49146	0.02792
1481.20569	0.02816
1479.91992	0.02840
1478.63415	0.02867
1477.34838	0.02897
1476.06261	0.02931
1474.77684	0.02966
1473.49108	0.02996
1472.20531	0.03021
1470.91954	0.03043
1469.63377	0.03064
1468.34800	0.03086
1467.06223	0.03101
1465.77646	0.03109
1464.49069	0.03112
1463.20492	0.03116
1461.91916	0.03131
1460.63339	0.03159
1459.34762	0.03195
1458.06185	0.03229
1456.77608	0.03253
1455.49031	0.03268
1454.20454	0.03279
1452.91877	0.03292
1451.63301	0.03310
1450.34724	0.03332
1449.06147	0.03353
1447.77570	0.03367
1446.48993	0.03372
1445.20416	0.03370
1443.91839	0.03365
1442.63262	0.03359
1441.34685	0.03349
1440.06109	0.03335
1438.77532	0.03317
1437.48955	0.03300
1436.20378	0.03289
1434.91801	0.03285
1433.63224	0.03289
1432.34647	0.03299
1431.06070	0.03315
1429.77494	0.03335
1428.48917	0.03363
1427.20340	0.03400
1425.91763	0.03447
1424.63186	0.03498
1423.34609	0.03546
1422.06032	0.03585
1420.77455	0.03614
1419.48878	0.03633
1418.20302	0.03650
1416.91725	0.03670
1415.63148	0.03696
1414.34571	0.03721
1413.05994	0.03737
1411.77417	0.03740
1410.48840	0.03735
1409.20263	0.03729
1407.91687	0.03723
1406.63110	0.03714
1405.34533	0.03697
1404.05956	0.03671
1402.77379	0.03639
1401.48802	0.03601
1400.20225	0.03558
1398.91648	0.03512
1397.63071	0.03463
1396.34495	0.03412
1395.05918	0.03357
1393.77341	0.03298
1392.48764	0.03236
1391.20187	0.03173
1389.91610	0.03113
1388.63033	0.03056
1387.34456	0.03004
1386.05880	0.02952
1384.77303	0.02897
1383.48726	0.02840
1382.20149	0.02781
1380.91572	0.02723
1379.62995	0.02665
1378.34418	0.02604
1377.05841	0.02539
1375.77264	0.02473
1374.48688	0.02407
1373.20111	0.02347
1371.91534	0.02293
1370.62957	0.02244
1369.34380	0.02196
1368.05803	0.02141
1366.77226	0.02083
1365.48649	0.02026
1364.20073	0.01977
1362.91496	0.01937
1361.62919	0.01902
1360.34342	0.01870
1359.05765	0.01839
1357.77188	0.01807
1356.48611	0.01776
1355.20034	0.01748
1353.91457	0.01725
1352.62881	0.01705
1351.34304	0.01687
1350.05727	0.01669
1348.77150	0.01653
1347.48573	0.01638
1346.19996	0.01625
1344.91419	0.01614
1343.62842	0.01606
1342.34266	0.01598
1341.05689	0.01589
1339.77112	0.01576
1338.48535	0.01560
1337.19958	0.01544
1335.91381	0.01530
1334.62804	0.01516
1333.34227	0.01500
1332.05650	0.01485
1330.77074	0.01474
1329.48497	0.01466
1328.19920	0.01454
1326.91343	0.01437
1325.62766	0.01418
1324.34189	0.01403
1323.05612	0.01396
1321.77035	0.01393
1320.48459	0.01389
1319.19882	0.01380
1317.91305	0.01367
1316.62728	0.01355
1315.34151	0.01344
1314.05574	0.01334
1312.76997	0.01324
1311.48420	0.01312
1310.19843	0.01300
1308.91267	0.01290
1307.62690	0.01281
1306.34113	0.01274
1305.05536	0.01267
1303.76959	0.01257
1302.48382	0.01247
1301.19805	0.01237
1299.91228	0.01229
1298.62652	0.01220
1297.34075	0.01209
1296.05498	0.01199
1294.76921	0.01193
1293.48344	0.01192
1292.19767	0.01193
1290.91190	0.01193
1289.62613	0.01190
1288.34036	0.01186
1287.05460	0.01182
1285.76883	0.01180
1284.48306	0.01177
1283.19729	0.01172
1281.91152	0.01167
1280.62575	0.01161
1279.33998	0.01156
1278.05421	0.01151
1276.76845	0.01148
1275.48268	0.01149
1274.19691	0.01153
1272.91114	0.01158
1271.62537	0.01160
1270.33960	0.01161
1269.05383	0.01162
1267.76806	0.01164
1266.48229	0.01167
1265.19653	0.01167
1263.91076	0.01164
1262.62499	0.01158
1261.33922	0.01151
1260.05345	0.01146
1258.76768	0.01143
1257.48191	0.01141
1256.19614	0.01141
1254.91037	0.01142
1253.62461	0.01141
1252.33884	0.01141
1251.05307	0.01141
1249.76730	0.01144
1248.48153	0.01148
1247.19576	0.01151
1245.90999	0.01151
1244.62422	0.01148
1243.33846	0.01142
1242.05269	0.01136
1240.76692	0.01134
1239.48115	0.01135
1238.19538	0.01135
1236.90961	0.01133
1235.62384	0.01127
1234.33807	0.01119
1233.05230	0.01109
1231.76654	0.01097
1230.48077	0.01085
1229.19500	0.01072
1227.90923	0.01059
1226.62346	0.01049
1225.33769	0.01041
1224.05192	0.01037
1222.76615	0.01037
1221.48039	0.01038
1220.19462	0.01039
1218.90885	0.01035
1217.62308	0.01027
1216.33731	0.01014
1215.05154	0.01000
1213.76577	0.00991
1212.48000	0.00987
1211.19423	0.00987
1209.90847	0.00988
1208.62270	0.00988
1207.33693	0.00986
1206.05116	0.00983
1204.76539	0.00981
1203.47962	0.00982
1202.19385	0.00986
1200.90808	0.00994
1199.62232	0.01004
1198.33655	0.01009
1197.05078	0.01009
1195.76501	0.01005
1194.47924	0.00997
1193.19347	0.00991
1191.90770	0.00987
1190.62193	0.00986
1189.33616	0.00988
1188.05040	0.00986
1186.76463	0.00978
1185.47886	0.00968
1184.19309	0.00962
1182.90732	0.00963
1181.62155	0.00966
1180.33578	0.00963
1179.05001	0.00953
1177.76425	0.00942
1176.47848	0.00935
1175.19271	0.00936
1173.90694	0.00946
1172.62117	0.00963
1171.33540	0.00978
1170.04963	0.00988
1168.76386	0.00990
1167.47809	0.00988
1166.19233	0.00988
1164.90656	0.00993
1163.62079	0.01003
1162.33502	0.01012
1161.04925	0.01017
1159.76348	0.01019
1158.47771	0.01020
1157.19194	0.01022
1155.90618	0.01028
1154.62041	0.01040
1153.33464	0.01058
1152.04887	0.01076
1150.76310	0.01091
1149.47733	0.01105
1148.19156	0.01123
1146.90579	0.01148
1145.62002	0.01178
1144.33426	0.01208
1143.04849	0.01242
1141.76272	0.01281
1140.47695	0.01324
1139.19118	0.01365
1137.90541	0.01406
1136.61964	0.01449
1135.33387	0.01496
1134.04811	0.01546
1132.76234	0.01599
1131.47657	0.01655
1130.19080	0.01717
1128.90503	0.01786
1127.61926	0.01861
1126.33349	0.01942
1125.04772	0.02031
1123.76195	0.02130
1122.47619	0.02238
1121.19042	0.02353
1119.90465	0.02468
1118.61888	0.02580
1117.33311	0.02689
1116.04734	0.02797
1114.76157	0.02908
1113.47580	0.03027
1112.19004	0.03153
1110.90427	0.03279
1109.61850	0.03400
1108.33273	0.03516
1107.04696	0.03631
1105.76119	0.03743
1104.47542	0.03851
1103.18965	0.03958
1101.90388	0.04065
1100.61812	0.04173
1099.33235	0.04280
1098.04658	0.04387
1096.76081	0.04494
1095.47504	0.04595
1094.18927	0.04686
1092.90350	0.04766
1091.61773	0.04841
1090.33197	0.04918
1089.04620	0.04995
1087.76043	0.05073
1086.47466	0.05150
1085.18889	0.05229
1083.90312	0.05309
1082.61735	0.05385
1081.33158	0.05457
1080.04581	0.05526
1078.76005	0.05601
1077.47428	0.05687
1076.18851	0.05784
1074.90274	0.05887
1073.61697	0.05990
1072.33120	0.06089
1071.04543	0.06185
1069.75966	0.06282
1068.47390	0.06383
1067.18813	0.06489
1065.90236	0.06600
1064.61659	0.06712
1063.33082	0.06821
1062.04505	0.06922
1060.75928	0.07017
1059.47351	0.07112
1058.18774	0.07209
1056.90198	0.07305
1055.61621	0.07396
1054.33044	0.07482
1053.04467	0.07569
1051.75890	0.07658
1050.47313	0.07751
1049.18736	0.07847
1047.90159	0.07945
1046.61583	0.08046
1045.33006	0.08148
1044.04429	0.08250
1042.75852	0.08350
1041.47275	0.08444
1040.18698	0.08529
1038.90121	0.08607
1037.61544	0.08685
1036.32967	0.08772
1035.04391	0.08866
1033.75814	0.08961
1032.47237	0.09045
1031.18660	0.09112
1029.90083	0.09163
1028.61506	0.09204
1027.32929	0.09245
1026.04352	0.09287
1024.75775	0.09329
1023.47199	0.09363
1022.18622	0.09380
1020.90045	0.09376
1019.61468	0.09356
1018.32891	0.09325
1017.04314	0.09289
1015.75737	0.09251
1014.47160	0.09209
1013.18584	0.09161
1011.90007	0.09098
1010.61430	0.09019
1009.32853	0.08923
1008.04276	0.08814
1006.75699	0.08691
1005.47122	0.08555
1004.18545	0.08411
1002.89968	0.08262
1001.61392	0.08108
1000.32815	0.07945
999.04238	0.07773
997.75661	0.07595
996.47084	0.07414
995.18507	0.07232
993.89930	0.07049
992.61353	0.06865
991.32777	0.06682
990.04200	0.06503
988.75623	0.06332
987.47046	0.06167
986.18469	0.06005
984.89892	0.05842
983.61315	0.05674
982.32738	0.05502
981.04161	0.05335
979.75585	0.05181
978.47008	0.05039
977.18431	0.04907
975.89854	0.04783
974.61277	0.04670
973.32700	0.04570
972.04123	0.04480
970.75546	0.04402
969.46970	0.04339
968.18393	0.04297
966.89816	0.04272
965.61239	0.04261
964.32662	0.04259
963.04085	0.04264
961.75508	0.04269
960.46931	0.04268
959.18354	0.04256
957.89778	0.04229
956.61201	0.04187
955.32624	0.04130
954.04047	0.04061
952.75470	0.03984
951.46893	0.03904
950.18316	0.03825
948.89739	0.03748
947.61163	0.03672
946.32586	0.03596
945.04009	0.03522
943.75432	0.03452
942.46855	0.03386
941.18278	0.03324
939.89701	0.03265
938.61124	0.03207
937.32547	0.03147
936.03971	0.03084
934.75394	0.03022
933.46817	0.02969
932.18240	0.02922
930.89663	0.02875
929.61086	0.02826
928.32509	0.02779
927.03932	0.02737
925.75356	0.02699
924.46779	0.02661
923.18202	0.02623
921.89625	0.02588
920.61048	0.02554
919.32471	0.02521
918.03894	0.02490
916.75317	0.02463
915.46740	0.02439
914.18164	0.02417
912.89587	0.02393
911.61010	0.02368
910.32433	0.02340
909.03856	0.02312
907.75279	0.02284
906.46702	0.02258
905.18125	0.02241
903.89549	0.02232
902.60972	0.02221
901.32395	0.02196
900.03818	0.02156
898.75241	0.02111
897.46664	0.02070
896.18087	0.02037
894.89510	0.02015
893.60933	0.02007
892.32357	0.02012
891.03780	0.02024
889.75203	0.02036
888.46626	0.02046
887.18049	0.02062
885.89472	0.02091
884.60895	0.02138
883.32318	0.02207
882.03742	0.02297
880.75165	0.02396
879.46588	0.02487
878.18011	0.02560
876.89434	0.02620
875.60857	0.02677
874.32280	0.02734
873.03703	0.02781
871.75126	0.02810
870.46550	0.02813
869.17973	0.02790
867.89396	0.02743
866.60819	0.02680
865.32242	0.02611
864.03665	0.02540
862.75088	0.02468
861.46511	0.02393
860.17935	0.02320
858.89358	0.02257
857.60781	0.02205
856.32204	0.02164
855.03627	0.02127
853.75050	0.02094
852.46473	0.02064
851.17896	0.02039
849.89319	0.02017
848.60743	0.01996
847.32166	0.01973
846.03589	0.01951
844.75012	0.01930
843.46435	0.01917
842.17858	0.01910
840.89281	0.01905
839.60704	0.01898
838.32128	0.01888
837.03551	0.01879
835.74974	0.01869
834.46397	0.01858
833.17820	0.01844
831.89243	0.01827
830.60666	0.01808
829.32089	0.01789
828.03512	0.01776
826.74936	0.01775
825.46359	0.01784
824.17782	0.01797
822.89205	0.01806
821.60628	0.01804
820.32051	0.01787
819.03474	0.01756
817.74897	0.01717
816.46321	0.01683
815.17744	0.01664
813.89167	0.01663
812.60590	0.01676
811.32013	0.01696
810.03436	0.01713
808.74859	0.01717
807.46282	0.01706
806.17705	0.01688
804.89129	0.01679
803.60552	0.01685
802.31975	0.01700
801.03398	0.01710
799.74821	0.01709
798.46244	0.01701
797.17667	0.01695
795.89090	0.01693
794.60513	0.01691
793.31937	0.01689
792.03360	0.01687
790.74783	0.01685
789.46206	0.01681
788.17629	0.01674
786.89052	0.01666
785.60475	0.01662
784.31898	0.01663
783.03322	0.01667
781.74745	0.01668
780.46168	0.01664
779.17591	0.01654
777.89014	0.01650
776.60437	0.01658
775.31860	0.01677
774.03283	0.01695
772.74706	0.01703
771.46130	0.01699
770.17553	0.01690
768.88976	0.01680
767.60399	0.01669
766.31822	0.01659
765.03245	0.01653
763.74668	0.01654
762.46091	0.01657
761.17515	0.01660
759.88938	0.01662
758.60361	0.01662
757.31784	0.01660
756.03207	0.01659
754.74630	0.01662
753.46053	0.01669
752.17476	0.01673
750.88899	0.01663
749.60323	0.01639
748.31746	0.01616
747.03169	0.01610
745.74592	0.01627
744.46015	0.01657
743.17438	0.01682
741.88861	0.01691
740.60284	0.01686
739.31708	0.01673
738.03131	0.01658
736.74554	0.01641
735.45977	0.01627
734.17400	0.01621
732.88823	0.01625
731.60246	0.01635
730.31669	0.01641
729.03092	0.01642
727.74516	0.01639
726.45939	0.01636
725.17362	0.01638
723.88785	0.01647
722.60208	0.01660
721.31631	0.01671
720.03054	0.01676
718.74477	0.01670
717.45901	0.01659
716.17324	0.01648
714.88747	0.01645
713.60170	0.01648
712.31593	0.01658
711.03016	0.01672
709.74439	0.01685
708.45862	0.01692
707.17285	0.01693
705.88709	0.01690
704.60132	0.01688
703.31555	0.01687
702.02978	0.01688
700.74401	0.01694
699.45824	0.01705
698.17247	0.01717
696.88670	0.01723
695.60094	0.01718
694.31517	0.01706
693.02940	0.01699
691.74363	0.01701
690.45786	0.01711
689.17209	0.01720
687.88632	0.01723
686.60055	0.01720
685.31478	0.01713
684.02902	0.01705
682.74325	0.01695
681.45748	0.01687
680.17171	0.01682
678.88594	0.01681
677.60017	0.01683
676.31440	0.01687
675.02863	0.01691
673.74287	0.01697
672.45710	0.01702
671.17133	0.01708
669.88556	0.01713
668.59979	0.01717
667.31402	0.01722
666.02825	0.01718
664.74248	0.01708
663.45671	0.01693
662.17095	0.01678
660.88518	0.01667
659.59941	0.01662
658.31364	0.01659
657.02787	0.01653
655.74210	0.01646
654.45633	0.01640
653.17056	0.01637
651.88480	0.01640
650.59903	0.01646
649.31326	0.01652
648.02749	0.01658
646.74172	0.01660
645.45595	0.01660
644.17018	0.01658
642.88441	0.01657
641.59864	0.01659
640.31288	0.01665
639.02711	0.01670
637.74134	0.01671
636.45557	0.01672
635.16980	0.01682
633.88403	0.01706
632.59826	0.01743
631.31249	0.01783
630.02673	0.01816
628.74096	0.01848
627.45519	0.01908
626.16942	0.01952
624.88365	0.01997
623.59788	0.02074
622.31211	0.02184
621.02634	0.02302
619.74057	0.02393
618.45481	0.02440
617.16904	0.02453
615.88327	0.02463
614.59750	0.02495
613.31173	0.02560
612.02596	0.02672
610.74019	0.02853
609.45442	0.03111
608.16866	0.03401
606.88289	0.03649
605.59712	0.03817
604.31135	0.03921
603.02558	0.03991
601.73981	0.04035
600.45404	0.04039
599.16827	0.03996
597.88250	0.03919
596.59674	0.03838
595.31097	0.03776
594.02520	0.03747
592.73943	0.03739
591.45366	0.03734
590.16789	0.03724
588.88212	0.03718
587.59635	0.03733
586.31059	0.03778
585.02482	0.03845
583.73905	0.03924
582.45328	0.04007
581.16751	0.04093
579.88174	0.04179
578.59597	0.04269
577.31020	0.04368
576.02443	0.04476
574.73867	0.04588
573.45290	0.04690
572.16713	0.04780
570.88136	0.04864
569.59559	0.04955
568.30982	0.05062
567.02405	0.05181
565.73828	0.05298
564.45251	0.05393
563.16675	0.05461
561.88098	0.05500
560.59521	0.05503
559.30944	0.05454
558.02367	0.05344
556.73790	0.05186
555.45213	0.05002
554.16636	0.04811
552.88060	0.04619
551.59483	0.04431
550.30906	0.04246
549.02329	0.04070
547.73752	0.03906
546.45175	0.03758
545.16598	0.03627
543.88021	0.03516
542.59444	0.03424
541.30868	0.03347
540.02291	0.03280
538.73714	0.03213
537.45137	0.03141
536.16560	0.03061
534.87983	0.02976
533.59406	0.02892
532.30829	0.02816
531.02253	0.02751
529.73676	0.02696
528.45099	0.02647
527.16522	0.02598
525.87945	0.02549
524.59368	0.02501
523.30791	0.02462
522.02214	0.02435
520.73637	0.02418
519.45061	0.02400
518.16484	0.02376
516.87907	0.02342
515.59330	0.02299
514.30753	0.02247
513.02176	0.02192
511.73599	0.02140
510.45022	0.02098
509.16446	0.02065
507.87869	0.02037
506.59292	0.02009
505.30715	0.01984
504.02138	0.01964
502.73561	0.01952
501.44984	0.01946
500.16407	0.01939
498.87830	0.01925
497.59254	0.01902
496.30677	0.01876
495.02100	0.01851
493.73523	0.01834
492.44946	0.01827
491.16369	0.01826
489.87792	0.01826
488.59215	0.01820
487.30639	0.01809
486.02062	0.01796
484.73485	0.01785
483.44908	0.01777
482.16331	0.01774
480.87754	0.01772
479.59177	0.01773
478.30600	0.01778
477.02023	0.01788
475.73447	0.01798
474.44870	0.01805
473.16293	0.01806
471.87716	0.01800
470.59139	0.01788
469.30562	0.01775
468.01985	0.01765
466.73408	0.01759
465.44832	0.01752
464.16255	0.01741
462.87678	0.01727
461.59101	0.01711
460.30524	0.01694
459.01947	0.01678
457.73370	0.01664
456.44793	0.01651
455.16216	0.01637
453.87640	0.01619
452.59063	0.01595
451.30486	0.01566
450.01909	0.01537
448.73332	0.01513
447.44755	0.01497
446.16178	0.01489
444.87601	0.01486
443.59025	0.01487
442.30448	0.01491
441.01871	0.01495
439.73294	0.01495
438.44717	0.01488
437.16140	0.01475
435.87563	0.01462
434.58986	0.01452
433.30409	0.01447
432.01833	0.01446
430.73256	0.01447
429.44679	0.01447
428.16102	0.01447
426.87525	0.01447
425.58948	0.01443
424.30371	0.01436
423.01794	0.01424
421.73218	0.01410
420.44641	0.01394
419.16064	0.01376
417.87487	0.01360
416.58910	0.01349
415.30333	0.01345
414.01756	0.01346
412.73179	0.01348
411.44602	0.01348
410.16026	0.01347
408.87449	0.01344
407.58872	0.01341
406.30295	0.01336
405.01718	0.01328
403.73141	0.01319
402.44564	0.01314
401.15987	0.01317
399.87411	0.01326
