3997.45528	0.02366
3996.16951	0.02401
3994.88374	0.02401
3993.59798	0.02357
3992.31221	0.02300
3991.02644	0.02274
3989.74067	0.02291
3988.45490	0.02323
3987.16913	0.02341
3985.88336	0.02340
3984.59759	0.02334
3983.31183	0.02334
3982.02606	0.02332
3980.74029	0.02315
3979.45452	0.02277
3978.16875	0.02222
3976.88298	0.02169
3975.59721	0.02133
3974.31144	0.02115
3973.02567	0.02111
3971.73991	0.02122
3970.45414	0.02159
3969.16837	0.02222
3967.88260	0.02297
3966.59683	0.02368
3965.31106	0.02436
3964.02529	0.02499
3962.73952	0.02529
3961.45376	0.02489
3960.16799	0.02394
3958.88222	0.02308
3957.59645	0.02286
3956.31068	0.02308
3955.02491	0.02313
3953.73914	0.02266
3952.45337	0.02189
3951.16760	0.02126
3949.88184	0.02101
3948.59607	0.02121
3947.31030	0.02171
3946.02453	0.02219
3944.73876	0.02230
3943.45299	0.02202
3942.16722	0.02174
3940.88145	0.02188
3939.59569	0.02241
3938.30992	0.02294
3937.02415	0.02323
3935.73838	0.02341
3934.45261	0.02373
3933.16684	0.02414
3931.88107	0.02435
3930.59530	0.02402
3929.30953	0.02320
3928.02377	0.02234
3926.73800	0.02193
3925.45223	0.02204
3924.16646	0.02237
3922.88069	0.02260
3921.59492	0.02268
3920.30915	0.02269
3919.02338	0.02269
3917.73762	0.02266
3916.45185	0.02254
3915.16608	0.02228
3913.88031	0.02202
3912.59454	0.02204
3911.30877	0.02261
3910.02300	0.02363
3908.73723	0.02457
3907.45146	0.02486
3906.16570	0.02436
3904.87993	0.02349
3903.59416	0.02283
3902.30839	0.02264
3901.02262	0.02272
3899.73685	0.02272
3898.45108	0.02243
3897.16531	0.02190
3895.87955	0.02140
3894.59378	0.02123
3893.30801	0.02152
3892.02224	0.02219
3890.73647	0.02293
3889.45070	0.02340
3888.16493	0.02338
3886.87916	0.02294
3885.59339	0.02236
3884.30763	0.02195
3883.02186	0.02191
3881.73609	0.02225
3880.45032	0.02279
3879.16455	0.02322
3877.87878	0.02328
3876.59301	0.02294
3875.30724	0.02248
3874.02148	0.02227
3872.73571	0.02254
3871.44994	0.02325
3870.16417	0.02401
3868.87840	0.02432
3867.59263	0.02395
3866.30686	0.02310
3865.02109	0.02226
3863.73532	0.02174
3862.44956	0.02150
3861.16379	0.02132
3859.87802	0.02117
3858.59225	0.02118
3857.30648	0.02136
3856.02071	0.02141
3854.73494	0.02094
3853.44917	0.01998
3852.16341	0.01902
3850.87764	0.01868
3849.59187	0.01908
3848.30610	0.01979
3847.02033	0.02024
3845.73456	0.02021
3844.44879	0.01996
3843.16302	0.01986
3841.87725	0.02005
3840.59149	0.02041
3839.30572	0.02086
3838.01995	0.02142
3836.73418	0.02213
3835.44841	0.02282
3834.16264	0.02323
3832.87687	0.02320
3831.59110	0.02279
3830.30534	0.02221
3829.01957	0.02167
3827.73380	0.02139
3826.44803	0.02140
3825.16226	0.02152
3823.87649	0.02143
3822.59072	0.02103
3821.30495	0.02055
3820.01918	0.02036
3818.73342	0.02054
3817.44765	0.02086
3816.16188	0.02107
3814.87611	0.02108
3813.59034	0.02102
3812.30457	0.02103
3811.01880	0.02116
3809.73303	0.02131
3808.44726	0.02137
3807.16150	0.02127
3805.87573	0.02106
3804.58996	0.02085
3803.30419	0.02073
3802.01842	0.02068
3800.73265	0.02063
3799.44688	0.02051
3798.16111	0.02034
3796.87535	0.02024
3795.58958	0.02033
3794.30381	0.02052
3793.01804	0.02058
3791.73227	0.02041
3790.44650	0.02021
3789.16073	0.02031
3787.87496	0.02080
3786.58919	0.02143
3785.30343	0.02191
3784.01766	0.02218
3782.73189	0.02235
3781.44612	0.02243
3780.16035	0.02224
3778.87458	0.02159
3777.58881	0.02061
3776.30304	0.01975
3775.01728	0.01948
3773.73151	0.01992
3772.44574	0.02080
3771.15997	0.02164
3769.87420	0.02206
3768.58843	0.02198
3767.30266	0.02163
3766.01689	0.02130
3764.73112	0.02119
3763.44536	0.02123
3762.15959	0.02130
3760.87382	0.02130
3759.58805	0.02128
3758.30228	0.02128
3757.01651	0.02115
3755.73074	0.02067
3754.44497	0.01970
3753.15921	0.01850
3751.87344	0.01757
3750.58767	0.01736
3749.30190	0.01789
3748.01613	0.01876
3746.73036	0.01949
3745.44459	0.01993
3744.15882	0.02025
3742.87305	0.02071
3741.58729	0.02140
3740.30152	0.02220
3739.01575	0.02279
3737.72998	0.02279
3736.44421	0.02198
3735.15844	0.02063
3733.87267	0.01935
3732.58690	0.01869
3731.30114	0.01876
3730.01537	0.01914
3728.72960	0.01931
3727.44383	0.01911
3726.15806	0.01886
3724.87229	0.01893
3723.58652	0.01927
3722.30075	0.01947
3721.01498	0.01927
3719.72922	0.01887
3718.44345	0.01872
3717.15768	0.01904
3715.87191	0.01965
3714.58614	0.02021
3713.30037	0.02045
3712.01460	0.02041
3710.72883	0.02031
3709.44307	0.02026
3708.15730	0.02014
3706.87153	0.01984
3705.58576	0.01949
3704.29999	0.01942
3703.01422	0.01973
3701.72845	0.02014
3700.44268	0.02024
3699.15691	0.01985
3697.87115	0.01923
3696.58538	0.01873
3695.29961	0.01855
3694.01384	0.01862
3692.72807	0.01873
3691.44230	0.01877
3690.15653	0.01876
3688.87076	0.01871
3687.58500	0.01849
3686.29923	0.01804
3685.01346	0.01754
3683.72769	0.01741
3682.44192	0.01785
3681.15615	0.01866
3679.87038	0.01936
3678.58461	0.01962
3677.29884	0.01939
3676.01308	0.01888
3674.72731	0.01836
3673.44154	0.01810
3672.15577	0.01824
3670.87000	0.01874
3669.58423	0.01923
3668.29846	0.01931
3667.01269	0.01895
3665.72693	0.01859
3664.44116	0.01867
3663.15539	0.01923
3661.86962	0.01995
3660.58385	0.02056
3659.29808	0.02102
3658.01231	0.02134
3656.72654	0.02139
3655.44077	0.02103
3654.15501	0.02025
3652.86924	0.01941
3651.58347	0.01894
3650.29770	0.01908
3649.01193	0.01961
3647.72616	0.02009
3646.44039	0.02025
3645.15462	0.02018
3643.86886	0.02016
3642.58309	0.02037
3641.29732	0.02073
3640.01155	0.02099
3638.72578	0.02106
3637.44001	0.02096
3636.15424	0.02076
3634.86847	0.02049
3633.58270	0.02015
3632.29694	0.01979
3631.01117	0.01951
3629.72540	0.01949
3628.43963	0.01993
3627.15386	0.02076
3625.86809	0.02163
3624.58232	0.02214
3623.29655	0.02220
3622.01079	0.02206
3620.72502	0.02202
3619.43925	0.02220
3618.15348	0.02248
3616.86771	0.02266
3615.58194	0.02270
3614.29617	0.02271
3613.01040	0.02268
3611.72463	0.02251
3610.43887	0.02217
3609.15310	0.02188
3607.86733	0.02193
3606.58156	0.02236
3605.29579	0.02292
3604.01002	0.02342
3602.72425	0.02388
3601.43848	0.02441
3600.15272	0.02491
3598.86695	0.02518
3597.58118	0.02513
3596.29541	0.02488
3595.00964	0.02457
3593.72387	0.02425
3592.43810	0.02400
3591.15233	0.02388
3589.86656	0.02385
3588.58080	0.02373
3587.29503	0.02350
3586.00926	0.02347
3584.72349	0.02408
3583.43772	0.02541
3582.15195	0.02697
3580.86618	0.02797
3579.58041	0.02790
3578.29464	0.02696
3577.00888	0.02585
3575.72311	0.02515
3574.43734	0.02502
3573.15157	0.02531
3571.86580	0.02596
3570.58003	0.02703
3569.29426	0.02843
3568.00849	0.02967
3566.72273	0.03024
3565.43696	0.02998
3564.15119	0.02920
3562.86542	0.02835
3561.57965	0.02769
3560.29388	0.02736
3559.00811	0.02741
3557.72234	0.02772
3556.43657	0.02808
3555.15081	0.02825
3553.86504	0.02828
3552.57927	0.02840
3551.29350	0.02875
3550.00773	0.02926
3548.72196	0.02965
3547.43619	0.02971
3546.15042	0.02946
3544.86466	0.02913
3543.57889	0.02892
3542.29312	0.02881
3541.00735	0.02858
3539.72158	0.02811
3538.43581	0.02759
3537.15004	0.02736
3535.86427	0.02757
3534.57850	0.02814
3533.29274	0.02888
3532.00697	0.02974
3530.72120	0.03077
3529.43543	0.03187
3528.14966	0.03271
3526.86389	0.03294
3525.57812	0.03250
3524.29235	0.03174
3523.00659	0.03114
3521.72082	0.03096
3520.43505	0.03115
3519.14928	0.03148
3517.86351	0.03177
3516.57774	0.03193
3515.29197	0.03195
3514.00620	0.03186
3512.72043	0.03175
3511.43467	0.03172
3510.14890	0.03183
3508.86313	0.03202
3507.57736	0.03229
3506.29159	0.03267
3505.00582	0.03307
3503.72005	0.03326
3502.43428	0.03314
3501.14852	0.03291
3499.86275	0.03286
3498.57698	0.03307
3497.29121	0.03338
3496.00544	0.03364
3494.71967	0.03383
3493.43390	0.03397
3492.14813	0.03399
3490.86236	0.03381
3489.57660	0.03349
3488.29083	0.03319
3487.00506	0.03304
3485.71929	0.03309
3484.43352	0.03339
3483.14775	0.03396
3481.86198	0.03463
3480.57621	0.03503
3479.29045	0.03492
3478.00468	0.03443
3476.71891	0.03392
3475.43314	0.03370
3474.14737	0.03388
3472.86160	0.03439
3471.57583	0.03507
3470.29006	0.03561
3469.00429	0.03576
3467.71853	0.03548
3466.43276	0.03494
3465.14699	0.03445
3463.86122	0.03429
3462.57545	0.03456
3461.28968	0.03510
3460.00391	0.03565
3458.71814	0.03610
3457.43238	0.03651
3456.14661	0.03689
3454.86084	0.03715
3453.57507	0.03711
3452.28930	0.03674
3451.00353	0.03619
3449.71776	0.03570
3448.43199	0.03547
3447.14622	0.03559
3445.86046	0.03604
3444.57469	0.03665
3443.28892	0.03721
3442.00315	0.03750
3440.71738	0.03739
3439.43161	0.03694
3438.14584	0.03642
3436.86007	0.03619
3435.57431	0.03652
3434.28854	0.03730
3433.00277	0.03808
3431.71700	0.03840
3430.43123	0.03814
3429.14546	0.03757
3427.85969	0.03714
3426.57392	0.03708
3425.28815	0.03730
3424.00239	0.03753
3422.71662	0.03760
3421.43085	0.03752
3420.14508	0.03741
3418.85931	0.03737
3417.57354	0.03747
3416.28777	0.03768
3415.00200	0.03782
3413.71624	0.03775
3412.43047	0.03749
3411.14470	0.03736
3409.85893	0.03762
3408.57316	0.03822
3407.28739	0.03880
3406.00162	0.03907
3404.71585	0.03907
3403.43008	0.03901
3402.14432	0.03899
3400.85855	0.03904
3399.57278	0.03912
3398.28701	0.03919
3397.00124	0.03921
3395.71547	0.03917
3394.42970	0.03912
3393.14393	0.03904
3391.85817	0.03888
3390.57240	0.03866
3389.28663	0.03854
3388.00086	0.03867
3386.71509	0.03896
3385.42932	0.03916
3384.14355	0.03914
3382.85778	0.03896
3381.57201	0.03878
3380.28625	0.03871
3379.00048	0.03871
3377.71471	0.03873
3376.42894	0.03871
3375.14317	0.03868
3373.85740	0.03869
3372.57163	0.03875
3371.28586	0.03891
3370.00010	0.03917
3368.71433	0.03956
3367.42856	0.04007
3366.14279	0.04058
3364.85702	0.04091
3363.57125	0.04089
3362.28548	0.04053
3360.99971	0.04002
3359.71394	0.03960
3358.42818	0.03937
3357.14241	0.03934
3355.85664	0.03944
3354.57087	0.03967
3353.28510	0.03998
3351.99933	0.04027
3350.71356	0.04042
3349.42779	0.04038
3348.14202	0.04021
3346.85626	0.04002
3345.57049	0.03985
3344.28472	0.03968
3342.99895	0.03948
3341.71318	0.03922
3340.42741	0.03889
3339.14164	0.03854
3337.85587	0.03836
3336.57011	0.03856
3335.28434	0.03911
3333.99857	0.03969
3332.71280	0.03992
3331.42703	0.03975
3330.14126	0.03945
3328.85549	0.03936
3327.56972	0.03951
3326.28395	0.03961
3324.99819	0.03947
3323.71242	0.03920
3322.42665	0.03911
3321.14088	0.03935
3319.85511	0.03975
3318.56934	0.04015
3317.28357	0.04052
3315.99780	0.04079
3314.71204	0.04076
3313.42627	0.04029
3312.14050	0.03962
3310.85473	0.03927
3309.56896	0.03952
3308.28319	0.04013
3306.99742	0.04063
3305.71165	0.04073
3304.42588	0.04060
3303.14012	0.04053
3301.85435	0.04063
3300.56858	0.04078
3299.28281	0.04077
3297.99704	0.04048
3296.71127	0.03996
3295.42550	0.03940
3294.13973	0.03896
3292.85397	0.03868
3291.56820	0.03856
3290.28243	0.03864
3288.99666	0.03891
3287.71089	0.03928
3286.42512	0.03959
3285.13935	0.03975
3283.85358	0.03980
3282.56781	0.03977
3281.28205	0.03965
3279.99628	0.03938
3278.71051	0.03894
3277.42474	0.03846
3276.13897	0.03816
3274.85320	0.03819
3273.56743	0.03843
3272.28166	0.03864
3270.99590	0.03868
3269.71013	0.03865
3268.42436	0.03871
3267.13859	0.03882
3265.85282	0.03884
3264.56705	0.03874
3263.28128	0.03864
3261.99551	0.03866
3260.70974	0.03886
3259.42398	0.03926
3258.13821	0.03985
3256.85244	0.04056
3255.56667	0.04113
3254.28090	0.04132
3252.99513	0.04099
3251.70936	0.04024
3250.42359	0.03930
3249.13783	0.03848
3247.85206	0.03808
3246.56629	0.03818
3245.28052	0.03855
3243.99475	0.03885
3242.70898	0.03880
3241.42321	0.03846
3240.13744	0.03807
3238.85167	0.03788
3237.56591	0.03792
3236.28014	0.03809
3234.99437	0.03829
3233.70860	0.03839
3232.42283	0.03833
3231.13706	0.03815
3229.85129	0.03794
3228.56552	0.03782
3227.27976	0.03787
3225.99399	0.03805
3224.70822	0.03819
3223.42245	0.03815
3222.13668	0.03789
3220.85091	0.03760
3219.56514	0.03748
3218.27937	0.03762
3216.99360	0.03795
3215.70784	0.03834
3214.42207	0.03856
3213.13630	0.03838
3211.85053	0.03774
3210.56476	0.03695
3209.27899	0.03644
3207.99322	0.03642
3206.70745	0.03668
3205.42169	0.03689
3204.13592	0.03689
3202.85015	0.03680
3201.56438	0.03679
3200.27861	0.03690
3198.99284	0.03700
3197.70707	0.03698
3196.42130	0.03684
3195.13553	0.03671
3193.84977	0.03668
3192.56400	0.03659
3191.27823	0.03628
3189.99246	0.03578
3188.70669	0.03537
3187.42092	0.03529
3186.13515	0.03560
3184.84938	0.03616
3183.56362	0.03674
3182.27785	0.03711
3180.99208	0.03722
3179.70631	0.03713
3178.42054	0.03693
3177.13477	0.03668
3175.84900	0.03641
3174.56323	0.03612
3173.27746	0.03588
3171.99170	0.03572
3170.70593	0.03565
3169.42016	0.03562
3168.13439	0.03559
3166.84862	0.03553
3165.56285	0.03541
3164.27708	0.03524
3162.99131	0.03504
3161.70555	0.03485
3160.41978	0.03480
3159.13401	0.03493
3157.84824	0.03517
3156.56247	0.03532
3155.27670	0.03522
3153.99093	0.03490
3152.70516	0.03453
3151.41939	0.03431
3150.13363	0.03430
3148.84786	0.03438
3147.56209	0.03444
3146.27632	0.03447
3144.99055	0.03461
3143.70478	0.03495
3142.41901	0.03535
3141.13324	0.03551
3139.84748	0.03530
3138.56171	0.03488
3137.27594	0.03458
3135.99017	0.03456
3134.70440	0.03470
3133.41863	0.03476
3132.13286	0.03452
3130.84709	0.03402
3129.56132	0.03346
3128.27556	0.03307
3126.98979	0.03297
3125.70402	0.03316
3124.41825	0.03356
3123.13248	0.03399
3121.84671	0.03426
3120.56094	0.03425
3119.27517	0.03400
3117.98940	0.03367
3116.70364	0.03337
3115.41787	0.03316
3114.13210	0.03308
3112.84633	0.03314
3111.56056	0.03326
3110.27479	0.03329
3108.98902	0.03327
3107.70325	0.03335
3106.41749	0.03364
3105.13172	0.03395
3103.84595	0.03400
3102.56018	0.03371
3101.27441	0.03328
3099.98864	0.03301
3098.70287	0.03298
3097.41710	0.03303
3096.13133	0.03298
3094.84557	0.03286
3093.55980	0.03282
3092.27403	0.03286
3090.98826	0.03285
3089.70249	0.03271
3088.41672	0.03254
3087.13095	0.03254
3085.84518	0.03273
3084.55942	0.03294
3083.27365	0.03294
3081.98788	0.03267
3080.70211	0.03233
3079.41634	0.03207
3078.13057	0.03191
3076.84480	0.03176
3075.55903	0.03157
3074.27326	0.03145
3072.98750	0.03155
3071.70173	0.03192
3070.41596	0.03236
3069.13019	0.03260
3067.84442	0.03248
3066.55865	0.03215
3065.27288	0.03184
3063.98711	0.03163
3062.70135	0.03146
3061.41558	0.03126
3060.12981	0.03108
3058.84404	0.03094
3057.55827	0.03080
3056.27250	0.03063
3054.98673	0.03050
3053.70096	0.03051
3052.41519	0.03065
3051.12943	0.03079
3049.84366	0.03076
3048.55789	0.03056
3047.27212	0.03029
3045.98635	0.03016
3044.70058	0.03025
3043.41481	0.03049
3042.12904	0.03074
3040.84328	0.03082
3039.55751	0.03066
3038.27174	0.03032
3036.98597	0.03001
3035.70020	0.02990
3034.41443	0.02993
3033.12866	0.02989
3031.84289	0.02968
3030.55712	0.02950
3029.27136	0.02952
3027.98559	0.02965
3026.69982	0.02965
3025.41405	0.02942
3024.12828	0.02901
3022.84251	0.02856
3021.55674	0.02820
3020.27097	0.02799
3018.98521	0.02800
3017.69944	0.02817
3016.41367	0.02845
3015.12790	0.02877
3013.84213	0.02908
3012.55636	0.02935
3011.27059	0.02952
3009.98482	0.02958
3008.69905	0.02953
3007.41329	0.02937
3006.12752	0.02916
3004.84175	0.02903
3003.55598	0.02904
3002.27021	0.02913
3000.98444	0.02917
2999.69867	0.02912
2998.41290	0.02908
2997.12714	0.02912
2995.84137	0.02923
2994.55560	0.02937
2993.26983	0.02949
2991.98406	0.02950
2990.69829	0.02942
2989.41252	0.02930
2988.12675	0.02919
2986.84098	0.02903
2985.55522	0.02878
2984.26945	0.02852
2982.98368	0.02834
2981.69791	0.02825
2980.41214	0.02820
2979.12637	0.02816
2977.84060	0.02820
2976.55483	0.02838
2975.26907	0.02869
2973.98330	0.02900
2972.69753	0.02926
2971.41176	0.02954
2970.12599	0.02988
2968.84022	0.03021
2967.55445	0.03042
2966.26868	0.03056
2964.98291	0.03067
2963.69715	0.03065
2962.41138	0.03037
2961.12561	0.02986
2959.83984	0.02943
2958.55407	0.02936
2957.26830	0.02968
2955.98253	0.03012
2954.69676	0.03044
2953.41100	0.03054
2952.12523	0.03052
2950.83946	0.03049
2949.55369	0.03052
2948.26792	0.03054
2946.98215	0.03048
2945.69638	0.03031
2944.41061	0.03012
2943.12484	0.02998
2941.83908	0.02989
2940.55331	0.02978
2939.26754	0.02969
2937.98177	0.02970
2936.69600	0.02986
2935.41023	0.03013
2934.12446	0.03037
2932.83869	0.03042
2931.55293	0.03022
2930.26716	0.02988
2928.98139	0.02965
2927.69562	0.02964
2926.40985	0.02976
2925.12408	0.02980
2923.83831	0.02968
2922.55254	0.02942
2921.26677	0.02915
2919.98101	0.02895
2918.69524	0.02884
2917.40947	0.02873
2916.12370	0.02855
2914.83793	0.02836
2913.55216	0.02828
2912.26639	0.02841
2910.98062	0.02873
2909.69486	0.02911
2908.40909	0.02938
2907.12332	0.02938
2905.83755	0.02905
2904.55178	0.02856
2903.26601	0.02821
2901.98024	0.02811
2900.69447	0.02816
2899.40870	0.02824
2898.12294	0.02827
2896.83717	0.02819
2895.55140	0.02789
2894.26563	0.02741
2892.97986	0.02690
2891.69409	0.02660
2890.40832	0.02665
2889.12255	0.02696
2887.83678	0.02732
2886.55102	0.02756
2885.26525	0.02762
2883.97948	0.02752
2882.69371	0.02733
2881.40794	0.02719
2880.12217	0.02716
2878.83640	0.02723
2877.55063	0.02729
2876.26487	0.02726
2874.97910	0.02716
2873.69333	0.02707
2872.40756	0.02709
2871.12179	0.02726
2869.83602	0.02750
2868.55025	0.02765
2867.26448	0.02765
2865.97871	0.02753
2864.69295	0.02737
2863.40718	0.02720
2862.12141	0.02693
2860.83564	0.02648
2859.54987	0.02591
2858.26410	0.02545
2856.97833	0.02530
2855.69256	0.02542
2854.40680	0.02556
2853.12103	0.02550
2851.83526	0.02525
2850.54949	0.02497
2849.26372	0.02477
2847.97795	0.02466
2846.69218	0.02456
2845.40641	0.02446
2844.12064	0.02447
2842.83488	0.02462
2841.54911	0.02481
2840.26334	0.02491
2838.97757	0.02493
2837.69180	0.02495
2836.40603	0.02498
2835.12026	0.02492
2833.83449	0.02469
2832.54873	0.02435
2831.26296	0.02404
2829.97719	0.02386
2828.69142	0.02379
2827.40565	0.02378
2826.11988	0.02375
2824.83411	0.02368
2823.54834	0.02353
2822.26257	0.02331
2820.97681	0.02311
2819.69104	0.02298
2818.40527	0.02297
2817.11950	0.02309
2815.83373	0.02329
2814.54796	0.02346
2813.26219	0.02350
2811.97642	0.02339
2810.69066	0.02322
2809.40489	0.02308
2808.11912	0.02299
2806.83335	0.02288
2805.54758	0.02271
2804.26181	0.02246
2802.97604	0.02227
2801.69027	0.02232
2800.40450	0.02263
2799.11874	0.02301
2797.83297	0.02322
2796.54720	0.02316
2795.26143	0.02286
2793.97566	0.02239
2792.68989	0.02185
2791.40412	0.02138
2790.11835	0.02116
2788.83259	0.02121
2787.54682	0.02139
2786.26105	0.02159
2784.97528	0.02177
2783.68951	0.02191
2782.40374	0.02197
2781.11797	0.02192
2779.83220	0.02181
2778.54643	0.02170
2777.26067	0.02165
2775.97490	0.02165
2774.68913	0.02168
2773.40336	0.02169
2772.11759	0.02161
2770.83182	0.02144
2769.54605	0.02132
2768.26028	0.02136
2766.97452	0.02151
2765.68875	0.02161
2764.40298	0.02161
2763.11721	0.02159
2761.83144	0.02160
2760.54567	0.02158
2759.25990	0.02147
2757.97413	0.02130
2756.68836	0.02116
2755.40260	0.02111
2754.11683	0.02107
2752.83106	0.02100
2751.54529	0.02087
2750.25952	0.02070
2748.97375	0.02060
2747.68798	0.02067
2746.40221	0.02086
2745.11645	0.02104
2743.83068	0.02107
2742.54491	0.02095
2741.25914	0.02084
2739.97337	0.02086
2738.68760	0.02101
2737.40183	0.02114
2736.11606	0.02115
2734.83029	0.02106
2733.54453	0.02097
2732.25876	0.02097
2730.97299	0.02105
2729.68722	0.02112
2728.40145	0.02102
2727.11568	0.02068
2725.82991	0.02018
2724.54414	0.01977
2723.25838	0.01971
2721.97261	0.02006
2720.68684	0.02057
2719.40107	0.02092
2718.11530	0.02095
2716.82953	0.02075
2715.54376	0.02051
2714.25799	0.02032
2712.97222	0.02016
2711.68646	0.02001
2710.40069	0.01992
2709.11492	0.01988
2707.82915	0.01984
2706.54338	0.01969
2705.25761	0.01945
2703.97184	0.01920
2702.68607	0.01910
2701.40031	0.01921
2700.11454	0.01945
2698.82877	0.01969
2697.54300	0.01985
2696.25723	0.01994
2694.97146	0.01999
2693.68569	0.02001
2692.39992	0.01997
2691.11415	0.01984
2689.82839	0.01964
2688.54262	0.01945
2687.25685	0.01938
2685.97108	0.01947
2684.68531	0.01963
2683.39954	0.01970
2682.11377	0.01965
2680.82800	0.01952
2679.54224	0.01938
2678.25647	0.01922
2676.97070	0.01900
2675.68493	0.01878
2674.39916	0.01870
2673.11339	0.01876
2671.82762	0.01885
2670.54185	0.01883
2669.25608	0.01872
2667.97032	0.01864
2666.68455	0.01868
2665.39878	0.01885
2664.11301	0.01907
2662.82724	0.01924
2661.54147	0.01932
2660.25570	0.01932
2658.96993	0.01918
2657.68417	0.01892
2656.39840	0.01865
2655.11263	0.01849
2653.82686	0.01844
2652.54109	0.01839
2651.25532	0.01826
2649.96955	0.01815
2648.68378	0.01818
2647.39801	0.01836
2646.11225	0.01859
2644.82648	0.01874
2643.54071	0.01872
2642.25494	0.01856
2640.96917	0.01833
2639.68340	0.01810
2638.39763	0.01788
2637.11186	0.01771
2635.82609	0.01761
2634.54033	0.01759
2633.25456	0.01766
2631.96879	0.01785
2630.68302	0.01808
2629.39725	0.01817
2628.11148	0.01797
2626.82571	0.01753
2625.53994	0.01709
2624.25418	0.01684
2622.96841	0.01681
2621.68264	0.01690
2620.39687	0.01704
2619.11110	0.01719
2617.82533	0.01729
2616.53956	0.01729
2615.25379	0.01712
2613.96802	0.01673
2612.68226	0.01615
2611.39649	0.01561
2610.11072	0.01537
2608.82495	0.01554
2607.53918	0.01591
2606.25341	0.01623
2604.96764	0.01636
2603.68187	0.01636
2602.39611	0.01637
2601.11034	0.01640
2599.82457	0.01638
2598.53880	0.01622
2597.25303	0.01595
2595.96726	0.01569
2594.68149	0.01552
2593.39572	0.01543
2592.10995	0.01539
2590.82419	0.01537
2589.53842	0.01537
2588.25265	0.01544
2586.96688	0.01561
2585.68111	0.01578
2584.39534	0.01573
2583.10957	0.01537
2581.82380	0.01483
2580.53804	0.01444
2579.25227	0.01436
2577.96650	0.01453
2576.68073	0.01476
2575.39496	0.01485
2574.10919	0.01480
2572.82342	0.01471
2571.53765	0.01471
2570.25188	0.01483
2568.96612	0.01503
2567.68035	0.01522
2566.39458	0.01530
2565.10881	0.01522
2563.82304	0.01499
2562.53727	0.01469
2561.25150	0.01429
2559.96573	0.01378
2558.67997	0.01331
2557.39420	0.01314
2556.10843	0.01331
2554.82266	0.01363
2553.53689	0.01391
2552.25112	0.01415
2550.96535	0.01437
2549.67958	0.01439
2548.39381	0.01410
2547.10805	0.01371
2545.82228	0.01354
2544.53651	0.01367
2543.25074	0.01391
2541.96497	0.01414
2540.67920	0.01435
2539.39343	0.01443
2538.10766	0.01422
2536.82190	0.01369
2535.53613	0.01317
2534.25036	0.01300
2532.96459	0.01324
2531.67882	0.01354
2530.39305	0.01359
2529.10728	0.01339
2527.82151	0.01326
2526.53574	0.01338
2525.24998	0.01365
2523.96421	0.01388
2522.67844	0.01403
2521.39267	0.01418
2520.10690	0.01432
2518.82113	0.01434
2517.53536	0.01411
2516.24959	0.01371
2514.96383	0.01327
2513.67806	0.01290
2512.39229	0.01268
2511.10652	0.01270
2509.82075	0.01302
2508.53498	0.01355
2507.24921	0.01396
2505.96344	0.01395
2504.67767	0.01361
2503.39191	0.01329
2502.10614	0.01327
2500.82037	0.01347
2499.53460	0.01361
2498.24883	0.01361
2496.96306	0.01357
2495.67729	0.01355
2494.39152	0.01346
2493.10576	0.01325
2491.81999	0.01301
2490.53422	0.01284
2489.24845	0.01273
2487.96268	0.01261
2486.67691	0.01260
2485.39114	0.01282
2484.10537	0.01321
2482.81960	0.01343
2481.53384	0.01327
2480.24807	0.01294
2478.96230	0.01280
2477.67653	0.01302
2476.39076	0.01333
2475.10499	0.01339
2473.81922	0.01311
2472.53345	0.01265
2471.24769	0.01230
2469.96192	0.01219
2468.67615	0.01225
2467.39038	0.01231
2466.10461	0.01225
2464.81884	0.01217
2463.53307	0.01220
2462.24730	0.01239
2460.96153	0.01263
2459.67577	0.01282
2458.39000	0.01291
2457.10423	0.01291
2455.81846	0.01285
2454.53269	0.01279
2453.24692	0.01282
2451.96115	0.01298
2450.67538	0.01324
2449.38962	0.01343
2448.10385	0.01346
2446.81808	0.01340
2445.53231	0.01335
2444.24654	0.01330
2442.96077	0.01314
2441.67500	0.01283
2440.38923	0.01249
2439.10346	0.01229
2437.81770	0.01229
2436.53193	0.01239
2435.24616	0.01244
2433.96039	0.01238
2432.67462	0.01222
2431.38885	0.01201
2430.10308	0.01182
2428.81731	0.01174
2427.53155	0.01183
2426.24578	0.01200
2424.96001	0.01213
2423.67424	0.01218
2422.38847	0.01220
2421.10270	0.01221
2419.81693	0.01220
2418.53116	0.01213
2417.24539	0.01197
2415.95963	0.01179
2414.67386	0.01171
2413.38809	0.01181
2412.10232	0.01198
2410.81655	0.01201
2409.53078	0.01186
2408.24501	0.01164
2406.95924	0.01150
2405.67347	0.01149
2404.38771	0.01156
2403.10194	0.01162
2401.81617	0.01164
2400.53040	0.01170
2399.24463	0.01191
2397.95886	0.01216
2396.67309	0.01234
2395.38732	0.01234
2394.10156	0.01215
2392.81579	0.01188
2391.53002	0.01171
2390.24425	0.01166
2388.95848	0.01164
2387.67271	0.01155
2386.38694	0.01141
2385.10117	0.01136
2383.81540	0.01145
2382.52964	0.01162
2381.24387	0.01172
2379.95810	0.01165
2378.67233	0.01138
2377.38656	0.01096
2376.10079	0.01049
2374.81502	0.01008
2373.52925	0.00980
2372.24349	0.00965
2370.95772	0.00953
2369.67195	0.00926
2368.38618	0.00871
2367.10041	0.00793
2365.81464	0.00720
2364.52887	0.00681
2363.24310	0.00685
2361.95733	0.00719
2360.67157	0.00762
2359.38580	0.00805
2358.10003	0.00842
2356.81426	0.00877
2355.52849	0.00920
2354.24272	0.00978
2352.95695	0.01041
2351.67118	0.01090
2350.38542	0.01109
2349.09965	0.01100
2347.81388	0.01078
2346.52811	0.01056
2345.24234	0.01035
2343.95657	0.01011
2342.67080	0.00980
2341.38503	0.00951
2340.09926	0.00938
2338.81350	0.00946
2337.52773	0.00961
2336.24196	0.00964
2334.95619	0.00945
2333.67042	0.00912
2332.38465	0.00882
2331.09888	0.00869
2329.81311	0.00880
2328.52735	0.00916
2327.24158	0.00976
2325.95581	0.01049
2324.67004	0.01118
2323.38427	0.01165
2322.09850	0.01187
2320.81273	0.01195
2319.52696	0.01198
2318.24119	0.01202
2316.95543	0.01211
2315.66966	0.01228
2314.38389	0.01250
2313.09812	0.01267
2311.81235	0.01270
2310.52658	0.01259
2309.24081	0.01237
2307.95504	0.01210
2306.66928	0.01180
2305.38351	0.01154
2304.09774	0.01138
2302.81197	0.01133
2301.52620	0.01138
2300.24043	0.01158
2298.95466	0.01191
2297.66889	0.01226
2296.38312	0.01248
2295.09736	0.01252
2293.81159	0.01244
2292.52582	0.01240
2291.24005	0.01250
2289.95428	0.01274
2288.66851	0.01301
2287.38274	0.01314
2286.09697	0.01297
2284.81121	0.01252
2283.52544	0.01200
2282.23967	0.01173
2280.95390	0.01183
2279.66813	0.01207
2278.38236	0.01205
2277.09659	0.01167
2275.81082	0.01116
2274.52505	0.01084
2273.23929	0.01078
2271.95352	0.01077
2270.66775	0.01067
2269.38198	0.01050
2268.09621	0.01036
2266.81044	0.01027
2265.52467	0.01019
2264.23890	0.01013
2262.95314	0.01013
2261.66737	0.01014
2260.38160	0.01011
2259.09583	0.01000
2257.81006	0.00978
2256.52429	0.00946
2255.23852	0.00915
2253.95275	0.00913
2252.66698	0.00952
2251.38122	0.01012
2250.09545	0.01067
2248.80968	0.01095
2247.52391	0.01055
2246.23814	0.01002
2244.95237	0.00957
2243.66660	0.00923
2242.38083	0.00887
2241.09507	0.00836
2239.80930	0.00776
2238.52353	0.00729
2237.23776	0.00716
2235.95199	0.00729
2234.66622	0.00740
2233.38045	0.00725
2232.09468	0.00681
2230.80891	0.00622
2229.52315	0.00572
2228.23738	0.00550
2226.95161	0.00566
2225.66584	0.00612
2224.38007	0.00678
2223.09430	0.00754
2221.80853	0.00828
2220.52276	0.00875
2219.23700	0.00876
2217.95123	0.00842
2216.66546	0.00807
2215.37969	0.00786
2214.09392	0.00766
2212.80815	0.00731
2211.52238	0.00690
2210.23661	0.00669
2208.95084	0.00681
2207.66508	0.00721
2206.37931	0.00759
2205.09354	0.00759
2203.80777	0.00716
2202.52200	0.00676
2201.23623	0.00697
2199.95046	0.00782
2198.66469	0.00858
2197.37893	0.00855
2196.09316	0.00778
2194.80739	0.00701
2193.52162	0.00685
2192.23585	0.00735
2190.95008	0.00808
2189.66431	0.00865
2188.37854	0.00885
2187.09277	0.00870
2185.80701	0.00844
2184.52124	0.00834
2183.23547	0.00840
2181.94970	0.00826
2180.66393	0.00747
2179.37816	0.00594
2178.09239	0.00420
2176.80662	0.00303
2175.52085	0.00291
2174.23509	0.00372
2172.94932	0.00489
2171.66355	0.00581
2170.37778	0.00603
2169.09201	0.00546
2167.80624	0.00451
2166.52047	0.00393
2165.23470	0.00403
2163.94894	0.00431
2162.66317	0.00402
2161.37740	0.00310
2160.09163	0.00212
2158.80586	0.00159
2157.52009	0.00155
2156.23432	0.00177
2154.94855	0.00215
2153.66278	0.00277
2152.37702	0.00362
2151.09125	0.00443
2149.80548	0.00492
2148.51971	0.00522
2147.23394	0.00581
2145.94817	0.00680
2144.66240	0.00768
2143.37663	0.00780
2142.09087	0.00700
2140.80510	0.00575
2139.51933	0.00474
2138.23356	0.00437
2136.94779	0.00448
2135.66202	0.00468
2134.37625	0.00480
2133.09048	0.00498
2131.80471	0.00524
2130.51895	0.00533
2129.23318	0.00512
2127.94741	0.00490
2126.66164	0.00508
2125.37587	0.00565
2124.09010	0.00619
2122.80433	0.00633
2121.51856	0.00618
2120.23280	0.00619
2118.94703	0.00666
2117.66126	0.00742
2116.37549	0.00790
2115.08972	0.00775
2113.80395	0.00719
2112.51818	0.00674
2111.23241	0.00665
2109.94664	0.00672
2108.66088	0.00670
2107.37511	0.00661
2106.08934	0.00663
2104.80357	0.00681
2103.51780	0.00697
2102.23203	0.00681
2100.94626	0.00622
2099.66049	0.00562
2098.37473	0.00507
2097.08896	0.00480
2095.80319	0.00489
2094.51742	0.00521
2093.23165	0.00568
2091.94588	0.00619
2090.66011	0.00650
2089.37434	0.00640
2088.08857	0.00592
2086.80281	0.00530
2085.51704	0.00482
2084.23127	0.00465
2082.94550	0.00482
2081.65973	0.00520
2080.37396	0.00549
2079.08819	0.00541
2077.80242	0.00503
2076.51666	0.00476
2075.23089	0.00494
2073.94512	0.00540
2072.65935	0.00565
2071.37358	0.00542
2070.08781	0.00483
2068.80204	0.00411
2067.51627	0.00345
2066.23050	0.00299
2064.94474	0.00294
2063.65897	0.00332
2062.37320	0.00387
2061.08743	0.00419
2059.80166	0.00416
2058.51589	0.00391
2057.23012	0.00366
2055.94435	0.00349
2054.65859	0.00341
2053.37282	0.00351
2052.08705	0.00382
2050.80128	0.00425
2049.51551	0.00461
2048.22974	0.00492
2046.94397	0.00530
2045.65820	0.00570
2044.37243	0.00584
2043.08667	0.00547
2041.80090	0.00467
2040.51513	0.00367
2039.22936	0.00264
2037.94359	0.00168
2036.65782	0.00103
2035.37205	0.00098
2034.08628	0.00147
2032.80052	0.00212
2031.51475	0.00258
2030.22898	0.00292
2028.94321	0.00343
2027.65744	0.00427
2026.37167	0.00530
2025.08590	0.00611
2023.80013	0.00619
2022.51436	0.00532
2021.22860	0.00387
2019.94283	0.00266
2018.65706	0.00224
2017.37129	0.00248
2016.08552	0.00284
2014.79975	0.00294
2013.51398	0.00278
2012.22821	0.00253
2010.94245	0.00231
2009.65668	0.00211
2008.37091	0.00197
2007.08514	0.00198
2005.79937	0.00225
2004.51360	0.00275
2003.22783	0.00329
2001.94206	0.00374
2000.65629	0.00420
1999.37053	0.00484
1998.08476	0.00559
1996.79899	0.00606
1995.51322	0.00596
1994.22745	0.00537
1992.94168	0.00464
1991.65591	0.00408
1990.37014	0.00377
1989.08438	0.00368
1987.79861	0.00385
1986.51284	0.00432
1985.22707	0.00514
1983.94130	0.00621
1982.65553	0.00724
1981.36976	0.00782
1980.08399	0.00767
1978.79822	0.00689
1977.51246	0.00583
1976.22669	0.00475
1974.94092	0.00371
1973.65515	0.00272
1972.36938	0.00200
1971.08361	0.00182
1969.79784	0.00222
1968.51207	0.00279
1967.22631	0.00310
1965.94054	0.00305
1964.65477	0.00289
1963.36900	0.00286
1962.08323	0.00302
1960.79746	0.00325
1959.51169	0.00350
1958.22592	0.00383
1956.94015	0.00430
1955.65439	0.00491
1954.36862	0.00552
1953.08285	0.00596
1951.79708	0.00609
1950.51131	0.00596
1949.22554	0.00582
1947.93977	0.00593
1946.65400	0.00626
1945.36823	0.00660
1944.08247	0.00683
1942.79670	0.00705
1941.51093	0.00735
1940.22516	0.00759
1938.93939	0.00745
1937.65362	0.00673
1936.36785	0.00557
1935.08208	0.00441
1933.79632	0.00377
1932.51055	0.00382
1931.22478	0.00436
1929.93901	0.00498
1928.65324	0.00535
1927.36747	0.00543
1926.08170	0.00530
1924.79593	0.00506
1923.51016	0.00483
1922.22440	0.00480
1920.93863	0.00511
1919.65286	0.00569
1918.36709	0.00628
1917.08132	0.00664
1915.79555	0.00672
1914.50978	0.00666
1913.22401	0.00659
1911.93825	0.00651
1910.65248	0.00642
1909.36671	0.00635
1908.08094	0.00643
1906.79517	0.00671
1905.50940	0.00709
1904.22363	0.00738
1902.93786	0.00748
1901.65209	0.00748
1900.36633	0.00754
1899.08056	0.00772
1897.79479	0.00786
1896.50902	0.00774
1895.22325	0.00734
1893.93748	0.00686
1892.65171	0.00661
1891.36594	0.00673
1890.08018	0.00710
1888.79441	0.00744
1887.50864	0.00750
1886.22287	0.00729
1884.93710	0.00695
1883.65133	0.00667
1882.36556	0.00653
1881.07979	0.00654
1879.79402	0.00668
1878.50826	0.00690
1877.22249	0.00712
1875.93672	0.00727
1874.65095	0.00733
1873.36518	0.00729
1872.07941	0.00717
1870.79364	0.00700
1869.50787	0.00683
1868.22211	0.00670
1866.93634	0.00663
1865.65057	0.00657
1864.36480	0.00648
1863.07903	0.00635
1861.79326	0.00616
1860.50749	0.00598
1859.22172	0.00593
1857.93595	0.00607
1856.65019	0.00633
1855.36442	0.00655
1854.07865	0.00661
1852.79288	0.00652
1851.50711	0.00635
1850.22134	0.00620
1848.93557	0.00616
1847.64980	0.00625
1846.36404	0.00639
1845.07827	0.00651
1843.79250	0.00662
1842.50673	0.00672
1841.22096	0.00679
1839.93519	0.00678
1838.64942	0.00676
1837.36365	0.00679
1836.07788	0.00687
1834.79212	0.00693
1833.50635	0.00693
1832.22058	0.00690
1830.93481	0.00688
1829.64904	0.00690
1828.36327	0.00693
1827.07750	0.00697
1825.79173	0.00702
1824.50597	0.00710
1823.22020	0.00720
1821.93443	0.00722
1820.64866	0.00713
1819.36289	0.00698
1818.07712	0.00686
1816.79135	0.00685
1815.50558	0.00692
1814.21981	0.00701
1812.93405	0.00704
1811.64828	0.00699
1810.36251	0.00691
1809.07674	0.00690
1807.79097	0.00698
1806.50520	0.00709
1805.21943	0.00712
1803.93366	0.00701
1802.64790	0.00688
1801.36213	0.00684
1800.07636	0.00694
1798.79059	0.00708
1797.50482	0.00717
1796.21905	0.00718
1794.93328	0.00717
1793.64751	0.00724
1792.36174	0.00740
1791.07598	0.00763
1789.79021	0.00786
1788.50444	0.00803
1787.21867	0.00811
1785.93290	0.00806
1784.64713	0.00791
1783.36136	0.00773
1782.07559	0.00759
1780.78983	0.00752
1779.50406	0.00753
1778.21829	0.00758
1776.93252	0.00763
1775.64675	0.00762
1774.36098	0.00754
1773.07521	0.00747
1771.78944	0.00747
1770.50367	0.00757
1769.21791	0.00769
1767.93214	0.00777
1766.64637	0.00777
1765.36060	0.00773
1764.07483	0.00769
1762.78906	0.00768
1761.50329	0.00771
1760.21752	0.00776
1758.93176	0.00781
1757.64599	0.00788
1756.36022	0.00799
1755.07445	0.00812
1753.78868	0.00818
1752.50291	0.00811
1751.21714	0.00796
1749.93137	0.00787
1748.64560	0.00792
1747.35984	0.00804
1746.07407	0.00813
1744.78830	0.00812
1743.50253	0.00804
1742.21676	0.00797
1740.93099	0.00798
1739.64522	0.00808
1738.35945	0.00820
1737.07369	0.00827
1735.78792	0.00826
1734.50215	0.00823
1733.21638	0.00828
1731.93061	0.00843
1730.64484	0.00864
1729.35907	0.00886
1728.07330	0.00905
1726.78753	0.00917
1725.50177	0.00920
1724.21600	0.00917
1722.93023	0.00914
1721.64446	0.00915
1720.35869	0.00921
1719.07292	0.00930
1717.78715	0.00946
1716.50138	0.00969
1715.21561	0.00993
1713.92985	0.01014
1712.64408	0.01031
1711.35831	0.01046
1710.07254	0.01058
1708.78677	0.01068
1707.50100	0.01078
1706.21523	0.01088
1704.92946	0.01098
1703.64370	0.01106
1702.35793	0.01114
1701.07216	0.01128
1699.78639	0.01154
1698.50062	0.01189
1697.21485	0.01231
1695.92908	0.01274
1694.64331	0.01316
1693.35754	0.01351
1692.07178	0.01376
1690.78601	0.01392
1689.50024	0.01406
1688.21447	0.01422
1686.92870	0.01440
1685.64293	0.01461
1684.35716	0.01488
1683.07139	0.01522
1681.78563	0.01562
1680.49986	0.01602
1679.21409	0.01639
1677.92832	0.01672
1676.64255	0.01702
1675.35678	0.01728
1674.07101	0.01749
1672.78524	0.01765
1671.49947	0.01779
1670.21371	0.01796
1668.92794	0.01823
1667.64217	0.01859
1666.35640	0.01897
1665.07063	0.01929
1663.78486	0.01956
1662.49909	0.01980
1661.21332	0.02003
1659.92756	0.02021
1658.64179	0.02031
1657.35602	0.02031
1656.07025	0.02024
1654.78448	0.02017
1653.49871	0.02022
1652.21294	0.02041
1650.92717	0.02066
1649.64140	0.02085
1648.35564	0.02097
1647.06987	0.02108
1645.78410	0.02125
1644.49833	0.02144
1643.21256	0.02158
1641.92679	0.02162
1640.64102	0.02159
1639.35525	0.02148
1638.06949	0.02133
1636.78372	0.02118
1635.49795	0.02110
1634.21218	0.02113
1632.92641	0.02123
1631.64064	0.02133
1630.35487	0.02139
1629.06910	0.02142
1627.78333	0.02140
1626.49757	0.02131
1625.21180	0.02116
1623.92603	0.02100
1622.64026	0.02088
1621.35449	0.02080
1620.06872	0.02071
1618.78295	0.02061
1617.49718	0.02058
1616.21142	0.02064
1614.92565	0.02079
1613.63988	0.02093
1612.35411	0.02099
1611.06834	0.02097
1609.78257	0.02093
1608.49680	0.02093
1607.21103	0.02100
1605.92526	0.02113
1604.63950	0.02127
1603.35373	0.02139
1602.06796	0.02149
1600.78219	0.02160
1599.49642	0.02171
1598.21065	0.02179
1596.92488	0.02182
1595.63911	0.02182
1594.35335	0.02182
1593.06758	0.02185
1591.78181	0.02192
1590.49604	0.02200
1589.21027	0.02210
1587.92450	0.02222
1586.63873	0.02235
1585.35296	0.02249
1584.06719	0.02263
1582.78143	0.02274
1581.49566	0.02280
1580.20989	0.02280
1578.92412	0.02274
1577.63835	0.02273
1576.35258	0.02283
1575.06681	0.02307
1573.78104	0.02337
1572.49528	0.02364
1571.20951	0.02383
1569.92374	0.02398
1568.63797	0.02417
1567.35220	0.02441
1566.06643	0.02466
1564.78066	0.02484
1563.49489	0.02490
1562.20912	0.02486
1560.92336	0.02477
1559.63759	0.02471
1558.35182	0.02476
1557.06605	0.02491
1555.78028	0.02512
1554.49451	0.02535
1553.20874	0.02557
1551.92297	0.02574
1550.63721	0.02584
1549.35144	0.02588
1548.06567	0.02584
1546.77990	0.02575
1545.49413	0.02559
1544.20836	0.02536
1542.92259	0.02513
1541.63682	0.02496
1540.35105	0.02491
1539.06529	0.02500
1537.77952	0.02515
1536.49375	0.02531
1535.20798	0.02546
1533.92221	0.02563
1532.63644	0.02583
1531.35067	0.02603
1530.06490	0.02622
1528.77914	0.02640
1527.49337	0.02658
1526.20760	0.02675
1524.92183	0.02693
1523.63606	0.02713
1522.35029	0.02741
1521.06452	0.02779
1519.77875	0.02822
1518.49298	0.02868
1517.20722	0.02915
1515.92145	0.02969
1514.63568	0.03029
1513.34991	0.03092
1512.06414	0.03152
1510.77837	0.03206
1509.49260	0.03256
1508.20683	0.03306
1506.92107	0.03367
1505.63530	0.03440
1504.34953	0.03520
1503.06376	0.03593
1501.77799	0.03650
1500.49222	0.03691
1499.20645	0.03725
1497.92068	0.03760
1496.63491	0.03802
1495.34915	0.03848
1494.06338	0.03891
1492.77761	0.03930
1491.49184	0.03966
1490.20607	0.04005
1488.92030	0.04052
1487.63453	0.04106
1486.34876	0.04166
1485.06299	0.04228
1483.77723	0.04291
1482.49146	0.04353
1481.20569	0.04414
1479.91992	0.04474
1478.63415	0.04532
1477.34838	0.04586
1476.06261	0.04632
1474.77684	0.04670
1473.49108	0.04700
1472.20531	0.04728
1470.91954	0.04756
1469.63377	0.04784
1468.34800	0.04808
1467.06223	0.04826
1465.77646	0.04840
1464.49069	0.04855
1463.20492	0.04875
1461.91916	0.04899
1460.63339	0.04924
1459.34762	0.04948
1458.06185	0.04971
1456.77608	0.04996
1455.49031	0.05023
1454.20454	0.05052
1452.91877	0.05079
1451.63301	0.05103
1450.34724	0.05122
1449.06147	0.05133
1447.77570	0.05134
1446.48993	0.05128
1445.20416	0.05119
1443.91839	0.05110
1442.63262	0.05102
1441.34685	0.05092
1440.06109	0.05076
1438.77532	0.05058
1437.48955	0.05047
1436.20378	0.05054
1434.91801	0.05080
1433.63224	0.05118
1432.34647	0.05163
1431.06070	0.05213
1429.77494	0.05269
1428.48917	0.05334
1427.20340	0.05406
1425.91763	0.05483
1424.63186	0.05560
1423.34609	0.05632
1422.06032	0.05697
1420.77455	0.05758
1419.48878	0.05816
1418.20302	0.05874
1416.91725	0.05930
1415.63148	0.05978
1414.34571	0.06017
1413.05994	0.06043
1411.77417	0.06054
1410.48840	0.06049
1409.20263	0.06032
1407.91687	0.06002
1406.63110	0.05962
1405.34533	0.05913
1404.05956	0.05857
1402.77379	0.05795
1401.48802	0.05724
1400.20225	0.05644
1398.91648	0.05557
1397.63071	0.05465
1396.34495	0.05366
1395.05918	0.05262
1393.77341	0.05152
1392.48764	0.05038
1391.20187	0.04923
1389.91610	0.04811
1388.63033	0.04702
1387.34456	0.04596
1386.05880	0.04487
1384.77303	0.04374
1383.48726	0.04256
1382.20149	0.04140
1380.91572	0.04029
1379.62995	0.03922
1378.34418	0.03813
1377.05841	0.03701
1375.77264	0.03584
1374.48688	0.03465
1373.20111	0.03347
1371.91534	0.03231
1370.62957	0.03122
1369.34380	0.03022
1368.05803	0.02930
1366.77226	0.02844
1365.48649	0.02758
1364.20073	0.02672
1362.91496	0.02588
1361.62919	0.02508
1360.34342	0.02435
1359.05765	0.02366
1357.77188	0.02303
1356.48611	0.02246
1355.20034	0.02195
1353.91457	0.02149
1352.62881	0.02105
1351.34304	0.02064
1350.05727	0.02026
1348.77150	0.01992
1347.48573	0.01962
1346.19996	0.01932
1344.91419	0.01898
1343.62842	0.01861
1342.34266	0.01824
1341.05689	0.01790
1339.77112	0.01764
1338.48535	0.01743
1337.19958	0.01722
1335.91381	0.01699
1334.62804	0.01675
1333.34227	0.01651
1332.05650	0.01625
1330.77074	0.01598
1329.48497	0.01575
1328.19920	0.01557
1326.91343	0.01546
1325.62766	0.01541
1324.34189	0.01539
1323.05612	0.01537
1321.77035	0.01530
1320.48459	0.01515
1319.19882	0.01493
1317.91305	0.01472
1316.62728	0.01455
1315.34151	0.01444
1314.05574	0.01435
1312.76997	0.01425
1311.48420	0.01412
1310.19843	0.01398
1308.91267	0.01383
1307.62690	0.01368
1306.34113	0.01353
1305.05536	0.01339
1303.76959	0.01326
1302.48382	0.01317
1301.19805	0.01316
1299.91228	0.01317
1298.62652	0.01315
1297.34075	0.01306
1296.05498	0.01291
1294.76921	0.01277
1293.48344	0.01267
1292.19767	0.01261
1290.91190	0.01254
1289.62613	0.01246
1288.34036	0.01240
1287.05460	0.01238
1285.76883	0.01237
1284.48306	0.01234
1283.19729	0.01227
1281.91152	0.01219
1280.62575	0.01212
1279.33998	0.01206
1278.05421	0.01198
1276.76845	0.01187
1275.48268	0.01173
1274.19691	0.01156
1272.91114	0.01138
1271.62537	0.01123
1270.33960	0.01113
1269.05383	0.01113
1267.76806	0.01121
1266.48229	0.01132
1265.19653	0.01138
1263.91076	0.01134
1262.62499	0.01122
1261.33922	0.01107
1260.05345	0.01093
1258.76768	0.01081
1257.48191	0.01073
1256.19614	0.01069
1254.91037	0.01067
1253.62461	0.01065
1252.33884	0.01061
1251.05307	0.01052
1249.76730	0.01039
1248.48153	0.01025
1247.19576	0.01015
1245.90999	0.01012
1244.62422	0.01014
1243.33846	0.01018
1242.05269	0.01020
1240.76692	0.01016
1239.48115	0.01004
1238.19538	0.00988
1236.90961	0.00974
1235.62384	0.00968
1234.33807	0.00971
1233.05230	0.00977
1231.76654	0.00977
1230.48077	0.00966
1229.19500	0.00950
1227.90923	0.00934
1226.62346	0.00922
1225.33769	0.00913
1224.05192	0.00905
1222.76615	0.00895
1221.48039	0.00883
1220.19462	0.00872
1218.90885	0.00867
1217.62308	0.00865
1216.33731	0.00864
1215.05154	0.00860
1213.76577	0.00856
1212.48000	0.00853
1211.19423	0.00850
1209.90847	0.00845
1208.62270	0.00841
1207.33693	0.00838
1206.05116	0.00836
1204.76539	0.00834
1203.47962	0.00831
1202.19385	0.00828
1200.90808	0.00824
1199.62232	0.00819
1198.33655	0.00818
1197.05078	0.00816
1195.76501	0.00813
1194.47924	0.00808
1193.19347	0.00803
1191.90770	0.00800
1190.62193	0.00797
1189.33616	0.00794
1188.05040	0.00790
1186.76463	0.00786
1185.47886	0.00786
1184.19309	0.00789
1182.90732	0.00794
1181.62155	0.00803
1180.33578	0.00816
1179.05001	0.00829
1177.76425	0.00837
1176.47848	0.00838
1175.19271	0.00835
1173.90694	0.00834
1172.62117	0.00836
1171.33540	0.00839
1170.04963	0.00841
1168.76386	0.00845
1167.47809	0.00855
1166.19233	0.00875
1164.90656	0.00899
1163.62079	0.00923
1162.33502	0.00941
1161.04925	0.00955
1159.76348	0.00969
1158.47771	0.00985
1157.19194	0.01004
1155.90618	0.01024
1154.62041	0.01044
1153.33464	0.01063
1152.04887	0.01084
1150.76310	0.01107
1149.47733	0.01132
1148.19156	0.01161
1146.90579	0.01193
1145.62002	0.01228
1144.33426	0.01266
1143.04849	0.01306
1141.76272	0.01353
1140.47695	0.01410
1139.19118	0.01479
1137.90541	0.01555
1136.61964	0.01633
1135.33387	0.01712
1134.04811	0.01791
1132.76234	0.01875
1131.47657	0.01972
1130.19080	0.02086
1128.90503	0.02218
1127.61926	0.02363
1126.33349	0.02518
1125.04772	0.02679
1123.76195	0.02844
1122.47619	0.03011
1121.19042	0.03181
1119.90465	0.03357
1118.61888	0.03541
1117.33311	0.03733
1116.04734	0.03924
1114.76157	0.04105
1113.47580	0.04275
1112.19004	0.04442
1110.90427	0.04616
1109.61850	0.04796
1108.33273	0.04974
1107.04696	0.05144
1105.76119	0.05303
1104.47542	0.05457
1103.18965	0.05607
1101.90388	0.05757
1100.61812	0.05909
1099.33235	0.06063
1098.04658	0.06215
1096.76081	0.06356
1095.47504	0.06484
1094.18927	0.06602
1092.90350	0.06717
1091.61773	0.06832
1090.33197	0.06945
1089.04620	0.07053
1087.76043	0.07158
1086.47466	0.07261
1085.18889	0.07361
1083.90312	0.07461
1082.61735	0.07564
1081.33158	0.07674
1080.04581	0.07792
1078.76005	0.07919
1077.47428	0.08055
1076.18851	0.08194
1074.90274	0.08333
1073.61697	0.08471
1072.33120	0.08611
1071.04543	0.08757
1069.75966	0.08912
1068.47390	0.09071
1067.18813	0.09235
1065.90236	0.09402
1064.61659	0.09571
1063.33082	0.09739
1062.04505	0.09902
1060.75928	0.10061
1059.47351	0.10220
1058.18774	0.10380
1056.90198	0.10540
1055.61621	0.10694
1054.33044	0.10838
1053.04467	0.10976
1051.75890	0.11113
1050.47313	0.11254
1049.18736	0.11399
1047.90159	0.11543
1046.61583	0.11683
1045.33006	0.11822
1044.04429	0.11964
1042.75852	0.12114
1041.47275	0.12269
1040.18698	0.12425
1038.90121	0.12579
1037.61544	0.12731
1036.32967	0.12876
1035.04391	0.13009
1033.75814	0.13127
1032.47237	0.13235
1031.18660	0.13336
1029.90083	0.13429
1028.61506	0.13511
1027.32929	0.13582
1026.04352	0.13644
1024.75775	0.13693
1023.47199	0.13721
1022.18622	0.13724
1020.90045	0.13708
1019.61468	0.13680
1018.32891	0.13641
1017.04314	0.13589
1015.75737	0.13517
1014.47160	0.13426
1013.18584	0.13316
1011.90007	0.13189
1010.61430	0.13044
1009.32853	0.12877
1008.04276	0.12692
1006.75699	0.12490
1005.47122	0.12275
1004.18545	0.12045
1002.89968	0.11798
1001.61392	0.11535
1000.32815	0.11261
999.04238	0.10986
997.75661	0.10714
996.47084	0.10444
995.18507	0.10172
993.89930	0.09897
992.61353	0.09620
991.32777	0.09342
990.04200	0.09062
988.75623	0.08782
987.47046	0.08504
986.18469	0.08233
984.89892	0.07972
983.61315	0.07721
982.32738	0.07480
981.04161	0.07248
979.75585	0.07023
978.47008	0.06809
977.18431	0.06610
975.89854	0.06434
974.61277	0.06285
973.32700	0.06164
972.04123	0.06070
970.75546	0.06003
969.46970	0.05958
968.18393	0.05933
966.89816	0.05930
965.61239	0.05950
964.32662	0.05982
963.04085	0.06012
961.75508	0.06030
960.46931	0.06031
959.18354	0.06011
957.89778	0.05961
956.61201	0.05878
955.32624	0.05766
954.04047	0.05636
952.75470	0.05503
951.46893	0.05376
950.18316	0.05259
948.89739	0.05148
947.61163	0.05036
946.32586	0.04919
945.04009	0.04802
943.75432	0.04689
942.46855	0.04578
941.18278	0.04462
939.89701	0.04342
938.61124	0.04225
937.32547	0.04120
936.03971	0.04026
934.75394	0.03940
933.46817	0.03858
932.18240	0.03778
930.89663	0.03705
929.61086	0.03638
928.32509	0.03578
927.03932	0.03520
925.75356	0.03460
924.46779	0.03400
923.18202	0.03346
921.89625	0.03298
920.61048	0.03255
919.32471	0.03215
918.03894	0.03178
916.75317	0.03143
915.46740	0.03106
914.18164	0.03065
912.89587	0.03020
911.61010	0.02976
910.32433	0.02942
909.03856	0.02920
907.75279	0.02907
906.46702	0.02894
905.18125	0.02874
903.89549	0.02843
902.60972	0.02806
901.32395	0.02772
900.03818	0.02748
898.75241	0.02731
897.46664	0.02713
896.18087	0.02690
894.89510	0.02661
893.60933	0.02635
892.32357	0.02618
891.03780	0.02617
889.75203	0.02628
888.46626	0.02647
887.18049	0.02674
885.89472	0.02719
884.60895	0.02797
883.32318	0.02915
882.03742	0.03066
880.75165	0.03225
879.46588	0.03367
878.18011	0.03482
876.89434	0.03583
875.60857	0.03688
874.32280	0.03798
873.03703	0.03889
871.75126	0.03937
870.46550	0.03934
869.17973	0.03886
867.89396	0.03803
866.60819	0.03695
865.32242	0.03572
864.03665	0.03441
862.75088	0.03307
861.46511	0.03172
860.17935	0.03043
858.89358	0.02933
857.60781	0.02848
856.32204	0.02788
855.03627	0.02746
853.75050	0.02713
852.46473	0.02680
851.17896	0.02641
849.89319	0.02593
848.60743	0.02545
847.32166	0.02506
846.03589	0.02480
844.75012	0.02462
843.46435	0.02446
842.17858	0.02429
840.89281	0.02409
839.60704	0.02384
838.32128	0.02358
837.03551	0.02336
835.74974	0.02319
834.46397	0.02307
833.17820	0.02296
831.89243	0.02285
830.60666	0.02270
829.32089	0.02254
828.03512	0.02243
826.74936	0.02243
825.46359	0.02249
824.17782	0.02249
822.89205	0.02237
821.60628	0.02222
820.32051	0.02213
819.03474	0.02215
817.74897	0.02221
816.46321	0.02223
815.17744	0.02217
813.89167	0.02204
812.60590	0.02192
811.32013	0.02182
810.03436	0.02173
808.74859	0.02162
807.46282	0.02150
806.17705	0.02140
804.89129	0.02129
803.60552	0.02121
802.31975	0.02120
801.03398	0.02120
799.74821	0.02116
798.46244	0.02106
797.17667	0.02099
795.89090	0.02102
794.60513	0.02108
793.31937	0.02106
792.03360	0.02094
790.74783	0.02077
789.46206	0.02061
788.17629	0.02051
786.89052	0.02049
785.60475	0.02058
784.31898	0.02074
783.03322	0.02087
781.74745	0.02087
780.46168	0.02074
779.17591	0.02057
777.89014	0.02044
776.60437	0.02039
775.31860	0.02037
774.03283	0.02036
772.74706	0.02033
771.46130	0.02033
770.17553	0.02035
768.88976	0.02037
767.60399	0.02040
766.31822	0.02046
765.03245	0.02052
763.74668	0.02050
762.46091	0.02041
761.17515	0.02032
759.88938	0.02028
758.60361	0.02032
757.31784	0.02039
756.03207	0.02042
754.74630	0.02034
753.46053	0.02020
752.17476	0.02009
750.88899	0.02008
749.60323	0.02014
748.31746	0.02021
747.03169	0.02026
745.74592	0.02027
744.46015	0.02018
743.17438	0.01999
741.88861	0.01978
740.60284	0.01967
739.31708	0.01967
738.03131	0.01974
736.74554	0.01986
735.45977	0.01998
734.17400	0.02006
732.88823	0.02005
731.60246	0.01997
730.31669	0.01988
729.03092	0.01982
727.74516	0.01982
726.45939	0.01986
725.17362	0.01993
723.88785	0.01992
722.60208	0.02003
721.31631	0.02014
720.03054	0.02018
718.74477	0.02016
717.45901	0.02016
716.17324	0.02015
714.88747	0.02013
713.60170	0.02007
712.31593	0.01999
711.03016	0.01992
709.74439	0.01988
708.45862	0.01984
707.17285	0.01978
705.88709	0.01969
704.60132	0.01961
703.31555	0.01959
702.02978	0.01961
700.74401	0.01966
699.45824	0.01970
698.17247	0.01972
696.88670	0.01973
695.60094	0.01973
694.31517	0.01970
693.02940	0.01964
691.74363	0.01958
690.45786	0.01958
689.17209	0.01961
687.88632	0.01964
686.60055	0.01960
685.31478	0.01951
684.02902	0.01941
682.74325	0.01933
681.45748	0.01925
680.17171	0.01915
678.88594	0.01903
677.60017	0.01892
676.31440	0.01887
675.02863	0.01887
673.74287	0.01888
672.45710	0.01887
671.17133	0.01882
669.88556	0.01876
668.59979	0.01871
667.31402	0.01869
666.02825	0.01867
664.74248	0.01864
663.45671	0.01861
662.17095	0.01862
660.88518	0.01863
659.59941	0.01858
658.31364	0.01846
657.02787	0.01833
655.74210	0.01823
654.45633	0.01816
653.17056	0.01810
651.88480	0.01804
650.59903	0.01799
649.31326	0.01794
648.02749	0.01792
646.74172	0.01796
645.45595	0.01809
644.17018	0.01825
642.88441	0.01833
641.59864	0.01828
640.31288	0.01816
639.02711	0.01811
637.74134	0.01818
636.45557	0.01836
635.16980	0.01862
633.88403	0.01893
632.59826	0.01927
631.31249	0.01961
630.02673	0.02009
628.74096	0.02067
627.45519	0.02092
626.16942	0.02177
624.88365	0.02283
623.59788	0.02339
622.31211	0.02328
621.02634	0.02317
619.74057	0.02386
618.45481	0.02549
617.16904	0.02778
615.88327	0.03042
614.59750	0.03313
613.31173	0.03566
612.02596	0.03809
610.74019	0.04081
609.45442	0.04394
608.16866	0.04711
606.88289	0.05005
605.59712	0.05281
604.31135	0.05535
603.02558	0.05714
601.73981	0.05767
600.45404	0.05692
599.16827	0.05542
597.88250	0.05378
596.59674	0.05233
595.31097	0.05107
594.02520	0.04988
592.73943	0.04880
591.45366	0.04800
590.16789	0.04761
588.88212	0.04762
587.59635	0.04797
586.31059	0.04860
585.02482	0.04952
583.73905	0.05067
582.45328	0.05198
581.16751	0.05334
579.88174	0.05470
578.59597	0.05609
577.31020	0.05754
576.02443	0.05901
574.73867	0.06035
573.45290	0.06143
572.16713	0.06227
570.88136	0.06308
569.59559	0.06410
568.30982	0.06550
567.02405	0.06721
565.73828	0.06893
564.45251	0.07032
563.16675	0.07117
561.88098	0.07145
560.59521	0.07115
559.30944	0.07020
558.02367	0.06854
556.73790	0.06621
555.45213	0.06342
554.16636	0.06045
552.88060	0.05752
551.59483	0.05482
550.30906	0.05243
549.02329	0.05031
547.73752	0.04833
546.45175	0.04640
545.16598	0.04450
543.88021	0.04272
542.59444	0.04115
541.30868	0.03978
540.02291	0.03853
538.73714	0.03736
537.45137	0.03626
536.16560	0.03524
534.87983	0.03427
533.59406	0.03331
532.30829	0.03234
531.02253	0.03143
529.73676	0.03064
528.45099	0.03002
527.16522	0.02950
525.87945	0.02897
524.59368	0.02834
523.30791	0.02762
522.02214	0.02689
520.73637	0.02620
519.45061	0.02559
518.16484	0.02503
516.87907	0.02450
515.59330	0.02399
514.30753	0.02357
513.02176	0.02324
511.73599	0.02296
510.45022	0.02265
509.16446	0.02230
507.87869	0.02197
506.59292	0.02171
505.30715	0.02149
504.02138	0.02124
502.73561	0.02096
501.44984	0.02071
500.16407	0.02053
498.87830	0.02036
497.59254	0.02011
496.30677	0.01977
495.02100	0.01938
493.73523	0.01904
492.44946	0.01878
491.16369	0.01861
489.87792	0.01848
488.59215	0.01840
487.30639	0.01836
486.02062	0.01831
484.73485	0.01823
483.44908	0.01814
482.16331	0.01810
480.87754	0.01814
479.59177	0.01823
478.30600	0.01835
477.02023	0.01852
475.73447	0.01871
474.44870	0.01887
473.16293	0.01894
471.87716	0.01890
470.59139	0.01880
469.30562	0.01864
468.01985	0.01847
466.73408	0.01832
465.44832	0.01823
464.16255	0.01817
462.87678	0.01807
461.59101	0.01788
460.30524	0.01761
459.01947	0.01731
457.73370	0.01705
456.44793	0.01684
455.16216	0.01669
453.87640	0.01657
452.59063	0.01646
451.30486	0.01631
450.01909	0.01610
448.73332	0.01588
447.44755	0.01570
446.16178	0.01557
444.87601	0.01546
443.59025	0.01534
442.30448	0.01520
441.01871	0.01506
439.73294	0.01494
438.44717	0.01484
437.16140	0.01477
435.87563	0.01476
434.58986	0.01481
433.30409	0.01486
432.01833	0.01488
430.73256	0.01483
429.44679	0.01475
428.16102	0.01466
426.87525	0.01457
425.58948	0.01447
424.30371	0.01439
423.01794	0.01429
421.73218	0.01417
420.44641	0.01402
419.16064	0.01386
417.87487	0.01372
416.58910	0.01361
415.30333	0.01356
414.01756	0.01358
412.73179	0.01366
411.44602	0.01375
410.16026	0.01383
408.87449	0.01385
407.58872	0.01383
406.30295	0.01380
405.01718	0.01380
403.73141	0.01384
402.44564	0.01390
401.15987	0.01395
399.87411	0.01399
