3997.45528	0.04335
3996.16951	0.04395
3994.88374	0.04423
3993.59798	0.04390
3992.31221	0.04306
3991.02644	0.04219
3989.74067	0.04179
3988.45490	0.04185
3987.16913	0.04191
3985.88336	0.04157
3984.59759	0.04091
3983.31183	0.04044
3982.02606	0.04058
3980.74029	0.04132
3979.45452	0.04226
3978.16875	0.04290
3976.88298	0.04296
3975.59721	0.04251
3974.31144	0.04182
3973.02567	0.04122
3971.73991	0.04097
3970.45414	0.04115
3969.16837	0.04169
3967.88260	0.04224
3966.59683	0.04237
3965.31106	0.04187
3964.02529	0.04090
3962.73952	0.03997
3961.45376	0.03952
3960.16799	0.03963
3958.88222	0.04001
3957.59645	0.04023
3956.31068	0.04012
3955.02491	0.03974
3953.73914	0.03931
3952.45337	0.03895
3951.16760	0.03871
3949.88184	0.03857
3948.59607	0.03846
3947.31030	0.03841
3946.02453	0.03865
3944.73876	0.03932
3943.45299	0.04021
3942.16722	0.04077
3940.88145	0.04070
3939.59569	0.04021
3938.30992	0.03973
3937.02415	0.03954
3935.73838	0.03962
3934.45261	0.03977
3933.16684	0.03973
3931.88107	0.03931
3930.59530	0.03858
3929.30953	0.03796
3928.02377	0.03777
3926.73800	0.03800
3925.45223	0.03837
3924.16646	0.03868
3922.88069	0.03899
3921.59492	0.03934
3920.30915	0.03960
3919.02338	0.03956
3917.73762	0.03913
3916.45185	0.03845
3915.16608	0.03784
3913.88031	0.03755
3912.59454	0.03755
3911.30877	0.03755
3910.02300	0.03736
3908.73723	0.03714
3907.45146	0.03724
3906.16570	0.03779
3904.87993	0.03851
3903.59416	0.03894
3902.30839	0.03889
3901.02262	0.03854
3899.73685	0.03817
3898.45108	0.03797
3897.16531	0.03801
3895.87955	0.03819
3894.59378	0.03826
3893.30801	0.03806
3892.02224	0.03768
3890.73647	0.03737
3889.45070	0.03732
3888.16493	0.03760
3886.87916	0.03787
3885.59339	0.03766
3884.30763	0.03691
3883.02186	0.03607
3881.73609	0.03555
3880.45032	0.03527
3879.16455	0.03496
3877.87878	0.03467
3876.59301	0.03468
3875.30724	0.03508
3874.02148	0.03564
3872.73571	0.03615
3871.44994	0.03655
3870.16417	0.03669
3868.87840	0.03649
3867.59263	0.03612
3866.30686	0.03573
3865.02109	0.03518
3863.73532	0.03439
3862.44956	0.03362
3861.16379	0.03324
3859.87802	0.03336
3858.59225	0.03390
3857.30648	0.03479
3856.02071	0.03591
3854.73494	0.03688
3853.44917	0.03729
3852.16341	0.03723
3850.87764	0.03726
3849.59187	0.03764
3848.30610	0.03799
3847.02033	0.03790
3845.73456	0.03742
3844.44879	0.03689
3843.16302	0.03646
3841.87725	0.03607
3840.59149	0.03577
3839.30572	0.03578
3838.01995	0.03611
3836.73418	0.03649
3835.44841	0.03671
3834.16264	0.03685
3832.87687	0.03705
3831.59110	0.03727
3830.30534	0.03731
3829.01957	0.03698
3827.73380	0.03630
3826.44803	0.03552
3825.16226	0.03500
3823.87649	0.03501
3822.59072	0.03533
3821.30495	0.03537
3820.01918	0.03487
3818.73342	0.03431
3817.44765	0.03426
3816.16188	0.03465
3814.87611	0.03506
3813.59034	0.03540
3812.30457	0.03567
3811.01880	0.03573
3809.73303	0.03550
3808.44726	0.03515
3807.16150	0.03477
3805.87573	0.03442
3804.58996	0.03440
3803.30419	0.03485
3802.01842	0.03536
3800.73265	0.03538
3799.44688	0.03491
3798.16111	0.03436
3796.87535	0.03388
3795.58958	0.03330
3794.30381	0.03255
3793.01804	0.03175
3791.73227	0.03114
3790.44650	0.03086
3789.16073	0.03097
3787.87496	0.03136
3786.58919	0.03190
3785.30343	0.03257
3784.01766	0.03334
3782.73189	0.03415
3781.44612	0.03486
3780.16035	0.03540
3778.87458	0.03574
3777.58881	0.03581
3776.30304	0.03551
3775.01728	0.03474
3773.73151	0.03365
3772.44574	0.03268
3771.15997	0.03224
3769.87420	0.03242
3768.58843	0.03305
3767.30266	0.03398
3766.01689	0.03505
3764.73112	0.03602
3763.44536	0.03657
3762.15959	0.03646
3760.87382	0.03571
3759.58805	0.03459
3758.30228	0.03363
3757.01651	0.03319
3755.73074	0.03342
3754.44497	0.03412
3753.15921	0.03488
3751.87344	0.03529
3750.58767	0.03532
3749.30190	0.03517
3748.01613	0.03507
3746.73036	0.03525
3745.44459	0.03551
3744.15882	0.03527
3742.87305	0.03440
3741.58729	0.03345
3740.30152	0.03285
3739.01575	0.03268
3737.72998	0.03285
3736.44421	0.03316
3735.15844	0.03328
3733.87267	0.03310
3732.58690	0.03276
3731.30114	0.03248
3730.01537	0.03241
3728.72960	0.03265
3727.44383	0.03311
3726.15806	0.03372
3724.87229	0.03442
3723.58652	0.03506
3722.30075	0.03528
3721.01498	0.03493
3719.72922	0.03421
3718.44345	0.03350
3717.15768	0.03304
3715.87191	0.03305
3714.58614	0.03362
3713.30037	0.03445
3712.01460	0.03493
3710.72883	0.03456
3709.44307	0.03342
3708.15730	0.03207
3706.87153	0.03114
3705.58576	0.03093
3704.29999	0.03127
3703.01422	0.03171
3701.72845	0.03194
3700.44268	0.03195
3699.15691	0.03186
3697.87115	0.03183
3696.58538	0.03187
3695.29961	0.03193
3694.01384	0.03199
3692.72807	0.03214
3691.44230	0.03243
3690.15653	0.03269
3688.87076	0.03263
3687.58500	0.03218
3686.29923	0.03179
3685.01346	0.03200
3683.72769	0.03270
3682.44192	0.03329
3681.15615	0.03336
3679.87038	0.03292
3678.58461	0.03229
3677.29884	0.03173
3676.01308	0.03120
3674.72731	0.03065
3673.44154	0.03045
3672.15577	0.03088
3670.87000	0.03156
3669.58423	0.03181
3668.29846	0.03154
3667.01269	0.03112
3665.72693	0.03083
3664.44116	0.03064
3663.15539	0.03037
3661.86962	0.02985
3660.58385	0.02921
3659.29808	0.02886
3658.01231	0.02917
3656.72654	0.03007
3655.44077	0.03115
3654.15501	0.03204
3652.86924	0.03256
3651.58347	0.03255
3650.29770	0.03197
3649.01193	0.03112
3647.72616	0.03046
3646.44039	0.03022
3645.15462	0.03027
3643.86886	0.03025
3642.58309	0.02992
3641.29732	0.02927
3640.01155	0.02856
3638.72578	0.02810
3637.44001	0.02797
3636.15424	0.02798
3634.86847	0.02790
3633.58270	0.02778
3632.29694	0.02796
3631.01117	0.02869
3629.72540	0.02972
3628.43963	0.03059
3627.15386	0.03117
3625.86809	0.03164
3624.58232	0.03200
3623.29655	0.03206
3622.01079	0.03178
3620.72502	0.03128
3619.43925	0.03066
3618.15348	0.03008
3616.86771	0.02977
3615.58194	0.02977
3614.29617	0.02985
3613.01040	0.02975
3611.72463	0.02950
3610.43887	0.02929
3609.15310	0.02919
3607.86733	0.02913
3606.58156	0.02914
3605.29579	0.02928
3604.01002	0.02948
3602.72425	0.02953
3601.43848	0.02938
3600.15272	0.02922
3598.86695	0.02930
3597.58118	0.02961
3596.29541	0.02987
3595.00964	0.02971
3593.72387	0.02911
3592.43810	0.02846
3591.15233	0.02830
3589.86656	0.02878
3588.58080	0.02946
3587.29503	0.02967
3586.00926	0.02912
3584.72349	0.02806
3583.43772	0.02710
3582.15195	0.02673
3580.86618	0.02711
3579.58041	0.02795
3578.29464	0.02870
3577.00888	0.02897
3575.72311	0.02877
3574.43734	0.02847
3573.15157	0.02836
3571.86580	0.02847
3570.58003	0.02864
3569.29426	0.02867
3568.00849	0.02847
3566.72273	0.02812
3565.43696	0.02782
3564.15119	0.02770
3562.86542	0.02770
3561.57965	0.02759
3560.29388	0.02730
3559.00811	0.02693
3557.72234	0.02661
3556.43657	0.02640
3555.15081	0.02623
3553.86504	0.02610
3552.57927	0.02609
3551.29350	0.02634
3550.00773	0.02694
3548.72196	0.02781
3547.43619	0.02871
3546.15042	0.02928
3544.86466	0.02925
3543.57889	0.02864
3542.29312	0.02779
3541.00735	0.02706
3539.72158	0.02651
3538.43581	0.02603
3537.15004	0.02563
3535.86427	0.02543
3534.57850	0.02543
3533.29274	0.02540
3532.00697	0.02520
3530.72120	0.02499
3529.43543	0.02504
3528.14966	0.02536
3526.86389	0.02573
3525.57812	0.02590
3524.29235	0.02570
3523.00659	0.02515
3521.72082	0.02458
3520.43505	0.02443
3519.14928	0.02484
3517.86351	0.02551
3516.57774	0.02597
3515.29197	0.02599
3514.00620	0.02571
3512.72043	0.02540
3511.43467	0.02524
3510.14890	0.02523
3508.86313	0.02525
3507.57736	0.02523
3506.29159	0.02518
3505.00582	0.02516
3503.72005	0.02518
3502.43428	0.02523
3501.14852	0.02529
3499.86275	0.02533
3498.57698	0.02522
3497.29121	0.02488
3496.00544	0.02443
3494.71967	0.02412
3493.43390	0.02406
3492.14813	0.02416
3490.86236	0.02433
3489.57660	0.02453
3488.29083	0.02475
3487.00506	0.02498
3485.71929	0.02520
3484.43352	0.02535
3483.14775	0.02527
3481.86198	0.02490
3480.57621	0.02447
3479.29045	0.02443
3478.00468	0.02494
3476.71891	0.02561
3475.43314	0.02590
3474.14737	0.02557
3472.86160	0.02488
3471.57583	0.02427
3470.29006	0.02404
3469.00429	0.02423
3467.71853	0.02466
3466.43276	0.02503
3465.14699	0.02495
3463.86122	0.02426
3462.57545	0.02319
3461.28968	0.02230
3460.00391	0.02207
3458.71814	0.02245
3457.43238	0.02293
3456.14661	0.02306
3454.86084	0.02291
3453.57507	0.02292
3452.28930	0.02331
3451.00353	0.02387
3449.71776	0.02420
3448.43199	0.02419
3447.14622	0.02407
3445.86046	0.02402
3444.57469	0.02397
3443.28892	0.02375
3442.00315	0.02340
3440.71738	0.02314
3439.43161	0.02299
3438.14584	0.02277
3436.86007	0.02235
3435.57431	0.02195
3434.28854	0.02192
3433.00277	0.02229
3431.71700	0.02269
3430.43123	0.02274
3429.14546	0.02247
3427.85969	0.02217
3426.57392	0.02204
3425.28815	0.02208
3424.00239	0.02223
3422.71662	0.02251
3421.43085	0.02288
3420.14508	0.02324
3418.85931	0.02347
3417.57354	0.02357
3416.28777	0.02366
3415.00200	0.02385
3413.71624	0.02411
3412.43047	0.02434
3411.14470	0.02444
3409.85893	0.02447
3408.57316	0.02451
3407.28739	0.02448
3406.00162	0.02415
3404.71585	0.02346
3403.43008	0.02263
3402.14432	0.02198
3400.85855	0.02166
3399.57278	0.02158
3398.28701	0.02167
3397.00124	0.02193
3395.71547	0.02246
3394.42970	0.02318
3393.14393	0.02383
3391.85817	0.02410
3390.57240	0.02389
3389.28663	0.02342
3388.00086	0.02304
3386.71509	0.02293
3385.42932	0.02293
3384.14355	0.02278
3382.85778	0.02247
3381.57201	0.02221
3380.28625	0.02218
3379.00048	0.02228
3377.71471	0.02235
3376.42894	0.02236
3375.14317	0.02245
3373.85740	0.02268
3372.57163	0.02299
3371.28586	0.02322
3370.00010	0.02325
3368.71433	0.02297
3367.42856	0.02241
3366.14279	0.02182
3364.85702	0.02154
3363.57125	0.02179
3362.28548	0.02248
3360.99971	0.02332
3359.71394	0.02397
3358.42818	0.02423
3357.14241	0.02412
3355.85664	0.02387
3354.57087	0.02374
3353.28510	0.02379
3351.99933	0.02384
3350.71356	0.02374
3349.42779	0.02358
3348.14202	0.02350
3346.85626	0.02352
3345.57049	0.02353
3344.28472	0.02346
3342.99895	0.02331
3341.71318	0.02307
3340.42741	0.02273
3339.14164	0.02231
3337.85587	0.02193
3336.57011	0.02175
3335.28434	0.02186
3333.99857	0.02225
3332.71280	0.02287
3331.42703	0.02362
3330.14126	0.02437
3328.85549	0.02488
3327.56972	0.02497
3326.28395	0.02459
3324.99819	0.02390
3323.71242	0.02322
3322.42665	0.02279
3321.14088	0.02262
3319.85511	0.02252
3318.56934	0.02232
3317.28357	0.02206
3315.99780	0.02192
3314.71204	0.02205
3313.42627	0.02238
3312.14050	0.02271
3310.85473	0.02288
3309.56896	0.02298
3308.28319	0.02325
3306.99742	0.02380
3305.71165	0.02437
3304.42588	0.02458
3303.14012	0.02436
3301.85435	0.02397
3300.56858	0.02377
3299.28281	0.02380
3297.99704	0.02390
3296.71127	0.02399
3295.42550	0.02414
3294.13973	0.02443
3292.85397	0.02481
3291.56820	0.02508
3290.28243	0.02508
3288.99666	0.02482
3287.71089	0.02447
3286.42512	0.02422
3285.13935	0.02409
3283.85358	0.02398
3282.56781	0.02386
3281.28205	0.02377
3279.99628	0.02371
3278.71051	0.02361
3277.42474	0.02345
3276.13897	0.02335
3274.85320	0.02345
3273.56743	0.02370
3272.28166	0.02389
3270.99590	0.02386
3269.71013	0.02367
3268.42436	0.02346
3267.13859	0.02321
3265.85282	0.02285
3264.56705	0.02247
3263.28128	0.02235
3261.99551	0.02264
3260.70974	0.02320
3259.42398	0.02374
3258.13821	0.02409
3256.85244	0.02420
3255.56667	0.02409
3254.28090	0.02380
3252.99513	0.02342
3251.70936	0.02310
3250.42359	0.02297
3249.13783	0.02300
3247.85206	0.02302
3246.56629	0.02283
3245.28052	0.02246
3243.99475	0.02207
3242.70898	0.02180
3241.42321	0.02170
3240.13744	0.02173
3238.85167	0.02187
3237.56591	0.02209
3236.28014	0.02238
3234.99437	0.02271
3233.70860	0.02299
3232.42283	0.02301
3231.13706	0.02269
3229.85129	0.02222
3228.56552	0.02188
3227.27976	0.02182
3225.99399	0.02202
3224.70822	0.02239
3223.42245	0.02276
3222.13668	0.02293
3220.85091	0.02286
3219.56514	0.02274
3218.27937	0.02282
3216.99360	0.02311
3215.70784	0.02344
3214.42207	0.02367
3213.13630	0.02377
3211.85053	0.02379
3210.56476	0.02370
3209.27899	0.02348
3207.99322	0.02308
3206.70745	0.02253
3205.42169	0.02194
3204.13592	0.02156
3202.85015	0.02161
3201.56438	0.02202
3200.27861	0.02243
3198.99284	0.02248
3197.70707	0.02218
3196.42130	0.02186
3195.13553	0.02190
3193.84977	0.02228
3192.56400	0.02268
3191.27823	0.02279
3189.99246	0.02263
3188.70669	0.02243
3187.42092	0.02243
3186.13515	0.02267
3184.84938	0.02301
3183.56362	0.02335
3182.27785	0.02364
3180.99208	0.02383
3179.70631	0.02389
3178.42054	0.02381
3177.13477	0.02368
3175.84900	0.02363
3174.56323	0.02367
3173.27746	0.02362
3171.99170	0.02330
3170.70593	0.02276
3169.42016	0.02234
3168.13439	0.02234
3166.84862	0.02277
3165.56285	0.02330
3164.27708	0.02364
3162.99131	0.02376
3161.70555	0.02381
3160.41978	0.02393
3159.13401	0.02403
3157.84824	0.02395
3156.56247	0.02364
3155.27670	0.02324
3153.99093	0.02295
3152.70516	0.02283
3151.41939	0.02281
3150.13363	0.02280
3148.84786	0.02286
3147.56209	0.02306
3146.27632	0.02333
3144.99055	0.02353
3143.70478	0.02357
3142.41901	0.02347
3141.13324	0.02334
3139.84748	0.02327
3138.56171	0.02333
3137.27594	0.02353
3135.99017	0.02371
3134.70440	0.02367
3133.41863	0.02333
3132.13286	0.02284
3130.84709	0.02241
3129.56132	0.02209
3128.27556	0.02180
3126.98979	0.02153
3125.70402	0.02140
3124.41825	0.02152
3123.13248	0.02177
3121.84671	0.02194
3120.56094	0.02195
3119.27517	0.02194
3117.98940	0.02203
3116.70364	0.02218
3115.41787	0.02227
3114.13210	0.02222
3112.84633	0.02210
3111.56056	0.02200
3110.27479	0.02191
3108.98902	0.02184
3107.70325	0.02183
3106.41749	0.02183
3105.13172	0.02178
3103.84595	0.02163
3102.56018	0.02148
3101.27441	0.02146
3099.98864	0.02156
3098.70287	0.02167
3097.41710	0.02174
3096.13133	0.02180
3094.84557	0.02192
3093.55980	0.02216
3092.27403	0.02249
3090.98826	0.02276
3089.70249	0.02282
3088.41672	0.02272
3087.13095	0.02265
3085.84518	0.02274
3084.55942	0.02289
3083.27365	0.02292
3081.98788	0.02278
3080.70211	0.02258
3079.41634	0.02246
3078.13057	0.02244
3076.84480	0.02245
3075.55903	0.02247
3074.27326	0.02250
3072.98750	0.02256
3071.70173	0.02262
3070.41596	0.02268
3069.13019	0.02276
3067.84442	0.02287
3066.55865	0.02292
3065.27288	0.02280
3063.98711	0.02248
3062.70135	0.02205
3061.41558	0.02167
3060.12981	0.02151
3058.84404	0.02162
3057.55827	0.02189
3056.27250	0.02209
3054.98673	0.02214
3053.70096	0.02212
3052.41519	0.02217
3051.12943	0.02233
3049.84366	0.02251
3048.55789	0.02260
3047.27212	0.02257
3045.98635	0.02239
3044.70058	0.02206
3043.41481	0.02168
3042.12904	0.02143
3040.84328	0.02141
3039.55751	0.02154
3038.27174	0.02163
3036.98597	0.02158
3035.70020	0.02145
3034.41443	0.02131
3033.12866	0.02121
3031.84289	0.02110
3030.55712	0.02098
3029.27136	0.02092
3027.98559	0.02096
3026.69982	0.02107
3025.41405	0.02115
3024.12828	0.02112
3022.84251	0.02101
3021.55674	0.02091
3020.27097	0.02091
3018.98521	0.02104
3017.69944	0.02120
3016.41367	0.02132
3015.12790	0.02138
3013.84213	0.02148
3012.55636	0.02165
3011.27059	0.02180
3009.98482	0.02178
3008.69905	0.02148
3007.41329	0.02092
3006.12752	0.02026
3004.84175	0.01979
3003.55598	0.01973
3002.27021	0.02004
3000.98444	0.02043
2999.69867	0.02059
2998.41290	0.02050
2997.12714	0.02043
2995.84137	0.02061
2994.55560	0.02091
2993.26983	0.02107
2991.98406	0.02100
2990.69829	0.02086
2989.41252	0.02085
2988.12675	0.02096
2986.84098	0.02096
2985.55522	0.02079
2984.26945	0.02052
2982.98368	0.02027
2981.69791	0.02010
2980.41214	0.02006
2979.12637	0.02026
2977.84060	0.02070
2976.55483	0.02119
2975.26907	0.02158
2973.98330	0.02185
2972.69753	0.02211
2971.41176	0.02241
2970.12599	0.02270
2968.84022	0.02286
2967.55445	0.02282
2966.26868	0.02275
2964.98291	0.02288
2963.69715	0.02327
2962.41138	0.02374
2961.12561	0.02410
2959.83984	0.02437
2958.55407	0.02473
2957.26830	0.02524
2955.98253	0.02577
2954.69676	0.02616
2953.41100	0.02632
2952.12523	0.02633
2950.83946	0.02627
2949.55369	0.02626
2948.26792	0.02630
2946.98215	0.02634
2945.69638	0.02625
2944.41061	0.02600
2943.12484	0.02567
2941.83908	0.02538
2940.55331	0.02521
2939.26754	0.02523
2937.98177	0.02542
2936.69600	0.02567
2935.41023	0.02583
2934.12446	0.02584
2932.83869	0.02577
2931.55293	0.02580
2930.26716	0.02597
2928.98139	0.02618
2927.69562	0.02629
2926.40985	0.02627
2925.12408	0.02620
2923.83831	0.02614
2922.55254	0.02610
2921.26677	0.02612
2919.98101	0.02623
2918.69524	0.02643
2917.40947	0.02662
2916.12370	0.02676
2914.83793	0.02685
2913.55216	0.02694
2912.26639	0.02700
2910.98062	0.02697
2909.69486	0.02679
2908.40909	0.02649
2907.12332	0.02618
2905.83755	0.02595
2904.55178	0.02589
2903.26601	0.02596
2901.98024	0.02606
2900.69447	0.02607
2899.40870	0.02593
2898.12294	0.02572
2896.83717	0.02553
2895.55140	0.02538
2894.26563	0.02521
2892.97986	0.02499
2891.69409	0.02475
2890.40832	0.02453
2889.12255	0.02437
2887.83678	0.02425
2886.55102	0.02412
2885.26525	0.02401
2883.97948	0.02400
2882.69371	0.02409
2881.40794	0.02418
2880.12217	0.02418
2878.83640	0.02411
2877.55063	0.02410
2876.26487	0.02424
2874.97910	0.02448
2873.69333	0.02476
2872.40756	0.02498
2871.12179	0.02509
2869.83602	0.02513
2868.55025	0.02519
2867.26448	0.02527
2865.97871	0.02532
2864.69295	0.02528
2863.40718	0.02514
2862.12141	0.02495
2860.83564	0.02475
2859.54987	0.02460
2858.26410	0.02445
2856.97833	0.02424
2855.69256	0.02402
2854.40680	0.02391
2853.12103	0.02395
2851.83526	0.02406
2850.54949	0.02415
2849.26372	0.02418
2847.97795	0.02423
2846.69218	0.02435
2845.40641	0.02452
2844.12064	0.02463
2842.83488	0.02457
2841.54911	0.02428
2840.26334	0.02384
2838.97757	0.02337
2837.69180	0.02304
2836.40603	0.02287
2835.12026	0.02278
2833.83449	0.02265
2832.54873	0.02251
2831.26296	0.02252
2829.97719	0.02274
2828.69142	0.02301
2827.40565	0.02309
2826.11988	0.02289
2824.83411	0.02248
2823.54834	0.02203
2822.26257	0.02159
2820.97681	0.02121
2819.69104	0.02092
2818.40527	0.02074
2817.11950	0.02064
2815.83373	0.02065
2814.54796	0.02076
2813.26219	0.02091
2811.97642	0.02098
2810.69066	0.02089
2809.40489	0.02070
2808.11912	0.02053
2806.83335	0.02045
2805.54758	0.02041
2804.26181	0.02038
2802.97604	0.02041
2801.69027	0.02051
2800.40450	0.02060
2799.11874	0.02051
2797.83297	0.02024
2796.54720	0.01994
2795.26143	0.01981
2793.97566	0.01991
2792.68989	0.02010
2791.40412	0.02022
2790.11835	0.02022
2788.83259	0.02019
2787.54682	0.02026
2786.26105	0.02040
2784.97528	0.02051
2783.68951	0.02047
2782.40374	0.02028
2781.11797	0.02005
2779.83220	0.01987
2778.54643	0.01975
2777.26067	0.01965
2775.97490	0.01955
2774.68913	0.01948
2773.40336	0.01950
2772.11759	0.01963
2770.83182	0.01983
2769.54605	0.01998
2768.26028	0.01994
2766.97452	0.01976
2765.68875	0.01954
2764.40298	0.01940
2763.11721	0.01931
2761.83144	0.01924
2760.54567	0.01919
2759.25990	0.01913
2757.97413	0.01904
2756.68836	0.01895
2755.40260	0.01894
2754.11683	0.01903
2752.83106	0.01913
2751.54529	0.01914
2750.25952	0.01909
2748.97375	0.01907
2747.68798	0.01908
2746.40221	0.01914
2745.11645	0.01927
2743.83068	0.01947
2742.54491	0.01965
2741.25914	0.01968
2739.97337	0.01957
2738.68760	0.01943
2737.40183	0.01938
2736.11606	0.01945
2734.83029	0.01961
2733.54453	0.01974
2732.25876	0.01975
2730.97299	0.01957
2729.68722	0.01925
2728.40145	0.01891
2727.11568	0.01867
2725.82991	0.01859
2724.54414	0.01861
2723.25838	0.01862
2721.97261	0.01851
2720.68684	0.01832
2719.40107	0.01819
2718.11530	0.01820
2716.82953	0.01828
2715.54376	0.01837
2714.25799	0.01847
2712.97222	0.01860
2711.68646	0.01871
2710.40069	0.01877
2709.11492	0.01877
2707.82915	0.01874
2706.54338	0.01869
2705.25761	0.01868
2703.97184	0.01872
2702.68607	0.01876
2701.40031	0.01867
2700.11454	0.01841
2698.82877	0.01810
2697.54300	0.01791
2696.25723	0.01795
2694.97146	0.01813
2693.68569	0.01824
2692.39992	0.01820
2691.11415	0.01806
2689.82839	0.01789
2688.54262	0.01773
2687.25685	0.01760
2685.97108	0.01757
2684.68531	0.01764
2683.39954	0.01773
2682.11377	0.01779
2680.82800	0.01788
2679.54224	0.01803
2678.25647	0.01819
2676.97070	0.01827
2675.68493	0.01823
2674.39916	0.01810
2673.11339	0.01793
2671.82762	0.01779
2670.54185	0.01771
2669.25608	0.01770
2667.97032	0.01773
2666.68455	0.01777
2665.39878	0.01776
2664.11301	0.01769
2662.82724	0.01755
2661.54147	0.01740
2660.25570	0.01727
2658.96993	0.01722
2657.68417	0.01725
2656.39840	0.01737
2655.11263	0.01752
2653.82686	0.01758
2652.54109	0.01749
2651.25532	0.01730
2649.96955	0.01714
2648.68378	0.01710
2647.39801	0.01718
2646.11225	0.01730
2644.82648	0.01739
2643.54071	0.01743
2642.25494	0.01744
2640.96917	0.01747
2639.68340	0.01746
2638.39763	0.01734
2637.11186	0.01708
2635.82609	0.01682
2634.54033	0.01674
2633.25456	0.01685
2631.96879	0.01695
2630.68302	0.01682
2629.39725	0.01645
2628.11148	0.01601
2626.82571	0.01576
2625.53994	0.01583
2624.25418	0.01618
2622.96841	0.01659
2621.68264	0.01680
2620.39687	0.01669
2619.11110	0.01641
2617.82533	0.01615
2616.53956	0.01602
2615.25379	0.01596
2613.96802	0.01593
2612.68226	0.01597
2611.39649	0.01606
2610.11072	0.01613
2608.82495	0.01616
2607.53918	0.01615
2606.25341	0.01616
2604.96764	0.01625
2603.68187	0.01639
2602.39611	0.01647
2601.11034	0.01632
2599.82457	0.01593
2598.53880	0.01550
2597.25303	0.01524
2595.96726	0.01525
2594.68149	0.01542
2593.39572	0.01559
2592.10995	0.01568
2590.82419	0.01563
2589.53842	0.01539
2588.25265	0.01503
2586.96688	0.01470
2585.68111	0.01465
2584.39534	0.01493
2583.10957	0.01534
2581.82380	0.01559
2580.53804	0.01554
2579.25227	0.01529
2577.96650	0.01502
2576.68073	0.01480
2575.39496	0.01458
2574.10919	0.01426
2572.82342	0.01389
2571.53765	0.01367
2570.25188	0.01374
2568.96612	0.01409
2567.68035	0.01454
2566.39458	0.01496
2565.10881	0.01529
2563.82304	0.01551
2562.53727	0.01559
2561.25150	0.01548
2559.96573	0.01519
2558.67997	0.01490
2557.39420	0.01480
2556.10843	0.01495
2554.82266	0.01517
2553.53689	0.01528
2552.25112	0.01524
2550.96535	0.01503
2549.67958	0.01456
2548.39381	0.01381
2547.10805	0.01307
2545.82228	0.01277
2544.53651	0.01306
2543.25074	0.01372
2541.96497	0.01443
2540.67920	0.01502
2539.39343	0.01537
2538.10766	0.01542
2536.82190	0.01518
2535.53613	0.01482
2534.25036	0.01451
2532.96459	0.01429
2531.67882	0.01416
2530.39305	0.01418
2529.10728	0.01441
2527.82151	0.01471
2526.53574	0.01478
2525.24998	0.01442
2523.96421	0.01380
2522.67844	0.01334
2521.39267	0.01335
2520.10690	0.01371
2518.82113	0.01404
2517.53536	0.01406
2516.24959	0.01384
2514.96383	0.01359
2513.67806	0.01334
2512.39229	0.01301
2511.10652	0.01261
2509.82075	0.01230
2508.53498	0.01217
2507.24921	0.01219
2505.96344	0.01239
2504.67767	0.01285
2503.39191	0.01351
2502.10614	0.01410
2500.82037	0.01436
2499.53460	0.01424
2498.24883	0.01395
2496.96306	0.01373
2495.67729	0.01367
2494.39152	0.01370
2493.10576	0.01373
2491.81999	0.01378
2490.53422	0.01383
2489.24845	0.01387
2487.96268	0.01389
2486.67691	0.01391
2485.39114	0.01388
2484.10537	0.01379
2482.81960	0.01369
2481.53384	0.01367
2480.24807	0.01372
2478.96230	0.01375
2477.67653	0.01370
2476.39076	0.01358
2475.10499	0.01349
2473.81922	0.01349
2472.53345	0.01361
2471.24769	0.01373
2469.96192	0.01364
2468.67615	0.01326
2467.39038	0.01278
2466.10461	0.01247
2464.81884	0.01251
2463.53307	0.01286
2462.24730	0.01337
2460.96153	0.01385
2459.67577	0.01417
2458.39000	0.01425
2457.10423	0.01406
2455.81846	0.01367
2454.53269	0.01328
2453.24692	0.01310
2451.96115	0.01318
2450.67538	0.01333
2449.38962	0.01332
2448.10385	0.01308
2446.81808	0.01282
2445.53231	0.01272
2444.24654	0.01279
2442.96077	0.01295
2441.67500	0.01317
2440.38923	0.01339
2439.10346	0.01346
2437.81770	0.01327
2436.53193	0.01302
2435.24616	0.01302
2433.96039	0.01339
2432.67462	0.01386
2431.38885	0.01403
2430.10308	0.01379
2428.81731	0.01336
2427.53155	0.01309
2426.24578	0.01309
2424.96001	0.01319
2423.67424	0.01318
2422.38847	0.01305
2421.10270	0.01286
2419.81693	0.01265
2418.53116	0.01246
2417.24539	0.01244
2415.95963	0.01266
2414.67386	0.01295
2413.38809	0.01309
2412.10232	0.01305
2410.81655	0.01301
2409.53078	0.01305
2408.24501	0.01307
2406.95924	0.01300
2405.67347	0.01285
2404.38771	0.01267
2403.10194	0.01246
2401.81617	0.01229
2400.53040	0.01232
2399.24463	0.01254
2397.95886	0.01279
2396.67309	0.01289
2395.38732	0.01284
2394.10156	0.01272
2392.81579	0.01261
2391.53002	0.01251
2390.24425	0.01240
2388.95848	0.01235
2387.67271	0.01238
2386.38694	0.01250
2385.10117	0.01267
2383.81540	0.01288
2382.52964	0.01308
2381.24387	0.01316
2379.95810	0.01309
2378.67233	0.01293
2377.38656	0.01280
2376.10079	0.01269
2374.81502	0.01249
2373.52925	0.01220
2372.24349	0.01193
2370.95772	0.01188
2369.67195	0.01207
2368.38618	0.01243
2367.10041	0.01279
2365.81464	0.01303
2364.52887	0.01309
2363.24310	0.01303
2361.95733	0.01300
2360.67157	0.01309
2359.38580	0.01313
2358.10003	0.01307
2356.81426	0.01296
2355.52849	0.01286
2354.24272	0.01278
2352.95695	0.01265
2351.67118	0.01249
2350.38542	0.01234
2349.09965	0.01219
2347.81388	0.01208
2346.52811	0.01220
2345.24234	0.01252
2343.95657	0.01276
2342.67080	0.01279
2341.38503	0.01282
2340.09926	0.01289
2338.81350	0.01268
2337.52773	0.01234
2336.24196	0.01255
2334.95619	0.01316
2333.67042	0.01336
2332.38465	0.01320
2331.09888	0.01338
2329.81311	0.01354
2328.52735	0.01330
2327.24158	0.01347
2325.95581	0.01392
2324.67004	0.01398
2323.38427	0.01405
2322.09850	0.01425
2320.81273	0.01408
2319.52696	0.01396
2318.24119	0.01385
2316.95543	0.01351
2315.66966	0.01340
2314.38389	0.01353
2313.09812	0.01365
2311.81235	0.01377
2310.52658	0.01368
2309.24081	0.01344
2307.95504	0.01316
2306.66928	0.01281
2305.38351	0.01255
2304.09774	0.01246
2302.81197	0.01257
2301.52620	0.01278
2300.24043	0.01288
2298.95466	0.01278
2297.66889	0.01259
2296.38312	0.01249
2295.09736	0.01255
2293.81159	0.01260
2292.52582	0.01247
2291.24005	0.01211
2289.95428	0.01171
2288.66851	0.01150
2287.38274	0.01152
2286.09697	0.01167
2284.81121	0.01183
2283.52544	0.01199
2282.23967	0.01212
2280.95390	0.01213
2279.66813	0.01195
2278.38236	0.01167
2277.09659	0.01151
2275.81082	0.01158
2274.52505	0.01185
2273.23929	0.01221
2271.95352	0.01255
2270.66775	0.01285
2269.38198	0.01306
2268.09621	0.01314
2266.81044	0.01297
2265.52467	0.01248
2264.23890	0.01181
2262.95314	0.01129
2261.66737	0.01122
2260.38160	0.01153
2259.09583	0.01190
2257.81006	0.01203
2256.52429	0.01189
2255.23852	0.01164
2253.95275	0.01135
2252.66698	0.01095
2251.38122	0.01046
2250.09545	0.01006
2248.80968	0.00988
2247.52391	0.00980
2246.23814	0.00962
2244.95237	0.00938
2243.66660	0.00927
2242.38083	0.00933
2241.09507	0.00948
2239.80930	0.00978
2238.52353	0.01030
2237.23776	0.01088
2235.95199	0.01123
2234.66622	0.01118
2233.38045	0.01083
2232.09468	0.01035
2230.80891	0.00986
2229.52315	0.00946
2228.23738	0.00929
2226.95161	0.00936
2225.66584	0.00955
2224.38007	0.00979
2223.09430	0.01013
2221.80853	0.01051
2220.52276	0.01078
2219.23700	0.01087
2217.95123	0.01093
2216.66546	0.01096
2215.37969	0.01068
2214.09392	0.00982
2212.80815	0.00848
2211.52238	0.00719
2210.23661	0.00651
2208.95084	0.00663
2207.66508	0.00719
2206.37931	0.00768
2205.09354	0.00791
2203.80777	0.00823
2202.52200	0.00888
2201.23623	0.00956
2199.95046	0.00981
2198.66469	0.00962
2197.37893	0.00932
2196.09316	0.00901
2194.80739	0.00844
2193.52162	0.00749
2192.23585	0.00660
2190.95008	0.00629
2189.66431	0.00664
2188.37854	0.00727
2187.09277	0.00796
2185.80701	0.00878
2184.52124	0.00960
2183.23547	0.00999
2181.94970	0.00968
2180.66393	0.00914
2179.37816	0.00905
2178.09239	0.00945
2176.80662	0.00975
2175.52085	0.00950
2174.23509	0.00893
2172.94932	0.00856
2171.66355	0.00860
2170.37778	0.00889
2169.09201	0.00913
2167.80624	0.00916
2166.52047	0.00887
2165.23470	0.00823
2163.94894	0.00729
2162.66317	0.00624
2161.37740	0.00547
2160.09163	0.00543
2158.80586	0.00617
2157.52009	0.00704
2156.23432	0.00738
2154.94855	0.00708
2153.66278	0.00653
2152.37702	0.00604
2151.09125	0.00566
2149.80548	0.00547
2148.51971	0.00560
2147.23394	0.00609
2145.94817	0.00669
2144.66240	0.00694
2143.37663	0.00656
2142.09087	0.00574
2140.80510	0.00512
2139.51933	0.00513
2138.23356	0.00565
2136.94779	0.00636
2135.66202	0.00708
2134.37625	0.00774
2133.09048	0.00815
2131.80471	0.00817
2130.51895	0.00789
2129.23318	0.00754
2127.94741	0.00734
2126.66164	0.00736
2125.37587	0.00763
2124.09010	0.00806
2122.80433	0.00842
2121.51856	0.00843
2120.23280	0.00806
2118.94703	0.00758
2117.66126	0.00734
2116.37549	0.00745
2115.08972	0.00779
2113.80395	0.00817
2112.51818	0.00849
2111.23241	0.00863
2109.94664	0.00847
2108.66088	0.00803
2107.37511	0.00750
2106.08934	0.00718
2104.80357	0.00729
2103.51780	0.00782
2102.23203	0.00851
2100.94626	0.00895
2099.66049	0.00865
2098.37473	0.00778
2097.08896	0.00664
2095.80319	0.00572
2094.51742	0.00548
2093.23165	0.00591
2091.94588	0.00649
2090.66011	0.00665
2089.37434	0.00629
2088.08857	0.00583
2086.80281	0.00575
2085.51704	0.00615
2084.23127	0.00669
2082.94550	0.00707
2081.65973	0.00722
2080.37396	0.00731
2079.08819	0.00743
2077.80242	0.00753
2076.51666	0.00750
2075.23089	0.00730
2073.94512	0.00697
2072.65935	0.00662
2071.37358	0.00638
2070.08781	0.00623
2068.80204	0.00617
2067.51627	0.00619
2066.23050	0.00629
2064.94474	0.00628
2063.65897	0.00592
2062.37320	0.00525
2061.08743	0.00459
2059.80166	0.00429
2058.51589	0.00432
2057.23012	0.00447
2055.94435	0.00466
2054.65859	0.00506
2053.37282	0.00570
2052.08705	0.00627
2050.80128	0.00633
2049.51551	0.00582
2048.22974	0.00509
2046.94397	0.00463
2045.65820	0.00459
2044.37243	0.00474
2043.08667	0.00466
2041.80090	0.00402
2040.51513	0.00279
2039.22936	0.00127
2037.94359	0.00001
2036.65782	-0.00039
2035.37205	0.00043
2034.08628	0.00232
2032.80052	0.00449
2031.51475	0.00593
2030.22898	0.00601
2028.94321	0.00484
2027.65744	0.00309
2026.37167	0.00158
2025.08590	0.00072
2023.80013	0.00040
2022.51436	0.00023
2021.22860	0.00006
2019.94283	0.00015
2018.65706	0.00083
2017.37129	0.00196
2016.08552	0.00297
2014.79975	0.00337
2013.51398	0.00321
2012.22821	0.00285
2010.94245	0.00256
2009.65668	0.00247
2008.37091	0.00267
2007.08514	0.00319
2005.79937	0.00395
2004.51360	0.00475
2003.22783	0.00533
2001.94206	0.00548
2000.65629	0.00518
1999.37053	0.00463
1998.08476	0.00415
1996.79899	0.00398
1995.51322	0.00418
1994.22745	0.00462
1992.94168	0.00512
1991.65591	0.00539
1990.37014	0.00512
1989.08438	0.00425
1987.79861	0.00320
1986.51284	0.00276
1985.22707	0.00332
1983.94130	0.00448
1982.65553	0.00531
1981.36976	0.00522
1980.08399	0.00440
1978.79822	0.00353
1977.51246	0.00311
1976.22669	0.00315
1974.94092	0.00342
1973.65515	0.00378
1972.36938	0.00427
1971.08361	0.00488
1969.79784	0.00542
1968.51207	0.00578
1967.22631	0.00602
1965.94054	0.00630
1964.65477	0.00674
1963.36900	0.00738
1962.08323	0.00813
1960.79746	0.00874
1959.51169	0.00897
1958.22592	0.00879
1956.94015	0.00836
1955.65439	0.00778
1954.36862	0.00708
1953.08285	0.00629
1951.79708	0.00554
1950.51131	0.00497
1949.22554	0.00468
1947.93977	0.00472
1946.65400	0.00513
1945.36823	0.00582
1944.08247	0.00657
1942.79670	0.00705
1941.51093	0.00711
1940.22516	0.00684
1938.93939	0.00651
1937.65362	0.00633
1936.36785	0.00636
1935.08208	0.00656
1933.79632	0.00684
1932.51055	0.00717
1931.22478	0.00746
1929.93901	0.00760
1928.65324	0.00748
1927.36747	0.00709
1926.08170	0.00653
1924.79593	0.00601
1923.51016	0.00576
1922.22440	0.00586
1920.93863	0.00624
1919.65286	0.00674
1918.36709	0.00720
1917.08132	0.00745
1915.79555	0.00740
1914.50978	0.00714
1913.22401	0.00688
1911.93825	0.00683
1910.65248	0.00705
1909.36671	0.00739
1908.08094	0.00757
1906.79517	0.00742
1905.50940	0.00705
1904.22363	0.00679
1902.93786	0.00690
1901.65209	0.00723
1900.36633	0.00739
1899.08056	0.00719
1897.79479	0.00686
1896.50902	0.00676
1895.22325	0.00700
1893.93748	0.00740
1892.65171	0.00774
1891.36594	0.00794
1890.08018	0.00797
1888.79441	0.00782
1887.50864	0.00756
1886.22287	0.00735
1884.93710	0.00727
1883.65133	0.00727
1882.36556	0.00726
1881.07979	0.00725
1879.79402	0.00726
1878.50826	0.00730
1877.22249	0.00734
1875.93672	0.00741
1874.65095	0.00758
1873.36518	0.00787
1872.07941	0.00815
1870.79364	0.00830
1869.50787	0.00824
1868.22211	0.00804
1866.93634	0.00785
1865.65057	0.00777
1864.36480	0.00779
1863.07903	0.00782
1861.79326	0.00782
1860.50749	0.00780
1859.22172	0.00776
1857.93595	0.00770
1856.65019	0.00764
1855.36442	0.00762
1854.07865	0.00766
1852.79288	0.00771
1851.50711	0.00772
1850.22134	0.00770
1848.93557	0.00768
1847.64980	0.00768
1846.36404	0.00769
1845.07827	0.00770
1843.79250	0.00770
1842.50673	0.00777
1841.22096	0.00797
1839.93519	0.00823
1838.64942	0.00837
1837.36365	0.00831
1836.07788	0.00815
1834.79212	0.00798
1833.50635	0.00790
1832.22058	0.00793
1830.93481	0.00803
1829.64904	0.00816
1828.36327	0.00825
1827.07750	0.00833
1825.79173	0.00836
1824.50597	0.00829
1823.22020	0.00812
1821.93443	0.00794
1820.64866	0.00781
1819.36289	0.00780
1818.07712	0.00789
1816.79135	0.00798
1815.50558	0.00800
1814.21981	0.00795
1812.93405	0.00793
1811.64828	0.00797
1810.36251	0.00804
1809.07674	0.00809
1807.79097	0.00810
1806.50520	0.00808
1805.21943	0.00810
1803.93366	0.00816
1802.64790	0.00828
1801.36213	0.00841
1800.07636	0.00847
1798.79059	0.00843
1797.50482	0.00831
1796.21905	0.00822
1794.93328	0.00823
1793.64751	0.00833
1792.36174	0.00839
1791.07598	0.00833
1789.79021	0.00823
1788.50444	0.00817
1787.21867	0.00818
1785.93290	0.00819
1784.64713	0.00815
1783.36136	0.00809
1782.07559	0.00808
1780.78983	0.00815
1779.50406	0.00825
1778.21829	0.00837
1776.93252	0.00852
1775.64675	0.00869
1774.36098	0.00885
1773.07521	0.00891
1771.78944	0.00879
1770.50367	0.00858
1769.21791	0.00844
1767.93214	0.00838
1766.64637	0.00835
1765.36060	0.00835
1764.07483	0.00845
1762.78906	0.00858
1761.50329	0.00866
1760.21752	0.00865
1758.93176	0.00860
1757.64599	0.00853
1756.36022	0.00843
1755.07445	0.00838
1753.78868	0.00847
1752.50291	0.00866
1751.21714	0.00874
1749.93137	0.00862
1748.64560	0.00839
1747.35984	0.00821
1746.07407	0.00816
1744.78830	0.00821
1743.50253	0.00828
1742.21676	0.00832
1740.93099	0.00834
1739.64522	0.00832
1738.35945	0.00828
1737.07369	0.00830
1735.78792	0.00842
1734.50215	0.00849
1733.21638	0.00833
1731.93061	0.00804
1730.64484	0.00787
1729.35907	0.00786
1728.07330	0.00788
1726.78753	0.00785
1725.50177	0.00781
1724.21600	0.00777
1722.93023	0.00774
1721.64446	0.00778
1720.35869	0.00798
1719.07292	0.00834
1717.78715	0.00868
1716.50138	0.00882
1715.21561	0.00876
1713.92985	0.00862
1712.64408	0.00851
1711.35831	0.00849
1710.07254	0.00854
1708.78677	0.00866
1707.50100	0.00879
1706.21523	0.00889
1704.92946	0.00892
1703.64370	0.00896
1702.35793	0.00915
1701.07216	0.00941
1699.78639	0.00954
1698.50062	0.00957
1697.21485	0.00968
1695.92908	0.00977
1694.64331	0.00966
1693.35754	0.00944
1692.07178	0.00935
1690.78601	0.00938
1689.50024	0.00940
1688.21447	0.00944
1686.92870	0.00960
1685.64293	0.00982
1684.35716	0.00989
1683.07139	0.00972
1681.78563	0.00951
1680.49986	0.00941
1679.21409	0.00940
1677.92832	0.00941
1676.64255	0.00943
1675.35678	0.00940
1674.07101	0.00929
1672.78524	0.00924
1671.49947	0.00935
1670.21371	0.00954
1668.92794	0.00962
1667.64217	0.00958
1666.35640	0.00951
1665.07063	0.00955
1663.78486	0.00968
1662.49909	0.00981
1661.21332	0.00988
1659.92756	0.00989
1658.64179	0.00986
1657.35602	0.00981
1656.07025	0.00989
1654.78448	0.01018
1653.49871	0.01047
1652.21294	0.01046
1650.92717	0.01021
1649.64140	0.01008
1648.35564	0.01024
1647.06987	0.01047
1645.78410	0.01054
1644.49833	0.01045
1643.21256	0.01033
1641.92679	0.01026
1640.64102	0.01021
1639.35525	0.01017
1638.06949	0.01021
1636.78372	0.01031
1635.49795	0.01035
1634.21218	0.01022
1632.92641	0.01004
1631.64064	0.00999
1630.35487	0.01011
1629.06910	0.01029
1627.78333	0.01042
1626.49757	0.01044
1625.21180	0.01040
1623.92603	0.01037
1622.64026	0.01036
1621.35449	0.01036
1620.06872	0.01043
1618.78295	0.01060
1617.49718	0.01077
1616.21142	0.01079
1614.92565	0.01069
1613.63988	0.01065
1612.35411	0.01074
1611.06834	0.01087
1609.78257	0.01096
1608.49680	0.01099
1607.21103	0.01101
1605.92526	0.01104
1604.63950	0.01110
1603.35373	0.01116
1602.06796	0.01121
1600.78219	0.01126
1599.49642	0.01135
1598.21065	0.01148
1596.92488	0.01160
1595.63911	0.01170
1594.35335	0.01179
1593.06758	0.01188
1591.78181	0.01200
1590.49604	0.01216
1589.21027	0.01235
1587.92450	0.01256
1586.63873	0.01273
1585.35296	0.01284
1584.06719	0.01291
1582.78143	0.01298
1581.49566	0.01309
1580.20989	0.01322
1578.92412	0.01341
1577.63835	0.01367
1576.35258	0.01391
1575.06681	0.01400
1573.78104	0.01404
1572.49528	0.01419
1571.20951	0.01446
1569.92374	0.01471
1568.63797	0.01486
1567.35220	0.01495
1566.06643	0.01506
1564.78066	0.01518
1563.49489	0.01531
1562.20912	0.01556
1560.92336	0.01595
1559.63759	0.01632
1558.35182	0.01646
1557.06605	0.01642
1555.78028	0.01644
1554.49451	0.01658
1553.20874	0.01671
1551.92297	0.01677
1550.63721	0.01679
1549.35144	0.01678
1548.06567	0.01677
1546.77990	0.01680
1545.49413	0.01686
1544.20836	0.01693
1542.92259	0.01704
1541.63682	0.01720
1540.35105	0.01727
1539.06529	0.01710
1537.77952	0.01672
1536.49375	0.01640
1535.20798	0.01633
1533.92221	0.01641
1532.63644	0.01644
1531.35067	0.01640
1530.06490	0.01636
1528.77914	0.01636
1527.49337	0.01639
1526.20760	0.01641
1524.92183	0.01648
1523.63606	0.01667
1522.35029	0.01693
1521.06452	0.01710
1519.77875	0.01710
1518.49298	0.01705
1517.20722	0.01708
1515.92145	0.01722
1514.63568	0.01744
1513.34991	0.01774
1512.06414	0.01808
1510.77837	0.01840
1509.49260	0.01877
1508.20683	0.01921
1506.92107	0.01959
1505.63530	0.01975
1504.34953	0.01977
1503.06376	0.01985
1501.77799	0.02007
1500.49222	0.02035
1499.20645	0.02060
1497.92068	0.02082
1496.63491	0.02101
1495.34915	0.02112
1494.06338	0.02122
1492.77761	0.02137
1491.49184	0.02158
1490.20607	0.02176
1488.92030	0.02188
1487.63453	0.02199
1486.34876	0.02214
1485.06299	0.02237
1483.77723	0.02267
1482.49146	0.02302
1481.20569	0.02338
1479.91992	0.02374
1478.63415	0.02407
1477.34838	0.02437
1476.06261	0.02464
1474.77684	0.02496
1473.49108	0.02533
1472.20531	0.02565
1470.91954	0.02586
1469.63377	0.02599
1468.34800	0.02615
1467.06223	0.02642
1465.77646	0.02679
1464.49069	0.02714
1463.20492	0.02740
1461.91916	0.02757
1460.63339	0.02775
1459.34762	0.02805
1458.06185	0.02845
1456.77608	0.02877
1455.49031	0.02892
1454.20454	0.02898
1452.91877	0.02903
1451.63301	0.02909
1450.34724	0.02911
1449.06147	0.02912
1447.77570	0.02916
1446.48993	0.02923
1445.20416	0.02930
1443.91839	0.02930
1442.63262	0.02920
1441.34685	0.02902
1440.06109	0.02889
1438.77532	0.02886
1437.48955	0.02885
1436.20378	0.02874
1434.91801	0.02854
1433.63224	0.02842
1432.34647	0.02850
1431.06070	0.02874
1429.77494	0.02901
1428.48917	0.02930
1427.20340	0.02960
1425.91763	0.02996
1424.63186	0.03034
1423.34609	0.03070
1422.06032	0.03110
1420.77455	0.03154
1419.48878	0.03195
1418.20302	0.03224
1416.91725	0.03241
1415.63148	0.03255
1414.34571	0.03268
1413.05994	0.03273
1411.77417	0.03269
1410.48840	0.03257
1409.20263	0.03240
1407.91687	0.03223
1406.63110	0.03202
1405.34533	0.03176
1404.05956	0.03144
1402.77379	0.03111
1401.48802	0.03077
1400.20225	0.03037
1398.91648	0.02985
1397.63071	0.02925
1396.34495	0.02868
1395.05918	0.02816
1393.77341	0.02762
1392.48764	0.02705
1391.20187	0.02651
1389.91610	0.02604
1388.63033	0.02563
1387.34456	0.02523
1386.05880	0.02480
1384.77303	0.02433
1383.48726	0.02386
1382.20149	0.02343
1380.91572	0.02306
1379.62995	0.02276
1378.34418	0.02248
1377.05841	0.02216
1375.77264	0.02176
1374.48688	0.02127
1373.20111	0.02073
1371.91534	0.02018
1370.62957	0.01965
1369.34380	0.01915
1368.05803	0.01867
1366.77226	0.01824
1365.48649	0.01786
1364.20073	0.01752
1362.91496	0.01715
1361.62919	0.01673
1360.34342	0.01629
1359.05765	0.01590
1357.77188	0.01561
1356.48611	0.01539
1355.20034	0.01522
1353.91457	0.01505
1352.62881	0.01487
1351.34304	0.01466
1350.05727	0.01442
1348.77150	0.01416
1347.48573	0.01391
1346.19996	0.01370
1344.91419	0.01357
1343.62842	0.01351
1342.34266	0.01349
1341.05689	0.01348
1339.77112	0.01343
1338.48535	0.01332
1337.19958	0.01317
1335.91381	0.01300
1334.62804	0.01284
1333.34227	0.01271
1332.05650	0.01262
1330.77074	0.01260
1329.48497	0.01260
1328.19920	0.01259
1326.91343	0.01253
1325.62766	0.01240
1324.34189	0.01224
1323.05612	0.01206
1321.77035	0.01188
1320.48459	0.01175
1319.19882	0.01167
1317.91305	0.01164
1316.62728	0.01163
1315.34151	0.01161
1314.05574	0.01159
1312.76997	0.01157
1311.48420	0.01152
1310.19843	0.01143
1308.91267	0.01133
1307.62690	0.01124
1306.34113	0.01119
1305.05536	0.01117
1303.76959	0.01113
1302.48382	0.01107
1301.19805	0.01100
1299.91228	0.01096
1298.62652	0.01096
1297.34075	0.01096
1296.05498	0.01092
1294.76921	0.01081
1293.48344	0.01065
1292.19767	0.01047
1290.91190	0.01031
1289.62613	0.01017
1288.34036	0.01009
1287.05460	0.01010
1285.76883	0.01019
1284.48306	0.01030
1283.19729	0.01032
1281.91152	0.01024
1280.62575	0.01011
1279.33998	0.01003
1278.05421	0.01001
1276.76845	0.01000
1275.48268	0.00995
1274.19691	0.00983
1272.91114	0.00968
1271.62537	0.00954
1270.33960	0.00943
1269.05383	0.00936
1267.76806	0.00932
1266.48229	0.00933
1265.19653	0.00936
1263.91076	0.00938
1262.62499	0.00936
1261.33922	0.00925
1260.05345	0.00911
1258.76768	0.00896
1257.48191	0.00887
1256.19614	0.00884
1254.91037	0.00886
1253.62461	0.00890
1252.33884	0.00893
1251.05307	0.00892
1249.76730	0.00889
1248.48153	0.00886
1247.19576	0.00886
1245.90999	0.00889
1244.62422	0.00893
1243.33846	0.00893
1242.05269	0.00885
1240.76692	0.00873
1239.48115	0.00862
1238.19538	0.00858
1236.90961	0.00859
1235.62384	0.00862
1234.33807	0.00864
1233.05230	0.00865
1231.76654	0.00865
1230.48077	0.00862
1229.19500	0.00859
1227.90923	0.00856
1226.62346	0.00855
1225.33769	0.00854
1224.05192	0.00853
1222.76615	0.00855
1221.48039	0.00860
1220.19462	0.00865
1218.90885	0.00866
1217.62308	0.00859
1216.33731	0.00846
1215.05154	0.00832
1213.76577	0.00819
1212.48000	0.00809
1211.19423	0.00803
1209.90847	0.00805
1208.62270	0.00811
1207.33693	0.00816
1206.05116	0.00813
1204.76539	0.00805
1203.47962	0.00796
1202.19385	0.00791
1200.90808	0.00794
1199.62232	0.00800
1198.33655	0.00803
1197.05078	0.00798
1195.76501	0.00789
1194.47924	0.00779
1193.19347	0.00772
1191.90770	0.00769
1190.62193	0.00769
1189.33616	0.00770
1188.05040	0.00771
1186.76463	0.00773
1185.47886	0.00777
1184.19309	0.00783
1182.90732	0.00789
1181.62155	0.00791
1180.33578	0.00787
1179.05001	0.00778
1177.76425	0.00768
1176.47848	0.00760
1175.19271	0.00755
1173.90694	0.00752
1172.62117	0.00752
1171.33540	0.00752
1170.04963	0.00751
1168.76386	0.00750
1167.47809	0.00751
1166.19233	0.00754
1164.90656	0.00758
1163.62079	0.00761
1162.33502	0.00765
1161.04925	0.00772
1159.76348	0.00784
1158.47771	0.00799
1157.19194	0.00812
1155.90618	0.00822
1154.62041	0.00832
1153.33464	0.00845
1152.04887	0.00861
1150.76310	0.00878
1149.47733	0.00890
1148.19156	0.00895
1146.90579	0.00896
1145.62002	0.00900
1144.33426	0.00915
1143.04849	0.00942
1141.76272	0.00979
1140.47695	0.01019
1139.19118	0.01059
1137.90541	0.01098
1136.61964	0.01139
1135.33387	0.01186
1134.04811	0.01239
1132.76234	0.01297
1131.47657	0.01360
1130.19080	0.01428
1128.90503	0.01501
1127.61926	0.01581
1126.33349	0.01669
1125.04772	0.01768
1123.76195	0.01879
1122.47619	0.01998
1121.19042	0.02126
1119.90465	0.02258
1118.61888	0.02390
1117.33311	0.02522
1116.04734	0.02654
1114.76157	0.02785
1113.47580	0.02913
1112.19004	0.03033
1110.90427	0.03147
1109.61850	0.03256
1108.33273	0.03365
1107.04696	0.03472
1105.76119	0.03576
1104.47542	0.03670
1103.18965	0.03755
1101.90388	0.03832
1100.61812	0.03905
1099.33235	0.03973
1098.04658	0.04038
1096.76081	0.04102
1095.47504	0.04166
1094.18927	0.04227
1092.90350	0.04278
1091.61773	0.04319
1090.33197	0.04354
1089.04620	0.04389
1087.76043	0.04427
1086.47466	0.04469
1085.18889	0.04515
1083.90312	0.04565
1082.61735	0.04616
1081.33158	0.04669
1080.04581	0.04725
1078.76005	0.04788
1077.47428	0.04861
1076.18851	0.04943
1074.90274	0.05027
1073.61697	0.05108
1072.33120	0.05185
1071.04543	0.05266
1069.75966	0.05353
1068.47390	0.05448
1067.18813	0.05548
1065.90236	0.05649
1064.61659	0.05749
1063.33082	0.05844
1062.04505	0.05935
1060.75928	0.06026
1059.47351	0.06119
1058.18774	0.06215
1056.90198	0.06310
1055.61621	0.06402
1054.33044	0.06490
1053.04467	0.06576
1051.75890	0.06664
1050.47313	0.06757
1049.18736	0.06857
1047.90159	0.06964
1046.61583	0.07070
1045.33006	0.07172
1044.04429	0.07270
1042.75852	0.07367
1041.47275	0.07468
1040.18698	0.07570
1038.90121	0.07670
1037.61544	0.07769
1036.32967	0.07868
1035.04391	0.07966
1033.75814	0.08058
1032.47237	0.08141
1031.18660	0.08215
1029.90083	0.08277
1028.61506	0.08322
1027.32929	0.08347
1026.04352	0.08355
1024.75775	0.08354
1023.47199	0.08352
1022.18622	0.08346
1020.90045	0.08333
1019.61468	0.08305
1018.32891	0.08264
1017.04314	0.08214
1015.75737	0.08154
1014.47160	0.08083
1013.18584	0.08000
1011.90007	0.07902
1010.61430	0.07792
1009.32853	0.07673
1008.04276	0.07549
1006.75699	0.07417
1005.47122	0.07275
1004.18545	0.07123
1002.89968	0.06962
1001.61392	0.06793
1000.32815	0.06618
999.04238	0.06436
997.75661	0.06252
996.47084	0.06069
995.18507	0.05887
993.89930	0.05709
992.61353	0.05534
991.32777	0.05365
990.04200	0.05200
988.75623	0.05039
987.47046	0.04884
986.18469	0.04736
984.89892	0.04598
983.61315	0.04465
982.32738	0.04336
981.04161	0.04212
979.75585	0.04096
978.47008	0.03990
977.18431	0.03892
975.89854	0.03798
974.61277	0.03706
973.32700	0.03618
972.04123	0.03546
970.75546	0.03496
969.46970	0.03470
968.18393	0.03461
966.89816	0.03461
965.61239	0.03469
964.32662	0.03490
963.04085	0.03520
961.75508	0.03547
960.46931	0.03556
959.18354	0.03544
957.89778	0.03515
956.61201	0.03478
955.32624	0.03432
954.04047	0.03376
952.75470	0.03312
951.46893	0.03245
950.18316	0.03183
948.89739	0.03124
947.61163	0.03066
946.32586	0.03005
945.04009	0.02942
943.75432	0.02875
942.46855	0.02807
941.18278	0.02739
939.89701	0.02681
938.61124	0.02633
937.32547	0.02595
936.03971	0.02560
934.75394	0.02523
933.46817	0.02484
932.18240	0.02445
930.89663	0.02408
929.61086	0.02373
928.32509	0.02342
927.03932	0.02317
925.75356	0.02298
924.46779	0.02278
923.18202	0.02251
921.89625	0.02216
920.61048	0.02181
919.32471	0.02154
918.03894	0.02134
916.75317	0.02116
915.46740	0.02096
914.18164	0.02076
912.89587	0.02060
911.61010	0.02043
910.32433	0.02020
909.03856	0.01995
907.75279	0.01976
906.46702	0.01967
905.18125	0.01960
903.89549	0.01947
902.60972	0.01929
901.32395	0.01916
900.03818	0.01910
898.75241	0.01908
897.46664	0.01901
896.18087	0.01885
894.89510	0.01866
893.60933	0.01856
892.32357	0.01856
891.03780	0.01860
889.75203	0.01862
888.46626	0.01863
887.18049	0.01870
885.89472	0.01892
884.60895	0.01933
883.32318	0.01994
882.03742	0.02072
880.75165	0.02157
879.46588	0.02233
878.18011	0.02292
876.89434	0.02334
875.60857	0.02372
874.32280	0.02414
873.03703	0.02455
871.75126	0.02479
870.46550	0.02469
869.17973	0.02427
867.89396	0.02367
866.60819	0.02302
865.32242	0.02240
864.03665	0.02182
862.75088	0.02126
861.46511	0.02070
860.17935	0.02016
858.89358	0.01966
857.60781	0.01927
856.32204	0.01902
855.03627	0.01890
853.75050	0.01881
852.46473	0.01864
851.17896	0.01837
849.89319	0.01808
848.60743	0.01787
847.32166	0.01778
846.03589	0.01775
844.75012	0.01769
843.46435	0.01755
842.17858	0.01736
840.89281	0.01714
839.60704	0.01695
838.32128	0.01685
837.03551	0.01681
835.74974	0.01676
834.46397	0.01666
833.17820	0.01652
831.89243	0.01638
830.60666	0.01626
829.32089	0.01620
828.03512	0.01620
826.74936	0.01621
825.46359	0.01618
824.17782	0.01609
822.89205	0.01600
821.60628	0.01595
820.32051	0.01591
819.03474	0.01586
817.74897	0.01583
816.46321	0.01585
815.17744	0.01590
813.89167	0.01591
812.60590	0.01588
811.32013	0.01585
810.03436	0.01587
808.74859	0.01597
807.46282	0.01608
806.17705	0.01613
804.89129	0.01610
803.60552	0.01600
802.31975	0.01589
801.03398	0.01581
799.74821	0.01581
798.46244	0.01587
797.17667	0.01591
795.89090	0.01584
794.60513	0.01564
793.31937	0.01541
792.03360	0.01528
790.74783	0.01530
789.46206	0.01542
788.17629	0.01554
786.89052	0.01559
785.60475	0.01555
784.31898	0.01542
783.03322	0.01525
781.74745	0.01507
780.46168	0.01495
779.17591	0.01492
777.89014	0.01497
776.60437	0.01504
775.31860	0.01508
774.03283	0.01507
772.74706	0.01502
771.46130	0.01498
770.17553	0.01498
768.88976	0.01502
767.60399	0.01504
766.31822	0.01505
765.03245	0.01502
763.74668	0.01497
762.46091	0.01488
761.17515	0.01478
759.88938	0.01473
758.60361	0.01478
757.31784	0.01489
756.03207	0.01498
754.74630	0.01499
753.46053	0.01492
752.17476	0.01480
750.88899	0.01469
749.60323	0.01461
748.31746	0.01457
747.03169	0.01454
745.74592	0.01449
744.46015	0.01441
743.17438	0.01428
741.88861	0.01413
740.60284	0.01399
739.31708	0.01390
738.03131	0.01386
736.74554	0.01389
735.45977	0.01399
734.17400	0.01412
732.88823	0.01420
731.60246	0.01419
730.31669	0.01412
729.03092	0.01407
727.74516	0.01407
726.45939	0.01412
725.17362	0.01418
723.88785	0.01419
722.60208	0.01417
721.31631	0.01411
720.03054	0.01405
718.74477	0.01401
717.45901	0.01397
716.17324	0.01390
714.88747	0.01380
713.60170	0.01368
712.31593	0.01356
711.03016	0.01348
709.74439	0.01343
708.45862	0.01341
707.17285	0.01343
705.88709	0.01348
704.60132	0.01354
703.31555	0.01357
702.02978	0.01352
700.74401	0.01341
699.45824	0.01329
698.17247	0.01323
696.88670	0.01320
695.60094	0.01318
694.31517	0.01315
693.02940	0.01313
691.74363	0.01315
690.45786	0.01318
689.17209	0.01317
687.88632	0.01309
686.60055	0.01298
685.31478	0.01289
684.02902	0.01286
682.74325	0.01287
681.45748	0.01289
680.17171	0.01287
678.88594	0.01279
677.60017	0.01269
676.31440	0.01262
675.02863	0.01260
673.74287	0.01265
672.45710	0.01273
671.17133	0.01283
669.88556	0.01294
668.59979	0.01298
667.31402	0.01296
666.02825	0.01292
664.74248	0.01279
663.45671	0.01266
662.17095	0.01257
660.88518	0.01252
659.59941	0.01248
658.31364	0.01246
657.02787	0.01242
655.74210	0.01238
654.45633	0.01236
653.17056	0.01239
651.88480	0.01246
650.59903	0.01255
649.31326	0.01260
648.02749	0.01260
646.74172	0.01257
645.45595	0.01253
644.17018	0.01251
642.88441	0.01251
641.59864	0.01257
640.31288	0.01268
639.02711	0.01278
637.74134	0.01282
636.45557	0.01281
635.16980	0.01284
633.88403	0.01298
632.59826	0.01322
631.31249	0.01345
630.02673	0.01348
628.74096	0.01326
627.45519	0.01307
626.16942	0.01259
624.88365	0.01220
623.59788	0.01247
622.31211	0.01365
621.02634	0.01551
619.74057	0.01757
618.45481	0.01948
617.16904	0.02111
615.88327	0.02243
614.59750	0.02338
613.31173	0.02393
612.02596	0.02434
610.74019	0.02521
609.45442	0.02701
608.16866	0.02943
606.88289	0.03157
605.59712	0.03281
604.31135	0.03323
603.02558	0.03320
601.73981	0.03308
600.45404	0.03302
599.16827	0.03297
597.88250	0.03278
596.59674	0.03232
595.31097	0.03164
594.02520	0.03090
592.73943	0.03025
591.45366	0.02976
590.16789	0.02948
588.88212	0.02939
587.59635	0.02946
586.31059	0.02966
585.02482	0.02999
583.73905	0.03049
582.45328	0.03115
581.16751	0.03190
579.88174	0.03263
578.59597	0.03333
577.31020	0.03405
576.02443	0.03483
574.73867	0.03565
573.45290	0.03648
572.16713	0.03737
570.88136	0.03846
569.59559	0.03984
568.30982	0.04149
567.02405	0.04323
565.73828	0.04483
564.45251	0.04614
563.16675	0.04703
561.88098	0.04736
560.59521	0.04697
559.30944	0.04583
558.02367	0.04410
556.73790	0.04210
555.45213	0.04009
554.16636	0.03814
552.88060	0.03624
551.59483	0.03436
550.30906	0.03254
549.02329	0.03087
547.73752	0.02943
546.45175	0.02823
545.16598	0.02724
543.88021	0.02634
542.59444	0.02549
541.30868	0.02468
540.02291	0.02393
538.73714	0.02320
537.45137	0.02247
536.16560	0.02175
534.87983	0.02111
533.59406	0.02059
532.30829	0.02018
531.02253	0.01984
529.73676	0.01954
528.45099	0.01924
527.16522	0.01895
525.87945	0.01858
524.59368	0.01810
523.30791	0.01754
522.02214	0.01702
520.73637	0.01667
519.45061	0.01651
518.16484	0.01649
516.87907	0.01650
515.59330	0.01641
514.30753	0.01611
513.02176	0.01560
511.73599	0.01503
510.45022	0.01461
509.16446	0.01442
507.87869	0.01438
506.59292	0.01438
505.30715	0.01434
504.02138	0.01429
502.73561	0.01427
501.44984	0.01426
500.16407	0.01420
498.87830	0.01404
497.59254	0.01378
496.30677	0.01353
495.02100	0.01335
493.73523	0.01322
492.44946	0.01307
491.16369	0.01290
489.87792	0.01278
488.59215	0.01278
487.30639	0.01289
486.02062	0.01302
484.73485	0.01315
483.44908	0.01326
482.16331	0.01334
480.87754	0.01339
479.59177	0.01345
478.30600	0.01352
477.02023	0.01362
475.73447	0.01372
474.44870	0.01379
473.16293	0.01385
471.87716	0.01393
470.59139	0.01400
469.30562	0.01403
468.01985	0.01401
466.73408	0.01392
465.44832	0.01377
464.16255	0.01359
462.87678	0.01338
461.59101	0.01317
460.30524	0.01299
459.01947	0.01289
457.73370	0.01288
456.44793	0.01292
455.16216	0.01297
453.87640	0.01293
452.59063	0.01280
451.30486	0.01264
450.01909	0.01252
448.73332	0.01243
447.44755	0.01232
446.16178	0.01215
444.87601	0.01196
443.59025	0.01182
442.30448	0.01174
441.01871	0.01172
439.73294	0.01171
438.44717	0.01167
437.16140	0.01163
435.87563	0.01162
434.58986	0.01165
433.30409	0.01172
432.01833	0.01179
430.73256	0.01185
429.44679	0.01187
428.16102	0.01186
426.87525	0.01180
425.58948	0.01170
424.30371	0.01158
423.01794	0.01148
421.73218	0.01146
420.44641	0.01152
419.16064	0.01158
417.87487	0.01155
416.58910	0.01141
415.30333	0.01122
414.01756	0.01106
412.73179	0.01095
411.44602	0.01089
410.16026	0.01088
408.87449	0.01091
407.58872	0.01098
406.30295	0.01107
405.01718	0.01116
403.73141	0.01123
402.44564	0.01130
401.15987	0.01135
399.87411	0.01140
