3997.45528	0.00574
3996.16951	0.00556
3994.88374	0.00558
3993.59798	0.00591
3992.31221	0.00630
3991.02644	0.00646
3989.74067	0.00636
3988.45490	0.00617
3987.16913	0.00604
3985.88336	0.00599
3984.59759	0.00614
3983.31183	0.00664
3982.02606	0.00741
3980.74029	0.00811
3979.45452	0.00850
3978.16875	0.00867
3976.88298	0.00889
3975.59721	0.00920
3974.31144	0.00938
3973.02567	0.00928
3971.73991	0.00896
3970.45414	0.00862
3969.16837	0.00831
3967.88260	0.00809
3966.59683	0.00800
3965.31106	0.00800
3964.02529	0.00799
3962.73952	0.00803
3961.45376	0.00835
3960.16799	0.00909
3958.88222	0.00993
3957.59645	0.01040
3956.31068	0.01033
3955.02491	0.00998
3953.73914	0.00978
3952.45337	0.00996
3951.16760	0.01036
3949.88184	0.01068
3948.59607	0.01077
3947.31030	0.01076
3946.02453	0.01075
3944.73876	0.01072
3943.45299	0.01057
3942.16722	0.01030
3940.88145	0.00998
3939.59569	0.00959
3938.30992	0.00915
3937.02415	0.00887
3935.73838	0.00895
3934.45261	0.00933
3933.16684	0.00964
3931.88107	0.00959
3930.59530	0.00924
3929.30953	0.00894
3928.02377	0.00900
3926.73800	0.00940
3925.45223	0.00990
3924.16646	0.01020
3922.88069	0.01015
3921.59492	0.00980
3920.30915	0.00932
3919.02338	0.00894
3917.73762	0.00874
3916.45185	0.00869
3915.16608	0.00881
3913.88031	0.00921
3912.59454	0.00988
3911.30877	0.01056
3910.02300	0.01087
3908.73723	0.01065
3907.45146	0.01018
3906.16570	0.00993
3904.87993	0.01017
3903.59416	0.01083
3902.30839	0.01163
3901.02262	0.01231
3899.73685	0.01258
3898.45108	0.01225
3897.16531	0.01149
3895.87955	0.01082
3894.59378	0.01056
3893.30801	0.01057
3892.02224	0.01051
3890.73647	0.01038
3889.45070	0.01046
3888.16493	0.01084
3886.87916	0.01120
3885.59339	0.01118
3884.30763	0.01078
3883.02186	0.01020
3881.73609	0.00957
3880.45032	0.00896
3879.16455	0.00863
3877.87878	0.00882
3876.59301	0.00948
3875.30724	0.01026
3874.02148	0.01094
3872.73571	0.01158
3871.44994	0.01225
3870.16417	0.01278
3868.87840	0.01297
3867.59263	0.01287
3866.30686	0.01270
3865.02109	0.01254
3863.73532	0.01224
3862.44956	0.01171
3861.16379	0.01104
3859.87802	0.01051
3858.59225	0.01031
3857.30648	0.01050
3856.02071	0.01102
3854.73494	0.01181
3853.44917	0.01272
3852.16341	0.01346
3850.87764	0.01374
3849.59187	0.01340
3848.30610	0.01256
3847.02033	0.01157
3845.73456	0.01080
3844.44879	0.01048
3843.16302	0.01056
3841.87725	0.01087
3840.59149	0.01122
3839.30572	0.01143
3838.01995	0.01134
3836.73418	0.01084
3835.44841	0.01014
3834.16264	0.00968
3832.87687	0.00989
3831.59110	0.01080
3830.30534	0.01200
3829.01957	0.01297
3827.73380	0.01342
3826.44803	0.01333
3825.16226	0.01277
3823.87649	0.01193
3822.59072	0.01114
3821.30495	0.01067
3820.01918	0.01051
3818.73342	0.01045
3817.44765	0.01037
3816.16188	0.01045
3814.87611	0.01091
3813.59034	0.01160
3812.30457	0.01205
3811.01880	0.01201
3809.73303	0.01170
3808.44726	0.01148
3807.16150	0.01144
3805.87573	0.01131
3804.58996	0.01093
3803.30419	0.01043
3802.01842	0.01005
3800.73265	0.00991
3799.44688	0.01004
3798.16111	0.01048
3796.87535	0.01116
3795.58958	0.01181
3794.30381	0.01206
3793.01804	0.01183
3791.73227	0.01144
3790.44650	0.01136
3789.16073	0.01168
3787.87496	0.01213
3786.58919	0.01237
3785.30343	0.01232
3784.01766	0.01215
3782.73189	0.01210
3781.44612	0.01223
3780.16035	0.01236
3778.87458	0.01226
3777.58881	0.01181
3776.30304	0.01110
3775.01728	0.01037
3773.73151	0.00988
3772.44574	0.00978
3771.15997	0.00995
3769.87420	0.01014
3768.58843	0.01021
3767.30266	0.01021
3766.01689	0.01026
3764.73112	0.01036
3763.44536	0.01057
3762.15959	0.01102
3760.87382	0.01166
3759.58805	0.01210
3758.30228	0.01191
3757.01651	0.01108
3755.73074	0.01008
3754.44497	0.00940
3753.15921	0.00909
3751.87344	0.00891
3750.58767	0.00878
3749.30190	0.00896
3748.01613	0.00965
3746.73036	0.01065
3745.44459	0.01152
3744.15882	0.01195
3742.87305	0.01200
3741.58729	0.01176
3740.30152	0.01120
3739.01575	0.01029
3737.72998	0.00932
3736.44421	0.00875
3735.15844	0.00877
3733.87267	0.00916
3732.58690	0.00961
3731.30114	0.01005
3730.01537	0.01062
3728.72960	0.01133
3727.44383	0.01196
3726.15806	0.01228
3724.87229	0.01228
3723.58652	0.01210
3722.30075	0.01192
3721.01498	0.01187
3719.72922	0.01200
3718.44345	0.01222
3717.15768	0.01233
3715.87191	0.01227
3714.58614	0.01224
3713.30037	0.01231
3712.01460	0.01228
3710.72883	0.01189
3709.44307	0.01118
3708.15730	0.01046
3706.87153	0.00994
3705.58576	0.00960
3704.29999	0.00938
3703.01422	0.00926
3701.72845	0.00931
3700.44268	0.00950
3699.15691	0.00982
3697.87115	0.01008
3696.58538	0.01016
3695.29961	0.01021
3694.01384	0.01041
3692.72807	0.01078
3691.44230	0.01113
3690.15653	0.01136
3688.87076	0.01146
3687.58500	0.01144
3686.29923	0.01131
3685.01346	0.01098
3683.72769	0.01038
3682.44192	0.00968
3681.15615	0.00930
3679.87038	0.00963
3678.58461	0.01072
3677.29884	0.01200
3676.01308	0.01274
3674.72731	0.01263
3673.44154	0.01205
3672.15577	0.01155
3670.87000	0.01133
3669.58423	0.01114
3668.29846	0.01085
3667.01269	0.01068
3665.72693	0.01098
3664.44116	0.01174
3663.15539	0.01260
3661.86962	0.01314
3660.58385	0.01330
3659.29808	0.01330
3658.01231	0.01335
3656.72654	0.01343
3655.44077	0.01353
3654.15501	0.01370
3652.86924	0.01404
3651.58347	0.01443
3650.29770	0.01463
3649.01193	0.01452
3647.72616	0.01418
3646.44039	0.01384
3645.15462	0.01375
3643.86886	0.01405
3642.58309	0.01466
3641.29732	0.01531
3640.01155	0.01571
3638.72578	0.01575
3637.44001	0.01557
3636.15424	0.01543
3634.86847	0.01556
3633.58270	0.01593
3632.29694	0.01633
3631.01117	0.01656
3629.72540	0.01662
3628.43963	0.01660
3627.15386	0.01654
3625.86809	0.01638
3624.58232	0.01610
3623.29655	0.01586
3622.01079	0.01593
3620.72502	0.01651
3619.43925	0.01754
3618.15348	0.01865
3616.86771	0.01947
3615.58194	0.01995
3614.29617	0.02029
3613.01040	0.02060
3611.72463	0.02080
3610.43887	0.02081
3609.15310	0.02072
3607.86733	0.02080
3606.58156	0.02115
3605.29579	0.02158
3604.01002	0.02189
3602.72425	0.02200
3601.43848	0.02196
3600.15272	0.02188
3598.86695	0.02197
3597.58118	0.02232
3596.29541	0.02281
3595.00964	0.02322
3593.72387	0.02347
3592.43810	0.02355
3591.15233	0.02347
3589.86656	0.02328
3588.58080	0.02300
3587.29503	0.02269
3586.00926	0.02244
3584.72349	0.02231
3583.43772	0.02228
3582.15195	0.02230
3580.86618	0.02240
3579.58041	0.02266
3578.29464	0.02310
3577.00888	0.02364
3575.72311	0.02417
3574.43734	0.02465
3573.15157	0.02514
3571.86580	0.02570
3570.58003	0.02635
3569.29426	0.02701
3568.00849	0.02756
3566.72273	0.02793
3565.43696	0.02816
3564.15119	0.02826
3562.86542	0.02817
3561.57965	0.02786
3560.29388	0.02755
3559.00811	0.02754
3557.72234	0.02784
3556.43657	0.02826
3555.15081	0.02866
3553.86504	0.02906
3552.57927	0.02936
3551.29350	0.02939
3550.00773	0.02918
3548.72196	0.02902
3547.43619	0.02924
3546.15042	0.02986
3544.86466	0.03059
3543.57889	0.03115
3542.29312	0.03146
3541.00735	0.03162
3539.72158	0.03174
3538.43581	0.03187
3537.15004	0.03200
3535.86427	0.03218
3534.57850	0.03250
3533.29274	0.03295
3532.00697	0.03341
3530.72120	0.03371
3529.43543	0.03379
3528.14966	0.03375
3526.86389	0.03377
3525.57812	0.03399
3524.29235	0.03441
3523.00659	0.03489
3521.72082	0.03517
3520.43505	0.03507
3519.14928	0.03477
3517.86351	0.03464
3516.57774	0.03496
3515.29197	0.03567
3514.00620	0.03645
3512.72043	0.03693
3511.43467	0.03695
3510.14890	0.03661
3508.86313	0.03618
3507.57736	0.03588
3506.29159	0.03573
3505.00582	0.03560
3503.72005	0.03547
3502.43428	0.03551
3501.14852	0.03592
3499.86275	0.03672
3498.57698	0.03763
3497.29121	0.03823
3496.00544	0.03835
3494.71967	0.03823
3493.43390	0.03830
3492.14813	0.03867
3490.86236	0.03910
3489.57660	0.03933
3488.29083	0.03930
3487.00506	0.03915
3485.71929	0.03897
3484.43352	0.03883
3483.14775	0.03887
3481.86198	0.03915
3480.57621	0.03949
3479.29045	0.03963
3478.00468	0.03959
3476.71891	0.03955
3475.43314	0.03968
3474.14737	0.03992
3472.86160	0.04015
3471.57583	0.04027
3470.29006	0.04029
3469.00429	0.04031
3467.71853	0.04047
3466.43276	0.04078
3465.14699	0.04114
3463.86122	0.04142
3462.57545	0.04161
3461.28968	0.04180
3460.00391	0.04202
3458.71814	0.04229
3457.43238	0.04261
3456.14661	0.04296
3454.86084	0.04322
3453.57507	0.04326
3452.28930	0.04313
3451.00353	0.04314
3449.71776	0.04352
3448.43199	0.04414
3447.14622	0.04462
3445.86046	0.04465
3444.57469	0.04426
3443.28892	0.04367
3442.00315	0.04310
3440.71738	0.04265
3439.43161	0.04234
3438.14584	0.04218
3436.86007	0.04215
3435.57431	0.04218
3434.28854	0.04220
3433.00277	0.04226
3431.71700	0.04254
3430.43123	0.04318
3429.14546	0.04412
3427.85969	0.04504
3426.57392	0.04565
3425.28815	0.04590
3424.00239	0.04593
3422.71662	0.04590
3421.43085	0.04591
3420.14508	0.04598
3418.85931	0.04601
3417.57354	0.04584
3416.28777	0.04549
3415.00200	0.04514
3413.71624	0.04502
3412.43047	0.04527
3411.14470	0.04583
3409.85893	0.04657
3408.57316	0.04727
3407.28739	0.04772
3406.00162	0.04785
3404.71585	0.04778
3403.43008	0.04769
3402.14432	0.04765
3400.85855	0.04760
3399.57278	0.04747
3398.28701	0.04734
3397.00124	0.04731
3395.71547	0.04741
3394.42970	0.04757
3393.14393	0.04765
3391.85817	0.04754
3390.57240	0.04731
3389.28663	0.04713
3388.00086	0.04713
3386.71509	0.04729
3385.42932	0.04753
3384.14355	0.04791
3382.85778	0.04851
3381.57201	0.04922
3380.28625	0.04977
3379.00048	0.04998
3377.71471	0.04992
3376.42894	0.04984
3375.14317	0.04986
3373.85740	0.04997
3372.57163	0.05002
3371.28586	0.04999
3370.00010	0.04995
3368.71433	0.05003
3367.42856	0.05021
3366.14279	0.05035
3364.85702	0.05033
3363.57125	0.05017
3362.28548	0.04995
3360.99971	0.04977
3359.71394	0.04967
3358.42818	0.04964
3357.14241	0.04964
3355.85664	0.04962
3354.57087	0.04966
3353.28510	0.04989
3351.99933	0.05042
3350.71356	0.05107
3349.42779	0.05145
3348.14202	0.05132
3346.85626	0.05082
3345.57049	0.05026
3344.28472	0.04985
3342.99895	0.04961
3341.71318	0.04947
3340.42741	0.04939
3339.14164	0.04933
3337.85587	0.04916
3336.57011	0.04883
3335.28434	0.04843
3333.99857	0.04819
3332.71280	0.04831
3331.42703	0.04886
3330.14126	0.04962
3328.85549	0.05024
3327.56972	0.05048
3326.28395	0.05039
3324.99819	0.05023
3323.71242	0.05017
3322.42665	0.05021
3321.14088	0.05024
3319.85511	0.05021
3318.56934	0.05012
3317.28357	0.05002
3315.99780	0.04996
3314.71204	0.05003
3313.42627	0.05028
3312.14050	0.05066
3310.85473	0.05102
3309.56896	0.05119
3308.28319	0.05103
3306.99742	0.05061
3305.71165	0.05011
3304.42588	0.04974
3303.14012	0.04955
3301.85435	0.04949
3300.56858	0.04948
3299.28281	0.04956
3297.99704	0.04975
3296.71127	0.05005
3295.42550	0.05035
3294.13973	0.05053
3292.85397	0.05051
3291.56820	0.05034
3290.28243	0.05013
3288.99666	0.04998
3287.71089	0.04989
3286.42512	0.04986
3285.13935	0.04988
3283.85358	0.04989
3282.56781	0.04979
3281.28205	0.04948
3279.99628	0.04897
3278.71051	0.04842
3277.42474	0.04804
3276.13897	0.04798
3274.85320	0.04822
3273.56743	0.04855
3272.28166	0.04880
3270.99590	0.04894
3269.71013	0.04899
3268.42436	0.04899
3267.13859	0.04893
3265.85282	0.04894
3264.56705	0.04917
3263.28128	0.04965
3261.99551	0.05020
3260.70974	0.05055
3259.42398	0.05057
3258.13821	0.05034
3256.85244	0.05004
3255.56667	0.04980
3254.28090	0.04965
3252.99513	0.04963
3251.70936	0.04977
3250.42359	0.05003
3249.13783	0.05021
3247.85206	0.05019
3246.56629	0.05004
3245.28052	0.05001
3243.99475	0.05018
3242.70898	0.05031
3241.42321	0.05007
3240.13744	0.04949
3238.85167	0.04891
3237.56591	0.04863
3236.28014	0.04867
3234.99437	0.04880
3233.70860	0.04885
3232.42283	0.04873
3231.13706	0.04847
3229.85129	0.04823
3228.56552	0.04821
3227.27976	0.04848
3225.99399	0.04883
3224.70822	0.04901
3223.42245	0.04895
3222.13668	0.04880
3220.85091	0.04874
3219.56514	0.04876
3218.27937	0.04873
3216.99360	0.04860
3215.70784	0.04839
3214.42207	0.04822
3213.13630	0.04818
3211.85053	0.04827
3210.56476	0.04846
3209.27899	0.04871
3207.99322	0.04906
3206.70745	0.04944
3205.42169	0.04970
3204.13592	0.04969
3202.85015	0.04942
3201.56438	0.04905
3200.27861	0.04866
3198.99284	0.04828
3197.70707	0.04785
3196.42130	0.04742
3195.13553	0.04710
3193.84977	0.04696
3192.56400	0.04695
3191.27823	0.04708
3189.99246	0.04742
3188.70669	0.04793
3187.42092	0.04839
3186.13515	0.04854
3184.84938	0.04833
3183.56362	0.04799
3182.27785	0.04778
3180.99208	0.04777
3179.70631	0.04779
3178.42054	0.04755
3177.13477	0.04689
3175.84900	0.04599
3174.56323	0.04529
3173.27746	0.04517
3171.99170	0.04567
3170.70593	0.04651
3169.42016	0.04727
3168.13439	0.04759
3166.84862	0.04736
3165.56285	0.04679
3164.27708	0.04620
3162.99131	0.04586
3161.70555	0.04587
3160.41978	0.04623
3159.13401	0.04674
3157.84824	0.04708
3156.56247	0.04701
3155.27670	0.04659
3153.99093	0.04613
3152.70516	0.04584
3151.41939	0.04571
3150.13363	0.04555
3148.84786	0.04527
3147.56209	0.04500
3146.27632	0.04497
3144.99055	0.04525
3143.70478	0.04564
3142.41901	0.04584
3141.13324	0.04572
3139.84748	0.04539
3138.56171	0.04500
3137.27594	0.04465
3135.99017	0.04438
3134.70440	0.04430
3133.41863	0.04443
3132.13286	0.04465
3130.84709	0.04481
3129.56132	0.04489
3128.27556	0.04493
3126.98979	0.04493
3125.70402	0.04482
3124.41825	0.04460
3123.13248	0.04440
3121.84671	0.04432
3120.56094	0.04441
3119.27517	0.04460
3117.98940	0.04482
3116.70364	0.04499
3115.41787	0.04506
3114.13210	0.04495
3112.84633	0.04463
3111.56056	0.04421
3110.27479	0.04384
3108.98902	0.04365
3107.70325	0.04363
3106.41749	0.04373
3105.13172	0.04389
3103.84595	0.04406
3102.56018	0.04416
3101.27441	0.04416
3099.98864	0.04405
3098.70287	0.04382
3097.41710	0.04352
3096.13133	0.04332
3094.84557	0.04333
3093.55980	0.04348
3092.27403	0.04355
3090.98826	0.04343
3089.70249	0.04321
3088.41672	0.04312
3087.13095	0.04320
3085.84518	0.04328
3084.55942	0.04318
3083.27365	0.04297
3081.98788	0.04284
3080.70211	0.04288
3079.41634	0.04304
3078.13057	0.04321
3076.84480	0.04337
3075.55903	0.04351
3074.27326	0.04358
3072.98750	0.04352
3071.70173	0.04337
3070.41596	0.04323
3069.13019	0.04319
3067.84442	0.04315
3066.55865	0.04299
3065.27288	0.04270
3063.98711	0.04242
3062.70135	0.04229
3061.41558	0.04234
3060.12981	0.04244
3058.84404	0.04241
3057.55827	0.04223
3056.27250	0.04196
3054.98673	0.04170
3053.70096	0.04147
3052.41519	0.04134
3051.12943	0.04137
3049.84366	0.04157
3048.55789	0.04185
3047.27212	0.04204
3045.98635	0.04209
3044.70058	0.04198
3043.41481	0.04167
3042.12904	0.04117
3040.84328	0.04068
3039.55751	0.04045
3038.27174	0.04061
3036.98597	0.04094
3035.70020	0.04108
3034.41443	0.04085
3033.12866	0.04036
3031.84289	0.03987
3030.55712	0.03958
3029.27136	0.03953
3027.98559	0.03967
3026.69982	0.03991
3025.41405	0.04012
3024.12828	0.04019
3022.84251	0.04007
3021.55674	0.03986
3020.27097	0.03975
3018.98521	0.03990
3017.69944	0.04029
3016.41367	0.04072
3015.12790	0.04095
3013.84213	0.04089
3012.55636	0.04060
3011.27059	0.04018
3009.98482	0.03970
3008.69905	0.03923
3007.41329	0.03892
3006.12752	0.03885
3004.84175	0.03895
3003.55598	0.03904
3002.27021	0.03905
3000.98444	0.03900
2999.69867	0.03896
2998.41290	0.03904
2997.12714	0.03920
2995.84137	0.03933
2994.55560	0.03927
2993.26983	0.03893
2991.98406	0.03847
2990.69829	0.03818
2989.41252	0.03827
2988.12675	0.03863
2986.84098	0.03902
2985.55522	0.03927
2984.26945	0.03940
2982.98368	0.03956
2981.69791	0.03984
2980.41214	0.04017
2979.12637	0.04038
2977.84060	0.04031
2976.55483	0.04003
2975.26907	0.03977
2973.98330	0.03973
2972.69753	0.03993
2971.41176	0.04017
2970.12599	0.04024
2968.84022	0.04017
2967.55445	0.04012
2966.26868	0.04026
2964.98291	0.04062
2963.69715	0.04112
2962.41138	0.04161
2961.12561	0.04190
2959.83984	0.04191
2958.55407	0.04176
2957.26830	0.04176
2955.98253	0.04207
2954.69676	0.04265
2953.41100	0.04324
2952.12523	0.04364
2950.83946	0.04377
2949.55369	0.04367
2948.26792	0.04341
2946.98215	0.04305
2945.69638	0.04264
2944.41061	0.04228
2943.12484	0.04210
2941.83908	0.04211
2940.55331	0.04221
2939.26754	0.04226
2937.98177	0.04227
2936.69600	0.04235
2935.41023	0.04255
2934.12446	0.04278
2932.83869	0.04296
2931.55293	0.04307
2930.26716	0.04316
2928.98139	0.04333
2927.69562	0.04355
2926.40985	0.04369
2925.12408	0.04359
2923.83831	0.04319
2922.55254	0.04259
2921.26677	0.04200
2919.98101	0.04158
2918.69524	0.04139
2917.40947	0.04140
2916.12370	0.04149
2914.83793	0.04151
2913.55216	0.04142
2912.26639	0.04125
2910.98062	0.04109
2909.69486	0.04100
2908.40909	0.04098
2907.12332	0.04087
2905.83755	0.04060
2904.55178	0.04025
2903.26601	0.04000
2901.98024	0.03996
2900.69447	0.04003
2899.40870	0.04002
2898.12294	0.03982
2896.83717	0.03944
2895.55140	0.03904
2894.26563	0.03876
2892.97986	0.03860
2891.69409	0.03842
2890.40832	0.03820
2889.12255	0.03801
2887.83678	0.03796
2886.55102	0.03798
2885.26525	0.03795
2883.97948	0.03781
2882.69371	0.03757
2881.40794	0.03734
2880.12217	0.03721
2878.83640	0.03727
2877.55063	0.03750
2876.26487	0.03773
2874.97910	0.03782
2873.69333	0.03774
2872.40756	0.03765
2871.12179	0.03774
2869.83602	0.03803
2868.55025	0.03834
2867.26448	0.03845
2865.97871	0.03830
2864.69295	0.03803
2863.40718	0.03778
2862.12141	0.03753
2860.83564	0.03724
2859.54987	0.03691
2858.26410	0.03662
2856.97833	0.03633
2855.69256	0.03602
2854.40680	0.03571
2853.12103	0.03549
2851.83526	0.03536
2850.54949	0.03527
2849.26372	0.03519
2847.97795	0.03515
2846.69218	0.03511
2845.40641	0.03498
2844.12064	0.03480
2842.83488	0.03468
2841.54911	0.03467
2840.26334	0.03463
2838.97757	0.03440
2837.69180	0.03402
2836.40603	0.03370
2835.12026	0.03352
2833.83449	0.03341
2832.54873	0.03323
2831.26296	0.03300
2829.97719	0.03279
2828.69142	0.03262
2827.40565	0.03243
2826.11988	0.03224
2824.83411	0.03213
2823.54834	0.03209
2822.26257	0.03201
2820.97681	0.03176
2819.69104	0.03135
2818.40527	0.03094
2817.11950	0.03068
2815.83373	0.03058
2814.54796	0.03058
2813.26219	0.03063
2811.97642	0.03073
2810.69066	0.03082
2809.40489	0.03080
2808.11912	0.03064
2806.83335	0.03040
2805.54758	0.03021
2804.26181	0.03015
2802.97604	0.03020
2801.69027	0.03027
2800.40450	0.03031
2799.11874	0.03032
2797.83297	0.03035
2796.54720	0.03044
2795.26143	0.03059
2793.97566	0.03074
2792.68989	0.03077
2791.40412	0.03062
2790.11835	0.03034
2788.83259	0.03007
2787.54682	0.02989
2786.26105	0.02986
2784.97528	0.02988
2783.68951	0.02988
2782.40374	0.02982
2781.11797	0.02971
2779.83220	0.02957
2778.54643	0.02940
2777.26067	0.02926
2775.97490	0.02919
2774.68913	0.02920
2773.40336	0.02928
2772.11759	0.02940
2770.83182	0.02948
2769.54605	0.02939
2768.26028	0.02906
2766.97452	0.02862
2765.68875	0.02836
2764.40298	0.02843
2763.11721	0.02873
2761.83144	0.02900
2760.54567	0.02908
2759.25990	0.02905
2757.97413	0.02903
2756.68836	0.02900
2755.40260	0.02890
2754.11683	0.02872
2752.83106	0.02854
2751.54529	0.02836
2750.25952	0.02819
2748.97375	0.02804
2747.68798	0.02798
2746.40221	0.02797
2745.11645	0.02793
2743.83068	0.02787
2742.54491	0.02788
2741.25914	0.02798
2739.97337	0.02808
2738.68760	0.02812
2737.40183	0.02807
2736.11606	0.02798
2734.83029	0.02793
2733.54453	0.02796
2732.25876	0.02806
2730.97299	0.02816
2729.68722	0.02822
2728.40145	0.02823
2727.11568	0.02818
2725.82991	0.02804
2724.54414	0.02786
2723.25838	0.02769
2721.97261	0.02754
2720.68684	0.02733
2719.40107	0.02705
2718.11530	0.02681
2716.82953	0.02674
2715.54376	0.02685
2714.25799	0.02701
2712.97222	0.02707
2711.68646	0.02706
2710.40069	0.02702
2709.11492	0.02698
2707.82915	0.02688
2706.54338	0.02673
2705.25761	0.02661
2703.97184	0.02664
2702.68607	0.02681
2701.40031	0.02702
2700.11454	0.02711
2698.82877	0.02703
2697.54300	0.02684
2696.25723	0.02668
2694.97146	0.02662
2693.68569	0.02665
2692.39992	0.02664
2691.11415	0.02654
2689.82839	0.02637
2688.54262	0.02624
2687.25685	0.02622
2685.97108	0.02631
2684.68531	0.02639
2683.39954	0.02635
2682.11377	0.02614
2680.82800	0.02585
2679.54224	0.02562
2678.25647	0.02553
2676.97070	0.02550
2675.68493	0.02548
2674.39916	0.02543
2673.11339	0.02541
2671.82762	0.02543
2670.54185	0.02546
2669.25608	0.02550
2667.97032	0.02556
2666.68455	0.02562
2665.39878	0.02565
2664.11301	0.02562
2662.82724	0.02560
2661.54147	0.02560
2660.25570	0.02559
2658.96993	0.02554
2657.68417	0.02549
2656.39840	0.02544
2655.11263	0.02538
2653.82686	0.02528
2652.54109	0.02514
2651.25532	0.02499
2649.96955	0.02489
2648.68378	0.02483
2647.39801	0.02478
2646.11225	0.02470
2644.82648	0.02459
2643.54071	0.02447
2642.25494	0.02435
2640.96917	0.02428
2639.68340	0.02431
2638.39763	0.02441
2637.11186	0.02446
2635.82609	0.02435
2634.54033	0.02408
2633.25456	0.02375
2631.96879	0.02350
2630.68302	0.02340
2629.39725	0.02339
2628.11148	0.02336
2626.82571	0.02328
2625.53994	0.02318
2624.25418	0.02300
2622.96841	0.02266
2621.68264	0.02229
2620.39687	0.02218
2619.11110	0.02246
2617.82533	0.02288
2616.53956	0.02312
2615.25379	0.02309
2613.96802	0.02289
2612.68226	0.02268
2611.39649	0.02252
2610.11072	0.02242
2608.82495	0.02229
2607.53918	0.02208
2606.25341	0.02178
2604.96764	0.02151
2603.68187	0.02133
2602.39611	0.02122
2601.11034	0.02112
2599.82457	0.02107
2598.53880	0.02111
2597.25303	0.02119
2595.96726	0.02124
2594.68149	0.02124
2593.39572	0.02117
2592.10995	0.02103
2590.82419	0.02083
2589.53842	0.02056
2588.25265	0.02023
2586.96688	0.01992
2585.68111	0.01974
2584.39534	0.01967
2583.10957	0.01952
2581.82380	0.01918
2580.53804	0.01884
2579.25227	0.01872
2577.96650	0.01890
2576.68073	0.01928
2575.39496	0.01972
2574.10919	0.02005
2572.82342	0.02013
2571.53765	0.01996
2570.25188	0.01970
2568.96612	0.01949
2567.68035	0.01934
2566.39458	0.01916
2565.10881	0.01894
2563.82304	0.01883
2562.53727	0.01895
2561.25150	0.01921
2559.96573	0.01932
2558.67997	0.01917
2557.39420	0.01895
2556.10843	0.01895
2554.82266	0.01923
2553.53689	0.01959
2552.25112	0.01977
2550.96535	0.01974
2549.67958	0.01965
2548.39381	0.01962
2547.10805	0.01960
2545.82228	0.01946
2544.53651	0.01919
2543.25074	0.01885
2541.96497	0.01845
2540.67920	0.01797
2539.39343	0.01755
2538.10766	0.01736
2536.82190	0.01747
2535.53613	0.01781
2534.25036	0.01827
2532.96459	0.01872
2531.67882	0.01897
2530.39305	0.01881
2529.10728	0.01819
2527.82151	0.01738
2526.53574	0.01684
2525.24998	0.01686
2523.96421	0.01735
2522.67844	0.01790
2521.39267	0.01816
2520.10690	0.01803
2518.82113	0.01772
2517.53536	0.01755
2516.24959	0.01768
2514.96383	0.01799
2513.67806	0.01827
2512.39229	0.01839
2511.10652	0.01828
2509.82075	0.01793
2508.53498	0.01744
2507.24921	0.01706
2505.96344	0.01699
2504.67767	0.01725
2503.39191	0.01767
2502.10614	0.01810
2500.82037	0.01837
2499.53460	0.01840
2498.24883	0.01818
2496.96306	0.01783
2495.67729	0.01753
2494.39152	0.01747
2493.10576	0.01766
2491.81999	0.01798
2490.53422	0.01824
2489.24845	0.01832
2487.96268	0.01816
2486.67691	0.01788
2485.39114	0.01766
2484.10537	0.01766
2482.81960	0.01785
2481.53384	0.01805
2480.24807	0.01805
2478.96230	0.01778
2477.67653	0.01739
2476.39076	0.01711
2475.10499	0.01708
2473.81922	0.01717
2472.53345	0.01720
2471.24769	0.01710
2469.96192	0.01699
2468.67615	0.01700
2467.39038	0.01716
2466.10461	0.01737
2464.81884	0.01749
2463.53307	0.01748
2462.24730	0.01747
2460.96153	0.01758
2459.67577	0.01781
2458.39000	0.01795
2457.10423	0.01775
2455.81846	0.01721
2454.53269	0.01669
2453.24692	0.01656
2451.96115	0.01683
2450.67538	0.01715
2449.38962	0.01725
2448.10385	0.01717
2446.81808	0.01705
2445.53231	0.01697
2444.24654	0.01697
2442.96077	0.01706
2441.67500	0.01715
2440.38923	0.01710
2439.10346	0.01690
2437.81770	0.01672
2436.53193	0.01673
2435.24616	0.01695
2433.96039	0.01727
2432.67462	0.01754
2431.38885	0.01766
2430.10308	0.01754
2428.81731	0.01723
2427.53155	0.01689
2426.24578	0.01670
2424.96001	0.01667
2423.67424	0.01670
2422.38847	0.01675
2421.10270	0.01684
2419.81693	0.01687
2418.53116	0.01671
2417.24539	0.01643
2415.95963	0.01619
2414.67386	0.01599
2413.38809	0.01571
2412.10232	0.01544
2410.81655	0.01543
2409.53078	0.01579
2408.24501	0.01629
2406.95924	0.01663
2405.67347	0.01670
2404.38771	0.01667
2403.10194	0.01672
2401.81617	0.01688
2400.53040	0.01704
2399.24463	0.01704
2397.95886	0.01692
2396.67309	0.01676
2395.38732	0.01666
2394.10156	0.01667
2392.81579	0.01672
2391.53002	0.01674
2390.24425	0.01670
2388.95848	0.01663
2387.67271	0.01659
2386.38694	0.01659
2385.10117	0.01659
2383.81540	0.01655
2382.52964	0.01653
2381.24387	0.01655
2379.95810	0.01667
2378.67233	0.01656
2377.38656	0.01628
2376.10079	0.01610
2374.81502	0.01610
2373.52925	0.01551
2372.24349	0.01500
2370.95772	0.01493
2369.67195	0.01466
2368.38618	0.01409
2367.10041	0.01358
2365.81464	0.01323
2364.52887	0.01303
2363.24310	0.01296
2361.95733	0.01317
2360.67157	0.01379
2359.38580	0.01449
2358.10003	0.01497
2356.81426	0.01521
2355.52849	0.01551
2354.24272	0.01633
2352.95695	0.01742
2351.67118	0.01748
2350.38542	0.01707
2349.09965	0.01700
2347.81388	0.01699
2346.52811	0.01684
2345.24234	0.01677
2343.95657	0.01697
2342.67080	0.01753
2341.38503	0.01681
2340.09926	0.01588
2338.81350	0.01555
2337.52773	0.01540
2336.24196	0.01487
2334.95619	0.01505
2333.67042	0.01566
2332.38465	0.01638
2331.09888	0.01556
2329.81311	0.01571
2328.52735	0.01624
2327.24158	0.01645
2325.95581	0.01713
2324.67004	0.01756
2323.38427	0.01802
2322.09850	0.01773
2320.81273	0.01707
2319.52696	0.01668
2318.24119	0.01658
2316.95543	0.01631
2315.66966	0.01620
2314.38389	0.01640
2313.09812	0.01659
2311.81235	0.01677
2310.52658	0.01688
2309.24081	0.01675
2307.95504	0.01642
2306.66928	0.01607
2305.38351	0.01585
2304.09774	0.01578
2302.81197	0.01580
2301.52620	0.01585
2300.24043	0.01593
2298.95466	0.01601
2297.66889	0.01600
2296.38312	0.01594
2295.09736	0.01602
2293.81159	0.01631
2292.52582	0.01663
2291.24005	0.01676
2289.95428	0.01657
2288.66851	0.01614
2287.38274	0.01567
2286.09697	0.01538
2284.81121	0.01538
2283.52544	0.01563
2282.23967	0.01594
2280.95390	0.01607
2279.66813	0.01589
2278.38236	0.01544
2277.09659	0.01497
2275.81082	0.01469
2274.52505	0.01470
2273.23929	0.01489
2271.95352	0.01506
2270.66775	0.01504
2269.38198	0.01477
2268.09621	0.01428
2266.81044	0.01368
2265.52467	0.01307
2264.23890	0.01259
2262.95314	0.01238
2261.66737	0.01261
2260.38160	0.01320
2259.09583	0.01382
2257.81006	0.01406
2256.52429	0.01380
2255.23852	0.01330
2253.95275	0.01294
2252.66698	0.01284
2251.38122	0.01270
2250.09545	0.01224
2248.80968	0.01153
2247.52391	0.01094
2246.23814	0.01095
2244.95237	0.01147
2243.66660	0.01202
2242.38083	0.01216
2241.09507	0.01186
2239.80930	0.01150
2238.52353	0.01147
2237.23776	0.01175
2235.95199	0.01200
2234.66622	0.01194
2233.38045	0.01155
2232.09468	0.01103
2230.80891	0.01064
2229.52315	0.01050
2228.23738	0.01042
2226.95161	0.01011
2225.66584	0.00952
2224.38007	0.00899
2223.09430	0.00886
2221.80853	0.00910
2220.52276	0.00951
2219.23700	0.00991
2217.95123	0.01026
2216.66546	0.01053
2215.37969	0.01065
2214.09392	0.01071
2212.80815	0.01082
2211.52238	0.01097
2210.23661	0.01092
2208.95084	0.01056
2207.66508	0.01008
2206.37931	0.00973
2205.09354	0.00945
2203.80777	0.00894
2202.52200	0.00802
2201.23623	0.00702
2199.95046	0.00647
2198.66469	0.00656
2197.37893	0.00698
2196.09316	0.00732
2194.80739	0.00750
2193.52162	0.00774
2192.23585	0.00808
2190.95008	0.00823
2189.66431	0.00783
2188.37854	0.00703
2187.09277	0.00639
2185.80701	0.00636
2184.52124	0.00684
2183.23547	0.00741
2181.94970	0.00778
2180.66393	0.00794
2179.37816	0.00787
2178.09239	0.00750
2176.80662	0.00696
2175.52085	0.00654
2174.23509	0.00640
2172.94932	0.00640
2171.66355	0.00630
2170.37778	0.00610
2169.09201	0.00601
2167.80624	0.00617
2166.52047	0.00654
2165.23470	0.00681
2163.94894	0.00670
2162.66317	0.00603
2161.37740	0.00474
2160.09163	0.00297
2158.80586	0.00130
2157.52009	0.00055
2156.23432	0.00098
2154.94855	0.00207
2153.66278	0.00311
2152.37702	0.00376
2151.09125	0.00403
2149.80548	0.00398
2148.51971	0.00372
2147.23394	0.00341
2145.94817	0.00315
2144.66240	0.00300
2143.37663	0.00314
2142.09087	0.00370
2140.80510	0.00456
2139.51933	0.00532
2138.23356	0.00560
2136.94779	0.00535
2135.66202	0.00487
2134.37625	0.00452
2133.09048	0.00448
2131.80471	0.00466
2130.51895	0.00488
2129.23318	0.00508
2127.94741	0.00537
2126.66164	0.00584
2125.37587	0.00643
2124.09010	0.00694
2122.80433	0.00721
2121.51856	0.00725
2120.23280	0.00727
2118.94703	0.00741
2117.66126	0.00766
2116.37549	0.00792
2115.08972	0.00813
2113.80395	0.00831
2112.51818	0.00849
2111.23241	0.00865
2109.94664	0.00879
2108.66088	0.00884
2107.37511	0.00867
2106.08934	0.00825
2104.80357	0.00781
2103.51780	0.00770
2102.23203	0.00795
2100.94626	0.00828
2099.66049	0.01092
2098.37473	0.01181
2097.08896	0.01127
2095.80319	0.01050
2094.51742	0.00976
2093.23165	0.00894
2091.94588	0.00801
2090.66011	0.00712
2089.37434	0.00646
2088.08857	0.00608
2086.80281	0.00588
2085.51704	0.00581
2084.23127	0.00589
2082.94550	0.00621
2081.65973	0.00680
2080.37396	0.00755
2079.08819	0.00825
2077.80242	0.00866
2076.51666	0.00870
2075.23089	0.00854
2073.94512	0.00851
2072.65935	0.00876
2071.37358	0.00919
2070.08781	0.00954
2068.80204	0.00964
2067.51627	0.00948
2066.23050	0.00910
2064.94474	0.00850
2063.65897	0.00771
2062.37320	0.00685
2061.08743	0.00604
2059.80166	0.00537
2058.51589	0.00491
2057.23012	0.00465
2055.94435	0.00453
2054.65859	0.00464
2053.37282	0.00522
2052.08705	0.00649
2050.80128	0.00822
2049.51551	0.00976
2048.22974	0.01049
2046.94397	0.01018
2045.65820	0.00903
2044.37243	0.00734
2043.08667	0.00548
2041.80090	0.00381
2040.51513	0.00273
2039.22936	0.00253
2037.94359	0.00324
2036.65782	0.00458
2035.37205	0.00599
2034.08628	0.00693
2032.80052	0.00723
2031.51475	0.00713
2030.22898	0.00686
2028.94321	0.00642
2027.65744	0.00576
2026.37167	0.00515
2025.08590	0.00494
2023.80013	0.00518
2022.51436	0.00560
2021.22860	0.00592
2019.94283	0.00613
2018.65706	0.00630
2017.37129	0.00648
2016.08552	0.00672
2014.79975	0.00703
2013.51398	0.00743
2012.22821	0.00807
2010.94245	0.00907
2009.65668	0.01035
2008.37091	0.01143
2007.08514	0.01171
2005.79937	0.01094
2004.51360	0.00942
2003.22783	0.00784
2001.94206	0.00669
2000.65629	0.00596
1999.37053	0.00542
1998.08476	0.00500
1996.79899	0.00482
1995.51322	0.00496
1994.22745	0.00532
1992.94168	0.00570
1991.65591	0.00591
1990.37014	0.00576
1989.08438	0.00528
1987.79861	0.00484
1986.51284	0.00498
1985.22707	0.00592
1983.94130	0.00744
1982.65553	0.00934
1981.36976	0.01168
1980.08399	0.01434
1978.79822	0.01663
1977.51246	0.01753
1976.22669	0.01661
1974.94092	0.01443
1973.65515	0.01219
1972.36938	0.01079
1971.08361	0.01023
1969.79784	0.00991
1968.51207	0.00932
1967.22631	0.00861
1965.94054	0.00832
1964.65477	0.00870
1963.36900	0.00945
1962.08323	0.01000
1960.79746	0.01001
1959.51169	0.00948
1958.22592	0.00865
1956.94015	0.00789
1955.65439	0.00767
1954.36862	0.00831
1953.08285	0.00954
1951.79708	0.01052
1950.51131	0.01057
1949.22554	0.00986
1947.93977	0.00925
1946.65400	0.00932
1945.36823	0.00996
1944.08247	0.01064
1942.79670	0.01097
1941.51093	0.01090
1940.22516	0.01060
1938.93939	0.01021
1937.65362	0.00981
1936.36785	0.00953
1935.08208	0.00955
1933.79632	0.00992
1932.51055	0.01041
1931.22478	0.01067
1929.93901	0.01048
1928.65324	0.00998
1927.36747	0.00947
1926.08170	0.00922
1924.79593	0.00931
1923.51016	0.00972
1922.22440	0.01033
1920.93863	0.01094
1919.65286	0.01130
1918.36709	0.01128
1917.08132	0.01096
1915.79555	0.01057
1914.50978	0.01032
1913.22401	0.01028
1911.93825	0.01036
1910.65248	0.01045
1909.36671	0.01046
1908.08094	0.01040
1906.79517	0.01028
1905.50940	0.01017
1904.22363	0.01011
1902.93786	0.01014
1901.65209	0.01026
1900.36633	0.01043
1899.08056	0.01057
1897.79479	0.01063
1896.50902	0.01063
1895.22325	0.01062
1893.93748	0.01063
1892.65171	0.01061
1891.36594	0.01050
1890.08018	0.01030
1888.79441	0.01004
1887.50864	0.00984
1886.22287	0.00980
1884.93710	0.00996
1883.65133	0.01028
1882.36556	0.01067
1881.07979	0.01102
1879.79402	0.01130
1878.50826	0.01150
1877.22249	0.01159
1875.93672	0.01152
1874.65095	0.01130
1873.36518	0.01101
1872.07941	0.01084
1870.79364	0.01090
1869.50787	0.01108
1868.22211	0.01118
1866.93634	0.01112
1865.65057	0.01100
1864.36480	0.01092
1863.07903	0.01088
1861.79326	0.01083
1860.50749	0.01075
1859.22172	0.01071
1857.93595	0.01074
1856.65019	0.01079
1855.36442	0.01078
1854.07865	0.01073
1852.79288	0.01071
1851.50711	0.01082
1850.22134	0.01101
1848.93557	0.01114
1847.64980	0.01112
1846.36404	0.01098
1845.07827	0.01083
1843.79250	0.01076
1842.50673	0.01080
1841.22096	0.01087
1839.93519	0.01088
1838.64942	0.01072
1837.36365	0.01045
1836.07788	0.01023
1834.79212	0.01022
1833.50635	0.01045
1832.22058	0.01081
1830.93481	0.01113
1829.64904	0.01133
1828.36327	0.01144
1827.07750	0.01154
1825.79173	0.01172
1824.50597	0.01200
1823.22020	0.01238
1821.93443	0.01279
1820.64866	0.01306
1819.36289	0.01304
1818.07712	0.01264
1816.79135	0.01201
1815.50558	0.01138
1814.21981	0.01097
1812.93405	0.01079
1811.64828	0.01073
1810.36251	0.01071
1809.07674	0.01069
1807.79097	0.01069
1806.50520	0.01071
1805.21943	0.01070
1803.93366	0.01061
1802.64790	0.01048
1801.36213	0.01043
1800.07636	0.01054
1798.79059	0.01082
1797.50482	0.01117
1796.21905	0.01148
1794.93328	0.01169
1793.64751	0.01180
1792.36174	0.01185
1791.07598	0.01188
1789.79021	0.01191
1788.50444	0.01197
1787.21867	0.01208
1785.93290	0.01221
1784.64713	0.01230
1783.36136	0.01235
1782.07559	0.01238
1780.78983	0.01238
1779.50406	0.01237
1778.21829	0.01232
1776.93252	0.01224
1775.64675	0.01216
1774.36098	0.01210
1773.07521	0.01204
1771.78944	0.01196
1770.50367	0.01185
1769.21791	0.01176
1767.93214	0.01174
1766.64637	0.01183
1765.36060	0.01200
1764.07483	0.01220
1762.78906	0.01236
1761.50329	0.01243
1760.21752	0.01241
1758.93176	0.01238
1757.64599	0.01236
1756.36022	0.01235
1755.07445	0.01231
1753.78868	0.01228
1752.50291	0.01234
1751.21714	0.01250
1749.93137	0.01267
1748.64560	0.01277
1747.35984	0.01278
1746.07407	0.01273
1744.78830	0.01270
1743.50253	0.01274
1742.21676	0.01285
1740.93099	0.01297
1739.64522	0.01305
1738.35945	0.01312
1737.07369	0.01327
1735.78792	0.01351
1734.50215	0.01373
1733.21638	0.01383
1731.93061	0.01381
1730.64484	0.01377
1729.35907	0.01377
1728.07330	0.01380
1726.78753	0.01382
1725.50177	0.01385
1724.21600	0.01391
1722.93023	0.01402
1721.64446	0.01421
1720.35869	0.01448
1719.07292	0.01481
1717.78715	0.01512
1716.50138	0.01535
1715.21561	0.01550
1713.92985	0.01562
1712.64408	0.01577
1711.35831	0.01596
1710.07254	0.01618
1708.78677	0.01643
1707.50100	0.01671
1706.21523	0.01704
1704.92946	0.01740
1703.64370	0.01781
1702.35793	0.01822
1701.07216	0.01856
1699.78639	0.01881
1698.50062	0.01901
1697.21485	0.01922
1695.92908	0.01941
1694.64331	0.01953
1693.35754	0.01962
1692.07178	0.01975
1690.78601	0.01998
1689.50024	0.02033
1688.21447	0.02078
1686.92870	0.02127
1685.64293	0.02171
1684.35716	0.02200
1683.07139	0.02216
1681.78563	0.02229
1680.49986	0.02249
1679.21409	0.02280
1677.92832	0.02317
1676.64255	0.02356
1675.35678	0.02390
1674.07101	0.02419
1672.78524	0.02445
1671.49947	0.02472
1670.21371	0.02499
1668.92794	0.02523
1667.64217	0.02545
1666.35640	0.02573
1665.07063	0.02609
1663.78486	0.02646
1662.49909	0.02675
1661.21332	0.02692
1659.92756	0.02701
1658.64179	0.02711
1657.35602	0.02732
1656.07025	0.02771
1654.78448	0.02819
1653.49871	0.02857
1652.21294	0.02868
1650.92717	0.02858
1649.64140	0.02848
1648.35564	0.02856
1647.06987	0.02879
1645.78410	0.02900
1644.49833	0.02909
1643.21256	0.02908
1641.92679	0.02903
1640.64102	0.02903
1639.35525	0.02912
1638.06949	0.02934
1636.78372	0.02964
1635.49795	0.02992
1634.21218	0.03007
1632.92641	0.03012
1631.64064	0.03015
1630.35487	0.03026
1629.06910	0.03044
1627.78333	0.03067
1626.49757	0.03092
1625.21180	0.03115
1623.92603	0.03130
1622.64026	0.03133
1621.35449	0.03131
1620.06872	0.03135
1618.78295	0.03154
1617.49718	0.03182
1616.21142	0.03209
1614.92565	0.03229
1613.63988	0.03247
1612.35411	0.03272
1611.06834	0.03302
1609.78257	0.03334
1608.49680	0.03362
1607.21103	0.03382
1605.92526	0.03397
1604.63950	0.03408
1603.35373	0.03421
1602.06796	0.03441
1600.78219	0.03465
1599.49642	0.03491
1598.21065	0.03516
1596.92488	0.03540
1595.63911	0.03565
1594.35335	0.03588
1593.06758	0.03608
1591.78181	0.03625
1590.49604	0.03640
1589.21027	0.03652
1587.92450	0.03662
1586.63873	0.03670
1585.35296	0.03678
1584.06719	0.03689
1582.78143	0.03702
1581.49566	0.03718
1580.20989	0.03739
1578.92412	0.03763
1577.63835	0.03788
1576.35258	0.03807
1575.06681	0.03818
1573.78104	0.03822
1572.49528	0.03825
1571.20951	0.03830
1569.92374	0.03838
1568.63797	0.03850
1567.35220	0.03863
1566.06643	0.03876
1564.78066	0.03887
1563.49489	0.03902
1562.20912	0.03926
1560.92336	0.03957
1559.63759	0.03984
1558.35182	0.03998
1557.06605	0.03997
1555.78028	0.03990
1554.49451	0.03984
1553.20874	0.03982
1551.92297	0.03981
1550.63721	0.03980
1549.35144	0.03981
1548.06567	0.03983
1546.77990	0.03985
1545.49413	0.03987
1544.20836	0.03987
1542.92259	0.03986
1541.63682	0.03984
1540.35105	0.03975
1539.06529	0.03959
1537.77952	0.03935
1536.49375	0.03914
1535.20798	0.03901
1533.92221	0.03899
1532.63644	0.03903
1531.35067	0.03914
1530.06490	0.03932
1528.77914	0.03961
1527.49337	0.03999
1526.20760	0.04045
1524.92183	0.04096
1523.63606	0.04155
1522.35029	0.04219
1521.06452	0.04285
1519.77875	0.04349
1518.49298	0.04411
1517.20722	0.04476
1515.92145	0.04549
1514.63568	0.04629
1513.34991	0.04716
1512.06414	0.04811
1510.77837	0.04913
1509.49260	0.05025
1508.20683	0.05143
1506.92107	0.05257
1505.63530	0.05358
1504.34953	0.05443
1503.06376	0.05519
1501.77799	0.05594
1500.49222	0.05672
1499.20645	0.05753
1497.92068	0.05831
1496.63491	0.05899
1495.34915	0.05957
1494.06338	0.06010
1492.77761	0.06065
1491.49184	0.06127
1490.20607	0.06197
1488.92030	0.06271
1487.63453	0.06344
1486.34876	0.06414
1485.06299	0.06483
1483.77723	0.06556
1482.49146	0.06635
1481.20569	0.06720
1479.91992	0.06810
1478.63415	0.06899
1477.34838	0.06986
1476.06261	0.07069
1474.77684	0.07146
1473.49108	0.07215
1472.20531	0.07274
1470.91954	0.07321
1469.63377	0.07358
1468.34800	0.07389
1467.06223	0.07417
1465.77646	0.07443
1464.49069	0.07469
1463.20492	0.07501
1461.91916	0.07545
1460.63339	0.07602
1459.34762	0.07666
1458.06185	0.07725
1456.77608	0.07774
1455.49031	0.07811
1454.20454	0.07840
1452.91877	0.07864
1451.63301	0.07884
1450.34724	0.07900
1449.06147	0.07910
1447.77570	0.07912
1446.48993	0.07905
1445.20416	0.07889
1443.91839	0.07867
1442.63262	0.07841
1441.34685	0.07819
1440.06109	0.07808
1438.77532	0.07812
1437.48955	0.07830
1436.20378	0.07854
1434.91801	0.07884
1433.63224	0.07923
1432.34647	0.07977
1431.06070	0.08048
1429.77494	0.08135
1428.48917	0.08233
1427.20340	0.08341
1425.91763	0.08460
1424.63186	0.08585
1423.34609	0.08711
1422.06032	0.08833
1420.77455	0.08941
1419.48878	0.09033
1418.20302	0.09106
1416.91725	0.09165
1415.63148	0.09211
1414.34571	0.09243
1413.05994	0.09260
1411.77417	0.09260
1410.48840	0.09239
1409.20263	0.09196
1407.91687	0.09130
1406.63110	0.09045
1405.34533	0.08944
1404.05956	0.08827
1402.77379	0.08699
1401.48802	0.08562
1400.20225	0.08414
1398.91648	0.08255
1397.63071	0.08083
1396.34495	0.07902
1395.05918	0.07715
1393.77341	0.07528
1392.48764	0.07339
1391.20187	0.07149
1389.91610	0.06959
1388.63033	0.06772
1387.34456	0.06591
1386.05880	0.06414
1384.77303	0.06239
1383.48726	0.06063
1382.20149	0.05888
1380.91572	0.05715
1379.62995	0.05544
1378.34418	0.05369
1377.05841	0.05189
1375.77264	0.05011
1374.48688	0.04839
1373.20111	0.04677
1371.91534	0.04521
1370.62957	0.04368
1369.34380	0.04219
1368.05803	0.04078
1366.77226	0.03946
1365.48649	0.03825
1364.20073	0.03714
1362.91496	0.03612
1361.62919	0.03515
1360.34342	0.03421
1359.05765	0.03328
1357.77188	0.03236
1356.48611	0.03148
1355.20034	0.03066
1353.91457	0.02990
1352.62881	0.02920
1351.34304	0.02858
1350.05727	0.02801
1348.77150	0.02745
1347.48573	0.02688
1346.19996	0.02630
1344.91419	0.02575
1343.62842	0.02527
1342.34266	0.02485
1341.05689	0.02448
1339.77112	0.02413
1338.48535	0.02380
1337.19958	0.02349
1335.91381	0.02319
1334.62804	0.02289
1333.34227	0.02261
1332.05650	0.02234
1330.77074	0.02207
1329.48497	0.02181
1328.19920	0.02156
1326.91343	0.02134
1325.62766	0.02114
1324.34189	0.02098
1323.05612	0.02086
1321.77035	0.02075
1320.48459	0.02061
1319.19882	0.02041
1317.91305	0.02020
1316.62728	0.02000
1315.34151	0.01984
1314.05574	0.01968
1312.76997	0.01951
1311.48420	0.01934
1310.19843	0.01923
1308.91267	0.01917
1307.62690	0.01910
1306.34113	0.01898
1305.05536	0.01883
1303.76959	0.01867
1302.48382	0.01853
1301.19805	0.01838
1299.91228	0.01822
1298.62652	0.01807
1297.34075	0.01795
1296.05498	0.01785
1294.76921	0.01773
1293.48344	0.01759
1292.19767	0.01746
1290.91190	0.01739
1289.62613	0.01737
1288.34036	0.01735
1287.05460	0.01728
1285.76883	0.01715
1284.48306	0.01699
1283.19729	0.01686
1281.91152	0.01677
1280.62575	0.01671
1279.33998	0.01663
1278.05421	0.01653
1276.76845	0.01639
1275.48268	0.01625
1274.19691	0.01611
1272.91114	0.01598
1271.62537	0.01588
1270.33960	0.01581
1269.05383	0.01578
1267.76806	0.01578
1266.48229	0.01579
1265.19653	0.01579
1263.91076	0.01577
1262.62499	0.01574
1261.33922	0.01571
1260.05345	0.01568
1258.76768	0.01563
1257.48191	0.01556
1256.19614	0.01547
1254.91037	0.01538
1253.62461	0.01530
1252.33884	0.01526
1251.05307	0.01523
1249.76730	0.01520
1248.48153	0.01515
1247.19576	0.01505
1245.90999	0.01493
1244.62422	0.01481
1243.33846	0.01472
1242.05269	0.01466
1240.76692	0.01463
1239.48115	0.01461
1238.19538	0.01461
1236.90961	0.01461
1235.62384	0.01458
1234.33807	0.01451
1233.05230	0.01446
1231.76654	0.01444
1230.48077	0.01445
1229.19500	0.01445
1227.90923	0.01444
1226.62346	0.01442
1225.33769	0.01436
1224.05192	0.01424
1222.76615	0.01410
1221.48039	0.01396
1220.19462	0.01388
1218.90885	0.01383
1217.62308	0.01379
1216.33731	0.01373
1215.05154	0.01368
1213.76577	0.01365
1212.48000	0.01366
1211.19423	0.01368
1209.90847	0.01372
1208.62270	0.01378
1207.33693	0.01389
1206.05116	0.01401
1204.76539	0.01411
1203.47962	0.01420
1202.19385	0.01428
1200.90808	0.01418
1199.62232	0.01383
1198.33655	0.01386
1197.05078	0.01388
1195.76501	0.01391
1194.47924	0.01395
1193.19347	0.01396
1191.90770	0.01393
1190.62193	0.01390
1189.33616	0.01394
1188.05040	0.01404
1186.76463	0.01415
1185.47886	0.01420
1184.19309	0.01419
1182.90732	0.01418
1181.62155	0.01421
1180.33578	0.01428
1179.05001	0.01438
1177.76425	0.01450
1176.47848	0.01464
1175.19271	0.01479
1173.90694	0.01494
1172.62117	0.01509
1171.33540	0.01523
1170.04963	0.01537
1168.76386	0.01553
1167.47809	0.01572
1166.19233	0.01590
1164.90656	0.01609
1163.62079	0.01630
1162.33502	0.01655
1161.04925	0.01682
1159.76348	0.01711
1158.47771	0.01744
1157.19194	0.01783
1155.90618	0.01824
1154.62041	0.01869
1153.33464	0.01918
1152.04887	0.01971
1150.76310	0.02027
1149.47733	0.02081
1148.19156	0.02135
1146.90579	0.02192
1145.62002	0.02256
1144.33426	0.02329
1143.04849	0.02409
1141.76272	0.02493
1140.47695	0.02584
1139.19118	0.02687
1137.90541	0.02802
1136.61964	0.02926
1135.33387	0.03065
1134.04811	0.03222
1132.76234	0.03398
1131.47657	0.03589
1130.19080	0.03793
1128.90503	0.04011
1127.61926	0.04244
1126.33349	0.04491
1125.04772	0.04752
1123.76195	0.05026
1122.47619	0.05309
1121.19042	0.05599
1119.90465	0.05895
1118.61888	0.06196
1117.33311	0.06501
1116.04734	0.06807
1114.76157	0.07114
1113.47580	0.07420
1112.19004	0.07722
1110.90427	0.08020
1109.61850	0.08309
1108.33273	0.08593
1107.04696	0.08874
1105.76119	0.09157
1104.47542	0.09439
1103.18965	0.09712
1101.90388	0.09966
1100.61812	0.10200
1099.33235	0.10421
1098.04658	0.10640
1096.76081	0.10859
1095.47504	0.11077
1094.18927	0.11290
1092.90350	0.11496
1091.61773	0.11695
1090.33197	0.11886
1089.04620	0.12067
1087.76043	0.12241
1086.47466	0.12414
1085.18889	0.12592
1083.90312	0.12779
1082.61735	0.12973
1081.33158	0.13175
1080.04581	0.13389
1078.76005	0.13614
1077.47428	0.13848
1076.18851	0.14089
1074.90274	0.14338
1073.61697	0.14593
1072.33120	0.14851
1071.04543	0.15113
1069.75966	0.15386
1068.47390	0.15676
1067.18813	0.15981
1065.90236	0.16293
1064.61659	0.16604
1063.33082	0.16911
1062.04505	0.17217
1060.75928	0.17520
1059.47351	0.17819
1058.18774	0.18110
1056.90198	0.18392
1055.61621	0.18673
1054.33044	0.18958
1053.04467	0.19248
1051.75890	0.19541
1050.47313	0.19840
1049.18736	0.20146
1047.90159	0.20455
1046.61583	0.20763
1045.33006	0.21068
1044.04429	0.21373
1042.75852	0.21685
1041.47275	0.22005
1040.18698	0.22333
1038.90121	0.22663
1037.61544	0.22996
1036.32967	0.23328
1035.04391	0.23650
1033.75814	0.23953
1032.47237	0.24226
1031.18660	0.24469
1029.90083	0.24684
1028.61506	0.24873
1027.32929	0.25036
1026.04352	0.25169
1024.75775	0.25265
1023.47199	0.25322
1022.18622	0.25337
1020.90045	0.25311
1019.61468	0.25247
1018.32891	0.25147
1017.04314	0.25011
1015.75737	0.24834
1014.47160	0.24616
1013.18584	0.24355
1011.90007	0.24052
1010.61430	0.23705
1009.32853	0.23314
1008.04276	0.22886
1006.75699	0.22433
1005.47122	0.21965
1004.18545	0.21476
1002.89968	0.20947
1001.61392	0.20371
1000.32815	0.19755
999.04238	0.19119
997.75661	0.18478
996.47084	0.17842
995.18507	0.17212
993.89930	0.16589
992.61353	0.15973
991.32777	0.15364
990.04200	0.14762
988.75623	0.14170
987.47046	0.13589
986.18469	0.13025
984.89892	0.12481
983.61315	0.11964
982.32738	0.11480
981.04161	0.11029
979.75585	0.10609
978.47008	0.10219
977.18431	0.09862
975.89854	0.09540
974.61277	0.09254
973.32700	0.09010
972.04123	0.08820
970.75546	0.08694
969.46970	0.08630
968.18393	0.08620
966.89816	0.08654
965.61239	0.08722
964.32662	0.08808
963.04085	0.08891
961.75508	0.08943
960.46931	0.08945
959.18354	0.08884
957.89778	0.08759
956.61201	0.08582
955.32624	0.08370
954.04047	0.08140
952.75470	0.07903
951.46893	0.07664
950.18316	0.07423
948.89739	0.07182
947.61163	0.06945
946.32586	0.06716
945.04009	0.06504
943.75432	0.06313
942.46855	0.06136
941.18278	0.05962
939.89701	0.05784
938.61124	0.05605
937.32547	0.05438
936.03971	0.05290
934.75394	0.05159
933.46817	0.05038
932.18240	0.04923
930.89663	0.04815
929.61086	0.04715
928.32509	0.04626
927.03932	0.04544
925.75356	0.04462
924.46779	0.04380
923.18202	0.04307
921.89625	0.04246
920.61048	0.04195
919.32471	0.04146
918.03894	0.04095
916.75317	0.04039
915.46740	0.03982
914.18164	0.03930
912.89587	0.03893
911.61010	0.03866
910.32433	0.03838
909.03856	0.03799
907.75279	0.03748
906.46702	0.03692
905.18125	0.03643
903.89549	0.03607
902.60972	0.03583
901.32395	0.03565
900.03818	0.03550
898.75241	0.03534
897.46664	0.03518
896.18087	0.03501
894.89510	0.03488
893.60933	0.03486
892.32357	0.03499
891.03780	0.03525
889.75203	0.03557
888.46626	0.03594
887.18049	0.03650
885.89472	0.03746
884.60895	0.03905
883.32318	0.04133
882.03742	0.04413
880.75165	0.04701
879.46588	0.04941
878.18011	0.05112
876.89434	0.05234
875.60857	0.05348
874.32280	0.05471
873.03703	0.05577
871.75126	0.05627
870.46550	0.05600
869.17973	0.05502
867.89396	0.05355
866.60819	0.05179
865.32242	0.04985
864.03665	0.04781
862.75088	0.04576
861.46511	0.04379
860.17935	0.04201
858.89358	0.04050
857.60781	0.03924
856.32204	0.03818
855.03627	0.03724
853.75050	0.03639
852.46473	0.03564
851.17896	0.03505
849.89319	0.03462
848.60743	0.03430
847.32166	0.03401
846.03589	0.03371
844.75012	0.03341
843.46435	0.03316
842.17858	0.03295
840.89281	0.03272
839.60704	0.03244
838.32128	0.03215
837.03551	0.03187
835.74974	0.03166
834.46397	0.03154
833.17820	0.03150
831.89243	0.03146
830.60666	0.03137
829.32089	0.03125
828.03512	0.03113
826.74936	0.03101
825.46359	0.03085
824.17782	0.03063
822.89205	0.03042
821.60628	0.03032
820.32051	0.03032
819.03474	0.03033
817.74897	0.03032
816.46321	0.03029
815.17744	0.03032
813.89167	0.03040
812.60590	0.03048
811.32013	0.03050
810.03436	0.03042
808.74859	0.03026
807.46282	0.03012
806.17705	0.03006
804.89129	0.03007
803.60552	0.03010
802.31975	0.03009
801.03398	0.03005
799.74821	0.02999
798.46244	0.02991
797.17667	0.02987
795.89090	0.02989
794.60513	0.02995
793.31937	0.02999
792.03360	0.02997
790.74783	0.02993
789.46206	0.02991
788.17629	0.02994
786.89052	0.02997
785.60475	0.02995
784.31898	0.02989
783.03322	0.02979
781.74745	0.02967
780.46168	0.02959
779.17591	0.02957
777.89014	0.02956
776.60437	0.02952
775.31860	0.02947
774.03283	0.02947
772.74706	0.02953
771.46130	0.02958
770.17553	0.02956
768.88976	0.02950
767.60399	0.02943
766.31822	0.02940
765.03245	0.02940
763.74668	0.02945
762.46091	0.02956
761.17515	0.02971
759.88938	0.02986
758.60361	0.02996
757.31784	0.02999
756.03207	0.02994
754.74630	0.02987
753.46053	0.02981
752.17476	0.02978
750.88899	0.02979
749.60323	0.02980
748.31746	0.02977
747.03169	0.02972
745.74592	0.02965
744.46015	0.02953
743.17438	0.02935
741.88861	0.02915
740.60284	0.02902
739.31708	0.02901
738.03131	0.02915
736.74554	0.02940
735.45977	0.02964
734.17400	0.02970
732.88823	0.02947
731.60246	0.02908
730.31669	0.02881
729.03092	0.02887
727.74516	0.02917
726.45939	0.02946
725.17362	0.02956
723.88785	0.02950
722.60208	0.02943
721.31631	0.02943
720.03054	0.02946
718.74477	0.02948
717.45901	0.02949
716.17324	0.02948
714.88747	0.02947
713.60170	0.02945
712.31593	0.02945
711.03016	0.02946
709.74439	0.02948
708.45862	0.02948
707.17285	0.02947
705.88709	0.02945
704.60132	0.02942
703.31555	0.02936
702.02978	0.02929
700.74401	0.02923
699.45824	0.02919
698.17247	0.02920
696.88670	0.02923
695.60094	0.02925
694.31517	0.02924
693.02940	0.02920
691.74363	0.02917
690.45786	0.02918
689.17209	0.02922
687.88632	0.02929
686.60055	0.02932
685.31478	0.02926
684.02902	0.02911
682.74325	0.02888
681.45748	0.02869
680.17171	0.02858
678.88594	0.02856
677.60017	0.02858
676.31440	0.02856
675.02863	0.02857
673.74287	0.02862
672.45710	0.02872
671.17133	0.02883
669.88556	0.02894
668.59979	0.02902
667.31402	0.02909
666.02825	0.02909
664.74248	0.02900
663.45671	0.02883
662.17095	0.02863
660.88518	0.02848
659.59941	0.02839
658.31364	0.02831
657.02787	0.02822
655.74210	0.02817
654.45633	0.02817
653.17056	0.02818
651.88480	0.02818
650.59903	0.02814
649.31326	0.02809
648.02749	0.02811
646.74172	0.02820
645.45595	0.02833
644.17018	0.02847
642.88441	0.02861
641.59864	0.02875
640.31288	0.02893
639.02711	0.02918
637.74134	0.02949
636.45557	0.02983
635.16980	0.03017
633.88403	0.03047
632.59826	0.03068
631.31249	0.03123
630.02673	0.03373
628.74096	0.03748
627.45519	0.03626
626.16942	0.04064
624.88365	0.04874
623.59788	0.05645
622.31211	0.06237
621.02634	0.06615
619.74057	0.06788
618.45481	0.06816
617.16904	0.06778
615.88327	0.06718
614.59750	0.06660
613.31173	0.06680
612.02596	0.06924
610.74019	0.07506
609.45442	0.08367
608.16866	0.09271
606.88289	0.09985
605.59712	0.10429
604.31135	0.10641
603.02558	0.10668
601.73981	0.10525
600.45404	0.10235
599.16827	0.09858
597.88250	0.09465
596.59674	0.09100
595.31097	0.08783
594.02520	0.08524
592.73943	0.08327
591.45366	0.08189
590.16789	0.08101
588.88212	0.08060
587.59635	0.08070
586.31059	0.08139
585.02482	0.08266
583.73905	0.08443
582.45328	0.08658
581.16751	0.08904
579.88174	0.09174
578.59597	0.09453
577.31020	0.09723
576.02443	0.09975
574.73867	0.10220
573.45290	0.10482
572.16713	0.10779
570.88136	0.11108
569.59559	0.11454
568.30982	0.11797
567.02405	0.12115
565.73828	0.12385
564.45251	0.12586
563.16675	0.12703
561.88098	0.12719
560.59521	0.12615
559.30944	0.12370
558.02367	0.11985
556.73790	0.11494
555.45213	0.10951
554.16636	0.10398
552.88060	0.09848
551.59483	0.09305
550.30906	0.08780
549.02329	0.08292
547.73752	0.07856
546.45175	0.07468
545.16598	0.07117
543.88021	0.06798
542.59444	0.06513
541.30868	0.06264
540.02291	0.06046
538.73714	0.05851
537.45137	0.05667
536.16560	0.05488
534.87983	0.05311
533.59406	0.05138
532.30829	0.04969
531.02253	0.04811
529.73676	0.04669
528.45099	0.04548
527.16522	0.04446
525.87945	0.04355
524.59368	0.04265
523.30791	0.04169
522.02214	0.04069
520.73637	0.03967
519.45061	0.03867
518.16484	0.03777
516.87907	0.03699
515.59330	0.03627
514.30753	0.03555
513.02176	0.03481
511.73599	0.03411
510.45022	0.03349
509.16446	0.03295
507.87869	0.03247
506.59292	0.03200
505.30715	0.03151
504.02138	0.03102
502.73561	0.03053
501.44984	0.03008
500.16407	0.02965
498.87830	0.02921
497.59254	0.02877
496.30677	0.02832
495.02100	0.02791
493.73523	0.02761
492.44946	0.02745
491.16369	0.02741
489.87792	0.02742
488.59215	0.02743
487.30639	0.02742
486.02062	0.02738
484.73485	0.02729
483.44908	0.02720
482.16331	0.02715
480.87754	0.02714
479.59177	0.02717
478.30600	0.02722
477.02023	0.02733
475.73447	0.02751
474.44870	0.02776
473.16293	0.02800
471.87716	0.02817
470.59139	0.02823
469.30562	0.02821
468.01985	0.02814
466.73408	0.02801
465.44832	0.02779
464.16255	0.02750
462.87678	0.02716
461.59101	0.02682
460.30524	0.02650
459.01947	0.02620
457.73370	0.02593
456.44793	0.02567
455.16216	0.02542
453.87640	0.02518
452.59063	0.02495
451.30486	0.02471
450.01909	0.02448
448.73332	0.02431
447.44755	0.02424
446.16178	0.02424
444.87601	0.02423
443.59025	0.02413
442.30448	0.02394
441.01871	0.02369
439.73294	0.02346
438.44717	0.02328
437.16140	0.02317
435.87563	0.02313
434.58986	0.02312
433.30409	0.02310
432.01833	0.02312
430.73256	0.02317
429.44679	0.02324
428.16102	0.02326
426.87525	0.02320
425.58948	0.02304
424.30371	0.02286
423.01794	0.02269
421.73218	0.02257
420.44641	0.02247
419.16064	0.02237
417.87487	0.02226
416.58910	0.02215
415.30333	0.02205
414.01756	0.02196
412.73179	0.02190
411.44602	0.02187
410.16026	0.02193
408.87449	0.02208
407.58872	0.02229
406.30295	0.02248
405.01718	0.02256
403.73141	0.02254
402.44564	0.02249
401.15987	0.02248
399.87411	0.02252
