3997.45528	0.03455
3996.16951	0.03393
3994.88374	0.03357
3993.59798	0.03366
3992.31221	0.03406
3991.02644	0.03438
3989.74067	0.03439
3988.45490	0.03431
3987.16913	0.03452
3985.88336	0.03496
3984.59759	0.03516
3983.31183	0.03477
3982.02606	0.03399
3980.74029	0.03322
3979.45452	0.03267
3978.16875	0.03231
3976.88298	0.03206
3975.59721	0.03192
3974.31144	0.03190
3973.02567	0.03200
3971.73991	0.03220
3970.45414	0.03245
3969.16837	0.03268
3967.88260	0.03290
3966.59683	0.03304
3965.31106	0.03296
3964.02529	0.03260
3962.73952	0.03224
3961.45376	0.03226
3960.16799	0.03259
3958.88222	0.03276
3957.59645	0.03247
3956.31068	0.03190
3955.02491	0.03142
3953.73914	0.03104
3952.45337	0.03050
3951.16760	0.02970
3949.88184	0.02888
3948.59607	0.02844
3947.31030	0.02863
3946.02453	0.02935
3944.73876	0.03014
3943.45299	0.03048
3942.16722	0.03014
3940.88145	0.02935
3939.59569	0.02864
3938.30992	0.02850
3937.02415	0.02905
3935.73838	0.02994
3934.45261	0.03060
3933.16684	0.03074
3931.88107	0.03054
3930.59530	0.03038
3929.30953	0.03049
3928.02377	0.03076
3926.73800	0.03098
3925.45223	0.03099
3924.16646	0.03081
3922.88069	0.03060
3921.59492	0.03061
3920.30915	0.03092
3919.02338	0.03135
3917.73762	0.03169
3916.45185	0.03192
3915.16608	0.03206
3913.88031	0.03191
3912.59454	0.03118
3911.30877	0.03001
3910.02300	0.02903
3908.73723	0.02888
3907.45146	0.02958
3906.16570	0.03058
3904.87993	0.03127
3903.59416	0.03145
3902.30839	0.03130
3901.02262	0.03108
3899.73685	0.03086
3898.45108	0.03053
3897.16531	0.02997
3895.87955	0.02923
3894.59378	0.02858
3893.30801	0.02822
3892.02224	0.02821
3890.73647	0.02841
3889.45070	0.02875
3888.16493	0.02931
3886.87916	0.03008
3885.59339	0.03082
3884.30763	0.03121
3883.02186	0.03109
3881.73609	0.03055
3880.45032	0.02978
3879.16455	0.02895
3877.87878	0.02824
3876.59301	0.02788
3875.30724	0.02805
3874.02148	0.02866
3872.73571	0.02939
3871.44994	0.02992
3870.16417	0.03024
3868.87840	0.03061
3867.59263	0.03119
3866.30686	0.03171
3865.02109	0.03181
3863.73532	0.03137
3862.44956	0.03067
3861.16379	0.02990
3859.87802	0.02906
3858.59225	0.02808
3857.30648	0.02716
3856.02071	0.02672
3854.73494	0.02698
3853.44917	0.02779
3852.16341	0.02868
3850.87764	0.02924
3849.59187	0.02931
3848.30610	0.02904
3847.02033	0.02862
3845.73456	0.02820
3844.44879	0.02789
3843.16302	0.02782
3841.87725	0.02792
3840.59149	0.02794
3839.30572	0.02774
3838.01995	0.02753
3836.73418	0.02764
3835.44841	0.02813
3834.16264	0.02868
3832.87687	0.02887
3831.59110	0.02850
3830.30534	0.02773
3829.01957	0.02699
3827.73380	0.02673
3826.44803	0.02709
3825.16226	0.02779
3823.87649	0.02837
3822.59072	0.02855
3821.30495	0.02832
3820.01918	0.02794
3818.73342	0.02769
3817.44765	0.02768
3816.16188	0.02786
3814.87611	0.02805
3813.59034	0.02819
3812.30457	0.02822
3811.01880	0.02811
3809.73303	0.02777
3808.44726	0.02727
3807.16150	0.02684
3805.87573	0.02666
3804.58996	0.02664
3803.30419	0.02662
3802.01842	0.02666
3800.73265	0.02698
3799.44688	0.02762
3798.16111	0.02827
3796.87535	0.02850
3795.58958	0.02818
3794.30381	0.02752
3793.01804	0.02690
3791.73227	0.02659
3790.44650	0.02657
3789.16073	0.02672
3787.87496	0.02692
3786.58919	0.02715
3785.30343	0.02730
3784.01766	0.02722
3782.73189	0.02685
3781.44612	0.02637
3780.16035	0.02603
3778.87458	0.02597
3777.58881	0.02612
3776.30304	0.02639
3775.01728	0.02680
3773.73151	0.02731
3772.44574	0.02773
3771.15997	0.02782
3769.87420	0.02756
3768.58843	0.02714
3767.30266	0.02684
3766.01689	0.02685
3764.73112	0.02714
3763.44536	0.02741
3762.15959	0.02738
3760.87382	0.02712
3759.58805	0.02706
3758.30228	0.02749
3757.01651	0.02817
3755.73074	0.02854
3754.44497	0.02826
3753.15921	0.02755
3751.87344	0.02698
3750.58767	0.02692
3749.30190	0.02727
3748.01613	0.02764
3746.73036	0.02772
3745.44459	0.02753
3744.15882	0.02720
3742.87305	0.02682
3741.58729	0.02653
3740.30152	0.02647
3739.01575	0.02670
3737.72998	0.02699
3736.44421	0.02702
3735.15844	0.02672
3733.87267	0.02636
3732.58690	0.02620
3731.30114	0.02621
3730.01537	0.02621
3728.72960	0.02615
3727.44383	0.02618
3726.15806	0.02641
3724.87229	0.02663
3723.58652	0.02652
3722.30075	0.02596
3721.01498	0.02516
3719.72922	0.02456
3718.44345	0.02447
3717.15768	0.02487
3715.87191	0.02547
3714.58614	0.02591
3713.30037	0.02592
3712.01460	0.02540
3710.72883	0.02454
3709.44307	0.02391
3708.15730	0.02412
3706.87153	0.02523
3705.58576	0.02666
3704.29999	0.02767
3703.01422	0.02802
3701.72845	0.02803
3700.44268	0.02808
3699.15691	0.02823
3697.87115	0.02822
3696.58538	0.02784
3695.29961	0.02714
3694.01384	0.02643
3692.72807	0.02591
3691.44230	0.02545
3690.15653	0.02482
3688.87076	0.02405
3687.58500	0.02347
3686.29923	0.02333
3685.01346	0.02349
3683.72769	0.02369
3682.44192	0.02383
3681.15615	0.02403
3679.87038	0.02437
3678.58461	0.02473
3677.29884	0.02490
3676.01308	0.02488
3674.72731	0.02494
3673.44154	0.02543
3672.15577	0.02632
3670.87000	0.02702
3669.58423	0.02694
3668.29846	0.02600
3667.01269	0.02470
3665.72693	0.02362
3664.44116	0.02311
3663.15539	0.02328
3661.86962	0.02398
3660.58385	0.02483
3659.29808	0.02533
3658.01231	0.02530
3656.72654	0.02501
3655.44077	0.02491
3654.15501	0.02508
3652.86924	0.02519
3651.58347	0.02500
3650.29770	0.02475
3649.01193	0.02483
3647.72616	0.02528
3646.44039	0.02582
3645.15462	0.02626
3643.86886	0.02656
3642.58309	0.02673
3641.29732	0.02673
3640.01155	0.02673
3638.72578	0.02697
3637.44001	0.02742
3636.15424	0.02767
3634.86847	0.02736
3633.58270	0.02653
3632.29694	0.02554
3631.01117	0.02473
3629.72540	0.02435
3628.43963	0.02457
3627.15386	0.02534
3625.86809	0.02623
3624.58232	0.02666
3623.29655	0.02646
3622.01079	0.02611
3620.72502	0.02620
3619.43925	0.02683
3618.15348	0.02755
3616.86771	0.02781
3615.58194	0.02748
3614.29617	0.02675
3613.01040	0.02587
3611.72463	0.02501
3610.43887	0.02437
3609.15310	0.02415
3607.86733	0.02441
3606.58156	0.02492
3605.29579	0.02534
3604.01002	0.02558
3602.72425	0.02580
3601.43848	0.02614
3600.15272	0.02654
3598.86695	0.02683
3597.58118	0.02697
3596.29541	0.02708
3595.00964	0.02725
3593.72387	0.02734
3592.43810	0.02722
3591.15233	0.02696
3589.86656	0.02684
3588.58080	0.02696
3587.29503	0.02708
3586.00926	0.02687
3584.72349	0.02630
3583.43772	0.02567
3582.15195	0.02536
3580.86618	0.02550
3579.58041	0.02593
3578.29464	0.02638
3577.00888	0.02669
3575.72311	0.02690
3574.43734	0.02714
3573.15157	0.02749
3571.86580	0.02793
3570.58003	0.02832
3569.29426	0.02855
3568.00849	0.02857
3566.72273	0.02844
3565.43696	0.02827
3564.15119	0.02817
3562.86542	0.02809
3561.57965	0.02793
3560.29388	0.02761
3559.00811	0.02719
3557.72234	0.02681
3556.43657	0.02661
3555.15081	0.02658
3553.86504	0.02665
3552.57927	0.02673
3551.29350	0.02678
3550.00773	0.02677
3548.72196	0.02674
3547.43619	0.02677
3546.15042	0.02686
3544.86466	0.02693
3543.57889	0.02692
3542.29312	0.02695
3541.00735	0.02718
3539.72158	0.02747
3538.43581	0.02749
3537.15004	0.02705
3535.86427	0.02634
3534.57850	0.02569
3533.29274	0.02542
3532.00697	0.02561
3530.72120	0.02617
3529.43543	0.02680
3528.14966	0.02719
3526.86389	0.02723
3525.57812	0.02707
3524.29235	0.02690
3523.00659	0.02681
3521.72082	0.02675
3520.43505	0.02666
3519.14928	0.02657
3517.86351	0.02662
3516.57774	0.02690
3515.29197	0.02731
3514.00620	0.02762
3512.72043	0.02769
3511.43467	0.02751
3510.14890	0.02718
3508.86313	0.02687
3507.57736	0.02688
3506.29159	0.02743
3505.00582	0.02839
3503.72005	0.02929
3502.43428	0.02963
3501.14852	0.02936
3499.86275	0.02880
3498.57698	0.02828
3497.29121	0.02784
3496.00544	0.02733
3494.71967	0.02681
3493.43390	0.02655
3492.14813	0.02674
3490.86236	0.02731
3489.57660	0.02796
3488.29083	0.02844
3487.00506	0.02858
3485.71929	0.02829
3484.43352	0.02756
3483.14775	0.02666
3481.86198	0.02608
3480.57621	0.02623
3479.29045	0.02700
3478.00468	0.02789
3476.71891	0.02846
3475.43314	0.02871
3474.14737	0.02890
3472.86160	0.02914
3471.57583	0.02936
3470.29006	0.02945
3469.00429	0.02947
3467.71853	0.02955
3466.43276	0.02976
3465.14699	0.03000
3463.86122	0.03006
3462.57545	0.02982
3461.28968	0.02937
3460.00391	0.02889
3458.71814	0.02852
3457.43238	0.02833
3456.14661	0.02842
3454.86084	0.02879
3453.57507	0.02921
3452.28930	0.02943
3451.00353	0.02941
3449.71776	0.02937
3448.43199	0.02951
3447.14622	0.02978
3445.86046	0.02993
3444.57469	0.02983
3443.28892	0.02956
3442.00315	0.02933
3440.71738	0.02929
3439.43161	0.02938
3438.14584	0.02942
3436.86007	0.02930
3435.57431	0.02911
3434.28854	0.02900
3433.00277	0.02904
3431.71700	0.02909
3430.43123	0.02911
3429.14546	0.02917
3427.85969	0.02938
3426.57392	0.02977
3425.28815	0.03024
3424.00239	0.03068
3422.71662	0.03097
3421.43085	0.03098
3420.14508	0.03066
3418.85931	0.03016
3417.57354	0.02972
3416.28777	0.02956
3415.00200	0.02968
3413.71624	0.02984
3412.43047	0.02979
3411.14470	0.02954
3409.85893	0.02932
3408.57316	0.02936
3407.28739	0.02962
3406.00162	0.02991
3404.71585	0.03009
3403.43008	0.03015
3402.14432	0.03010
3400.85855	0.02999
3399.57278	0.02984
3398.28701	0.02971
3397.00124	0.02967
3395.71547	0.02977
3394.42970	0.03000
3393.14393	0.03039
3391.85817	0.03088
3390.57240	0.03129
3389.28663	0.03139
3388.00086	0.03110
3386.71509	0.03050
3385.42932	0.02977
3384.14355	0.02910
3382.85778	0.02864
3381.57201	0.02846
3380.28625	0.02852
3379.00048	0.02874
3377.71471	0.02911
3376.42894	0.02957
3375.14317	0.03000
3373.85740	0.03025
3372.57163	0.03023
3371.28586	0.02999
3370.00010	0.02972
3368.71433	0.02967
3367.42856	0.02993
3366.14279	0.03041
3364.85702	0.03085
3363.57125	0.03100
3362.28548	0.03077
3360.99971	0.03028
3359.71394	0.02979
3358.42818	0.02958
3357.14241	0.02975
3355.85664	0.03009
3354.57087	0.03023
3353.28510	0.02997
3351.99933	0.02955
3350.71356	0.02939
3349.42779	0.02965
3348.14202	0.03003
3346.85626	0.03011
3345.57049	0.02978
3344.28472	0.02929
3342.99895	0.02905
3341.71318	0.02929
3340.42741	0.02999
3339.14164	0.03086
3337.85587	0.03156
3336.57011	0.03187
3335.28434	0.03173
3333.99857	0.03129
3332.71280	0.03085
3331.42703	0.03068
3330.14126	0.03086
3328.85549	0.03120
3327.56972	0.03147
3326.28395	0.03156
3324.99819	0.03154
3323.71242	0.03152
3322.42665	0.03149
3321.14088	0.03134
3319.85511	0.03100
3318.56934	0.03057
3317.28357	0.03033
3315.99780	0.03042
3314.71204	0.03072
3313.42627	0.03096
3312.14050	0.03101
3310.85473	0.03089
3309.56896	0.03071
3308.28319	0.03051
3306.99742	0.03030
3305.71165	0.03006
3304.42588	0.02981
3303.14012	0.02957
3301.85435	0.02935
3300.56858	0.02917
3299.28281	0.02904
3297.99704	0.02900
3296.71127	0.02910
3295.42550	0.02933
3294.13973	0.02967
3292.85397	0.03002
3291.56820	0.03031
3290.28243	0.03045
3288.99666	0.03031
3287.71089	0.02981
3286.42512	0.02909
3285.13935	0.02853
3283.85358	0.02851
3282.56781	0.02910
3281.28205	0.02995
3279.99628	0.03053
3278.71051	0.03051
3277.42474	0.03007
3276.13897	0.02962
3274.85320	0.02942
3273.56743	0.02940
3272.28166	0.02933
3270.99590	0.02913
3269.71013	0.02883
3268.42436	0.02852
3267.13859	0.02825
3265.85282	0.02813
3264.56705	0.02825
3263.28128	0.02859
3261.99551	0.02903
3260.70974	0.02939
3259.42398	0.02952
3258.13821	0.02933
3256.85244	0.02894
3255.56667	0.02856
3254.28090	0.02844
3252.99513	0.02868
3251.70936	0.02909
3250.42359	0.02944
3249.13783	0.02966
3247.85206	0.02983
3246.56629	0.02996
3245.28052	0.02999
3243.99475	0.02988
3242.70898	0.02978
3241.42321	0.02982
3240.13744	0.02995
3238.85167	0.02994
3237.56591	0.02968
3236.28014	0.02931
3234.99437	0.02898
3233.70860	0.02871
3232.42283	0.02839
3231.13706	0.02800
3229.85129	0.02774
3228.56552	0.02781
3227.27976	0.02820
3225.99399	0.02868
3224.70822	0.02901
3223.42245	0.02909
3222.13668	0.02891
3220.85091	0.02858
3219.56514	0.02824
3218.27937	0.02798
3216.99360	0.02790
3215.70784	0.02799
3214.42207	0.02821
3213.13630	0.02839
3211.85053	0.02840
3210.56476	0.02821
3209.27899	0.02789
3207.99322	0.02759
3206.70745	0.02742
3205.42169	0.02743
3204.13592	0.02764
3202.85015	0.02797
3201.56438	0.02826
3200.27861	0.02835
3198.99284	0.02826
3197.70707	0.02819
3196.42130	0.02835
3195.13553	0.02865
3193.84977	0.02885
3192.56400	0.02877
3191.27823	0.02854
3189.99246	0.02842
3188.70669	0.02854
3187.42092	0.02876
3186.13515	0.02878
3184.84938	0.02842
3183.56362	0.02777
3182.27785	0.02717
3180.99208	0.02695
3179.70631	0.02718
3178.42054	0.02761
3177.13477	0.02786
3175.84900	0.02769
3174.56323	0.02714
3173.27746	0.02651
3171.99170	0.02616
3170.70593	0.02632
3169.42016	0.02686
3168.13439	0.02748
3166.84862	0.02789
3165.56285	0.02803
3164.27708	0.02797
3162.99131	0.02782
3161.70555	0.02757
3160.41978	0.02722
3159.13401	0.02689
3157.84824	0.02679
3156.56247	0.02701
3155.27670	0.02740
3153.99093	0.02771
3152.70516	0.02784
3151.41939	0.02788
3150.13363	0.02793
3148.84786	0.02796
3147.56209	0.02783
3146.27632	0.02752
3144.99055	0.02717
3143.70478	0.02686
3142.41901	0.02662
3141.13324	0.02644
3139.84748	0.02636
3138.56171	0.02640
3137.27594	0.02653
3135.99017	0.02671
3134.70440	0.02693
3133.41863	0.02713
3132.13286	0.02722
3130.84709	0.02721
3129.56132	0.02721
3128.27556	0.02723
3126.98979	0.02723
3125.70402	0.02717
3124.41825	0.02707
3123.13248	0.02684
3121.84671	0.02645
3120.56094	0.02599
3119.27517	0.02572
3117.98940	0.02579
3116.70364	0.02611
3115.41787	0.02640
3114.13210	0.02649
3112.84633	0.02639
3111.56056	0.02628
3110.27479	0.02627
3108.98902	0.02631
3107.70325	0.02633
3106.41749	0.02630
3105.13172	0.02622
3103.84595	0.02606
3102.56018	0.02581
3101.27441	0.02558
3099.98864	0.02549
3098.70287	0.02558
3097.41710	0.02577
3096.13133	0.02594
3094.84557	0.02595
3093.55980	0.02572
3092.27403	0.02527
3090.98826	0.02479
3089.70249	0.02453
3088.41672	0.02460
3087.13095	0.02492
3085.84518	0.02533
3084.55942	0.02568
3083.27365	0.02584
3081.98788	0.02577
3080.70211	0.02551
3079.41634	0.02525
3078.13057	0.02516
3076.84480	0.02523
3075.55903	0.02539
3074.27326	0.02557
3072.98750	0.02572
3071.70173	0.02579
3070.41596	0.02571
3069.13019	0.02548
3067.84442	0.02518
3066.55865	0.02485
3065.27288	0.02445
3063.98711	0.02403
3062.70135	0.02381
3061.41558	0.02398
3060.12981	0.02443
3058.84404	0.02482
3057.55827	0.02490
3056.27250	0.02475
3054.98673	0.02463
3053.70096	0.02469
3052.41519	0.02493
3051.12943	0.02523
3049.84366	0.02550
3048.55789	0.02568
3047.27212	0.02574
3045.98635	0.02568
3044.70058	0.02555
3043.41481	0.02541
3042.12904	0.02527
3040.84328	0.02506
3039.55751	0.02474
3038.27174	0.02438
3036.98597	0.02405
3035.70020	0.02375
3034.41443	0.02348
3033.12866	0.02325
3031.84289	0.02318
3030.55712	0.02335
3029.27136	0.02370
3027.98559	0.02407
3026.69982	0.02432
3025.41405	0.02445
3024.12828	0.02452
3022.84251	0.02451
3021.55674	0.02437
3020.27097	0.02409
3018.98521	0.02380
3017.69944	0.02368
3016.41367	0.02374
3015.12790	0.02388
3013.84213	0.02400
3012.55636	0.02405
3011.27059	0.02406
3009.98482	0.02397
3008.69905	0.02376
3007.41329	0.02344
3006.12752	0.02313
3004.84175	0.02293
3003.55598	0.02282
3002.27021	0.02278
3000.98444	0.02282
2999.69867	0.02301
2998.41290	0.02330
2997.12714	0.02352
2995.84137	0.02349
2994.55560	0.02329
2993.26983	0.02311
2991.98406	0.02307
2990.69829	0.02313
2989.41252	0.02320
2988.12675	0.02330
2986.84098	0.02350
2985.55522	0.02375
2984.26945	0.02393
2982.98368	0.02403
2981.69791	0.02418
2980.41214	0.02447
2979.12637	0.02480
2977.84060	0.02497
2976.55483	0.02487
2975.26907	0.02462
2973.98330	0.02445
2972.69753	0.02450
2971.41176	0.02475
2970.12599	0.02507
2968.84022	0.02535
2967.55445	0.02558
2966.26868	0.02581
2964.98291	0.02608
2963.69715	0.02638
2962.41138	0.02666
2961.12561	0.02691
2959.83984	0.02722
2958.55407	0.02765
2957.26830	0.02816
2955.98253	0.02859
2954.69676	0.02887
2953.41100	0.02906
2952.12523	0.02924
2950.83946	0.02940
2949.55369	0.02945
2948.26792	0.02945
2946.98215	0.02951
2945.69638	0.02970
2944.41061	0.02991
2943.12484	0.02996
2941.83908	0.02981
2940.55331	0.02953
2939.26754	0.02929
2937.98177	0.02919
2936.69600	0.02926
2935.41023	0.02948
2934.12446	0.02981
2932.83869	0.03019
2931.55293	0.03056
2930.26716	0.03095
2928.98139	0.03140
2927.69562	0.03190
2926.40985	0.03235
2925.12408	0.03269
2923.83831	0.03292
2922.55254	0.03305
2921.26677	0.03310
2919.98101	0.03308
2918.69524	0.03304
2917.40947	0.03291
2916.12370	0.03261
2914.83793	0.03209
2913.55216	0.03146
2912.26639	0.03093
2910.98062	0.03065
2909.69486	0.03059
2908.40909	0.03059
2907.12332	0.03045
2905.83755	0.03019
2904.55178	0.02996
2903.26601	0.02983
2901.98024	0.02971
2900.69447	0.02948
2899.40870	0.02920
2898.12294	0.02895
2896.83717	0.02878
2895.55140	0.02863
2894.26563	0.02844
2892.97986	0.02822
2891.69409	0.02802
2890.40832	0.02788
2889.12255	0.02784
2887.83678	0.02782
2886.55102	0.02779
2885.26525	0.02773
2883.97948	0.02765
2882.69371	0.02754
2881.40794	0.02737
2880.12217	0.02723
2878.83640	0.02722
2877.55063	0.02736
2876.26487	0.02755
2874.97910	0.02768
2873.69333	0.02778
2872.40756	0.02790
2871.12179	0.02807
2869.83602	0.02822
2868.55025	0.02833
2867.26448	0.02845
2865.97871	0.02865
2864.69295	0.02894
2863.40718	0.02915
2862.12141	0.02910
2860.83564	0.02875
2859.54987	0.02833
2858.26410	0.02806
2856.97833	0.02802
2855.69256	0.02806
2854.40680	0.02810
2853.12103	0.02811
2851.83526	0.02811
2850.54949	0.02808
2849.26372	0.02799
2847.97795	0.02785
2846.69218	0.02766
2845.40641	0.02740
2844.12064	0.02711
2842.83488	0.02683
2841.54911	0.02653
2840.26334	0.02611
2838.97757	0.02563
2837.69180	0.02524
2836.40603	0.02510
2835.12026	0.02517
2833.83449	0.02525
2832.54873	0.02516
2831.26296	0.02486
2829.97719	0.02445
2828.69142	0.02411
2827.40565	0.02392
2826.11988	0.02381
2824.83411	0.02371
2823.54834	0.02360
2822.26257	0.02347
2820.97681	0.02335
2819.69104	0.02322
2818.40527	0.02311
2817.11950	0.02302
2815.83373	0.02296
2814.54796	0.02294
2813.26219	0.02300
2811.97642	0.02315
2810.69066	0.02328
2809.40489	0.02325
2808.11912	0.02297
2806.83335	0.02254
2805.54758	0.02219
2804.26181	0.02206
2802.97604	0.02216
2801.69027	0.02236
2800.40450	0.02249
2799.11874	0.02241
2797.83297	0.02210
2796.54720	0.02170
2795.26143	0.02141
2793.97566	0.02130
2792.68989	0.02133
2791.40412	0.02147
2790.11835	0.02168
2788.83259	0.02188
2787.54682	0.02198
2786.26105	0.02197
2784.97528	0.02189
2783.68951	0.02180
2782.40374	0.02169
2781.11797	0.02159
2779.83220	0.02155
2778.54643	0.02160
2777.26067	0.02168
2775.97490	0.02172
2774.68913	0.02166
2773.40336	0.02152
2772.11759	0.02137
2770.83182	0.02124
2769.54605	0.02116
2768.26028	0.02112
2766.97452	0.02112
2765.68875	0.02117
2764.40298	0.02124
2763.11721	0.02131
2761.83144	0.02135
2760.54567	0.02131
2759.25990	0.02115
2757.97413	0.02085
2756.68836	0.02053
2755.40260	0.02036
2754.11683	0.02045
2752.83106	0.02076
2751.54529	0.02111
2750.25952	0.02133
2748.97375	0.02132
2747.68798	0.02104
2746.40221	0.02060
2745.11645	0.02019
2743.83068	0.02006
2742.54491	0.02023
2741.25914	0.02052
2739.97337	0.02073
2738.68760	0.02074
2737.40183	0.02063
2736.11606	0.02053
2734.83029	0.02050
2733.54453	0.02046
2732.25876	0.02037
2730.97299	0.02024
2729.68722	0.02017
2728.40145	0.02017
2727.11568	0.02021
2725.82991	0.02024
2724.54414	0.02026
2723.25838	0.02026
2721.97261	0.02021
2720.68684	0.02014
2719.40107	0.02008
2718.11530	0.02006
2716.82953	0.02007
2715.54376	0.02012
2714.25799	0.02021
2712.97222	0.02035
2711.68646	0.02047
2710.40069	0.02057
2709.11492	0.02064
2707.82915	0.02070
2706.54338	0.02071
2705.25761	0.02064
2703.97184	0.02050
2702.68607	0.02036
2701.40031	0.02025
2700.11454	0.02017
2698.82877	0.02007
2697.54300	0.01996
2696.25723	0.01992
2694.97146	0.01997
2693.68569	0.02008
2692.39992	0.02020
2691.11415	0.02023
2689.82839	0.02014
2688.54262	0.01994
2687.25685	0.01973
2685.97108	0.01961
2684.68531	0.01960
2683.39954	0.01964
2682.11377	0.01966
2680.82800	0.01966
2679.54224	0.01965
2678.25647	0.01963
2676.97070	0.01964
2675.68493	0.01973
2674.39916	0.01986
2673.11339	0.01994
2671.82762	0.01989
2670.54185	0.01978
2669.25608	0.01978
2667.97032	0.01997
2666.68455	0.02025
2665.39878	0.02042
2664.11301	0.02036
2662.82724	0.02016
2661.54147	0.02000
2660.25570	0.01997
2658.96993	0.02006
2657.68417	0.02021
2656.39840	0.02035
2655.11263	0.02033
2653.82686	0.02014
2652.54109	0.01992
2651.25532	0.01985
2649.96955	0.01991
2648.68378	0.01990
2647.39801	0.01972
2646.11225	0.01943
2644.82648	0.01920
2643.54071	0.01911
2642.25494	0.01911
2640.96917	0.01910
2639.68340	0.01898
2638.39763	0.01877
2637.11186	0.01854
2635.82609	0.01836
2634.54033	0.01826
2633.25456	0.01826
2631.96879	0.01832
2630.68302	0.01839
2629.39725	0.01841
2628.11148	0.01836
2626.82571	0.01829
2625.53994	0.01821
2624.25418	0.01814
2622.96841	0.01801
2621.68264	0.01779
2620.39687	0.01744
2619.11110	0.01703
2617.82533	0.01669
2616.53956	0.01657
2615.25379	0.01674
2613.96802	0.01706
2612.68226	0.01728
2611.39649	0.01727
2610.11072	0.01711
2608.82495	0.01696
2607.53918	0.01697
2606.25341	0.01710
2604.96764	0.01721
2603.68187	0.01717
2602.39611	0.01701
2601.11034	0.01689
2599.82457	0.01694
2598.53880	0.01713
2597.25303	0.01731
2595.96726	0.01731
2594.68149	0.01715
2593.39572	0.01701
2592.10995	0.01706
2590.82419	0.01726
2589.53842	0.01744
2588.25265	0.01752
2586.96688	0.01750
2585.68111	0.01747
2584.39534	0.01743
2583.10957	0.01738
2581.82380	0.01738
2580.53804	0.01748
2579.25227	0.01761
2577.96650	0.01755
2576.68073	0.01718
2575.39496	0.01664
2574.10919	0.01618
2572.82342	0.01593
2571.53765	0.01589
2570.25188	0.01599
2568.96612	0.01624
2567.68035	0.01661
2566.39458	0.01694
2565.10881	0.01705
2563.82304	0.01690
2562.53727	0.01659
2561.25150	0.01629
2559.96573	0.01607
2558.67997	0.01591
2557.39420	0.01577
2556.10843	0.01570
2554.82266	0.01581
2553.53689	0.01610
2552.25112	0.01641
2550.96535	0.01651
2549.67958	0.01634
2548.39381	0.01598
2547.10805	0.01553
2545.82228	0.01516
2544.53651	0.01500
2543.25074	0.01516
2541.96497	0.01551
2540.67920	0.01577
2539.39343	0.01579
2538.10766	0.01571
2536.82190	0.01575
2535.53613	0.01598
2534.25036	0.01624
2532.96459	0.01637
2531.67882	0.01641
2530.39305	0.01652
2529.10728	0.01671
2527.82151	0.01681
2526.53574	0.01662
2525.24998	0.01613
2523.96421	0.01553
2522.67844	0.01505
2521.39267	0.01477
2520.10690	0.01465
2518.82113	0.01462
2517.53536	0.01467
2516.24959	0.01480
2514.96383	0.01496
2513.67806	0.01508
2512.39229	0.01515
2511.10652	0.01518
2509.82075	0.01511
2508.53498	0.01487
2507.24921	0.01438
2505.96344	0.01375
2504.67767	0.01331
2503.39191	0.01340
2502.10614	0.01404
2500.82037	0.01477
2499.53460	0.01512
2498.24883	0.01501
2496.96306	0.01479
2495.67729	0.01477
2494.39152	0.01493
2493.10576	0.01511
2491.81999	0.01523
2490.53422	0.01526
2489.24845	0.01514
2487.96268	0.01490
2486.67691	0.01471
2485.39114	0.01479
2484.10537	0.01507
2482.81960	0.01534
2481.53384	0.01549
2480.24807	0.01562
2478.96230	0.01579
2477.67653	0.01591
2476.39076	0.01583
2475.10499	0.01556
2473.81922	0.01524
2472.53345	0.01494
2471.24769	0.01466
2469.96192	0.01436
2468.67615	0.01409
2467.39038	0.01397
2466.10461	0.01410
2464.81884	0.01447
2463.53307	0.01491
2462.24730	0.01517
2460.96153	0.01510
2459.67577	0.01475
2458.39000	0.01432
2457.10423	0.01400
2455.81846	0.01389
2454.53269	0.01400
2453.24692	0.01422
2451.96115	0.01434
2450.67538	0.01419
2449.38962	0.01382
2448.10385	0.01352
2446.81808	0.01359
2445.53231	0.01405
2444.24654	0.01464
2442.96077	0.01502
2441.67500	0.01503
2440.38923	0.01477
2439.10346	0.01450
2437.81770	0.01438
2436.53193	0.01433
2435.24616	0.01422
2433.96039	0.01404
2432.67462	0.01392
2431.38885	0.01400
2430.10308	0.01424
2428.81731	0.01456
2427.53155	0.01487
2426.24578	0.01498
2424.96001	0.01475
2423.67424	0.01422
2422.38847	0.01371
2421.10270	0.01354
2419.81693	0.01378
2418.53116	0.01424
2417.24539	0.01466
2415.95963	0.01483
2414.67386	0.01475
2413.38809	0.01451
2412.10232	0.01424
2410.81655	0.01402
2409.53078	0.01387
2408.24501	0.01375
2406.95924	0.01360
2405.67347	0.01338
2404.38771	0.01320
2403.10194	0.01320
2401.81617	0.01340
2400.53040	0.01369
2399.24463	0.01382
2397.95886	0.01377
2396.67309	0.01361
2395.38732	0.01347
2394.10156	0.01345
2392.81579	0.01351
2391.53002	0.01353
2390.24425	0.01345
2388.95848	0.01331
2387.67271	0.01323
2386.38694	0.01331
2385.10117	0.01353
2383.81540	0.01374
2382.52964	0.01379
2381.24387	0.01370
2379.95810	0.01361
2378.67233	0.01363
2377.38656	0.01375
2376.10079	0.01390
2374.81502	0.01400
2373.52925	0.01401
2372.24349	0.01394
2370.95772	0.01383
2369.67195	0.01377
2368.38618	0.01381
2367.10041	0.01389
2365.81464	0.01397
2364.52887	0.01410
2363.24310	0.01424
2361.95733	0.01436
2360.67157	0.01450
2359.38580	0.01475
2358.10003	0.01502
2356.81426	0.01521
2355.52849	0.01524
2354.24272	0.01512
2352.95695	0.01499
2351.67118	0.01487
2350.38542	0.01474
2349.09965	0.01465
2347.81388	0.01464
2346.52811	0.01462
2345.24234	0.01459
2343.95657	0.01461
2342.67080	0.01476
2341.38503	0.01487
2340.09926	0.01488
2338.81350	0.01488
2337.52773	0.01493
2336.24196	0.01500
2334.95619	0.01508
2333.67042	0.01510
2332.38465	0.01505
2331.09888	0.01476
2329.81311	0.01452
2328.52735	0.01475
2327.24158	0.01522
2325.95581	0.01579
2324.67004	0.01635
2323.38427	0.01648
2322.09850	0.01619
2320.81273	0.01594
2319.52696	0.01567
2318.24119	0.01541
2316.95543	0.01520
2315.66966	0.01487
2314.38389	0.01460
2313.09812	0.01452
2311.81235	0.01451
2310.52658	0.01456
2309.24081	0.01462
2307.95504	0.01468
2306.66928	0.01477
2305.38351	0.01478
2304.09774	0.01469
2302.81197	0.01456
2301.52620	0.01442
2300.24043	0.01435
2298.95466	0.01426
2297.66889	0.01406
2296.38312	0.01375
2295.09736	0.01344
2293.81159	0.01333
2292.52582	0.01347
2291.24005	0.01375
2289.95428	0.01400
2288.66851	0.01410
2287.38274	0.01398
2286.09697	0.01364
2284.81121	0.01323
2283.52544	0.01299
2282.23967	0.01301
2280.95390	0.01317
2279.66813	0.01327
2278.38236	0.01326
2277.09659	0.01327
2275.81082	0.01331
2274.52505	0.01320
2273.23929	0.01279
2271.95352	0.01216
2270.66775	0.01161
2269.38198	0.01140
2268.09621	0.01160
2266.81044	0.01208
2265.52467	0.01259
2264.23890	0.01288
2262.95314	0.01288
2261.66737	0.01275
2260.38160	0.01273
2259.09583	0.01290
2257.81006	0.01309
2256.52429	0.01312
2255.23852	0.01290
2253.95275	0.01248
2252.66698	0.01194
2251.38122	0.01137
2250.09545	0.01100
2248.80968	0.01102
2247.52391	0.01140
2246.23814	0.01189
2244.95237	0.01213
2243.66660	0.01186
2242.38083	0.01107
2241.09507	0.01005
2239.80930	0.00939
2238.52353	0.00954
2237.23776	0.01044
2235.95199	0.01142
2234.66622	0.01187
2233.38045	0.01169
2232.09468	0.01132
2230.80891	0.01108
2229.52315	0.01106
2228.23738	0.01120
2226.95161	0.01138
2225.66584	0.01132
2224.38007	0.01074
2223.09430	0.00974
2221.80853	0.00882
2220.52276	0.00839
2219.23700	0.00843
2217.95123	0.00874
2216.66546	0.00911
2215.37969	0.00936
2214.09392	0.00948
2212.80815	0.00963
2211.52238	0.00990
2210.23661	0.01014
2208.95084	0.01024
2207.66508	0.01035
2206.37931	0.01057
2205.09354	0.01064
2203.80777	0.01030
2202.52200	0.00962
2201.23623	0.00892
2199.95046	0.00859
2198.66469	0.00893
2197.37893	0.00993
2196.09316	0.01104
2194.80739	0.01150
2193.52162	0.01107
2192.23585	0.01025
2190.95008	0.00972
2189.66431	0.00980
2188.37854	0.01032
2187.09277	0.01096
2185.80701	0.01143
2184.52124	0.01142
2183.23547	0.01066
2181.94970	0.00916
2180.66393	0.00742
2179.37816	0.00619
2178.09239	0.00592
2176.80662	0.00652
2175.52085	0.00743
2174.23509	0.00806
2172.94932	0.00813
2171.66355	0.00787
2170.37778	0.00777
2169.09201	0.00804
2167.80624	0.00843
2166.52047	0.00859
2165.23470	0.00863
2163.94894	0.00896
2162.66317	0.00960
2161.37740	0.00989
2160.09163	0.00908
2158.80586	0.00723
2157.52009	0.00534
2156.23432	0.00448
2154.94855	0.00496
2153.66278	0.00627
2152.37702	0.00748
2151.09125	0.00794
2149.80548	0.00768
2148.51971	0.00726
2147.23394	0.00699
2145.94817	0.00672
2144.66240	0.00642
2143.37663	0.00652
2142.09087	0.00728
2140.80510	0.00824
2139.51933	0.00861
2138.23356	0.00812
2136.94779	0.00740
2135.66202	0.00729
2134.37625	0.00796
2133.09048	0.00886
2131.80471	0.00929
2130.51895	0.00903
2129.23318	0.00842
2127.94741	0.00792
2126.66164	0.00772
2125.37587	0.00779
2124.09010	0.00794
2122.80433	0.00799
2121.51856	0.00789
2120.23280	0.00775
2118.94703	0.00785
2117.66126	0.00831
2116.37549	0.00892
2115.08972	0.00927
2113.80395	0.00918
2112.51818	0.00885
2111.23241	0.00868
2109.94664	0.00889
2108.66088	0.00944
2107.37511	0.01003
2106.08934	0.01025
2104.80357	0.00984
2103.51780	0.00889
2102.23203	0.00790
2100.94626	0.00729
2099.66049	0.00591
2098.37473	0.00533
2097.08896	0.00527
2095.80319	0.00535
2094.51742	0.00576
2093.23165	0.00664
2091.94588	0.00776
2090.66011	0.00862
2089.37434	0.00892
2088.08857	0.00873
2086.80281	0.00839
2085.51704	0.00822
2084.23127	0.00826
2082.94550	0.00835
2081.65973	0.00827
2080.37396	0.00784
2079.08819	0.00703
2077.80242	0.00600
2076.51666	0.00511
2075.23089	0.00465
2073.94512	0.00467
2072.65935	0.00501
2071.37358	0.00545
2070.08781	0.00583
2068.80204	0.00601
2067.51627	0.00597
2066.23050	0.00577
2064.94474	0.00564
2063.65897	0.00581
2062.37320	0.00634
2061.08743	0.00703
2059.80166	0.00751
2058.51589	0.00753
2057.23012	0.00719
2055.94435	0.00687
2054.65859	0.00690
2053.37282	0.00722
2052.08705	0.00735
2050.80128	0.00684
2049.51551	0.00568
2048.22974	0.00429
2046.94397	0.00319
2045.65820	0.00262
2044.37243	0.00255
2043.08667	0.00278
2041.80090	0.00311
2040.51513	0.00344
2039.22936	0.00369
2037.94359	0.00374
2036.65782	0.00354
2035.37205	0.00322
2034.08628	0.00304
2032.80052	0.00314
2031.51475	0.00338
2030.22898	0.00343
2028.94321	0.00309
2027.65744	0.00255
2026.37167	0.00222
2025.08590	0.00233
2023.80013	0.00279
2022.51436	0.00335
2021.22860	0.00377
2019.94283	0.00387
2018.65706	0.00344
2017.37129	0.00248
2016.08552	0.00130
2014.79975	0.00045
2013.51398	0.00028
2012.22821	0.00076
2010.94245	0.00161
2009.65668	0.00258
2008.37091	0.00368
2007.08514	0.00495
2005.79937	0.00614
2004.51360	0.00681
2003.22783	0.00673
2001.94206	0.00631
2000.65629	0.00620
1999.37053	0.00667
1998.08476	0.00749
1996.79899	0.00824
1995.51322	0.00873
1994.22745	0.00887
1992.94168	0.00858
1991.65591	0.00789
1990.37014	0.00705
1989.08438	0.00638
1987.79861	0.00598
1986.51284	0.00561
1985.22707	0.00496
1983.94130	0.00395
1982.65553	0.00279
1981.36976	0.00172
1980.08399	0.00080
1978.79822	-0.00010
1977.51246	-0.00088
1976.22669	-0.00120
1974.94092	-0.00082
1973.65515	0.00005
1972.36938	0.00106
1971.08361	0.00199
1969.79784	0.00279
1968.51207	0.00338
1967.22631	0.00363
1965.94054	0.00362
1964.65477	0.00370
1963.36900	0.00416
1962.08323	0.00485
1960.79746	0.00537
1959.51169	0.00543
1958.22592	0.00512
1956.94015	0.00472
1955.65439	0.00442
1954.36862	0.00426
1953.08285	0.00426
1951.79708	0.00454
1950.51131	0.00515
1949.22554	0.00583
1947.93977	0.00622
1946.65400	0.00618
1945.36823	0.00601
1944.08247	0.00605
1942.79670	0.00630
1941.51093	0.00649
1940.22516	0.00646
1938.93939	0.00636
1937.65362	0.00638
1936.36785	0.00640
1935.08208	0.00623
1933.79632	0.00595
1932.51055	0.00590
1931.22478	0.00630
1929.93901	0.00696
1928.65324	0.00753
1927.36747	0.00779
1926.08170	0.00776
1924.79593	0.00760
1923.51016	0.00745
1922.22440	0.00739
1920.93863	0.00738
1919.65286	0.00740
1918.36709	0.00741
1917.08132	0.00742
1915.79555	0.00735
1914.50978	0.00716
1913.22401	0.00689
1911.93825	0.00673
1910.65248	0.00679
1909.36671	0.00702
1908.08094	0.00724
1906.79517	0.00732
1905.50940	0.00732
1904.22363	0.00731
1902.93786	0.00728
1901.65209	0.00719
1900.36633	0.00708
1899.08056	0.00705
1897.79479	0.00714
1896.50902	0.00731
1895.22325	0.00741
1893.93748	0.00729
1892.65171	0.00690
1891.36594	0.00639
1890.08018	0.00605
1888.79441	0.00612
1887.50864	0.00660
1886.22287	0.00722
1884.93710	0.00767
1883.65133	0.00780
1882.36556	0.00767
1881.07979	0.00748
1879.79402	0.00736
1878.50826	0.00735
1877.22249	0.00738
1875.93672	0.00738
1874.65095	0.00730
1873.36518	0.00720
1872.07941	0.00716
1870.79364	0.00726
1869.50787	0.00744
1868.22211	0.00760
1866.93634	0.00766
1865.65057	0.00762
1864.36480	0.00757
1863.07903	0.00753
1861.79326	0.00749
1860.50749	0.00744
1859.22172	0.00740
1857.93595	0.00741
1856.65019	0.00747
1855.36442	0.00755
1854.07865	0.00762
1852.79288	0.00765
1851.50711	0.00765
1850.22134	0.00764
1848.93557	0.00761
1847.64980	0.00759
1846.36404	0.00761
1845.07827	0.00764
1843.79250	0.00768
1842.50673	0.00771
1841.22096	0.00772
1839.93519	0.00774
1838.64942	0.00780
1837.36365	0.00787
1836.07788	0.00788
1834.79212	0.00782
1833.50635	0.00773
1832.22058	0.00764
1830.93481	0.00756
1829.64904	0.00749
1828.36327	0.00743
1827.07750	0.00735
1825.79173	0.00720
1824.50597	0.00696
1823.22020	0.00674
1821.93443	0.00664
1820.64866	0.00667
1819.36289	0.00678
1818.07712	0.00697
1816.79135	0.00730
1815.50558	0.00776
1814.21981	0.00823
1812.93405	0.00857
1811.64828	0.00877
1810.36251	0.00891
1809.07674	0.00904
1807.79097	0.00914
1806.50520	0.00915
1805.21943	0.00905
1803.93366	0.00885
1802.64790	0.00860
1801.36213	0.00833
1800.07636	0.00814
1798.79059	0.00806
1797.50482	0.00808
1796.21905	0.00812
1794.93328	0.00812
1793.64751	0.00810
1792.36174	0.00812
1791.07598	0.00820
1789.79021	0.00832
1788.50444	0.00842
1787.21867	0.00847
1785.93290	0.00845
1784.64713	0.00838
1783.36136	0.00829
1782.07559	0.00820
1780.78983	0.00812
1779.50406	0.00799
1778.21829	0.00784
1776.93252	0.00773
1775.64675	0.00772
1774.36098	0.00781
1773.07521	0.00795
1771.78944	0.00809
1770.50367	0.00826
1769.21791	0.00846
1767.93214	0.00868
1766.64637	0.00886
1765.36060	0.00894
1764.07483	0.00894
1762.78906	0.00891
1761.50329	0.00892
1760.21752	0.00897
1758.93176	0.00903
1757.64599	0.00902
1756.36022	0.00893
1755.07445	0.00877
1753.78868	0.00859
1752.50291	0.00849
1751.21714	0.00852
1749.93137	0.00865
1748.64560	0.00880
1747.35984	0.00887
1746.07407	0.00882
1744.78830	0.00868
1743.50253	0.00852
1742.21676	0.00842
1740.93099	0.00845
1739.64522	0.00857
1738.35945	0.00871
1737.07369	0.00880
1735.78792	0.00881
1734.50215	0.00879
1733.21638	0.00883
1731.93061	0.00892
1730.64484	0.00904
1729.35907	0.00914
1728.07330	0.00922
1726.78753	0.00930
1725.50177	0.00940
1724.21600	0.00951
1722.93023	0.00962
1721.64446	0.00973
1720.35869	0.00978
1719.07292	0.00978
1717.78715	0.00976
1716.50138	0.00980
1715.21561	0.00993
1713.92985	0.01010
1712.64408	0.01022
1711.35831	0.01028
1710.07254	0.01033
1708.78677	0.01042
1707.50100	0.01055
1706.21523	0.01067
1704.92946	0.01076
1703.64370	0.01083
1702.35793	0.01094
1701.07216	0.01114
1699.78639	0.01139
1698.50062	0.01163
1697.21485	0.01183
1695.92908	0.01201
1694.64331	0.01221
1693.35754	0.01244
1692.07178	0.01264
1690.78601	0.01278
1689.50024	0.01286
1688.21447	0.01289
1686.92870	0.01287
1685.64293	0.01288
1684.35716	0.01303
1683.07139	0.01336
1681.78563	0.01379
1680.49986	0.01417
1679.21409	0.01444
1677.92832	0.01462
1676.64255	0.01479
1675.35678	0.01503
1674.07101	0.01535
1672.78524	0.01570
1671.49947	0.01600
1670.21371	0.01625
1668.92794	0.01646
1667.64217	0.01666
1666.35640	0.01684
1665.07063	0.01697
1663.78486	0.01706
1662.49909	0.01711
1661.21332	0.01719
1659.92756	0.01729
1658.64179	0.01742
1657.35602	0.01749
1656.07025	0.01744
1654.78448	0.01729
1653.49871	0.01719
1652.21294	0.01725
1650.92717	0.01747
1649.64140	0.01774
1648.35564	0.01796
1647.06987	0.01815
1645.78410	0.01832
1644.49833	0.01846
1643.21256	0.01851
1641.92679	0.01846
1640.64102	0.01833
1639.35525	0.01816
1638.06949	0.01796
1636.78372	0.01776
1635.49795	0.01763
1634.21218	0.01760
1632.92641	0.01768
1631.64064	0.01778
1630.35487	0.01783
1629.06910	0.01782
1627.78333	0.01777
1626.49757	0.01767
1625.21180	0.01752
1623.92603	0.01736
1622.64026	0.01724
1621.35449	0.01718
1620.06872	0.01715
1618.78295	0.01708
1617.49718	0.01699
1616.21142	0.01689
1614.92565	0.01683
1613.63988	0.01680
1612.35411	0.01677
1611.06834	0.01672
1609.78257	0.01665
1608.49680	0.01662
1607.21103	0.01667
1605.92526	0.01678
1604.63950	0.01689
1603.35373	0.01695
1602.06796	0.01697
1600.78219	0.01698
1599.49642	0.01700
1598.21065	0.01705
1596.92488	0.01713
1595.63911	0.01723
1594.35335	0.01734
1593.06758	0.01743
1591.78181	0.01750
1590.49604	0.01758
1589.21027	0.01767
1587.92450	0.01778
1586.63873	0.01789
1585.35296	0.01799
1584.06719	0.01809
1582.78143	0.01820
1581.49566	0.01832
1580.20989	0.01843
1578.92412	0.01852
1577.63835	0.01860
1576.35258	0.01870
1575.06681	0.01886
1573.78104	0.01903
1572.49528	0.01917
1571.20951	0.01928
1569.92374	0.01940
1568.63797	0.01959
1567.35220	0.01983
1566.06643	0.02010
1564.78066	0.02031
1563.49489	0.02041
1562.20912	0.02037
1560.92336	0.02024
1559.63759	0.02017
1558.35182	0.02027
1557.06605	0.02054
1555.78028	0.02086
1554.49451	0.02110
1553.20874	0.02127
1551.92297	0.02139
1550.63721	0.02150
1549.35144	0.02162
1548.06567	0.02170
1546.77990	0.02170
1545.49413	0.02159
1544.20836	0.02141
1542.92259	0.02120
1541.63682	0.02098
1540.35105	0.02082
1539.06529	0.02076
1537.77952	0.02077
1536.49375	0.02080
1535.20798	0.02080
1533.92221	0.02079
1532.63644	0.02083
1531.35067	0.02091
1530.06490	0.02100
1528.77914	0.02106
1527.49337	0.02110
1526.20760	0.02112
1524.92183	0.02113
1523.63606	0.02113
1522.35029	0.02116
1521.06452	0.02125
1519.77875	0.02143
1518.49298	0.02167
1517.20722	0.02193
1515.92145	0.02219
1514.63568	0.02246
1513.34991	0.02273
1512.06414	0.02301
1510.77837	0.02327
1509.49260	0.02350
1508.20683	0.02369
1506.92107	0.02389
1505.63530	0.02420
1504.34953	0.02462
1503.06376	0.02504
1501.77799	0.02537
1500.49222	0.02559
1499.20645	0.02573
1497.92068	0.02588
1496.63491	0.02607
1495.34915	0.02630
1494.06338	0.02653
1492.77761	0.02673
1491.49184	0.02691
1490.20607	0.02709
1488.92030	0.02733
1487.63453	0.02762
1486.34876	0.02796
1485.06299	0.02830
1483.77723	0.02862
1482.49146	0.02892
1481.20569	0.02920
1479.91992	0.02948
1478.63415	0.02973
1477.34838	0.02997
1476.06261	0.03018
1474.77684	0.03039
1473.49108	0.03062
1472.20531	0.03092
1470.91954	0.03127
1469.63377	0.03164
1468.34800	0.03197
1467.06223	0.03226
1465.77646	0.03253
1464.49069	0.03276
1463.20492	0.03295
1461.91916	0.03309
1460.63339	0.03318
1459.34762	0.03326
1458.06185	0.03334
1456.77608	0.03347
1455.49031	0.03368
1454.20454	0.03398
1452.91877	0.03430
1451.63301	0.03459
1450.34724	0.03480
1449.06147	0.03497
1447.77570	0.03511
1446.48993	0.03521
1445.20416	0.03522
1443.91839	0.03514
1442.63262	0.03499
1441.34685	0.03486
1440.06109	0.03478
1438.77532	0.03477
1437.48955	0.03478
1436.20378	0.03478
1434.91801	0.03480
1433.63224	0.03488
1432.34647	0.03505
1431.06070	0.03528
1429.77494	0.03557
1428.48917	0.03592
1427.20340	0.03631
1425.91763	0.03673
1424.63186	0.03714
1423.34609	0.03750
1422.06032	0.03784
1420.77455	0.03815
1419.48878	0.03846
1418.20302	0.03876
1416.91725	0.03904
1415.63148	0.03927
1414.34571	0.03944
1413.05994	0.03955
1411.77417	0.03961
1410.48840	0.03962
1409.20263	0.03956
1407.91687	0.03946
1406.63110	0.03933
1405.34533	0.03915
1404.05956	0.03889
1402.77379	0.03851
1401.48802	0.03801
1400.20225	0.03745
1398.91648	0.03691
1397.63071	0.03640
1396.34495	0.03591
1395.05918	0.03541
1393.77341	0.03491
1392.48764	0.03440
1391.20187	0.03388
1389.91610	0.03336
1388.63033	0.03283
1387.34456	0.03229
1386.05880	0.03176
1384.77303	0.03124
1383.48726	0.03076
1382.20149	0.03030
1380.91572	0.02985
1379.62995	0.02939
1378.34418	0.02892
1377.05841	0.02844
1375.77264	0.02794
1374.48688	0.02739
1373.20111	0.02680
1371.91534	0.02622
1370.62957	0.02566
1369.34380	0.02512
1368.05803	0.02459
1366.77226	0.02408
1365.48649	0.02358
1364.20073	0.02307
1362.91496	0.02256
1361.62919	0.02207
1360.34342	0.02163
1359.05765	0.02124
1357.77188	0.02089
1356.48611	0.02056
1355.20034	0.02027
1353.91457	0.02001
1352.62881	0.01975
1351.34304	0.01947
1350.05727	0.01920
1348.77150	0.01892
1347.48573	0.01864
1346.19996	0.01836
1344.91419	0.01808
1343.62842	0.01784
1342.34266	0.01766
1341.05689	0.01751
1339.77112	0.01738
1338.48535	0.01726
1337.19958	0.01718
1335.91381	0.01712
1334.62804	0.01705
1333.34227	0.01693
1332.05650	0.01678
1330.77074	0.01663
1329.48497	0.01648
1328.19920	0.01631
1326.91343	0.01614
1325.62766	0.01597
1324.34189	0.01584
1323.05612	0.01573
1321.77035	0.01562
1320.48459	0.01549
1319.19882	0.01537
1317.91305	0.01526
1316.62728	0.01520
1315.34151	0.01515
1314.05574	0.01509
1312.76997	0.01501
1311.48420	0.01492
1310.19843	0.01481
1308.91267	0.01471
1307.62690	0.01462
1306.34113	0.01454
1305.05536	0.01446
1303.76959	0.01436
1302.48382	0.01423
1301.19805	0.01413
1299.91228	0.01409
1298.62652	0.01410
1297.34075	0.01412
1296.05498	0.01407
1294.76921	0.01395
1293.48344	0.01382
1292.19767	0.01375
1290.91190	0.01374
1289.62613	0.01373
1288.34036	0.01369
1287.05460	0.01358
1285.76883	0.01347
1284.48306	0.01338
1283.19729	0.01333
1281.91152	0.01330
1280.62575	0.01327
1279.33998	0.01324
1278.05421	0.01319
1276.76845	0.01310
1275.48268	0.01301
1274.19691	0.01293
1272.91114	0.01287
1271.62537	0.01283
1270.33960	0.01279
1269.05383	0.01274
1267.76806	0.01266
1266.48229	0.01257
1265.19653	0.01248
1263.91076	0.01241
1262.62499	0.01236
1261.33922	0.01231
1260.05345	0.01228
1258.76768	0.01227
1257.48191	0.01227
1256.19614	0.01227
1254.91037	0.01225
1253.62461	0.01219
1252.33884	0.01208
1251.05307	0.01196
1249.76730	0.01187
1248.48153	0.01182
1247.19576	0.01181
1245.90999	0.01181
1244.62422	0.01181
1243.33846	0.01180
1242.05269	0.01177
1240.76692	0.01173
1239.48115	0.01167
1238.19538	0.01159
1236.90961	0.01151
1235.62384	0.01145
1234.33807	0.01141
1233.05230	0.01139
1231.76654	0.01134
1230.48077	0.01126
1229.19500	0.01116
1227.90923	0.01106
1226.62346	0.01097
1225.33769	0.01087
1224.05192	0.01078
1222.76615	0.01070
1221.48039	0.01067
1220.19462	0.01070
1218.90885	0.01073
1217.62308	0.01071
1216.33731	0.01063
1215.05154	0.01055
1213.76577	0.01051
1212.48000	0.01051
1211.19423	0.01050
1209.90847	0.01043
1208.62270	0.01033
1207.33693	0.01024
1206.05116	0.01020
1204.76539	0.01022
1203.47962	0.01025
1202.19385	0.01023
1200.90808	0.01021
1199.62232	0.01021
1198.33655	0.01004
1197.05078	0.00994
1195.76501	0.00993
1194.47924	0.00995
1193.19347	0.00997
1191.90770	0.01001
1190.62193	0.01004
1189.33616	0.01003
1188.05040	0.00997
1186.76463	0.00987
1185.47886	0.00979
1184.19309	0.00975
1182.90732	0.00972
1181.62155	0.00966
1180.33578	0.00960
1179.05001	0.00956
1177.76425	0.00952
1176.47848	0.00948
1175.19271	0.00943
1173.90694	0.00941
1172.62117	0.00945
1171.33540	0.00953
1170.04963	0.00959
1168.76386	0.00963
1167.47809	0.00967
1166.19233	0.00973
1164.90656	0.00981
1163.62079	0.00989
1162.33502	0.00993
1161.04925	0.00992
1159.76348	0.00987
1158.47771	0.00984
1157.19194	0.00989
1155.90618	0.01000
1154.62041	0.01009
1153.33464	0.01012
1152.04887	0.01014
1150.76310	0.01023
1149.47733	0.01042
1148.19156	0.01065
1146.90579	0.01086
1145.62002	0.01103
1144.33426	0.01115
1143.04849	0.01129
1141.76272	0.01146
1140.47695	0.01167
1139.19118	0.01195
1137.90541	0.01231
1136.61964	0.01276
1135.33387	0.01326
1134.04811	0.01380
1132.76234	0.01437
1131.47657	0.01498
1130.19080	0.01568
1128.90503	0.01651
1127.61926	0.01748
1126.33349	0.01856
1125.04772	0.01965
1123.76195	0.02075
1122.47619	0.02188
1121.19042	0.02310
1119.90465	0.02441
1118.61888	0.02573
1117.33311	0.02703
1116.04734	0.02834
1114.76157	0.02967
1113.47580	0.03103
1112.19004	0.03234
1110.90427	0.03356
1109.61850	0.03464
1108.33273	0.03555
1107.04696	0.03632
1105.76119	0.03703
1104.47542	0.03776
1103.18965	0.03857
1101.90388	0.03945
1100.61812	0.04037
1099.33235	0.04120
1098.04658	0.04189
1096.76081	0.04247
1095.47504	0.04301
1094.18927	0.04354
1092.90350	0.04401
1091.61773	0.04439
1090.33197	0.04473
1089.04620	0.04512
1087.76043	0.04557
1086.47466	0.04602
1085.18889	0.04643
1083.90312	0.04683
1082.61735	0.04731
1081.33158	0.04789
1080.04581	0.04854
1078.76005	0.04923
1077.47428	0.04995
1076.18851	0.05071
1074.90274	0.05145
1073.61697	0.05218
1072.33120	0.05296
1071.04543	0.05380
1069.75966	0.05468
1068.47390	0.05556
1067.18813	0.05644
1065.90236	0.05734
1064.61659	0.05829
1063.33082	0.05930
1062.04505	0.06034
1060.75928	0.06137
1059.47351	0.06234
1058.18774	0.06325
1056.90198	0.06411
1055.61621	0.06498
1054.33044	0.06586
1053.04467	0.06677
1051.75890	0.06771
1050.47313	0.06867
1049.18736	0.06964
1047.90159	0.07062
1046.61583	0.07163
1045.33006	0.07268
1044.04429	0.07377
1042.75852	0.07489
1041.47275	0.07603
1040.18698	0.07719
1038.90121	0.07835
1037.61544	0.07945
1036.32967	0.08047
1035.04391	0.08142
1033.75814	0.08233
1032.47237	0.08320
1031.18660	0.08399
1029.90083	0.08468
1028.61506	0.08530
1027.32929	0.08581
1026.04352	0.08621
1024.75775	0.08649
1023.47199	0.08664
1022.18622	0.08668
1020.90045	0.08660
1019.61468	0.08639
1018.32891	0.08607
1017.04314	0.08568
1015.75737	0.08522
1014.47160	0.08462
1013.18584	0.08382
1011.90007	0.08287
1010.61430	0.08185
1009.32853	0.08077
1008.04276	0.07958
1006.75699	0.07825
1005.47122	0.07678
1004.18545	0.07523
1002.89968	0.07363
1001.61392	0.07195
1000.32815	0.07017
999.04238	0.06830
997.75661	0.06640
996.47084	0.06452
995.18507	0.06265
993.89930	0.06077
992.61353	0.05889
991.32777	0.05701
990.04200	0.05518
988.75623	0.05338
987.47046	0.05165
986.18469	0.05003
984.89892	0.04854
983.61315	0.04718
982.32738	0.04590
981.04161	0.04469
979.75585	0.04354
978.47008	0.04245
977.18431	0.04142
975.89854	0.04046
974.61277	0.03958
973.32700	0.03878
972.04123	0.03809
970.75546	0.03754
969.46970	0.03720
968.18393	0.03705
966.89816	0.03706
965.61239	0.03721
964.32662	0.03746
963.04085	0.03776
961.75508	0.03801
960.46931	0.03810
959.18354	0.03797
957.89778	0.03761
956.61201	0.03707
955.32624	0.03642
954.04047	0.03569
952.75470	0.03495
951.46893	0.03426
950.18316	0.03365
948.89739	0.03309
947.61163	0.03253
946.32586	0.03194
945.04009	0.03131
943.75432	0.03067
942.46855	0.03003
941.18278	0.02943
939.89701	0.02888
938.61124	0.02837
937.32547	0.02791
936.03971	0.02751
934.75394	0.02716
933.46817	0.02680
932.18240	0.02641
930.89663	0.02601
929.61086	0.02563
928.32509	0.02530
927.03932	0.02503
925.75356	0.02481
924.46779	0.02460
923.18202	0.02437
921.89625	0.02412
920.61048	0.02389
919.32471	0.02367
918.03894	0.02343
916.75317	0.02313
915.46740	0.02283
914.18164	0.02260
912.89587	0.02248
911.61010	0.02240
910.32433	0.02232
909.03856	0.02224
907.75279	0.02216
906.46702	0.02203
905.18125	0.02183
903.89549	0.02160
902.60972	0.02140
901.32395	0.02122
900.03818	0.02107
898.75241	0.02098
897.46664	0.02100
896.18087	0.02104
894.89510	0.02100
893.60933	0.02081
892.32357	0.02052
891.03780	0.02025
889.75203	0.02010
888.46626	0.02009
887.18049	0.02024
885.89472	0.02061
884.60895	0.02121
883.32318	0.02203
882.03742	0.02296
880.75165	0.02388
879.46588	0.02469
878.18011	0.02533
876.89434	0.02584
875.60857	0.02629
874.32280	0.02674
873.03703	0.02716
871.75126	0.02740
870.46550	0.02736
869.17973	0.02705
867.89396	0.02656
866.60819	0.02594
865.32242	0.02522
864.03665	0.02442
862.75088	0.02361
861.46511	0.02284
860.17935	0.02217
858.89358	0.02163
857.60781	0.02123
856.32204	0.02091
855.03627	0.02060
853.75050	0.02029
852.46473	0.02002
851.17896	0.01982
849.89319	0.01971
848.60743	0.01966
847.32166	0.01963
846.03589	0.01955
844.75012	0.01939
843.46435	0.01919
842.17858	0.01901
840.89281	0.01887
839.60704	0.01873
838.32128	0.01857
837.03551	0.01840
835.74974	0.01824
834.46397	0.01809
833.17820	0.01797
831.89243	0.01790
830.60666	0.01786
829.32089	0.01784
828.03512	0.01783
826.74936	0.01785
825.46359	0.01789
824.17782	0.01789
822.89205	0.01782
821.60628	0.01773
820.32051	0.01768
819.03474	0.01766
817.74897	0.01760
816.46321	0.01747
815.17744	0.01732
813.89167	0.01726
812.60590	0.01729
811.32013	0.01738
810.03436	0.01745
808.74859	0.01744
807.46282	0.01734
806.17705	0.01722
804.89129	0.01713
803.60552	0.01712
802.31975	0.01715
801.03398	0.01718
799.74821	0.01717
798.46244	0.01710
797.17667	0.01700
795.89090	0.01695
794.60513	0.01698
793.31937	0.01703
792.03360	0.01709
790.74783	0.01717
789.46206	0.01728
788.17629	0.01738
786.89052	0.01738
785.60475	0.01725
784.31898	0.01705
783.03322	0.01687
781.74745	0.01680
780.46168	0.01683
779.17591	0.01690
777.89014	0.01693
776.60437	0.01692
775.31860	0.01689
774.03283	0.01687
772.74706	0.01682
771.46130	0.01669
770.17553	0.01654
768.88976	0.01644
767.60399	0.01647
766.31822	0.01655
765.03245	0.01659
763.74668	0.01654
762.46091	0.01645
761.17515	0.01643
759.88938	0.01656
758.60361	0.01679
757.31784	0.01699
756.03207	0.01703
754.74630	0.01694
753.46053	0.01685
752.17476	0.01685
750.88899	0.01693
749.60323	0.01704
748.31746	0.01710
747.03169	0.01705
745.74592	0.01686
744.46015	0.01658
743.17438	0.01635
741.88861	0.01622
740.60284	0.01618
739.31708	0.01622
738.03131	0.01635
736.74554	0.01655
735.45977	0.01673
734.17400	0.01680
732.88823	0.01673
731.60246	0.01654
730.31669	0.01633
729.03092	0.01623
727.74516	0.01626
726.45939	0.01629
725.17362	0.01620
723.88785	0.01600
722.60208	0.01589
721.31631	0.01594
720.03054	0.01606
718.74477	0.01616
717.45901	0.01617
716.17324	0.01616
714.88747	0.01618
713.60170	0.01625
712.31593	0.01629
711.03016	0.01626
709.74439	0.01618
708.45862	0.01610
707.17285	0.01606
705.88709	0.01604
704.60132	0.01601
703.31555	0.01598
702.02978	0.01596
700.74401	0.01597
699.45824	0.01600
698.17247	0.01602
696.88670	0.01599
695.60094	0.01593
694.31517	0.01589
693.02940	0.01591
691.74363	0.01597
690.45786	0.01600
689.17209	0.01597
687.88632	0.01588
686.60055	0.01577
685.31478	0.01568
684.02902	0.01561
682.74325	0.01558
681.45748	0.01557
680.17171	0.01558
678.88594	0.01561
677.60017	0.01563
676.31440	0.01563
675.02863	0.01559
673.74287	0.01550
672.45710	0.01538
671.17133	0.01524
669.88556	0.01518
668.59979	0.01530
667.31402	0.01537
666.02825	0.01526
664.74248	0.01518
663.45671	0.01507
662.17095	0.01499
660.88518	0.01498
659.59941	0.01502
658.31364	0.01505
657.02787	0.01505
655.74210	0.01502
654.45633	0.01495
653.17056	0.01485
651.88480	0.01471
650.59903	0.01459
649.31326	0.01451
648.02749	0.01447
646.74172	0.01445
645.45595	0.01441
644.17018	0.01439
642.88441	0.01445
641.59864	0.01458
640.31288	0.01476
639.02711	0.01494
637.74134	0.01505
636.45557	0.01509
635.16980	0.01509
633.88403	0.01515
632.59826	0.01536
631.31249	0.01555
630.02673	0.01494
628.74096	0.01380
627.45519	0.01485
626.16942	0.01321
624.88365	0.00981
623.59788	0.00682
622.31211	0.00538
621.02634	0.00581
619.74057	0.00782
618.45481	0.01087
617.16904	0.01454
615.88327	0.01841
614.59750	0.02190
613.31173	0.02442
612.02596	0.02564
610.74019	0.02557
609.45442	0.02472
608.16866	0.02405
606.88289	0.02434
605.59712	0.02563
604.31135	0.02748
603.02558	0.02951
601.73981	0.03149
600.45404	0.03304
599.16827	0.03377
597.88250	0.03358
596.59674	0.03284
595.31097	0.03194
594.02520	0.03108
592.73943	0.03027
591.45366	0.02963
590.16789	0.02931
588.88212	0.02937
587.59635	0.02971
586.31059	0.03021
585.02482	0.03084
583.73905	0.03160
582.45328	0.03247
581.16751	0.03341
579.88174	0.03435
578.59597	0.03520
577.31020	0.03590
576.02443	0.03644
574.73867	0.03691
573.45290	0.03742
572.16713	0.03806
570.88136	0.03882
569.59559	0.03965
568.30982	0.04060
567.02405	0.04179
565.73828	0.04327
564.45251	0.04479
563.16675	0.04598
561.88098	0.04659
560.59521	0.04654
559.30944	0.04592
558.02367	0.04481
556.73790	0.04330
555.45213	0.04147
554.16636	0.03947
552.88060	0.03749
551.59483	0.03567
550.30906	0.03403
549.02329	0.03247
547.73752	0.03094
546.45175	0.02950
545.16598	0.02828
543.88021	0.02733
542.59444	0.02663
541.30868	0.02605
540.02291	0.02547
538.73714	0.02487
537.45137	0.02428
536.16560	0.02375
534.87983	0.02328
533.59406	0.02283
532.30829	0.02236
531.02253	0.02189
529.73676	0.02150
528.45099	0.02119
527.16522	0.02095
525.87945	0.02073
524.59368	0.02055
523.30791	0.02042
522.02214	0.02034
520.73637	0.02022
519.45061	0.01997
518.16484	0.01958
516.87907	0.01910
515.59330	0.01866
514.30753	0.01832
513.02176	0.01810
511.73599	0.01795
510.45022	0.01786
509.16446	0.01777
507.87869	0.01762
506.59292	0.01740
505.30715	0.01716
504.02138	0.01700
502.73561	0.01694
501.44984	0.01694
500.16407	0.01690
498.87830	0.01678
497.59254	0.01662
496.30677	0.01646
495.02100	0.01631
493.73523	0.01616
492.44946	0.01603
491.16369	0.01595
489.87792	0.01594
488.59215	0.01596
487.30639	0.01595
486.02062	0.01593
484.73485	0.01595
483.44908	0.01603
482.16331	0.01613
480.87754	0.01622
479.59177	0.01631
478.30600	0.01644
477.02023	0.01661
475.73447	0.01678
474.44870	0.01693
473.16293	0.01706
471.87716	0.01717
470.59139	0.01725
469.30562	0.01727
468.01985	0.01720
466.73408	0.01708
465.44832	0.01694
464.16255	0.01681
462.87678	0.01666
461.59101	0.01642
460.30524	0.01610
459.01947	0.01578
457.73370	0.01558
456.44793	0.01552
455.16216	0.01555
453.87640	0.01557
452.59063	0.01554
451.30486	0.01548
450.01909	0.01542
448.73332	0.01538
447.44755	0.01536
446.16178	0.01534
444.87601	0.01525
443.59025	0.01509
442.30448	0.01485
441.01871	0.01459
439.73294	0.01437
438.44717	0.01426
437.16140	0.01424
435.87563	0.01429
434.58986	0.01437
433.30409	0.01441
432.01833	0.01439
430.73256	0.01432
429.44679	0.01427
428.16102	0.01425
426.87525	0.01423
425.58948	0.01415
424.30371	0.01405
423.01794	0.01394
421.73218	0.01385
420.44641	0.01376
419.16064	0.01367
417.87487	0.01358
416.58910	0.01348
415.30333	0.01334
414.01756	0.01317
412.73179	0.01304
411.44602	0.01301
410.16026	0.01308
408.87449	0.01317
407.58872	0.01323
406.30295	0.01323
405.01718	0.01323
403.73141	0.01327
402.44564	0.01332
401.15987	0.01334
399.87411	0.01333
