3997.45528	0.03311
3996.16951	0.03319
3994.88374	0.03340
3993.59798	0.03369
3992.31221	0.03393
3991.02644	0.03401
3989.74067	0.03395
3988.45490	0.03395
3987.16913	0.03427
3985.88336	0.03491
3984.59759	0.03562
3983.31183	0.03599
3982.02606	0.03571
3980.74029	0.03485
3979.45452	0.03390
3978.16875	0.03350
3976.88298	0.03393
3975.59721	0.03476
3974.31144	0.03535
3973.02567	0.03538
3971.73991	0.03503
3970.45414	0.03457
3969.16837	0.03412
3967.88260	0.03378
3966.59683	0.03363
3965.31106	0.03371
3964.02529	0.03382
3962.73952	0.03377
3961.45376	0.03350
3960.16799	0.03310
3958.88222	0.03266
3957.59645	0.03223
3956.31068	0.03188
3955.02491	0.03170
3953.73914	0.03180
3952.45337	0.03225
3951.16760	0.03298
3949.88184	0.03376
3948.59607	0.03425
3947.31030	0.03438
3946.02453	0.03431
3944.73876	0.03420
3943.45299	0.03403
3942.16722	0.03376
3940.88145	0.03343
3939.59569	0.03308
3938.30992	0.03268
3937.02415	0.03226
3935.73838	0.03194
3934.45261	0.03191
3933.16684	0.03226
3931.88107	0.03285
3930.59530	0.03345
3929.30953	0.03384
3928.02377	0.03385
3926.73800	0.03341
3925.45223	0.03267
3924.16646	0.03205
3922.88069	0.03200
3921.59492	0.03264
3920.30915	0.03360
3919.02338	0.03436
3917.73762	0.03464
3916.45185	0.03451
3915.16608	0.03422
3913.88031	0.03400
3912.59454	0.03386
3911.30877	0.03364
3910.02300	0.03322
3908.73723	0.03267
3907.45146	0.03224
3906.16570	0.03203
3904.87993	0.03193
3903.59416	0.03175
3902.30839	0.03151
3901.02262	0.03141
3899.73685	0.03163
3898.45108	0.03209
3897.16531	0.03257
3895.87955	0.03298
3894.59378	0.03334
3893.30801	0.03352
3892.02224	0.03337
3890.73647	0.03307
3889.45070	0.03310
3888.16493	0.03363
3886.87916	0.03439
3885.59339	0.03489
3884.30763	0.03480
3883.02186	0.03413
3881.73609	0.03326
3880.45032	0.03265
3879.16455	0.03246
3877.87878	0.03249
3876.59301	0.03245
3875.30724	0.03228
3874.02148	0.03210
3872.73571	0.03207
3871.44994	0.03232
3870.16417	0.03301
3868.87840	0.03402
3867.59263	0.03488
3866.30686	0.03521
3865.02109	0.03510
3863.73532	0.03495
3862.44956	0.03499
3861.16379	0.03519
3859.87802	0.03533
3858.59225	0.03527
3857.30648	0.03502
3856.02071	0.03474
3854.73494	0.03459
3853.44917	0.03454
3852.16341	0.03431
3850.87764	0.03365
3849.59187	0.03265
3848.30610	0.03164
3847.02033	0.03093
3845.73456	0.03075
3844.44879	0.03118
3843.16302	0.03205
3841.87725	0.03295
3840.59149	0.03346
3839.30572	0.03350
3838.01995	0.03335
3836.73418	0.03328
3835.44841	0.03331
3834.16264	0.03324
3832.87687	0.03304
3831.59110	0.03282
3830.30534	0.03269
3829.01957	0.03269
3827.73380	0.03284
3826.44803	0.03307
3825.16226	0.03320
3823.87649	0.03292
3822.59072	0.03219
3821.30495	0.03147
3820.01918	0.03125
3818.73342	0.03150
3817.44765	0.03191
3816.16188	0.03231
3814.87611	0.03265
3813.59034	0.03272
3812.30457	0.03241
3811.01880	0.03189
3809.73303	0.03151
3808.44726	0.03140
3807.16150	0.03143
3805.87573	0.03139
3804.58996	0.03113
3803.30419	0.03089
3802.01842	0.03102
3800.73265	0.03148
3799.44688	0.03178
3798.16111	0.03163
3796.87535	0.03132
3795.58958	0.03129
3794.30381	0.03155
3793.01804	0.03188
3791.73227	0.03205
3790.44650	0.03188
3789.16073	0.03137
3787.87496	0.03081
3786.58919	0.03057
3785.30343	0.03066
3784.01766	0.03077
3782.73189	0.03066
3781.44612	0.03045
3780.16035	0.03034
3778.87458	0.03029
3777.58881	0.03016
3776.30304	0.03008
3775.01728	0.03043
3773.73151	0.03132
3772.44574	0.03227
3771.15997	0.03272
3769.87420	0.03256
3768.58843	0.03203
3767.30266	0.03142
3766.01689	0.03085
3764.73112	0.03049
3763.44536	0.03050
3762.15959	0.03093
3760.87382	0.03163
3759.58805	0.03231
3758.30228	0.03266
3757.01651	0.03258
3755.73074	0.03223
3754.44497	0.03194
3753.15921	0.03202
3751.87344	0.03244
3750.58767	0.03277
3749.30190	0.03268
3748.01613	0.03227
3746.73036	0.03175
3745.44459	0.03145
3744.15882	0.03162
3742.87305	0.03204
3741.58729	0.03213
3740.30152	0.03167
3739.01575	0.03102
3737.72998	0.03068
3736.44421	0.03096
3735.15844	0.03170
3733.87267	0.03232
3732.58690	0.03230
3731.30114	0.03161
3730.01537	0.03066
3728.72960	0.02990
3727.44383	0.02962
3726.15806	0.02980
3724.87229	0.03009
3723.58652	0.03008
3722.30075	0.02970
3721.01498	0.02921
3719.72922	0.02901
3718.44345	0.02928
3717.15768	0.02987
3715.87191	0.03042
3714.58614	0.03060
3713.30037	0.03043
3712.01460	0.03015
3710.72883	0.02993
3709.44307	0.02969
3708.15730	0.02932
3706.87153	0.02891
3705.58576	0.02876
3704.29999	0.02911
3703.01422	0.02978
3701.72845	0.03020
3700.44268	0.02986
3699.15691	0.02881
3697.87115	0.02763
3696.58538	0.02700
3695.29961	0.02716
3694.01384	0.02779
3692.72807	0.02839
3691.44230	0.02875
3690.15653	0.02891
3688.87076	0.02900
3687.58500	0.02920
3686.29923	0.02955
3685.01346	0.02985
3683.72769	0.02987
3682.44192	0.02959
3681.15615	0.02930
3679.87038	0.02942
3678.58461	0.03001
3677.29884	0.03063
3676.01308	0.03100
3674.72731	0.03129
3673.44154	0.03163
3672.15577	0.03193
3670.87000	0.03210
3669.58423	0.03217
3668.29846	0.03213
3667.01269	0.03195
3665.72693	0.03179
3664.44116	0.03187
3663.15539	0.03222
3661.86962	0.03264
3660.58385	0.03282
3659.29808	0.03254
3658.01231	0.03184
3656.72654	0.03101
3655.44077	0.03043
3654.15501	0.03032
3652.86924	0.03073
3651.58347	0.03151
3650.29770	0.03238
3649.01193	0.03313
3647.72616	0.03375
3646.44039	0.03432
3645.15462	0.03477
3643.86886	0.03494
3642.58309	0.03487
3641.29732	0.03481
3640.01155	0.03493
3638.72578	0.03520
3637.44001	0.03538
3636.15424	0.03528
3634.86847	0.03486
3633.58270	0.03424
3632.29694	0.03364
3631.01117	0.03328
3629.72540	0.03330
3628.43963	0.03360
3627.15386	0.03382
3625.86809	0.03374
3624.58232	0.03357
3623.29655	0.03359
3622.01079	0.03378
3620.72502	0.03397
3619.43925	0.03412
3618.15348	0.03423
3616.86771	0.03420
3615.58194	0.03409
3614.29617	0.03424
3613.01040	0.03493
3611.72463	0.03598
3610.43887	0.03690
3609.15310	0.03743
3607.86733	0.03770
3606.58156	0.03791
3605.29579	0.03810
3604.01002	0.03813
3602.72425	0.03794
3601.43848	0.03771
3600.15272	0.03780
3598.86695	0.03838
3597.58118	0.03923
3596.29541	0.03995
3595.00964	0.04036
3593.72387	0.04052
3592.43810	0.04050
3591.15233	0.04041
3589.86656	0.04034
3588.58080	0.04031
3587.29503	0.04014
3586.00926	0.03968
3584.72349	0.03915
3583.43772	0.03904
3582.15195	0.03965
3580.86618	0.04077
3579.58041	0.04186
3578.29464	0.04251
3577.00888	0.04282
3575.72311	0.04315
3574.43734	0.04373
3573.15157	0.04443
3571.86580	0.04492
3570.58003	0.04507
3569.29426	0.04510
3568.00849	0.04529
3566.72273	0.04568
3565.43696	0.04603
3564.15119	0.04610
3562.86542	0.04582
3561.57965	0.04532
3560.29388	0.04484
3559.00811	0.04463
3557.72234	0.04474
3556.43657	0.04496
3555.15081	0.04503
3553.86504	0.04492
3552.57927	0.04488
3551.29350	0.04517
3550.00773	0.04574
3548.72196	0.04630
3547.43619	0.04660
3546.15042	0.04664
3544.86466	0.04658
3543.57889	0.04662
3542.29312	0.04696
3541.00735	0.04758
3539.72158	0.04825
3538.43581	0.04866
3537.15004	0.04875
3535.86427	0.04880
3534.57850	0.04897
3533.29274	0.04910
3532.00697	0.04895
3530.72120	0.04861
3529.43543	0.04840
3528.14966	0.04852
3526.86389	0.04889
3525.57812	0.04937
3524.29235	0.04987
3523.00659	0.05024
3521.72082	0.05029
3520.43505	0.05008
3519.14928	0.04995
3517.86351	0.05018
3516.57774	0.05074
3515.29197	0.05136
3514.00620	0.05186
3512.72043	0.05220
3511.43467	0.05238
3510.14890	0.05232
3508.86313	0.05207
3507.57736	0.05186
3506.29159	0.05195
3505.00582	0.05238
3503.72005	0.05291
3502.43428	0.05321
3501.14852	0.05313
3499.86275	0.05284
3498.57698	0.05261
3497.29121	0.05262
3496.00544	0.05281
3494.71967	0.05297
3493.43390	0.05303
3492.14813	0.05306
3490.86236	0.05316
3489.57660	0.05332
3488.29083	0.05342
3487.00506	0.05336
3485.71929	0.05330
3484.43352	0.05348
3483.14775	0.05403
3481.86198	0.05479
3480.57621	0.05542
3479.29045	0.05566
3478.00468	0.05553
3476.71891	0.05526
3475.43314	0.05515
3474.14737	0.05531
3472.86160	0.05561
3471.57583	0.05585
3470.29006	0.05601
3469.00429	0.05609
3467.71853	0.05604
3466.43276	0.05581
3465.14699	0.05561
3463.86122	0.05580
3462.57545	0.05648
3461.28968	0.05731
3460.00391	0.05777
3458.71814	0.05765
3457.43238	0.05715
3456.14661	0.05670
3454.86084	0.05660
3453.57507	0.05688
3452.28930	0.05735
3451.00353	0.05779
3449.71776	0.05813
3448.43199	0.05843
3447.14622	0.05870
3445.86046	0.05883
3444.57469	0.05870
3443.28892	0.05833
3442.00315	0.05796
3440.71738	0.05781
3439.43161	0.05803
3438.14584	0.05858
3436.86007	0.05931
3435.57431	0.05992
3434.28854	0.06018
3433.00277	0.06011
3431.71700	0.05995
3430.43123	0.05993
3429.14546	0.06010
3427.85969	0.06032
3426.57392	0.06041
3425.28815	0.06034
3424.00239	0.06022
3422.71662	0.06023
3421.43085	0.06046
3420.14508	0.06082
3418.85931	0.06116
3417.57354	0.06136
3416.28777	0.06133
3415.00200	0.06102
3413.71624	0.06046
3412.43047	0.05989
3411.14470	0.05964
3409.85893	0.05985
3408.57316	0.06038
3407.28739	0.06089
3406.00162	0.06125
3404.71585	0.06151
3403.43008	0.06175
3402.14432	0.06193
3400.85855	0.06198
3399.57278	0.06190
3398.28701	0.06179
3397.00124	0.06181
3395.71547	0.06205
3394.42970	0.06247
3393.14393	0.06295
3391.85817	0.06333
3390.57240	0.06360
3389.28663	0.06381
3388.00086	0.06391
3386.71509	0.06383
3385.42932	0.06359
3384.14355	0.06337
3382.85778	0.06326
3381.57201	0.06318
3380.28625	0.06305
3379.00048	0.06287
3377.71471	0.06268
3376.42894	0.06253
3375.14317	0.06246
3373.85740	0.06256
3372.57163	0.06287
3371.28586	0.06326
3370.00010	0.06355
3368.71433	0.06363
3367.42856	0.06360
3366.14279	0.06363
3364.85702	0.06382
3363.57125	0.06408
3362.28548	0.06425
3360.99971	0.06428
3359.71394	0.06429
3358.42818	0.06437
3357.14241	0.06445
3355.85664	0.06440
3354.57087	0.06420
3353.28510	0.06397
3351.99933	0.06387
3350.71356	0.06397
3349.42779	0.06421
3348.14202	0.06444
3346.85626	0.06449
3345.57049	0.06432
3344.28472	0.06404
3342.99895	0.06381
3341.71318	0.06367
3340.42741	0.06356
3339.14164	0.06337
3337.85587	0.06312
3336.57011	0.06293
3335.28434	0.06292
3333.99857	0.06312
3332.71280	0.06350
3331.42703	0.06398
3330.14126	0.06442
3328.85549	0.06456
3327.56972	0.06431
3326.28395	0.06381
3324.99819	0.06344
3323.71242	0.06347
3322.42665	0.06387
3321.14088	0.06431
3319.85511	0.06446
3318.56934	0.06420
3317.28357	0.06370
3315.99780	0.06327
3314.71204	0.06311
3313.42627	0.06319
3312.14050	0.06345
3310.85473	0.06385
3309.56896	0.06440
3308.28319	0.06498
3306.99742	0.06542
3305.71165	0.06559
3304.42588	0.06551
3303.14012	0.06530
3301.85435	0.06504
3300.56858	0.06477
3299.28281	0.06449
3297.99704	0.06425
3296.71127	0.06407
3295.42550	0.06402
3294.13973	0.06417
3292.85397	0.06450
3291.56820	0.06483
3290.28243	0.06496
3288.99666	0.06480
3287.71089	0.06449
3286.42512	0.06421
3285.13935	0.06403
3283.85358	0.06388
3282.56781	0.06375
3281.28205	0.06368
3279.99628	0.06374
3278.71051	0.06387
3277.42474	0.06391
3276.13897	0.06379
3274.85320	0.06360
3273.56743	0.06349
3272.28166	0.06349
3270.99590	0.06344
3269.71013	0.06329
3268.42436	0.06308
3267.13859	0.06296
3265.85282	0.06297
3264.56705	0.06308
3263.28128	0.06318
3261.99551	0.06316
3260.70974	0.06306
3259.42398	0.06298
3258.13821	0.06301
3256.85244	0.06307
3255.56667	0.06299
3254.28090	0.06268
3252.99513	0.06230
3251.70936	0.06199
3250.42359	0.06181
3249.13783	0.06169
3247.85206	0.06154
3246.56629	0.06134
3245.28052	0.06111
3243.99475	0.06088
3242.70898	0.06074
3241.42321	0.06078
3240.13744	0.06103
3238.85167	0.06136
3237.56591	0.06156
3236.28014	0.06151
3234.99437	0.06126
3233.70860	0.06095
3232.42283	0.06064
3231.13706	0.06038
3229.85129	0.06020
3228.56552	0.06014
3227.27976	0.06020
3225.99399	0.06040
3224.70822	0.06071
3223.42245	0.06101
3222.13668	0.06109
3220.85091	0.06091
3219.56514	0.06065
3218.27937	0.06055
3216.99360	0.06061
3215.70784	0.06067
3214.42207	0.06058
3213.13630	0.06039
3211.85053	0.06024
3210.56476	0.06013
3209.27899	0.06003
3207.99322	0.05992
3206.70745	0.05988
3205.42169	0.05997
3204.13592	0.06014
3202.85015	0.06017
3201.56438	0.05991
3200.27861	0.05944
3198.99284	0.05906
3197.70707	0.05900
3196.42130	0.05915
3195.13553	0.05917
3193.84977	0.05888
3192.56400	0.05845
3191.27823	0.05827
3189.99246	0.05849
3188.70669	0.05890
3187.42092	0.05918
3186.13515	0.05917
3184.84938	0.05895
3183.56362	0.05870
3182.27785	0.05850
3180.99208	0.05833
3179.70631	0.05806
3178.42054	0.05767
3177.13477	0.05730
3175.84900	0.05712
3174.56323	0.05711
3173.27746	0.05713
3171.99170	0.05709
3170.70593	0.05700
3169.42016	0.05692
3168.13439	0.05693
3166.84862	0.05701
3165.56285	0.05708
3164.27708	0.05695
3162.99131	0.05650
3161.70555	0.05582
3160.41978	0.05526
3159.13401	0.05513
3157.84824	0.05547
3156.56247	0.05604
3155.27670	0.05662
3153.99093	0.05704
3152.70516	0.05720
3151.41939	0.05705
3150.13363	0.05670
3148.84786	0.05638
3147.56209	0.05631
3146.27632	0.05643
3144.99055	0.05659
3143.70478	0.05665
3142.41901	0.05659
3141.13324	0.05646
3139.84748	0.05625
3138.56171	0.05595
3137.27594	0.05557
3135.99017	0.05522
3134.70440	0.05501
3133.41863	0.05495
3132.13286	0.05494
3130.84709	0.05492
3129.56132	0.05488
3128.27556	0.05483
3126.98979	0.05469
3125.70402	0.05445
3124.41825	0.05421
3123.13248	0.05411
3121.84671	0.05415
3120.56094	0.05420
3119.27517	0.05417
3117.98940	0.05404
3116.70364	0.05389
3115.41787	0.05373
3114.13210	0.05351
3112.84633	0.05323
3111.56056	0.05300
3110.27479	0.05297
3108.98902	0.05317
3107.70325	0.05345
3106.41749	0.05357
3105.13172	0.05344
3103.84595	0.05310
3102.56018	0.05268
3101.27441	0.05227
3099.98864	0.05190
3098.70287	0.05153
3097.41710	0.05119
3096.13133	0.05103
3094.84557	0.05121
3093.55980	0.05173
3092.27403	0.05240
3090.98826	0.05297
3089.70249	0.05327
3088.41672	0.05338
3087.13095	0.05345
3085.84518	0.05351
3084.55942	0.05346
3083.27365	0.05316
3081.98788	0.05262
3080.70211	0.05205
3079.41634	0.05169
3078.13057	0.05165
3076.84480	0.05179
3075.55903	0.05184
3074.27326	0.05166
3072.98750	0.05136
3071.70173	0.05120
3070.41596	0.05139
3069.13019	0.05196
3067.84442	0.05269
3066.55865	0.05319
3065.27288	0.05318
3063.98711	0.05264
3062.70135	0.05186
3061.41558	0.05116
3060.12981	0.05073
3058.84404	0.05058
3057.55827	0.05056
3056.27250	0.05060
3054.98673	0.05063
3053.70096	0.05067
3052.41519	0.05071
3051.12943	0.05072
3049.84366	0.05068
3048.55789	0.05060
3047.27212	0.05049
3045.98635	0.05036
3044.70058	0.05024
3043.41481	0.05017
3042.12904	0.05020
3040.84328	0.05034
3039.55751	0.05051
3038.27174	0.05056
3036.98597	0.05045
3035.70020	0.05027
3034.41443	0.05012
3033.12866	0.05002
3031.84289	0.04990
3030.55712	0.04969
3029.27136	0.04943
3027.98559	0.04919
3026.69982	0.04898
3025.41405	0.04876
3024.12828	0.04855
3022.84251	0.04846
3021.55674	0.04858
3020.27097	0.04882
3018.98521	0.04898
3017.69944	0.04892
3016.41367	0.04867
3015.12790	0.04830
3013.84213	0.04789
3012.55636	0.04751
3011.27059	0.04726
3009.98482	0.04724
3008.69905	0.04744
3007.41329	0.04771
3006.12752	0.04788
3004.84175	0.04789
3003.55598	0.04785
3002.27021	0.04794
3000.98444	0.04821
2999.69867	0.04850
2998.41290	0.04858
2997.12714	0.04835
2995.84137	0.04802
2994.55560	0.04779
2993.26983	0.04772
2991.98406	0.04767
2990.69829	0.04753
2989.41252	0.04733
2988.12675	0.04723
2986.84098	0.04735
2985.55522	0.04764
2984.26945	0.04787
2982.98368	0.04789
2981.69791	0.04785
2980.41214	0.04806
2979.12637	0.04863
2977.84060	0.04933
2976.55483	0.04990
2975.26907	0.05033
2973.98330	0.05078
2972.69753	0.05129
2971.41176	0.05167
2970.12599	0.05173
2968.84022	0.05154
2967.55445	0.05145
2966.26868	0.05173
2964.98291	0.05237
2963.69715	0.05309
2962.41138	0.05367
2961.12561	0.05414
2959.83984	0.05461
2958.55407	0.05512
2957.26830	0.05556
2955.98253	0.05582
2954.69676	0.05593
2953.41100	0.05599
2952.12523	0.05608
2950.83946	0.05611
2949.55369	0.05596
2948.26792	0.05567
2946.98215	0.05545
2945.69638	0.05540
2944.41061	0.05542
2943.12484	0.05533
2941.83908	0.05510
2940.55331	0.05485
2939.26754	0.05472
2937.98177	0.05482
2936.69600	0.05518
2935.41023	0.05572
2934.12446	0.05624
2932.83869	0.05656
2931.55293	0.05670
2930.26716	0.05680
2928.98139	0.05693
2927.69562	0.05710
2926.40985	0.05723
2925.12408	0.05727
2923.83831	0.05720
2922.55254	0.05701
2921.26677	0.05673
2919.98101	0.05638
2918.69524	0.05602
2917.40947	0.05568
2916.12370	0.05536
2914.83793	0.05508
2913.55216	0.05481
2912.26639	0.05455
2910.98062	0.05426
2909.69486	0.05392
2908.40909	0.05357
2907.12332	0.05323
2905.83755	0.05290
2904.55178	0.05255
2903.26601	0.05220
2901.98024	0.05190
2900.69447	0.05165
2899.40870	0.05142
2898.12294	0.05117
2896.83717	0.05088
2895.55140	0.05060
2894.26563	0.05044
2892.97986	0.05039
2891.69409	0.05030
2890.40832	0.04994
2889.12255	0.04932
2887.83678	0.04862
2886.55102	0.04803
2885.26525	0.04760
2883.97948	0.04730
2882.69371	0.04707
2881.40794	0.04692
2880.12217	0.04693
2878.83640	0.04711
2877.55063	0.04740
2876.26487	0.04765
2874.97910	0.04780
2873.69333	0.04787
2872.40756	0.04799
2871.12179	0.04822
2869.83602	0.04850
2868.55025	0.04865
2867.26448	0.04858
2865.97871	0.04836
2864.69295	0.04817
2863.40718	0.04804
2862.12141	0.04792
2860.83564	0.04773
2859.54987	0.04750
2858.26410	0.04726
2856.97833	0.04704
2855.69256	0.04688
2854.40680	0.04674
2853.12103	0.04657
2851.83526	0.04627
2850.54949	0.04591
2849.26372	0.04567
2847.97795	0.04562
2846.69218	0.04570
2845.40641	0.04569
2844.12064	0.04541
2842.83488	0.04482
2841.54911	0.04407
2840.26334	0.04333
2838.97757	0.04272
2837.69180	0.04234
2836.40603	0.04218
2835.12026	0.04211
2833.83449	0.04191
2832.54873	0.04145
2831.26296	0.04084
2829.97719	0.04030
2828.69142	0.03996
2827.40565	0.03984
2826.11988	0.03986
2824.83411	0.03989
2823.54834	0.03983
2822.26257	0.03959
2820.97681	0.03920
2819.69104	0.03878
2818.40527	0.03847
2817.11950	0.03838
2815.83373	0.03846
2814.54796	0.03857
2813.26219	0.03861
2811.97642	0.03860
2810.69066	0.03853
2809.40489	0.03840
2808.11912	0.03820
2806.83335	0.03802
2805.54758	0.03795
2804.26181	0.03794
2802.97604	0.03787
2801.69027	0.03767
2800.40450	0.03741
2799.11874	0.03720
2797.83297	0.03710
2796.54720	0.03709
2795.26143	0.03714
2793.97566	0.03720
2792.68989	0.03724
2791.40412	0.03725
2790.11835	0.03725
2788.83259	0.03721
2787.54682	0.03707
2786.26105	0.03683
2784.97528	0.03657
2783.68951	0.03639
2782.40374	0.03630
2781.11797	0.03627
2779.83220	0.03620
2778.54643	0.03609
2777.26067	0.03602
2775.97490	0.03605
2774.68913	0.03608
2773.40336	0.03599
2772.11759	0.03582
2770.83182	0.03573
2769.54605	0.03585
2768.26028	0.03607
2766.97452	0.03619
2765.68875	0.03612
2764.40298	0.03594
2763.11721	0.03580
2761.83144	0.03574
2760.54567	0.03567
2759.25990	0.03550
2757.97413	0.03526
2756.68836	0.03501
2755.40260	0.03482
2754.11683	0.03468
2752.83106	0.03458
2751.54529	0.03448
2750.25952	0.03437
2748.97375	0.03425
2747.68798	0.03416
2746.40221	0.03408
2745.11645	0.03402
2743.83068	0.03400
2742.54491	0.03404
2741.25914	0.03415
2739.97337	0.03433
2738.68760	0.03453
2737.40183	0.03460
2736.11606	0.03447
2734.83029	0.03419
2733.54453	0.03401
2732.25876	0.03407
2730.97299	0.03431
2729.68722	0.03446
2728.40145	0.03436
2727.11568	0.03402
2725.82991	0.03365
2724.54414	0.03343
2723.25838	0.03340
2721.97261	0.03347
2720.68684	0.03349
2719.40107	0.03343
2718.11530	0.03334
2716.82953	0.03333
2715.54376	0.03338
2714.25799	0.03346
2712.97222	0.03350
2711.68646	0.03349
2710.40069	0.03337
2709.11492	0.03317
2707.82915	0.03294
2706.54338	0.03273
2705.25761	0.03251
2703.97184	0.03228
2702.68607	0.03212
2701.40031	0.03215
2700.11454	0.03243
2698.82877	0.03289
2697.54300	0.03326
2696.25723	0.03332
2694.97146	0.03309
2693.68569	0.03276
2692.39992	0.03247
2691.11415	0.03225
2689.82839	0.03208
2688.54262	0.03200
2687.25685	0.03201
2685.97108	0.03208
2684.68531	0.03217
2683.39954	0.03220
2682.11377	0.03216
2680.82800	0.03207
2679.54224	0.03202
2678.25647	0.03203
2676.97070	0.03208
2675.68493	0.03208
2674.39916	0.03200
2673.11339	0.03184
2671.82762	0.03161
2670.54185	0.03136
2669.25608	0.03111
2667.97032	0.03094
2666.68455	0.03090
2665.39878	0.03093
2664.11301	0.03096
2662.82724	0.03098
2661.54147	0.03101
2660.25570	0.03103
2658.96993	0.03101
2657.68417	0.03096
2656.39840	0.03094
2655.11263	0.03098
2653.82686	0.03105
2652.54109	0.03109
2651.25532	0.03109
2649.96955	0.03107
2648.68378	0.03107
2647.39801	0.03108
2646.11225	0.03108
2644.82648	0.03101
2643.54071	0.03083
2642.25494	0.03060
2640.96917	0.03046
2639.68340	0.03044
2638.39763	0.03048
2637.11186	0.03048
2635.82609	0.03035
2634.54033	0.03009
2633.25456	0.02974
2631.96879	0.02938
2630.68302	0.02904
2629.39725	0.02874
2628.11148	0.02857
2626.82571	0.02865
2625.53994	0.02899
2624.25418	0.02937
2622.96841	0.02952
2621.68264	0.02938
2620.39687	0.02907
2619.11110	0.02877
2617.82533	0.02857
2616.53956	0.02841
2615.25379	0.02817
2613.96802	0.02776
2612.68226	0.02725
2611.39649	0.02687
2610.11072	0.02681
2608.82495	0.02700
2607.53918	0.02723
2606.25341	0.02730
2604.96764	0.02709
2603.68187	0.02669
2602.39611	0.02633
2601.11034	0.02619
2599.82457	0.02630
2598.53880	0.02647
2597.25303	0.02655
2595.96726	0.02656
2594.68149	0.02661
2593.39572	0.02666
2592.10995	0.02655
2590.82419	0.02619
2589.53842	0.02579
2588.25265	0.02562
2586.96688	0.02571
2585.68111	0.02592
2584.39534	0.02616
2583.10957	0.02644
2581.82380	0.02671
2580.53804	0.02683
2579.25227	0.02677
2577.96650	0.02669
2576.68073	0.02663
2575.39496	0.02650
2574.10919	0.02621
2572.82342	0.02584
2571.53765	0.02545
2570.25188	0.02507
2568.96612	0.02476
2567.68035	0.02470
2566.39458	0.02491
2565.10881	0.02520
2563.82304	0.02533
2562.53727	0.02530
2561.25150	0.02528
2559.96573	0.02533
2558.67997	0.02538
2557.39420	0.02536
2556.10843	0.02532
2554.82266	0.02528
2553.53689	0.02523
2552.25112	0.02515
2550.96535	0.02508
2549.67958	0.02505
2548.39381	0.02503
2547.10805	0.02499
2545.82228	0.02493
2544.53651	0.02483
2543.25074	0.02473
2541.96497	0.02469
2540.67920	0.02473
2539.39343	0.02481
2538.10766	0.02484
2536.82190	0.02486
2535.53613	0.02492
2534.25036	0.02493
2532.96459	0.02473
2531.67882	0.02425
2530.39305	0.02370
2529.10728	0.02332
2527.82151	0.02312
2526.53574	0.02300
2525.24998	0.02292
2523.96421	0.02294
2522.67844	0.02309
2521.39267	0.02320
2520.10690	0.02314
2518.82113	0.02294
2517.53536	0.02273
2516.24959	0.02254
2514.96383	0.02229
2513.67806	0.02198
2512.39229	0.02167
2511.10652	0.02149
2509.82075	0.02151
2508.53498	0.02178
2507.24921	0.02229
2505.96344	0.02296
2504.67767	0.02362
2503.39191	0.02408
2502.10614	0.02427
2500.82037	0.02423
2499.53460	0.02407
2498.24883	0.02384
2496.96306	0.02356
2495.67729	0.02322
2494.39152	0.02282
2493.10576	0.02236
2491.81999	0.02186
2490.53422	0.02137
2489.24845	0.02105
2487.96268	0.02113
2486.67691	0.02165
2485.39114	0.02240
2484.10537	0.02302
2482.81960	0.02333
2481.53384	0.02339
2480.24807	0.02329
2478.96230	0.02311
2477.67653	0.02287
2476.39076	0.02263
2475.10499	0.02249
2473.81922	0.02254
2472.53345	0.02267
2471.24769	0.02267
2469.96192	0.02237
2468.67615	0.02180
2467.39038	0.02124
2466.10461	0.02099
2464.81884	0.02123
2463.53307	0.02187
2462.24730	0.02264
2460.96153	0.02325
2459.67577	0.02361
2458.39000	0.02367
2457.10423	0.02342
2455.81846	0.02298
2454.53269	0.02259
2453.24692	0.02237
2451.96115	0.02224
2450.67538	0.02206
2449.38962	0.02183
2448.10385	0.02163
2446.81808	0.02159
2445.53231	0.02177
2444.24654	0.02204
2442.96077	0.02216
2441.67500	0.02200
2440.38923	0.02171
2439.10346	0.02149
2437.81770	0.02134
2436.53193	0.02124
2435.24616	0.02127
2433.96039	0.02157
2432.67462	0.02207
2431.38885	0.02250
2430.10308	0.02259
2428.81731	0.02229
2427.53155	0.02182
2426.24578	0.02137
2424.96001	0.02103
2423.67424	0.02076
2422.38847	0.02052
2421.10270	0.02033
2419.81693	0.02029
2418.53116	0.02047
2417.24539	0.02083
2415.95963	0.02116
2414.67386	0.02129
2413.38809	0.02121
2412.10232	0.02109
2410.81655	0.02104
2409.53078	0.02101
2408.24501	0.02088
2406.95924	0.02068
2405.67347	0.02049
2404.38771	0.02036
2403.10194	0.02025
2401.81617	0.02014
2400.53040	0.02008
2399.24463	0.02009
2397.95886	0.02017
2396.67309	0.02027
2395.38732	0.02039
2394.10156	0.02054
2392.81579	0.02068
2391.53002	0.02075
2390.24425	0.02070
2388.95848	0.02057
2387.67271	0.02042
2386.38694	0.02032
2385.10117	0.02033
2383.81540	0.02051
2382.52964	0.02080
2381.24387	0.02105
2379.95810	0.02111
2378.67233	0.02095
2377.38656	0.02079
2376.10079	0.02086
2374.81502	0.02108
2373.52925	0.02107
2372.24349	0.02072
2370.95772	0.02024
2369.67195	0.01988
2368.38618	0.01973
2367.10041	0.01980
2365.81464	0.02007
2364.52887	0.02044
2363.24310	0.02075
2361.95733	0.02089
2360.67157	0.02077
2359.38580	0.02060
2358.10003	0.02053
2356.81426	0.02061
2355.52849	0.02082
2354.24272	0.02111
2352.95695	0.02137
2351.67118	0.02137
2350.38542	0.02131
2349.09965	0.02142
2347.81388	0.02153
2346.52811	0.02139
2345.24234	0.02124
2343.95657	0.02143
2342.67080	0.02189
2341.38503	0.02171
2340.09926	0.02105
2338.81350	0.02099
2337.52773	0.02144
2336.24196	0.02121
2334.95619	0.02068
2333.67042	0.02091
2332.38465	0.02162
2331.09888	0.02141
2329.81311	0.02129
2328.52735	0.02175
2327.24158	0.02190
2325.95581	0.02205
2324.67004	0.02263
2323.38427	0.02302
2322.09850	0.02268
2320.81273	0.02226
2319.52696	0.02178
2318.24119	0.02143
2316.95543	0.02140
2315.66966	0.02134
2314.38389	0.02128
2313.09812	0.02135
2311.81235	0.02138
2310.52658	0.02144
2309.24081	0.02140
2307.95504	0.02111
2306.66928	0.02064
2305.38351	0.02005
2304.09774	0.01958
2302.81197	0.01945
2301.52620	0.01964
2300.24043	0.02002
2298.95466	0.02038
2297.66889	0.02057
2296.38312	0.02053
2295.09736	0.02026
2293.81159	0.01983
2292.52582	0.01934
2291.24005	0.01899
2289.95428	0.01898
2288.66851	0.01937
2287.38274	0.01995
2286.09697	0.02030
2284.81121	0.02007
2283.52544	0.01927
2282.23967	0.01835
2280.95390	0.01786
2279.66813	0.01802
2278.38236	0.01858
2277.09659	0.01903
2275.81082	0.01903
2274.52505	0.01863
2273.23929	0.01816
2271.95352	0.01785
2270.66775	0.01770
2269.38198	0.01753
2268.09621	0.01730
2266.81044	0.01714
2265.52467	0.01727
2264.23890	0.01767
2262.95314	0.01797
2261.66737	0.01768
2260.38160	0.01674
2259.09583	0.01564
2257.81006	0.01503
2256.52429	0.01513
2255.23852	0.01566
2253.95275	0.01619
2252.66698	0.01645
2251.38122	0.01640
2250.09545	0.01611
2248.80968	0.01571
2247.52391	0.01525
2246.23814	0.01500
2244.95237	0.01498
2243.66660	0.01495
2242.38083	0.01458
2241.09507	0.01374
2239.80930	0.01276
2238.52353	0.01231
2237.23776	0.01278
2235.95199	0.01392
2234.66622	0.01499
2233.38045	0.01541
2232.09468	0.01516
2230.80891	0.01462
2229.52315	0.01415
2228.23738	0.01380
2226.95161	0.01345
2225.66584	0.01308
2224.38007	0.01290
2223.09430	0.01315
2221.80853	0.01370
2220.52276	0.01416
2219.23700	0.01421
2217.95123	0.01384
2216.66546	0.01329
2215.37969	0.01283
2214.09392	0.01269
2212.80815	0.01291
2211.52238	0.01328
2210.23661	0.01349
2208.95084	0.01333
2207.66508	0.01285
2206.37931	0.01215
2205.09354	0.01126
2203.80777	0.01024
2202.52200	0.00940
2201.23623	0.00915
2199.95046	0.00958
2198.66469	0.01033
2197.37893	0.01096
2196.09316	0.01143
2194.80739	0.01198
2193.52162	0.01267
2192.23585	0.01311
2190.95008	0.01280
2189.66431	0.01169
2188.37854	0.01021
2187.09277	0.00897
2185.80701	0.00822
2184.52124	0.00781
2183.23547	0.00736
2181.94970	0.00677
2180.66393	0.00630
2179.37816	0.00632
2178.09239	0.00692
2176.80662	0.00779
2175.52085	0.00845
2174.23509	0.00857
2172.94932	0.00815
2171.66355	0.00756
2170.37778	0.00732
2169.09201	0.00770
2167.80624	0.00847
2166.52047	0.00918
2165.23470	0.00954
2163.94894	0.00944
2162.66317	0.00863
2161.37740	0.00680
2160.09163	0.00422
2158.80586	0.00205
2157.52009	0.00156
2156.23432	0.00290
2154.94855	0.00500
2153.66278	0.00654
2152.37702	0.00671
2151.09125	0.00557
2149.80548	0.00394
2148.51971	0.00286
2147.23394	0.00275
2145.94817	0.00320
2144.66240	0.00359
2143.37663	0.00387
2142.09087	0.00439
2140.80510	0.00524
2139.51933	0.00617
2138.23356	0.00699
2136.94779	0.00776
2135.66202	0.00847
2134.37625	0.00888
2133.09048	0.00876
2131.80471	0.00823
2130.51895	0.00763
2129.23318	0.00737
2127.94741	0.00766
2126.66164	0.00848
2125.37587	0.00948
2124.09010	0.01025
2122.80433	0.01059
2121.51856	0.01057
2120.23280	0.01044
2118.94703	0.01035
2117.66126	0.01034
2116.37549	0.01034
2115.08972	0.01026
2113.80395	0.01007
2112.51818	0.00982
2111.23241	0.00961
2109.94664	0.00941
2108.66088	0.00922
2107.37511	0.00912
2106.08934	0.00928
2104.80357	0.00977
2103.51780	0.01035
2102.23203	0.01068
2100.94626	0.01062
2099.66049	0.01101
2098.37473	0.01085
2097.08896	0.01028
2095.80319	0.00957
2094.51742	0.00883
2093.23165	0.00824
2091.94588	0.00810
2090.66011	0.00855
2089.37434	0.00941
2088.08857	0.01014
2086.80281	0.01027
2085.51704	0.00978
2084.23127	0.00914
2082.94550	0.00882
2081.65973	0.00894
2080.37396	0.00929
2079.08819	0.00968
2077.80242	0.00994
2076.51666	0.00998
2075.23089	0.00981
2073.94512	0.00956
2072.65935	0.00939
2071.37358	0.00925
2070.08781	0.00899
2068.80204	0.00852
2067.51627	0.00789
2066.23050	0.00723
2064.94474	0.00669
2063.65897	0.00643
2062.37320	0.00652
2061.08743	0.00691
2059.80166	0.00736
2058.51589	0.00757
2057.23012	0.00734
2055.94435	0.00685
2054.65859	0.00649
2053.37282	0.00646
2052.08705	0.00658
2050.80128	0.00649
2049.51551	0.00595
2048.22974	0.00500
2046.94397	0.00383
2045.65820	0.00280
2044.37243	0.00233
2043.08667	0.00263
2041.80090	0.00338
2040.51513	0.00401
2039.22936	0.00417
2037.94359	0.00408
2036.65782	0.00426
2035.37205	0.00498
2034.08628	0.00587
2032.80052	0.00613
2031.51475	0.00529
2030.22898	0.00379
2028.94321	0.00273
2027.65744	0.00285
2026.37167	0.00377
2025.08590	0.00458
2023.80013	0.00481
2022.51436	0.00464
2021.22860	0.00431
2019.94283	0.00388
2018.65706	0.00342
2017.37129	0.00323
2016.08552	0.00347
2014.79975	0.00385
2013.51398	0.00393
2012.22821	0.00349
2010.94245	0.00268
2009.65668	0.00184
2008.37091	0.00131
2007.08514	0.00130
2005.79937	0.00184
2004.51360	0.00271
2003.22783	0.00362
2001.94206	0.00433
2000.65629	0.00474
1999.37053	0.00497
1998.08476	0.00528
1996.79899	0.00591
1995.51322	0.00679
1994.22745	0.00755
1992.94168	0.00795
1991.65591	0.00808
1990.37014	0.00813
1989.08438	0.00807
1987.79861	0.00762
1986.51284	0.00675
1985.22707	0.00594
1983.94130	0.00592
1982.65553	0.00695
1981.36976	0.00849
1980.08399	0.00966
1978.79822	0.01000
1977.51246	0.00968
1976.22669	0.00908
1974.94092	0.00837
1973.65515	0.00747
1972.36938	0.00640
1971.08361	0.00544
1969.79784	0.00489
1968.51207	0.00484
1967.22631	0.00511
1965.94054	0.00535
1964.65477	0.00539
1963.36900	0.00532
1962.08323	0.00544
1960.79746	0.00599
1959.51169	0.00690
1958.22592	0.00782
1956.94015	0.00825
1955.65439	0.00792
1954.36862	0.00703
1953.08285	0.00616
1951.79708	0.00587
1950.51131	0.00625
1949.22554	0.00707
1947.93977	0.00801
1946.65400	0.00886
1945.36823	0.00949
1944.08247	0.00979
1942.79670	0.00983
1941.51093	0.00980
1940.22516	0.00987
1938.93939	0.01006
1937.65362	0.01032
1936.36785	0.01055
1935.08208	0.01058
1933.79632	0.01028
1932.51055	0.00970
1931.22478	0.00914
1929.93901	0.00893
1928.65324	0.00912
1927.36747	0.00954
1926.08170	0.00997
1924.79593	0.01039
1923.51016	0.01080
1922.22440	0.01115
1920.93863	0.01133
1919.65286	0.01132
1918.36709	0.01123
1917.08132	0.01116
1915.79555	0.01113
1914.50978	0.01109
1913.22401	0.01104
1911.93825	0.01102
1910.65248	0.01113
1909.36671	0.01140
1908.08094	0.01171
1906.79517	0.01189
1905.50940	0.01184
1904.22363	0.01168
1902.93786	0.01155
1901.65209	0.01151
1900.36633	0.01151
1899.08056	0.01151
1897.79479	0.01147
1896.50902	0.01139
1895.22325	0.01131
1893.93748	0.01127
1892.65171	0.01131
1891.36594	0.01141
1890.08018	0.01148
1888.79441	0.01145
1887.50864	0.01132
1886.22287	0.01115
1884.93710	0.01097
1883.65133	0.01079
1882.36556	0.01062
1881.07979	0.01058
1879.79402	0.01077
1878.50826	0.01114
1877.22249	0.01151
1875.93672	0.01173
1874.65095	0.01176
1873.36518	0.01169
1872.07941	0.01163
1870.79364	0.01160
1869.50787	0.01157
1868.22211	0.01147
1866.93634	0.01129
1865.65057	0.01111
1864.36480	0.01101
1863.07903	0.01101
1861.79326	0.01103
1860.50749	0.01105
1859.22172	0.01113
1857.93595	0.01135
1856.65019	0.01164
1855.36442	0.01185
1854.07865	0.01183
1852.79288	0.01166
1851.50711	0.01150
1850.22134	0.01150
1848.93557	0.01163
1847.64980	0.01177
1846.36404	0.01182
1845.07827	0.01172
1843.79250	0.01157
1842.50673	0.01144
1841.22096	0.01136
1839.93519	0.01130
1838.64942	0.01127
1837.36365	0.01126
1836.07788	0.01131
1834.79212	0.01148
1833.50635	0.01173
1832.22058	0.01190
1830.93481	0.01193
1829.64904	0.01191
1828.36327	0.01199
1827.07750	0.01225
1825.79173	0.01259
1824.50597	0.01290
1823.22020	0.01309
1821.93443	0.01309
1820.64866	0.01294
1819.36289	0.01273
1818.07712	0.01254
1816.79135	0.01243
1815.50558	0.01238
1814.21981	0.01232
1812.93405	0.01218
1811.64828	0.01200
1810.36251	0.01186
1809.07674	0.01182
1807.79097	0.01188
1806.50520	0.01199
1805.21943	0.01211
1803.93366	0.01224
1802.64790	0.01238
1801.36213	0.01253
1800.07636	0.01265
1798.79059	0.01270
1797.50482	0.01269
1796.21905	0.01269
1794.93328	0.01271
1793.64751	0.01269
1792.36174	0.01266
1791.07598	0.01268
1789.79021	0.01278
1788.50444	0.01291
1787.21867	0.01296
1785.93290	0.01292
1784.64713	0.01282
1783.36136	0.01276
1782.07559	0.01277
1780.78983	0.01284
1779.50406	0.01296
1778.21829	0.01311
1776.93252	0.01324
1775.64675	0.01332
1774.36098	0.01331
1773.07521	0.01325
1771.78944	0.01319
1770.50367	0.01316
1769.21791	0.01314
1767.93214	0.01316
1766.64637	0.01325
1765.36060	0.01337
1764.07483	0.01345
1762.78906	0.01351
1761.50329	0.01359
1760.21752	0.01370
1758.93176	0.01376
1757.64599	0.01375
1756.36022	0.01371
1755.07445	0.01368
1753.78868	0.01365
1752.50291	0.01362
1751.21714	0.01361
1749.93137	0.01362
1748.64560	0.01360
1747.35984	0.01356
1746.07407	0.01356
1744.78830	0.01363
1743.50253	0.01373
1742.21676	0.01382
1740.93099	0.01387
1739.64522	0.01394
1738.35945	0.01409
1737.07369	0.01424
1735.78792	0.01431
1734.50215	0.01434
1733.21638	0.01443
1731.93061	0.01454
1730.64484	0.01456
1729.35907	0.01454
1728.07330	0.01456
1726.78753	0.01465
1725.50177	0.01476
1724.21600	0.01489
1722.93023	0.01507
1721.64446	0.01534
1720.35869	0.01565
1719.07292	0.01595
1717.78715	0.01622
1716.50138	0.01648
1715.21561	0.01670
1713.92985	0.01691
1712.64408	0.01719
1711.35831	0.01758
1710.07254	0.01805
1708.78677	0.01852
1707.50100	0.01896
1706.21523	0.01937
1704.92946	0.01982
1703.64370	0.02032
1702.35793	0.02080
1701.07216	0.02130
1699.78639	0.02191
1698.50062	0.02257
1697.21485	0.02315
1695.92908	0.02365
1694.64331	0.02420
1693.35754	0.02476
1692.07178	0.02525
1690.78601	0.02573
1689.50024	0.02630
1688.21447	0.02697
1686.92870	0.02765
1685.64293	0.02829
1684.35716	0.02892
1683.07139	0.02953
1681.78563	0.03002
1680.49986	0.03040
1679.21409	0.03081
1677.92832	0.03135
1676.64255	0.03198
1675.35678	0.03267
1674.07101	0.03338
1672.78524	0.03405
1671.49947	0.03462
1670.21371	0.03511
1668.92794	0.03557
1667.64217	0.03605
1666.35640	0.03653
1665.07063	0.03701
1663.78486	0.03749
1662.49909	0.03794
1661.21332	0.03833
1659.92756	0.03867
1658.64179	0.03904
1657.35602	0.03952
1656.07025	0.04006
1654.78448	0.04050
1653.49871	0.04081
1652.21294	0.04105
1650.92717	0.04121
1649.64140	0.04123
1648.35564	0.04117
1647.06987	0.04114
1645.78410	0.04116
1644.49833	0.04115
1643.21256	0.04103
1641.92679	0.04083
1640.64102	0.04065
1639.35525	0.04054
1638.06949	0.04043
1636.78372	0.04025
1635.49795	0.03997
1634.21218	0.03962
1632.92641	0.03921
1631.64064	0.03880
1630.35487	0.03845
1629.06910	0.03814
1627.78333	0.03785
1626.49757	0.03754
1625.21180	0.03717
1623.92603	0.03675
1622.64026	0.03635
1621.35449	0.03603
1620.06872	0.03578
1618.78295	0.03554
1617.49718	0.03526
1616.21142	0.03495
1614.92565	0.03465
1613.63988	0.03434
1612.35411	0.03408
1611.06834	0.03389
1609.78257	0.03376
1608.49680	0.03364
1607.21103	0.03354
1605.92526	0.03346
1604.63950	0.03343
1603.35373	0.03343
1602.06796	0.03343
1600.78219	0.03342
1599.49642	0.03341
1598.21065	0.03343
1596.92488	0.03351
1595.63911	0.03368
1594.35335	0.03392
1593.06758	0.03417
1591.78181	0.03440
1590.49604	0.03460
1589.21027	0.03479
1587.92450	0.03501
1586.63873	0.03525
1585.35296	0.03549
1584.06719	0.03574
1582.78143	0.03601
1581.49566	0.03637
1580.20989	0.03684
1578.92412	0.03737
1577.63835	0.03783
1576.35258	0.03823
1575.06681	0.03865
1573.78104	0.03912
1572.49528	0.03958
1571.20951	0.04001
1569.92374	0.04046
1568.63797	0.04096
1567.35220	0.04149
1566.06643	0.04200
1564.78066	0.04251
1563.49489	0.04304
1562.20912	0.04357
1560.92336	0.04407
1559.63759	0.04457
1558.35182	0.04506
1557.06605	0.04549
1555.78028	0.04577
1554.49451	0.04601
1553.20874	0.04633
1551.92297	0.04672
1550.63721	0.04706
1549.35144	0.04734
1548.06567	0.04757
1546.77990	0.04780
1545.49413	0.04808
1544.20836	0.04845
1542.92259	0.04884
1541.63682	0.04913
1540.35105	0.04930
1539.06529	0.04942
1537.77952	0.04957
1536.49375	0.04976
1535.20798	0.04998
1533.92221	0.05027
1532.63644	0.05064
1531.35067	0.05108
1530.06490	0.05158
1528.77914	0.05220
1527.49337	0.05297
1526.20760	0.05384
1524.92183	0.05479
1523.63606	0.05574
1522.35029	0.05668
1521.06452	0.05764
1519.77875	0.05864
1518.49298	0.05962
1517.20722	0.06059
1515.92145	0.06160
1514.63568	0.06271
1513.34991	0.06392
1512.06414	0.06527
1510.77837	0.06675
1509.49260	0.06828
1508.20683	0.06978
1506.92107	0.07118
1505.63530	0.07251
1504.34953	0.07373
1503.06376	0.07482
1501.77799	0.07584
1500.49222	0.07683
1499.20645	0.07778
1497.92068	0.07866
1496.63491	0.07948
1495.34915	0.08030
1494.06338	0.08113
1492.77761	0.08194
1491.49184	0.08276
1490.20607	0.08362
1488.92030	0.08452
1487.63453	0.08548
1486.34876	0.08652
1485.06299	0.08767
1483.77723	0.08887
1482.49146	0.09010
1481.20569	0.09135
1479.91992	0.09264
1478.63415	0.09393
1477.34838	0.09518
1476.06261	0.09633
1474.77684	0.09734
1473.49108	0.09818
1472.20531	0.09887
1470.91954	0.09944
1469.63377	0.09990
1468.34800	0.10028
1467.06223	0.10059
1465.77646	0.10085
1464.49069	0.10105
1463.20492	0.10122
1461.91916	0.10143
1460.63339	0.10173
1459.34762	0.10216
1458.06185	0.10270
1456.77608	0.10334
1455.49031	0.10403
1454.20454	0.10468
1452.91877	0.10525
1451.63301	0.10572
1450.34724	0.10609
1449.06147	0.10634
1447.77570	0.10651
1446.48993	0.10663
1445.20416	0.10668
1443.91839	0.10662
1442.63262	0.10645
1441.34685	0.10622
1440.06109	0.10596
1438.77532	0.10571
1437.48955	0.10552
1436.20378	0.10546
1434.91801	0.10559
1433.63224	0.10591
1432.34647	0.10645
1431.06070	0.10723
1429.77494	0.10821
1428.48917	0.10932
1427.20340	0.11052
1425.91763	0.11183
1424.63186	0.11328
1423.34609	0.11487
1422.06032	0.11647
1420.77455	0.11795
1419.48878	0.11925
1418.20302	0.12037
1416.91725	0.12128
1415.63148	0.12195
1414.34571	0.12240
1413.05994	0.12267
1411.77417	0.12277
1410.48840	0.12270
1409.20263	0.12240
1407.91687	0.12186
1406.63110	0.12110
1405.34533	0.12010
1404.05956	0.11887
1402.77379	0.11737
1401.48802	0.11560
1400.20225	0.11360
1398.91648	0.11149
1397.63071	0.10932
1396.34495	0.10710
1395.05918	0.10484
1393.77341	0.10253
1392.48764	0.10018
1391.20187	0.09782
1389.91610	0.09546
1388.63033	0.09313
1387.34456	0.09083
1386.05880	0.08853
1384.77303	0.08624
1383.48726	0.08397
1382.20149	0.08171
1380.91572	0.07943
1379.62995	0.07709
1378.34418	0.07469
1377.05841	0.07228
1375.77264	0.06989
1374.48688	0.06754
1373.20111	0.06518
1371.91534	0.06280
1370.62957	0.06043
1369.34380	0.05817
1368.05803	0.05606
1366.77226	0.05411
1365.48649	0.05229
1364.20073	0.05056
1362.91496	0.04893
1361.62919	0.04738
1360.34342	0.04592
1359.05765	0.04456
1357.77188	0.04331
1356.48611	0.04217
1355.20034	0.04114
1353.91457	0.04018
1352.62881	0.03929
1351.34304	0.03845
1350.05727	0.03763
1348.77150	0.03685
1347.48573	0.03611
1346.19996	0.03542
1344.91419	0.03475
1343.62842	0.03411
1342.34266	0.03353
1341.05689	0.03303
1339.77112	0.03260
1338.48535	0.03220
1337.19958	0.03178
1335.91381	0.03134
1334.62804	0.03088
1333.34227	0.03045
1332.05650	0.03006
1330.77074	0.02969
1329.48497	0.02934
1328.19920	0.02902
1326.91343	0.02872
1325.62766	0.02843
1324.34189	0.02815
1323.05612	0.02786
1321.77035	0.02755
1320.48459	0.02722
1319.19882	0.02689
1317.91305	0.02661
1316.62728	0.02634
1315.34151	0.02608
1314.05574	0.02579
1312.76997	0.02552
1311.48420	0.02527
1310.19843	0.02502
1308.91267	0.02476
1307.62690	0.02452
1306.34113	0.02430
1305.05536	0.02410
1303.76959	0.02390
1302.48382	0.02371
1301.19805	0.02352
1299.91228	0.02335
1298.62652	0.02318
1297.34075	0.02300
1296.05498	0.02281
1294.76921	0.02265
1293.48344	0.02254
1292.19767	0.02246
1290.91190	0.02239
1289.62613	0.02228
1288.34036	0.02213
1287.05460	0.02197
1285.76883	0.02182
1284.48306	0.02166
1283.19729	0.02151
1281.91152	0.02137
1280.62575	0.02125
1279.33998	0.02117
1278.05421	0.02112
1276.76845	0.02109
1275.48268	0.02107
1274.19691	0.02100
1272.91114	0.02089
1271.62537	0.02077
1270.33960	0.02066
1269.05383	0.02058
1267.76806	0.02052
1266.48229	0.02045
1265.19653	0.02037
1263.91076	0.02027
1262.62499	0.02016
1261.33922	0.02003
1260.05345	0.01992
1258.76768	0.01983
1257.48191	0.01977
1256.19614	0.01971
1254.91037	0.01966
1253.62461	0.01964
1252.33884	0.01965
1251.05307	0.01967
1249.76730	0.01964
1248.48153	0.01957
1247.19576	0.01948
1245.90999	0.01940
1244.62422	0.01932
1243.33846	0.01923
1242.05269	0.01913
1240.76692	0.01904
1239.48115	0.01898
1238.19538	0.01892
1236.90961	0.01883
1235.62384	0.01870
1234.33807	0.01857
1233.05230	0.01845
1231.76654	0.01835
1230.48077	0.01824
1229.19500	0.01811
1227.90923	0.01794
1226.62346	0.01777
1225.33769	0.01762
1224.05192	0.01750
1222.76615	0.01739
1221.48039	0.01728
1220.19462	0.01715
1218.90885	0.01701
1217.62308	0.01689
1216.33731	0.01678
1215.05154	0.01669
1213.76577	0.01660
1212.48000	0.01652
1211.19423	0.01644
1209.90847	0.01640
1208.62270	0.01641
1207.33693	0.01645
1206.05116	0.01648
1204.76539	0.01648
1203.47962	0.01649
1202.19385	0.01653
1200.90808	0.01655
1199.62232	0.01647
1198.33655	0.01645
1197.05078	0.01638
1195.76501	0.01628
1194.47924	0.01620
1193.19347	0.01616
1191.90770	0.01613
1190.62193	0.01607
1189.33616	0.01596
1188.05040	0.01583
1186.76463	0.01575
1185.47886	0.01573
1184.19309	0.01576
1182.90732	0.01581
1181.62155	0.01582
1180.33578	0.01578
1179.05001	0.01572
1177.76425	0.01569
1176.47848	0.01570
1175.19271	0.01575
1173.90694	0.01583
1172.62117	0.01594
1171.33540	0.01606
1170.04963	0.01620
1168.76386	0.01637
1167.47809	0.01655
1166.19233	0.01670
1164.90656	0.01680
1163.62079	0.01687
1162.33502	0.01699
1161.04925	0.01719
1159.76348	0.01746
1158.47771	0.01778
1157.19194	0.01814
1155.90618	0.01850
1154.62041	0.01881
1153.33464	0.01904
1152.04887	0.01922
1150.76310	0.01941
1149.47733	0.01969
1148.19156	0.02008
1146.90579	0.02061
1145.62002	0.02127
1144.33426	0.02203
1143.04849	0.02283
1141.76272	0.02363
1140.47695	0.02443
1139.19118	0.02531
1137.90541	0.02635
1136.61964	0.02758
1135.33387	0.02899
1134.04811	0.03054
1132.76234	0.03220
1131.47657	0.03401
1130.19080	0.03598
1128.90503	0.03814
1127.61926	0.04048
1126.33349	0.04300
1125.04772	0.04571
1123.76195	0.04858
1122.47619	0.05160
1121.19042	0.05470
1119.90465	0.05789
1118.61888	0.06114
1117.33311	0.06442
1116.04734	0.06771
1114.76157	0.07100
1113.47580	0.07431
1112.19004	0.07762
1110.90427	0.08097
1109.61850	0.08434
1108.33273	0.08770
1107.04696	0.09097
1105.76119	0.09408
1104.47542	0.09706
1103.18965	0.09999
1101.90388	0.10292
1100.61812	0.10585
1099.33235	0.10876
1098.04658	0.11161
1096.76081	0.11437
1095.47504	0.11702
1094.18927	0.11955
1092.90350	0.12193
1091.61773	0.12417
1090.33197	0.12628
1089.04620	0.12833
1087.76043	0.13032
1086.47466	0.13225
1085.18889	0.13413
1083.90312	0.13603
1082.61735	0.13803
1081.33158	0.14018
1080.04581	0.14250
1078.76005	0.14497
1077.47428	0.14761
1076.18851	0.15042
1074.90274	0.15339
1073.61697	0.15647
1072.33120	0.15961
1071.04543	0.16280
1069.75966	0.16603
1068.47390	0.16932
1067.18813	0.17270
1065.90236	0.17619
1064.61659	0.17975
1063.33082	0.18333
1062.04505	0.18688
1060.75928	0.19040
1059.47351	0.19387
1058.18774	0.19728
1056.90198	0.20060
1055.61621	0.20382
1054.33044	0.20702
1053.04467	0.21024
1051.75890	0.21353
1050.47313	0.21683
1049.18736	0.22012
1047.90159	0.22341
1046.61583	0.22677
1045.33006	0.23024
1044.04429	0.23381
1042.75852	0.23746
1041.47275	0.24113
1040.18698	0.24478
1038.90121	0.24840
1037.61544	0.25204
1036.32967	0.25577
1035.04391	0.25954
1033.75814	0.26322
1032.47237	0.26666
1031.18660	0.26984
1029.90083	0.27277
1028.61506	0.27545
1027.32929	0.27785
1026.04352	0.27994
1024.75775	0.28170
1023.47199	0.28313
1022.18622	0.28424
1020.90045	0.28502
1019.61468	0.28544
1018.32891	0.28540
1017.04314	0.28480
1015.75737	0.28360
1014.47160	0.28186
1013.18584	0.27970
1011.90007	0.27710
1010.61430	0.27398
1009.32853	0.27023
1008.04276	0.26586
1006.75699	0.26094
1005.47122	0.25557
1004.18545	0.24975
1002.89968	0.24347
1001.61392	0.23676
1000.32815	0.22969
999.04238	0.22238
997.75661	0.21488
996.47084	0.20722
995.18507	0.19941
993.89930	0.19152
992.61353	0.18368
991.32777	0.17604
990.04200	0.16870
988.75623	0.16162
987.47046	0.15474
986.18469	0.14804
984.89892	0.14161
983.61315	0.13557
982.32738	0.12992
981.04161	0.12462
979.75585	0.11966
978.47008	0.11508
977.18431	0.11092
975.89854	0.10721
974.61277	0.10397
973.32700	0.10125
972.04123	0.09913
970.75546	0.09767
969.46970	0.09689
968.18393	0.09673
966.89816	0.09713
965.61239	0.09799
964.32662	0.09914
963.04085	0.10029
961.75508	0.10113
960.46931	0.10142
959.18354	0.10100
957.89778	0.09984
956.61201	0.09796
955.32624	0.09551
954.04047	0.09275
952.75470	0.08988
951.46893	0.08703
950.18316	0.08427
948.89739	0.08161
947.61163	0.07907
946.32586	0.07662
945.04009	0.07421
943.75432	0.07184
942.46855	0.06952
941.18278	0.06730
939.89701	0.06520
938.61124	0.06325
937.32547	0.06147
936.03971	0.05985
934.75394	0.05837
933.46817	0.05699
932.18240	0.05567
930.89663	0.05440
929.61086	0.05318
928.32509	0.05206
927.03932	0.05109
925.75356	0.05025
924.46779	0.04949
923.18202	0.04878
921.89625	0.04809
920.61048	0.04747
919.32471	0.04690
918.03894	0.04635
916.75317	0.04573
915.46740	0.04506
914.18164	0.04439
912.89587	0.04379
911.61010	0.04330
910.32433	0.04289
909.03856	0.04252
907.75279	0.04214
906.46702	0.04171
905.18125	0.04127
903.89549	0.04085
902.60972	0.04044
901.32395	0.04001
900.03818	0.03954
898.75241	0.03909
897.46664	0.03874
896.18087	0.03852
894.89510	0.03845
893.60933	0.03852
892.32357	0.03872
891.03780	0.03905
889.75203	0.03953
888.46626	0.04024
887.18049	0.04130
885.89472	0.04295
884.60895	0.04548
883.32318	0.04898
882.03742	0.05309
880.75165	0.05708
879.46588	0.06031
878.18011	0.06268
876.89434	0.06454
875.60857	0.06633
874.32280	0.06814
873.03703	0.06962
871.75126	0.07029
870.46550	0.06987
869.17973	0.06841
867.89396	0.06614
866.60819	0.06334
865.32242	0.06026
864.03665	0.05710
862.75088	0.05403
861.46511	0.05114
860.17935	0.04853
858.89358	0.04628
857.60781	0.04448
856.32204	0.04312
855.03627	0.04208
853.75050	0.04122
852.46473	0.04049
851.17896	0.03988
849.89319	0.03936
848.60743	0.03887
847.32166	0.03837
846.03589	0.03790
844.75012	0.03749
843.46435	0.03710
842.17858	0.03668
840.89281	0.03622
839.60704	0.03579
838.32128	0.03542
837.03551	0.03510
835.74974	0.03480
834.46397	0.03452
833.17820	0.03426
831.89243	0.03402
830.60666	0.03379
829.32089	0.03357
828.03512	0.03336
826.74936	0.03316
825.46359	0.03295
824.17782	0.03276
822.89205	0.03259
821.60628	0.03247
820.32051	0.03242
819.03474	0.03244
817.74897	0.03253
816.46321	0.03260
815.17744	0.03256
813.89167	0.03236
812.60590	0.03207
811.32013	0.03182
810.03436	0.03168
808.74859	0.03163
807.46282	0.03163
806.17705	0.03160
804.89129	0.03150
803.60552	0.03135
802.31975	0.03120
801.03398	0.03109
799.74821	0.03104
798.46244	0.03102
797.17667	0.03101
795.89090	0.03099
794.60513	0.03095
793.31937	0.03088
792.03360	0.03078
790.74783	0.03067
789.46206	0.03061
788.17629	0.03063
786.89052	0.03066
785.60475	0.03065
784.31898	0.03058
783.03322	0.03050
781.74745	0.03048
780.46168	0.03049
779.17591	0.03050
777.89014	0.03046
776.60437	0.03037
775.31860	0.03026
774.03283	0.03017
772.74706	0.03011
771.46130	0.03007
770.17553	0.03003
768.88976	0.02995
767.60399	0.02983
766.31822	0.02971
765.03245	0.02966
763.74668	0.02974
762.46091	0.02992
761.17515	0.03012
759.88938	0.03026
758.60361	0.03030
757.31784	0.03029
756.03207	0.03029
754.74630	0.03035
753.46053	0.03046
752.17476	0.03059
750.88899	0.03065
749.60323	0.03058
748.31746	0.03040
747.03169	0.03018
745.74592	0.03003
744.46015	0.02997
743.17438	0.02996
741.88861	0.02992
740.60284	0.02978
739.31708	0.02958
738.03131	0.02940
736.74554	0.02934
735.45977	0.02938
734.17400	0.02948
732.88823	0.02963
731.60246	0.02985
730.31669	0.03009
729.03092	0.03030
727.74516	0.03046
726.45939	0.03058
725.17362	0.03067
723.88785	0.03071
722.60208	0.03078
721.31631	0.03089
720.03054	0.03102
718.74477	0.03113
717.45901	0.03118
716.17324	0.03114
714.88747	0.03102
713.60170	0.03086
712.31593	0.03071
711.03016	0.03062
709.74439	0.03059
708.45862	0.03056
707.17285	0.03050
705.88709	0.03042
704.60132	0.03034
703.31555	0.03027
702.02978	0.03023
700.74401	0.03023
699.45824	0.03026
698.17247	0.03033
696.88670	0.03043
695.60094	0.03056
694.31517	0.03070
693.02940	0.03079
691.74363	0.03081
690.45786	0.03076
689.17209	0.03070
687.88632	0.03064
686.60055	0.03060
685.31478	0.03056
684.02902	0.03050
682.74325	0.03039
681.45748	0.03025
680.17171	0.03014
678.88594	0.03012
677.60017	0.03014
676.31440	0.03015
675.02863	0.03013
673.74287	0.03010
672.45710	0.03014
671.17133	0.03029
669.88556	0.03051
668.59979	0.03073
667.31402	0.03086
666.02825	0.03078
664.74248	0.03057
663.45671	0.03033
662.17095	0.03012
660.88518	0.02995
659.59941	0.02981
658.31364	0.02968
657.02787	0.02958
655.74210	0.02956
654.45633	0.02959
653.17056	0.02965
651.88480	0.02970
650.59903	0.02972
649.31326	0.02972
648.02749	0.02972
646.74172	0.02971
645.45595	0.02972
644.17018	0.02979
642.88441	0.02989
641.59864	0.03001
640.31288	0.03019
639.02711	0.03046
637.74134	0.03080
636.45557	0.03118
635.16980	0.03156
633.88403	0.03194
632.59826	0.03235
631.31249	0.03288
630.02673	0.03395
628.74096	0.03537
627.45519	0.03541
626.16942	0.03732
624.88365	0.04067
623.59788	0.04421
622.31211	0.04746
621.02634	0.05040
619.74057	0.05314
618.45481	0.05556
617.16904	0.05738
615.88327	0.05856
614.59750	0.05966
613.31173	0.06160
612.02596	0.06509
610.74019	0.07014
609.45442	0.07602
608.16866	0.08209
606.88289	0.08822
605.59712	0.09429
604.31135	0.09958
603.02558	0.10287
601.73981	0.10350
600.45404	0.10195
599.16827	0.09928
597.88250	0.09631
596.59674	0.09335
595.31097	0.09046
594.02520	0.08778
592.73943	0.08559
591.45366	0.08411
590.16789	0.08341
588.88212	0.08339
587.59635	0.08394
586.31059	0.08498
585.02482	0.08649
583.73905	0.08842
582.45328	0.09069
581.16751	0.09318
579.88174	0.09581
578.59597	0.09854
577.31020	0.10137
576.02443	0.10423
574.73867	0.10703
573.45290	0.10978
572.16713	0.11261
570.88136	0.11569
569.59559	0.11914
568.30982	0.12292
567.02405	0.12690
565.73828	0.13083
564.45251	0.13428
563.16675	0.13673
561.88098	0.13771
560.59521	0.13698
559.30944	0.13459
558.02367	0.13074
556.73790	0.12566
555.45213	0.11966
554.16636	0.11315
552.88060	0.10665
551.59483	0.10049
550.30906	0.09476
549.02329	0.08941
547.73752	0.08447
546.45175	0.07998
545.16598	0.07598
543.88021	0.07242
542.59444	0.06922
541.30868	0.06637
540.02291	0.06381
538.73714	0.06147
537.45137	0.05930
536.16560	0.05729
534.87983	0.05546
533.59406	0.05378
532.30829	0.05220
531.02253	0.05065
529.73676	0.04910
528.45099	0.04765
527.16522	0.04639
525.87945	0.04534
524.59368	0.04441
523.30791	0.04343
522.02214	0.04235
520.73637	0.04125
519.45061	0.04025
518.16484	0.03944
516.87907	0.03878
515.59330	0.03818
514.30753	0.03749
513.02176	0.03668
511.73599	0.03580
510.45022	0.03501
509.16446	0.03441
507.87869	0.03399
506.59292	0.03362
505.30715	0.03315
504.02138	0.03257
502.73561	0.03199
501.44984	0.03155
500.16407	0.03130
498.87830	0.03113
497.59254	0.03091
496.30677	0.03060
495.02100	0.03025
493.73523	0.02994
492.44946	0.02970
491.16369	0.02948
489.87792	0.02924
488.59215	0.02895
487.30639	0.02863
486.02062	0.02834
484.73485	0.02815
483.44908	0.02809
482.16331	0.02809
480.87754	0.02810
479.59177	0.02815
478.30600	0.02829
477.02023	0.02855
475.73447	0.02885
474.44870	0.02913
473.16293	0.02933
471.87716	0.02946
470.59139	0.02949
469.30562	0.02940
468.01985	0.02920
466.73408	0.02892
465.44832	0.02861
464.16255	0.02831
462.87678	0.02802
461.59101	0.02772
460.30524	0.02740
459.01947	0.02705
457.73370	0.02667
456.44793	0.02630
455.16216	0.02592
453.87640	0.02554
452.59063	0.02522
451.30486	0.02497
450.01909	0.02478
448.73332	0.02458
447.44755	0.02437
446.16178	0.02413
444.87601	0.02389
443.59025	0.02369
442.30448	0.02351
441.01871	0.02335
439.73294	0.02323
438.44717	0.02313
437.16140	0.02305
435.87563	0.02297
434.58986	0.02286
433.30409	0.02273
432.01833	0.02261
430.73256	0.02253
429.44679	0.02247
428.16102	0.02241
426.87525	0.02234
425.58948	0.02225
424.30371	0.02212
423.01794	0.02196
421.73218	0.02178
420.44641	0.02159
419.16064	0.02142
417.87487	0.02130
416.58910	0.02122
415.30333	0.02115
414.01756	0.02109
412.73179	0.02105
411.44602	0.02105
410.16026	0.02109
408.87449	0.02112
407.58872	0.02114
406.30295	0.02115
405.01718	0.02119
403.73141	0.02129
402.44564	0.02146
401.15987	0.02165
399.87411	0.02181
