3997.45528	0.05085
3996.16951	0.05116
3994.88374	0.05146
3993.59798	0.05177
3992.31221	0.05188
3991.02644	0.05133
3989.74067	0.04997
3988.45490	0.04838
3987.16913	0.04748
3985.88336	0.04774
3984.59759	0.04888
3983.31183	0.05030
3982.02606	0.05155
3980.74029	0.05228
3979.45452	0.05222
3978.16875	0.05128
3976.88298	0.04983
3975.59721	0.04857
3974.31144	0.04811
3973.02567	0.04852
3971.73991	0.04939
3970.45414	0.05022
3969.16837	0.05086
3967.88260	0.05143
3966.59683	0.05196
3965.31106	0.05224
3964.02529	0.05195
3962.73952	0.05112
3961.45376	0.05016
3960.16799	0.04942
3958.88222	0.04900
3957.59645	0.04885
3956.31068	0.04898
3955.02491	0.04943
3953.73914	0.05014
3952.45337	0.05079
3951.16760	0.05109
3949.88184	0.05097
3948.59607	0.05057
3947.31030	0.05009
3946.02453	0.04966
3944.73876	0.04950
3943.45299	0.04984
3942.16722	0.05060
3940.88145	0.05132
3939.59569	0.05156
3938.30992	0.05133
3937.02415	0.05093
3935.73838	0.05054
3934.45261	0.05024
3933.16684	0.05017
3931.88107	0.05038
3930.59530	0.05059
3929.30953	0.05039
3928.02377	0.04975
3926.73800	0.04907
3925.45223	0.04873
3924.16646	0.04871
3922.88069	0.04873
3921.59492	0.04866
3920.30915	0.04864
3919.02338	0.04891
3917.73762	0.04952
3916.45185	0.05025
3915.16608	0.05061
3913.88031	0.05022
3912.59454	0.04923
3911.30877	0.04821
3910.02300	0.04759
3908.73723	0.04744
3907.45146	0.04754
3906.16570	0.04770
3904.87993	0.04772
3903.59416	0.04746
3902.30839	0.04689
3901.02262	0.04627
3899.73685	0.04606
3898.45108	0.04664
3897.16531	0.04792
3895.87955	0.04930
3894.59378	0.05007
3893.30801	0.04976
3892.02224	0.04864
3890.73647	0.04755
3889.45070	0.04708
3888.16493	0.04709
3886.87916	0.04727
3885.59339	0.04764
3884.30763	0.04811
3883.02186	0.04824
3881.73609	0.04775
3880.45032	0.04701
3879.16455	0.04656
3877.87878	0.04651
3876.59301	0.04660
3875.30724	0.04671
3874.02148	0.04698
3872.73571	0.04729
3871.44994	0.04727
3870.16417	0.04687
3868.87840	0.04644
3867.59263	0.04619
3866.30686	0.04619
3865.02109	0.04656
3863.73532	0.04721
3862.44956	0.04778
3861.16379	0.04807
3859.87802	0.04833
3858.59225	0.04886
3857.30648	0.04959
3856.02071	0.05008
3854.73494	0.05013
3853.44917	0.05005
3852.16341	0.05010
3850.87764	0.05026
3849.59187	0.05046
3848.30610	0.05074
3847.02033	0.05091
3845.73456	0.05073
3844.44879	0.05029
3843.16302	0.04993
3841.87725	0.04973
3840.59149	0.04937
3839.30572	0.04864
3838.01995	0.04793
3836.73418	0.04775
3835.44841	0.04795
3834.16264	0.04806
3832.87687	0.04784
3831.59110	0.04742
3830.30534	0.04695
3829.01957	0.04649
3827.73380	0.04616
3826.44803	0.04620
3825.16226	0.04669
3823.87649	0.04725
3822.59072	0.04752
3821.30495	0.04757
3820.01918	0.04761
3818.73342	0.04754
3817.44765	0.04727
3816.16188	0.04707
3814.87611	0.04705
3813.59034	0.04681
3812.30457	0.04616
3811.01880	0.04553
3809.73303	0.04522
3808.44726	0.04521
3807.16150	0.04567
3805.87573	0.04675
3804.58996	0.04793
3803.30419	0.04837
3802.01842	0.04798
3800.73265	0.04734
3799.44688	0.04679
3798.16111	0.04627
3796.87535	0.04591
3795.58958	0.04587
3794.30381	0.04597
3793.01804	0.04593
3791.73227	0.04567
3790.44650	0.04527
3789.16073	0.04483
3787.87496	0.04443
3786.58919	0.04418
3785.30343	0.04418
3784.01766	0.04443
3782.73189	0.04481
3781.44612	0.04508
3780.16035	0.04509
3778.87458	0.04486
3777.58881	0.04444
3776.30304	0.04397
3775.01728	0.04377
3773.73151	0.04402
3772.44574	0.04446
3771.15997	0.04470
3769.87420	0.04471
3768.58843	0.04473
3767.30266	0.04483
3766.01689	0.04492
3764.73112	0.04491
3763.44536	0.04469
3762.15959	0.04419
3760.87382	0.04349
3759.58805	0.04283
3758.30228	0.04243
3757.01651	0.04245
3755.73074	0.04289
3754.44497	0.04354
3753.15921	0.04428
3751.87344	0.04511
3750.58767	0.04600
3749.30190	0.04684
3748.01613	0.04741
3746.73036	0.04728
3745.44459	0.04651
3744.15882	0.04585
3742.87305	0.04564
3741.58729	0.04548
3740.30152	0.04531
3739.01575	0.04551
3737.72998	0.04616
3736.44421	0.04683
3735.15844	0.04699
3733.87267	0.04641
3732.58690	0.04550
3731.30114	0.04492
3730.01537	0.04479
3728.72960	0.04468
3727.44383	0.04431
3726.15806	0.04389
3724.87229	0.04375
3723.58652	0.04404
3722.30075	0.04469
3721.01498	0.04521
3719.72922	0.04505
3718.44345	0.04421
3717.15768	0.04337
3715.87191	0.04308
3714.58614	0.04329
3713.30037	0.04362
3712.01460	0.04388
3710.72883	0.04401
3709.44307	0.04401
3708.15730	0.04400
3706.87153	0.04419
3705.58576	0.04453
3704.29999	0.04475
3703.01422	0.04461
3701.72845	0.04414
3700.44268	0.04365
3699.15691	0.04333
3697.87115	0.04318
3696.58538	0.04303
3695.29961	0.04274
3694.01384	0.04244
3692.72807	0.04246
3691.44230	0.04291
3690.15653	0.04353
3688.87076	0.04410
3687.58500	0.04458
3686.29923	0.04478
3685.01346	0.04455
3683.72769	0.04411
3682.44192	0.04390
3681.15615	0.04414
3679.87038	0.04456
3678.58461	0.04467
3677.29884	0.04424
3676.01308	0.04378
3674.72731	0.04389
3673.44154	0.04424
3672.15577	0.04414
3670.87000	0.04375
3669.58423	0.04385
3668.29846	0.04464
3667.01269	0.04560
3665.72693	0.04623
3664.44116	0.04646
3663.15539	0.04654
3661.86962	0.04677
3660.58385	0.04726
3659.29808	0.04776
3658.01231	0.04797
3656.72654	0.04799
3655.44077	0.04805
3654.15501	0.04803
3652.86924	0.04768
3651.58347	0.04720
3650.29770	0.04715
3649.01193	0.04773
3647.72616	0.04849
3646.44039	0.04879
3645.15462	0.04842
3643.86886	0.04780
3642.58309	0.04748
3641.29732	0.04775
3640.01155	0.04845
3638.72578	0.04935
3637.44001	0.05033
3636.15424	0.05135
3634.86847	0.05238
3633.58270	0.05329
3632.29694	0.05387
3631.01117	0.05401
3629.72540	0.05397
3628.43963	0.05414
3627.15386	0.05448
3625.86809	0.05475
3624.58232	0.05503
3623.29655	0.05549
3622.01079	0.05595
3620.72502	0.05614
3619.43925	0.05612
3618.15348	0.05613
3616.86771	0.05626
3615.58194	0.05640
3614.29617	0.05649
3613.01040	0.05649
3611.72463	0.05628
3610.43887	0.05583
3609.15310	0.05532
3607.86733	0.05500
3606.58156	0.05508
3605.29579	0.05569
3604.01002	0.05678
3602.72425	0.05798
3601.43848	0.05892
3600.15272	0.05964
3598.86695	0.06043
3597.58118	0.06137
3596.29541	0.06224
3595.00964	0.06285
3593.72387	0.06332
3592.43810	0.06394
3591.15233	0.06470
3589.86656	0.06529
3588.58080	0.06542
3587.29503	0.06506
3586.00926	0.06461
3584.72349	0.06458
3583.43772	0.06519
3582.15195	0.06609
3580.86618	0.06663
3579.58041	0.06640
3578.29464	0.06558
3577.00888	0.06485
3575.72311	0.06476
3574.43734	0.06542
3573.15157	0.06661
3571.86580	0.06805
3570.58003	0.06957
3569.29426	0.07096
3568.00849	0.07202
3566.72273	0.07260
3565.43696	0.07270
3564.15119	0.07241
3562.86542	0.07190
3561.57965	0.07144
3560.29388	0.07134
3559.00811	0.07176
3557.72234	0.07246
3556.43657	0.07304
3555.15081	0.07322
3553.86504	0.07311
3552.57927	0.07296
3551.29350	0.07303
3550.00773	0.07349
3548.72196	0.07441
3547.43619	0.07564
3546.15042	0.07674
3544.86466	0.07728
3543.57889	0.07727
3542.29312	0.07721
3541.00735	0.07756
3539.72158	0.07833
3538.43581	0.07920
3537.15004	0.07986
3535.86427	0.08016
3534.57850	0.08014
3533.29274	0.07999
3532.00697	0.08004
3530.72120	0.08048
3529.43543	0.08117
3528.14966	0.08183
3526.86389	0.08230
3525.57812	0.08269
3524.29235	0.08314
3523.00659	0.08364
3521.72082	0.08406
3520.43505	0.08436
3519.14928	0.08469
3517.86351	0.08519
3516.57774	0.08580
3515.29197	0.08636
3514.00620	0.08674
3512.72043	0.08700
3511.43467	0.08722
3510.14890	0.08747
3508.86313	0.08778
3507.57736	0.08813
3506.29159	0.08842
3505.00582	0.08859
3503.72005	0.08871
3502.43428	0.08889
3501.14852	0.08912
3499.86275	0.08934
3498.57698	0.08952
3497.29121	0.08970
3496.00544	0.08993
3494.71967	0.09023
3493.43390	0.09062
3492.14813	0.09116
3490.86236	0.09186
3489.57660	0.09275
3488.29083	0.09390
3487.00506	0.09517
3485.71929	0.09627
3484.43352	0.09692
3483.14775	0.09703
3481.86198	0.09665
3480.57621	0.09591
3479.29045	0.09513
3478.00468	0.09480
3476.71891	0.09516
3475.43314	0.09593
3474.14737	0.09666
3472.86160	0.09713
3471.57583	0.09740
3470.29006	0.09758
3469.00429	0.09769
3467.71853	0.09769
3466.43276	0.09762
3465.14699	0.09759
3463.86122	0.09773
3462.57545	0.09812
3461.28968	0.09865
3460.00391	0.09916
3458.71814	0.09958
3457.43238	0.09994
3456.14661	0.10025
3454.86084	0.10047
3453.57507	0.10068
3452.28930	0.10106
3451.00353	0.10158
3449.71776	0.10202
3448.43199	0.10217
3447.14622	0.10211
3445.86046	0.10209
3444.57469	0.10220
3443.28892	0.10239
3442.00315	0.10254
3440.71738	0.10265
3439.43161	0.10278
3438.14584	0.10299
3436.86007	0.10327
3435.57431	0.10356
3434.28854	0.10374
3433.00277	0.10384
3431.71700	0.10403
3430.43123	0.10442
3429.14546	0.10487
3427.85969	0.10500
3426.57392	0.10465
3425.28815	0.10414
3424.00239	0.10398
3422.71662	0.10439
3421.43085	0.10516
3420.14508	0.10596
3418.85931	0.10659
3417.57354	0.10696
3416.28777	0.10708
3415.00200	0.10700
3413.71624	0.10685
3412.43047	0.10674
3411.14470	0.10679
3409.85893	0.10708
3408.57316	0.10765
3407.28739	0.10832
3406.00162	0.10878
3404.71585	0.10888
3403.43008	0.10883
3402.14432	0.10894
3400.85855	0.10937
3399.57278	0.10993
3398.28701	0.11032
3397.00124	0.11042
3395.71547	0.11029
3394.42970	0.11012
3393.14393	0.11005
3391.85817	0.11006
3390.57240	0.11009
3389.28663	0.11002
3388.00086	0.10985
3386.71509	0.10972
3385.42932	0.10974
3384.14355	0.10992
3382.85778	0.11022
3381.57201	0.11061
3380.28625	0.11107
3379.00048	0.11147
3377.71471	0.11164
3376.42894	0.11156
3375.14317	0.11143
3373.85740	0.11146
3372.57163	0.11169
3371.28586	0.11196
3370.00010	0.11216
3368.71433	0.11224
3367.42856	0.11226
3366.14279	0.11228
3364.85702	0.11236
3363.57125	0.11259
3362.28548	0.11294
3360.99971	0.11323
3359.71394	0.11320
3358.42818	0.11278
3357.14241	0.11230
3355.85664	0.11222
3354.57087	0.11268
3353.28510	0.11340
3351.99933	0.11397
3350.71356	0.11418
3349.42779	0.11406
3348.14202	0.11372
3346.85626	0.11334
3345.57049	0.11309
3344.28472	0.11319
3342.99895	0.11366
3341.71318	0.11427
3340.42741	0.11458
3339.14164	0.11433
3337.85587	0.11374
3336.57011	0.11332
3335.28434	0.11344
3333.99857	0.11396
3332.71280	0.11449
3331.42703	0.11471
3330.14126	0.11463
3328.85549	0.11439
3327.56972	0.11409
3326.28395	0.11377
3324.99819	0.11351
3323.71242	0.11340
3322.42665	0.11341
3321.14088	0.11344
3319.85511	0.11348
3318.56934	0.11369
3317.28357	0.11415
3315.99780	0.11461
3314.71204	0.11470
3313.42627	0.11425
3312.14050	0.11350
3310.85473	0.11289
3309.56896	0.11263
3308.28319	0.11258
3306.99742	0.11251
3305.71165	0.11242
3304.42588	0.11249
3303.14012	0.11273
3301.85435	0.11290
3300.56858	0.11280
3299.28281	0.11262
3297.99704	0.11269
3296.71127	0.11311
3295.42550	0.11355
3294.13973	0.11362
3292.85397	0.11328
3291.56820	0.11271
3290.28243	0.11209
3288.99666	0.11141
3287.71089	0.11072
3286.42512	0.11018
3285.13935	0.10991
3283.85358	0.10994
3282.56781	0.11021
3281.28205	0.11063
3279.99628	0.11100
3278.71051	0.11115
3277.42474	0.11110
3276.13897	0.11099
3274.85320	0.11088
3273.56743	0.11067
3272.28166	0.11035
3270.99590	0.11015
3269.71013	0.11026
3268.42436	0.11062
3267.13859	0.11091
3265.85282	0.11091
3264.56705	0.11070
3263.28128	0.11055
3261.99551	0.11061
3260.70974	0.11080
3259.42398	0.11092
3258.13821	0.11081
3256.85244	0.11047
3255.56667	0.11012
3254.28090	0.11001
3252.99513	0.11018
3251.70936	0.11033
3250.42359	0.11013
3249.13783	0.10947
3247.85206	0.10868
3246.56629	0.10824
3245.28052	0.10841
3243.99475	0.10915
3242.70898	0.11011
3241.42321	0.11089
3240.13744	0.11122
3238.85167	0.11111
3237.56591	0.11082
3236.28014	0.11063
3234.99437	0.11056
3233.70860	0.11036
3232.42283	0.10981
3231.13706	0.10900
3229.85129	0.10826
3228.56552	0.10786
3227.27976	0.10775
3225.99399	0.10769
3224.70822	0.10761
3223.42245	0.10765
3222.13668	0.10793
3220.85091	0.10832
3219.56514	0.10854
3218.27937	0.10838
3216.99360	0.10788
3215.70784	0.10730
3214.42207	0.10692
3213.13630	0.10682
3211.85053	0.10685
3210.56476	0.10683
3209.27899	0.10674
3207.99322	0.10667
3206.70745	0.10670
3205.42169	0.10683
3204.13592	0.10696
3202.85015	0.10696
3201.56438	0.10675
3200.27861	0.10636
3198.99284	0.10588
3197.70707	0.10543
3196.42130	0.10512
3195.13553	0.10508
3193.84977	0.10529
3192.56400	0.10551
3191.27823	0.10537
3189.99246	0.10473
3188.70669	0.10388
3187.42092	0.10333
3186.13515	0.10329
3184.84938	0.10360
3183.56362	0.10384
3182.27785	0.10376
3180.99208	0.10334
3179.70631	0.10282
3178.42054	0.10254
3177.13477	0.10263
3175.84900	0.10292
3174.56323	0.10311
3173.27746	0.10303
3171.99170	0.10277
3170.70593	0.10248
3169.42016	0.10228
3168.13439	0.10211
3166.84862	0.10185
3165.56285	0.10151
3164.27708	0.10125
3162.99131	0.10121
3161.70555	0.10122
3160.41978	0.10093
3159.13401	0.10020
3157.84824	0.09926
3156.56247	0.09848
3155.27670	0.09806
3153.99093	0.09799
3152.70516	0.09817
3151.41939	0.09848
3150.13363	0.09874
3148.84786	0.09879
3147.56209	0.09864
3146.27632	0.09840
3144.99055	0.09825
3143.70478	0.09824
3142.41901	0.09831
3141.13324	0.09835
3139.84748	0.09825
3138.56171	0.09798
3137.27594	0.09761
3135.99017	0.09728
3134.70440	0.09714
3133.41863	0.09721
3132.13286	0.09733
3130.84709	0.09726
3129.56132	0.09683
3128.27556	0.09607
3126.98979	0.09527
3125.70402	0.09476
3124.41825	0.09471
3123.13248	0.09499
3121.84671	0.09534
3120.56094	0.09555
3119.27517	0.09560
3117.98940	0.09557
3116.70364	0.09552
3115.41787	0.09544
3114.13210	0.09531
3112.84633	0.09507
3111.56056	0.09467
3110.27479	0.09414
3108.98902	0.09359
3107.70325	0.09318
3106.41749	0.09299
3105.13172	0.09293
3103.84595	0.09286
3102.56018	0.09273
3101.27441	0.09256
3099.98864	0.09237
3098.70287	0.09217
3097.41710	0.09204
3096.13133	0.09204
3094.84557	0.09216
3093.55980	0.09221
3092.27403	0.09205
3090.98826	0.09173
3089.70249	0.09151
3088.41672	0.09153
3087.13095	0.09160
3085.84518	0.09141
3084.55942	0.09086
3083.27365	0.09022
3081.98788	0.08977
3080.70211	0.08956
3079.41634	0.08939
3078.13057	0.08914
3076.84480	0.08886
3075.55903	0.08864
3074.27326	0.08855
3072.98750	0.08852
3071.70173	0.08845
3070.41596	0.08828
3069.13019	0.08804
3067.84442	0.08788
3066.55865	0.08787
3065.27288	0.08796
3063.98711	0.08805
3062.70135	0.08803
3061.41558	0.08787
3060.12981	0.08756
3058.84404	0.08714
3057.55827	0.08668
3056.27250	0.08628
3054.98673	0.08597
3053.70096	0.08571
3052.41519	0.08546
3051.12943	0.08521
3049.84366	0.08494
3048.55789	0.08469
3047.27212	0.08451
3045.98635	0.08453
3044.70058	0.08480
3043.41481	0.08524
3042.12904	0.08557
3040.84328	0.08551
3039.55751	0.08504
3038.27174	0.08438
3036.98597	0.08382
3035.70020	0.08355
3034.41443	0.08353
3033.12866	0.08362
3031.84289	0.08365
3030.55712	0.08353
3029.27136	0.08333
3027.98559	0.08312
3026.69982	0.08292
3025.41405	0.08272
3024.12828	0.08249
3022.84251	0.08221
3021.55674	0.08186
3020.27097	0.08147
3018.98521	0.08117
3017.69944	0.08107
3016.41367	0.08107
3015.12790	0.08097
3013.84213	0.08068
3012.55636	0.08025
3011.27059	0.07979
3009.98482	0.07934
3008.69905	0.07894
3007.41329	0.07869
3006.12752	0.07865
3004.84175	0.07878
3003.55598	0.07894
3002.27021	0.07905
3000.98444	0.07909
2999.69867	0.07910
2998.41290	0.07911
2997.12714	0.07912
2995.84137	0.07914
2994.55560	0.07918
2993.26983	0.07924
2991.98406	0.07923
2990.69829	0.07902
2989.41252	0.07857
2988.12675	0.07817
2986.84098	0.07817
2985.55522	0.07869
2984.26945	0.07950
2982.98368	0.08025
2981.69791	0.08078
2980.41214	0.08120
2979.12637	0.08174
2977.84060	0.08256
2976.55483	0.08369
2975.26907	0.08502
2973.98330	0.08651
2972.69753	0.08827
2971.41176	0.09045
2970.12599	0.09302
2968.84022	0.09577
2967.55445	0.09842
2966.26868	0.10081
2964.98291	0.10284
2963.69715	0.10438
2962.41138	0.10532
2961.12561	0.10560
2959.83984	0.10524
2958.55407	0.10432
2957.26830	0.10298
2955.98253	0.10137
2954.69676	0.09959
2953.41100	0.09769
2952.12523	0.09576
2950.83946	0.09401
2949.55369	0.09264
2948.26792	0.09164
2946.98215	0.09085
2945.69638	0.09011
2944.41061	0.08945
2943.12484	0.08895
2941.83908	0.08863
2940.55331	0.08833
2939.26754	0.08796
2937.98177	0.08760
2936.69600	0.08749
2935.41023	0.08773
2934.12446	0.08813
2932.83869	0.08843
2931.55293	0.08851
2930.26716	0.08848
2928.98139	0.08852
2927.69562	0.08860
2926.40985	0.08855
2925.12408	0.08823
2923.83831	0.08768
2922.55254	0.08708
2921.26677	0.08659
2919.98101	0.08624
2918.69524	0.08591
2917.40947	0.08549
2916.12370	0.08497
2914.83793	0.08450
2913.55216	0.08419
2912.26639	0.08402
2910.98062	0.08388
2909.69486	0.08367
2908.40909	0.08337
2907.12332	0.08306
2905.83755	0.08283
2904.55178	0.08262
2903.26601	0.08228
2901.98024	0.08169
2900.69447	0.08095
2899.40870	0.08023
2898.12294	0.07955
2896.83717	0.07878
2895.55140	0.07784
2894.26563	0.07685
2892.97986	0.07604
2891.69409	0.07556
2890.40832	0.07531
2889.12255	0.07506
2887.83678	0.07474
2886.55102	0.07442
2885.26525	0.07421
2883.97948	0.07410
2882.69371	0.07405
2881.40794	0.07404
2880.12217	0.07403
2878.83640	0.07398
2877.55063	0.07398
2876.26487	0.07411
2874.97910	0.07431
2873.69333	0.07439
2872.40756	0.07423
2871.12179	0.07398
2869.83602	0.07384
2868.55025	0.07379
2867.26448	0.07370
2865.97871	0.07350
2864.69295	0.07327
2863.40718	0.07306
2862.12141	0.07288
2860.83564	0.07265
2859.54987	0.07239
2858.26410	0.07213
2856.97833	0.07190
2855.69256	0.07165
2854.40680	0.07134
2853.12103	0.07105
2851.83526	0.07083
2850.54949	0.07065
2849.26372	0.07039
2847.97795	0.06999
2846.69218	0.06951
2845.40641	0.06899
2844.12064	0.06841
2842.83488	0.06776
2841.54911	0.06711
2840.26334	0.06651
2838.97757	0.06598
2837.69180	0.06546
2836.40603	0.06492
2835.12026	0.06437
2833.83449	0.06385
2832.54873	0.06339
2831.26296	0.06299
2829.97719	0.06260
2828.69142	0.06218
2827.40565	0.06172
2826.11988	0.06131
2824.83411	0.06104
2823.54834	0.06092
2822.26257	0.06086
2820.97681	0.06076
2819.69104	0.06059
2818.40527	0.06042
2817.11950	0.06028
2815.83373	0.06019
2814.54796	0.06015
2813.26219	0.06018
2811.97642	0.06026
2810.69066	0.06031
2809.40489	0.06029
2808.11912	0.06017
2806.83335	0.05998
2805.54758	0.05974
2804.26181	0.05951
2802.97604	0.05930
2801.69027	0.05906
2800.40450	0.05873
2799.11874	0.05836
2797.83297	0.05809
2796.54720	0.05790
2795.26143	0.05767
2793.97566	0.05734
2792.68989	0.05706
2791.40412	0.05699
2790.11835	0.05704
2788.83259	0.05696
2787.54682	0.05664
2786.26105	0.05616
2784.97528	0.05570
2783.68951	0.05534
2782.40374	0.05511
2781.11797	0.05500
2779.83220	0.05500
2778.54643	0.05501
2777.26067	0.05494
2775.97490	0.05478
2774.68913	0.05460
2773.40336	0.05444
2772.11759	0.05429
2770.83182	0.05416
2769.54605	0.05410
2768.26028	0.05415
2766.97452	0.05428
2765.68875	0.05439
2764.40298	0.05443
2763.11721	0.05436
2761.83144	0.05417
2760.54567	0.05385
2759.25990	0.05349
2757.97413	0.05318
2756.68836	0.05302
2755.40260	0.05308
2754.11683	0.05328
2752.83106	0.05342
2751.54529	0.05334
2750.25952	0.05308
2748.97375	0.05279
2747.68798	0.05258
2746.40221	0.05248
2745.11645	0.05244
2743.83068	0.05242
2742.54491	0.05237
2741.25914	0.05229
2739.97337	0.05220
2738.68760	0.05211
2737.40183	0.05200
2736.11606	0.05183
2734.83029	0.05166
2733.54453	0.05159
2732.25876	0.05163
2730.97299	0.05169
2729.68722	0.05165
2728.40145	0.05142
2727.11568	0.05106
2725.82991	0.05069
2724.54414	0.05047
2723.25838	0.05050
2721.97261	0.05072
2720.68684	0.05090
2719.40107	0.05088
2718.11530	0.05071
2716.82953	0.05051
2715.54376	0.05032
2714.25799	0.05008
2712.97222	0.04972
2711.68646	0.04931
2710.40069	0.04899
2709.11492	0.04889
2707.82915	0.04900
2706.54338	0.04927
2705.25761	0.04964
2703.97184	0.04996
2702.68607	0.05010
2701.40031	0.04996
2700.11454	0.04960
2698.82877	0.04916
2697.54300	0.04879
2696.25723	0.04858
2694.97146	0.04858
2693.68569	0.04869
2692.39992	0.04872
2691.11415	0.04852
2689.82839	0.04813
2688.54262	0.04776
2687.25685	0.04759
2685.97108	0.04761
2684.68531	0.04765
2683.39954	0.04759
2682.11377	0.04743
2680.82800	0.04729
2679.54224	0.04721
2678.25647	0.04717
2676.97070	0.04712
2675.68493	0.04699
2674.39916	0.04680
2673.11339	0.04668
2671.82762	0.04676
2670.54185	0.04703
2669.25608	0.04729
2667.97032	0.04733
2666.68455	0.04709
2665.39878	0.04671
2664.11301	0.04637
2662.82724	0.04616
2661.54147	0.04606
2660.25570	0.04602
2658.96993	0.04601
2657.68417	0.04602
2656.39840	0.04602
2655.11263	0.04601
2653.82686	0.04596
2652.54109	0.04585
2651.25532	0.04568
2649.96955	0.04553
2648.68378	0.04541
2647.39801	0.04527
2646.11225	0.04503
2644.82648	0.04473
2643.54071	0.04447
2642.25494	0.04431
2640.96917	0.04413
2639.68340	0.04384
2638.39763	0.04342
2637.11186	0.04301
2635.82609	0.04269
2634.54033	0.04244
2633.25456	0.04222
2631.96879	0.04205
2630.68302	0.04199
2629.39725	0.04209
2628.11148	0.04225
2626.82571	0.04229
2625.53994	0.04213
2624.25418	0.04185
2622.96841	0.04155
2621.68264	0.04122
2620.39687	0.04079
2619.11110	0.04038
2617.82533	0.04015
2616.53956	0.04012
2615.25379	0.04011
2613.96802	0.03995
2612.68226	0.03972
2611.39649	0.03957
2610.11072	0.03950
2608.82495	0.03939
2607.53918	0.03924
2606.25341	0.03922
2604.96764	0.03943
2603.68187	0.03964
2602.39611	0.03950
2601.11034	0.03893
2599.82457	0.03827
2598.53880	0.03798
2597.25303	0.03815
2595.96726	0.03851
2594.68149	0.03864
2593.39572	0.03838
2592.10995	0.03791
2590.82419	0.03749
2589.53842	0.03720
2588.25265	0.03692
2586.96688	0.03663
2585.68111	0.03654
2584.39534	0.03681
2583.10957	0.03733
2581.82380	0.03778
2580.53804	0.03802
2579.25227	0.03814
2577.96650	0.03821
2576.68073	0.03811
2575.39496	0.03777
2574.10919	0.03735
2572.82342	0.03708
2571.53765	0.03690
2570.25188	0.03665
2568.96612	0.03634
2567.68035	0.03614
2566.39458	0.03604
2565.10881	0.03587
2563.82304	0.03564
2562.53727	0.03559
2561.25150	0.03579
2559.96573	0.03593
2558.67997	0.03569
2557.39420	0.03522
2556.10843	0.03492
2554.82266	0.03493
2553.53689	0.03501
2552.25112	0.03495
2550.96535	0.03481
2549.67958	0.03465
2548.39381	0.03436
2547.10805	0.03394
2545.82228	0.03365
2544.53651	0.03374
2543.25074	0.03404
2541.96497	0.03418
2540.67920	0.03404
2539.39343	0.03390
2538.10766	0.03397
2536.82190	0.03414
2535.53613	0.03414
2534.25036	0.03389
2532.96459	0.03361
2531.67882	0.03352
2530.39305	0.03369
2529.10728	0.03397
2527.82151	0.03411
2526.53574	0.03398
2525.24998	0.03365
2523.96421	0.03336
2522.67844	0.03326
2521.39267	0.03328
2520.10690	0.03319
2518.82113	0.03286
2517.53536	0.03235
2516.24959	0.03191
2514.96383	0.03180
2513.67806	0.03210
2512.39229	0.03261
2511.10652	0.03307
2509.82075	0.03329
2508.53498	0.03330
2507.24921	0.03323
2505.96344	0.03312
2504.67767	0.03304
2503.39191	0.03306
2502.10614	0.03319
2500.82037	0.03329
2499.53460	0.03314
2498.24883	0.03270
2496.96306	0.03207
2495.67729	0.03141
2494.39152	0.03089
2493.10576	0.03071
2491.81999	0.03096
2490.53422	0.03148
2489.24845	0.03201
2487.96268	0.03243
2486.67691	0.03282
2485.39114	0.03320
2484.10537	0.03346
2482.81960	0.03350
2481.53384	0.03338
2480.24807	0.03318
2478.96230	0.03293
2477.67653	0.03267
2476.39076	0.03249
2475.10499	0.03242
2473.81922	0.03234
2472.53345	0.03211
2471.24769	0.03181
2469.96192	0.03166
2468.67615	0.03176
2467.39038	0.03204
2466.10461	0.03235
2464.81884	0.03256
2463.53307	0.03261
2462.24730	0.03250
2460.96153	0.03235
2459.67577	0.03225
2458.39000	0.03213
2457.10423	0.03190
2455.81846	0.03156
2454.53269	0.03128
2453.24692	0.03122
2451.96115	0.03132
2450.67538	0.03140
2449.38962	0.03135
2448.10385	0.03123
2446.81808	0.03122
2445.53231	0.03129
2444.24654	0.03132
2442.96077	0.03128
2441.67500	0.03126
2440.38923	0.03130
2439.10346	0.03126
2437.81770	0.03107
2436.53193	0.03088
2435.24616	0.03090
2433.96039	0.03112
2432.67462	0.03137
2431.38885	0.03146
2430.10308	0.03134
2428.81731	0.03103
2427.53155	0.03060
2426.24578	0.03025
2424.96001	0.03016
2423.67424	0.03029
2422.38847	0.03044
2421.10270	0.03048
2419.81693	0.03044
2418.53116	0.03040
2417.24539	0.03041
2415.95963	0.03048
2414.67386	0.03064
2413.38809	0.03084
2412.10232	0.03097
2410.81655	0.03094
2409.53078	0.03078
2408.24501	0.03060
2406.95924	0.03046
2405.67347	0.03032
2404.38771	0.03015
2403.10194	0.03005
2401.81617	0.03017
2400.53040	0.03052
2399.24463	0.03086
2397.95886	0.03093
2396.67309	0.03067
2395.38732	0.03022
2394.10156	0.02973
2392.81579	0.02932
2391.53002	0.02909
2390.24425	0.02903
2388.95848	0.02910
2387.67271	0.02920
2386.38694	0.02930
2385.10117	0.02941
2383.81540	0.02956
2382.52964	0.02973
2381.24387	0.02987
2379.95810	0.03002
2378.67233	0.03026
2377.38656	0.03064
2376.10079	0.03104
2374.81502	0.03117
2373.52925	0.03073
2372.24349	0.02965
2370.95772	0.02814
2369.67195	0.02654
2368.38618	0.02519
2367.10041	0.02440
2365.81464	0.02433
2364.52887	0.02486
2363.24310	0.02564
2361.95733	0.02630
2360.67157	0.02674
2359.38580	0.02713
2358.10003	0.02770
2356.81426	0.02852
2355.52849	0.02937
2354.24272	0.03001
2352.95695	0.03031
2351.67118	0.03034
2350.38542	0.03023
2349.09965	0.03014
2347.81388	0.03013
2346.52811	0.03015
2345.24234	0.03003
2343.95657	0.02971
2342.67080	0.02923
2341.38503	0.02872
2340.09926	0.02835
2338.81350	0.02822
2337.52773	0.02827
2336.24196	0.02824
2334.95619	0.02796
2333.67042	0.02754
2332.38465	0.02733
2331.09888	0.02757
2329.81311	0.02813
2328.52735	0.02871
2327.24158	0.02913
2325.95581	0.02942
2324.67004	0.02978
2323.38427	0.03029
2322.09850	0.03090
2320.81273	0.03140
2319.52696	0.03157
2318.24119	0.03132
2316.95543	0.03078
2315.66966	0.03020
2314.38389	0.02971
2313.09812	0.02935
2311.81235	0.02916
2310.52658	0.02924
2309.24081	0.02956
2307.95504	0.02995
2306.66928	0.03018
2305.38351	0.03015
2304.09774	0.02997
2302.81197	0.02978
2301.52620	0.02959
2300.24043	0.02933
2298.95466	0.02896
2297.66889	0.02852
2296.38312	0.02812
2295.09736	0.02794
2293.81159	0.02806
2292.52582	0.02841
2291.24005	0.02875
2289.95428	0.02886
2288.66851	0.02867
2287.38274	0.02831
2286.09697	0.02791
2284.81121	0.02752
2283.52544	0.02711
2282.23967	0.02666
2280.95390	0.02627
2279.66813	0.02606
2278.38236	0.02603
2277.09659	0.02601
2275.81082	0.02583
2274.52505	0.02545
2273.23929	0.02496
2271.95352	0.02443
2270.66775	0.02389
2269.38198	0.02341
2268.09621	0.02312
2266.81044	0.02313
2265.52467	0.02343
2264.23890	0.02388
2262.95314	0.02437
2261.66737	0.02480
2260.38160	0.02509
2259.09583	0.02509
2257.81006	0.02472
2256.52429	0.02404
2255.23852	0.02331
2253.95275	0.02284
2252.66698	0.02279
2251.38122	0.02307
2250.09545	0.02340
2248.80968	0.02349
2247.52391	0.02322
2246.23814	0.02293
2244.95237	0.02288
2243.66660	0.02297
2242.38083	0.02286
2241.09507	0.02243
2239.80930	0.02198
2238.52353	0.02186
2237.23776	0.02204
2235.95199	0.02214
2234.66622	0.02181
2233.38045	0.02109
2232.09468	0.02026
2230.80891	0.01956
2229.52315	0.01894
2228.23738	0.01837
2226.95161	0.01817
2225.66584	0.01878
2224.38007	0.02018
2223.09430	0.02163
2221.80853	0.02223
2220.52276	0.02156
2219.23700	0.01999
2217.95123	0.01839
2216.66546	0.01743
2215.37969	0.01717
2214.09392	0.01722
2212.80815	0.01729
2211.52238	0.01737
2210.23661	0.01750
2208.95084	0.01761
2207.66508	0.01767
2206.37931	0.01784
2205.09354	0.01816
2203.80777	0.01839
2202.52200	0.01820
2201.23623	0.01753
2199.95046	0.01665
2198.66469	0.01588
2197.37893	0.01534
2196.09316	0.01500
2194.80739	0.01486
2193.52162	0.01497
2192.23585	0.01527
2190.95008	0.01562
2189.66431	0.01599
2188.37854	0.01650
2187.09277	0.01717
2185.80701	0.01769
2184.52124	0.01751
2183.23547	0.01629
2181.94970	0.01427
2180.66393	0.01220
2179.37816	0.01084
2178.09239	0.01046
2176.80662	0.01109
2175.52085	0.01267
2174.23509	0.01480
2172.94932	0.01653
2171.66355	0.01702
2170.37778	0.01632
2169.09201	0.01511
2167.80624	0.01386
2166.52047	0.01248
2165.23470	0.01094
2163.94894	0.00945
2162.66317	0.00818
2161.37740	0.00697
2160.09163	0.00580
2158.80586	0.00516
2157.52009	0.00558
2156.23432	0.00676
2154.94855	0.00798
2153.66278	0.00892
2152.37702	0.00974
2151.09125	0.01053
2149.80548	0.01113
2148.51971	0.01144
2147.23394	0.01153
2145.94817	0.01142
2144.66240	0.01114
2143.37663	0.01084
2142.09087	0.01071
2140.80510	0.01070
2139.51933	0.01078
2138.23356	0.01113
2136.94779	0.01190
2135.66202	0.01287
2134.37625	0.01379
2133.09048	0.01469
2131.80471	0.01562
2130.51895	0.01638
2129.23318	0.01671
2127.94741	0.01667
2126.66164	0.01650
2125.37587	0.01633
2124.09010	0.01611
2122.80433	0.01582
2121.51856	0.01556
2120.23280	0.01541
2118.94703	0.01547
2117.66126	0.01582
2116.37549	0.01638
2115.08972	0.01688
2113.80395	0.01713
2112.51818	0.01725
2111.23241	0.01735
2109.94664	0.01728
2108.66088	0.01681
2107.37511	0.01608
2106.08934	0.01555
2104.80357	0.01559
2103.51780	0.01616
2102.23203	0.01694
2100.94626	0.01754
2099.66049	0.01811
2098.37473	0.01795
2097.08896	0.01726
2095.80319	0.01654
2094.51742	0.01614
2093.23165	0.01625
2091.94588	0.01676
2090.66011	0.01731
2089.37434	0.01746
2088.08857	0.01701
2086.80281	0.01621
2085.51704	0.01553
2084.23127	0.01537
2082.94550	0.01574
2081.65973	0.01629
2080.37396	0.01653
2079.08819	0.01626
2077.80242	0.01568
2076.51666	0.01515
2075.23089	0.01495
2073.94512	0.01511
2072.65935	0.01541
2071.37358	0.01551
2070.08781	0.01516
2068.80204	0.01445
2067.51627	0.01366
2066.23050	0.01303
2064.94474	0.01257
2063.65897	0.01229
2062.37320	0.01231
2061.08743	0.01271
2059.80166	0.01326
2058.51589	0.01357
2057.23012	0.01358
2055.94435	0.01362
2054.65859	0.01397
2053.37282	0.01439
2052.08705	0.01435
2050.80128	0.01366
2049.51551	0.01281
2048.22974	0.01247
2046.94397	0.01267
2045.65820	0.01268
2044.37243	0.01183
2043.08667	0.01020
2041.80090	0.00838
2040.51513	0.00687
2039.22936	0.00580
2037.94359	0.00508
2036.65782	0.00460
2035.37205	0.00439
2034.08628	0.00464
2032.80052	0.00544
2031.51475	0.00659
2030.22898	0.00752
2028.94321	0.00778
2027.65744	0.00748
2026.37167	0.00707
2025.08590	0.00684
2023.80013	0.00675
2022.51436	0.00683
2021.22860	0.00731
2019.94283	0.00825
2018.65706	0.00919
2017.37129	0.00951
2016.08552	0.00916
2014.79975	0.00878
2013.51398	0.00889
2012.22821	0.00927
2010.94245	0.00920
2009.65668	0.00848
2008.37091	0.00771
2007.08514	0.00765
2005.79937	0.00830
2004.51360	0.00909
2003.22783	0.00959
2001.94206	0.00993
2000.65629	0.01044
1999.37053	0.01121
1998.08476	0.01205
1996.79899	0.01265
1995.51322	0.01278
1994.22745	0.01239
1992.94168	0.01172
1991.65591	0.01115
1990.37014	0.01090
1989.08438	0.01096
1987.79861	0.01117
1986.51284	0.01138
1985.22707	0.01139
1983.94130	0.01112
1982.65553	0.01072
1981.36976	0.01050
1980.08399	0.01057
1978.79822	0.01082
1977.51246	0.01106
1976.22669	0.01123
1974.94092	0.01135
1973.65515	0.01152
1972.36938	0.01195
1971.08361	0.01263
1969.79784	0.01321
1968.51207	0.01323
1967.22631	0.01267
1965.94054	0.01195
1964.65477	0.01145
1963.36900	0.01115
1962.08323	0.01097
1960.79746	0.01103
1959.51169	0.01159
1958.22592	0.01261
1956.94015	0.01374
1955.65439	0.01456
1954.36862	0.01486
1953.08285	0.01471
1951.79708	0.01425
1950.51131	0.01368
1949.22554	0.01325
1947.93977	0.01315
1946.65400	0.01338
1945.36823	0.01376
1944.08247	0.01412
1942.79670	0.01439
1941.51093	0.01458
1940.22516	0.01464
1938.93939	0.01461
1937.65362	0.01464
1936.36785	0.01493
1935.08208	0.01542
1933.79632	0.01590
1932.51055	0.01621
1931.22478	0.01642
1929.93901	0.01663
1928.65324	0.01680
1927.36747	0.01677
1926.08170	0.01646
1924.79593	0.01603
1923.51016	0.01574
1922.22440	0.01573
1920.93863	0.01593
1919.65286	0.01626
1918.36709	0.01664
1917.08132	0.01699
1915.79555	0.01716
1914.50978	0.01709
1913.22401	0.01692
1911.93825	0.01678
1910.65248	0.01668
1909.36671	0.01660
1908.08094	0.01658
1906.79517	0.01664
1905.50940	0.01671
1904.22363	0.01666
1902.93786	0.01647
1901.65209	0.01627
1900.36633	0.01626
1899.08056	0.01651
1897.79479	0.01687
1896.50902	0.01711
1895.22325	0.01710
1893.93748	0.01684
1892.65171	0.01639
1891.36594	0.01592
1890.08018	0.01564
1888.79441	0.01568
1887.50864	0.01595
1886.22287	0.01622
1884.93710	0.01632
1883.65133	0.01624
1882.36556	0.01608
1881.07979	0.01601
1879.79402	0.01612
1878.50826	0.01634
1877.22249	0.01656
1875.93672	0.01665
1874.65095	0.01663
1873.36518	0.01656
1872.07941	0.01654
1870.79364	0.01655
1869.50787	0.01660
1868.22211	0.01664
1866.93634	0.01663
1865.65057	0.01653
1864.36480	0.01640
1863.07903	0.01635
1861.79326	0.01640
1860.50749	0.01649
1859.22172	0.01652
1857.93595	0.01646
1856.65019	0.01641
1855.36442	0.01645
1854.07865	0.01661
1852.79288	0.01681
1851.50711	0.01695
1850.22134	0.01698
1848.93557	0.01691
1847.64980	0.01682
1846.36404	0.01672
1845.07827	0.01663
1843.79250	0.01662
1842.50673	0.01674
1841.22096	0.01692
1839.93519	0.01707
1838.64942	0.01714
1837.36365	0.01720
1836.07788	0.01733
1834.79212	0.01758
1833.50635	0.01785
1832.22058	0.01797
1830.93481	0.01789
1829.64904	0.01773
1828.36327	0.01754
1827.07750	0.01730
1825.79173	0.01704
1824.50597	0.01690
1823.22020	0.01699
1821.93443	0.01720
1820.64866	0.01737
1819.36289	0.01741
1818.07712	0.01736
1816.79135	0.01731
1815.50558	0.01736
1814.21981	0.01746
1812.93405	0.01753
1811.64828	0.01752
1810.36251	0.01746
1809.07674	0.01744
1807.79097	0.01749
1806.50520	0.01756
1805.21943	0.01762
1803.93366	0.01761
1802.64790	0.01758
1801.36213	0.01758
1800.07636	0.01768
1798.79059	0.01789
1797.50482	0.01817
1796.21905	0.01843
1794.93328	0.01856
1793.64751	0.01852
1792.36174	0.01839
1791.07598	0.01829
1789.79021	0.01823
1788.50444	0.01822
1787.21867	0.01825
1785.93290	0.01835
1784.64713	0.01850
1783.36136	0.01868
1782.07559	0.01883
1780.78983	0.01897
1779.50406	0.01911
1778.21829	0.01928
1776.93252	0.01949
1775.64675	0.01971
1774.36098	0.01989
1773.07521	0.02003
1771.78944	0.02020
1770.50367	0.02036
1769.21791	0.02040
1767.93214	0.02040
1766.64637	0.02043
1765.36060	0.02046
1764.07483	0.02042
1762.78906	0.02039
1761.50329	0.02049
1760.21752	0.02066
1758.93176	0.02075
1757.64599	0.02075
1756.36022	0.02080
1755.07445	0.02094
1753.78868	0.02106
1752.50291	0.02112
1751.21714	0.02122
1749.93137	0.02144
1748.64560	0.02169
1747.35984	0.02188
1746.07407	0.02202
1744.78830	0.02215
1743.50253	0.02226
1742.21676	0.02231
1740.93099	0.02232
1739.64522	0.02245
1738.35945	0.02283
1737.07369	0.02329
1735.78792	0.02358
1734.50215	0.02369
1733.21638	0.02377
1731.93061	0.02382
1730.64484	0.02380
1729.35907	0.02382
1728.07330	0.02400
1726.78753	0.02429
1725.50177	0.02460
1724.21600	0.02489
1722.93023	0.02524
1721.64446	0.02567
1720.35869	0.02610
1719.07292	0.02650
1717.78715	0.02695
1716.50138	0.02746
1715.21561	0.02793
1713.92985	0.02827
1712.64408	0.02856
1711.35831	0.02889
1710.07254	0.02928
1708.78677	0.02969
1707.50100	0.03008
1706.21523	0.03055
1704.92946	0.03122
1703.64370	0.03204
1702.35793	0.03277
1701.07216	0.03343
1699.78639	0.03419
1698.50062	0.03490
1697.21485	0.03528
1695.92908	0.03542
1694.64331	0.03565
1693.35754	0.03599
1692.07178	0.03630
1690.78601	0.03664
1689.50024	0.03723
1688.21447	0.03803
1686.92870	0.03878
1685.64293	0.03937
1684.35716	0.03997
1683.07139	0.04065
1681.78563	0.04122
1680.49986	0.04163
1679.21409	0.04206
1677.92832	0.04261
1676.64255	0.04321
1675.35678	0.04383
1674.07101	0.04450
1672.78524	0.04511
1671.49947	0.04555
1670.21371	0.04590
1668.92794	0.04633
1667.64217	0.04690
1666.35640	0.04752
1665.07063	0.04806
1663.78486	0.04855
1662.49909	0.04906
1661.21332	0.04959
1659.92756	0.05007
1658.64179	0.05056
1657.35602	0.05114
1656.07025	0.05174
1654.78448	0.05217
1653.49871	0.05252
1652.21294	0.05298
1650.92717	0.05344
1649.64140	0.05363
1648.35564	0.05356
1647.06987	0.05350
1645.78410	0.05365
1644.49833	0.05389
1643.21256	0.05408
1641.92679	0.05421
1640.64102	0.05443
1639.35525	0.05477
1638.06949	0.05508
1636.78372	0.05527
1635.49795	0.05546
1634.21218	0.05572
1632.92641	0.05599
1631.64064	0.05616
1630.35487	0.05625
1629.06910	0.05637
1627.78333	0.05661
1626.49757	0.05695
1625.21180	0.05728
1623.92603	0.05754
1622.64026	0.05778
1621.35449	0.05805
1620.06872	0.05830
1618.78295	0.05850
1617.49718	0.05873
1616.21142	0.05912
1614.92565	0.05962
1613.63988	0.06001
1612.35411	0.06026
1611.06834	0.06049
1609.78257	0.06082
1608.49680	0.06122
1607.21103	0.06165
1605.92526	0.06207
1604.63950	0.06245
1603.35373	0.06279
1602.06796	0.06311
1600.78219	0.06340
1599.49642	0.06370
1598.21065	0.06403
1596.92488	0.06441
1595.63911	0.06482
1594.35335	0.06522
1593.06758	0.06555
1591.78181	0.06583
1590.49604	0.06608
1589.21027	0.06633
1587.92450	0.06659
1586.63873	0.06686
1585.35296	0.06712
1584.06719	0.06734
1582.78143	0.06751
1581.49566	0.06769
1580.20989	0.06794
1578.92412	0.06818
1577.63835	0.06833
1576.35258	0.06846
1575.06681	0.06871
1573.78104	0.06899
1572.49528	0.06913
1571.20951	0.06913
1569.92374	0.06914
1568.63797	0.06925
1567.35220	0.06938
1566.06643	0.06945
1564.78066	0.06956
1563.49489	0.06979
1562.20912	0.07002
1560.92336	0.07013
1559.63759	0.07019
1558.35182	0.07031
1557.06605	0.07039
1555.78028	0.07020
1554.49451	0.06985
1553.20874	0.06956
1551.92297	0.06935
1550.63721	0.06915
1549.35144	0.06893
1548.06567	0.06872
1546.77990	0.06851
1545.49413	0.06831
1544.20836	0.06817
1542.92259	0.06800
1541.63682	0.06767
1540.35105	0.06720
1539.06529	0.06677
1537.77952	0.06643
1536.49375	0.06604
1535.20798	0.06550
1533.92221	0.06497
1532.63644	0.06462
1531.35067	0.06445
1530.06490	0.06438
1528.77914	0.06437
1527.49337	0.06445
1526.20760	0.06465
1524.92183	0.06497
1523.63606	0.06535
1522.35029	0.06577
1521.06452	0.06630
1519.77875	0.06694
1518.49298	0.06753
1517.20722	0.06806
1515.92145	0.06866
1514.63568	0.06939
1513.34991	0.07020
1512.06414	0.07113
1510.77837	0.07223
1509.49260	0.07341
1508.20683	0.07453
1506.92107	0.07559
1505.63530	0.07666
1504.34953	0.07766
1503.06376	0.07844
1501.77799	0.07907
1500.49222	0.07974
1499.20645	0.08048
1497.92068	0.08119
1496.63491	0.08182
1495.34915	0.08239
1494.06338	0.08294
1492.77761	0.08345
1491.49184	0.08399
1490.20607	0.08464
1488.92030	0.08539
1487.63453	0.08617
1486.34876	0.08695
1485.06299	0.08776
1483.77723	0.08863
1482.49146	0.08956
1481.20569	0.09058
1479.91992	0.09167
1478.63415	0.09277
1477.34838	0.09386
1476.06261	0.09492
1474.77684	0.09591
1473.49108	0.09678
1472.20531	0.09755
1470.91954	0.09821
1469.63377	0.09871
1468.34800	0.09903
1467.06223	0.09923
1465.77646	0.09938
1464.49069	0.09960
1463.20492	0.09994
1461.91916	0.10039
1460.63339	0.10086
1459.34762	0.10128
1458.06185	0.10163
1456.77608	0.10201
1455.49031	0.10241
1454.20454	0.10268
1452.91877	0.10280
1451.63301	0.10288
1450.34724	0.10301
1449.06147	0.10315
1447.77570	0.10323
1446.48993	0.10323
1445.20416	0.10316
1443.91839	0.10302
1442.63262	0.10289
1441.34685	0.10286
1440.06109	0.10296
1438.77532	0.10315
1437.48955	0.10344
1436.20378	0.10392
1434.91801	0.10460
1433.63224	0.10542
1432.34647	0.10639
1431.06070	0.10756
1429.77494	0.10897
1428.48917	0.11053
1427.20340	0.11216
1425.91763	0.11381
1424.63186	0.11551
1423.34609	0.11729
1422.06032	0.11906
1420.77455	0.12069
1419.48878	0.12217
1418.20302	0.12353
1416.91725	0.12473
1415.63148	0.12567
1414.34571	0.12636
1413.05994	0.12679
1411.77417	0.12698
1410.48840	0.12692
1409.20263	0.12664
1407.91687	0.12609
1406.63110	0.12520
1405.34533	0.12399
1404.05956	0.12257
1402.77379	0.12103
1401.48802	0.11936
1400.20225	0.11753
1398.91648	0.11555
1397.63071	0.11342
1396.34495	0.11110
1395.05918	0.10866
1393.77341	0.10619
1392.48764	0.10377
1391.20187	0.10137
1389.91610	0.09896
1388.63033	0.09655
1387.34456	0.09417
1386.05880	0.09190
1384.77303	0.08974
1383.48726	0.08763
1382.20149	0.08553
1380.91572	0.08339
1379.62995	0.08119
1378.34418	0.07901
1377.05841	0.07686
1375.77264	0.07473
1374.48688	0.07259
1373.20111	0.07046
1371.91534	0.06840
1370.62957	0.06646
1369.34380	0.06466
1368.05803	0.06302
1366.77226	0.06149
1365.48649	0.05998
1364.20073	0.05845
1362.91496	0.05692
1361.62919	0.05544
1360.34342	0.05405
1359.05765	0.05276
1357.77188	0.05157
1356.48611	0.05046
1355.20034	0.04944
1353.91457	0.04848
1352.62881	0.04754
1351.34304	0.04659
1350.05727	0.04564
1348.77150	0.04472
1347.48573	0.04388
1346.19996	0.04310
1344.91419	0.04237
1343.62842	0.04166
1342.34266	0.04097
1341.05689	0.04033
1339.77112	0.03978
1338.48535	0.03929
1337.19958	0.03879
1335.91381	0.03824
1334.62804	0.03765
1333.34227	0.03706
1332.05650	0.03653
1330.77074	0.03609
1329.48497	0.03574
1328.19920	0.03546
1326.91343	0.03520
1325.62766	0.03490
1324.34189	0.03454
1323.05612	0.03414
1321.77035	0.03375
1320.48459	0.03341
1319.19882	0.03311
1317.91305	0.03287
1316.62728	0.03266
1315.34151	0.03245
1314.05574	0.03221
1312.76997	0.03191
1311.48420	0.03161
1310.19843	0.03133
1308.91267	0.03111
1307.62690	0.03092
1306.34113	0.03075
1305.05536	0.03057
1303.76959	0.03032
1302.48382	0.03001
1301.19805	0.02966
1299.91228	0.02935
1298.62652	0.02915
1297.34075	0.02905
1296.05498	0.02901
1294.76921	0.02898
1293.48344	0.02894
1292.19767	0.02888
1290.91190	0.02879
1289.62613	0.02866
1288.34036	0.02851
1287.05460	0.02839
1285.76883	0.02834
1284.48306	0.02837
1283.19729	0.02846
1281.91152	0.02859
1280.62575	0.02874
1279.33998	0.02892
1278.05421	0.02917
1276.76845	0.02953
1275.48268	0.03008
1274.19691	0.03094
1272.91114	0.03232
1271.62537	0.03454
1270.33960	0.03798
1269.05383	0.04296
1267.76806	0.04963
1266.48229	0.05774
1265.19653	0.06662
1263.91076	0.07515
1262.62499	0.08205
1261.33922	0.08620
1260.05345	0.08693
1258.76768	0.08424
1257.48191	0.07873
1256.19614	0.07143
1254.91037	0.06351
1253.62461	0.05598
1252.33884	0.04946
1251.05307	0.04421
1249.76730	0.04017
1248.48153	0.03712
1247.19576	0.03482
1245.90999	0.03306
1244.62422	0.03166
1243.33846	0.03052
1242.05269	0.02958
1240.76692	0.02881
1239.48115	0.02818
1238.19538	0.02767
1236.90961	0.02726
1235.62384	0.02688
1234.33807	0.02651
1233.05230	0.02613
1231.76654	0.02576
1230.48077	0.02541
1229.19500	0.02507
1227.90923	0.02475
1226.62346	0.02447
1225.33769	0.02426
1224.05192	0.02410
1222.76615	0.02395
1221.48039	0.02378
1220.19462	0.02360
1218.90885	0.02345
1217.62308	0.02334
1216.33731	0.02328
1215.05154	0.02323
1213.76577	0.02315
1212.48000	0.02306
1211.19423	0.02294
1209.90847	0.02281
1208.62270	0.02269
1207.33693	0.02260
1206.05116	0.02256
1204.76539	0.02257
1203.47962	0.02259
1202.19385	0.02255
1200.90808	0.02240
1199.62232	0.02216
1198.33655	0.02204
1197.05078	0.02201
1195.76501	0.02206
1194.47924	0.02216
1193.19347	0.02222
1191.90770	0.02224
1190.62193	0.02226
1189.33616	0.02231
1188.05040	0.02236
1186.76463	0.02237
1185.47886	0.02234
1184.19309	0.02230
1182.90732	0.02228
1181.62155	0.02227
1180.33578	0.02227
1179.05001	0.02232
1177.76425	0.02246
1176.47848	0.02269
1175.19271	0.02294
1173.90694	0.02315
1172.62117	0.02333
1171.33540	0.02352
1170.04963	0.02374
1168.76386	0.02399
1167.47809	0.02425
1166.19233	0.02455
1164.90656	0.02489
1163.62079	0.02528
1162.33502	0.02568
1161.04925	0.02610
1159.76348	0.02652
1158.47771	0.02693
1157.19194	0.02734
1155.90618	0.02777
1154.62041	0.02825
1153.33464	0.02878
1152.04887	0.02932
1150.76310	0.02989
1149.47733	0.03056
1148.19156	0.03140
1146.90579	0.03242
1145.62002	0.03351
1144.33426	0.03463
1143.04849	0.03576
1141.76272	0.03694
1140.47695	0.03820
1139.19118	0.03953
1137.90541	0.04097
1136.61964	0.04251
1135.33387	0.04418
1134.04811	0.04598
1132.76234	0.04795
1131.47657	0.05011
1130.19080	0.05247
1128.90503	0.05509
1127.61926	0.05803
1126.33349	0.06134
1125.04772	0.06493
1123.76195	0.06868
1122.47619	0.07251
1121.19042	0.07647
1119.90465	0.08058
1118.61888	0.08480
1117.33311	0.08904
1116.04734	0.09326
1114.76157	0.09750
1113.47580	0.10181
1112.19004	0.10619
1110.90427	0.11063
1109.61850	0.11511
1108.33273	0.11962
1107.04696	0.12416
1105.76119	0.12869
1104.47542	0.13320
1103.18965	0.13770
1101.90388	0.14218
1100.61812	0.14655
1099.33235	0.15070
1098.04658	0.15452
1096.76081	0.15805
1095.47504	0.16135
1094.18927	0.16443
1092.90350	0.16724
1091.61773	0.16970
1090.33197	0.17185
1089.04620	0.17379
1087.76043	0.17566
1086.47466	0.17754
1085.18889	0.17948
1083.90312	0.18148
1082.61735	0.18354
1081.33158	0.18569
1080.04581	0.18802
1078.76005	0.19058
1077.47428	0.19333
1076.18851	0.19616
1074.90274	0.19904
1073.61697	0.20196
1072.33120	0.20493
1071.04543	0.20796
1069.75966	0.21104
1068.47390	0.21424
1067.18813	0.21761
1065.90236	0.22116
1064.61659	0.22481
1063.33082	0.22849
1062.04505	0.23217
1060.75928	0.23580
1059.47351	0.23935
1058.18774	0.24285
1056.90198	0.24634
1055.61621	0.24988
1054.33044	0.25348
1053.04467	0.25717
1051.75890	0.26102
1050.47313	0.26507
1049.18736	0.26929
1047.90159	0.27367
1046.61583	0.27824
1045.33006	0.28304
1044.04429	0.28803
1042.75852	0.29316
1041.47275	0.29838
1040.18698	0.30367
1038.90121	0.30898
1037.61544	0.31432
1036.32967	0.31971
1035.04391	0.32513
1033.75814	0.33042
1032.47237	0.33538
1031.18660	0.33991
1029.90083	0.34406
1028.61506	0.34794
1027.32929	0.35159
1026.04352	0.35496
1024.75775	0.35795
1023.47199	0.36053
1022.18622	0.36266
1020.90045	0.36429
1019.61468	0.36536
1018.32891	0.36583
1017.04314	0.36572
1015.75737	0.36501
1014.47160	0.36363
1013.18584	0.36142
1011.90007	0.35834
1010.61430	0.35442
1009.32853	0.34974
1008.04276	0.34432
1006.75699	0.33820
1005.47122	0.33142
1004.18545	0.32400
1002.89968	0.31600
1001.61392	0.30758
1000.32815	0.29889
999.04238	0.29001
997.75661	0.28090
996.47084	0.27156
995.18507	0.26211
993.89930	0.25270
992.61353	0.24339
991.32777	0.23417
990.04200	0.22505
988.75623	0.21614
987.47046	0.20756
986.18469	0.19940
984.89892	0.19170
983.61315	0.18447
982.32738	0.17767
981.04161	0.17123
979.75585	0.16513
978.47008	0.15940
977.18431	0.15413
975.89854	0.14937
974.61277	0.14514
973.32700	0.14148
972.04123	0.13846
970.75546	0.13617
969.46970	0.13465
968.18393	0.13388
966.89816	0.13367
965.61239	0.13381
964.32662	0.13403
963.04085	0.13405
961.75508	0.13360
960.46931	0.13248
959.18354	0.13066
957.89778	0.12825
956.61201	0.12541
955.32624	0.12228
954.04047	0.11894
952.75470	0.11549
951.46893	0.11201
950.18316	0.10862
948.89739	0.10539
947.61163	0.10232
946.32586	0.09934
945.04009	0.09640
943.75432	0.09354
942.46855	0.09087
941.18278	0.08847
939.89701	0.08631
938.61124	0.08432
937.32547	0.08241
936.03971	0.08054
934.75394	0.07871
933.46817	0.07695
932.18240	0.07528
930.89663	0.07376
929.61086	0.07245
928.32509	0.07139
927.03932	0.07048
925.75356	0.06957
924.46779	0.06860
923.18202	0.06761
921.89625	0.06672
920.61048	0.06597
919.32471	0.06532
918.03894	0.06470
916.75317	0.06409
915.46740	0.06350
914.18164	0.06297
912.89587	0.06248
911.61010	0.06202
910.32433	0.06158
909.03856	0.06113
907.75279	0.06069
906.46702	0.06022
905.18125	0.05974
903.89549	0.05927
902.60972	0.05879
901.32395	0.05834
900.03818	0.05792
898.75241	0.05755
897.46664	0.05720
896.18087	0.05689
894.89510	0.05667
893.60933	0.05658
892.32357	0.05663
891.03780	0.05682
889.75203	0.05722
888.46626	0.05788
887.18049	0.05884
885.89472	0.06020
884.60895	0.06218
883.32318	0.06488
882.03742	0.06807
880.75165	0.07122
879.46588	0.07388
878.18011	0.07598
876.89434	0.07788
875.60857	0.07993
874.32280	0.08216
873.03703	0.08420
871.75126	0.08556
870.46550	0.08601
869.17973	0.08558
867.89396	0.08446
866.60819	0.08284
865.32242	0.08088
864.03665	0.07869
862.75088	0.07641
861.46511	0.07420
860.17935	0.07218
858.89358	0.07037
857.60781	0.06870
856.32204	0.06714
855.03627	0.06574
853.75050	0.06457
852.46473	0.06367
851.17896	0.06302
849.89319	0.06256
848.60743	0.06221
847.32166	0.06192
846.03589	0.06168
844.75012	0.06146
843.46435	0.06126
842.17858	0.06102
840.89281	0.06075
839.60704	0.06048
838.32128	0.06025
837.03551	0.06009
835.74974	0.06005
834.46397	0.06026
833.17820	0.06081
831.89243	0.06173
830.60666	0.06301
829.32089	0.06481
828.03512	0.06730
826.74936	0.07052
825.46359	0.07430
824.17782	0.07835
822.89205	0.08240
821.60628	0.08626
820.32051	0.08977
819.03474	0.09286
817.74897	0.09557
816.46321	0.09798
815.17744	0.10027
813.89167	0.10265
812.60590	0.10535
811.32013	0.10847
810.03436	0.11199
808.74859	0.11577
807.46282	0.11965
806.17705	0.12351
804.89129	0.12726
803.60552	0.13070
802.31975	0.13359
801.03398	0.13573
799.74821	0.13707
798.46244	0.13763
797.17667	0.13737
795.89090	0.13624
794.60513	0.13419
793.31937	0.13132
792.03360	0.12774
790.74783	0.12355
789.46206	0.11885
788.17629	0.11379
786.89052	0.10856
785.60475	0.10338
784.31898	0.09844
783.03322	0.09392
781.74745	0.08986
780.46168	0.08625
779.17591	0.08305
777.89014	0.08023
776.60437	0.07776
775.31860	0.07560
774.03283	0.07370
772.74706	0.07202
771.46130	0.07057
770.17553	0.06932
768.88976	0.06829
767.60399	0.06741
766.31822	0.06663
765.03245	0.06587
763.74668	0.06513
762.46091	0.06450
761.17515	0.06406
759.88938	0.06385
758.60361	0.06377
757.31784	0.06366
756.03207	0.06343
754.74630	0.06309
753.46053	0.06269
752.17476	0.06227
750.88899	0.06178
749.60323	0.06123
748.31746	0.06069
747.03169	0.06023
745.74592	0.05986
744.46015	0.05960
743.17438	0.05945
741.88861	0.05940
740.60284	0.05937
739.31708	0.05924
738.03131	0.05900
736.74554	0.05877
735.45977	0.05862
734.17400	0.05858
732.88823	0.05858
731.60246	0.05860
730.31669	0.05856
729.03092	0.05841
727.74516	0.05817
726.45939	0.05790
725.17362	0.05767
723.88785	0.05749
722.60208	0.05736
721.31631	0.05728
720.03054	0.05724
718.74477	0.05728
717.45901	0.05736
716.17324	0.05745
714.88747	0.05752
713.60170	0.05760
712.31593	0.05774
711.03016	0.05797
709.74439	0.05828
708.45862	0.05862
707.17285	0.05894
705.88709	0.05921
704.60132	0.05943
703.31555	0.05963
702.02978	0.05980
700.74401	0.05990
699.45824	0.05988
698.17247	0.05971
696.88670	0.05941
695.60094	0.05904
694.31517	0.05868
693.02940	0.05837
691.74363	0.05812
690.45786	0.05790
689.17209	0.05772
687.88632	0.05757
686.60055	0.05743
685.31478	0.05728
684.02902	0.05706
682.74325	0.05674
681.45748	0.05637
680.17171	0.05601
678.88594	0.05572
677.60017	0.05550
676.31440	0.05535
675.02863	0.05520
673.74287	0.05504
672.45710	0.05486
671.17133	0.05470
669.88556	0.05463
668.59979	0.05471
667.31402	0.05487
666.02825	0.05495
664.74248	0.05483
663.45671	0.05454
662.17095	0.05414
660.88518	0.05370
659.59941	0.05320
658.31364	0.05262
657.02787	0.05198
655.74210	0.05134
654.45633	0.05076
653.17056	0.05026
651.88480	0.04982
650.59903	0.04943
649.31326	0.04912
648.02749	0.04889
646.74172	0.04876
645.45595	0.04871
644.17018	0.04871
642.88441	0.04875
641.59864	0.04883
640.31288	0.04896
639.02711	0.04914
637.74134	0.04933
636.45557	0.04952
635.16980	0.04973
633.88403	0.05001
632.59826	0.05043
631.31249	0.05110
630.02673	0.05207
628.74096	0.05287
627.45519	0.05296
626.16942	0.05442
624.88365	0.05712
623.59788	0.06055
622.31211	0.06417
621.02634	0.06718
619.74057	0.06926
618.45481	0.07103
617.16904	0.07333
615.88327	0.07639
614.59750	0.07999
613.31173	0.08405
612.02596	0.08877
610.74019	0.09463
609.45442	0.10180
608.16866	0.10972
606.88289	0.11734
605.59712	0.12373
604.31135	0.12830
603.02558	0.13074
601.73981	0.13108
600.45404	0.12976
599.16827	0.12738
597.88250	0.12446
596.59674	0.12125
595.31097	0.11783
594.02520	0.11439
592.73943	0.11130
591.45366	0.10892
590.16789	0.10740
588.88212	0.10668
587.59635	0.10670
586.31059	0.10741
585.02482	0.10880
583.73905	0.11083
582.45328	0.11337
581.16751	0.11628
579.88174	0.11940
578.59597	0.12260
577.31020	0.12572
576.02443	0.12861
574.73867	0.13120
573.45290	0.13362
572.16713	0.13613
570.88136	0.13906
569.59559	0.14269
568.30982	0.14710
567.02405	0.15214
565.73828	0.15737
564.45251	0.16216
563.16675	0.16589
561.88098	0.16805
560.59521	0.16828
559.30944	0.16629
558.02367	0.16204
556.73790	0.15588
555.45213	0.14856
554.16636	0.14097
552.88060	0.13383
551.59483	0.12743
550.30906	0.12171
549.02329	0.11646
547.73752	0.11157
546.45175	0.10701
545.16598	0.10278
543.88021	0.09890
542.59444	0.09540
541.30868	0.09226
540.02291	0.08942
538.73714	0.08679
537.45137	0.08430
536.16560	0.08200
534.87983	0.07994
533.59406	0.07810
532.30829	0.07636
531.02253	0.07464
529.73676	0.07297
528.45099	0.07140
527.16522	0.06991
525.87945	0.06848
524.59368	0.06713
523.30791	0.06586
522.02214	0.06468
520.73637	0.06352
519.45061	0.06236
518.16484	0.06119
516.87907	0.06009
515.59330	0.05913
514.30753	0.05832
513.02176	0.05757
511.73599	0.05678
510.45022	0.05592
509.16446	0.05505
507.87869	0.05428
506.59292	0.05365
505.30715	0.05307
504.02138	0.05246
502.73561	0.05178
501.44984	0.05109
500.16407	0.05047
498.87830	0.04997
497.59254	0.04958
496.30677	0.04929
495.02100	0.04903
493.73523	0.04878
492.44946	0.04851
491.16369	0.04826
489.87792	0.04804
488.59215	0.04780
487.30639	0.04749
486.02062	0.04708
484.73485	0.04664
483.44908	0.04627
482.16331	0.04605
480.87754	0.04596
479.59177	0.04595
478.30600	0.04596
477.02023	0.04596
475.73447	0.04598
474.44870	0.04602
473.16293	0.04606
471.87716	0.04605
470.59139	0.04593
469.30562	0.04565
468.01985	0.04528
466.73408	0.04490
465.44832	0.04452
464.16255	0.04408
462.87678	0.04358
461.59101	0.04306
460.30524	0.04258
459.01947	0.04211
457.73370	0.04167
456.44793	0.04128
455.16216	0.04099
453.87640	0.04077
452.59063	0.04051
451.30486	0.04014
450.01909	0.03968
448.73332	0.03925
447.44755	0.03895
446.16178	0.03876
444.87601	0.03865
443.59025	0.03854
442.30448	0.03842
441.01871	0.03826
439.73294	0.03807
438.44717	0.03787
437.16140	0.03770
435.87563	0.03755
434.58986	0.03741
433.30409	0.03727
432.01833	0.03713
430.73256	0.03703
429.44679	0.03697
428.16102	0.03692
426.87525	0.03687
425.58948	0.03681
424.30371	0.03675
423.01794	0.03668
421.73218	0.03659
420.44641	0.03652
419.16064	0.03656
417.87487	0.03679
416.58910	0.03716
415.30333	0.03759
414.01756	0.03805
412.73179	0.03857
411.44602	0.03916
410.16026	0.03985
408.87449	0.04061
407.58872	0.04136
406.30295	0.04205
405.01718	0.04263
403.73141	0.04311
402.44564	0.04352
401.15987	0.04386
399.87411	0.04417
