3997.45528	-0.01037
3996.16951	-0.01034
3994.88374	-0.01013
3993.59798	-0.00969
3992.31221	-0.00917
3991.02644	-0.00882
3989.74067	-0.00889
3988.45490	-0.00933
3987.16913	-0.00978
3985.88336	-0.00979
3984.59759	-0.00920
3983.31183	-0.00825
3982.02606	-0.00736
3980.74029	-0.00688
3979.45452	-0.00689
3978.16875	-0.00725
3976.88298	-0.00766
3975.59721	-0.00783
3974.31144	-0.00774
3973.02567	-0.00763
3971.73991	-0.00781
3970.45414	-0.00834
3969.16837	-0.00905
3967.88260	-0.00966
3966.59683	-0.00993
3965.31106	-0.00978
3964.02529	-0.00934
3962.73952	-0.00876
3961.45376	-0.00813
3960.16799	-0.00748
3958.88222	-0.00697
3957.59645	-0.00683
3956.31068	-0.00714
3955.02491	-0.00771
3953.73914	-0.00816
3952.45337	-0.00824
3951.16760	-0.00795
3949.88184	-0.00746
3948.59607	-0.00687
3947.31030	-0.00624
3946.02453	-0.00569
3944.73876	-0.00542
3943.45299	-0.00555
3942.16722	-0.00596
3940.88145	-0.00632
3939.59569	-0.00634
3938.30992	-0.00592
3937.02415	-0.00525
3935.73838	-0.00475
3934.45261	-0.00483
3933.16684	-0.00552
3931.88107	-0.00645
3930.59530	-0.00712
3929.30953	-0.00726
3928.02377	-0.00699
3926.73800	-0.00667
3925.45223	-0.00648
3924.16646	-0.00630
3922.88069	-0.00600
3921.59492	-0.00572
3920.30915	-0.00572
3919.02338	-0.00605
3917.73762	-0.00642
3916.45185	-0.00650
3915.16608	-0.00624
3913.88031	-0.00589
3912.59454	-0.00564
3911.30877	-0.00546
3910.02300	-0.00524
3908.73723	-0.00499
3907.45146	-0.00481
3906.16570	-0.00476
3904.87993	-0.00471
3903.59416	-0.00452
3902.30839	-0.00426
3901.02262	-0.00415
3899.73685	-0.00427
3898.45108	-0.00447
3897.16531	-0.00460
3895.87955	-0.00467
3894.59378	-0.00479
3893.30801	-0.00507
3892.02224	-0.00544
3890.73647	-0.00559
3889.45070	-0.00537
3888.16493	-0.00506
3886.87916	-0.00501
3885.59339	-0.00514
3884.30763	-0.00524
3883.02186	-0.00534
3881.73609	-0.00566
3880.45032	-0.00611
3879.16455	-0.00643
3877.87878	-0.00655
3876.59301	-0.00644
3875.30724	-0.00590
3874.02148	-0.00477
3872.73571	-0.00344
3871.44994	-0.00260
3870.16417	-0.00235
3868.87840	-0.00217
3867.59263	-0.00187
3866.30686	-0.00173
3865.02109	-0.00189
3863.73532	-0.00210
3862.44956	-0.00216
3861.16379	-0.00198
3859.87802	-0.00168
3858.59225	-0.00140
3857.30648	-0.00142
3856.02071	-0.00192
3854.73494	-0.00264
3853.44917	-0.00297
3852.16341	-0.00273
3850.87764	-0.00234
3849.59187	-0.00220
3848.30610	-0.00225
3847.02033	-0.00227
3845.73456	-0.00225
3844.44879	-0.00229
3843.16302	-0.00238
3841.87725	-0.00243
3840.59149	-0.00253
3839.30572	-0.00285
3838.01995	-0.00339
3836.73418	-0.00398
3835.44841	-0.00448
3834.16264	-0.00480
3832.87687	-0.00482
3831.59110	-0.00456
3830.30534	-0.00423
3829.01957	-0.00399
3827.73380	-0.00377
3826.44803	-0.00347
3825.16226	-0.00322
3823.87649	-0.00333
3822.59072	-0.00376
3821.30495	-0.00402
3820.01918	-0.00380
3818.73342	-0.00351
3817.44765	-0.00367
3816.16188	-0.00408
3814.87611	-0.00424
3813.59034	-0.00405
3812.30457	-0.00366
3811.01880	-0.00321
3809.73303	-0.00294
3808.44726	-0.00304
3807.16150	-0.00322
3805.87573	-0.00312
3804.58996	-0.00301
3803.30419	-0.00334
3802.01842	-0.00387
3800.73265	-0.00378
3799.44688	-0.00289
3798.16111	-0.00176
3796.87535	-0.00099
3795.58958	-0.00080
3794.30381	-0.00116
3793.01804	-0.00183
3791.73227	-0.00236
3790.44650	-0.00251
3789.16073	-0.00236
3787.87496	-0.00214
3786.58919	-0.00195
3785.30343	-0.00175
3784.01766	-0.00150
3782.73189	-0.00124
3781.44612	-0.00112
3780.16035	-0.00123
3778.87458	-0.00148
3777.58881	-0.00177
3776.30304	-0.00205
3775.01728	-0.00227
3773.73151	-0.00238
3772.44574	-0.00254
3771.15997	-0.00295
3769.87420	-0.00351
3768.58843	-0.00392
3767.30266	-0.00406
3766.01689	-0.00401
3764.73112	-0.00379
3763.44536	-0.00333
3762.15959	-0.00263
3760.87382	-0.00190
3759.58805	-0.00149
3758.30228	-0.00156
3757.01651	-0.00185
3755.73074	-0.00202
3754.44497	-0.00212
3753.15921	-0.00248
3751.87344	-0.00324
3750.58767	-0.00406
3749.30190	-0.00427
3748.01613	-0.00370
3746.73036	-0.00319
3745.44459	-0.00343
3744.15882	-0.00398
3742.87305	-0.00406
3741.58729	-0.00360
3740.30152	-0.00296
3739.01575	-0.00260
3737.72998	-0.00282
3736.44421	-0.00348
3735.15844	-0.00414
3733.87267	-0.00456
3732.58690	-0.00466
3731.30114	-0.00430
3730.01537	-0.00357
3728.72960	-0.00280
3727.44383	-0.00222
3726.15806	-0.00173
3724.87229	-0.00126
3723.58652	-0.00088
3722.30075	-0.00069
3721.01498	-0.00073
3719.72922	-0.00102
3718.44345	-0.00150
3717.15768	-0.00195
3715.87191	-0.00218
3714.58614	-0.00221
3713.30037	-0.00223
3712.01460	-0.00238
3710.72883	-0.00264
3709.44307	-0.00286
3708.15730	-0.00286
3706.87153	-0.00267
3705.58576	-0.00255
3704.29999	-0.00276
3703.01422	-0.00326
3701.72845	-0.00370
3700.44268	-0.00376
3699.15691	-0.00348
3697.87115	-0.00318
3696.58538	-0.00301
3695.29961	-0.00289
3694.01384	-0.00275
3692.72807	-0.00259
3691.44230	-0.00257
3690.15653	-0.00280
3688.87076	-0.00302
3687.58500	-0.00285
3686.29923	-0.00237
3685.01346	-0.00203
3683.72769	-0.00208
3682.44192	-0.00231
3681.15615	-0.00227
3679.87038	-0.00167
3678.58461	-0.00081
3677.29884	-0.00031
3676.01308	-0.00030
3674.72731	-0.00038
3673.44154	-0.00039
3672.15577	-0.00069
3670.87000	-0.00140
3669.58423	-0.00214
3668.29846	-0.00258
3667.01269	-0.00256
3665.72693	-0.00206
3664.44116	-0.00125
3663.15539	-0.00051
3661.86962	-0.00021
3660.58385	-0.00029
3659.29808	-0.00045
3658.01231	-0.00040
3656.72654	0.00003
3655.44077	0.00078
3654.15501	0.00153
3652.86924	0.00181
3651.58347	0.00151
3650.29770	0.00098
3649.01193	0.00058
3647.72616	0.00043
3646.44039	0.00040
3645.15462	0.00038
3643.86886	0.00034
3642.58309	0.00028
3641.29732	0.00020
3640.01155	0.00015
3638.72578	0.00019
3637.44001	0.00034
3636.15424	0.00060
3634.86847	0.00105
3633.58270	0.00183
3632.29694	0.00273
3631.01117	0.00319
3629.72540	0.00292
3628.43963	0.00223
3627.15386	0.00157
3625.86809	0.00118
3624.58232	0.00112
3623.29655	0.00137
3622.01079	0.00176
3620.72502	0.00216
3619.43925	0.00261
3618.15348	0.00319
3616.86771	0.00373
3615.58194	0.00398
3614.29617	0.00393
3613.01040	0.00379
3611.72463	0.00362
3610.43887	0.00333
3609.15310	0.00300
3607.86733	0.00295
3606.58156	0.00330
3605.29579	0.00371
3604.01002	0.00379
3602.72425	0.00358
3601.43848	0.00361
3600.15272	0.00423
3598.86695	0.00517
3597.58118	0.00583
3596.29541	0.00592
3595.00964	0.00565
3593.72387	0.00539
3592.43810	0.00528
3591.15233	0.00532
3589.86656	0.00545
3588.58080	0.00569
3587.29503	0.00590
3586.00926	0.00582
3584.72349	0.00528
3583.43772	0.00439
3582.15195	0.00351
3580.86618	0.00303
3579.58041	0.00310
3578.29464	0.00365
3577.00888	0.00440
3575.72311	0.00511
3574.43734	0.00567
3573.15157	0.00604
3571.86580	0.00625
3570.58003	0.00636
3569.29426	0.00648
3568.00849	0.00669
3566.72273	0.00688
3565.43696	0.00694
3564.15119	0.00684
3562.86542	0.00665
3561.57965	0.00651
3560.29388	0.00645
3559.00811	0.00646
3557.72234	0.00648
3556.43657	0.00660
3555.15081	0.00698
3553.86504	0.00767
3552.57927	0.00844
3551.29350	0.00897
3550.00773	0.00908
3548.72196	0.00899
3547.43619	0.00909
3546.15042	0.00966
3544.86466	0.01053
3543.57889	0.01122
3542.29312	0.01132
3541.00735	0.01084
3539.72158	0.01014
3538.43581	0.00961
3537.15004	0.00945
3535.86427	0.00959
3534.57850	0.00988
3533.29274	0.01017
3532.00697	0.01042
3530.72120	0.01069
3529.43543	0.01098
3528.14966	0.01115
3526.86389	0.01103
3525.57812	0.01067
3524.29235	0.01035
3523.00659	0.01043
3521.72082	0.01102
3520.43505	0.01198
3519.14928	0.01303
3517.86351	0.01379
3516.57774	0.01406
3515.29197	0.01387
3514.00620	0.01353
3512.72043	0.01326
3511.43467	0.01305
3510.14890	0.01279
3508.86313	0.01247
3507.57736	0.01214
3506.29159	0.01190
3505.00582	0.01187
3503.72005	0.01218
3502.43428	0.01288
3501.14852	0.01387
3499.86275	0.01491
3498.57698	0.01568
3497.29121	0.01585
3496.00544	0.01532
3494.71967	0.01434
3493.43390	0.01340
3492.14813	0.01297
3490.86236	0.01318
3489.57660	0.01383
3488.29083	0.01449
3487.00506	0.01479
3485.71929	0.01458
3484.43352	0.01413
3483.14775	0.01381
3481.86198	0.01384
3480.57621	0.01402
3479.29045	0.01412
3478.00468	0.01409
3476.71891	0.01408
3475.43314	0.01414
3474.14737	0.01415
3472.86160	0.01404
3471.57583	0.01391
3470.29006	0.01390
3469.00429	0.01417
3467.71853	0.01480
3466.43276	0.01566
3465.14699	0.01647
3463.86122	0.01696
3462.57545	0.01711
3461.28968	0.01704
3460.00391	0.01686
3458.71814	0.01678
3457.43238	0.01698
3456.14661	0.01741
3454.86084	0.01762
3453.57507	0.01722
3452.28930	0.01634
3451.00353	0.01559
3449.71776	0.01549
3448.43199	0.01602
3447.14622	0.01672
3445.86046	0.01705
3444.57469	0.01685
3443.28892	0.01637
3442.00315	0.01602
3440.71738	0.01595
3439.43161	0.01603
3438.14584	0.01603
3436.86007	0.01587
3435.57431	0.01569
3434.28854	0.01573
3433.00277	0.01613
3431.71700	0.01682
3430.43123	0.01760
3429.14546	0.01827
3427.85969	0.01871
3426.57392	0.01889
3425.28815	0.01886
3424.00239	0.01871
3422.71662	0.01856
3421.43085	0.01850
3420.14508	0.01854
3418.85931	0.01863
3417.57354	0.01862
3416.28777	0.01846
3415.00200	0.01819
3413.71624	0.01796
3412.43047	0.01788
3411.14470	0.01801
3409.85893	0.01825
3408.57316	0.01846
3407.28739	0.01854
3406.00162	0.01853
3404.71585	0.01853
3403.43008	0.01868
3402.14432	0.01900
3400.85855	0.01938
3399.57278	0.01959
3398.28701	0.01960
3397.00124	0.01954
3395.71547	0.01949
3394.42970	0.01943
3393.14393	0.01931
3391.85817	0.01916
3390.57240	0.01910
3389.28663	0.01925
3388.00086	0.01951
3386.71509	0.01965
3385.42932	0.01963
3384.14355	0.01962
3382.85778	0.01981
3381.57201	0.02011
3380.28625	0.02018
3379.00048	0.01985
3377.71471	0.01919
3376.42894	0.01852
3375.14317	0.01814
3373.85740	0.01821
3372.57163	0.01866
3371.28586	0.01930
3370.00010	0.01996
3368.71433	0.02046
3367.42856	0.02067
3366.14279	0.02050
3364.85702	0.02016
3363.57125	0.01999
3362.28548	0.02024
3360.99971	0.02082
3359.71394	0.02141
3358.42818	0.02174
3357.14241	0.02169
3355.85664	0.02128
3354.57087	0.02072
3353.28510	0.02037
3351.99933	0.02047
3350.71356	0.02094
3349.42779	0.02146
3348.14202	0.02175
3346.85626	0.02173
3345.57049	0.02148
3344.28472	0.02115
3342.99895	0.02094
3341.71318	0.02100
3340.42741	0.02128
3339.14164	0.02153
3337.85587	0.02139
3336.57011	0.02077
3335.28434	0.01997
3333.99857	0.01939
3332.71280	0.01926
3331.42703	0.01952
3330.14126	0.02001
3328.85549	0.02054
3327.56972	0.02095
3326.28395	0.02114
3324.99819	0.02109
3323.71242	0.02088
3322.42665	0.02065
3321.14088	0.02050
3319.85511	0.02048
3318.56934	0.02057
3317.28357	0.02070
3315.99780	0.02087
3314.71204	0.02113
3313.42627	0.02150
3312.14050	0.02194
3310.85473	0.02233
3309.56896	0.02247
3308.28319	0.02223
3306.99742	0.02168
3305.71165	0.02114
3304.42588	0.02090
3303.14012	0.02108
3301.85435	0.02151
3300.56858	0.02196
3299.28281	0.02226
3297.99704	0.02240
3296.71127	0.02240
3295.42550	0.02231
3294.13973	0.02214
3292.85397	0.02190
3291.56820	0.02162
3290.28243	0.02139
3288.99666	0.02122
3287.71089	0.02098
3286.42512	0.02062
3285.13935	0.02024
3283.85358	0.02002
3282.56781	0.02003
3281.28205	0.02023
3279.99628	0.02049
3278.71051	0.02068
3277.42474	0.02068
3276.13897	0.02049
3274.85320	0.02027
3273.56743	0.02022
3272.28166	0.02042
3270.99590	0.02080
3269.71013	0.02126
3268.42436	0.02167
3267.13859	0.02192
3265.85282	0.02204
3264.56705	0.02212
3263.28128	0.02225
3261.99551	0.02238
3260.70974	0.02240
3259.42398	0.02223
3258.13821	0.02199
3256.85244	0.02179
3255.56667	0.02165
3254.28090	0.02150
3252.99513	0.02136
3251.70936	0.02134
3250.42359	0.02155
3249.13783	0.02195
3247.85206	0.02235
3246.56629	0.02251
3245.28052	0.02234
3243.99475	0.02195
3242.70898	0.02161
3241.42321	0.02147
3240.13744	0.02149
3238.85167	0.02149
3237.56591	0.02139
3236.28014	0.02131
3234.99437	0.02138
3233.70860	0.02155
3232.42283	0.02166
3231.13706	0.02162
3229.85129	0.02146
3228.56552	0.02135
3227.27976	0.02138
3225.99399	0.02152
3224.70822	0.02160
3223.42245	0.02156
3222.13668	0.02146
3220.85091	0.02138
3219.56514	0.02133
3218.27937	0.02118
3216.99360	0.02082
3215.70784	0.02039
3214.42207	0.02019
3213.13630	0.02041
3211.85053	0.02095
3210.56476	0.02149
3209.27899	0.02180
3207.99322	0.02190
3206.70745	0.02190
3205.42169	0.02186
3204.13592	0.02178
3202.85015	0.02163
3201.56438	0.02146
3200.27861	0.02124
3198.99284	0.02096
3197.70707	0.02062
3196.42130	0.02033
3195.13553	0.02027
3193.84977	0.02045
3192.56400	0.02071
3191.27823	0.02093
3189.99246	0.02114
3188.70669	0.02144
3187.42092	0.02173
3186.13515	0.02182
3184.84938	0.02159
3183.56362	0.02116
3182.27785	0.02072
3180.99208	0.02036
3179.70631	0.02006
3178.42054	0.01981
3177.13477	0.01961
3175.84900	0.01951
3174.56323	0.01952
3173.27746	0.01970
3171.99170	0.02006
3170.70593	0.02059
3169.42016	0.02118
3168.13439	0.02165
3166.84862	0.02183
3165.56285	0.02167
3164.27708	0.02122
3162.99131	0.02070
3161.70555	0.02034
3160.41978	0.02033
3159.13401	0.02062
3157.84824	0.02093
3156.56247	0.02098
3155.27670	0.02070
3153.99093	0.02026
3152.70516	0.01998
3151.41939	0.02001
3150.13363	0.02022
3148.84786	0.02035
3147.56209	0.02019
3146.27632	0.01983
3144.99055	0.01949
3143.70478	0.01929
3142.41901	0.01921
3141.13324	0.01920
3139.84748	0.01924
3138.56171	0.01934
3137.27594	0.01947
3135.99017	0.01960
3134.70440	0.01968
3133.41863	0.01970
3132.13286	0.01969
3130.84709	0.01973
3129.56132	0.01992
3128.27556	0.02022
3126.98979	0.02043
3125.70402	0.02038
3124.41825	0.02005
3123.13248	0.01967
3121.84671	0.01946
3120.56094	0.01948
3119.27517	0.01964
3117.98940	0.01983
3116.70364	0.01998
3115.41787	0.02006
3114.13210	0.02001
3112.84633	0.01982
3111.56056	0.01957
3110.27479	0.01938
3108.98902	0.01931
3107.70325	0.01935
3106.41749	0.01951
3105.13172	0.01978
3103.84595	0.02011
3102.56018	0.02039
3101.27441	0.02050
3099.98864	0.02034
3098.70287	0.01999
3097.41710	0.01962
3096.13133	0.01945
3094.84557	0.01956
3093.55980	0.01983
3092.27403	0.02008
3090.98826	0.02020
3089.70249	0.02022
3088.41672	0.02023
3087.13095	0.02021
3085.84518	0.02009
3084.55942	0.01983
3083.27365	0.01956
3081.98788	0.01939
3080.70211	0.01932
3079.41634	0.01925
3078.13057	0.01916
3076.84480	0.01914
3075.55903	0.01930
3074.27326	0.01959
3072.98750	0.01984
3071.70173	0.01986
3070.41596	0.01970
3069.13019	0.01946
3067.84442	0.01923
3066.55865	0.01902
3065.27288	0.01891
3063.98711	0.01902
3062.70135	0.01935
3061.41558	0.01972
3060.12981	0.01991
3058.84404	0.01983
3057.55827	0.01958
3056.27250	0.01930
3054.98673	0.01908
3053.70096	0.01894
3052.41519	0.01889
3051.12943	0.01893
3049.84366	0.01905
3048.55789	0.01920
3047.27212	0.01931
3045.98635	0.01937
3044.70058	0.01937
3043.41481	0.01927
3042.12904	0.01903
3040.84328	0.01869
3039.55751	0.01842
3038.27174	0.01836
3036.98597	0.01850
3035.70020	0.01870
3034.41443	0.01888
3033.12866	0.01900
3031.84289	0.01903
3030.55712	0.01893
3029.27136	0.01874
3027.98559	0.01856
3026.69982	0.01844
3025.41405	0.01836
3024.12828	0.01824
3022.84251	0.01815
3021.55674	0.01823
3020.27097	0.01854
3018.98521	0.01896
3017.69944	0.01930
3016.41367	0.01943
3015.12790	0.01938
3013.84213	0.01925
3012.55636	0.01905
3011.27059	0.01875
3009.98482	0.01834
3008.69905	0.01798
3007.41329	0.01789
3006.12752	0.01814
3004.84175	0.01855
3003.55598	0.01883
3002.27021	0.01880
3000.98444	0.01851
2999.69867	0.01810
2998.41290	0.01787
2997.12714	0.01781
2995.84137	0.01779
2994.55560	0.01768
2993.26983	0.01748
2991.98406	0.01732
2990.69829	0.01738
2989.41252	0.01764
2988.12675	0.01797
2986.84098	0.01817
2985.55522	0.01816
2984.26945	0.01802
2982.98368	0.01796
2981.69791	0.01816
2980.41214	0.01854
2979.12637	0.01888
2977.84060	0.01900
2976.55483	0.01895
2975.26907	0.01888
2973.98330	0.01888
2972.69753	0.01896
2971.41176	0.01905
2970.12599	0.01908
2968.84022	0.01897
2967.55445	0.01880
2966.26868	0.01870
2964.98291	0.01883
2963.69715	0.01919
2962.41138	0.01960
2961.12561	0.01985
2959.83984	0.01984
2958.55407	0.01971
2957.26830	0.01969
2955.98253	0.01992
2954.69676	0.02032
2953.41100	0.02076
2952.12523	0.02113
2950.83946	0.02141
2949.55369	0.02158
2948.26792	0.02157
2946.98215	0.02131
2945.69638	0.02083
2944.41061	0.02021
2943.12484	0.01965
2941.83908	0.01936
2940.55331	0.01943
2939.26754	0.01974
2937.98177	0.02001
2936.69600	0.02008
2935.41023	0.02005
2934.12446	0.02016
2932.83869	0.02049
2931.55293	0.02089
2930.26716	0.02114
2928.98139	0.02114
2927.69562	0.02095
2926.40985	0.02065
2925.12408	0.02029
2923.83831	0.01997
2922.55254	0.01978
2921.26677	0.01975
2919.98101	0.01982
2918.69524	0.01990
2917.40947	0.01995
2916.12370	0.01997
2914.83793	0.01994
2913.55216	0.01985
2912.26639	0.01977
2910.98062	0.01971
2909.69486	0.01967
2908.40909	0.01962
2907.12332	0.01958
2905.83755	0.01952
2904.55178	0.01947
2903.26601	0.01942
2901.98024	0.01938
2900.69447	0.01930
2899.40870	0.01909
2898.12294	0.01878
2896.83717	0.01846
2895.55140	0.01828
2894.26563	0.01828
2892.97986	0.01835
2891.69409	0.01838
2890.40832	0.01836
2889.12255	0.01836
2887.83678	0.01844
2886.55102	0.01855
2885.26525	0.01857
2883.97948	0.01844
2882.69371	0.01822
2881.40794	0.01799
2880.12217	0.01786
2878.83640	0.01785
2877.55063	0.01795
2876.26487	0.01810
2874.97910	0.01816
2873.69333	0.01809
2872.40756	0.01798
2871.12179	0.01804
2869.83602	0.01832
2868.55025	0.01860
2867.26448	0.01865
2865.97871	0.01842
2864.69295	0.01810
2863.40718	0.01788
2862.12141	0.01771
2860.83564	0.01752
2859.54987	0.01735
2858.26410	0.01719
2856.97833	0.01701
2855.69256	0.01677
2854.40680	0.01660
2853.12103	0.01654
2851.83526	0.01653
2850.54949	0.01648
2849.26372	0.01649
2847.97795	0.01667
2846.69218	0.01692
2845.40641	0.01698
2844.12064	0.01677
2842.83488	0.01652
2841.54911	0.01651
2840.26334	0.01676
2838.97757	0.01700
2837.69180	0.01696
2836.40603	0.01663
2835.12026	0.01619
2833.83449	0.01584
2832.54873	0.01564
2831.26296	0.01559
2829.97719	0.01565
2828.69142	0.01576
2827.40565	0.01589
2826.11988	0.01604
2824.83411	0.01616
2823.54834	0.01616
2822.26257	0.01599
2820.97681	0.01569
2819.69104	0.01540
2818.40527	0.01526
2817.11950	0.01526
2815.83373	0.01527
2814.54796	0.01515
2813.26219	0.01496
2811.97642	0.01487
2810.69066	0.01493
2809.40489	0.01506
2808.11912	0.01509
2806.83335	0.01498
2805.54758	0.01483
2804.26181	0.01479
2802.97604	0.01485
2801.69027	0.01494
2800.40450	0.01495
2799.11874	0.01487
2797.83297	0.01476
2796.54720	0.01469
2795.26143	0.01475
2793.97566	0.01494
2792.68989	0.01520
2791.40412	0.01542
2790.11835	0.01548
2788.83259	0.01537
2787.54682	0.01514
2786.26105	0.01488
2784.97528	0.01462
2783.68951	0.01440
2782.40374	0.01427
2781.11797	0.01424
2779.83220	0.01423
2778.54643	0.01418
2777.26067	0.01412
2775.97490	0.01416
2774.68913	0.01434
2773.40336	0.01458
2772.11759	0.01478
2770.83182	0.01486
2769.54605	0.01473
2768.26028	0.01439
2766.97452	0.01397
2765.68875	0.01366
2764.40298	0.01359
2763.11721	0.01373
2761.83144	0.01396
2760.54567	0.01415
2759.25990	0.01424
2757.97413	0.01427
2756.68836	0.01429
2755.40260	0.01434
2754.11683	0.01443
2752.83106	0.01449
2751.54529	0.01446
2750.25952	0.01435
2748.97375	0.01424
2747.68798	0.01419
2746.40221	0.01422
2745.11645	0.01426
2743.83068	0.01425
2742.54491	0.01415
2741.25914	0.01399
2739.97337	0.01381
2738.68760	0.01371
2737.40183	0.01375
2736.11606	0.01392
2734.83029	0.01414
2733.54453	0.01427
2732.25876	0.01425
2730.97299	0.01414
2729.68722	0.01407
2728.40145	0.01409
2727.11568	0.01414
2725.82991	0.01412
2724.54414	0.01399
2723.25838	0.01377
2721.97261	0.01350
2720.68684	0.01319
2719.40107	0.01287
2718.11530	0.01268
2716.82953	0.01270
2715.54376	0.01287
2714.25799	0.01303
2712.97222	0.01308
2711.68646	0.01310
2710.40069	0.01315
2709.11492	0.01319
2707.82915	0.01313
2706.54338	0.01301
2705.25761	0.01294
2703.97184	0.01301
2702.68607	0.01324
2701.40031	0.01354
2700.11454	0.01374
2698.82877	0.01376
2697.54300	0.01365
2696.25723	0.01355
2694.97146	0.01355
2693.68569	0.01357
2692.39992	0.01350
2691.11415	0.01329
2689.82839	0.01305
2688.54262	0.01289
2687.25685	0.01286
2685.97108	0.01295
2684.68531	0.01308
2683.39954	0.01323
2682.11377	0.01335
2680.82800	0.01339
2679.54224	0.01331
2678.25647	0.01312
2676.97070	0.01286
2675.68493	0.01265
2674.39916	0.01256
2673.11339	0.01260
2671.82762	0.01273
2670.54185	0.01285
2669.25608	0.01294
2667.97032	0.01302
2666.68455	0.01311
2665.39878	0.01320
2664.11301	0.01335
2662.82724	0.01351
2661.54147	0.01362
2660.25570	0.01364
2658.96993	0.01365
2657.68417	0.01375
2656.39840	0.01392
2655.11263	0.01401
2653.82686	0.01394
2652.54109	0.01377
2651.25532	0.01356
2649.96955	0.01342
2648.68378	0.01341
2647.39801	0.01349
2646.11225	0.01353
2644.82648	0.01343
2643.54071	0.01321
2642.25494	0.01297
2640.96917	0.01275
2639.68340	0.01260
2638.39763	0.01254
2637.11186	0.01259
2635.82609	0.01268
2634.54033	0.01271
2633.25456	0.01262
2631.96879	0.01247
2630.68302	0.01233
2629.39725	0.01220
2628.11148	0.01203
2626.82571	0.01186
2625.53994	0.01182
2624.25418	0.01197
2622.96841	0.01223
2621.68264	0.01244
2620.39687	0.01249
2619.11110	0.01242
2617.82533	0.01224
2616.53956	0.01204
2615.25379	0.01188
2613.96802	0.01180
2612.68226	0.01176
2611.39649	0.01174
2610.11072	0.01175
2608.82495	0.01180
2607.53918	0.01181
2606.25341	0.01176
2604.96764	0.01168
2603.68187	0.01159
2602.39611	0.01143
2601.11034	0.01119
2599.82457	0.01101
2598.53880	0.01094
2597.25303	0.01094
2595.96726	0.01090
2594.68149	0.01081
2593.39572	0.01071
2592.10995	0.01064
2590.82419	0.01069
2589.53842	0.01081
2588.25265	0.01079
2586.96688	0.01044
2585.68111	0.00987
2584.39534	0.00933
2583.10957	0.00897
2581.82380	0.00877
2580.53804	0.00870
2579.25227	0.00882
2577.96650	0.00920
2576.68073	0.00975
2575.39496	0.01025
2574.10919	0.01045
2572.82342	0.01029
2571.53765	0.00996
2570.25188	0.00974
2568.96612	0.00969
2567.68035	0.00962
2566.39458	0.00926
2565.10881	0.00862
2563.82304	0.00805
2562.53727	0.00788
2561.25150	0.00804
2559.96573	0.00819
2558.67997	0.00812
2557.39420	0.00802
2556.10843	0.00819
2554.82266	0.00865
2553.53689	0.00916
2552.25112	0.00945
2550.96535	0.00943
2549.67958	0.00922
2548.39381	0.00903
2547.10805	0.00895
2545.82228	0.00898
2544.53651	0.00917
2543.25074	0.00944
2541.96497	0.00960
2540.67920	0.00952
2539.39343	0.00926
2538.10766	0.00903
2536.82190	0.00892
2535.53613	0.00881
2534.25036	0.00863
2532.96459	0.00839
2531.67882	0.00821
2530.39305	0.00817
2529.10728	0.00824
2527.82151	0.00840
2526.53574	0.00864
2525.24998	0.00898
2523.96421	0.00930
2522.67844	0.00941
2521.39267	0.00916
2520.10690	0.00861
2518.82113	0.00803
2517.53536	0.00776
2516.24959	0.00789
2514.96383	0.00822
2513.67806	0.00850
2512.39229	0.00865
2511.10652	0.00866
2509.82075	0.00847
2508.53498	0.00809
2507.24921	0.00775
2505.96344	0.00771
2504.67767	0.00805
2503.39191	0.00858
2502.10614	0.00903
2500.82037	0.00920
2499.53460	0.00901
2498.24883	0.00856
2496.96306	0.00803
2495.67729	0.00753
2494.39152	0.00721
2493.10576	0.00721
2491.81999	0.00753
2490.53422	0.00798
2489.24845	0.00833
2487.96268	0.00848
2486.67691	0.00849
2485.39114	0.00844
2484.10537	0.00839
2482.81960	0.00831
2481.53384	0.00813
2480.24807	0.00780
2478.96230	0.00743
2477.67653	0.00727
2476.39076	0.00746
2475.10499	0.00785
2473.81922	0.00819
2472.53345	0.00836
2471.24769	0.00839
2469.96192	0.00837
2468.67615	0.00832
2467.39038	0.00817
2466.10461	0.00793
2464.81884	0.00766
2463.53307	0.00752
2462.24730	0.00765
2460.96153	0.00799
2459.67577	0.00836
2458.39000	0.00861
2457.10423	0.00869
2455.81846	0.00863
2454.53269	0.00851
2453.24692	0.00846
2451.96115	0.00855
2450.67538	0.00876
2449.38962	0.00903
2448.10385	0.00925
2446.81808	0.00927
2445.53231	0.00901
2444.24654	0.00856
2442.96077	0.00814
2441.67500	0.00790
2440.38923	0.00778
2439.10346	0.00766
2437.81770	0.00753
2436.53193	0.00749
2435.24616	0.00759
2433.96039	0.00772
2432.67462	0.00772
2431.38885	0.00765
2430.10308	0.00767
2428.81731	0.00790
2427.53155	0.00820
2426.24578	0.00836
2424.96001	0.00825
2423.67424	0.00800
2422.38847	0.00786
2421.10270	0.00794
2419.81693	0.00807
2418.53116	0.00803
2417.24539	0.00782
2415.95963	0.00761
2414.67386	0.00750
2413.38809	0.00743
2412.10232	0.00737
2410.81655	0.00740
2409.53078	0.00753
2408.24501	0.00766
2406.95924	0.00770
2405.67347	0.00768
2404.38771	0.00771
2403.10194	0.00778
2401.81617	0.00781
2400.53040	0.00775
2399.24463	0.00771
2397.95886	0.00754
2396.67309	0.00743
2395.38732	0.00746
2394.10156	0.00759
2392.81579	0.00775
2391.53002	0.00788
2390.24425	0.00795
2388.95848	0.00795
2387.67271	0.00790
2386.38694	0.00778
2385.10117	0.00760
2383.81540	0.00740
2382.52964	0.00727
2381.24387	0.00731
2379.95810	0.00750
2378.67233	0.00774
2377.38656	0.00791
2376.10079	0.00792
2374.81502	0.00778
2373.52925	0.00754
2372.24349	0.00728
2370.95772	0.00704
2369.67195	0.00680
2368.38618	0.00651
2367.10041	0.00619
2365.81464	0.00587
2364.52887	0.00568
2363.24310	0.00565
2361.95733	0.00576
2360.67157	0.00591
2359.38580	0.00606
2358.10003	0.00628
2356.81426	0.00662
2355.52849	0.00704
2354.24272	0.00744
2352.95695	0.00775
2351.67118	0.00799
2350.38542	0.00815
2349.09965	0.00823
2347.81388	0.00822
2346.52811	0.00821
2345.24234	0.00823
2343.95657	0.00825
2342.67080	0.00817
2341.38503	0.00794
2340.09926	0.00762
2338.81350	0.00728
2337.52773	0.00704
2336.24196	0.00700
2334.95619	0.00716
2333.67042	0.00740
2332.38465	0.00761
2331.09888	0.00776
2329.81311	0.00794
2328.52735	0.00830
2327.24158	0.00895
2325.95581	0.00982
2324.67004	0.01062
2323.38427	0.01105
2322.09850	0.01100
2320.81273	0.01060
2319.52696	0.01009
2318.24119	0.00964
2316.95543	0.00933
2315.66966	0.00919
2314.38389	0.00921
2313.09812	0.00933
2311.81235	0.00944
2310.52658	0.00947
2309.24081	0.00939
2307.95504	0.00925
2306.66928	0.00914
2305.38351	0.00911
2304.09774	0.00912
2302.81197	0.00911
2301.52620	0.00908
2300.24043	0.00907
2298.95466	0.00908
2297.66889	0.00911
2296.38312	0.00915
2295.09736	0.00921
2293.81159	0.00921
2292.52582	0.00906
2291.24005	0.00877
2289.95428	0.00850
2288.66851	0.00840
2287.38274	0.00844
2286.09697	0.00852
2284.81121	0.00860
2283.52544	0.00871
2282.23967	0.00880
2280.95390	0.00870
2279.66813	0.00828
2278.38236	0.00758
2277.09659	0.00690
2275.81082	0.00651
2274.52505	0.00652
2273.23929	0.00684
2271.95352	0.00725
2270.66775	0.00752
2269.38198	0.00743
2268.09621	0.00694
2266.81044	0.00621
2265.52467	0.00549
2264.23890	0.00501
2262.95314	0.00498
2261.66737	0.00546
2260.38160	0.00632
2259.09583	0.00722
2257.81006	0.00775
2256.52429	0.00772
2255.23852	0.00728
2253.95275	0.00677
2252.66698	0.00640
2251.38122	0.00605
2250.09545	0.00565
2248.80968	0.00546
2247.52391	0.00554
2246.23814	0.00604
2244.95237	0.00661
2243.66660	0.00686
2242.38083	0.00673
2241.09507	0.00649
2239.80930	0.00639
2238.52353	0.00639
2237.23776	0.00613
2235.95199	0.00542
2234.66622	0.00447
2233.38045	0.00374
2232.09468	0.00344
2230.80891	0.00345
2229.52315	0.00355
2228.23738	0.00376
2226.95161	0.00421
2225.66584	0.00487
2224.38007	0.00544
2223.09430	0.00553
2221.80853	0.00503
2220.52276	0.00430
2219.23700	0.00390
2217.95123	0.00406
2216.66546	0.00440
2215.37969	0.00438
2214.09392	0.00401
2212.80815	0.00366
2211.52238	0.00337
2210.23661	0.00284
2208.95084	0.00208
2207.66508	0.00174
2206.37931	0.00234
2205.09354	0.00341
2203.80777	0.00388
2202.52200	0.00319
2201.23623	0.00191
2199.95046	0.00117
2198.66469	0.00171
2197.37893	0.00322
2196.09316	0.00467
2194.80739	0.00517
2193.52162	0.00475
2192.23585	0.00413
2190.95008	0.00393
2189.66431	0.00409
2188.37854	0.00428
2187.09277	0.00435
2185.80701	0.00436
2184.52124	0.00418
2183.23547	0.00359
2181.94970	0.00267
2180.66393	0.00181
2179.37816	0.00141
2178.09239	0.00147
2176.80662	0.00176
2175.52085	0.00208
2174.23509	0.00235
2172.94932	0.00254
2171.66355	0.00258
2170.37778	0.00251
2169.09201	0.00249
2167.80624	0.00273
2166.52047	0.00329
2165.23470	0.00403
2163.94894	0.00444
2162.66317	0.00384
2161.37740	0.00179
2160.09163	-0.00125
2158.80586	-0.00400
2157.52009	-0.00537
2156.23432	-0.00531
2154.94855	-0.00455
2153.66278	-0.00372
2152.37702	-0.00301
2151.09125	-0.00245
2149.80548	-0.00210
2148.51971	-0.00199
2147.23394	-0.00201
2145.94817	-0.00193
2144.66240	-0.00159
2143.37663	-0.00101
2142.09087	-0.00035
2140.80510	0.00007
2139.51933	-0.00004
2138.23356	-0.00070
2136.94779	-0.00158
2135.66202	-0.00216
2134.37625	-0.00206
2133.09048	-0.00137
2131.80471	-0.00048
2130.51895	0.00022
2129.23318	0.00067
2127.94741	0.00111
2126.66164	0.00177
2125.37587	0.00261
2124.09010	0.00336
2122.80433	0.00375
2121.51856	0.00375
2120.23280	0.00356
2118.94703	0.00340
2117.66126	0.00334
2116.37549	0.00335
2115.08972	0.00339
2113.80395	0.00346
2112.51818	0.00352
2111.23241	0.00364
2109.94664	0.00391
2108.66088	0.00431
2107.37511	0.00463
2106.08934	0.00469
2104.80357	0.00448
2103.51780	0.00417
2102.23203	0.00379
2100.94626	0.00343
2099.66049	0.00591
2098.37473	0.00716
2097.08896	0.00722
2095.80319	0.00697
2094.51742	0.00643
2093.23165	0.00559
2091.94588	0.00462
2090.66011	0.00371
2089.37434	0.00296
2088.08857	0.00237
2086.80281	0.00195
2085.51704	0.00176
2084.23127	0.00193
2082.94550	0.00253
2081.65973	0.00346
2080.37396	0.00447
2079.08819	0.00530
2077.80242	0.00584
2076.51666	0.00611
2075.23089	0.00622
2073.94512	0.00636
2072.65935	0.00664
2071.37358	0.00703
2070.08781	0.00732
2068.80204	0.00731
2067.51627	0.00698
2066.23050	0.00640
2064.94474	0.00570
2063.65897	0.00500
2062.37320	0.00441
2061.08743	0.00395
2059.80166	0.00352
2058.51589	0.00297
2057.23012	0.00220
2055.94435	0.00133
2054.65859	0.00072
2053.37282	0.00086
2052.08705	0.00197
2050.80128	0.00378
2049.51551	0.00563
2048.22974	0.00681
2046.94397	0.00690
2045.65820	0.00591
2044.37243	0.00429
2043.08667	0.00268
2041.80090	0.00158
2040.51513	0.00124
2039.22936	0.00170
2037.94359	0.00285
2036.65782	0.00421
2035.37205	0.00514
2034.08628	0.00518
2032.80052	0.00443
2031.51475	0.00334
2030.22898	0.00238
2028.94321	0.00180
2027.65744	0.00169
2026.37167	0.00190
2025.08590	0.00215
2023.80013	0.00219
2022.51436	0.00207
2021.22860	0.00217
2019.94283	0.00280
2018.65706	0.00389
2017.37129	0.00499
2016.08552	0.00562
2014.79975	0.00563
2013.51398	0.00536
2012.22821	0.00532
2010.94245	0.00575
2009.65668	0.00648
2008.37091	0.00709
2007.08514	0.00712
2005.79937	0.00629
2004.51360	0.00486
2003.22783	0.00357
2001.94206	0.00298
2000.65629	0.00291
1999.37053	0.00278
1998.08476	0.00233
1996.79899	0.00185
1995.51322	0.00178
1994.22745	0.00219
1992.94168	0.00280
1991.65591	0.00328
1990.37014	0.00350
1989.08438	0.00342
1987.79861	0.00313
1986.51284	0.00284
1985.22707	0.00290
1983.94130	0.00364
1982.65553	0.00535
1981.36976	0.00796
1980.08399	0.01085
1978.79822	0.01295
1977.51246	0.01345
1976.22669	0.01241
1974.94092	0.01073
1973.65515	0.00938
1972.36938	0.00877
1971.08361	0.00856
1969.79784	0.00814
1968.51207	0.00723
1967.22631	0.00614
1965.94054	0.00545
1964.65477	0.00533
1963.36900	0.00549
1962.08323	0.00553
1960.79746	0.00531
1959.51169	0.00490
1958.22592	0.00437
1956.94015	0.00384
1955.65439	0.00360
1954.36862	0.00394
1953.08285	0.00473
1951.79708	0.00547
1950.51131	0.00578
1949.22554	0.00581
1947.93977	0.00592
1946.65400	0.00615
1945.36823	0.00626
1944.08247	0.00612
1942.79670	0.00588
1941.51093	0.00574
1940.22516	0.00560
1938.93939	0.00525
1937.65362	0.00462
1936.36785	0.00402
1935.08208	0.00386
1933.79632	0.00435
1932.51055	0.00527
1931.22478	0.00619
1929.93901	0.00672
1928.65324	0.00679
1927.36747	0.00653
1926.08170	0.00619
1924.79593	0.00595
1923.51016	0.00587
1922.22440	0.00594
1920.93863	0.00606
1919.65286	0.00618
1918.36709	0.00628
1917.08132	0.00639
1915.79555	0.00643
1914.50978	0.00637
1913.22401	0.00625
1911.93825	0.00618
1910.65248	0.00622
1909.36671	0.00635
1908.08094	0.00647
1906.79517	0.00648
1905.50940	0.00638
1904.22363	0.00622
1902.93786	0.00613
1901.65209	0.00618
1900.36633	0.00635
1899.08056	0.00654
1897.79479	0.00660
1896.50902	0.00651
1895.22325	0.00636
1893.93748	0.00631
1892.65171	0.00636
1891.36594	0.00639
1890.08018	0.00630
1888.79441	0.00608
1887.50864	0.00580
1886.22287	0.00558
1884.93710	0.00550
1883.65133	0.00561
1882.36556	0.00585
1881.07979	0.00614
1879.79402	0.00641
1878.50826	0.00662
1877.22249	0.00669
1875.93672	0.00661
1874.65095	0.00641
1873.36518	0.00619
1872.07941	0.00606
1870.79364	0.00608
1869.50787	0.00619
1868.22211	0.00628
1866.93634	0.00633
1865.65057	0.00640
1864.36480	0.00655
1863.07903	0.00673
1861.79326	0.00683
1860.50749	0.00678
1859.22172	0.00666
1857.93595	0.00654
1856.65019	0.00643
1855.36442	0.00634
1854.07865	0.00627
1852.79288	0.00625
1851.50711	0.00624
1850.22134	0.00625
1848.93557	0.00631
1847.64980	0.00644
1846.36404	0.00654
1845.07827	0.00650
1843.79250	0.00640
1842.50673	0.00632
1841.22096	0.00629
1839.93519	0.00626
1838.64942	0.00618
1837.36365	0.00603
1836.07788	0.00585
1834.79212	0.00576
1833.50635	0.00584
1832.22058	0.00607
1830.93481	0.00634
1829.64904	0.00656
1828.36327	0.00672
1827.07750	0.00684
1825.79173	0.00700
1824.50597	0.00729
1823.22020	0.00768
1821.93443	0.00805
1820.64866	0.00824
1819.36289	0.00811
1818.07712	0.00760
1816.79135	0.00683
1815.50558	0.00607
1814.21981	0.00556
1812.93405	0.00536
1811.64828	0.00534
1810.36251	0.00539
1809.07674	0.00543
1807.79097	0.00545
1806.50520	0.00549
1805.21943	0.00560
1803.93366	0.00576
1802.64790	0.00591
1801.36213	0.00602
1800.07636	0.00610
1798.79059	0.00624
1797.50482	0.00649
1796.21905	0.00678
1794.93328	0.00698
1793.64751	0.00701
1792.36174	0.00694
1791.07598	0.00692
1789.79021	0.00700
1788.50444	0.00714
1787.21867	0.00727
1785.93290	0.00733
1784.64713	0.00735
1783.36136	0.00737
1782.07559	0.00741
1780.78983	0.00745
1779.50406	0.00742
1778.21829	0.00732
1776.93252	0.00718
1775.64675	0.00703
1774.36098	0.00688
1773.07521	0.00678
1771.78944	0.00679
1770.50367	0.00684
1769.21791	0.00682
1767.93214	0.00678
1766.64637	0.00683
1765.36060	0.00696
1764.07483	0.00705
1762.78906	0.00707
1761.50329	0.00706
1760.21752	0.00705
1758.93176	0.00699
1757.64599	0.00687
1756.36022	0.00680
1755.07445	0.00681
1753.78868	0.00684
1752.50291	0.00685
1751.21714	0.00686
1749.93137	0.00692
1748.64560	0.00697
1747.35984	0.00701
1746.07407	0.00706
1744.78830	0.00717
1743.50253	0.00728
1742.21676	0.00735
1740.93099	0.00735
1739.64522	0.00741
1738.35945	0.00764
1737.07369	0.00793
1735.78792	0.00805
1734.50215	0.00799
1733.21638	0.00791
1731.93061	0.00785
1730.64484	0.00775
1729.35907	0.00761
1728.07330	0.00752
1726.78753	0.00750
1725.50177	0.00758
1724.21600	0.00779
1722.93023	0.00816
1721.64446	0.00861
1720.35869	0.00897
1719.07292	0.00914
1717.78715	0.00916
1716.50138	0.00914
1715.21561	0.00910
1713.92985	0.00903
1712.64408	0.00897
1711.35831	0.00899
1710.07254	0.00909
1708.78677	0.00922
1707.50100	0.00934
1706.21523	0.00950
1704.92946	0.00983
1703.64370	0.01028
1702.35793	0.01058
1701.07216	0.01065
1699.78639	0.01070
1698.50062	0.01077
1697.21485	0.01071
1695.92908	0.01056
1694.64331	0.01056
1693.35754	0.01069
1692.07178	0.01079
1690.78601	0.01090
1689.50024	0.01115
1688.21447	0.01156
1686.92870	0.01190
1685.64293	0.01201
1684.35716	0.01199
1683.07139	0.01200
1681.78563	0.01203
1680.49986	0.01209
1679.21409	0.01228
1677.92832	0.01257
1676.64255	0.01281
1675.35678	0.01298
1674.07101	0.01317
1672.78524	0.01337
1671.49947	0.01351
1670.21371	0.01357
1668.92794	0.01361
1667.64217	0.01372
1666.35640	0.01390
1665.07063	0.01411
1663.78486	0.01428
1662.49909	0.01441
1661.21332	0.01448
1659.92756	0.01455
1658.64179	0.01471
1657.35602	0.01506
1656.07025	0.01545
1654.78448	0.01562
1653.49871	0.01551
1652.21294	0.01537
1650.92717	0.01534
1649.64140	0.01531
1648.35564	0.01526
1647.06987	0.01524
1645.78410	0.01529
1644.49833	0.01536
1643.21256	0.01539
1641.92679	0.01541
1640.64102	0.01552
1639.35525	0.01578
1638.06949	0.01602
1636.78372	0.01610
1635.49795	0.01604
1634.21218	0.01594
1632.92641	0.01588
1631.64064	0.01588
1630.35487	0.01597
1629.06910	0.01617
1627.78333	0.01642
1626.49757	0.01664
1625.21180	0.01673
1623.92603	0.01671
1622.64026	0.01669
1621.35449	0.01678
1620.06872	0.01693
1618.78295	0.01701
1617.49718	0.01700
1616.21142	0.01702
1614.92565	0.01712
1613.63988	0.01725
1612.35411	0.01737
1611.06834	0.01750
1609.78257	0.01766
1608.49680	0.01780
1607.21103	0.01790
1605.92526	0.01796
1604.63950	0.01800
1603.35373	0.01807
1602.06796	0.01818
1600.78219	0.01832
1599.49642	0.01845
1598.21065	0.01858
1596.92488	0.01871
1595.63911	0.01885
1594.35335	0.01898
1593.06758	0.01911
1591.78181	0.01920
1590.49604	0.01924
1589.21027	0.01923
1587.92450	0.01920
1586.63873	0.01922
1585.35296	0.01930
1584.06719	0.01942
1582.78143	0.01954
1581.49566	0.01970
1580.20989	0.01991
1578.92412	0.02010
1577.63835	0.02013
1576.35258	0.02004
1575.06681	0.02002
1573.78104	0.02011
1572.49528	0.02019
1571.20951	0.02019
1569.92374	0.02017
1568.63797	0.02019
1567.35220	0.02026
1566.06643	0.02036
1564.78066	0.02055
1563.49489	0.02093
1562.20912	0.02134
1560.92336	0.02154
1559.63759	0.02149
1558.35182	0.02135
1557.06605	0.02123
1555.78028	0.02108
1554.49451	0.02090
1553.20874	0.02077
1551.92297	0.02068
1550.63721	0.02063
1549.35144	0.02068
1548.06567	0.02083
1546.77990	0.02100
1545.49413	0.02114
1544.20836	0.02128
1542.92259	0.02139
1541.63682	0.02136
1540.35105	0.02115
1539.06529	0.02091
1537.77952	0.02077
1536.49375	0.02068
1535.20798	0.02056
1533.92221	0.02046
1532.63644	0.02049
1531.35067	0.02066
1530.06490	0.02090
1528.77914	0.02115
1527.49337	0.02140
1526.20760	0.02168
1524.92183	0.02201
1523.63606	0.02236
1522.35029	0.02267
1521.06452	0.02297
1519.77875	0.02327
1518.49298	0.02352
1517.20722	0.02374
1515.92145	0.02405
1514.63568	0.02447
1513.34991	0.02497
1512.06414	0.02554
1510.77837	0.02623
1509.49260	0.02696
1508.20683	0.02756
1506.92107	0.02803
1505.63530	0.02845
1504.34953	0.02888
1503.06376	0.02927
1501.77799	0.02967
1500.49222	0.03010
1499.20645	0.03055
1497.92068	0.03092
1496.63491	0.03120
1495.34915	0.03147
1494.06338	0.03176
1492.77761	0.03203
1491.49184	0.03230
1490.20607	0.03263
1488.92030	0.03299
1487.63453	0.03334
1486.34876	0.03367
1485.06299	0.03402
1483.77723	0.03441
1482.49146	0.03487
1481.20569	0.03540
1479.91992	0.03595
1478.63415	0.03645
1477.34838	0.03689
1476.06261	0.03728
1474.77684	0.03761
1473.49108	0.03787
1472.20531	0.03812
1470.91954	0.03836
1469.63377	0.03857
1468.34800	0.03874
1467.06223	0.03887
1465.77646	0.03899
1464.49069	0.03913
1463.20492	0.03935
1461.91916	0.03969
1460.63339	0.04012
1459.34762	0.04049
1458.06185	0.04071
1456.77608	0.04086
1455.49031	0.04101
1454.20454	0.04115
1452.91877	0.04123
1451.63301	0.04130
1450.34724	0.04140
1449.06147	0.04149
1447.77570	0.04152
1446.48993	0.04149
1445.20416	0.04141
1443.91839	0.04129
1442.63262	0.04117
1441.34685	0.04108
1440.06109	0.04102
1438.77532	0.04093
1437.48955	0.04081
1436.20378	0.04075
1434.91801	0.04081
1433.63224	0.04098
1432.34647	0.04128
1431.06070	0.04169
1429.77494	0.04221
1428.48917	0.04278
1427.20340	0.04339
1425.91763	0.04405
1424.63186	0.04476
1423.34609	0.04548
1422.06032	0.04611
1420.77455	0.04656
1419.48878	0.04686
1418.20302	0.04711
1416.91725	0.04736
1415.63148	0.04757
1414.34571	0.04770
1413.05994	0.04776
1411.77417	0.04773
1410.48840	0.04759
1409.20263	0.04735
1407.91687	0.04701
1406.63110	0.04659
1405.34533	0.04609
1404.05956	0.04552
1402.77379	0.04489
1401.48802	0.04416
1400.20225	0.04335
1398.91648	0.04246
1397.63071	0.04152
1396.34495	0.04054
1395.05918	0.03958
1393.77341	0.03867
1392.48764	0.03782
1391.20187	0.03697
1389.91610	0.03608
1388.63033	0.03517
1387.34456	0.03428
1386.05880	0.03340
1384.77303	0.03252
1383.48726	0.03163
1382.20149	0.03078
1380.91572	0.02997
1379.62995	0.02917
1378.34418	0.02832
1377.05841	0.02742
1375.77264	0.02650
1374.48688	0.02560
1373.20111	0.02477
1371.91534	0.02397
1370.62957	0.02316
1369.34380	0.02234
1368.05803	0.02159
1366.77226	0.02094
1365.48649	0.02038
1364.20073	0.01985
1362.91496	0.01935
1361.62919	0.01887
1360.34342	0.01839
1359.05765	0.01790
1357.77188	0.01742
1356.48611	0.01699
1355.20034	0.01660
1353.91457	0.01624
1352.62881	0.01591
1351.34304	0.01560
1350.05727	0.01528
1348.77150	0.01492
1347.48573	0.01455
1346.19996	0.01420
1344.91419	0.01391
1343.62842	0.01370
1342.34266	0.01354
1341.05689	0.01339
1339.77112	0.01326
1338.48535	0.01315
1337.19958	0.01305
1335.91381	0.01294
1334.62804	0.01281
1333.34227	0.01266
1332.05650	0.01250
1330.77074	0.01233
1329.48497	0.01218
1328.19920	0.01206
1326.91343	0.01198
1325.62766	0.01191
1324.34189	0.01182
1323.05612	0.01173
1321.77035	0.01165
1320.48459	0.01160
1319.19882	0.01159
1317.91305	0.01158
1316.62728	0.01155
1315.34151	0.01148
1314.05574	0.01137
1312.76997	0.01122
1311.48420	0.01107
1310.19843	0.01097
1308.91267	0.01093
1307.62690	0.01093
1306.34113	0.01094
1305.05536	0.01093
1303.76959	0.01088
1302.48382	0.01079
1301.19805	0.01069
1299.91228	0.01060
1298.62652	0.01051
1297.34075	0.01044
1296.05498	0.01037
1294.76921	0.01031
1293.48344	0.01026
1292.19767	0.01022
1290.91190	0.01018
1289.62613	0.01012
1288.34036	0.01006
1287.05460	0.01001
1285.76883	0.00996
1284.48306	0.00992
1283.19729	0.00990
1281.91152	0.00988
1280.62575	0.00981
1279.33998	0.00969
1278.05421	0.00956
1276.76845	0.00949
1275.48268	0.00948
1274.19691	0.00949
1272.91114	0.00947
1271.62537	0.00940
1270.33960	0.00934
1269.05383	0.00931
1267.76806	0.00932
1266.48229	0.00935
1265.19653	0.00938
1263.91076	0.00936
1262.62499	0.00931
1261.33922	0.00923
1260.05345	0.00914
1258.76768	0.00907
1257.48191	0.00899
1256.19614	0.00893
1254.91037	0.00888
1253.62461	0.00886
1252.33884	0.00887
1251.05307	0.00890
1249.76730	0.00891
1248.48153	0.00889
1247.19576	0.00884
1245.90999	0.00878
1244.62422	0.00873
1243.33846	0.00870
1242.05269	0.00867
1240.76692	0.00866
1239.48115	0.00868
1238.19538	0.00870
1236.90961	0.00872
1235.62384	0.00872
1234.33807	0.00870
1233.05230	0.00868
1231.76654	0.00865
1230.48077	0.00859
1229.19500	0.00850
1227.90923	0.00840
1226.62346	0.00833
1225.33769	0.00831
1224.05192	0.00832
1222.76615	0.00833
1221.48039	0.00832
1220.19462	0.00831
1218.90885	0.00829
1217.62308	0.00825
1216.33731	0.00820
1215.05154	0.00815
1213.76577	0.00814
1212.48000	0.00816
1211.19423	0.00821
1209.90847	0.00827
1208.62270	0.00835
1207.33693	0.00845
1206.05116	0.00856
1204.76539	0.00869
1203.47962	0.00880
1202.19385	0.00887
1200.90808	0.00871
1199.62232	0.00832
1198.33655	0.00833
1197.05078	0.00836
1195.76501	0.00838
1194.47924	0.00839
1193.19347	0.00842
1191.90770	0.00846
1190.62193	0.00852
1189.33616	0.00858
1188.05040	0.00864
1186.76463	0.00867
1185.47886	0.00866
1184.19309	0.00862
1182.90732	0.00857
1181.62155	0.00857
1180.33578	0.00863
1179.05001	0.00871
1177.76425	0.00879
1176.47848	0.00886
1175.19271	0.00892
1173.90694	0.00898
1172.62117	0.00904
1171.33540	0.00911
1170.04963	0.00921
1168.76386	0.00933
1167.47809	0.00948
1166.19233	0.00965
1164.90656	0.00980
1163.62079	0.00993
1162.33502	0.01005
1161.04925	0.01017
1159.76348	0.01031
1158.47771	0.01048
1157.19194	0.01070
1155.90618	0.01094
1154.62041	0.01119
1153.33464	0.01145
1152.04887	0.01175
1150.76310	0.01207
1149.47733	0.01242
1148.19156	0.01279
1146.90579	0.01318
1145.62002	0.01359
1144.33426	0.01398
1143.04849	0.01436
1141.76272	0.01476
1140.47695	0.01525
1139.19118	0.01585
1137.90541	0.01655
1136.61964	0.01730
1135.33387	0.01813
1134.04811	0.01906
1132.76234	0.02012
1131.47657	0.02127
1130.19080	0.02250
1128.90503	0.02381
1127.61926	0.02521
1126.33349	0.02676
1125.04772	0.02848
1123.76195	0.03032
1122.47619	0.03219
1121.19042	0.03400
1119.90465	0.03573
1118.61888	0.03742
1117.33311	0.03912
1116.04734	0.04088
1114.76157	0.04267
1113.47580	0.04441
1112.19004	0.04607
1110.90427	0.04767
1109.61850	0.04928
1108.33273	0.05089
1107.04696	0.05246
1105.76119	0.05394
1104.47542	0.05532
1103.18965	0.05666
1101.90388	0.05797
1100.61812	0.05921
1099.33235	0.06036
1098.04658	0.06142
1096.76081	0.06243
1095.47504	0.06347
1094.18927	0.06458
1092.90350	0.06573
1091.61773	0.06683
1090.33197	0.06783
1089.04620	0.06874
1087.76043	0.06967
1086.47466	0.07065
1085.18889	0.07166
1083.90312	0.07262
1082.61735	0.07353
1081.33158	0.07448
1080.04581	0.07555
1078.76005	0.07676
1077.47428	0.07804
1076.18851	0.07934
1074.90274	0.08067
1073.61697	0.08204
1072.33120	0.08344
1071.04543	0.08485
1069.75966	0.08628
1068.47390	0.08776
1067.18813	0.08929
1065.90236	0.09090
1064.61659	0.09256
1063.33082	0.09423
1062.04505	0.09587
1060.75928	0.09743
1059.47351	0.09891
1058.18774	0.10035
1056.90198	0.10178
1055.61621	0.10322
1054.33044	0.10466
1053.04467	0.10607
1051.75890	0.10746
1050.47313	0.10889
1049.18736	0.11042
1047.90159	0.11202
1046.61583	0.11363
1045.33006	0.11522
1044.04429	0.11677
1042.75852	0.11830
1041.47275	0.11981
1040.18698	0.12134
1038.90121	0.12289
1037.61544	0.12446
1036.32967	0.12597
1035.04391	0.12736
1033.75814	0.12858
1032.47237	0.12964
1031.18660	0.13052
1029.90083	0.13120
1028.61506	0.13166
1027.32929	0.13192
1026.04352	0.13196
1024.75775	0.13180
1023.47199	0.13139
1022.18622	0.13074
1020.90045	0.12984
1019.61468	0.12871
1018.32891	0.12736
1017.04314	0.12582
1015.75737	0.12411
1014.47160	0.12226
1013.18584	0.12023
1011.90007	0.11798
1010.61430	0.11549
1009.32853	0.11279
1008.04276	0.10995
1006.75699	0.10705
1005.47122	0.10416
1004.18545	0.10129
1002.89968	0.09838
1001.61392	0.09536
1000.32815	0.09222
999.04238	0.08905
997.75661	0.08588
996.47084	0.08271
995.18507	0.07950
993.89930	0.07627
992.61353	0.07312
991.32777	0.07017
990.04200	0.06747
988.75623	0.06493
987.47046	0.06243
986.18469	0.05991
984.89892	0.05742
983.61315	0.05510
982.32738	0.05301
981.04161	0.05113
979.75585	0.04938
978.47008	0.04778
977.18431	0.04634
975.89854	0.04509
974.61277	0.04400
973.32700	0.04310
972.04123	0.04243
970.75546	0.04200
969.46970	0.04180
968.18393	0.04181
966.89816	0.04202
965.61239	0.04240
964.32662	0.04286
963.04085	0.04331
961.75508	0.04364
960.46931	0.04378
959.18354	0.04360
957.89778	0.04308
956.61201	0.04227
955.32624	0.04126
954.04047	0.04016
952.75470	0.03901
951.46893	0.03779
950.18316	0.03655
948.89739	0.03531
947.61163	0.03411
946.32586	0.03297
945.04009	0.03191
943.75432	0.03098
942.46855	0.03017
941.18278	0.02941
939.89701	0.02866
938.61124	0.02790
937.32547	0.02718
936.03971	0.02654
934.75394	0.02598
933.46817	0.02551
932.18240	0.02514
930.89663	0.02480
929.61086	0.02441
928.32509	0.02397
927.03932	0.02354
925.75356	0.02316
924.46779	0.02285
923.18202	0.02258
921.89625	0.02233
920.61048	0.02208
919.32471	0.02181
918.03894	0.02150
916.75317	0.02115
915.46740	0.02080
914.18164	0.02057
912.89587	0.02051
911.61010	0.02054
910.32433	0.02050
909.03856	0.02032
907.75279	0.02005
906.46702	0.01980
905.18125	0.01966
903.89549	0.01963
902.60972	0.01965
901.32395	0.01965
900.03818	0.01955
898.75241	0.01938
897.46664	0.01923
896.18087	0.01914
894.89510	0.01909
893.60933	0.01907
892.32357	0.01911
891.03780	0.01927
889.75203	0.01954
888.46626	0.01988
887.18049	0.02026
885.89472	0.02071
884.60895	0.02137
883.32318	0.02244
882.03742	0.02391
880.75165	0.02550
879.46588	0.02679
878.18011	0.02761
876.89434	0.02809
875.60857	0.02852
874.32280	0.02904
873.03703	0.02958
871.75126	0.02990
870.46550	0.02984
869.17973	0.02935
867.89396	0.02853
866.60819	0.02753
865.32242	0.02645
864.03665	0.02538
862.75088	0.02438
861.46511	0.02349
860.17935	0.02272
858.89358	0.02202
857.60781	0.02138
856.32204	0.02083
855.03627	0.02035
853.75050	0.01992
852.46473	0.01954
851.17896	0.01924
849.89319	0.01905
848.60743	0.01894
847.32166	0.01879
846.03589	0.01859
844.75012	0.01837
843.46435	0.01822
842.17858	0.01815
840.89281	0.01812
839.60704	0.01808
838.32128	0.01801
837.03551	0.01792
835.74974	0.01786
834.46397	0.01787
833.17820	0.01795
831.89243	0.01802
830.60666	0.01802
829.32089	0.01794
828.03512	0.01784
826.74936	0.01775
825.46359	0.01767
824.17782	0.01759
822.89205	0.01754
821.60628	0.01756
820.32051	0.01763
819.03474	0.01767
817.74897	0.01763
816.46321	0.01756
815.17744	0.01751
813.89167	0.01750
812.60590	0.01748
811.32013	0.01741
810.03436	0.01732
808.74859	0.01722
807.46282	0.01714
806.17705	0.01708
804.89129	0.01705
803.60552	0.01706
802.31975	0.01708
801.03398	0.01709
799.74821	0.01709
798.46244	0.01710
797.17667	0.01710
795.89090	0.01709
794.60513	0.01706
793.31937	0.01705
792.03360	0.01707
790.74783	0.01714
789.46206	0.01722
788.17629	0.01724
786.89052	0.01713
785.60475	0.01693
784.31898	0.01673
783.03322	0.01660
781.74745	0.01656
780.46168	0.01656
779.17591	0.01658
777.89014	0.01665
776.60437	0.01681
775.31860	0.01705
774.03283	0.01728
772.74706	0.01743
771.46130	0.01741
770.17553	0.01726
768.88976	0.01705
767.60399	0.01691
766.31822	0.01693
765.03245	0.01708
763.74668	0.01726
762.46091	0.01737
761.17515	0.01740
759.88938	0.01740
758.60361	0.01737
757.31784	0.01729
756.03207	0.01719
754.74630	0.01714
753.46053	0.01716
752.17476	0.01723
750.88899	0.01733
749.60323	0.01745
748.31746	0.01761
747.03169	0.01776
745.74592	0.01788
744.46015	0.01789
743.17438	0.01774
741.88861	0.01741
740.60284	0.01702
739.31708	0.01676
738.03131	0.01673
736.74554	0.01689
735.45977	0.01712
734.17400	0.01723
732.88823	0.01712
731.60246	0.01688
730.31669	0.01667
729.03092	0.01662
727.74516	0.01672
726.45939	0.01687
725.17362	0.01701
723.88785	0.01713
722.60208	0.01719
721.31631	0.01720
720.03054	0.01715
718.74477	0.01706
717.45901	0.01699
716.17324	0.01699
714.88747	0.01705
713.60170	0.01714
712.31593	0.01723
711.03016	0.01728
709.74439	0.01729
708.45862	0.01727
707.17285	0.01722
705.88709	0.01716
704.60132	0.01709
703.31555	0.01705
702.02978	0.01706
700.74401	0.01709
699.45824	0.01714
698.17247	0.01717
696.88670	0.01719
695.60094	0.01719
694.31517	0.01717
693.02940	0.01715
691.74363	0.01714
690.45786	0.01716
689.17209	0.01721
687.88632	0.01727
686.60055	0.01731
685.31478	0.01728
684.02902	0.01717
682.74325	0.01699
681.45748	0.01682
680.17171	0.01671
678.88594	0.01666
677.60017	0.01665
676.31440	0.01667
675.02863	0.01672
673.74287	0.01683
672.45710	0.01696
671.17133	0.01709
669.88556	0.01719
668.59979	0.01722
667.31402	0.01721
666.02825	0.01717
664.74248	0.01713
663.45671	0.01708
662.17095	0.01702
660.88518	0.01696
659.59941	0.01691
658.31364	0.01687
657.02787	0.01685
655.74210	0.01687
654.45633	0.01689
653.17056	0.01690
651.88480	0.01689
650.59903	0.01690
649.31326	0.01697
648.02749	0.01709
646.74172	0.01722
645.45595	0.01730
644.17018	0.01733
642.88441	0.01733
641.59864	0.01738
640.31288	0.01751
639.02711	0.01769
637.74134	0.01791
636.45557	0.01814
635.16980	0.01841
633.88403	0.01869
632.59826	0.01895
631.31249	0.01950
630.02673	0.02192
628.74096	0.02570
627.45519	0.02429
626.16942	0.02862
624.88365	0.03689
623.59788	0.04479
622.31211	0.05050
621.02634	0.05334
619.74057	0.05346
618.45481	0.05167
617.16904	0.04868
615.88327	0.04500
614.59750	0.04157
613.31173	0.03987
612.02596	0.04127
610.74019	0.04592
609.45442	0.05244
608.16866	0.05872
606.88289	0.06320
605.59712	0.06533
604.31135	0.06545
603.02558	0.06425
601.73981	0.06229
600.45404	0.05987
599.16827	0.05717
597.88250	0.05445
596.59674	0.05197
595.31097	0.04990
594.02520	0.04835
592.73943	0.04737
591.45366	0.04694
590.16789	0.04691
588.88212	0.04713
587.59635	0.04753
586.31059	0.04809
585.02482	0.04877
583.73905	0.04956
582.45328	0.05047
581.16751	0.05158
579.88174	0.05290
578.59597	0.05431
577.31020	0.05569
576.02443	0.05700
574.73867	0.05838
573.45290	0.05994
572.16713	0.06170
570.88136	0.06358
569.59559	0.06549
568.30982	0.06741
567.02405	0.06924
565.73828	0.07080
564.45251	0.07184
563.16675	0.07219
561.88098	0.07171
560.59521	0.07032
559.30944	0.06809
558.02367	0.06522
556.73790	0.06202
555.45213	0.05873
554.16636	0.05547
552.88060	0.05230
551.59483	0.04932
550.30906	0.04660
549.02329	0.04419
547.73752	0.04212
546.45175	0.04038
545.16598	0.03884
543.88021	0.03737
542.59444	0.03589
541.30868	0.03446
540.02291	0.03319
538.73714	0.03207
537.45137	0.03103
536.16560	0.03001
534.87983	0.02903
533.59406	0.02818
532.30829	0.02745
531.02253	0.02683
529.73676	0.02627
528.45099	0.02573
527.16522	0.02519
525.87945	0.02467
524.59368	0.02418
523.30791	0.02367
522.02214	0.02310
520.73637	0.02246
519.45061	0.02186
518.16484	0.02137
516.87907	0.02098
515.59330	0.02062
514.30753	0.02025
513.02176	0.01987
511.73599	0.01952
510.45022	0.01923
509.16446	0.01897
507.87869	0.01870
506.59292	0.01839
505.30715	0.01800
504.02138	0.01759
502.73561	0.01728
501.44984	0.01713
500.16407	0.01708
498.87830	0.01700
497.59254	0.01681
496.30677	0.01654
495.02100	0.01626
493.73523	0.01608
492.44946	0.01604
491.16369	0.01612
489.87792	0.01622
488.59215	0.01627
487.30639	0.01623
486.02062	0.01616
484.73485	0.01607
483.44908	0.01594
482.16331	0.01576
480.87754	0.01559
479.59177	0.01552
478.30600	0.01556
477.02023	0.01570
475.73447	0.01586
474.44870	0.01602
473.16293	0.01617
471.87716	0.01631
470.59139	0.01639
469.30562	0.01637
468.01985	0.01626
466.73408	0.01613
465.44832	0.01602
464.16255	0.01594
462.87678	0.01584
461.59101	0.01568
460.30524	0.01547
459.01947	0.01529
457.73370	0.01521
456.44793	0.01520
455.16216	0.01518
453.87640	0.01510
452.59063	0.01498
451.30486	0.01484
450.01909	0.01471
448.73332	0.01459
447.44755	0.01453
446.16178	0.01451
444.87601	0.01449
443.59025	0.01441
442.30448	0.01427
441.01871	0.01412
439.73294	0.01401
438.44717	0.01397
437.16140	0.01400
435.87563	0.01408
434.58986	0.01415
433.30409	0.01414
432.01833	0.01408
430.73256	0.01403
429.44679	0.01402
428.16102	0.01404
426.87525	0.01403
425.58948	0.01399
424.30371	0.01395
423.01794	0.01393
421.73218	0.01390
420.44641	0.01381
419.16064	0.01370
417.87487	0.01361
416.58910	0.01357
415.30333	0.01356
414.01756	0.01358
412.73179	0.01364
411.44602	0.01370
410.16026	0.01375
408.87449	0.01383
407.58872	0.01394
406.30295	0.01408
405.01718	0.01419
403.73141	0.01425
402.44564	0.01427
401.15987	0.01428
399.87411	0.01431
