3997.45528	0.04006
3996.16951	0.03965
3994.88374	0.03928
3993.59798	0.03917
3992.31221	0.03925
3991.02644	0.03909
3989.74067	0.03848
3988.45490	0.03773
3987.16913	0.03740
3985.88336	0.03776
3984.59759	0.03868
3983.31183	0.03987
3982.02606	0.04106
3980.74029	0.04184
3979.45452	0.04179
3978.16875	0.04078
3976.88298	0.03920
3975.59721	0.03776
3974.31144	0.03711
3973.02567	0.03752
3971.73991	0.03869
3970.45414	0.03988
3969.16837	0.04040
3967.88260	0.04011
3966.59683	0.03943
3965.31106	0.03886
3964.02529	0.03857
3962.73952	0.03848
3961.45376	0.03854
3960.16799	0.03869
3958.88222	0.03882
3957.59645	0.03875
3956.31068	0.03844
3955.02491	0.03804
3953.73914	0.03782
3952.45337	0.03787
3951.16760	0.03802
3949.88184	0.03797
3948.59607	0.03770
3947.31030	0.03748
3946.02453	0.03756
3944.73876	0.03794
3943.45299	0.03848
3942.16722	0.03901
3940.88145	0.03940
3939.59569	0.03957
3938.30992	0.03960
3937.02415	0.03963
3935.73838	0.03966
3934.45261	0.03967
3933.16684	0.03975
3931.88107	0.04007
3930.59530	0.04052
3929.30953	0.04071
3928.02377	0.04035
3926.73800	0.03949
3925.45223	0.03861
3924.16646	0.03814
3922.88069	0.03814
3921.59492	0.03826
3920.30915	0.03811
3919.02338	0.03762
3917.73762	0.03705
3916.45185	0.03667
3915.16608	0.03647
3913.88031	0.03627
3912.59454	0.03611
3911.30877	0.03617
3910.02300	0.03637
3908.73723	0.03644
3907.45146	0.03630
3906.16570	0.03624
3904.87993	0.03663
3903.59416	0.03741
3902.30839	0.03802
3901.02262	0.03796
3899.73685	0.03739
3898.45108	0.03688
3897.16531	0.03677
3895.87955	0.03690
3894.59378	0.03698
3893.30801	0.03692
3892.02224	0.03691
3890.73647	0.03714
3889.45070	0.03742
3888.16493	0.03734
3886.87916	0.03697
3885.59339	0.03680
3884.30763	0.03697
3883.02186	0.03706
3881.73609	0.03674
3880.45032	0.03630
3879.16455	0.03607
3877.87878	0.03593
3876.59301	0.03566
3875.30724	0.03542
3874.02148	0.03555
3872.73571	0.03591
3871.44994	0.03605
3870.16417	0.03588
3868.87840	0.03572
3867.59263	0.03565
3866.30686	0.03558
3865.02109	0.03553
3863.73532	0.03554
3862.44956	0.03549
3861.16379	0.03550
3859.87802	0.03582
3858.59225	0.03647
3857.30648	0.03712
3856.02071	0.03736
3854.73494	0.03722
3853.44917	0.03728
3852.16341	0.03786
3850.87764	0.03871
3849.59187	0.03950
3848.30610	0.04001
3847.02033	0.04002
3845.73456	0.03952
3844.44879	0.03895
3843.16302	0.03887
3841.87725	0.03927
3840.59149	0.03944
3839.30572	0.03878
3838.01995	0.03752
3836.73418	0.03646
3835.44841	0.03603
3834.16264	0.03605
3832.87687	0.03617
3831.59110	0.03613
3830.30534	0.03580
3829.01957	0.03523
3827.73380	0.03461
3826.44803	0.03427
3825.16226	0.03437
3823.87649	0.03477
3822.59072	0.03528
3821.30495	0.03600
3820.01918	0.03691
3818.73342	0.03744
3817.44765	0.03709
3816.16188	0.03614
3814.87611	0.03513
3813.59034	0.03421
3812.30457	0.03353
3811.01880	0.03347
3809.73303	0.03399
3808.44726	0.03469
3807.16150	0.03550
3805.87573	0.03666
3804.58996	0.03790
3803.30419	0.03864
3802.01842	0.03883
3800.73265	0.03884
3799.44688	0.03858
3798.16111	0.03777
3796.87535	0.03674
3795.58958	0.03617
3794.30381	0.03619
3793.01804	0.03637
3791.73227	0.03629
3790.44650	0.03592
3789.16073	0.03546
3787.87496	0.03502
3786.58919	0.03456
3785.30343	0.03411
3784.01766	0.03401
3782.73189	0.03452
3781.44612	0.03547
3780.16035	0.03638
3778.87458	0.03672
3777.58881	0.03627
3776.30304	0.03521
3775.01728	0.03412
3773.73151	0.03346
3772.44574	0.03326
3771.15997	0.03331
3769.87420	0.03352
3768.58843	0.03375
3767.30266	0.03379
3766.01689	0.03366
3764.73112	0.03364
3763.44536	0.03385
3762.15959	0.03406
3760.87382	0.03407
3759.58805	0.03383
3758.30228	0.03337
3757.01651	0.03286
3755.73074	0.03254
3754.44497	0.03257
3753.15921	0.03316
3751.87344	0.03435
3750.58767	0.03576
3749.30190	0.03692
3748.01613	0.03752
3746.73036	0.03733
3745.44459	0.03661
3744.15882	0.03617
3742.87305	0.03617
3741.58729	0.03600
3740.30152	0.03554
3739.01575	0.03519
3737.72998	0.03515
3736.44421	0.03523
3735.15844	0.03509
3733.87267	0.03462
3732.58690	0.03411
3731.30114	0.03403
3730.01537	0.03424
3728.72960	0.03407
3727.44383	0.03344
3726.15806	0.03295
3724.87229	0.03305
3723.58652	0.03360
3722.30075	0.03410
3721.01498	0.03421
3719.72922	0.03398
3718.44345	0.03372
3717.15768	0.03372
3715.87191	0.03396
3714.58614	0.03414
3713.30037	0.03413
3712.01460	0.03396
3710.72883	0.03379
3709.44307	0.03370
3708.15730	0.03371
3706.87153	0.03401
3705.58576	0.03460
3704.29999	0.03523
3703.01422	0.03557
3701.72845	0.03555
3700.44268	0.03536
3699.15691	0.03517
3697.87115	0.03497
3696.58538	0.03476
3695.29961	0.03450
3694.01384	0.03432
3692.72807	0.03435
3691.44230	0.03466
3690.15653	0.03514
3688.87076	0.03580
3687.58500	0.03674
3686.29923	0.03774
3685.01346	0.03840
3683.72769	0.03872
3682.44192	0.03894
3681.15615	0.03912
3679.87038	0.03909
3678.58461	0.03861
3677.29884	0.03764
3676.01308	0.03678
3674.72731	0.03663
3673.44154	0.03693
3672.15577	0.03705
3670.87000	0.03709
3669.58423	0.03751
3668.29846	0.03821
3667.01269	0.03872
3665.72693	0.03905
3664.44116	0.03944
3663.15539	0.04001
3661.86962	0.04060
3660.58385	0.04111
3659.29808	0.04151
3658.01231	0.04185
3656.72654	0.04229
3655.44077	0.04288
3654.15501	0.04338
3652.86924	0.04353
3651.58347	0.04348
3650.29770	0.04366
3649.01193	0.04410
3647.72616	0.04444
3646.44039	0.04439
3645.15462	0.04409
3643.86886	0.04388
3642.58309	0.04394
3641.29732	0.04427
3640.01155	0.04480
3638.72578	0.04553
3637.44001	0.04646
3636.15424	0.04748
3634.86847	0.04846
3633.58270	0.04938
3632.29694	0.05019
3631.01117	0.05077
3629.72540	0.05124
3628.43963	0.05194
3627.15386	0.05284
3625.86809	0.05368
3624.58232	0.05436
3623.29655	0.05492
3622.01079	0.05509
3620.72502	0.05488
3619.43925	0.05474
3618.15348	0.05524
3616.86771	0.05629
3615.58194	0.05723
3614.29617	0.05748
3613.01040	0.05704
3611.72463	0.05637
3610.43887	0.05583
3609.15310	0.05562
3607.86733	0.05573
3606.58156	0.05606
3605.29579	0.05657
3604.01002	0.05719
3602.72425	0.05785
3601.43848	0.05854
3600.15272	0.05944
3598.86695	0.06063
3597.58118	0.06185
3596.29541	0.06269
3595.00964	0.06315
3593.72387	0.06356
3592.43810	0.06417
3591.15233	0.06502
3589.86656	0.06587
3588.58080	0.06642
3587.29503	0.06660
3586.00926	0.06657
3584.72349	0.06669
3583.43772	0.06729
3582.15195	0.06826
3580.86618	0.06909
3579.58041	0.06935
3578.29464	0.06915
3577.00888	0.06905
3575.72311	0.06955
3574.43734	0.07062
3573.15157	0.07187
3571.86580	0.07300
3570.58003	0.07387
3569.29426	0.07436
3568.00849	0.07446
3566.72273	0.07435
3565.43696	0.07429
3564.15119	0.07435
3562.86542	0.07443
3561.57965	0.07449
3560.29388	0.07455
3559.00811	0.07471
3557.72234	0.07513
3556.43657	0.07595
3555.15081	0.07699
3553.86504	0.07786
3552.57927	0.07828
3551.29350	0.07835
3550.00773	0.07837
3548.72196	0.07859
3547.43619	0.07918
3546.15042	0.08019
3544.86466	0.08141
3543.57889	0.08246
3542.29312	0.08315
3541.00735	0.08360
3539.72158	0.08404
3538.43581	0.08455
3537.15004	0.08497
3535.86427	0.08512
3534.57850	0.08510
3533.29274	0.08520
3532.00697	0.08566
3530.72120	0.08642
3529.43543	0.08718
3528.14966	0.08770
3526.86389	0.08803
3525.57812	0.08842
3524.29235	0.08911
3523.00659	0.09019
3521.72082	0.09143
3520.43505	0.09240
3519.14928	0.09274
3517.86351	0.09245
3516.57774	0.09190
3515.29197	0.09159
3514.00620	0.09186
3512.72043	0.09274
3511.43467	0.09396
3510.14890	0.09513
3508.86313	0.09601
3507.57736	0.09651
3506.29159	0.09669
3505.00582	0.09667
3503.72005	0.09660
3502.43428	0.09658
3501.14852	0.09664
3499.86275	0.09671
3498.57698	0.09682
3497.29121	0.09699
3496.00544	0.09724
3494.71967	0.09756
3493.43390	0.09793
3492.14813	0.09841
3490.86236	0.09906
3489.57660	0.09991
3488.29083	0.10097
3487.00506	0.10209
3485.71929	0.10297
3484.43352	0.10329
3483.14775	0.10291
3481.86198	0.10204
3480.57621	0.10117
3479.29045	0.10079
3478.00468	0.10119
3476.71891	0.10226
3475.43314	0.10357
3474.14737	0.10467
3472.86160	0.10533
3471.57583	0.10557
3470.29006	0.10549
3469.00429	0.10525
3467.71853	0.10509
3466.43276	0.10522
3465.14699	0.10563
3463.86122	0.10612
3462.57545	0.10653
3461.28968	0.10685
3460.00391	0.10718
3458.71814	0.10762
3457.43238	0.10814
3456.14661	0.10870
3454.86084	0.10923
3453.57507	0.10978
3452.28930	0.11040
3451.00353	0.11104
3449.71776	0.11150
3448.43199	0.11160
3447.14622	0.11143
3445.86046	0.11134
3444.57469	0.11171
3443.28892	0.11248
3442.00315	0.11314
3440.71738	0.11321
3439.43161	0.11272
3438.14584	0.11218
3436.86007	0.11207
3435.57431	0.11243
3434.28854	0.11300
3433.00277	0.11348
3431.71700	0.11376
3430.43123	0.11385
3429.14546	0.11380
3427.85969	0.11363
3426.57392	0.11342
3425.28815	0.11333
3424.00239	0.11349
3422.71662	0.11402
3421.43085	0.11494
3420.14508	0.11614
3418.85931	0.11729
3417.57354	0.11797
3416.28777	0.11800
3415.00200	0.11763
3413.71624	0.11728
3412.43047	0.11710
3411.14470	0.11704
3409.85893	0.11713
3408.57316	0.11760
3407.28739	0.11841
3406.00162	0.11918
3404.71585	0.11948
3403.43008	0.11934
3402.14432	0.11912
3400.85855	0.11919
3399.57278	0.11957
3398.28701	0.12010
3397.00124	0.12064
3395.71547	0.12114
3394.42970	0.12155
3393.14393	0.12181
3391.85817	0.12186
3390.57240	0.12172
3389.28663	0.12151
3388.00086	0.12136
3386.71509	0.12133
3385.42932	0.12144
3384.14355	0.12170
3382.85778	0.12215
3381.57201	0.12279
3380.28625	0.12350
3379.00048	0.12399
3377.71471	0.12389
3376.42894	0.12313
3375.14317	0.12220
3373.85740	0.12175
3372.57163	0.12207
3371.28586	0.12281
3370.00010	0.12338
3368.71433	0.12342
3367.42856	0.12314
3366.14279	0.12299
3364.85702	0.12328
3363.57125	0.12392
3362.28548	0.12461
3360.99971	0.12506
3359.71394	0.12517
3358.42818	0.12499
3357.14241	0.12466
3355.85664	0.12443
3354.57087	0.12448
3353.28510	0.12476
3351.99933	0.12502
3350.71356	0.12501
3349.42779	0.12469
3348.14202	0.12426
3346.85626	0.12401
3345.57049	0.12412
3344.28472	0.12454
3342.99895	0.12503
3341.71318	0.12528
3340.42741	0.12513
3339.14164	0.12463
3337.85587	0.12401
3336.57011	0.12354
3335.28434	0.12342
3333.99857	0.12370
3332.71280	0.12423
3331.42703	0.12470
3330.14126	0.12485
3328.85549	0.12465
3327.56972	0.12429
3326.28395	0.12409
3324.99819	0.12419
3323.71242	0.12448
3322.42665	0.12473
3321.14088	0.12488
3319.85511	0.12506
3318.56934	0.12533
3317.28357	0.12555
3315.99780	0.12557
3314.71204	0.12532
3313.42627	0.12488
3312.14050	0.12432
3310.85473	0.12377
3309.56896	0.12336
3308.28319	0.12321
3306.99742	0.12325
3305.71165	0.12334
3304.42588	0.12341
3303.14012	0.12342
3301.85435	0.12327
3300.56858	0.12290
3299.28281	0.12245
3297.99704	0.12223
3296.71127	0.12243
3295.42550	0.12282
3294.13973	0.12297
3292.85397	0.12273
3291.56820	0.12236
3290.28243	0.12224
3288.99666	0.12246
3287.71089	0.12276
3286.42512	0.12282
3285.13935	0.12256
3283.85358	0.12219
3282.56781	0.12202
3281.28205	0.12211
3279.99628	0.12230
3278.71051	0.12239
3277.42474	0.12232
3276.13897	0.12219
3274.85320	0.12200
3273.56743	0.12172
3272.28166	0.12140
3270.99590	0.12123
3269.71013	0.12139
3268.42436	0.12185
3267.13859	0.12232
3265.85282	0.12247
3264.56705	0.12226
3263.28128	0.12194
3261.99551	0.12172
3260.70974	0.12163
3259.42398	0.12155
3258.13821	0.12143
3256.85244	0.12137
3255.56667	0.12148
3254.28090	0.12177
3252.99513	0.12214
3251.70936	0.12236
3250.42359	0.12215
3249.13783	0.12151
3247.85206	0.12079
3246.56629	0.12039
3245.28052	0.12036
3243.99475	0.12045
3242.70898	0.12043
3241.42321	0.12031
3240.13744	0.12025
3238.85167	0.12040
3237.56591	0.12079
3236.28014	0.12129
3234.99437	0.12156
3233.70860	0.12137
3232.42283	0.12082
3231.13706	0.12028
3229.85129	0.11996
3228.56552	0.11973
3227.27976	0.11933
3225.99399	0.11877
3224.70822	0.11834
3223.42245	0.11828
3222.13668	0.11859
3220.85091	0.11901
3219.56514	0.11925
3218.27937	0.11913
3216.99360	0.11873
3215.70784	0.11821
3214.42207	0.11774
3213.13630	0.11737
3211.85053	0.11711
3210.56476	0.11695
3209.27899	0.11687
3207.99322	0.11684
3206.70745	0.11689
3205.42169	0.11707
3204.13592	0.11735
3202.85015	0.11753
3201.56438	0.11744
3200.27861	0.11709
3198.99284	0.11659
3197.70707	0.11608
3196.42130	0.11569
3195.13553	0.11550
3193.84977	0.11554
3192.56400	0.11565
3191.27823	0.11559
3189.99246	0.11531
3188.70669	0.11497
3187.42092	0.11481
3186.13515	0.11482
3184.84938	0.11480
3183.56362	0.11464
3182.27785	0.11437
3180.99208	0.11402
3179.70631	0.11356
3178.42054	0.11305
3177.13477	0.11265
3175.84900	0.11245
3174.56323	0.11240
3173.27746	0.11239
3171.99170	0.11236
3170.70593	0.11235
3169.42016	0.11233
3168.13439	0.11220
3166.84862	0.11188
3165.56285	0.11140
3164.27708	0.11095
3162.99131	0.11064
3161.70555	0.11044
3160.41978	0.11017
3159.13401	0.10969
3157.84824	0.10907
3156.56247	0.10857
3155.27670	0.10840
3153.99093	0.10856
3152.70516	0.10886
3151.41939	0.10907
3150.13363	0.10910
3148.84786	0.10904
3147.56209	0.10896
3146.27632	0.10887
3144.99055	0.10867
3143.70478	0.10836
3142.41901	0.10800
3141.13324	0.10765
3139.84748	0.10735
3138.56171	0.10711
3137.27594	0.10691
3135.99017	0.10676
3134.70440	0.10658
3133.41863	0.10627
3132.13286	0.10579
3130.84709	0.10524
3129.56132	0.10479
3128.27556	0.10452
3126.98979	0.10440
3125.70402	0.10441
3124.41825	0.10453
3123.13248	0.10470
3121.84671	0.10483
3120.56094	0.10482
3119.27517	0.10465
3117.98940	0.10438
3116.70364	0.10407
3115.41787	0.10377
3114.13210	0.10347
3112.84633	0.10308
3111.56056	0.10255
3110.27479	0.10200
3108.98902	0.10157
3107.70325	0.10136
3106.41749	0.10131
3105.13172	0.10130
3103.84595	0.10127
3102.56018	0.10120
3101.27441	0.10115
3099.98864	0.10105
3098.70287	0.10081
3097.41710	0.10040
3096.13133	0.09997
3094.84557	0.09972
3093.55980	0.09971
3092.27403	0.09978
3090.98826	0.09976
3089.70249	0.09968
3088.41672	0.09964
3087.13095	0.09960
3085.84518	0.09932
3084.55942	0.09866
3083.27365	0.09783
3081.98788	0.09726
3080.70211	0.09714
3079.41634	0.09729
3078.13057	0.09741
3076.84480	0.09732
3075.55903	0.09705
3074.27326	0.09669
3072.98750	0.09632
3071.70173	0.09601
3070.41596	0.09579
3069.13019	0.09568
3067.84442	0.09565
3066.55865	0.09559
3065.27288	0.09544
3063.98711	0.09523
3062.70135	0.09506
3061.41558	0.09497
3060.12981	0.09491
3058.84404	0.09480
3057.55827	0.09464
3056.27250	0.09444
3054.98673	0.09420
3053.70096	0.09389
3052.41519	0.09357
3051.12943	0.09330
3049.84366	0.09308
3048.55789	0.09281
3047.27212	0.09245
3045.98635	0.09209
3044.70058	0.09184
3043.41481	0.09171
3042.12904	0.09159
3040.84328	0.09137
3039.55751	0.09101
3038.27174	0.09056
3036.98597	0.09015
3035.70020	0.08987
3034.41443	0.08976
3033.12866	0.08976
3031.84289	0.08971
3030.55712	0.08954
3029.27136	0.08925
3027.98559	0.08886
3026.69982	0.08839
3025.41405	0.08791
3024.12828	0.08749
3022.84251	0.08715
3021.55674	0.08683
3020.27097	0.08652
3018.98521	0.08630
3017.69944	0.08621
3016.41367	0.08622
3015.12790	0.08620
3013.84213	0.08608
3012.55636	0.08587
3011.27059	0.08563
3009.98482	0.08542
3008.69905	0.08529
3007.41329	0.08518
3006.12752	0.08504
3004.84175	0.08488
3003.55598	0.08480
3002.27021	0.08485
3000.98444	0.08488
2999.69867	0.08473
2998.41290	0.08439
2997.12714	0.08414
2995.84137	0.08415
2994.55560	0.08433
2993.26983	0.08448
2991.98406	0.08450
2990.69829	0.08443
2989.41252	0.08435
2988.12675	0.08435
2986.84098	0.08455
2985.55522	0.08501
2984.26945	0.08571
2982.98368	0.08654
2981.69791	0.08751
2980.41214	0.08874
2979.12637	0.09026
2977.84060	0.09192
2976.55483	0.09358
2975.26907	0.09532
2973.98330	0.09747
2972.69753	0.10037
2971.41176	0.10409
2970.12599	0.10840
2968.84022	0.11293
2967.55445	0.11732
2966.26868	0.12132
2964.98291	0.12478
2963.69715	0.12755
2962.41138	0.12940
2961.12561	0.13012
2959.83984	0.12967
2958.55407	0.12832
2957.26830	0.12654
2955.98253	0.12473
2954.69676	0.12299
2953.41100	0.12124
2952.12523	0.11943
2950.83946	0.11764
2949.55369	0.11593
2948.26792	0.11436
2946.98215	0.11298
2945.69638	0.11185
2944.41061	0.11097
2943.12484	0.11033
2941.83908	0.10992
2940.55331	0.10966
2939.26754	0.10955
2937.98177	0.10972
2936.69600	0.11028
2935.41023	0.11111
2934.12446	0.11190
2932.83869	0.11242
2931.55293	0.11270
2930.26716	0.11296
2928.98139	0.11335
2927.69562	0.11380
2926.40985	0.11413
2925.12408	0.11422
2923.83831	0.11399
2922.55254	0.11347
2921.26677	0.11271
2919.98101	0.11178
2918.69524	0.11074
2917.40947	0.10973
2916.12370	0.10893
2914.83793	0.10842
2913.55216	0.10811
2912.26639	0.10781
2910.98062	0.10738
2909.69486	0.10681
2908.40909	0.10612
2907.12332	0.10540
2905.83755	0.10472
2904.55178	0.10405
2903.26601	0.10321
2901.98024	0.10207
2900.69447	0.10072
2899.40870	0.09939
2898.12294	0.09818
2896.83717	0.09700
2895.55140	0.09577
2894.26563	0.09456
2892.97986	0.09345
2891.69409	0.09243
2890.40832	0.09141
2889.12255	0.09041
2887.83678	0.08954
2886.55102	0.08887
2885.26525	0.08833
2883.97948	0.08780
2882.69371	0.08733
2881.40794	0.08705
2880.12217	0.08703
2878.83640	0.08715
2877.55063	0.08729
2876.26487	0.08752
2874.97910	0.08793
2873.69333	0.08846
2872.40756	0.08893
2871.12179	0.08922
2869.83602	0.08933
2868.55025	0.08930
2867.26448	0.08914
2865.97871	0.08885
2864.69295	0.08848
2863.40718	0.08814
2862.12141	0.08791
2860.83564	0.08777
2859.54987	0.08770
2858.26410	0.08766
2856.97833	0.08761
2855.69256	0.08739
2854.40680	0.08693
2853.12103	0.08632
2851.83526	0.08575
2850.54949	0.08517
2849.26372	0.08439
2847.97795	0.08332
2846.69218	0.08213
2845.40641	0.08101
2844.12064	0.07995
2842.83488	0.07885
2841.54911	0.07763
2840.26334	0.07633
2838.97757	0.07507
2837.69180	0.07392
2836.40603	0.07294
2835.12026	0.07205
2833.83449	0.07111
2832.54873	0.07014
2831.26296	0.06931
2829.97719	0.06869
2828.69142	0.06820
2827.40565	0.06767
2826.11988	0.06711
2824.83411	0.06657
2823.54834	0.06611
2822.26257	0.06569
2820.97681	0.06531
2819.69104	0.06492
2818.40527	0.06451
2817.11950	0.06407
2815.83373	0.06365
2814.54796	0.06331
2813.26219	0.06311
2811.97642	0.06303
2810.69066	0.06299
2809.40489	0.06289
2808.11912	0.06263
2806.83335	0.06222
2805.54758	0.06176
2804.26181	0.06132
2802.97604	0.06088
2801.69027	0.06039
2800.40450	0.05990
2799.11874	0.05954
2797.83297	0.05937
2796.54720	0.05929
2795.26143	0.05917
2793.97566	0.05901
2792.68989	0.05888
2791.40412	0.05882
2790.11835	0.05876
2788.83259	0.05853
2787.54682	0.05805
2786.26105	0.05742
2784.97528	0.05689
2783.68951	0.05665
2782.40374	0.05667
2781.11797	0.05679
2779.83220	0.05688
2778.54643	0.05685
2777.26067	0.05660
2775.97490	0.05611
2774.68913	0.05547
2773.40336	0.05490
2772.11759	0.05453
2770.83182	0.05441
2769.54605	0.05448
2768.26028	0.05465
2766.97452	0.05482
2765.68875	0.05496
2764.40298	0.05502
2763.11721	0.05495
2761.83144	0.05470
2760.54567	0.05426
2759.25990	0.05377
2757.97413	0.05337
2756.68836	0.05311
2755.40260	0.05295
2754.11683	0.05283
2752.83106	0.05275
2751.54529	0.05266
2750.25952	0.05255
2748.97375	0.05240
2747.68798	0.05225
2746.40221	0.05209
2745.11645	0.05193
2743.83068	0.05180
2742.54491	0.05170
2741.25914	0.05155
2739.97337	0.05136
2738.68760	0.05121
2737.40183	0.05117
2736.11606	0.05115
2734.83029	0.05108
2733.54453	0.05100
2732.25876	0.05101
2730.97299	0.05108
2729.68722	0.05112
2728.40145	0.05107
2727.11568	0.05098
2725.82991	0.05083
2724.54414	0.05056
2723.25838	0.05016
2721.97261	0.04974
2720.68684	0.04944
2719.40107	0.04928
2718.11530	0.04920
2716.82953	0.04915
2715.54376	0.04905
2714.25799	0.04888
2712.97222	0.04865
2711.68646	0.04843
2710.40069	0.04827
2709.11492	0.04818
2707.82915	0.04813
2706.54338	0.04808
2705.25761	0.04808
2703.97184	0.04811
2702.68607	0.04807
2701.40031	0.04785
2700.11454	0.04746
2698.82877	0.04707
2697.54300	0.04687
2696.25723	0.04693
2694.97146	0.04714
2693.68569	0.04729
2692.39992	0.04726
2691.11415	0.04703
2689.82839	0.04667
2688.54262	0.04631
2687.25685	0.04608
2685.97108	0.04598
2684.68531	0.04590
2683.39954	0.04573
2682.11377	0.04548
2680.82800	0.04523
2679.54224	0.04507
2678.25647	0.04497
2676.97070	0.04484
2675.68493	0.04467
2674.39916	0.04453
2673.11339	0.04458
2671.82762	0.04484
2670.54185	0.04521
2669.25608	0.04550
2667.97032	0.04557
2666.68455	0.04541
2665.39878	0.04511
2664.11301	0.04480
2662.82724	0.04462
2661.54147	0.04459
2660.25570	0.04464
2658.96993	0.04462
2657.68417	0.04446
2656.39840	0.04418
2655.11263	0.04392
2653.82686	0.04376
2652.54109	0.04369
2651.25532	0.04364
2649.96955	0.04354
2648.68378	0.04338
2647.39801	0.04314
2646.11225	0.04282
2644.82648	0.04240
2643.54071	0.04194
2642.25494	0.04158
2640.96917	0.04143
2639.68340	0.04143
2638.39763	0.04143
2637.11186	0.04138
2635.82609	0.04129
2634.54033	0.04113
2633.25456	0.04085
2631.96879	0.04051
2630.68302	0.04024
2629.39725	0.04014
2628.11148	0.04015
2626.82571	0.04008
2625.53994	0.03978
2624.25418	0.03930
2622.96841	0.03884
2621.68264	0.03854
2620.39687	0.03843
2619.11110	0.03844
2617.82533	0.03852
2616.53956	0.03862
2615.25379	0.03860
2613.96802	0.03836
2612.68226	0.03795
2611.39649	0.03756
2610.11072	0.03735
2608.82495	0.03733
2607.53918	0.03741
2606.25341	0.03745
2604.96764	0.03735
2603.68187	0.03703
2602.39611	0.03649
2601.11034	0.03587
2599.82457	0.03537
2598.53880	0.03518
2597.25303	0.03534
2595.96726	0.03572
2594.68149	0.03603
2593.39572	0.03599
2592.10995	0.03558
2590.82419	0.03502
2589.53842	0.03459
2588.25265	0.03438
2586.96688	0.03438
2585.68111	0.03459
2584.39534	0.03495
2583.10957	0.03532
2581.82380	0.03557
2580.53804	0.03572
2579.25227	0.03574
2577.96650	0.03547
2576.68073	0.03479
2575.39496	0.03390
2574.10919	0.03324
2572.82342	0.03315
2571.53765	0.03348
2570.25188	0.03379
2568.96612	0.03373
2567.68035	0.03331
2566.39458	0.03281
2565.10881	0.03247
2563.82304	0.03237
2562.53727	0.03249
2561.25150	0.03273
2559.96573	0.03286
2558.67997	0.03280
2557.39420	0.03271
2556.10843	0.03282
2554.82266	0.03300
2553.53689	0.03287
2552.25112	0.03242
2550.96535	0.03209
2549.67958	0.03220
2548.39381	0.03246
2547.10805	0.03244
2545.82228	0.03216
2544.53651	0.03195
2543.25074	0.03196
2541.96497	0.03206
2540.67920	0.03214
2539.39343	0.03221
2538.10766	0.03214
2536.82190	0.03174
2535.53613	0.03101
2534.25036	0.03029
2532.96459	0.02993
2531.67882	0.03000
2530.39305	0.03028
2529.10728	0.03053
2527.82151	0.03064
2526.53574	0.03062
2525.24998	0.03056
2523.96421	0.03054
2522.67844	0.03058
2521.39267	0.03058
2520.10690	0.03042
2518.82113	0.03011
2517.53536	0.02971
2516.24959	0.02929
2514.96383	0.02893
2513.67806	0.02872
2512.39229	0.02870
2511.10652	0.02883
2509.82075	0.02914
2508.53498	0.02957
2507.24921	0.02986
2505.96344	0.02975
2504.67767	0.02933
2503.39191	0.02901
2502.10614	0.02909
2500.82037	0.02952
2499.53460	0.02996
2498.24883	0.03013
2496.96306	0.02992
2495.67729	0.02944
2494.39152	0.02893
2493.10576	0.02868
2491.81999	0.02879
2490.53422	0.02905
2489.24845	0.02923
2487.96268	0.02936
2486.67691	0.02958
2485.39114	0.02983
2484.10537	0.02987
2482.81960	0.02964
2481.53384	0.02938
2480.24807	0.02930
2478.96230	0.02936
2477.67653	0.02946
2476.39076	0.02962
2475.10499	0.02982
2473.81922	0.02988
2472.53345	0.02958
2471.24769	0.02894
2469.96192	0.02824
2468.67615	0.02776
2467.39038	0.02761
2466.10461	0.02774
2464.81884	0.02805
2463.53307	0.02839
2462.24730	0.02865
2460.96153	0.02880
2459.67577	0.02891
2458.39000	0.02899
2457.10423	0.02895
2455.81846	0.02874
2454.53269	0.02849
2453.24692	0.02847
2451.96115	0.02873
2450.67538	0.02896
2449.38962	0.02886
2448.10385	0.02846
2446.81808	0.02810
2445.53231	0.02802
2444.24654	0.02813
2442.96077	0.02829
2441.67500	0.02846
2440.38923	0.02865
2439.10346	0.02871
2437.81770	0.02851
2436.53193	0.02813
2435.24616	0.02779
2433.96039	0.02764
2432.67462	0.02766
2431.38885	0.02773
2430.10308	0.02776
2428.81731	0.02767
2427.53155	0.02748
2426.24578	0.02732
2424.96001	0.02723
2423.67424	0.02708
2422.38847	0.02681
2421.10270	0.02659
2419.81693	0.02669
2418.53116	0.02708
2417.24539	0.02751
2415.95963	0.02772
2414.67386	0.02776
2413.38809	0.02773
2412.10232	0.02767
2410.81655	0.02748
2409.53078	0.02713
2408.24501	0.02676
2406.95924	0.02650
2405.67347	0.02638
2404.38771	0.02633
2403.10194	0.02639
2401.81617	0.02674
2400.53040	0.02736
2399.24463	0.02779
2397.95886	0.02786
2396.67309	0.02760
2395.38732	0.02715
2394.10156	0.02674
2392.81579	0.02648
2391.53002	0.02639
2390.24425	0.02640
2388.95848	0.02642
2387.67271	0.02636
2386.38694	0.02621
2385.10117	0.02601
2383.81540	0.02585
2382.52964	0.02582
2381.24387	0.02593
2379.95810	0.02624
2378.67233	0.02665
2377.38656	0.02704
2376.10079	0.02741
2374.81502	0.02752
2373.52925	0.02700
2372.24349	0.02582
2370.95772	0.02403
2369.67195	0.02217
2368.38618	0.02053
2367.10041	0.01918
2365.81464	0.01885
2364.52887	0.02019
2363.24310	0.02228
2361.95733	0.02359
2360.67157	0.02371
2359.38580	0.02342
2358.10003	0.02313
2356.81426	0.02307
2355.52849	0.02353
2354.24272	0.02439
2352.95695	0.02541
2351.67118	0.02582
2350.38542	0.02507
2349.09965	0.02440
2347.81388	0.02522
2346.52811	0.02645
2345.24234	0.02650
2343.95657	0.02568
2342.67080	0.02525
2341.38503	0.02526
2340.09926	0.02518
2338.81350	0.02498
2337.52773	0.02460
2336.24196	0.02431
2334.95619	0.02406
2333.67042	0.02384
2332.38465	0.02413
2331.09888	0.02468
2329.81311	0.02511
2328.52735	0.02557
2327.24158	0.02584
2325.95581	0.02590
2324.67004	0.02605
2323.38427	0.02608
2322.09850	0.02596
2320.81273	0.02597
2319.52696	0.02590
2318.24119	0.02560
2316.95543	0.02533
2315.66966	0.02521
2314.38389	0.02515
2313.09812	0.02501
2311.81235	0.02493
2310.52658	0.02508
2309.24081	0.02542
2307.95504	0.02578
2306.66928	0.02599
2305.38351	0.02593
2304.09774	0.02572
2302.81197	0.02556
2301.52620	0.02548
2300.24043	0.02545
2298.95466	0.02547
2297.66889	0.02551
2296.38312	0.02555
2295.09736	0.02559
2293.81159	0.02566
2292.52582	0.02575
2291.24005	0.02584
2289.95428	0.02590
2288.66851	0.02590
2287.38274	0.02585
2286.09697	0.02571
2284.81121	0.02544
2283.52544	0.02502
2282.23967	0.02445
2280.95390	0.02377
2279.66813	0.02312
2278.38236	0.02267
2277.09659	0.02247
2275.81082	0.02237
2274.52505	0.02219
2273.23929	0.02197
2271.95352	0.02182
2270.66775	0.02174
2269.38198	0.02156
2268.09621	0.02122
2266.81044	0.02084
2265.52467	0.02070
2264.23890	0.02095
2262.95314	0.02156
2261.66737	0.02235
2260.38160	0.02304
2259.09583	0.02342
2257.81006	0.02344
2256.52429	0.02309
2255.23852	0.02238
2253.95275	0.02138
2252.66698	0.02038
2251.38122	0.01973
2250.09545	0.01949
2248.80968	0.01944
2247.52391	0.01942
2246.23814	0.01960
2244.95237	0.02001
2243.66660	0.02021
2242.38083	0.01978
2241.09507	0.01902
2239.80930	0.01861
2238.52353	0.01891
2237.23776	0.01966
2235.95199	0.02035
2234.66622	0.02061
2233.38045	0.02023
2232.09468	0.01916
2230.80891	0.01762
2229.52315	0.01617
2228.23738	0.01546
2226.95161	0.01580
2225.66584	0.01702
2224.38007	0.01861
2223.09430	0.01998
2221.80853	0.02070
2220.52276	0.02056
2219.23700	0.01963
2217.95123	0.01827
2216.66546	0.01704
2215.37969	0.01640
2214.09392	0.01642
2212.80815	0.01674
2211.52238	0.01688
2210.23661	0.01659
2208.95084	0.01607
2207.66508	0.01585
2206.37931	0.01630
2205.09354	0.01712
2203.80777	0.01750
2202.52200	0.01690
2201.23623	0.01556
2199.95046	0.01418
2198.66469	0.01330
2197.37893	0.01294
2196.09316	0.01285
2194.80739	0.01285
2193.52162	0.01290
2192.23585	0.01306
2190.95008	0.01330
2189.66431	0.01360
2188.37854	0.01400
2187.09277	0.01449
2185.80701	0.01482
2184.52124	0.01479
2183.23547	0.01446
2181.94970	0.01399
2180.66393	0.01337
2179.37816	0.01235
2178.09239	0.01079
2176.80662	0.00915
2175.52085	0.00845
2174.23509	0.00937
2172.94932	0.01132
2171.66355	0.01282
2170.37778	0.01292
2169.09201	0.01210
2167.80624	0.01131
2166.52047	0.01059
2165.23470	0.00925
2163.94894	0.00698
2162.66317	0.00448
2161.37740	0.00271
2160.09163	0.00230
2158.80586	0.00329
2157.52009	0.00516
2156.23432	0.00703
2154.94855	0.00834
2153.66278	0.00919
2152.37702	0.00990
2151.09125	0.01037
2149.80548	0.01018
2148.51971	0.00936
2147.23394	0.00849
2145.94817	0.00804
2144.66240	0.00800
2143.37663	0.00820
2142.09087	0.00859
2140.80510	0.00913
2139.51933	0.00968
2138.23356	0.01017
2136.94779	0.01063
2135.66202	0.01111
2134.37625	0.01172
2133.09048	0.01260
2131.80471	0.01367
2130.51895	0.01458
2129.23318	0.01508
2127.94741	0.01526
2126.66164	0.01535
2125.37587	0.01536
2124.09010	0.01522
2122.80433	0.01502
2121.51856	0.01489
2120.23280	0.01484
2118.94703	0.01486
2117.66126	0.01503
2116.37549	0.01535
2115.08972	0.01558
2113.80395	0.01562
2112.51818	0.01567
2111.23241	0.01586
2109.94664	0.01593
2108.66088	0.01550
2107.37511	0.01470
2106.08934	0.01407
2104.80357	0.01396
2103.51780	0.01422
2102.23203	0.01452
2100.94626	0.01475
2099.66049	0.01552
2098.37473	0.01574
2097.08896	0.01536
2095.80319	0.01468
2094.51742	0.01401
2093.23165	0.01362
2091.94588	0.01371
2090.66011	0.01416
2089.37434	0.01460
2088.08857	0.01472
2086.80281	0.01448
2085.51704	0.01409
2084.23127	0.01377
2082.94550	0.01366
2081.65973	0.01380
2080.37396	0.01410
2079.08819	0.01430
2077.80242	0.01417
2076.51666	0.01381
2075.23089	0.01353
2073.94512	0.01356
2072.65935	0.01372
2071.37358	0.01365
2070.08781	0.01318
2068.80204	0.01254
2067.51627	0.01206
2066.23050	0.01186
2064.94474	0.01169
2063.65897	0.01135
2062.37320	0.01091
2061.08743	0.01068
2059.80166	0.01090
2058.51589	0.01139
2057.23012	0.01177
2055.94435	0.01175
2054.65859	0.01135
2053.37282	0.01080
2052.08705	0.01022
2050.80128	0.00961
2049.51551	0.00900
2048.22974	0.00851
2046.94397	0.00822
2045.65820	0.00810
2044.37243	0.00811
2043.08667	0.00819
2041.80090	0.00818
2040.51513	0.00794
2039.22936	0.00755
2037.94359	0.00726
2036.65782	0.00717
2035.37205	0.00712
2034.08628	0.00703
2032.80052	0.00705
2031.51475	0.00726
2030.22898	0.00749
2028.94321	0.00759
2027.65744	0.00763
2026.37167	0.00766
2025.08590	0.00740
2023.80013	0.00651
2022.51436	0.00522
2021.22860	0.00433
2019.94283	0.00456
2018.65706	0.00590
2017.37129	0.00764
2016.08552	0.00899
2014.79975	0.00954
2013.51398	0.00930
2012.22821	0.00861
2010.94245	0.00793
2009.65668	0.00775
2008.37091	0.00822
2007.08514	0.00897
2005.79937	0.00944
2004.51360	0.00944
2003.22783	0.00935
2001.94206	0.00965
2000.65629	0.01037
1999.37053	0.01110
1998.08476	0.01147
1996.79899	0.01133
1995.51322	0.01074
1994.22745	0.00993
1992.94168	0.00938
1991.65591	0.00950
1990.37014	0.01016
1989.08438	0.01080
1987.79861	0.01106
1986.51284	0.01107
1985.22707	0.01120
1983.94130	0.01166
1982.65553	0.01236
1981.36976	0.01290
1980.08399	0.01278
1978.79822	0.01189
1977.51246	0.01077
1976.22669	0.01011
1974.94092	0.01010
1973.65515	0.01045
1972.36938	0.01090
1971.08361	0.01133
1969.79784	0.01168
1968.51207	0.01187
1967.22631	0.01191
1965.94054	0.01180
1964.65477	0.01143
1963.36900	0.01076
1962.08323	0.01000
1960.79746	0.00953
1959.51169	0.00964
1958.22592	0.01036
1956.94015	0.01141
1955.65439	0.01243
1954.36862	0.01315
1953.08285	0.01358
1951.79708	0.01380
1950.51131	0.01380
1949.22554	0.01352
1947.93977	0.01305
1946.65400	0.01258
1945.36823	0.01228
1944.08247	0.01221
1942.79670	0.01246
1941.51093	0.01302
1940.22516	0.01368
1938.93939	0.01412
1937.65362	0.01419
1936.36785	0.01399
1935.08208	0.01376
1933.79632	0.01373
1932.51055	0.01401
1931.22478	0.01447
1929.93901	0.01478
1928.65324	0.01471
1927.36747	0.01430
1926.08170	0.01383
1924.79593	0.01364
1923.51016	0.01385
1922.22440	0.01432
1920.93863	0.01478
1919.65286	0.01509
1918.36709	0.01530
1917.08132	0.01548
1915.79555	0.01551
1914.50978	0.01531
1913.22401	0.01505
1911.93825	0.01493
1910.65248	0.01492
1909.36671	0.01486
1908.08094	0.01468
1906.79517	0.01450
1905.50940	0.01444
1904.22363	0.01453
1902.93786	0.01467
1901.65209	0.01474
1900.36633	0.01473
1899.08056	0.01473
1897.79479	0.01482
1896.50902	0.01496
1895.22325	0.01498
1893.93748	0.01479
1892.65171	0.01444
1891.36594	0.01411
1890.08018	0.01398
1888.79441	0.01407
1887.50864	0.01429
1886.22287	0.01455
1884.93710	0.01481
1883.65133	0.01502
1882.36556	0.01508
1881.07979	0.01497
1879.79402	0.01479
1878.50826	0.01468
1877.22249	0.01462
1875.93672	0.01450
1874.65095	0.01433
1873.36518	0.01423
1872.07941	0.01432
1870.79364	0.01453
1869.50787	0.01470
1868.22211	0.01474
1866.93634	0.01465
1865.65057	0.01454
1864.36480	0.01456
1863.07903	0.01472
1861.79326	0.01496
1860.50749	0.01516
1859.22172	0.01522
1857.93595	0.01519
1856.65019	0.01517
1855.36442	0.01525
1854.07865	0.01540
1852.79288	0.01553
1851.50711	0.01560
1850.22134	0.01560
1848.93557	0.01559
1847.64980	0.01562
1846.36404	0.01564
1845.07827	0.01564
1843.79250	0.01567
1842.50673	0.01570
1841.22096	0.01564
1839.93519	0.01551
1838.64942	0.01540
1837.36365	0.01542
1836.07788	0.01558
1834.79212	0.01583
1833.50635	0.01609
1832.22058	0.01625
1830.93481	0.01626
1829.64904	0.01620
1828.36327	0.01618
1827.07750	0.01617
1825.79173	0.01617
1824.50597	0.01619
1823.22020	0.01622
1821.93443	0.01620
1820.64866	0.01611
1819.36289	0.01596
1818.07712	0.01583
1816.79135	0.01580
1815.50558	0.01587
1814.21981	0.01600
1812.93405	0.01612
1811.64828	0.01619
1810.36251	0.01624
1809.07674	0.01627
1807.79097	0.01627
1806.50520	0.01628
1805.21943	0.01635
1803.93366	0.01647
1802.64790	0.01659
1801.36213	0.01667
1800.07636	0.01673
1798.79059	0.01687
1797.50482	0.01714
1796.21905	0.01750
1794.93328	0.01777
1793.64751	0.01780
1792.36174	0.01766
1791.07598	0.01751
1789.79021	0.01746
1788.50444	0.01752
1787.21867	0.01764
1785.93290	0.01776
1784.64713	0.01781
1783.36136	0.01781
1782.07559	0.01781
1780.78983	0.01787
1779.50406	0.01803
1778.21829	0.01823
1776.93252	0.01842
1775.64675	0.01859
1774.36098	0.01875
1773.07521	0.01897
1771.78944	0.01932
1770.50367	0.01963
1769.21791	0.01971
1767.93214	0.01959
1766.64637	0.01947
1765.36060	0.01944
1764.07483	0.01946
1762.78906	0.01955
1761.50329	0.01975
1760.21752	0.01998
1758.93176	0.02012
1757.64599	0.02016
1756.36022	0.02023
1755.07445	0.02036
1753.78868	0.02050
1752.50291	0.02064
1751.21714	0.02084
1749.93137	0.02111
1748.64560	0.02132
1747.35984	0.02141
1746.07407	0.02145
1744.78830	0.02151
1743.50253	0.02157
1742.21676	0.02163
1740.93099	0.02170
1739.64522	0.02188
1738.35945	0.02224
1737.07369	0.02265
1735.78792	0.02296
1734.50215	0.02324
1733.21638	0.02354
1731.93061	0.02374
1730.64484	0.02368
1729.35907	0.02351
1728.07330	0.02348
1726.78753	0.02360
1725.50177	0.02379
1724.21600	0.02402
1722.93023	0.02436
1721.64446	0.02485
1720.35869	0.02536
1719.07292	0.02582
1717.78715	0.02624
1716.50138	0.02667
1715.21561	0.02703
1713.92985	0.02731
1712.64408	0.02758
1711.35831	0.02793
1710.07254	0.02836
1708.78677	0.02880
1707.50100	0.02924
1706.21523	0.02974
1704.92946	0.03043
1703.64370	0.03125
1702.35793	0.03195
1701.07216	0.03253
1699.78639	0.03317
1698.50062	0.03379
1697.21485	0.03411
1695.92908	0.03422
1694.64331	0.03446
1693.35754	0.03478
1692.07178	0.03499
1690.78601	0.03520
1689.50024	0.03565
1688.21447	0.03632
1686.92870	0.03696
1685.64293	0.03743
1684.35716	0.03789
1683.07139	0.03844
1681.78563	0.03891
1680.49986	0.03926
1679.21409	0.03966
1677.92832	0.04018
1676.64255	0.04067
1675.35678	0.04110
1674.07101	0.04155
1672.78524	0.04200
1671.49947	0.04237
1670.21371	0.04271
1668.92794	0.04314
1667.64217	0.04369
1666.35640	0.04427
1665.07063	0.04478
1663.78486	0.04523
1662.49909	0.04565
1661.21332	0.04605
1659.92756	0.04642
1658.64179	0.04686
1657.35602	0.04749
1656.07025	0.04817
1654.78448	0.04867
1653.49871	0.04902
1652.21294	0.04942
1650.92717	0.04980
1649.64140	0.04988
1648.35564	0.04969
1647.06987	0.04953
1645.78410	0.04956
1644.49833	0.04970
1643.21256	0.04979
1641.92679	0.04988
1640.64102	0.05008
1639.35525	0.05038
1638.06949	0.05064
1636.78372	0.05077
1635.49795	0.05090
1634.21218	0.05113
1632.92641	0.05137
1631.64064	0.05149
1630.35487	0.05153
1629.06910	0.05156
1627.78333	0.05165
1626.49757	0.05180
1625.21180	0.05196
1623.92603	0.05209
1622.64026	0.05227
1621.35449	0.05250
1620.06872	0.05274
1618.78295	0.05291
1617.49718	0.05310
1616.21142	0.05340
1614.92565	0.05375
1613.63988	0.05397
1612.35411	0.05405
1611.06834	0.05416
1609.78257	0.05439
1608.49680	0.05471
1607.21103	0.05506
1605.92526	0.05541
1604.63950	0.05572
1603.35373	0.05597
1602.06796	0.05618
1600.78219	0.05639
1599.49642	0.05661
1598.21065	0.05688
1596.92488	0.05722
1595.63911	0.05765
1594.35335	0.05811
1593.06758	0.05856
1591.78181	0.05897
1590.49604	0.05935
1589.21027	0.05974
1587.92450	0.06014
1586.63873	0.06055
1585.35296	0.06095
1584.06719	0.06134
1582.78143	0.06172
1581.49566	0.06214
1580.20989	0.06267
1578.92412	0.06323
1577.63835	0.06370
1576.35258	0.06413
1575.06681	0.06462
1573.78104	0.06511
1572.49528	0.06548
1571.20951	0.06577
1569.92374	0.06614
1568.63797	0.06663
1567.35220	0.06710
1566.06643	0.06745
1564.78066	0.06779
1563.49489	0.06828
1562.20912	0.06888
1560.92336	0.06946
1559.63759	0.07002
1558.35182	0.07061
1557.06605	0.07104
1555.78028	0.07112
1554.49451	0.07098
1553.20874	0.07091
1551.92297	0.07096
1550.63721	0.07104
1549.35144	0.07111
1548.06567	0.07118
1546.77990	0.07121
1545.49413	0.07123
1544.20836	0.07126
1542.92259	0.07120
1541.63682	0.07089
1540.35105	0.07034
1539.06529	0.06976
1537.77952	0.06924
1536.49375	0.06872
1535.20798	0.06814
1533.92221	0.06768
1532.63644	0.06744
1531.35067	0.06738
1530.06490	0.06736
1528.77914	0.06740
1527.49337	0.06757
1526.20760	0.06789
1524.92183	0.06837
1523.63606	0.06891
1522.35029	0.06948
1521.06452	0.07018
1519.77875	0.07101
1518.49298	0.07181
1517.20722	0.07255
1515.92145	0.07340
1514.63568	0.07442
1513.34991	0.07554
1512.06414	0.07677
1510.77837	0.07813
1509.49260	0.07954
1508.20683	0.08090
1506.92107	0.08222
1505.63530	0.08357
1504.34953	0.08483
1503.06376	0.08582
1501.77799	0.08663
1500.49222	0.08750
1499.20645	0.08847
1497.92068	0.08945
1496.63491	0.09035
1495.34915	0.09120
1494.06338	0.09199
1492.77761	0.09271
1491.49184	0.09343
1490.20607	0.09428
1488.92030	0.09526
1487.63453	0.09628
1486.34876	0.09729
1485.06299	0.09832
1483.77723	0.09941
1482.49146	0.10058
1481.20569	0.10185
1479.91992	0.10313
1478.63415	0.10434
1477.34838	0.10549
1476.06261	0.10662
1474.77684	0.10773
1473.49108	0.10878
1472.20531	0.10976
1470.91954	0.11065
1469.63377	0.11138
1468.34800	0.11195
1467.06223	0.11240
1465.77646	0.11281
1464.49069	0.11325
1463.20492	0.11375
1461.91916	0.11432
1460.63339	0.11491
1459.34762	0.11549
1458.06185	0.11604
1456.77608	0.11660
1455.49031	0.11712
1454.20454	0.11741
1452.91877	0.11748
1451.63301	0.11751
1450.34724	0.11764
1449.06147	0.11781
1447.77570	0.11794
1446.48993	0.11798
1445.20416	0.11790
1443.91839	0.11768
1442.63262	0.11733
1441.34685	0.11697
1440.06109	0.11670
1438.77532	0.11656
1437.48955	0.11658
1436.20378	0.11682
1434.91801	0.11724
1433.63224	0.11775
1432.34647	0.11840
1431.06070	0.11933
1429.77494	0.12059
1428.48917	0.12210
1427.20340	0.12373
1425.91763	0.12543
1424.63186	0.12722
1423.34609	0.12914
1422.06032	0.13111
1420.77455	0.13302
1419.48878	0.13483
1418.20302	0.13655
1416.91725	0.13808
1415.63148	0.13930
1414.34571	0.14022
1413.05994	0.14089
1411.77417	0.14134
1410.48840	0.14157
1409.20263	0.14156
1407.91687	0.14120
1406.63110	0.14045
1405.34533	0.13935
1404.05956	0.13803
1402.77379	0.13656
1401.48802	0.13492
1400.20225	0.13307
1398.91648	0.13101
1397.63071	0.12875
1396.34495	0.12627
1395.05918	0.12362
1393.77341	0.12090
1392.48764	0.11815
1391.20187	0.11540
1389.91610	0.11264
1388.63033	0.10991
1387.34456	0.10726
1386.05880	0.10470
1384.77303	0.10219
1383.48726	0.09970
1382.20149	0.09725
1380.91572	0.09485
1379.62995	0.09245
1378.34418	0.09000
1377.05841	0.08745
1375.77264	0.08478
1374.48688	0.08204
1373.20111	0.07927
1371.91534	0.07654
1370.62957	0.07389
1369.34380	0.07135
1368.05803	0.06899
1366.77226	0.06679
1365.48649	0.06471
1364.20073	0.06269
1362.91496	0.06071
1361.62919	0.05879
1360.34342	0.05697
1359.05765	0.05529
1357.77188	0.05380
1356.48611	0.05247
1355.20034	0.05126
1353.91457	0.05011
1352.62881	0.04896
1351.34304	0.04782
1350.05727	0.04670
1348.77150	0.04562
1347.48573	0.04460
1346.19996	0.04363
1344.91419	0.04274
1343.62842	0.04195
1342.34266	0.04124
1341.05689	0.04059
1339.77112	0.03999
1338.48535	0.03943
1337.19958	0.03886
1335.91381	0.03825
1334.62804	0.03761
1333.34227	0.03698
1332.05650	0.03642
1330.77074	0.03597
1329.48497	0.03559
1328.19920	0.03524
1326.91343	0.03491
1325.62766	0.03459
1324.34189	0.03429
1323.05612	0.03400
1321.77035	0.03371
1320.48459	0.03341
1319.19882	0.03312
1317.91305	0.03286
1316.62728	0.03263
1315.34151	0.03240
1314.05574	0.03214
1312.76997	0.03185
1311.48420	0.03156
1310.19843	0.03133
1308.91267	0.03116
1307.62690	0.03103
1306.34113	0.03090
1305.05536	0.03074
1303.76959	0.03052
1302.48382	0.03024
1301.19805	0.02992
1299.91228	0.02963
1298.62652	0.02943
1297.34075	0.02934
1296.05498	0.02930
1294.76921	0.02926
1293.48344	0.02915
1292.19767	0.02901
1290.91190	0.02885
1289.62613	0.02872
1288.34036	0.02862
1287.05460	0.02854
1285.76883	0.02848
1284.48306	0.02845
1283.19729	0.02848
1281.91152	0.02858
1280.62575	0.02875
1279.33998	0.02898
1278.05421	0.02930
1276.76845	0.02976
1275.48268	0.03047
1274.19691	0.03156
1272.91114	0.03324
1271.62537	0.03579
1270.33960	0.03959
1269.05383	0.04498
1267.76806	0.05217
1266.48229	0.06102
1265.19653	0.07088
1263.91076	0.08061
1262.62499	0.08880
1261.33922	0.09414
1260.05345	0.09579
1258.76768	0.09354
1257.48191	0.08789
1256.19614	0.07989
1254.91037	0.07086
1253.62461	0.06204
1252.33884	0.05427
1251.05307	0.04792
1249.76730	0.04298
1248.48153	0.03920
1247.19576	0.03633
1245.90999	0.03412
1244.62422	0.03239
1243.33846	0.03098
1242.05269	0.02980
1240.76692	0.02883
1239.48115	0.02805
1238.19538	0.02747
1236.90961	0.02702
1235.62384	0.02663
1234.33807	0.02623
1233.05230	0.02583
1231.76654	0.02546
1230.48077	0.02512
1229.19500	0.02480
1227.90923	0.02447
1226.62346	0.02414
1225.33769	0.02385
1224.05192	0.02359
1222.76615	0.02338
1221.48039	0.02318
1220.19462	0.02301
1218.90885	0.02285
1217.62308	0.02273
1216.33731	0.02264
1215.05154	0.02256
1213.76577	0.02249
1212.48000	0.02239
1211.19423	0.02227
1209.90847	0.02213
1208.62270	0.02198
1207.33693	0.02185
1206.05116	0.02178
1204.76539	0.02177
1203.47962	0.02181
1202.19385	0.02183
1200.90808	0.02175
1199.62232	0.02157
1198.33655	0.02145
1197.05078	0.02134
1195.76501	0.02128
1194.47924	0.02130
1193.19347	0.02137
1191.90770	0.02142
1190.62193	0.02142
1189.33616	0.02140
1188.05040	0.02141
1186.76463	0.02147
1185.47886	0.02155
1184.19309	0.02163
1182.90732	0.02169
1181.62155	0.02173
1180.33578	0.02177
1179.05001	0.02183
1177.76425	0.02190
1176.47848	0.02197
1175.19271	0.02202
1173.90694	0.02210
1172.62117	0.02226
1171.33540	0.02252
1170.04963	0.02281
1168.76386	0.02309
1167.47809	0.02333
1166.19233	0.02357
1164.90656	0.02387
1163.62079	0.02427
1162.33502	0.02474
1161.04925	0.02522
1159.76348	0.02567
1158.47771	0.02606
1157.19194	0.02642
1155.90618	0.02678
1154.62041	0.02717
1153.33464	0.02760
1152.04887	0.02804
1150.76310	0.02851
1149.47733	0.02906
1148.19156	0.02977
1146.90579	0.03068
1145.62002	0.03172
1144.33426	0.03279
1143.04849	0.03383
1141.76272	0.03485
1140.47695	0.03591
1139.19118	0.03708
1137.90541	0.03839
1136.61964	0.03986
1135.33387	0.04146
1134.04811	0.04320
1132.76234	0.04508
1131.47657	0.04712
1130.19080	0.04938
1128.90503	0.05193
1127.61926	0.05483
1126.33349	0.05803
1125.04772	0.06143
1123.76195	0.06490
1122.47619	0.06839
1121.19042	0.07199
1119.90465	0.07578
1118.61888	0.07975
1117.33311	0.08380
1116.04734	0.08777
1114.76157	0.09164
1113.47580	0.09544
1112.19004	0.09924
1110.90427	0.10307
1109.61850	0.10696
1108.33273	0.11095
1107.04696	0.11502
1105.76119	0.11908
1104.47542	0.12306
1103.18965	0.12696
1101.90388	0.13080
1100.61812	0.13452
1099.33235	0.13807
1098.04658	0.14144
1096.76081	0.14465
1095.47504	0.14768
1094.18927	0.15047
1092.90350	0.15299
1091.61773	0.15527
1090.33197	0.15737
1089.04620	0.15934
1087.76043	0.16122
1086.47466	0.16302
1085.18889	0.16474
1083.90312	0.16636
1082.61735	0.16792
1081.33158	0.16950
1080.04581	0.17122
1078.76005	0.17315
1077.47428	0.17524
1076.18851	0.17744
1074.90274	0.17972
1073.61697	0.18207
1072.33120	0.18448
1071.04543	0.18697
1069.75966	0.18954
1068.47390	0.19222
1067.18813	0.19496
1065.90236	0.19774
1064.61659	0.20059
1063.33082	0.20355
1062.04505	0.20658
1060.75928	0.20961
1059.47351	0.21256
1058.18774	0.21542
1056.90198	0.21822
1055.61621	0.22103
1054.33044	0.22390
1053.04467	0.22688
1051.75890	0.22996
1050.47313	0.23318
1049.18736	0.23652
1047.90159	0.23994
1046.61583	0.24337
1045.33006	0.24681
1044.04429	0.25035
1042.75852	0.25410
1041.47275	0.25813
1040.18698	0.26236
1038.90121	0.26664
1037.61544	0.27086
1036.32967	0.27504
1035.04391	0.27920
1033.75814	0.28329
1032.47237	0.28725
1031.18660	0.29104
1029.90083	0.29464
1028.61506	0.29807
1027.32929	0.30131
1026.04352	0.30428
1024.75775	0.30693
1023.47199	0.30924
1022.18622	0.31126
1020.90045	0.31298
1019.61468	0.31440
1018.32891	0.31551
1017.04314	0.31630
1015.75737	0.31675
1014.47160	0.31678
1013.18584	0.31628
1011.90007	0.31525
1010.61430	0.31371
1009.32853	0.31170
1008.04276	0.30921
1006.75699	0.30625
1005.47122	0.30279
1004.18545	0.29881
1002.89968	0.29432
1001.61392	0.28937
1000.32815	0.28407
999.04238	0.27846
997.75661	0.27258
996.47084	0.26648
995.18507	0.26020
993.89930	0.25379
992.61353	0.24732
991.32777	0.24085
990.04200	0.23442
988.75623	0.22805
987.47046	0.22174
986.18469	0.21557
984.89892	0.20964
983.61315	0.20397
982.32738	0.19851
981.04161	0.19316
979.75585	0.18792
978.47008	0.18290
977.18431	0.17823
975.89854	0.17390
974.61277	0.16987
973.32700	0.16614
972.04123	0.16287
970.75546	0.16028
969.46970	0.15846
968.18393	0.15735
966.89816	0.15680
965.61239	0.15670
964.32662	0.15691
963.04085	0.15720
961.75508	0.15728
960.46931	0.15690
959.18354	0.15586
957.89778	0.15409
956.61201	0.15165
955.32624	0.14873
954.04047	0.14556
952.75470	0.14226
951.46893	0.13885
950.18316	0.13539
948.89739	0.13196
947.61163	0.12862
946.32586	0.12538
945.04009	0.12224
943.75432	0.11921
942.46855	0.11630
941.18278	0.11351
939.89701	0.11090
938.61124	0.10848
937.32547	0.10622
936.03971	0.10404
934.75394	0.10183
933.46817	0.09959
932.18240	0.09744
930.89663	0.09548
929.61086	0.09380
928.32509	0.09235
927.03932	0.09101
925.75356	0.08966
924.46779	0.08826
923.18202	0.08686
921.89625	0.08558
920.61048	0.08447
919.32471	0.08352
918.03894	0.08262
916.75317	0.08168
915.46740	0.08065
914.18164	0.07958
912.89587	0.07857
911.61010	0.07770
910.32433	0.07695
909.03856	0.07623
907.75279	0.07551
906.46702	0.07480
905.18125	0.07414
903.89549	0.07349
902.60972	0.07276
901.32395	0.07196
900.03818	0.07119
898.75241	0.07057
897.46664	0.07011
896.18087	0.06969
894.89510	0.06925
893.60933	0.06890
892.32357	0.06875
891.03780	0.06882
889.75203	0.06908
888.46626	0.06954
887.18049	0.07036
885.89472	0.07174
884.60895	0.07387
883.32318	0.07680
882.03742	0.08028
880.75165	0.08377
879.46588	0.08670
878.18011	0.08889
876.89434	0.09073
875.60857	0.09270
874.32280	0.09489
873.03703	0.09687
871.75126	0.09816
870.46550	0.09862
869.17973	0.09839
867.89396	0.09761
866.60819	0.09630
865.32242	0.09449
864.03665	0.09235
862.75088	0.09005
861.46511	0.08771
860.17935	0.08536
858.89358	0.08307
857.60781	0.08089
856.32204	0.07888
855.03627	0.07710
853.75050	0.07557
852.46473	0.07431
851.17896	0.07329
849.89319	0.07250
848.60743	0.07190
847.32166	0.07146
846.03589	0.07115
844.75012	0.07092
843.46435	0.07070
842.17858	0.07043
840.89281	0.07009
839.60704	0.06968
838.32128	0.06924
837.03551	0.06884
835.74974	0.06856
834.46397	0.06851
833.17820	0.06874
831.89243	0.06927
830.60666	0.07017
829.32089	0.07163
828.03512	0.07381
826.74936	0.07677
825.46359	0.08039
824.17782	0.08446
822.89205	0.08868
821.60628	0.09272
820.32051	0.09629
819.03474	0.09931
817.74897	0.10187
816.46321	0.10415
815.17744	0.10629
813.89167	0.10839
812.60590	0.11066
811.32013	0.11328
810.03436	0.11637
808.74859	0.11985
807.46282	0.12353
806.17705	0.12726
804.89129	0.13089
803.60552	0.13425
802.31975	0.13710
801.03398	0.13929
799.74821	0.14078
798.46244	0.14162
797.17667	0.14189
795.89090	0.14162
794.60513	0.14071
793.31937	0.13900
792.03360	0.13639
790.74783	0.13292
789.46206	0.12878
788.17629	0.12420
786.89052	0.11938
785.60475	0.11451
784.31898	0.10976
783.03322	0.10528
781.74745	0.10113
780.46168	0.09732
779.17591	0.09386
777.89014	0.09074
776.60437	0.08794
775.31860	0.08541
774.03283	0.08313
772.74706	0.08112
771.46130	0.07937
770.17553	0.07789
768.88976	0.07659
767.60399	0.07539
766.31822	0.07428
765.03245	0.07326
763.74668	0.07237
762.46091	0.07162
761.17515	0.07102
759.88938	0.07057
758.60361	0.07024
757.31784	0.06995
756.03207	0.06961
754.74630	0.06920
753.46053	0.06876
752.17476	0.06831
750.88899	0.06781
749.60323	0.06726
748.31746	0.06666
747.03169	0.06608
745.74592	0.06556
744.46015	0.06508
743.17438	0.06462
741.88861	0.06416
740.60284	0.06372
739.31708	0.06333
738.03131	0.06298
736.74554	0.06262
735.45977	0.06226
734.17400	0.06195
732.88823	0.06172
731.60246	0.06152
730.31669	0.06127
729.03092	0.06097
727.74516	0.06068
726.45939	0.06042
725.17362	0.06020
723.88785	0.05998
722.60208	0.05976
721.31631	0.05962
720.03054	0.05949
718.74477	0.05935
717.45901	0.05930
716.17324	0.05931
714.88747	0.05934
713.60170	0.05940
712.31593	0.05952
711.03016	0.05973
709.74439	0.06003
708.45862	0.06037
707.17285	0.06068
705.88709	0.06092
704.60132	0.06107
703.31555	0.06112
702.02978	0.06107
700.74401	0.06091
699.45824	0.06064
698.17247	0.06030
696.88670	0.05996
695.60094	0.05965
694.31517	0.05939
693.02940	0.05919
691.74363	0.05903
690.45786	0.05887
689.17209	0.05868
687.88632	0.05844
686.60055	0.05816
685.31478	0.05784
684.02902	0.05751
682.74325	0.05717
681.45748	0.05685
680.17171	0.05657
678.88594	0.05634
677.60017	0.05615
676.31440	0.05595
675.02863	0.05570
673.74287	0.05530
672.45710	0.05466
671.17133	0.05408
669.88556	0.05442
668.59979	0.05571
667.31402	0.05575
666.02825	0.05475
664.74248	0.05443
663.45671	0.05447
662.17095	0.05427
660.88518	0.05382
659.59941	0.05321
658.31364	0.05250
657.02787	0.05171
655.74210	0.05093
654.45633	0.05021
653.17056	0.04962
651.88480	0.04915
650.59903	0.04879
649.31326	0.04855
648.02749	0.04836
646.74172	0.04824
645.45595	0.04816
644.17018	0.04812
642.88441	0.04814
641.59864	0.04825
640.31288	0.04844
639.02711	0.04867
637.74134	0.04890
636.45557	0.04909
635.16980	0.04926
633.88403	0.04945
632.59826	0.04975
631.31249	0.05037
630.02673	0.05141
628.74096	0.05229
627.45519	0.05225
626.16942	0.05413
624.88365	0.05766
623.59788	0.06193
622.31211	0.06601
621.02634	0.06874
619.74057	0.06981
618.45481	0.07021
617.16904	0.07114
615.88327	0.07318
614.59750	0.07632
613.31173	0.08058
612.02596	0.08616
610.74019	0.09310
609.45442	0.10074
608.16866	0.10807
606.88289	0.11461
605.59712	0.12034
604.31135	0.12477
603.02558	0.12707
601.73981	0.12703
600.45404	0.12528
599.16827	0.12273
597.88250	0.11992
596.59674	0.11702
595.31097	0.11406
594.02520	0.11107
592.73943	0.10827
591.45366	0.10592
590.16789	0.10420
588.88212	0.10318
587.59635	0.10285
586.31059	0.10316
585.02482	0.10401
583.73905	0.10530
582.45328	0.10698
581.16751	0.10904
579.88174	0.11146
578.59597	0.11415
577.31020	0.11691
576.02443	0.11954
574.73867	0.12200
573.45290	0.12435
572.16713	0.12680
570.88136	0.12954
569.59559	0.13279
568.30982	0.13665
567.02405	0.14101
565.73828	0.14550
564.45251	0.14956
563.16675	0.15269
561.88098	0.15459
560.59521	0.15515
559.30944	0.15428
558.02367	0.15192
556.73790	0.14814
555.45213	0.14327
554.16636	0.13785
552.88060	0.13240
551.59483	0.12724
550.30906	0.12243
549.02329	0.11794
547.73752	0.11369
546.45175	0.10964
545.16598	0.10583
543.88021	0.10233
542.59444	0.09918
541.30868	0.09631
540.02291	0.09357
538.73714	0.09088
537.45137	0.08827
536.16560	0.08582
534.87983	0.08361
533.59406	0.08167
532.30829	0.07992
531.02253	0.07823
529.73676	0.07654
528.45099	0.07483
527.16522	0.07317
525.87945	0.07162
524.59368	0.07021
523.30791	0.06895
522.02214	0.06781
520.73637	0.06674
519.45061	0.06574
518.16484	0.06472
516.87907	0.06361
515.59330	0.06235
514.30753	0.06102
513.02176	0.05975
511.73599	0.05863
510.45022	0.05770
509.16446	0.05693
507.87869	0.05627
506.59292	0.05566
505.30715	0.05502
504.02138	0.05431
502.73561	0.05355
501.44984	0.05280
500.16407	0.05207
498.87830	0.05138
497.59254	0.05071
496.30677	0.05006
495.02100	0.04947
493.73523	0.04895
492.44946	0.04856
491.16369	0.04827
489.87792	0.04800
488.59215	0.04762
487.30639	0.04715
486.02062	0.04665
484.73485	0.04625
483.44908	0.04597
482.16331	0.04580
480.87754	0.04567
479.59177	0.04556
478.30600	0.04545
477.02023	0.04538
475.73447	0.04538
474.44870	0.04548
473.16293	0.04566
471.87716	0.04581
470.59139	0.04580
469.30562	0.04556
468.01985	0.04518
466.73408	0.04476
465.44832	0.04433
464.16255	0.04384
462.87678	0.04332
461.59101	0.04281
460.30524	0.04234
459.01947	0.04184
457.73370	0.04126
456.44793	0.04064
455.16216	0.04007
453.87640	0.03964
452.59063	0.03932
451.30486	0.03904
450.01909	0.03870
448.73332	0.03829
447.44755	0.03786
446.16178	0.03748
444.87601	0.03720
443.59025	0.03703
442.30448	0.03696
441.01871	0.03691
439.73294	0.03680
438.44717	0.03660
437.16140	0.03637
435.87563	0.03616
434.58986	0.03596
433.30409	0.03575
432.01833	0.03555
430.73256	0.03540
429.44679	0.03531
428.16102	0.03522
426.87525	0.03508
425.58948	0.03488
424.30371	0.03467
423.01794	0.03451
421.73218	0.03442
420.44641	0.03441
419.16064	0.03451
417.87487	0.03472
416.58910	0.03498
415.30333	0.03524
414.01756	0.03556
412.73179	0.03598
411.44602	0.03655
410.16026	0.03725
408.87449	0.03802
407.58872	0.03880
406.30295	0.03952
405.01718	0.04015
403.73141	0.04069
402.44564	0.04113
401.15987	0.04146
399.87411	0.04170
