3997.45528	-0.00068
3996.16951	-0.00120
3994.88374	-0.00169
3993.59798	-0.00185
3992.31221	-0.00136
3991.02644	-0.00038
3989.74067	0.00057
3988.45490	0.00102
3987.16913	0.00087
3985.88336	0.00034
3984.59759	-0.00020
3983.31183	-0.00041
3982.02606	-0.00016
3980.74029	0.00044
3979.45452	0.00108
3978.16875	0.00155
3976.88298	0.00175
3975.59721	0.00164
3974.31144	0.00127
3973.02567	0.00083
3971.73991	0.00067
3970.45414	0.00093
3969.16837	0.00128
3967.88260	0.00121
3966.59683	0.00062
3965.31106	0.00000
3964.02529	-0.00006
3962.73952	0.00057
3961.45376	0.00152
3960.16799	0.00229
3958.88222	0.00256
3957.59645	0.00230
3956.31068	0.00173
3955.02491	0.00121
3953.73914	0.00097
3952.45337	0.00102
3951.16760	0.00123
3949.88184	0.00149
3948.59607	0.00179
3947.31030	0.00206
3946.02453	0.00221
3944.73876	0.00220
3943.45299	0.00210
3942.16722	0.00201
3940.88145	0.00200
3939.59569	0.00201
3938.30992	0.00195
3937.02415	0.00186
3935.73838	0.00184
3934.45261	0.00187
3933.16684	0.00174
3931.88107	0.00135
3930.59530	0.00098
3929.30953	0.00095
3928.02377	0.00131
3926.73800	0.00180
3925.45223	0.00213
3924.16646	0.00224
3922.88069	0.00219
3921.59492	0.00202
3920.30915	0.00169
3919.02338	0.00128
3917.73762	0.00094
3916.45185	0.00083
3915.16608	0.00101
3913.88031	0.00142
3912.59454	0.00196
3911.30877	0.00248
3910.02300	0.00294
3908.73723	0.00334
3907.45146	0.00375
3906.16570	0.00415
3904.87993	0.00443
3903.59416	0.00448
3902.30839	0.00437
3901.02262	0.00422
3899.73685	0.00404
3898.45108	0.00371
3897.16531	0.00328
3895.87955	0.00290
3894.59378	0.00270
3893.30801	0.00264
3892.02224	0.00264
3890.73647	0.00275
3889.45070	0.00304
3888.16493	0.00335
3886.87916	0.00321
3885.59339	0.00240
3884.30763	0.00144
3883.02186	0.00109
3881.73609	0.00150
3880.45032	0.00220
3879.16455	0.00279
3877.87878	0.00325
3876.59301	0.00365
3875.30724	0.00398
3874.02148	0.00431
3872.73571	0.00478
3871.44994	0.00530
3870.16417	0.00551
3868.87840	0.00532
3867.59263	0.00508
3866.30686	0.00496
3865.02109	0.00471
3863.73532	0.00425
3862.44956	0.00394
3861.16379	0.00406
3859.87802	0.00440
3858.59225	0.00456
3857.30648	0.00451
3856.02071	0.00450
3854.73494	0.00472
3853.44917	0.00505
3852.16341	0.00529
3850.87764	0.00532
3849.59187	0.00505
3848.30610	0.00453
3847.02033	0.00403
3845.73456	0.00381
3844.44879	0.00383
3843.16302	0.00391
3841.87725	0.00394
3840.59149	0.00386
3839.30572	0.00349
3838.01995	0.00263
3836.73418	0.00148
3835.44841	0.00068
3834.16264	0.00069
3832.87687	0.00136
3831.59110	0.00228
3830.30534	0.00318
3829.01957	0.00407
3827.73380	0.00491
3826.44803	0.00542
3825.16226	0.00534
3823.87649	0.00471
3822.59072	0.00384
3821.30495	0.00303
3820.01918	0.00254
3818.73342	0.00254
3817.44765	0.00273
3816.16188	0.00256
3814.87611	0.00204
3813.59034	0.00197
3812.30457	0.00285
3811.01880	0.00423
3809.73303	0.00529
3808.44726	0.00562
3807.16150	0.00529
3805.87573	0.00462
3804.58996	0.00405
3803.30419	0.00380
3802.01842	0.00377
3800.73265	0.00388
3799.44688	0.00436
3798.16111	0.00524
3796.87535	0.00602
3795.58958	0.00615
3794.30381	0.00560
3793.01804	0.00481
3791.73227	0.00421
3790.44650	0.00407
3789.16073	0.00443
3787.87496	0.00514
3786.58919	0.00589
3785.30343	0.00631
3784.01766	0.00619
3782.73189	0.00570
3781.44612	0.00522
3780.16035	0.00501
3778.87458	0.00511
3777.58881	0.00535
3776.30304	0.00545
3775.01728	0.00515
3773.73151	0.00449
3772.44574	0.00381
3771.15997	0.00335
3769.87420	0.00305
3768.58843	0.00283
3767.30266	0.00279
3766.01689	0.00289
3764.73112	0.00304
3763.44536	0.00333
3762.15959	0.00398
3760.87382	0.00481
3759.58805	0.00526
3758.30228	0.00502
3757.01651	0.00438
3755.73074	0.00399
3754.44497	0.00414
3753.15921	0.00440
3751.87344	0.00413
3750.58767	0.00335
3749.30190	0.00269
3748.01613	0.00267
3746.73036	0.00312
3745.44459	0.00324
3744.15882	0.00249
3742.87305	0.00144
3741.58729	0.00111
3740.30152	0.00161
3739.01575	0.00210
3737.72998	0.00198
3736.44421	0.00137
3735.15844	0.00090
3733.87267	0.00110
3732.58690	0.00192
3731.30114	0.00287
3730.01537	0.00366
3728.72960	0.00441
3727.44383	0.00515
3726.15806	0.00571
3724.87229	0.00596
3723.58652	0.00587
3722.30075	0.00550
3721.01498	0.00503
3719.72922	0.00475
3718.44345	0.00477
3717.15768	0.00485
3715.87191	0.00473
3714.58614	0.00447
3713.30037	0.00424
3712.01460	0.00406
3710.72883	0.00375
3709.44307	0.00329
3708.15730	0.00294
3706.87153	0.00307
3705.58576	0.00381
3704.29999	0.00491
3703.01422	0.00582
3701.72845	0.00611
3700.44268	0.00581
3699.15691	0.00537
3697.87115	0.00514
3696.58538	0.00514
3695.29961	0.00520
3694.01384	0.00520
3692.72807	0.00509
3691.44230	0.00489
3690.15653	0.00472
3688.87076	0.00454
3687.58500	0.00432
3686.29923	0.00418
3685.01346	0.00415
3683.72769	0.00396
3682.44192	0.00351
3681.15615	0.00312
3679.87038	0.00324
3678.58461	0.00394
3677.29884	0.00474
3676.01308	0.00498
3674.72731	0.00454
3673.44154	0.00407
3672.15577	0.00425
3670.87000	0.00484
3669.58423	0.00515
3668.29846	0.00493
3667.01269	0.00456
3665.72693	0.00445
3664.44116	0.00471
3663.15539	0.00513
3661.86962	0.00543
3660.58385	0.00553
3659.29808	0.00563
3658.01231	0.00588
3656.72654	0.00612
3655.44077	0.00601
3654.15501	0.00566
3652.86924	0.00555
3651.58347	0.00589
3650.29770	0.00641
3649.01193	0.00660
3647.72616	0.00624
3646.44039	0.00546
3645.15462	0.00453
3643.86886	0.00374
3642.58309	0.00328
3641.29732	0.00327
3640.01155	0.00368
3638.72578	0.00434
3637.44001	0.00505
3636.15424	0.00586
3634.86847	0.00684
3633.58270	0.00782
3632.29694	0.00846
3631.01117	0.00866
3629.72540	0.00856
3628.43963	0.00834
3627.15386	0.00827
3625.86809	0.00855
3624.58232	0.00906
3623.29655	0.00952
3622.01079	0.00980
3620.72502	0.00991
3619.43925	0.00989
3618.15348	0.00976
3616.86771	0.00953
3615.58194	0.00923
3614.29617	0.00895
3613.01040	0.00886
3611.72463	0.00909
3610.43887	0.00953
3609.15310	0.00997
3607.86733	0.01036
3606.58156	0.01083
3605.29579	0.01136
3604.01002	0.01164
3602.72425	0.01146
3601.43848	0.01103
3600.15272	0.01081
3598.86695	0.01098
3597.58118	0.01136
3596.29541	0.01162
3595.00964	0.01168
3593.72387	0.01169
3592.43810	0.01181
3591.15233	0.01207
3589.86656	0.01238
3588.58080	0.01252
3587.29503	0.01235
3586.00926	0.01192
3584.72349	0.01144
3583.43772	0.01102
3582.15195	0.01064
3580.86618	0.01038
3579.58041	0.01031
3578.29464	0.01039
3577.00888	0.01051
3575.72311	0.01066
3574.43734	0.01098
3573.15157	0.01152
3571.86580	0.01212
3570.58003	0.01264
3569.29426	0.01301
3568.00849	0.01317
3566.72273	0.01306
3565.43696	0.01274
3564.15119	0.01242
3562.86542	0.01219
3561.57965	0.01201
3560.29388	0.01188
3559.00811	0.01193
3557.72234	0.01227
3556.43657	0.01284
3555.15081	0.01350
3553.86504	0.01407
3552.57927	0.01435
3551.29350	0.01426
3550.00773	0.01405
3548.72196	0.01412
3547.43619	0.01462
3546.15042	0.01533
3544.86466	0.01595
3543.57889	0.01643
3542.29312	0.01678
3541.00735	0.01695
3539.72158	0.01681
3538.43581	0.01641
3537.15004	0.01602
3535.86427	0.01582
3534.57850	0.01585
3533.29274	0.01603
3532.00697	0.01632
3530.72120	0.01664
3529.43543	0.01686
3528.14966	0.01681
3526.86389	0.01649
3525.57812	0.01602
3524.29235	0.01563
3523.00659	0.01548
3521.72082	0.01567
3520.43505	0.01616
3519.14928	0.01683
3517.86351	0.01761
3516.57774	0.01838
3515.29197	0.01899
3514.00620	0.01925
3512.72043	0.01913
3511.43467	0.01877
3510.14890	0.01840
3508.86313	0.01820
3507.57736	0.01815
3506.29159	0.01813
3505.00582	0.01808
3503.72005	0.01808
3502.43428	0.01831
3501.14852	0.01886
3499.86275	0.01956
3498.57698	0.02006
3497.29121	0.01999
3496.00544	0.01935
3494.71967	0.01856
3493.43390	0.01815
3492.14813	0.01838
3490.86236	0.01907
3489.57660	0.01983
3488.29083	0.02035
3487.00506	0.02061
3485.71929	0.02069
3484.43352	0.02064
3483.14775	0.02047
3481.86198	0.02029
3480.57621	0.02021
3479.29045	0.02019
3478.00468	0.02008
3476.71891	0.01979
3475.43314	0.01940
3474.14737	0.01911
3472.86160	0.01909
3471.57583	0.01937
3470.29006	0.01976
3469.00429	0.02008
3467.71853	0.02029
3466.43276	0.02046
3465.14699	0.02067
3463.86122	0.02091
3462.57545	0.02119
3461.28968	0.02152
3460.00391	0.02186
3458.71814	0.02220
3457.43238	0.02251
3456.14661	0.02268
3454.86084	0.02255
3453.57507	0.02201
3452.28930	0.02123
3451.00353	0.02057
3449.71776	0.02027
3448.43199	0.02036
3447.14622	0.02070
3445.86046	0.02109
3444.57469	0.02135
3443.28892	0.02137
3442.00315	0.02122
3440.71738	0.02109
3439.43161	0.02109
3438.14584	0.02109
3436.86007	0.02092
3435.57431	0.02063
3434.28854	0.02052
3433.00277	0.02085
3431.71700	0.02162
3430.43123	0.02256
3429.14546	0.02328
3427.85969	0.02352
3426.57392	0.02329
3425.28815	0.02284
3424.00239	0.02248
3422.71662	0.02240
3421.43085	0.02256
3420.14508	0.02286
3418.85931	0.02312
3417.57354	0.02316
3416.28777	0.02289
3415.00200	0.02241
3413.71624	0.02198
3412.43047	0.02186
3411.14470	0.02212
3409.85893	0.02256
3408.57316	0.02287
3407.28739	0.02284
3406.00162	0.02255
3404.71585	0.02224
3403.43008	0.02222
3402.14432	0.02264
3400.85855	0.02340
3399.57278	0.02415
3398.28701	0.02454
3397.00124	0.02450
3395.71547	0.02422
3394.42970	0.02400
3393.14393	0.02396
3391.85817	0.02400
3390.57240	0.02400
3389.28663	0.02392
3388.00086	0.02380
3386.71509	0.02367
3385.42932	0.02359
3384.14355	0.02374
3382.85778	0.02417
3381.57201	0.02472
3380.28625	0.02499
3379.00048	0.02481
3377.71471	0.02443
3376.42894	0.02430
3375.14317	0.02460
3373.85740	0.02510
3372.57163	0.02540
3371.28586	0.02540
3370.00010	0.02537
3368.71433	0.02551
3367.42856	0.02567
3366.14279	0.02558
3364.85702	0.02522
3363.57125	0.02486
3362.28548	0.02473
3360.99971	0.02483
3359.71394	0.02506
3358.42818	0.02537
3357.14241	0.02570
3355.85664	0.02596
3354.57087	0.02610
3353.28510	0.02620
3351.99933	0.02634
3350.71356	0.02648
3349.42779	0.02646
3348.14202	0.02629
3346.85626	0.02608
3345.57049	0.02596
3344.28472	0.02592
3342.99895	0.02588
3341.71318	0.02580
3340.42741	0.02567
3339.14164	0.02549
3337.85587	0.02523
3336.57011	0.02488
3335.28434	0.02454
3333.99857	0.02439
3332.71280	0.02456
3331.42703	0.02504
3330.14126	0.02558
3328.85549	0.02583
3327.56972	0.02565
3326.28395	0.02532
3324.99819	0.02523
3323.71242	0.02549
3322.42665	0.02589
3321.14088	0.02615
3319.85511	0.02622
3318.56934	0.02618
3317.28357	0.02614
3315.99780	0.02619
3314.71204	0.02640
3313.42627	0.02674
3312.14050	0.02702
3310.85473	0.02705
3309.56896	0.02676
3308.28319	0.02628
3306.99742	0.02590
3305.71165	0.02580
3304.42588	0.02595
3303.14012	0.02613
3301.85435	0.02612
3300.56858	0.02591
3299.28281	0.02567
3297.99704	0.02561
3296.71127	0.02577
3295.42550	0.02601
3294.13973	0.02617
3292.85397	0.02617
3291.56820	0.02610
3290.28243	0.02606
3288.99666	0.02606
3287.71089	0.02595
3286.42512	0.02563
3285.13935	0.02523
3283.85358	0.02497
3282.56781	0.02499
3281.28205	0.02517
3279.99628	0.02530
3278.71051	0.02526
3277.42474	0.02514
3276.13897	0.02509
3274.85320	0.02519
3273.56743	0.02537
3272.28166	0.02550
3270.99590	0.02554
3269.71013	0.02549
3268.42436	0.02532
3267.13859	0.02502
3265.85282	0.02470
3264.56705	0.02452
3263.28128	0.02456
3261.99551	0.02478
3260.70974	0.02506
3259.42398	0.02529
3258.13821	0.02537
3256.85244	0.02530
3255.56667	0.02523
3254.28090	0.02536
3252.99513	0.02578
3251.70936	0.02633
3250.42359	0.02672
3249.13783	0.02673
3247.85206	0.02637
3246.56629	0.02580
3245.28052	0.02531
3243.99475	0.02516
3242.70898	0.02537
3241.42321	0.02568
3240.13744	0.02575
3238.85167	0.02550
3237.56591	0.02516
3236.28014	0.02504
3234.99437	0.02521
3233.70860	0.02547
3232.42283	0.02558
3231.13706	0.02544
3229.85129	0.02512
3228.56552	0.02475
3227.27976	0.02437
3225.99399	0.02412
3224.70822	0.02418
3223.42245	0.02468
3222.13668	0.02544
3220.85091	0.02604
3219.56514	0.02620
3218.27937	0.02597
3216.99360	0.02562
3215.70784	0.02538
3214.42207	0.02530
3213.13630	0.02534
3211.85053	0.02540
3210.56476	0.02538
3209.27899	0.02527
3207.99322	0.02520
3206.70745	0.02527
3205.42169	0.02545
3204.13592	0.02561
3202.85015	0.02564
3201.56438	0.02546
3200.27861	0.02511
3198.99284	0.02473
3197.70707	0.02451
3196.42130	0.02453
3195.13553	0.02471
3193.84977	0.02488
3192.56400	0.02491
3191.27823	0.02486
3189.99246	0.02489
3188.70669	0.02507
3187.42092	0.02526
3186.13515	0.02529
3184.84938	0.02515
3183.56362	0.02500
3182.27785	0.02497
3180.99208	0.02500
3179.70631	0.02494
3178.42054	0.02471
3177.13477	0.02437
3175.84900	0.02406
3174.56323	0.02396
3173.27746	0.02415
3171.99170	0.02458
3170.70593	0.02505
3169.42016	0.02539
3168.13439	0.02552
3166.84862	0.02548
3165.56285	0.02531
3164.27708	0.02503
3162.99131	0.02466
3161.70555	0.02428
3160.41978	0.02399
3159.13401	0.02382
3157.84824	0.02371
3156.56247	0.02359
3155.27670	0.02349
3153.99093	0.02354
3152.70516	0.02385
3151.41939	0.02431
3150.13363	0.02464
3148.84786	0.02458
3147.56209	0.02414
3146.27632	0.02365
3144.99055	0.02339
3143.70478	0.02340
3142.41901	0.02348
3141.13324	0.02348
3139.84748	0.02340
3138.56171	0.02334
3137.27594	0.02334
3135.99017	0.02343
3134.70440	0.02358
3133.41863	0.02366
3132.13286	0.02350
3130.84709	0.02316
3129.56132	0.02292
3128.27556	0.02301
3126.98979	0.02333
3125.70402	0.02359
3124.41825	0.02366
3123.13248	0.02368
3121.84671	0.02382
3120.56094	0.02406
3119.27517	0.02424
3117.98940	0.02425
3116.70364	0.02418
3115.41787	0.02412
3114.13210	0.02403
3112.84633	0.02388
3111.56056	0.02376
3110.27479	0.02383
3108.98902	0.02412
3107.70325	0.02449
3106.41749	0.02480
3105.13172	0.02498
3103.84595	0.02506
3102.56018	0.02503
3101.27441	0.02484
3099.98864	0.02443
3098.70287	0.02385
3097.41710	0.02330
3096.13133	0.02297
3094.84557	0.02291
3093.55980	0.02304
3092.27403	0.02320
3090.98826	0.02330
3089.70249	0.02340
3088.41672	0.02356
3087.13095	0.02375
3085.84518	0.02378
3084.55942	0.02350
3083.27365	0.02305
3081.98788	0.02270
3080.70211	0.02265
3079.41634	0.02283
3078.13057	0.02304
3076.84480	0.02316
3075.55903	0.02322
3074.27326	0.02325
3072.98750	0.02319
3071.70173	0.02308
3070.41596	0.02301
3069.13019	0.02307
3067.84442	0.02316
3066.55865	0.02319
3065.27288	0.02317
3063.98711	0.02326
3062.70135	0.02347
3061.41558	0.02365
3060.12981	0.02364
3058.84404	0.02343
3057.55827	0.02311
3056.27250	0.02283
3054.98673	0.02267
3053.70096	0.02265
3052.41519	0.02272
3051.12943	0.02282
3049.84366	0.02292
3048.55789	0.02302
3047.27212	0.02312
3045.98635	0.02322
3044.70058	0.02327
3043.41481	0.02318
3042.12904	0.02284
3040.84328	0.02229
3039.55751	0.02175
3038.27174	0.02150
3036.98597	0.02162
3035.70020	0.02197
3034.41443	0.02232
3033.12866	0.02253
3031.84289	0.02256
3030.55712	0.02242
3029.27136	0.02223
3027.98559	0.02215
3026.69982	0.02229
3025.41405	0.02258
3024.12828	0.02280
3022.84251	0.02280
3021.55674	0.02264
3020.27097	0.02250
3018.98521	0.02254
3017.69944	0.02266
3016.41367	0.02266
3015.12790	0.02245
3013.84213	0.02209
3012.55636	0.02178
3011.27059	0.02164
3009.98482	0.02169
3008.69905	0.02189
3007.41329	0.02224
3006.12752	0.02266
3004.84175	0.02299
3003.55598	0.02307
3002.27021	0.02290
3000.98444	0.02256
2999.69867	0.02216
2998.41290	0.02185
2997.12714	0.02165
2995.84137	0.02153
2994.55560	0.02143
2993.26983	0.02129
2991.98406	0.02113
2990.69829	0.02106
2989.41252	0.02115
2988.12675	0.02137
2986.84098	0.02155
2985.55522	0.02156
2984.26945	0.02141
2982.98368	0.02130
2981.69791	0.02141
2980.41214	0.02175
2979.12637	0.02212
2977.84060	0.02227
2976.55483	0.02211
2975.26907	0.02179
2973.98330	0.02155
2972.69753	0.02159
2971.41176	0.02185
2970.12599	0.02215
2968.84022	0.02232
2967.55445	0.02237
2966.26868	0.02245
2964.98291	0.02264
2963.69715	0.02294
2962.41138	0.02325
2961.12561	0.02340
2959.83984	0.02337
2958.55407	0.02332
2957.26830	0.02353
2955.98253	0.02409
2954.69676	0.02480
2953.41100	0.02537
2952.12523	0.02567
2950.83946	0.02568
2949.55369	0.02550
2948.26792	0.02521
2946.98215	0.02488
2945.69638	0.02452
2944.41061	0.02415
2943.12484	0.02381
2941.83908	0.02361
2940.55331	0.02363
2939.26754	0.02392
2937.98177	0.02437
2936.69600	0.02475
2935.41023	0.02492
2934.12446	0.02492
2932.83869	0.02493
2931.55293	0.02502
2930.26716	0.02513
2928.98139	0.02521
2927.69562	0.02523
2926.40985	0.02516
2925.12408	0.02502
2923.83831	0.02486
2922.55254	0.02469
2921.26677	0.02442
2919.98101	0.02400
2918.69524	0.02362
2917.40947	0.02357
2916.12370	0.02382
2914.83793	0.02407
2913.55216	0.02410
2912.26639	0.02402
2910.98062	0.02403
2909.69486	0.02418
2908.40909	0.02435
2907.12332	0.02446
2905.83755	0.02448
2904.55178	0.02438
2903.26601	0.02417
2901.98024	0.02400
2900.69447	0.02394
2899.40870	0.02393
2898.12294	0.02384
2896.83717	0.02362
2895.55140	0.02336
2894.26563	0.02314
2892.97986	0.02297
2891.69409	0.02283
2890.40832	0.02272
2889.12255	0.02264
2887.83678	0.02255
2886.55102	0.02243
2885.26525	0.02233
2883.97948	0.02226
2882.69371	0.02220
2881.40794	0.02208
2880.12217	0.02192
2878.83640	0.02186
2877.55063	0.02202
2876.26487	0.02231
2874.97910	0.02255
2873.69333	0.02265
2872.40756	0.02269
2871.12179	0.02283
2869.83602	0.02313
2868.55025	0.02347
2867.26448	0.02366
2865.97871	0.02356
2864.69295	0.02320
2863.40718	0.02274
2862.12141	0.02231
2860.83564	0.02200
2859.54987	0.02177
2858.26410	0.02162
2856.97833	0.02154
2855.69256	0.02154
2854.40680	0.02154
2853.12103	0.02139
2851.83526	0.02103
2850.54949	0.02062
2849.26372	0.02044
2847.97795	0.02063
2846.69218	0.02100
2845.40641	0.02121
2844.12064	0.02110
2842.83488	0.02086
2841.54911	0.02078
2840.26334	0.02094
2838.97757	0.02110
2837.69180	0.02103
2836.40603	0.02071
2835.12026	0.02032
2833.83449	0.01996
2832.54873	0.01966
2831.26296	0.01945
2829.97719	0.01942
2828.69142	0.01957
2827.40565	0.01976
2826.11988	0.01991
2824.83411	0.02002
2823.54834	0.02010
2822.26257	0.02003
2820.97681	0.01974
2819.69104	0.01931
2818.40527	0.01894
2817.11950	0.01874
2815.83373	0.01864
2814.54796	0.01858
2813.26219	0.01860
2811.97642	0.01880
2810.69066	0.01913
2809.40489	0.01938
2808.11912	0.01931
2806.83335	0.01897
2805.54758	0.01857
2804.26181	0.01838
2802.97604	0.01845
2801.69027	0.01868
2800.40450	0.01886
2799.11874	0.01890
2797.83297	0.01878
2796.54720	0.01858
2795.26143	0.01840
2793.97566	0.01832
2792.68989	0.01832
2791.40412	0.01834
2790.11835	0.01835
2788.83259	0.01836
2787.54682	0.01845
2786.26105	0.01862
2784.97528	0.01876
2783.68951	0.01875
2782.40374	0.01856
2781.11797	0.01831
2779.83220	0.01810
2778.54643	0.01804
2777.26067	0.01815
2775.97490	0.01840
2774.68913	0.01867
2773.40336	0.01883
2772.11759	0.01884
2770.83182	0.01871
2769.54605	0.01843
2768.26028	0.01809
2766.97452	0.01782
2765.68875	0.01779
2764.40298	0.01800
2763.11721	0.01832
2761.83144	0.01857
2760.54567	0.01867
2759.25990	0.01863
2757.97413	0.01854
2756.68836	0.01842
2755.40260	0.01830
2754.11683	0.01822
2752.83106	0.01821
2751.54529	0.01822
2750.25952	0.01821
2748.97375	0.01816
2747.68798	0.01812
2746.40221	0.01813
2745.11645	0.01814
2743.83068	0.01810
2742.54491	0.01802
2741.25914	0.01792
2739.97337	0.01785
2738.68760	0.01781
2737.40183	0.01774
2736.11606	0.01761
2734.83029	0.01749
2733.54453	0.01742
2732.25876	0.01742
2730.97299	0.01752
2729.68722	0.01774
2728.40145	0.01802
2727.11568	0.01817
2725.82991	0.01808
2724.54414	0.01782
2723.25838	0.01757
2721.97261	0.01743
2720.68684	0.01731
2719.40107	0.01710
2718.11530	0.01682
2716.82953	0.01663
2715.54376	0.01657
2714.25799	0.01660
2712.97222	0.01667
2711.68646	0.01679
2710.40069	0.01700
2709.11492	0.01719
2707.82915	0.01726
2706.54338	0.01721
2705.25761	0.01719
2703.97184	0.01723
2702.68607	0.01728
2701.40031	0.01728
2700.11454	0.01723
2698.82877	0.01718
2697.54300	0.01718
2696.25723	0.01723
2694.97146	0.01731
2693.68569	0.01734
2692.39992	0.01726
2691.11415	0.01709
2689.82839	0.01688
2688.54262	0.01667
2687.25685	0.01648
2685.97108	0.01637
2684.68531	0.01639
2683.39954	0.01652
2682.11377	0.01666
2680.82800	0.01678
2679.54224	0.01686
2678.25647	0.01687
2676.97070	0.01680
2675.68493	0.01667
2674.39916	0.01656
2673.11339	0.01656
2671.82762	0.01664
2670.54185	0.01667
2669.25608	0.01659
2667.97032	0.01645
2666.68455	0.01638
2665.39878	0.01643
2664.11301	0.01657
2662.82724	0.01671
2661.54147	0.01678
2660.25570	0.01677
2658.96993	0.01677
2657.68417	0.01690
2656.39840	0.01712
2655.11263	0.01727
2653.82686	0.01719
2652.54109	0.01686
2651.25532	0.01647
2649.96955	0.01621
2648.68378	0.01620
2647.39801	0.01640
2646.11225	0.01666
2644.82648	0.01685
2643.54071	0.01685
2642.25494	0.01671
2640.96917	0.01656
2639.68340	0.01656
2638.39763	0.01664
2637.11186	0.01659
2635.82609	0.01630
2634.54033	0.01591
2633.25456	0.01569
2631.96879	0.01572
2630.68302	0.01585
2629.39725	0.01584
2628.11148	0.01559
2626.82571	0.01520
2625.53994	0.01486
2624.25418	0.01465
2622.96841	0.01457
2621.68264	0.01462
2620.39687	0.01476
2619.11110	0.01487
2617.82533	0.01491
2616.53956	0.01492
2615.25379	0.01497
2613.96802	0.01502
2612.68226	0.01506
2611.39649	0.01513
2610.11072	0.01528
2608.82495	0.01538
2607.53918	0.01527
2606.25341	0.01497
2604.96764	0.01470
2603.68187	0.01457
2602.39611	0.01449
2601.11034	0.01432
2599.82457	0.01408
2598.53880	0.01392
2597.25303	0.01397
2595.96726	0.01419
2594.68149	0.01442
2593.39572	0.01452
2592.10995	0.01444
2590.82419	0.01423
2589.53842	0.01398
2588.25265	0.01367
2586.96688	0.01331
2585.68111	0.01294
2584.39534	0.01263
2583.10957	0.01232
2581.82380	0.01200
2580.53804	0.01176
2579.25227	0.01182
2577.96650	0.01225
2576.68073	0.01291
2575.39496	0.01346
2574.10919	0.01362
2572.82342	0.01335
2571.53765	0.01286
2570.25188	0.01242
2568.96612	0.01222
2567.68035	0.01222
2566.39458	0.01225
2565.10881	0.01214
2563.82304	0.01193
2562.53727	0.01177
2561.25150	0.01167
2559.96573	0.01154
2558.67997	0.01137
2557.39420	0.01132
2556.10843	0.01152
2554.82266	0.01181
2553.53689	0.01194
2552.25112	0.01185
2550.96535	0.01167
2549.67958	0.01168
2548.39381	0.01205
2547.10805	0.01265
2545.82228	0.01315
2544.53651	0.01329
2543.25074	0.01308
2541.96497	0.01272
2540.67920	0.01239
2539.39343	0.01219
2538.10766	0.01212
2536.82190	0.01206
2535.53613	0.01192
2534.25036	0.01173
2532.96459	0.01155
2531.67882	0.01140
2530.39305	0.01126
2529.10728	0.01112
2527.82151	0.01105
2526.53574	0.01119
2525.24998	0.01160
2523.96421	0.01213
2522.67844	0.01240
2521.39267	0.01217
2520.10690	0.01156
2518.82113	0.01104
2517.53536	0.01101
2516.24959	0.01143
2514.96383	0.01196
2513.67806	0.01227
2512.39229	0.01230
2511.10652	0.01207
2509.82075	0.01162
2508.53498	0.01112
2507.24921	0.01086
2505.96344	0.01100
2504.67767	0.01142
2503.39191	0.01190
2502.10614	0.01229
2500.82037	0.01254
2499.53460	0.01260
2498.24883	0.01238
2496.96306	0.01191
2495.67729	0.01136
2494.39152	0.01097
2493.10576	0.01088
2491.81999	0.01105
2490.53422	0.01127
2489.24845	0.01138
2487.96268	0.01140
2486.67691	0.01141
2485.39114	0.01145
2484.10537	0.01152
2482.81960	0.01159
2481.53384	0.01163
2480.24807	0.01161
2478.96230	0.01154
2477.67653	0.01150
2476.39076	0.01152
2475.10499	0.01152
2473.81922	0.01143
2472.53345	0.01123
2471.24769	0.01105
2469.96192	0.01100
2468.67615	0.01114
2467.39038	0.01142
2466.10461	0.01171
2464.81884	0.01178
2463.53307	0.01160
2462.24730	0.01140
2460.96153	0.01147
2459.67577	0.01185
2458.39000	0.01228
2457.10423	0.01240
2455.81846	0.01214
2454.53269	0.01175
2453.24692	0.01147
2451.96115	0.01140
2450.67538	0.01149
2449.38962	0.01173
2448.10385	0.01206
2446.81808	0.01231
2445.53231	0.01223
2444.24654	0.01186
2442.96077	0.01149
2441.67500	0.01133
2440.38923	0.01130
2439.10346	0.01116
2437.81770	0.01091
2436.53193	0.01080
2435.24616	0.01106
2433.96039	0.01154
2432.67462	0.01193
2431.38885	0.01208
2430.10308	0.01211
2428.81731	0.01216
2427.53155	0.01214
2426.24578	0.01190
2424.96001	0.01143
2423.67424	0.01092
2422.38847	0.01066
2421.10270	0.01074
2419.81693	0.01097
2418.53116	0.01109
2417.24539	0.01104
2415.95963	0.01093
2414.67386	0.01082
2413.38809	0.01064
2412.10232	0.01039
2410.81655	0.01018
2409.53078	0.01011
2408.24501	0.01019
2406.95924	0.01032
2405.67347	0.01044
2404.38771	0.01053
2403.10194	0.01058
2401.81617	0.01062
2400.53040	0.01065
2399.24463	0.01070
2397.95886	0.01068
2396.67309	0.01068
2395.38732	0.01074
2394.10156	0.01083
2392.81579	0.01092
2391.53002	0.01100
2390.24425	0.01109
2388.95848	0.01122
2387.67271	0.01136
2386.38694	0.01143
2385.10117	0.01136
2383.81540	0.01116
2382.52964	0.01089
2381.24387	0.01065
2379.95810	0.01053
2378.67233	0.01055
2377.38656	0.01068
2376.10079	0.01081
2374.81502	0.01082
2373.52925	0.01060
2372.24349	0.01022
2370.95772	0.00987
2369.67195	0.00964
2368.38618	0.00948
2367.10041	0.00930
2365.81464	0.00915
2364.52887	0.00908
2363.24310	0.00904
2361.95733	0.00897
2360.67157	0.00880
2359.38580	0.00870
2358.10003	0.00889
2356.81426	0.00941
2355.52849	0.01013
2354.24272	0.01088
2352.95695	0.01149
2351.67118	0.01181
2350.38542	0.01189
2349.09965	0.01183
2347.81388	0.01161
2346.52811	0.01118
2345.24234	0.01078
2343.95657	0.01076
2342.67080	0.01097
2341.38503	0.01086
2340.09926	0.01041
2338.81350	0.01025
2337.52773	0.01044
2336.24196	0.01029
2334.95619	0.00994
2333.67042	0.01011
2332.38465	0.01057
2331.09888	0.01060
2329.81311	0.01072
2328.52735	0.01144
2327.24158	0.01216
2325.95581	0.01285
2324.67004	0.01366
2323.38427	0.01392
2322.09850	0.01349
2320.81273	0.01308
2319.52696	0.01274
2318.24119	0.01250
2316.95543	0.01238
2315.66966	0.01212
2314.38389	0.01182
2313.09812	0.01166
2311.81235	0.01157
2310.52658	0.01152
2309.24081	0.01144
2307.95504	0.01131
2306.66928	0.01130
2305.38351	0.01140
2304.09774	0.01155
2302.81197	0.01163
2301.52620	0.01160
2300.24043	0.01151
2298.95466	0.01137
2297.66889	0.01117
2296.38312	0.01103
2295.09736	0.01105
2293.81159	0.01127
2292.52582	0.01156
2291.24005	0.01179
2289.95428	0.01193
2288.66851	0.01201
2287.38274	0.01202
2286.09697	0.01194
2284.81121	0.01178
2283.52544	0.01155
2282.23967	0.01133
2280.95390	0.01121
2279.66813	0.01121
2278.38236	0.01120
2277.09659	0.01100
2275.81082	0.01061
2274.52505	0.01026
2273.23929	0.01025
2271.95352	0.01058
2270.66775	0.01098
2269.38198	0.01110
2268.09621	0.01074
2266.81044	0.00999
2265.52467	0.00908
2264.23890	0.00832
2262.95314	0.00798
2261.66737	0.00817
2260.38160	0.00870
2259.09583	0.00919
2257.81006	0.00931
2256.52429	0.00898
2255.23852	0.00848
2253.95275	0.00821
2252.66698	0.00833
2251.38122	0.00860
2250.09545	0.00866
2248.80968	0.00846
2247.52391	0.00805
2246.23814	0.00796
2244.95237	0.00833
2243.66660	0.00890
2242.38083	0.00920
2241.09507	0.00899
2239.80930	0.00847
2238.52353	0.00808
2237.23776	0.00803
2235.95199	0.00811
2234.66622	0.00805
2233.38045	0.00779
2232.09468	0.00742
2230.80891	0.00709
2229.52315	0.00696
2228.23738	0.00714
2226.95161	0.00746
2225.66584	0.00747
2224.38007	0.00685
2223.09430	0.00574
2221.80853	0.00466
2220.52276	0.00412
2219.23700	0.00429
2217.95123	0.00492
2216.66546	0.00559
2215.37969	0.00611
2214.09392	0.00656
2212.80815	0.00697
2211.52238	0.00696
2210.23661	0.00622
2208.95084	0.00512
2207.66508	0.00454
2206.37931	0.00495
2205.09354	0.00587
2203.80777	0.00636
2202.52200	0.00597
2201.23623	0.00498
2199.95046	0.00401
2198.66469	0.00352
2197.37893	0.00360
2196.09316	0.00409
2194.80739	0.00467
2193.52162	0.00509
2192.23585	0.00533
2190.95008	0.00558
2189.66431	0.00595
2188.37854	0.00626
2187.09277	0.00632
2185.80701	0.00606
2184.52124	0.00556
2183.23547	0.00487
2181.94970	0.00411
2180.66393	0.00346
2179.37816	0.00299
2178.09239	0.00257
2176.80662	0.00207
2175.52085	0.00157
2174.23509	0.00126
2172.94932	0.00121
2171.66355	0.00124
2170.37778	0.00113
2169.09201	0.00093
2167.80624	0.00095
2166.52047	0.00148
2165.23470	0.00235
2163.94894	0.00285
2162.66317	0.00227
2161.37740	0.00043
2160.09163	-0.00212
2158.80586	-0.00442
2157.52009	-0.00564
2156.23432	-0.00554
2154.94855	-0.00447
2153.66278	-0.00299
2152.37702	-0.00166
2151.09125	-0.00081
2149.80548	-0.00037
2148.51971	-0.00003
2147.23394	0.00034
2145.94817	0.00058
2144.66240	0.00053
2143.37663	0.00039
2142.09087	0.00052
2140.80510	0.00100
2139.51933	0.00160
2138.23356	0.00206
2136.94779	0.00226
2135.66202	0.00222
2134.37625	0.00198
2133.09048	0.00164
2131.80471	0.00136
2130.51895	0.00127
2129.23318	0.00145
2127.94741	0.00190
2126.66164	0.00254
2125.37587	0.00326
2124.09010	0.00395
2122.80433	0.00448
2121.51856	0.00471
2120.23280	0.00457
2118.94703	0.00423
2117.66126	0.00394
2116.37549	0.00389
2115.08972	0.00404
2113.80395	0.00425
2112.51818	0.00436
2111.23241	0.00440
2109.94664	0.00448
2108.66088	0.00466
2107.37511	0.00479
2106.08934	0.00470
2104.80357	0.00431
2103.51780	0.00378
2102.23203	0.00336
2100.94626	0.00335
2099.66049	0.00562
2098.37473	0.00689
2097.08896	0.00686
2095.80319	0.00620
2094.51742	0.00528
2093.23165	0.00439
2091.94588	0.00377
2090.66011	0.00346
2089.37434	0.00337
2088.08857	0.00336
2086.80281	0.00341
2085.51704	0.00363
2084.23127	0.00411
2082.94550	0.00478
2081.65973	0.00539
2080.37396	0.00570
2079.08819	0.00567
2077.80242	0.00547
2076.51666	0.00537
2075.23089	0.00551
2073.94512	0.00578
2072.65935	0.00596
2071.37358	0.00589
2070.08781	0.00553
2068.80204	0.00497
2067.51627	0.00438
2066.23050	0.00393
2064.94474	0.00368
2063.65897	0.00351
2062.37320	0.00322
2061.08743	0.00274
2059.80166	0.00219
2058.51589	0.00177
2057.23012	0.00155
2055.94435	0.00146
2054.65859	0.00153
2053.37282	0.00197
2052.08705	0.00283
2050.80128	0.00382
2049.51551	0.00444
2048.22974	0.00444
2046.94397	0.00391
2045.65820	0.00301
2044.37243	0.00179
2043.08667	0.00038
2041.80090	-0.00093
2040.51513	-0.00186
2039.22936	-0.00229
2037.94359	-0.00213
2036.65782	-0.00134
2035.37205	0.00001
2034.08628	0.00148
2032.80052	0.00251
2031.51475	0.00275
2030.22898	0.00233
2028.94321	0.00170
2027.65744	0.00133
2026.37167	0.00139
2025.08590	0.00161
2023.80013	0.00158
2022.51436	0.00118
2021.22860	0.00075
2019.94283	0.00079
2018.65706	0.00141
2017.37129	0.00223
2016.08552	0.00279
2014.79975	0.00293
2013.51398	0.00302
2012.22821	0.00362
2010.94245	0.00496
2009.65668	0.00657
2008.37091	0.00765
2007.08514	0.00766
2005.79937	0.00669
2004.51360	0.00526
2003.22783	0.00388
2001.94206	0.00272
2000.65629	0.00181
1999.37053	0.00119
1998.08476	0.00095
1996.79899	0.00108
1995.51322	0.00142
1994.22745	0.00174
1992.94168	0.00191
1991.65591	0.00207
1990.37014	0.00251
1989.08438	0.00341
1987.79861	0.00457
1986.51284	0.00547
1985.22707	0.00583
1983.94130	0.00593
1982.65553	0.00648
1981.36976	0.00793
1980.08399	0.00999
1978.79822	0.01175
1977.51246	0.01232
1976.22669	0.01146
1974.94092	0.00971
1973.65515	0.00797
1972.36938	0.00699
1971.08361	0.00679
1969.79784	0.00677
1968.51207	0.00640
1967.22631	0.00572
1965.94054	0.00514
1964.65477	0.00487
1963.36900	0.00475
1962.08323	0.00448
1960.79746	0.00399
1959.51169	0.00330
1958.22592	0.00257
1956.94015	0.00207
1955.65439	0.00219
1954.36862	0.00311
1953.08285	0.00449
1951.79708	0.00565
1950.51131	0.00611
1949.22554	0.00597
1947.93977	0.00567
1946.65400	0.00556
1945.36823	0.00575
1944.08247	0.00619
1942.79670	0.00677
1941.51093	0.00724
1940.22516	0.00729
1938.93939	0.00686
1937.65362	0.00621
1936.36785	0.00579
1935.08208	0.00582
1933.79632	0.00613
1932.51055	0.00639
1931.22478	0.00647
1929.93901	0.00647
1928.65324	0.00652
1927.36747	0.00659
1926.08170	0.00655
1924.79593	0.00636
1923.51016	0.00615
1922.22440	0.00613
1920.93863	0.00637
1919.65286	0.00675
1918.36709	0.00704
1917.08132	0.00711
1915.79555	0.00696
1914.50978	0.00671
1913.22401	0.00650
1911.93825	0.00647
1910.65248	0.00667
1909.36671	0.00694
1908.08094	0.00706
1906.79517	0.00695
1905.50940	0.00677
1904.22363	0.00671
1902.93786	0.00683
1901.65209	0.00707
1900.36633	0.00733
1899.08056	0.00752
1897.79479	0.00756
1896.50902	0.00747
1895.22325	0.00734
1893.93748	0.00726
1892.65171	0.00721
1891.36594	0.00710
1890.08018	0.00689
1888.79441	0.00665
1887.50864	0.00653
1886.22287	0.00664
1884.93710	0.00693
1883.65133	0.00727
1882.36556	0.00760
1881.07979	0.00791
1879.79402	0.00819
1878.50826	0.00833
1877.22249	0.00829
1875.93672	0.00804
1874.65095	0.00765
1873.36518	0.00722
1872.07941	0.00694
1870.79364	0.00695
1869.50787	0.00721
1868.22211	0.00749
1866.93634	0.00767
1865.65057	0.00777
1864.36480	0.00789
1863.07903	0.00801
1861.79326	0.00804
1860.50749	0.00797
1859.22172	0.00788
1857.93595	0.00786
1856.65019	0.00785
1855.36442	0.00779
1854.07865	0.00770
1852.79288	0.00766
1851.50711	0.00769
1850.22134	0.00776
1848.93557	0.00781
1847.64980	0.00783
1846.36404	0.00784
1845.07827	0.00783
1843.79250	0.00776
1842.50673	0.00764
1841.22096	0.00757
1839.93519	0.00760
1838.64942	0.00765
1837.36365	0.00761
1836.07788	0.00746
1834.79212	0.00732
1833.50635	0.00733
1832.22058	0.00752
1830.93481	0.00778
1829.64904	0.00797
1828.36327	0.00807
1827.07750	0.00817
1825.79173	0.00829
1824.50597	0.00840
1823.22020	0.00850
1821.93443	0.00868
1820.64866	0.00886
1819.36289	0.00885
1818.07712	0.00855
1816.79135	0.00805
1815.50558	0.00760
1814.21981	0.00735
1812.93405	0.00731
1811.64828	0.00734
1810.36251	0.00735
1809.07674	0.00731
1807.79097	0.00726
1806.50520	0.00723
1805.21943	0.00723
1803.93366	0.00729
1802.64790	0.00739
1801.36213	0.00752
1800.07636	0.00768
1798.79059	0.00789
1797.50482	0.00813
1796.21905	0.00831
1794.93328	0.00839
1793.64751	0.00837
1792.36174	0.00828
1791.07598	0.00816
1789.79021	0.00807
1788.50444	0.00808
1787.21867	0.00818
1785.93290	0.00832
1784.64713	0.00843
1783.36136	0.00852
1782.07559	0.00859
1780.78983	0.00861
1779.50406	0.00851
1778.21829	0.00832
1776.93252	0.00812
1775.64675	0.00798
1774.36098	0.00792
1773.07521	0.00791
1771.78944	0.00788
1770.50367	0.00788
1769.21791	0.00795
1767.93214	0.00806
1766.64637	0.00816
1765.36060	0.00826
1764.07483	0.00839
1762.78906	0.00845
1761.50329	0.00839
1760.21752	0.00826
1758.93176	0.00821
1757.64599	0.00824
1756.36022	0.00824
1755.07445	0.00818
1753.78868	0.00816
1752.50291	0.00822
1751.21714	0.00827
1749.93137	0.00823
1748.64560	0.00817
1747.35984	0.00818
1746.07407	0.00825
1744.78830	0.00834
1743.50253	0.00841
1742.21676	0.00846
1740.93099	0.00849
1739.64522	0.00849
1738.35945	0.00846
1737.07369	0.00853
1735.78792	0.00877
1734.50215	0.00899
1733.21638	0.00903
1731.93061	0.00898
1730.64484	0.00904
1729.35907	0.00921
1728.07330	0.00932
1726.78753	0.00935
1725.50177	0.00935
1724.21600	0.00939
1722.93023	0.00947
1721.64446	0.00956
1720.35869	0.00966
1719.07292	0.00976
1717.78715	0.00977
1716.50138	0.00969
1715.21561	0.00963
1713.92985	0.00967
1712.64408	0.00980
1711.35831	0.00995
1710.07254	0.01010
1708.78677	0.01029
1707.50100	0.01050
1706.21523	0.01070
1704.92946	0.01084
1703.64370	0.01098
1702.35793	0.01117
1701.07216	0.01131
1699.78639	0.01126
1698.50062	0.01115
1697.21485	0.01121
1695.92908	0.01134
1694.64331	0.01130
1693.35754	0.01122
1692.07178	0.01133
1690.78601	0.01160
1689.50024	0.01184
1688.21447	0.01202
1686.92870	0.01224
1685.64293	0.01245
1684.35716	0.01249
1683.07139	0.01235
1681.78563	0.01229
1680.49986	0.01248
1679.21409	0.01281
1677.92832	0.01315
1676.64255	0.01345
1675.35678	0.01364
1674.07101	0.01371
1672.78524	0.01377
1671.49947	0.01392
1670.21371	0.01408
1668.92794	0.01412
1667.64217	0.01408
1666.35640	0.01413
1665.07063	0.01435
1663.78486	0.01463
1662.49909	0.01484
1661.21332	0.01493
1659.92756	0.01496
1658.64179	0.01497
1657.35602	0.01497
1656.07025	0.01507
1654.78448	0.01528
1653.49871	0.01536
1652.21294	0.01512
1650.92717	0.01477
1649.64140	0.01475
1648.35564	0.01509
1647.06987	0.01549
1645.78410	0.01568
1644.49833	0.01570
1643.21256	0.01570
1641.92679	0.01574
1640.64102	0.01577
1639.35525	0.01577
1638.06949	0.01585
1636.78372	0.01602
1635.49795	0.01615
1634.21218	0.01615
1632.92641	0.01611
1631.64064	0.01615
1630.35487	0.01629
1629.06910	0.01642
1627.78333	0.01649
1626.49757	0.01649
1625.21180	0.01650
1623.92603	0.01653
1622.64026	0.01654
1621.35449	0.01655
1620.06872	0.01664
1618.78295	0.01685
1617.49718	0.01704
1616.21142	0.01707
1614.92565	0.01700
1613.63988	0.01704
1612.35411	0.01724
1611.06834	0.01748
1609.78257	0.01764
1608.49680	0.01774
1607.21103	0.01779
1605.92526	0.01784
1604.63950	0.01789
1603.35373	0.01799
1602.06796	0.01816
1600.78219	0.01836
1599.49642	0.01857
1598.21065	0.01874
1596.92488	0.01887
1595.63911	0.01895
1594.35335	0.01898
1593.06758	0.01899
1591.78181	0.01902
1590.49604	0.01910
1589.21027	0.01920
1587.92450	0.01929
1586.63873	0.01936
1585.35296	0.01941
1584.06719	0.01946
1582.78143	0.01951
1581.49566	0.01955
1580.20989	0.01960
1578.92412	0.01969
1577.63835	0.01983
1576.35258	0.01991
1575.06681	0.01983
1573.78104	0.01972
1572.49528	0.01976
1571.20951	0.01991
1569.92374	0.02004
1568.63797	0.02009
1567.35220	0.02014
1566.06643	0.02026
1564.78066	0.02038
1563.49489	0.02046
1562.20912	0.02057
1560.92336	0.02075
1559.63759	0.02084
1558.35182	0.02070
1557.06605	0.02050
1555.78028	0.02046
1554.49451	0.02060
1553.20874	0.02072
1551.92297	0.02081
1550.63721	0.02093
1549.35144	0.02108
1548.06567	0.02121
1546.77990	0.02130
1545.49413	0.02133
1544.20836	0.02128
1542.92259	0.02120
1541.63682	0.02113
1540.35105	0.02104
1539.06529	0.02089
1537.77952	0.02075
1536.49375	0.02083
1535.20798	0.02112
1533.92221	0.02144
1532.63644	0.02162
1531.35067	0.02169
1530.06490	0.02179
1528.77914	0.02198
1527.49337	0.02221
1526.20760	0.02246
1524.92183	0.02275
1523.63606	0.02314
1522.35029	0.02362
1521.06452	0.02405
1519.77875	0.02441
1518.49298	0.02482
1517.20722	0.02536
1515.92145	0.02595
1514.63568	0.02655
1513.34991	0.02716
1512.06414	0.02775
1510.77837	0.02834
1509.49260	0.02900
1508.20683	0.02975
1506.92107	0.03047
1505.63530	0.03103
1504.34953	0.03149
1503.06376	0.03204
1501.77799	0.03271
1500.49222	0.03339
1499.20645	0.03399
1497.92068	0.03448
1496.63491	0.03487
1495.34915	0.03514
1494.06338	0.03537
1492.77761	0.03570
1491.49184	0.03613
1490.20607	0.03661
1488.92030	0.03710
1487.63453	0.03760
1486.34876	0.03811
1485.06299	0.03862
1483.77723	0.03914
1482.49146	0.03970
1481.20569	0.04032
1479.91992	0.04096
1478.63415	0.04156
1477.34838	0.04209
1476.06261	0.04253
1474.77684	0.04296
1473.49108	0.04339
1472.20531	0.04378
1470.91954	0.04408
1469.63377	0.04437
1468.34800	0.04469
1467.06223	0.04503
1465.77646	0.04531
1464.49069	0.04550
1463.20492	0.04563
1461.91916	0.04580
1460.63339	0.04605
1459.34762	0.04637
1458.06185	0.04668
1456.77608	0.04686
1455.49031	0.04692
1454.20454	0.04697
1452.91877	0.04709
1451.63301	0.04719
1450.34724	0.04719
1449.06147	0.04709
1447.77570	0.04690
1446.48993	0.04663
1445.20416	0.04633
1443.91839	0.04605
1442.63262	0.04579
1441.34685	0.04554
1440.06109	0.04535
1438.77532	0.04528
1437.48955	0.04532
1436.20378	0.04539
1434.91801	0.04551
1433.63224	0.04580
1432.34647	0.04633
1431.06070	0.04700
1429.77494	0.04769
1428.48917	0.04839
1427.20340	0.04914
1425.91763	0.04998
1424.63186	0.05087
1423.34609	0.05174
1422.06032	0.05254
1420.77455	0.05325
1419.48878	0.05379
1418.20302	0.05413
1416.91725	0.05434
1415.63148	0.05451
1414.34571	0.05464
1413.05994	0.05467
1411.77417	0.05458
1410.48840	0.05432
1409.20263	0.05391
1407.91687	0.05335
1406.63110	0.05270
1405.34533	0.05197
1404.05956	0.05118
1402.77379	0.05031
1401.48802	0.04939
1400.20225	0.04839
1398.91648	0.04727
1397.63071	0.04606
1396.34495	0.04484
1395.05918	0.04367
1393.77341	0.04250
1392.48764	0.04134
1391.20187	0.04023
1389.91610	0.03919
1388.63033	0.03819
1387.34456	0.03717
1386.05880	0.03611
1384.77303	0.03503
1383.48726	0.03399
1382.20149	0.03299
1380.91572	0.03204
1379.62995	0.03113
1378.34418	0.03022
1377.05841	0.02925
1375.77264	0.02826
1374.48688	0.02728
1373.20111	0.02637
1371.91534	0.02552
1370.62957	0.02472
1369.34380	0.02392
1368.05803	0.02312
1366.77226	0.02236
1365.48649	0.02168
1364.20073	0.02108
1362.91496	0.02052
1361.62919	0.01998
1360.34342	0.01946
1359.05765	0.01897
1357.77188	0.01852
1356.48611	0.01814
1355.20034	0.01780
1353.91457	0.01747
1352.62881	0.01712
1351.34304	0.01677
1350.05727	0.01646
1348.77150	0.01616
1347.48573	0.01587
1346.19996	0.01558
1344.91419	0.01531
1343.62842	0.01508
1342.34266	0.01489
1341.05689	0.01471
1339.77112	0.01452
1338.48535	0.01434
1337.19958	0.01417
1335.91381	0.01402
1334.62804	0.01390
1333.34227	0.01381
1332.05650	0.01372
1330.77074	0.01363
1329.48497	0.01351
1328.19920	0.01335
1326.91343	0.01318
1325.62766	0.01306
1324.34189	0.01300
1323.05612	0.01301
1321.77035	0.01301
1320.48459	0.01296
1319.19882	0.01283
1317.91305	0.01267
1316.62728	0.01253
1315.34151	0.01244
1314.05574	0.01235
1312.76997	0.01225
1311.48420	0.01214
1310.19843	0.01207
1308.91267	0.01205
1307.62690	0.01207
1306.34113	0.01210
1305.05536	0.01209
1303.76959	0.01203
1302.48382	0.01192
1301.19805	0.01179
1299.91228	0.01167
1298.62652	0.01158
1297.34075	0.01152
1296.05498	0.01148
1294.76921	0.01144
1293.48344	0.01139
1292.19767	0.01134
1290.91190	0.01127
1289.62613	0.01120
1288.34036	0.01113
1287.05460	0.01110
1285.76883	0.01110
1284.48306	0.01111
1283.19729	0.01109
1281.91152	0.01103
1280.62575	0.01094
1279.33998	0.01083
1278.05421	0.01075
1276.76845	0.01070
1275.48268	0.01066
1274.19691	0.01060
1272.91114	0.01051
1271.62537	0.01038
1270.33960	0.01027
1269.05383	0.01018
1267.76806	0.01011
1266.48229	0.01004
1265.19653	0.00997
1263.91076	0.00994
1262.62499	0.00993
1261.33922	0.00994
1260.05345	0.00993
1258.76768	0.00991
1257.48191	0.00986
1256.19614	0.00983
1254.91037	0.00981
1253.62461	0.00980
1252.33884	0.00979
1251.05307	0.00975
1249.76730	0.00971
1248.48153	0.00968
1247.19576	0.00966
1245.90999	0.00963
1244.62422	0.00956
1243.33846	0.00947
1242.05269	0.00938
1240.76692	0.00934
1239.48115	0.00936
1238.19538	0.00940
1236.90961	0.00942
1235.62384	0.00940
1234.33807	0.00937
1233.05230	0.00934
1231.76654	0.00932
1230.48077	0.00930
1229.19500	0.00928
1227.90923	0.00927
1226.62346	0.00925
1225.33769	0.00922
1224.05192	0.00917
1222.76615	0.00908
1221.48039	0.00899
1220.19462	0.00892
1218.90885	0.00888
1217.62308	0.00887
1216.33731	0.00887
1215.05154	0.00885
1213.76577	0.00882
1212.48000	0.00879
1211.19423	0.00879
1209.90847	0.00884
1208.62270	0.00895
1207.33693	0.00907
1206.05116	0.00916
1204.76539	0.00920
1203.47962	0.00922
1202.19385	0.00923
1200.90808	0.00914
1199.62232	0.00888
1198.33655	0.00888
1197.05078	0.00887
1195.76501	0.00885
1194.47924	0.00884
1193.19347	0.00885
1191.90770	0.00886
1190.62193	0.00887
1189.33616	0.00889
1188.05040	0.00891
1186.76463	0.00896
1185.47886	0.00901
1184.19309	0.00908
1182.90732	0.00916
1181.62155	0.00923
1180.33578	0.00929
1179.05001	0.00935
1177.76425	0.00940
1176.47848	0.00945
1175.19271	0.00950
1173.90694	0.00955
1172.62117	0.00960
1171.33540	0.00964
1170.04963	0.00969
1168.76386	0.00978
1167.47809	0.00992
1166.19233	0.01009
1164.90656	0.01027
1163.62079	0.01046
1162.33502	0.01066
1161.04925	0.01088
1159.76348	0.01111
1158.47771	0.01134
1157.19194	0.01159
1155.90618	0.01185
1154.62041	0.01211
1153.33464	0.01240
1152.04887	0.01273
1150.76310	0.01309
1149.47733	0.01348
1148.19156	0.01389
1146.90579	0.01436
1145.62002	0.01490
1144.33426	0.01549
1143.04849	0.01606
1141.76272	0.01663
1140.47695	0.01723
1139.19118	0.01793
1137.90541	0.01872
1136.61964	0.01961
1135.33387	0.02064
1134.04811	0.02182
1132.76234	0.02312
1131.47657	0.02451
1130.19080	0.02602
1128.90503	0.02766
1127.61926	0.02943
1126.33349	0.03133
1125.04772	0.03335
1123.76195	0.03552
1122.47619	0.03786
1121.19042	0.04034
1119.90465	0.04291
1118.61888	0.04549
1117.33311	0.04800
1116.04734	0.05047
1114.76157	0.05293
1113.47580	0.05542
1112.19004	0.05791
1110.90427	0.06034
1109.61850	0.06270
1108.33273	0.06502
1107.04696	0.06735
1105.76119	0.06968
1104.47542	0.07193
1103.18965	0.07406
1101.90388	0.07604
1100.61812	0.07791
1099.33235	0.07966
1098.04658	0.08132
1096.76081	0.08292
1095.47504	0.08451
1094.18927	0.08609
1092.90350	0.08765
1091.61773	0.08914
1090.33197	0.09055
1089.04620	0.09189
1087.76043	0.09320
1086.47466	0.09451
1085.18889	0.09585
1083.90312	0.09723
1082.61735	0.09867
1081.33158	0.10026
1080.04581	0.10203
1078.76005	0.10395
1077.47428	0.10596
1076.18851	0.10802
1074.90274	0.11013
1073.61697	0.11226
1072.33120	0.11441
1071.04543	0.11655
1069.75966	0.11870
1068.47390	0.12093
1067.18813	0.12327
1065.90236	0.12571
1064.61659	0.12819
1063.33082	0.13069
1062.04505	0.13315
1060.75928	0.13556
1059.47351	0.13783
1058.18774	0.13999
1056.90198	0.14211
1055.61621	0.14430
1054.33044	0.14659
1053.04467	0.14897
1051.75890	0.15140
1050.47313	0.15387
1049.18736	0.15637
1047.90159	0.15890
1046.61583	0.16143
1045.33006	0.16397
1044.04429	0.16652
1042.75852	0.16908
1041.47275	0.17166
1040.18698	0.17422
1038.90121	0.17677
1037.61544	0.17934
1036.32967	0.18188
1035.04391	0.18426
1033.75814	0.18635
1032.47237	0.18807
1031.18660	0.18946
1029.90083	0.19055
1028.61506	0.19135
1027.32929	0.19185
1026.04352	0.19205
1024.75775	0.19192
1023.47199	0.19143
1022.18622	0.19054
1020.90045	0.18920
1019.61468	0.18736
1018.32891	0.18505
1017.04314	0.18238
1015.75737	0.17945
1014.47160	0.17626
1013.18584	0.17271
1011.90007	0.16870
1010.61430	0.16425
1009.32853	0.15950
1008.04276	0.15453
1006.75699	0.14945
1005.47122	0.14427
1004.18545	0.13901
1002.89968	0.13365
1001.61392	0.12814
1000.32815	0.12251
999.04238	0.11686
997.75661	0.11129
996.47084	0.10587
995.18507	0.10060
993.89930	0.09550
992.61353	0.09062
991.32777	0.08602
990.04200	0.08174
988.75623	0.07776
987.47046	0.07403
986.18469	0.07050
984.89892	0.06716
983.61315	0.06403
982.32738	0.06117
981.04161	0.05859
979.75585	0.05623
978.47008	0.05409
977.18431	0.05220
975.89854	0.05060
974.61277	0.04934
973.32700	0.04845
972.04123	0.04791
970.75546	0.04766
969.46970	0.04759
968.18393	0.04769
966.89816	0.04801
965.61239	0.04856
964.32662	0.04926
963.04085	0.04991
961.75508	0.05030
960.46931	0.05027
959.18354	0.04976
957.89778	0.04882
956.61201	0.04760
955.32624	0.04625
954.04047	0.04485
952.75470	0.04343
951.46893	0.04200
950.18316	0.04056
948.89739	0.03913
947.61163	0.03775
946.32586	0.03646
945.04009	0.03531
943.75432	0.03429
942.46855	0.03337
941.18278	0.03250
939.89701	0.03168
938.61124	0.03090
937.32547	0.03019
936.03971	0.02953
934.75394	0.02893
933.46817	0.02840
932.18240	0.02791
930.89663	0.02744
929.61086	0.02697
928.32509	0.02652
927.03932	0.02610
925.75356	0.02573
924.46779	0.02539
923.18202	0.02506
921.89625	0.02477
920.61048	0.02450
919.32471	0.02426
918.03894	0.02401
916.75317	0.02374
915.46740	0.02345
914.18164	0.02318
912.89587	0.02298
911.61010	0.02283
910.32433	0.02267
909.03856	0.02248
907.75279	0.02225
906.46702	0.02201
905.18125	0.02179
903.89549	0.02165
902.60972	0.02161
901.32395	0.02162
900.03818	0.02161
898.75241	0.02156
897.46664	0.02146
896.18087	0.02138
894.89510	0.02140
893.60933	0.02155
892.32357	0.02177
891.03780	0.02195
889.75203	0.02203
888.46626	0.02211
887.18049	0.02237
885.89472	0.02296
884.60895	0.02400
883.32318	0.02546
882.03742	0.02721
880.75165	0.02895
879.46588	0.03035
878.18011	0.03128
876.89434	0.03187
875.60857	0.03240
874.32280	0.03303
873.03703	0.03364
871.75126	0.03397
870.46550	0.03383
869.17973	0.03318
867.89396	0.03217
866.60819	0.03097
865.32242	0.02971
864.03665	0.02846
862.75088	0.02727
861.46511	0.02616
860.17935	0.02518
858.89358	0.02433
857.60781	0.02363
856.32204	0.02304
855.03627	0.02253
853.75050	0.02208
852.46473	0.02170
851.17896	0.02143
849.89319	0.02127
848.60743	0.02116
847.32166	0.02098
846.03589	0.02070
844.75012	0.02040
843.46435	0.02020
842.17858	0.02009
840.89281	0.01999
839.60704	0.01985
838.32128	0.01969
837.03551	0.01955
835.74974	0.01947
834.46397	0.01946
833.17820	0.01951
831.89243	0.01959
830.60666	0.01963
829.32089	0.01962
828.03512	0.01956
826.74936	0.01944
825.46359	0.01926
824.17782	0.01907
822.89205	0.01896
821.60628	0.01898
820.32051	0.01907
819.03474	0.01910
817.74897	0.01903
816.46321	0.01894
815.17744	0.01891
813.89167	0.01893
812.60590	0.01893
811.32013	0.01888
810.03436	0.01882
808.74859	0.01877
807.46282	0.01873
806.17705	0.01870
804.89129	0.01867
803.60552	0.01863
802.31975	0.01860
801.03398	0.01859
799.74821	0.01861
798.46244	0.01865
797.17667	0.01867
795.89090	0.01865
794.60513	0.01859
793.31937	0.01850
792.03360	0.01844
790.74783	0.01844
789.46206	0.01849
788.17629	0.01850
786.89052	0.01843
785.60475	0.01826
784.31898	0.01808
783.03322	0.01794
781.74745	0.01785
780.46168	0.01786
779.17591	0.01801
777.89014	0.01826
776.60437	0.01852
775.31860	0.01869
774.03283	0.01873
772.74706	0.01864
771.46130	0.01848
770.17553	0.01833
768.88976	0.01822
767.60399	0.01818
766.31822	0.01822
765.03245	0.01832
763.74668	0.01845
762.46091	0.01855
761.17515	0.01865
759.88938	0.01880
758.60361	0.01893
757.31784	0.01897
756.03207	0.01891
754.74630	0.01885
753.46053	0.01886
752.17476	0.01895
750.88899	0.01905
749.60323	0.01913
748.31746	0.01914
747.03169	0.01910
745.74592	0.01903
744.46015	0.01896
743.17438	0.01892
741.88861	0.01889
740.60284	0.01884
739.31708	0.01875
738.03131	0.01867
736.74554	0.01869
735.45977	0.01882
734.17400	0.01892
732.88823	0.01882
731.60246	0.01854
730.31669	0.01829
729.03092	0.01823
727.74516	0.01834
726.45939	0.01848
725.17362	0.01857
723.88785	0.01865
722.60208	0.01877
721.31631	0.01891
720.03054	0.01900
718.74477	0.01898
717.45901	0.01889
716.17324	0.01881
714.88747	0.01878
713.60170	0.01878
712.31593	0.01879
711.03016	0.01881
709.74439	0.01883
708.45862	0.01883
707.17285	0.01879
705.88709	0.01872
704.60132	0.01867
703.31555	0.01866
702.02978	0.01871
700.74401	0.01878
699.45824	0.01885
698.17247	0.01889
696.88670	0.01890
695.60094	0.01887
694.31517	0.01882
693.02940	0.01879
691.74363	0.01879
690.45786	0.01881
689.17209	0.01884
687.88632	0.01885
686.60055	0.01884
685.31478	0.01880
684.02902	0.01872
682.74325	0.01862
681.45748	0.01855
680.17171	0.01851
678.88594	0.01849
677.60017	0.01844
676.31440	0.01836
675.02863	0.01833
673.74287	0.01837
672.45710	0.01849
671.17133	0.01861
669.88556	0.01870
668.59979	0.01874
667.31402	0.01877
666.02825	0.01874
664.74248	0.01865
663.45671	0.01851
662.17095	0.01835
660.88518	0.01824
659.59941	0.01820
658.31364	0.01821
657.02787	0.01825
655.74210	0.01829
654.45633	0.01832
653.17056	0.01833
651.88480	0.01832
650.59903	0.01833
649.31326	0.01839
648.02749	0.01853
646.74172	0.01868
645.45595	0.01880
644.17018	0.01888
642.88441	0.01895
641.59864	0.01906
640.31288	0.01922
639.02711	0.01939
637.74134	0.01954
636.45557	0.01973
635.16980	0.02004
633.88403	0.02045
632.59826	0.02085
631.31249	0.02146
630.02673	0.02343
628.74096	0.02638
627.45519	0.02575
626.16942	0.02907
624.88365	0.03490
623.59788	0.04021
622.31211	0.04417
621.02634	0.04698
619.74057	0.04917
618.45481	0.05109
617.16904	0.05261
615.88327	0.05321
614.59750	0.05265
613.31173	0.05166
612.02596	0.05162
610.74019	0.05364
609.45442	0.05760
608.16866	0.06236
606.88289	0.06682
605.59712	0.07053
604.31135	0.07334
603.02558	0.07497
601.73981	0.07505
600.45404	0.07349
599.16827	0.07065
597.88250	0.06720
596.59674	0.06378
595.31097	0.06087
594.02520	0.05873
592.73943	0.05740
591.45366	0.05670
590.16789	0.05647
588.88212	0.05665
587.59635	0.05730
586.31059	0.05838
585.02482	0.05983
583.73905	0.06157
582.45328	0.06358
581.16751	0.06587
579.88174	0.06836
578.59597	0.07089
577.31020	0.07328
576.02443	0.07543
574.73867	0.07735
573.45290	0.07921
572.16713	0.08119
570.88136	0.08340
569.59559	0.08587
568.30982	0.08857
567.02405	0.09131
565.73828	0.09376
564.45251	0.09548
563.16675	0.09613
561.88098	0.09554
560.59521	0.09366
559.30944	0.09055
558.02367	0.08632
556.73790	0.08125
555.45213	0.07575
554.16636	0.07024
552.88060	0.06501
551.59483	0.06026
550.30906	0.05607
549.02329	0.05248
547.73752	0.04941
546.45175	0.04675
545.16598	0.04435
543.88021	0.04215
542.59444	0.04016
541.30868	0.03841
540.02291	0.03686
538.73714	0.03542
537.45137	0.03402
536.16560	0.03271
534.87983	0.03152
533.59406	0.03049
532.30829	0.02962
531.02253	0.02889
529.73676	0.02826
528.45099	0.02765
527.16522	0.02702
525.87945	0.02634
524.59368	0.02567
523.30791	0.02506
522.02214	0.02447
520.73637	0.02388
519.45061	0.02330
518.16484	0.02281
516.87907	0.02243
515.59330	0.02210
514.30753	0.02176
513.02176	0.02134
511.73599	0.02090
510.45022	0.02047
509.16446	0.02011
507.87869	0.01981
506.59292	0.01953
505.30715	0.01922
504.02138	0.01893
502.73561	0.01871
501.44984	0.01859
500.16407	0.01847
498.87830	0.01826
497.59254	0.01794
496.30677	0.01764
495.02100	0.01743
493.73523	0.01735
492.44946	0.01734
491.16369	0.01738
489.87792	0.01744
488.59215	0.01751
487.30639	0.01757
486.02062	0.01757
484.73485	0.01748
483.44908	0.01735
482.16331	0.01725
480.87754	0.01719
479.59177	0.01719
478.30600	0.01724
477.02023	0.01736
475.73447	0.01757
474.44870	0.01784
473.16293	0.01814
471.87716	0.01841
470.59139	0.01861
469.30562	0.01870
468.01985	0.01865
466.73408	0.01849
465.44832	0.01828
464.16255	0.01806
462.87678	0.01784
461.59101	0.01761
460.30524	0.01737
459.01947	0.01717
457.73370	0.01705
456.44793	0.01700
455.16216	0.01695
453.87640	0.01684
452.59063	0.01666
451.30486	0.01645
450.01909	0.01625
448.73332	0.01611
447.44755	0.01606
446.16178	0.01605
444.87601	0.01606
443.59025	0.01604
442.30448	0.01598
441.01871	0.01591
439.73294	0.01585
438.44717	0.01584
437.16140	0.01587
435.87563	0.01591
434.58986	0.01593
433.30409	0.01590
432.01833	0.01588
430.73256	0.01592
429.44679	0.01604
428.16102	0.01618
426.87525	0.01624
425.58948	0.01619
424.30371	0.01604
423.01794	0.01590
421.73218	0.01582
420.44641	0.01580
419.16064	0.01580
417.87487	0.01579
416.58910	0.01579
415.30333	0.01581
414.01756	0.01580
412.73179	0.01576
411.44602	0.01570
410.16026	0.01569
408.87449	0.01576
407.58872	0.01590
406.30295	0.01604
405.01718	0.01617
403.73141	0.01628
402.44564	0.01640
401.15987	0.01657
399.87411	0.01677
