3997.45528	0.06898
3996.16951	0.06868
3994.88374	0.06842
3993.59798	0.06825
3992.31221	0.06818
3991.02644	0.06812
3989.74067	0.06801
3988.45490	0.06801
3987.16913	0.06841
3985.88336	0.06930
3984.59759	0.07028
3983.31183	0.07076
3982.02606	0.07040
3980.74029	0.06933
3979.45452	0.06795
3978.16875	0.06666
3976.88298	0.06577
3975.59721	0.06544
3974.31144	0.06565
3973.02567	0.06612
3971.73991	0.06655
3970.45414	0.06669
3969.16837	0.06642
3967.88260	0.06577
3966.59683	0.06505
3965.31106	0.06467
3964.02529	0.06481
3962.73952	0.06524
3961.45376	0.06563
3960.16799	0.06580
3958.88222	0.06575
3957.59645	0.06552
3956.31068	0.06515
3955.02491	0.06483
3953.73914	0.06475
3952.45337	0.06493
3951.16760	0.06522
3949.88184	0.06549
3948.59607	0.06571
3947.31030	0.06595
3946.02453	0.06627
3944.73876	0.06660
3943.45299	0.06669
3942.16722	0.06625
3940.88145	0.06533
3939.59569	0.06435
3938.30992	0.06372
3937.02415	0.06348
3935.73838	0.06334
3934.45261	0.06312
3933.16684	0.06292
3931.88107	0.06297
3930.59530	0.06329
3929.30953	0.06361
3928.02377	0.06358
3926.73800	0.06323
3925.45223	0.06286
3924.16646	0.06277
3922.88069	0.06297
3921.59492	0.06327
3920.30915	0.06356
3919.02338	0.06387
3917.73762	0.06423
3916.45185	0.06458
3915.16608	0.06472
3913.88031	0.06446
3912.59454	0.06368
3911.30877	0.06258
3910.02300	0.06164
3908.73723	0.06125
3907.45146	0.06139
3906.16570	0.06178
3904.87993	0.06224
3903.59416	0.06274
3902.30839	0.06318
3901.02262	0.06321
3899.73685	0.06256
3898.45108	0.06144
3897.16531	0.06055
3895.87955	0.06033
3894.59378	0.06057
3893.30801	0.06076
3892.02224	0.06064
3890.73647	0.06030
3889.45070	0.06004
3888.16493	0.06010
3886.87916	0.06030
3885.59339	0.06012
3884.30763	0.05925
3883.02186	0.05799
3881.73609	0.05693
3880.45032	0.05651
3879.16455	0.05677
3877.87878	0.05742
3876.59301	0.05807
3875.30724	0.05846
3874.02148	0.05858
3872.73571	0.05868
3871.44994	0.05890
3870.16417	0.05907
3868.87840	0.05896
3867.59263	0.05855
3866.30686	0.05792
3865.02109	0.05708
3863.73532	0.05623
3862.44956	0.05580
3861.16379	0.05608
3859.87802	0.05699
3858.59225	0.05822
3857.30648	0.05938
3856.02071	0.06000
3854.73494	0.05968
3853.44917	0.05842
3852.16341	0.05698
3850.87764	0.05632
3849.59187	0.05669
3848.30610	0.05764
3847.02033	0.05857
3845.73456	0.05915
3844.44879	0.05921
3843.16302	0.05878
3841.87725	0.05826
3840.59149	0.05808
3839.30572	0.05823
3838.01995	0.05813
3836.73418	0.05742
3835.44841	0.05643
3834.16264	0.05574
3832.87687	0.05547
3831.59110	0.05544
3830.30534	0.05558
3829.01957	0.05593
3827.73380	0.05634
3826.44803	0.05643
3825.16226	0.05614
3823.87649	0.05581
3822.59072	0.05571
3821.30495	0.05574
3820.01918	0.05578
3818.73342	0.05587
3817.44765	0.05593
3816.16188	0.05565
3814.87611	0.05505
3813.59034	0.05472
3812.30457	0.05509
3811.01880	0.05601
3809.73303	0.05702
3808.44726	0.05762
3807.16150	0.05740
3805.87573	0.05641
3804.58996	0.05527
3803.30419	0.05450
3802.01842	0.05396
3800.73265	0.05337
3799.44688	0.05294
3798.16111	0.05320
3796.87535	0.05429
3795.58958	0.05583
3794.30381	0.05724
3793.01804	0.05797
3791.73227	0.05774
3790.44650	0.05682
3789.16073	0.05582
3787.87496	0.05515
3786.58919	0.05479
3785.30343	0.05453
3784.01766	0.05428
3782.73189	0.05414
3781.44612	0.05418
3780.16035	0.05426
3778.87458	0.05417
3777.58881	0.05382
3776.30304	0.05331
3775.01728	0.05290
3773.73151	0.05284
3772.44574	0.05319
3771.15997	0.05373
3769.87420	0.05411
3768.58843	0.05423
3767.30266	0.05422
3766.01689	0.05410
3764.73112	0.05385
3763.44536	0.05365
3762.15959	0.05375
3760.87382	0.05408
3759.58805	0.05431
3758.30228	0.05427
3757.01651	0.05410
3755.73074	0.05403
3754.44497	0.05419
3753.15921	0.05449
3751.87344	0.05479
3750.58767	0.05497
3749.30190	0.05488
3748.01613	0.05450
3746.73036	0.05421
3745.44459	0.05417
3744.15882	0.05406
3742.87305	0.05372
3741.58729	0.05353
3740.30152	0.05373
3739.01575	0.05424
3737.72998	0.05481
3736.44421	0.05521
3735.15844	0.05540
3733.87267	0.05567
3732.58690	0.05630
3731.30114	0.05707
3730.01537	0.05747
3728.72960	0.05710
3727.44383	0.05588
3726.15806	0.05418
3724.87229	0.05262
3723.58652	0.05164
3722.30075	0.05115
3721.01498	0.05085
3719.72922	0.05067
3718.44345	0.05080
3717.15768	0.05134
3715.87191	0.05209
3714.58614	0.05265
3713.30037	0.05259
3712.01460	0.05182
3710.72883	0.05078
3709.44307	0.05014
3708.15730	0.05029
3706.87153	0.05103
3705.58576	0.05189
3704.29999	0.05256
3703.01422	0.05290
3701.72845	0.05290
3700.44268	0.05255
3699.15691	0.05192
3697.87115	0.05116
3696.58538	0.05049
3695.29961	0.05022
3694.01384	0.05040
3692.72807	0.05073
3691.44230	0.05091
3690.15653	0.05089
3688.87076	0.05078
3687.58500	0.05067
3686.29923	0.05082
3685.01346	0.05132
3683.72769	0.05189
3682.44192	0.05219
3681.15615	0.05214
3679.87038	0.05184
3678.58461	0.05133
3677.29884	0.05069
3676.01308	0.05011
3674.72731	0.04985
3673.44154	0.05012
3672.15577	0.05072
3670.87000	0.05095
3669.58423	0.05043
3668.29846	0.04963
3667.01269	0.04932
3665.72693	0.04972
3664.44116	0.05046
3663.15539	0.05100
3661.86962	0.05106
3660.58385	0.05081
3659.29808	0.05060
3658.01231	0.05057
3656.72654	0.05046
3655.44077	0.05013
3654.15501	0.04995
3652.86924	0.05038
3651.58347	0.05130
3650.29770	0.05201
3649.01193	0.05206
3647.72616	0.05157
3646.44039	0.05093
3645.15462	0.05040
3643.86886	0.05008
3642.58309	0.04997
3641.29732	0.04995
3640.01155	0.04981
3638.72578	0.04942
3637.44001	0.04900
3636.15424	0.04899
3634.86847	0.04955
3633.58270	0.05033
3632.29694	0.05086
3631.01117	0.05094
3629.72540	0.05071
3628.43963	0.05038
3627.15386	0.05015
3625.86809	0.05010
3624.58232	0.05005
3623.29655	0.04993
3622.01079	0.04993
3620.72502	0.05022
3619.43925	0.05055
3618.15348	0.05056
3616.86771	0.05038
3615.58194	0.05047
3614.29617	0.05098
3613.01040	0.05152
3611.72463	0.05164
3610.43887	0.05130
3609.15310	0.05082
3607.86733	0.05054
3606.58156	0.05056
3605.29579	0.05082
3604.01002	0.05112
3602.72425	0.05128
3601.43848	0.05126
3600.15272	0.05109
3598.86695	0.05086
3597.58118	0.05068
3596.29541	0.05080
3595.00964	0.05137
3593.72387	0.05214
3592.43810	0.05250
3591.15233	0.05214
3589.86656	0.05159
3588.58080	0.05153
3587.29503	0.05205
3586.00926	0.05260
3584.72349	0.05271
3583.43772	0.05250
3582.15195	0.05232
3580.86618	0.05243
3579.58041	0.05272
3578.29464	0.05299
3577.00888	0.05305
3575.72311	0.05288
3574.43734	0.05249
3573.15157	0.05188
3571.86580	0.05118
3570.58003	0.05062
3569.29426	0.05036
3568.00849	0.05028
3566.72273	0.05014
3565.43696	0.04992
3564.15119	0.04982
3562.86542	0.04994
3561.57965	0.05016
3560.29388	0.05038
3559.00811	0.05068
3557.72234	0.05119
3556.43657	0.05183
3555.15081	0.05233
3553.86504	0.05252
3552.57927	0.05236
3551.29350	0.05193
3550.00773	0.05138
3548.72196	0.05084
3547.43619	0.05050
3546.15042	0.05047
3544.86466	0.05075
3543.57889	0.05122
3542.29312	0.05166
3541.00735	0.05193
3539.72158	0.05203
3538.43581	0.05203
3537.15004	0.05194
3535.86427	0.05180
3534.57850	0.05175
3533.29274	0.05200
3532.00697	0.05251
3530.72120	0.05301
3529.43543	0.05321
3528.14966	0.05300
3526.86389	0.05246
3525.57812	0.05188
3524.29235	0.05157
3523.00659	0.05167
3521.72082	0.05207
3520.43505	0.05245
3519.14928	0.05257
3517.86351	0.05245
3516.57774	0.05226
3515.29197	0.05221
3514.00620	0.05242
3512.72043	0.05281
3511.43467	0.05324
3510.14890	0.05354
3508.86313	0.05360
3507.57736	0.05342
3506.29159	0.05315
3505.00582	0.05292
3503.72005	0.05280
3502.43428	0.05279
3501.14852	0.05293
3499.86275	0.05325
3498.57698	0.05360
3497.29121	0.05370
3496.00544	0.05343
3494.71967	0.05300
3493.43390	0.05284
3492.14813	0.05317
3490.86236	0.05377
3489.57660	0.05421
3488.29083	0.05423
3487.00506	0.05389
3485.71929	0.05344
3484.43352	0.05304
3483.14775	0.05282
3481.86198	0.05286
3480.57621	0.05322
3479.29045	0.05372
3478.00468	0.05403
3476.71891	0.05399
3475.43314	0.05374
3474.14737	0.05364
3472.86160	0.05393
3471.57583	0.05454
3470.29006	0.05514
3469.00429	0.05535
3467.71853	0.05504
3466.43276	0.05441
3465.14699	0.05380
3463.86122	0.05340
3462.57545	0.05314
3461.28968	0.05286
3460.00391	0.05260
3458.71814	0.05258
3457.43238	0.05290
3456.14661	0.05340
3454.86084	0.05375
3453.57507	0.05385
3452.28930	0.05387
3451.00353	0.05405
3449.71776	0.05447
3448.43199	0.05495
3447.14622	0.05528
3445.86046	0.05535
3444.57469	0.05518
3443.28892	0.05489
3442.00315	0.05466
3440.71738	0.05466
3439.43161	0.05490
3438.14584	0.05520
3436.86007	0.05553
3435.57431	0.05596
3434.28854	0.05636
3433.00277	0.05628
3431.71700	0.05546
3430.43123	0.05428
3429.14546	0.05349
3427.85969	0.05348
3426.57392	0.05399
3425.28815	0.05455
3424.00239	0.05495
3422.71662	0.05519
3421.43085	0.05531
3420.14508	0.05526
3418.85931	0.05508
3417.57354	0.05492
3416.28777	0.05486
3415.00200	0.05486
3413.71624	0.05484
3412.43047	0.05471
3411.14470	0.05438
3409.85893	0.05386
3408.57316	0.05342
3407.28739	0.05341
3406.00162	0.05391
3404.71585	0.05461
3403.43008	0.05513
3402.14432	0.05534
3400.85855	0.05540
3399.57278	0.05545
3398.28701	0.05552
3397.00124	0.05554
3395.71547	0.05539
3394.42970	0.05508
3393.14393	0.05467
3391.85817	0.05425
3390.57240	0.05400
3389.28663	0.05406
3388.00086	0.05441
3386.71509	0.05482
3385.42932	0.05512
3384.14355	0.05530
3382.85778	0.05553
3381.57201	0.05592
3380.28625	0.05643
3379.00048	0.05685
3377.71471	0.05699
3376.42894	0.05682
3375.14317	0.05647
3373.85740	0.05610
3372.57163	0.05581
3371.28586	0.05564
3370.00010	0.05558
3368.71433	0.05559
3367.42856	0.05559
3366.14279	0.05546
3364.85702	0.05518
3363.57125	0.05481
3362.28548	0.05448
3360.99971	0.05431
3359.71394	0.05435
3358.42818	0.05453
3357.14241	0.05476
3355.85664	0.05497
3354.57087	0.05519
3353.28510	0.05542
3351.99933	0.05564
3350.71356	0.05583
3349.42779	0.05601
3348.14202	0.05625
3346.85626	0.05653
3345.57049	0.05670
3344.28472	0.05658
3342.99895	0.05612
3341.71318	0.05549
3340.42741	0.05492
3339.14164	0.05458
3337.85587	0.05454
3336.57011	0.05477
3335.28434	0.05514
3333.99857	0.05549
3332.71280	0.05571
3331.42703	0.05577
3330.14126	0.05565
3328.85549	0.05546
3327.56972	0.05537
3326.28395	0.05554
3324.99819	0.05588
3323.71242	0.05619
3322.42665	0.05636
3321.14088	0.05643
3319.85511	0.05651
3318.56934	0.05660
3317.28357	0.05668
3315.99780	0.05685
3314.71204	0.05717
3313.42627	0.05753
3312.14050	0.05765
3310.85473	0.05734
3309.56896	0.05668
3308.28319	0.05596
3306.99742	0.05553
3305.71165	0.05551
3304.42588	0.05577
3303.14012	0.05604
3301.85435	0.05615
3300.56858	0.05608
3299.28281	0.05592
3297.99704	0.05575
3296.71127	0.05565
3295.42550	0.05569
3294.13973	0.05587
3292.85397	0.05601
3291.56820	0.05589
3290.28243	0.05549
3288.99666	0.05505
3287.71089	0.05480
3286.42512	0.05483
3285.13935	0.05509
3283.85358	0.05551
3282.56781	0.05599
3281.28205	0.05644
3279.99628	0.05684
3278.71051	0.05716
3277.42474	0.05735
3276.13897	0.05732
3274.85320	0.05712
3273.56743	0.05688
3272.28166	0.05669
3270.99590	0.05649
3269.71013	0.05610
3268.42436	0.05547
3267.13859	0.05486
3265.85282	0.05466
3264.56705	0.05501
3263.28128	0.05565
3261.99551	0.05612
3260.70974	0.05624
3259.42398	0.05613
3258.13821	0.05599
3256.85244	0.05587
3255.56667	0.05566
3254.28090	0.05523
3252.99513	0.05464
3251.70936	0.05407
3250.42359	0.05379
3249.13783	0.05393
3247.85206	0.05442
3246.56629	0.05501
3245.28052	0.05540
3243.99475	0.05544
3242.70898	0.05518
3241.42321	0.05482
3240.13744	0.05457
3238.85167	0.05454
3237.56591	0.05471
3236.28014	0.05497
3234.99437	0.05513
3233.70860	0.05506
3232.42283	0.05483
3231.13706	0.05462
3229.85129	0.05459
3228.56552	0.05477
3227.27976	0.05502
3225.99399	0.05514
3224.70822	0.05499
3223.42245	0.05458
3222.13668	0.05413
3220.85091	0.05395
3219.56514	0.05415
3218.27937	0.05453
3216.99360	0.05476
3215.70784	0.05469
3214.42207	0.05440
3213.13630	0.05404
3211.85053	0.05371
3210.56476	0.05342
3209.27899	0.05321
3207.99322	0.05312
3206.70745	0.05313
3205.42169	0.05316
3204.13592	0.05313
3202.85015	0.05305
3201.56438	0.05298
3200.27861	0.05295
3198.99284	0.05294
3197.70707	0.05289
3196.42130	0.05286
3195.13553	0.05288
3193.84977	0.05295
3192.56400	0.05303
3191.27823	0.05307
3189.99246	0.05307
3188.70669	0.05305
3187.42092	0.05299
3186.13515	0.05284
3184.84938	0.05265
3183.56362	0.05253
3182.27785	0.05254
3180.99208	0.05257
3179.70631	0.05249
3178.42054	0.05232
3177.13477	0.05220
3175.84900	0.05214
3174.56323	0.05203
3173.27746	0.05184
3171.99170	0.05173
3170.70593	0.05184
3169.42016	0.05208
3168.13439	0.05227
3166.84862	0.05230
3165.56285	0.05224
3164.27708	0.05224
3162.99131	0.05228
3161.70555	0.05229
3160.41978	0.05225
3159.13401	0.05226
3157.84824	0.05236
3156.56247	0.05244
3155.27670	0.05234
3153.99093	0.05202
3152.70516	0.05166
3151.41939	0.05146
3150.13363	0.05147
3148.84786	0.05153
3147.56209	0.05143
3146.27632	0.05115
3144.99055	0.05084
3143.70478	0.05068
3142.41901	0.05075
3141.13324	0.05097
3139.84748	0.05117
3138.56171	0.05118
3137.27594	0.05102
3135.99017	0.05082
3134.70440	0.05072
3133.41863	0.05072
3132.13286	0.05071
3130.84709	0.05060
3129.56132	0.05037
3128.27556	0.05011
3126.98979	0.04993
3125.70402	0.04990
3124.41825	0.05001
3123.13248	0.05014
3121.84671	0.05015
3120.56094	0.04996
3119.27517	0.04967
3117.98940	0.04951
3116.70364	0.04961
3115.41787	0.04988
3114.13210	0.05010
3112.84633	0.05015
3111.56056	0.05009
3110.27479	0.05003
3108.98902	0.05005
3107.70325	0.05008
3106.41749	0.04999
3105.13172	0.04968
3103.84595	0.04922
3102.56018	0.04880
3101.27441	0.04855
3099.98864	0.04846
3098.70287	0.04841
3097.41710	0.04835
3096.13133	0.04830
3094.84557	0.04831
3093.55980	0.04839
3092.27403	0.04849
3090.98826	0.04854
3089.70249	0.04851
3088.41672	0.04844
3087.13095	0.04836
3085.84518	0.04828
3084.55942	0.04819
3083.27365	0.04807
3081.98788	0.04797
3080.70211	0.04789
3079.41634	0.04782
3078.13057	0.04774
3076.84480	0.04771
3075.55903	0.04782
3074.27326	0.04808
3072.98750	0.04840
3071.70173	0.04867
3070.41596	0.04877
3069.13019	0.04863
3067.84442	0.04823
3066.55865	0.04768
3065.27288	0.04723
3063.98711	0.04706
3062.70135	0.04713
3061.41558	0.04724
3060.12981	0.04724
3058.84404	0.04718
3057.55827	0.04715
3056.27250	0.04715
3054.98673	0.04709
3053.70096	0.04690
3052.41519	0.04664
3051.12943	0.04642
3049.84366	0.04629
3048.55789	0.04622
3047.27212	0.04620
3045.98635	0.04624
3044.70058	0.04636
3043.41481	0.04652
3042.12904	0.04667
3040.84328	0.04671
3039.55751	0.04657
3038.27174	0.04624
3036.98597	0.04580
3035.70020	0.04545
3034.41443	0.04529
3033.12866	0.04532
3031.84289	0.04547
3030.55712	0.04570
3029.27136	0.04591
3027.98559	0.04591
3026.69982	0.04562
3025.41405	0.04520
3024.12828	0.04489
3022.84251	0.04480
3021.55674	0.04480
3020.27097	0.04468
3018.98521	0.04437
3017.69944	0.04402
3016.41367	0.04384
3015.12790	0.04393
3013.84213	0.04425
3012.55636	0.04462
3011.27059	0.04486
3009.98482	0.04489
3008.69905	0.04473
3007.41329	0.04445
3006.12752	0.04417
3004.84175	0.04392
3003.55598	0.04377
3002.27021	0.04376
3000.98444	0.04384
2999.69867	0.04389
2998.41290	0.04388
2997.12714	0.04379
2995.84137	0.04371
2994.55560	0.04366
2993.26983	0.04358
2991.98406	0.04341
2990.69829	0.04316
2989.41252	0.04295
2988.12675	0.04296
2986.84098	0.04327
2985.55522	0.04379
2984.26945	0.04424
2982.98368	0.04436
2981.69791	0.04417
2980.41214	0.04389
2979.12637	0.04373
2977.84060	0.04377
2976.55483	0.04392
2975.26907	0.04412
2973.98330	0.04430
2972.69753	0.04452
2971.41176	0.04479
2970.12599	0.04510
2968.84022	0.04538
2967.55445	0.04572
2966.26868	0.04622
2964.98291	0.04684
2963.69715	0.04735
2962.41138	0.04756
2961.12561	0.04753
2959.83984	0.04749
2958.55407	0.04762
2957.26830	0.04784
2955.98253	0.04799
2954.69676	0.04798
2953.41100	0.04791
2952.12523	0.04788
2950.83946	0.04793
2949.55369	0.04797
2948.26792	0.04789
2946.98215	0.04766
2945.69638	0.04731
2944.41061	0.04697
2943.12484	0.04669
2941.83908	0.04647
2940.55331	0.04632
2939.26754	0.04632
2937.98177	0.04653
2936.69600	0.04686
2935.41023	0.04718
2934.12446	0.04736
2932.83869	0.04740
2931.55293	0.04735
2930.26716	0.04731
2928.98139	0.04739
2927.69562	0.04750
2926.40985	0.04746
2925.12408	0.04723
2923.83831	0.04697
2922.55254	0.04682
2921.26677	0.04677
2919.98101	0.04672
2918.69524	0.04668
2917.40947	0.04672
2916.12370	0.04675
2914.83793	0.04663
2913.55216	0.04631
2912.26639	0.04597
2910.98062	0.04577
2909.69486	0.04569
2908.40909	0.04554
2907.12332	0.04524
2905.83755	0.04495
2904.55178	0.04491
2903.26601	0.04517
2901.98024	0.04550
2900.69447	0.04556
2899.40870	0.04521
2898.12294	0.04460
2896.83717	0.04407
2895.55140	0.04385
2894.26563	0.04387
2892.97986	0.04387
2891.69409	0.04370
2890.40832	0.04342
2889.12255	0.04318
2887.83678	0.04299
2886.55102	0.04281
2885.26525	0.04263
2883.97948	0.04245
2882.69371	0.04228
2881.40794	0.04213
2880.12217	0.04208
2878.83640	0.04218
2877.55063	0.04239
2876.26487	0.04263
2874.97910	0.04285
2873.69333	0.04304
2872.40756	0.04313
2871.12179	0.04311
2869.83602	0.04305
2868.55025	0.04299
2867.26448	0.04290
2865.97871	0.04274
2864.69295	0.04256
2863.40718	0.04240
2862.12141	0.04227
2860.83564	0.04209
2859.54987	0.04182
2858.26410	0.04152
2856.97833	0.04129
2855.69256	0.04118
2854.40680	0.04113
2853.12103	0.04103
2851.83526	0.04077
2850.54949	0.04033
2849.26372	0.03979
2847.97795	0.03938
2846.69218	0.03921
2845.40641	0.03924
2844.12064	0.03930
2842.83488	0.03928
2841.54911	0.03920
2840.26334	0.03908
2838.97757	0.03892
2837.69180	0.03873
2836.40603	0.03848
2835.12026	0.03821
2833.83449	0.03803
2832.54873	0.03803
2831.26296	0.03821
2829.97719	0.03841
2828.69142	0.03851
2827.40565	0.03853
2826.11988	0.03852
2824.83411	0.03848
2823.54834	0.03834
2822.26257	0.03807
2820.97681	0.03770
2819.69104	0.03735
2818.40527	0.03708
2817.11950	0.03691
2815.83373	0.03678
2814.54796	0.03663
2813.26219	0.03639
2811.97642	0.03606
2810.69066	0.03573
2809.40489	0.03548
2808.11912	0.03532
2806.83335	0.03528
2805.54758	0.03538
2804.26181	0.03555
2802.97604	0.03565
2801.69027	0.03564
2800.40450	0.03558
2799.11874	0.03553
2797.83297	0.03541
2796.54720	0.03517
2795.26143	0.03492
2793.97566	0.03480
2792.68989	0.03480
2791.40412	0.03481
2790.11835	0.03483
2788.83259	0.03490
2787.54682	0.03500
2786.26105	0.03496
2784.97528	0.03473
2783.68951	0.03442
2782.40374	0.03419
2781.11797	0.03408
2779.83220	0.03404
2778.54643	0.03405
2777.26067	0.03409
2775.97490	0.03416
2774.68913	0.03422
2773.40336	0.03423
2772.11759	0.03418
2770.83182	0.03408
2769.54605	0.03396
2768.26028	0.03387
2766.97452	0.03377
2765.68875	0.03364
2764.40298	0.03352
2763.11721	0.03343
2761.83144	0.03339
2760.54567	0.03346
2759.25990	0.03367
2757.97413	0.03401
2756.68836	0.03431
2755.40260	0.03441
2754.11683	0.03427
2752.83106	0.03398
2751.54529	0.03368
2750.25952	0.03350
2748.97375	0.03350
2747.68798	0.03361
2746.40221	0.03369
2745.11645	0.03364
2743.83068	0.03342
2742.54491	0.03315
2741.25914	0.03295
2739.97337	0.03287
2738.68760	0.03281
2737.40183	0.03270
2736.11606	0.03255
2734.83029	0.03245
2733.54453	0.03246
2732.25876	0.03247
2730.97299	0.03239
2729.68722	0.03225
2728.40145	0.03216
2727.11568	0.03218
2725.82991	0.03228
2724.54414	0.03236
2723.25838	0.03235
2721.97261	0.03220
2720.68684	0.03199
2719.40107	0.03187
2718.11530	0.03196
2716.82953	0.03218
2715.54376	0.03231
2714.25799	0.03225
2712.97222	0.03205
2711.68646	0.03178
2710.40069	0.03152
2709.11492	0.03134
2707.82915	0.03126
2706.54338	0.03123
2705.25761	0.03116
2703.97184	0.03106
2702.68607	0.03099
2701.40031	0.03098
2700.11454	0.03096
2698.82877	0.03090
2697.54300	0.03086
2696.25723	0.03089
2694.97146	0.03092
2693.68569	0.03088
2692.39992	0.03076
2691.11415	0.03067
2689.82839	0.03068
2688.54262	0.03074
2687.25685	0.03075
2685.97108	0.03071
2684.68531	0.03071
2683.39954	0.03079
2682.11377	0.03087
2680.82800	0.03083
2679.54224	0.03070
2678.25647	0.03056
2676.97070	0.03043
2675.68493	0.03030
2674.39916	0.03013
2673.11339	0.02997
2671.82762	0.02992
2670.54185	0.03007
2669.25608	0.03038
2667.97032	0.03069
2666.68455	0.03088
2665.39878	0.03090
2664.11301	0.03083
2662.82724	0.03074
2661.54147	0.03064
2660.25570	0.03052
2658.96993	0.03040
2657.68417	0.03032
2656.39840	0.03032
2655.11263	0.03036
2653.82686	0.03044
2652.54109	0.03056
2651.25532	0.03071
2649.96955	0.03083
2648.68378	0.03083
2647.39801	0.03063
2646.11225	0.03030
2644.82648	0.02999
2643.54071	0.02982
2642.25494	0.02976
2640.96917	0.02970
2639.68340	0.02955
2638.39763	0.02931
2637.11186	0.02905
2635.82609	0.02882
2634.54033	0.02869
2633.25456	0.02869
2631.96879	0.02877
2630.68302	0.02883
2629.39725	0.02877
2628.11148	0.02861
2626.82571	0.02838
2625.53994	0.02816
2624.25418	0.02801
2622.96841	0.02802
2621.68264	0.02815
2620.39687	0.02823
2619.11110	0.02813
2617.82533	0.02793
2616.53956	0.02781
2615.25379	0.02778
2613.96802	0.02774
2612.68226	0.02759
2611.39649	0.02740
2610.11072	0.02730
2608.82495	0.02738
2607.53918	0.02757
2606.25341	0.02768
2604.96764	0.02750
2603.68187	0.02709
2602.39611	0.02672
2601.11034	0.02666
2599.82457	0.02683
2598.53880	0.02697
2597.25303	0.02691
2595.96726	0.02671
2594.68149	0.02653
2593.39572	0.02647
2592.10995	0.02653
2590.82419	0.02670
2589.53842	0.02696
2588.25265	0.02720
2586.96688	0.02721
2585.68111	0.02696
2584.39534	0.02667
2583.10957	0.02667
2581.82380	0.02694
2580.53804	0.02712
2579.25227	0.02695
2577.96650	0.02650
2576.68073	0.02603
2575.39496	0.02559
2574.10919	0.02511
2572.82342	0.02461
2571.53765	0.02426
2570.25188	0.02415
2568.96612	0.02425
2567.68035	0.02446
2566.39458	0.02472
2565.10881	0.02499
2563.82304	0.02519
2562.53727	0.02525
2561.25150	0.02516
2559.96573	0.02496
2558.67997	0.02466
2557.39420	0.02437
2556.10843	0.02427
2554.82266	0.02446
2553.53689	0.02477
2552.25112	0.02499
2550.96535	0.02504
2549.67958	0.02502
2548.39381	0.02506
2547.10805	0.02510
2545.82228	0.02504
2544.53651	0.02488
2543.25074	0.02471
2541.96497	0.02461
2540.67920	0.02451
2539.39343	0.02424
2538.10766	0.02374
2536.82190	0.02312
2535.53613	0.02261
2534.25036	0.02240
2532.96459	0.02258
2531.67882	0.02305
2530.39305	0.02366
2529.10728	0.02421
2527.82151	0.02458
2526.53574	0.02469
2525.24998	0.02458
2523.96421	0.02435
2522.67844	0.02413
2521.39267	0.02398
2520.10690	0.02390
2518.82113	0.02384
2517.53536	0.02380
2516.24959	0.02380
2514.96383	0.02390
2513.67806	0.02406
2512.39229	0.02421
2511.10652	0.02425
2509.82075	0.02419
2508.53498	0.02413
2507.24921	0.02416
2505.96344	0.02427
2504.67767	0.02430
2503.39191	0.02415
2502.10614	0.02382
2500.82037	0.02346
2499.53460	0.02317
2498.24883	0.02294
2496.96306	0.02268
2495.67729	0.02241
2494.39152	0.02230
2493.10576	0.02252
2491.81999	0.02304
2490.53422	0.02351
2489.24845	0.02351
2487.96268	0.02302
2486.67691	0.02239
2485.39114	0.02196
2484.10537	0.02174
2482.81960	0.02161
2481.53384	0.02160
2480.24807	0.02177
2478.96230	0.02206
2477.67653	0.02234
2476.39076	0.02257
2475.10499	0.02277
2473.81922	0.02293
2472.53345	0.02297
2471.24769	0.02288
2469.96192	0.02271
2468.67615	0.02250
2467.39038	0.02239
2466.10461	0.02252
2464.81884	0.02287
2463.53307	0.02323
2462.24730	0.02333
2460.96153	0.02310
2459.67577	0.02266
2458.39000	0.02221
2457.10423	0.02190
2455.81846	0.02186
2454.53269	0.02210
2453.24692	0.02249
2451.96115	0.02273
2450.67538	0.02262
2449.38962	0.02218
2448.10385	0.02168
2446.81808	0.02141
2445.53231	0.02148
2444.24654	0.02177
2442.96077	0.02201
2441.67500	0.02199
2440.38923	0.02178
2439.10346	0.02165
2437.81770	0.02178
2436.53193	0.02202
2435.24616	0.02207
2433.96039	0.02183
2432.67462	0.02155
2431.38885	0.02156
2430.10308	0.02188
2428.81731	0.02218
2427.53155	0.02212
2426.24578	0.02173
2424.96001	0.02127
2423.67424	0.02097
2422.38847	0.02085
2421.10270	0.02080
2419.81693	0.02077
2418.53116	0.02077
2417.24539	0.02081
2415.95963	0.02085
2414.67386	0.02091
2413.38809	0.02101
2412.10232	0.02114
2410.81655	0.02123
2409.53078	0.02119
2408.24501	0.02112
2406.95924	0.02118
2405.67347	0.02144
2404.38771	0.02187
2403.10194	0.02230
2401.81617	0.02249
2400.53040	0.02233
2399.24463	0.02200
2397.95886	0.02150
2396.67309	0.02111
2395.38732	0.02088
2394.10156	0.02073
2392.81579	0.02065
2391.53002	0.02067
2390.24425	0.02082
2388.95848	0.02107
2387.67271	0.02126
2386.38694	0.02129
2385.10117	0.02121
2383.81540	0.02114
2382.52964	0.02118
2381.24387	0.02122
2379.95810	0.02122
2378.67233	0.02094
2377.38656	0.02057
2376.10079	0.02047
2374.81502	0.02063
2373.52925	0.02047
2372.24349	0.02007
2370.95772	0.01987
2369.67195	0.01983
2368.38618	0.01988
2367.10041	0.01997
2365.81464	0.02010
2364.52887	0.02015
2363.24310	0.02007
2361.95733	0.01993
2360.67157	0.01986
2359.38580	0.01998
2358.10003	0.02012
2356.81426	0.02030
2355.52849	0.02075
2354.24272	0.02147
2352.95695	0.02208
2351.67118	0.02190
2350.38542	0.02152
2349.09965	0.02155
2347.81388	0.02163
2346.52811	0.02137
2345.24234	0.02114
2343.95657	0.02128
2342.67080	0.02200
2341.38503	0.02166
2340.09926	0.02064
2338.81350	0.02045
2337.52773	0.02098
2336.24196	0.02080
2334.95619	0.02069
2333.67042	0.02121
2332.38465	0.02207
2331.09888	0.02140
2329.81311	0.02135
2328.52735	0.02193
2327.24158	0.02221
2325.95581	0.02282
2324.67004	0.02356
2323.38427	0.02429
2322.09850	0.02404
2320.81273	0.02343
2319.52696	0.02281
2318.24119	0.02232
2316.95543	0.02193
2315.66966	0.02172
2314.38389	0.02182
2313.09812	0.02180
2311.81235	0.02149
2310.52658	0.02116
2309.24081	0.02100
2307.95504	0.02098
2306.66928	0.02110
2305.38351	0.02120
2304.09774	0.02127
2302.81197	0.02131
2301.52620	0.02132
2300.24043	0.02131
2298.95466	0.02120
2297.66889	0.02090
2296.38312	0.02046
2295.09736	0.02007
2293.81159	0.01988
2292.52582	0.01981
2291.24005	0.01976
2289.95428	0.01971
2288.66851	0.01974
2287.38274	0.01993
2286.09697	0.02026
2284.81121	0.02062
2283.52544	0.02083
2282.23967	0.02077
2280.95390	0.02044
2279.66813	0.01994
2278.38236	0.01940
2277.09659	0.01888
2275.81082	0.01847
2274.52505	0.01833
2273.23929	0.01849
2271.95352	0.01878
2270.66775	0.01895
2269.38198	0.01888
2268.09621	0.01857
2266.81044	0.01813
2265.52467	0.01767
2264.23890	0.01730
2262.95314	0.01710
2261.66737	0.01705
2260.38160	0.01715
2259.09583	0.01729
2257.81006	0.01735
2256.52429	0.01723
2255.23852	0.01694
2253.95275	0.01663
2252.66698	0.01639
2251.38122	0.01624
2250.09545	0.01621
2248.80968	0.01642
2247.52391	0.01651
2246.23814	0.01668
2244.95237	0.01712
2243.66660	0.01786
2242.38083	0.01850
2241.09507	0.01853
2239.80930	0.01790
2238.52353	0.01711
2237.23776	0.01670
2235.95199	0.01675
2234.66622	0.01688
2233.38045	0.01668
2232.09468	0.01601
2230.80891	0.01498
2229.52315	0.01381
2228.23738	0.01281
2226.95161	0.01247
2225.66584	0.01310
2224.38007	0.01439
2223.09430	0.01555
2221.80853	0.01603
2220.52276	0.01591
2219.23700	0.01555
2217.95123	0.01527
2216.66546	0.01513
2215.37969	0.01511
2214.09392	0.01512
2212.80815	0.01510
2211.52238	0.01495
2210.23661	0.01459
2208.95084	0.01407
2207.66508	0.01368
2206.37931	0.01372
2205.09354	0.01424
2203.80777	0.01489
2202.52200	0.01517
2201.23623	0.01483
2199.95046	0.01407
2198.66469	0.01332
2197.37893	0.01282
2196.09316	0.01238
2194.80739	0.01183
2193.52162	0.01126
2192.23585	0.01094
2190.95008	0.01091
2189.66431	0.01103
2188.37854	0.01122
2187.09277	0.01148
2185.80701	0.01173
2184.52124	0.01186
2183.23547	0.01184
2181.94970	0.01169
2180.66393	0.01123
2179.37816	0.01021
2178.09239	0.00863
2176.80662	0.00712
2175.52085	0.00656
2174.23509	0.00737
2172.94932	0.00913
2171.66355	0.01088
2170.37778	0.01177
2169.09201	0.01145
2167.80624	0.01032
2166.52047	0.00920
2165.23470	0.00878
2163.94894	0.00906
2162.66317	0.00938
2161.37740	0.00887
2160.09163	0.00729
2158.80586	0.00537
2157.52009	0.00415
2156.23432	0.00382
2154.94855	0.00385
2153.66278	0.00384
2152.37702	0.00394
2151.09125	0.00445
2149.80548	0.00532
2148.51971	0.00621
2147.23394	0.00680
2145.94817	0.00709
2144.66240	0.00724
2143.37663	0.00730
2142.09087	0.00717
2140.80510	0.00694
2139.51933	0.00696
2138.23356	0.00745
2136.94779	0.00811
2135.66202	0.00848
2134.37625	0.00845
2133.09048	0.00828
2131.80471	0.00818
2130.51895	0.00812
2129.23318	0.00814
2127.94741	0.00854
2126.66164	0.00944
2125.37587	0.01053
2124.09010	0.01124
2122.80433	0.01136
2121.51856	0.01120
2120.23280	0.01113
2118.94703	0.01119
2117.66126	0.01121
2116.37549	0.01113
2115.08972	0.01117
2113.80395	0.01148
2112.51818	0.01198
2111.23241	0.01242
2109.94664	0.01261
2108.66088	0.01247
2107.37511	0.01205
2106.08934	0.01159
2104.80357	0.01144
2103.51780	0.01166
2102.23203	0.01181
2100.94626	0.01140
2099.66049	0.00994
2098.37473	0.00903
2097.08896	0.00874
2095.80319	0.00865
2094.51742	0.00857
2093.23165	0.00863
2091.94588	0.00897
2090.66011	0.00952
2089.37434	0.01005
2088.08857	0.01040
2086.80281	0.01060
2085.51704	0.01084
2084.23127	0.01125
2082.94550	0.01168
2081.65973	0.01175
2080.37396	0.01119
2079.08819	0.01018
2077.80242	0.00918
2076.51666	0.00855
2075.23089	0.00822
2073.94512	0.00805
2072.65935	0.00810
2071.37358	0.00843
2070.08781	0.00887
2068.80204	0.00913
2067.51627	0.00912
2066.23050	0.00899
2064.94474	0.00885
2063.65897	0.00857
2062.37320	0.00811
2061.08743	0.00769
2059.80166	0.00757
2058.51589	0.00768
2057.23012	0.00766
2055.94435	0.00733
2054.65859	0.00694
2053.37282	0.00682
2052.08705	0.00698
2050.80128	0.00708
2049.51551	0.00671
2048.22974	0.00572
2046.94397	0.00424
2045.65820	0.00274
2044.37243	0.00186
2043.08667	0.00192
2041.80090	0.00270
2040.51513	0.00355
2039.22936	0.00391
2037.94359	0.00363
2036.65782	0.00288
2035.37205	0.00204
2034.08628	0.00162
2032.80052	0.00189
2031.51475	0.00256
2030.22898	0.00297
2028.94321	0.00295
2027.65744	0.00306
2026.37167	0.00395
2025.08590	0.00537
2023.80013	0.00638
2022.51436	0.00627
2021.22860	0.00520
2019.94283	0.00389
2018.65706	0.00291
2017.37129	0.00239
2016.08552	0.00230
2014.79975	0.00260
2013.51398	0.00322
2012.22821	0.00395
2010.94245	0.00453
2009.65668	0.00483
2008.37091	0.00482
2007.08514	0.00455
2005.79937	0.00415
2004.51360	0.00391
2003.22783	0.00406
2001.94206	0.00466
2000.65629	0.00550
1999.37053	0.00626
1998.08476	0.00674
1996.79899	0.00711
1995.51322	0.00770
1994.22745	0.00849
1992.94168	0.00895
1991.65591	0.00864
1990.37014	0.00773
1989.08438	0.00692
1987.79861	0.00665
1986.51284	0.00691
1985.22707	0.00737
1983.94130	0.00772
1982.65553	0.00780
1981.36976	0.00763
1980.08399	0.00730
1978.79822	0.00675
1977.51246	0.00586
1976.22669	0.00474
1974.94092	0.00398
1973.65515	0.00421
1972.36938	0.00545
1971.08361	0.00699
1969.79784	0.00793
1968.51207	0.00794
1967.22631	0.00747
1965.94054	0.00719
1964.65477	0.00738
1963.36900	0.00783
1962.08323	0.00822
1960.79746	0.00846
1959.51169	0.00859
1958.22592	0.00855
1956.94015	0.00819
1955.65439	0.00756
1954.36862	0.00699
1953.08285	0.00691
1951.79708	0.00743
1950.51131	0.00827
1949.22554	0.00895
1947.93977	0.00917
1946.65400	0.00900
1945.36823	0.00877
1944.08247	0.00870
1942.79670	0.00877
1941.51093	0.00889
1940.22516	0.00909
1938.93939	0.00940
1937.65362	0.00976
1936.36785	0.01002
1935.08208	0.01007
1933.79632	0.00996
1932.51055	0.00982
1931.22478	0.00979
1929.93901	0.00993
1928.65324	0.01018
1927.36747	0.01044
1926.08170	0.01066
1924.79593	0.01076
1923.51016	0.01070
1922.22440	0.01046
1920.93863	0.01020
1919.65286	0.01012
1918.36709	0.01024
1917.08132	0.01035
1915.79555	0.01033
1914.50978	0.01022
1913.22401	0.01012
1911.93825	0.01001
1910.65248	0.00987
1909.36671	0.00977
1908.08094	0.00983
1906.79517	0.01005
1905.50940	0.01028
1904.22363	0.01036
1902.93786	0.01026
1901.65209	0.01003
1900.36633	0.00978
1899.08056	0.00962
1897.79479	0.00957
1896.50902	0.00960
1895.22325	0.00960
1893.93748	0.00956
1892.65171	0.00963
1891.36594	0.01000
1890.08018	0.01063
1888.79441	0.01126
1887.50864	0.01165
1886.22287	0.01177
1884.93710	0.01171
1883.65133	0.01156
1882.36556	0.01133
1881.07979	0.01111
1879.79402	0.01097
1878.50826	0.01096
1877.22249	0.01102
1875.93672	0.01106
1874.65095	0.01100
1873.36518	0.01085
1872.07941	0.01072
1870.79364	0.01069
1869.50787	0.01074
1868.22211	0.01082
1866.93634	0.01092
1865.65057	0.01105
1864.36480	0.01117
1863.07903	0.01118
1861.79326	0.01112
1860.50749	0.01107
1859.22172	0.01115
1857.93595	0.01131
1856.65019	0.01148
1855.36442	0.01157
1854.07865	0.01154
1852.79288	0.01139
1851.50711	0.01116
1850.22134	0.01103
1848.93557	0.01111
1847.64980	0.01137
1846.36404	0.01159
1845.07827	0.01157
1843.79250	0.01129
1842.50673	0.01094
1841.22096	0.01076
1839.93519	0.01082
1838.64942	0.01108
1837.36365	0.01142
1836.07788	0.01172
1834.79212	0.01183
1833.50635	0.01172
1832.22058	0.01152
1830.93481	0.01134
1829.64904	0.01123
1828.36327	0.01113
1827.07750	0.01104
1825.79173	0.01094
1824.50597	0.01083
1823.22020	0.01073
1821.93443	0.01065
1820.64866	0.01056
1819.36289	0.01042
1818.07712	0.01031
1816.79135	0.01038
1815.50558	0.01071
1814.21981	0.01120
1812.93405	0.01163
1811.64828	0.01184
1810.36251	0.01184
1809.07674	0.01179
1807.79097	0.01181
1806.50520	0.01189
1805.21943	0.01197
1803.93366	0.01203
1802.64790	0.01208
1801.36213	0.01216
1800.07636	0.01223
1798.79059	0.01228
1797.50482	0.01231
1796.21905	0.01234
1794.93328	0.01236
1793.64751	0.01232
1792.36174	0.01216
1791.07598	0.01190
1789.79021	0.01171
1788.50444	0.01164
1787.21867	0.01165
1785.93290	0.01164
1784.64713	0.01159
1783.36136	0.01160
1782.07559	0.01172
1780.78983	0.01184
1779.50406	0.01183
1778.21829	0.01170
1776.93252	0.01155
1775.64675	0.01150
1774.36098	0.01159
1773.07521	0.01173
1771.78944	0.01182
1770.50367	0.01187
1769.21791	0.01195
1767.93214	0.01206
1766.64637	0.01214
1765.36060	0.01220
1764.07483	0.01227
1762.78906	0.01231
1761.50329	0.01226
1760.21752	0.01216
1758.93176	0.01210
1757.64599	0.01213
1756.36022	0.01222
1755.07445	0.01232
1753.78868	0.01241
1752.50291	0.01246
1751.21714	0.01240
1749.93137	0.01226
1748.64560	0.01214
1747.35984	0.01212
1746.07407	0.01215
1744.78830	0.01217
1743.50253	0.01216
1742.21676	0.01214
1740.93099	0.01211
1739.64522	0.01206
1738.35945	0.01198
1737.07369	0.01193
1735.78792	0.01199
1734.50215	0.01210
1733.21638	0.01217
1731.93061	0.01229
1730.64484	0.01250
1729.35907	0.01270
1728.07330	0.01274
1726.78753	0.01266
1725.50177	0.01260
1724.21600	0.01265
1722.93023	0.01281
1721.64446	0.01300
1720.35869	0.01317
1719.07292	0.01330
1717.78715	0.01335
1716.50138	0.01338
1715.21561	0.01348
1713.92985	0.01369
1712.64408	0.01393
1711.35831	0.01413
1710.07254	0.01430
1708.78677	0.01447
1707.50100	0.01468
1706.21523	0.01493
1704.92946	0.01516
1703.64370	0.01534
1702.35793	0.01552
1701.07216	0.01572
1699.78639	0.01587
1698.50062	0.01609
1697.21485	0.01651
1695.92908	0.01699
1694.64331	0.01734
1693.35754	0.01763
1692.07178	0.01806
1690.78601	0.01857
1689.50024	0.01900
1688.21447	0.01933
1686.92870	0.01962
1685.64293	0.01989
1684.35716	0.02003
1683.07139	0.02010
1681.78563	0.02029
1680.49986	0.02073
1679.21409	0.02129
1677.92832	0.02184
1676.64255	0.02235
1675.35678	0.02276
1674.07101	0.02304
1672.78524	0.02329
1671.49947	0.02359
1670.21371	0.02388
1668.92794	0.02410
1667.64217	0.02428
1666.35640	0.02453
1665.07063	0.02491
1663.78486	0.02536
1662.49909	0.02576
1661.21332	0.02607
1659.92756	0.02633
1658.64179	0.02654
1657.35602	0.02668
1656.07025	0.02680
1654.78448	0.02692
1653.49871	0.02698
1652.21294	0.02691
1650.92717	0.02687
1649.64140	0.02705
1648.35564	0.02734
1647.06987	0.02751
1645.78410	0.02748
1644.49833	0.02742
1643.21256	0.02747
1641.92679	0.02763
1640.64102	0.02775
1639.35525	0.02775
1638.06949	0.02764
1636.78372	0.02747
1635.49795	0.02723
1634.21218	0.02694
1632.92641	0.02670
1631.64064	0.02655
1630.35487	0.02642
1629.06910	0.02624
1627.78333	0.02601
1626.49757	0.02576
1625.21180	0.02556
1623.92603	0.02539
1622.64026	0.02518
1621.35449	0.02491
1620.06872	0.02465
1618.78295	0.02443
1617.49718	0.02420
1616.21142	0.02387
1614.92565	0.02350
1613.63988	0.02323
1612.35411	0.02309
1611.06834	0.02302
1609.78257	0.02294
1608.49680	0.02286
1607.21103	0.02275
1605.92526	0.02265
1604.63950	0.02255
1603.35373	0.02246
1602.06796	0.02237
1600.78219	0.02228
1599.49642	0.02224
1598.21065	0.02225
1596.92488	0.02230
1595.63911	0.02237
1594.35335	0.02244
1593.06758	0.02251
1591.78181	0.02257
1590.49604	0.02258
1589.21027	0.02257
1587.92450	0.02256
1586.63873	0.02262
1585.35296	0.02272
1584.06719	0.02286
1582.78143	0.02305
1581.49566	0.02328
1580.20989	0.02355
1578.92412	0.02387
1577.63835	0.02421
1576.35258	0.02453
1575.06681	0.02481
1573.78104	0.02513
1572.49528	0.02558
1571.20951	0.02606
1569.92374	0.02643
1568.63797	0.02669
1567.35220	0.02696
1566.06643	0.02732
1564.78066	0.02765
1563.49489	0.02783
1562.20912	0.02792
1560.92336	0.02802
1559.63759	0.02814
1558.35182	0.02826
1557.06605	0.02849
1555.78028	0.02894
1554.49451	0.02956
1553.20874	0.03017
1551.92297	0.03071
1550.63721	0.03120
1549.35144	0.03162
1548.06567	0.03196
1546.77990	0.03222
1545.49413	0.03240
1544.20836	0.03251
1542.92259	0.03258
1541.63682	0.03269
1540.35105	0.03281
1539.06529	0.03287
1537.77952	0.03292
1536.49375	0.03312
1535.20798	0.03351
1533.92221	0.03394
1532.63644	0.03428
1531.35067	0.03452
1530.06490	0.03476
1528.77914	0.03506
1527.49337	0.03540
1526.20760	0.03574
1524.92183	0.03607
1523.63606	0.03646
1522.35029	0.03695
1521.06452	0.03751
1519.77875	0.03811
1518.49298	0.03884
1517.20722	0.03968
1515.92145	0.04056
1514.63568	0.04141
1513.34991	0.04229
1512.06414	0.04320
1510.77837	0.04411
1509.49260	0.04504
1508.20683	0.04597
1506.92107	0.04684
1505.63530	0.04761
1504.34953	0.04839
1503.06376	0.04928
1501.77799	0.05023
1500.49222	0.05109
1499.20645	0.05180
1497.92068	0.05237
1496.63491	0.05281
1495.34915	0.05316
1494.06338	0.05349
1492.77761	0.05393
1491.49184	0.05452
1490.20607	0.05516
1488.92030	0.05582
1487.63453	0.05651
1486.34876	0.05725
1485.06299	0.05808
1483.77723	0.05900
1482.49146	0.06000
1481.20569	0.06099
1479.91992	0.06196
1478.63415	0.06292
1477.34838	0.06390
1476.06261	0.06485
1474.77684	0.06573
1473.49108	0.06648
1472.20531	0.06709
1470.91954	0.06762
1469.63377	0.06813
1468.34800	0.06861
1467.06223	0.06902
1465.77646	0.06932
1464.49069	0.06958
1463.20492	0.06987
1461.91916	0.07025
1460.63339	0.07074
1459.34762	0.07136
1458.06185	0.07206
1456.77608	0.07273
1455.49031	0.07330
1454.20454	0.07382
1452.91877	0.07426
1451.63301	0.07455
1450.34724	0.07470
1449.06147	0.07476
1447.77570	0.07475
1446.48993	0.07460
1445.20416	0.07423
1443.91839	0.07366
1442.63262	0.07293
1441.34685	0.07210
1440.06109	0.07131
1438.77532	0.07069
1437.48955	0.07030
1436.20378	0.07009
1434.91801	0.07006
1433.63224	0.07023
1432.34647	0.07065
1431.06070	0.07129
1429.77494	0.07210
1428.48917	0.07309
1427.20340	0.07425
1425.91763	0.07555
1424.63186	0.07690
1423.34609	0.07823
1422.06032	0.07950
1420.77455	0.08069
1419.48878	0.08173
1418.20302	0.08258
1416.91725	0.08328
1415.63148	0.08389
1414.34571	0.08438
1413.05994	0.08470
1411.77417	0.08478
1410.48840	0.08460
1409.20263	0.08418
1407.91687	0.08352
1406.63110	0.08261
1405.34533	0.08148
1404.05956	0.08021
1402.77379	0.07885
1401.48802	0.07741
1400.20225	0.07585
1398.91648	0.07412
1397.63071	0.07226
1396.34495	0.07037
1395.05918	0.06847
1393.77341	0.06656
1392.48764	0.06465
1391.20187	0.06277
1389.91610	0.06097
1388.63033	0.05927
1387.34456	0.05763
1386.05880	0.05600
1384.77303	0.05435
1383.48726	0.05271
1382.20149	0.05109
1380.91572	0.04949
1379.62995	0.04792
1378.34418	0.04635
1377.05841	0.04478
1375.77264	0.04319
1374.48688	0.04158
1373.20111	0.03999
1371.91534	0.03849
1370.62957	0.03712
1369.34380	0.03583
1368.05803	0.03458
1366.77226	0.03336
1365.48649	0.03223
1364.20073	0.03120
1362.91496	0.03024
1361.62919	0.02930
1360.34342	0.02840
1359.05765	0.02760
1357.77188	0.02692
1356.48611	0.02634
1355.20034	0.02582
1353.91457	0.02532
1352.62881	0.02482
1351.34304	0.02433
1350.05727	0.02386
1348.77150	0.02341
1347.48573	0.02299
1346.19996	0.02262
1344.91419	0.02230
1343.62842	0.02202
1342.34266	0.02175
1341.05689	0.02145
1339.77112	0.02114
1338.48535	0.02084
1337.19958	0.02061
1335.91381	0.02043
1334.62804	0.02026
1333.34227	0.02007
1332.05650	0.01985
1330.77074	0.01965
1329.48497	0.01949
1328.19920	0.01934
1326.91343	0.01913
1325.62766	0.01887
1324.34189	0.01861
1323.05612	0.01840
1321.77035	0.01827
1320.48459	0.01818
1319.19882	0.01808
1317.91305	0.01794
1316.62728	0.01776
1315.34151	0.01758
1314.05574	0.01739
1312.76997	0.01721
1311.48420	0.01708
1310.19843	0.01699
1308.91267	0.01692
1307.62690	0.01683
1306.34113	0.01669
1305.05536	0.01654
1303.76959	0.01640
1302.48382	0.01628
1301.19805	0.01616
1299.91228	0.01603
1298.62652	0.01590
1297.34075	0.01582
1296.05498	0.01577
1294.76921	0.01573
1293.48344	0.01564
1292.19767	0.01552
1290.91190	0.01537
1289.62613	0.01524
1288.34036	0.01516
1287.05460	0.01517
1285.76883	0.01521
1284.48306	0.01524
1283.19729	0.01521
1281.91152	0.01509
1280.62575	0.01491
1279.33998	0.01474
1278.05421	0.01460
1276.76845	0.01452
1275.48268	0.01447
1274.19691	0.01443
1272.91114	0.01440
1271.62537	0.01435
1270.33960	0.01427
1269.05383	0.01414
1267.76806	0.01399
1266.48229	0.01385
1265.19653	0.01378
1263.91076	0.01379
1262.62499	0.01385
1261.33922	0.01392
1260.05345	0.01394
1258.76768	0.01390
1257.48191	0.01381
1256.19614	0.01373
1254.91037	0.01367
1253.62461	0.01365
1252.33884	0.01362
1251.05307	0.01357
1249.76730	0.01348
1248.48153	0.01338
1247.19576	0.01328
1245.90999	0.01321
1244.62422	0.01317
1243.33846	0.01313
1242.05269	0.01306
1240.76692	0.01295
1239.48115	0.01281
1238.19538	0.01269
1236.90961	0.01262
1235.62384	0.01259
1234.33807	0.01261
1233.05230	0.01264
1231.76654	0.01264
1230.48077	0.01259
1229.19500	0.01248
1227.90923	0.01233
1226.62346	0.01216
1225.33769	0.01203
1224.05192	0.01195
1222.76615	0.01190
1221.48039	0.01187
1220.19462	0.01183
1218.90885	0.01179
1217.62308	0.01175
1216.33731	0.01171
1215.05154	0.01167
1213.76577	0.01161
1212.48000	0.01154
1211.19423	0.01147
1209.90847	0.01143
1208.62270	0.01140
1207.33693	0.01139
1206.05116	0.01141
1204.76539	0.01144
1203.47962	0.01147
1202.19385	0.01147
1200.90808	0.01147
1199.62232	0.01154
1198.33655	0.01147
1197.05078	0.01136
1195.76501	0.01124
1194.47924	0.01117
1193.19347	0.01118
1191.90770	0.01125
1190.62193	0.01133
1189.33616	0.01140
1188.05040	0.01145
1186.76463	0.01147
1185.47886	0.01147
1184.19309	0.01146
1182.90732	0.01142
1181.62155	0.01139
1180.33578	0.01139
1179.05001	0.01143
1177.76425	0.01152
1176.47848	0.01161
1175.19271	0.01168
1173.90694	0.01172
1172.62117	0.01175
1171.33540	0.01178
1170.04963	0.01182
1168.76386	0.01190
1167.47809	0.01205
1166.19233	0.01226
1164.90656	0.01245
1163.62079	0.01260
1162.33502	0.01274
1161.04925	0.01292
1159.76348	0.01313
1158.47771	0.01337
1157.19194	0.01362
1155.90618	0.01389
1154.62041	0.01420
1153.33464	0.01452
1152.04887	0.01487
1150.76310	0.01525
1149.47733	0.01568
1148.19156	0.01617
1146.90579	0.01669
1145.62002	0.01722
1144.33426	0.01776
1143.04849	0.01837
1141.76272	0.01911
1140.47695	0.01994
1139.19118	0.02086
1137.90541	0.02187
1136.61964	0.02297
1135.33387	0.02417
1134.04811	0.02547
1132.76234	0.02690
1131.47657	0.02849
1130.19080	0.03027
1128.90503	0.03224
1127.61926	0.03442
1126.33349	0.03681
1125.04772	0.03938
1123.76195	0.04208
1122.47619	0.04488
1121.19042	0.04776
1119.90465	0.05077
1118.61888	0.05388
1117.33311	0.05707
1116.04734	0.06026
1114.76157	0.06343
1113.47580	0.06662
1112.19004	0.06986
1110.90427	0.07317
1109.61850	0.07653
1108.33273	0.07984
1107.04696	0.08301
1105.76119	0.08602
1104.47542	0.08892
1103.18965	0.09181
1101.90388	0.09472
1100.61812	0.09765
1099.33235	0.10052
1098.04658	0.10330
1096.76081	0.10599
1095.47504	0.10855
1094.18927	0.11095
1092.90350	0.11317
1091.61773	0.11525
1090.33197	0.11721
1089.04620	0.11908
1087.76043	0.12091
1086.47466	0.12273
1085.18889	0.12453
1083.90312	0.12631
1082.61735	0.12810
1081.33158	0.13003
1080.04581	0.13221
1078.76005	0.13467
1077.47428	0.13736
1076.18851	0.14018
1074.90274	0.14311
1073.61697	0.14616
1072.33120	0.14935
1071.04543	0.15262
1069.75966	0.15592
1068.47390	0.15923
1067.18813	0.16262
1065.90236	0.16612
1064.61659	0.16971
1063.33082	0.17332
1062.04505	0.17688
1060.75928	0.18042
1059.47351	0.18397
1058.18774	0.18756
1056.90198	0.19116
1055.61621	0.19472
1054.33044	0.19823
1053.04467	0.20167
1051.75890	0.20504
1050.47313	0.20840
1049.18736	0.21186
1047.90159	0.21547
1046.61583	0.21919
1045.33006	0.22287
1044.04429	0.22646
1042.75852	0.23002
1041.47275	0.23364
1040.18698	0.23732
1038.90121	0.24106
1037.61544	0.24487
1036.32967	0.24877
1035.04391	0.25269
1033.75814	0.25648
1032.47237	0.25997
1031.18660	0.26304
1029.90083	0.26572
1028.61506	0.26816
1027.32929	0.27045
1026.04352	0.27257
1024.75775	0.27440
1023.47199	0.27584
1022.18622	0.27685
1020.90045	0.27738
1019.61468	0.27743
1018.32891	0.27699
1017.04314	0.27604
1015.75737	0.27456
1014.47160	0.27253
1013.18584	0.26998
1011.90007	0.26692
1010.61430	0.26336
1009.32853	0.25923
1008.04276	0.25450
1006.75699	0.24922
1005.47122	0.24347
1004.18545	0.23729
1002.89968	0.23066
1001.61392	0.22363
1000.32815	0.21630
999.04238	0.20881
997.75661	0.20126
996.47084	0.19368
995.18507	0.18611
993.89930	0.17858
992.61353	0.17115
991.32777	0.16390
990.04200	0.15686
988.75623	0.15008
987.47046	0.14353
986.18469	0.13718
984.89892	0.13104
983.61315	0.12514
982.32738	0.11956
981.04161	0.11441
979.75585	0.10974
978.47008	0.10552
977.18431	0.10166
975.89854	0.09812
974.61277	0.09493
973.32700	0.09219
972.04123	0.08999
970.75546	0.08846
969.46970	0.08768
968.18393	0.08767
966.89816	0.08830
965.61239	0.08937
964.32662	0.09068
963.04085	0.09196
961.75508	0.09292
960.46931	0.09321
959.18354	0.09260
957.89778	0.09109
956.61201	0.08889
955.32624	0.08630
954.04047	0.08360
952.75470	0.08093
951.46893	0.07837
950.18316	0.07589
948.89739	0.07347
947.61163	0.07108
946.32586	0.06874
945.04009	0.06644
943.75432	0.06423
942.46855	0.06213
941.18278	0.06016
939.89701	0.05829
938.61124	0.05651
937.32547	0.05480
936.03971	0.05320
934.75394	0.05174
933.46817	0.05050
932.18240	0.04948
930.89663	0.04859
929.61086	0.04773
928.32509	0.04686
927.03932	0.04600
925.75356	0.04521
924.46779	0.04451
923.18202	0.04386
921.89625	0.04323
920.61048	0.04257
919.32471	0.04188
918.03894	0.04118
916.75317	0.04052
915.46740	0.03992
914.18164	0.03941
912.89587	0.03898
911.61010	0.03859
910.32433	0.03823
909.03856	0.03786
907.75279	0.03750
906.46702	0.03717
905.18125	0.03685
903.89549	0.03653
902.60972	0.03626
901.32395	0.03609
900.03818	0.03600
898.75241	0.03585
897.46664	0.03557
896.18087	0.03523
894.89510	0.03497
893.60933	0.03489
892.32357	0.03495
891.03780	0.03508
889.75203	0.03530
888.46626	0.03570
887.18049	0.03644
885.89472	0.03771
884.60895	0.03965
883.32318	0.04225
882.03742	0.04521
880.75165	0.04796
879.46588	0.05006
878.18011	0.05148
876.89434	0.05259
875.60857	0.05380
874.32280	0.05514
873.03703	0.05619
871.75126	0.05644
870.46550	0.05567
869.17973	0.05411
867.89396	0.05217
866.60819	0.05013
865.32242	0.04804
864.03665	0.04592
862.75088	0.04386
861.46511	0.04199
860.17935	0.04040
858.89358	0.03912
857.60781	0.03811
856.32204	0.03728
855.03627	0.03653
853.75050	0.03580
852.46473	0.03515
851.17896	0.03458
849.89319	0.03408
848.60743	0.03362
847.32166	0.03325
846.03589	0.03300
844.75012	0.03280
843.46435	0.03252
842.17858	0.03214
840.89281	0.03173
839.60704	0.03143
838.32128	0.03128
837.03551	0.03122
835.74974	0.03116
834.46397	0.03104
833.17820	0.03086
831.89243	0.03066
830.60666	0.03048
829.32089	0.03035
828.03512	0.03024
826.74936	0.03011
825.46359	0.02996
824.17782	0.02982
822.89205	0.02970
821.60628	0.02957
820.32051	0.02939
819.03474	0.02916
817.74897	0.02889
816.46321	0.02866
815.17744	0.02850
813.89167	0.02843
812.60590	0.02846
811.32013	0.02854
810.03436	0.02859
808.74859	0.02855
807.46282	0.02842
806.17705	0.02827
804.89129	0.02815
803.60552	0.02809
802.31975	0.02807
801.03398	0.02807
799.74821	0.02809
798.46244	0.02808
797.17667	0.02804
795.89090	0.02800
794.60513	0.02797
793.31937	0.02796
792.03360	0.02792
790.74783	0.02783
789.46206	0.02772
788.17629	0.02764
786.89052	0.02762
785.60475	0.02765
784.31898	0.02766
783.03322	0.02760
781.74745	0.02746
780.46168	0.02732
779.17591	0.02723
777.89014	0.02720
776.60437	0.02720
775.31860	0.02720
774.03283	0.02718
772.74706	0.02718
771.46130	0.02720
770.17553	0.02725
768.88976	0.02726
767.60399	0.02722
766.31822	0.02714
765.03245	0.02712
763.74668	0.02719
762.46091	0.02735
761.17515	0.02749
759.88938	0.02756
758.60361	0.02759
757.31784	0.02757
756.03207	0.02749
754.74630	0.02732
753.46053	0.02714
752.17476	0.02707
750.88899	0.02717
749.60323	0.02735
748.31746	0.02744
747.03169	0.02735
745.74592	0.02714
744.46015	0.02687
743.17438	0.02661
741.88861	0.02640
740.60284	0.02631
739.31708	0.02639
738.03131	0.02656
736.74554	0.02668
735.45977	0.02668
734.17400	0.02662
732.88823	0.02656
731.60246	0.02653
730.31669	0.02648
729.03092	0.02638
727.74516	0.02630
726.45939	0.02628
725.17362	0.02632
723.88785	0.02639
722.60208	0.02647
721.31631	0.02661
720.03054	0.02675
718.74477	0.02683
717.45901	0.02683
716.17324	0.02676
714.88747	0.02665
713.60170	0.02655
712.31593	0.02648
711.03016	0.02646
709.74439	0.02650
708.45862	0.02657
707.17285	0.02661
705.88709	0.02662
704.60132	0.02662
703.31555	0.02663
702.02978	0.02667
700.74401	0.02670
699.45824	0.02671
698.17247	0.02666
696.88670	0.02659
695.60094	0.02653
694.31517	0.02653
693.02940	0.02662
691.74363	0.02675
690.45786	0.02687
689.17209	0.02687
687.88632	0.02678
686.60055	0.02665
685.31478	0.02660
684.02902	0.02663
682.74325	0.02668
681.45748	0.02668
680.17171	0.02659
678.88594	0.02642
677.60017	0.02626
676.31440	0.02616
675.02863	0.02619
673.74287	0.02635
672.45710	0.02657
671.17133	0.02683
669.88556	0.02707
668.59979	0.02722
667.31402	0.02729
666.02825	0.02723
664.74248	0.02708
663.45671	0.02691
662.17095	0.02678
660.88518	0.02670
659.59941	0.02668
658.31364	0.02670
657.02787	0.02673
655.74210	0.02676
654.45633	0.02677
653.17056	0.02681
651.88480	0.02696
650.59903	0.02719
649.31326	0.02745
648.02749	0.02768
646.74172	0.02791
645.45595	0.02819
644.17018	0.02858
642.88441	0.02906
641.59864	0.02955
640.31288	0.02998
639.02711	0.03034
637.74134	0.03070
636.45557	0.03109
635.16980	0.03156
633.88403	0.03209
632.59826	0.03267
631.31249	0.03313
630.02673	0.03300
628.74096	0.03271
627.45519	0.03392
626.16942	0.03343
624.88365	0.03179
623.59788	0.03049
622.31211	0.03063
621.02634	0.03266
619.74057	0.03587
618.45481	0.03913
617.16904	0.04208
615.88327	0.04522
614.59750	0.04891
613.31173	0.05301
612.02596	0.05742
610.74019	0.06258
609.45442	0.06884
608.16866	0.07565
606.88289	0.08195
605.59712	0.08727
604.31135	0.09175
603.02558	0.09524
601.73981	0.09727
600.45404	0.09756
599.16827	0.09632
597.88250	0.09400
596.59674	0.09096
595.31097	0.08757
594.02520	0.08431
592.73943	0.08159
591.45366	0.07965
590.16789	0.07844
588.88212	0.07786
587.59635	0.07789
586.31059	0.07856
585.02482	0.07985
583.73905	0.08171
582.45328	0.08408
581.16751	0.08691
579.88174	0.09014
578.59597	0.09366
577.31020	0.09734
576.02443	0.10105
574.73867	0.10464
573.45290	0.10797
572.16713	0.11101
570.88136	0.11395
569.59559	0.11710
568.30982	0.12070
567.02405	0.12473
565.73828	0.12895
564.45251	0.13292
563.16675	0.13607
561.88098	0.13779
560.59521	0.13760
559.30944	0.13534
558.02367	0.13113
556.73790	0.12530
555.45213	0.11830
554.16636	0.11073
552.88060	0.10315
551.59483	0.09600
550.30906	0.08948
549.02329	0.08361
547.73752	0.07839
546.45175	0.07379
545.16598	0.06978
543.88021	0.06618
542.59444	0.06284
541.30868	0.05971
540.02291	0.05690
538.73714	0.05446
537.45137	0.05236
536.16560	0.05050
534.87983	0.04878
533.59406	0.04715
532.30829	0.04556
531.02253	0.04401
529.73676	0.04251
528.45099	0.04111
527.16522	0.03980
525.87945	0.03858
524.59368	0.03744
523.30791	0.03639
522.02214	0.03546
520.73637	0.03466
519.45061	0.03402
518.16484	0.03346
516.87907	0.03285
515.59330	0.03212
514.30753	0.03131
513.02176	0.03051
511.73599	0.02983
510.45022	0.02931
509.16446	0.02891
507.87869	0.02853
506.59292	0.02808
505.30715	0.02757
504.02138	0.02706
502.73561	0.02665
501.44984	0.02638
500.16407	0.02621
498.87830	0.02608
497.59254	0.02591
496.30677	0.02567
495.02100	0.02540
493.73523	0.02517
492.44946	0.02500
491.16369	0.02489
489.87792	0.02478
488.59215	0.02460
487.30639	0.02434
486.02062	0.02407
484.73485	0.02392
483.44908	0.02395
482.16331	0.02412
480.87754	0.02435
479.59177	0.02462
478.30600	0.02491
477.02023	0.02520
475.73447	0.02545
474.44870	0.02565
473.16293	0.02582
471.87716	0.02597
470.59139	0.02607
469.30562	0.02608
468.01985	0.02595
466.73408	0.02570
465.44832	0.02538
464.16255	0.02502
462.87678	0.02463
461.59101	0.02423
460.30524	0.02386
459.01947	0.02353
457.73370	0.02325
456.44793	0.02298
455.16216	0.02273
453.87640	0.02247
452.59063	0.02221
451.30486	0.02198
450.01909	0.02181
448.73332	0.02169
447.44755	0.02157
446.16178	0.02145
444.87601	0.02136
443.59025	0.02132
442.30448	0.02132
441.01871	0.02131
439.73294	0.02124
438.44717	0.02115
437.16140	0.02111
435.87563	0.02112
434.58986	0.02112
433.30409	0.02106
432.01833	0.02095
430.73256	0.02086
429.44679	0.02085
428.16102	0.02089
426.87525	0.02091
425.58948	0.02085
424.30371	0.02073
423.01794	0.02061
421.73218	0.02053
420.44641	0.02045
419.16064	0.02035
417.87487	0.02024
416.58910	0.02015
415.30333	0.02013
414.01756	0.02016
412.73179	0.02024
411.44602	0.02033
410.16026	0.02042
408.87449	0.02051
407.58872	0.02062
406.30295	0.02073
405.01718	0.02082
403.73141	0.02086
402.44564	0.02090
401.15987	0.02098
399.87411	0.02110
