3997.45528	0.02370
3996.16951	0.02306
3994.88374	0.02275
3993.59798	0.02297
3992.31221	0.02377
3991.02644	0.02494
3989.74067	0.02616
3988.45490	0.02709
3987.16913	0.02751
3985.88336	0.02734
3984.59759	0.02668
3983.31183	0.02577
3982.02606	0.02503
3980.74029	0.02483
3979.45452	0.02521
3978.16875	0.02578
3976.88298	0.02602
3975.59721	0.02565
3974.31144	0.02491
3973.02567	0.02435
3971.73991	0.02434
3970.45414	0.02480
3969.16837	0.02526
3967.88260	0.02531
3966.59683	0.02488
3965.31106	0.02423
3964.02529	0.02365
3962.73952	0.02323
3961.45376	0.02290
3960.16799	0.02256
3958.88222	0.02214
3957.59645	0.02172
3956.31068	0.02157
3955.02491	0.02202
3953.73914	0.02312
3952.45337	0.02450
3951.16760	0.02549
3949.88184	0.02558
3948.59607	0.02478
3947.31030	0.02366
3946.02453	0.02286
3944.73876	0.02256
3943.45299	0.02253
3942.16722	0.02254
3940.88145	0.02250
3939.59569	0.02239
3938.30992	0.02224
3937.02415	0.02207
3935.73838	0.02195
3934.45261	0.02189
3933.16684	0.02191
3931.88107	0.02202
3930.59530	0.02227
3929.30953	0.02283
3928.02377	0.02377
3926.73800	0.02488
3925.45223	0.02572
3924.16646	0.02594
3922.88069	0.02553
3921.59492	0.02471
3920.30915	0.02378
3919.02338	0.02297
3917.73762	0.02238
3916.45185	0.02195
3915.16608	0.02165
3913.88031	0.02161
3912.59454	0.02189
3911.30877	0.02233
3910.02300	0.02282
3908.73723	0.02343
3907.45146	0.02415
3906.16570	0.02469
3904.87993	0.02470
3903.59416	0.02420
3902.30839	0.02360
3901.02262	0.02329
3899.73685	0.02331
3898.45108	0.02342
3897.16531	0.02335
3895.87955	0.02303
3894.59378	0.02271
3893.30801	0.02265
3892.02224	0.02292
3890.73647	0.02327
3889.45070	0.02338
3888.16493	0.02309
3886.87916	0.02255
3885.59339	0.02206
3884.30763	0.02182
3883.02186	0.02185
3881.73609	0.02208
3880.45032	0.02251
3879.16455	0.02302
3877.87878	0.02330
3876.59301	0.02309
3875.30724	0.02260
3874.02148	0.02225
3872.73571	0.02220
3871.44994	0.02225
3870.16417	0.02229
3868.87840	0.02242
3867.59263	0.02261
3866.30686	0.02266
3865.02109	0.02240
3863.73532	0.02201
3862.44956	0.02177
3861.16379	0.02184
3859.87802	0.02213
3858.59225	0.02235
3857.30648	0.02226
3856.02071	0.02187
3854.73494	0.02144
3853.44917	0.02133
3852.16341	0.02168
3850.87764	0.02233
3849.59187	0.02292
3848.30610	0.02308
3847.02033	0.02272
3845.73456	0.02208
3844.44879	0.02149
3843.16302	0.02107
3841.87725	0.02069
3840.59149	0.02020
3839.30572	0.01960
3838.01995	0.01910
3836.73418	0.01891
3835.44841	0.01916
3834.16264	0.01976
3832.87687	0.02042
3831.59110	0.02094
3830.30534	0.02126
3829.01957	0.02154
3827.73380	0.02187
3826.44803	0.02219
3825.16226	0.02237
3823.87649	0.02247
3822.59072	0.02268
3821.30495	0.02306
3820.01918	0.02336
3818.73342	0.02330
3817.44765	0.02295
3816.16188	0.02268
3814.87611	0.02274
3813.59034	0.02300
3812.30457	0.02317
3811.01880	0.02308
3809.73303	0.02279
3808.44726	0.02244
3807.16150	0.02216
3805.87573	0.02204
3804.58996	0.02211
3803.30419	0.02227
3802.01842	0.02241
3800.73265	0.02247
3799.44688	0.02250
3798.16111	0.02262
3796.87535	0.02278
3795.58958	0.02282
3794.30381	0.02260
3793.01804	0.02218
3791.73227	0.02178
3790.44650	0.02162
3789.16073	0.02177
3787.87496	0.02211
3786.58919	0.02240
3785.30343	0.02254
3784.01766	0.02264
3782.73189	0.02291
3781.44612	0.02338
3780.16035	0.02386
3778.87458	0.02416
3777.58881	0.02416
3776.30304	0.02375
3775.01728	0.02287
3773.73151	0.02181
3772.44574	0.02117
3771.15997	0.02134
3769.87420	0.02212
3768.58843	0.02296
3767.30266	0.02344
3766.01689	0.02353
3764.73112	0.02336
3763.44536	0.02307
3762.15959	0.02279
3760.87382	0.02254
3759.58805	0.02222
3758.30228	0.02177
3757.01651	0.02131
3755.73074	0.02096
3754.44497	0.02066
3753.15921	0.02024
3751.87344	0.01979
3750.58767	0.01962
3749.30190	0.01987
3748.01613	0.02020
3746.73036	0.02013
3745.44459	0.01959
3744.15882	0.01901
3742.87305	0.01887
3741.58729	0.01923
3740.30152	0.01976
3739.01575	0.02017
3737.72998	0.02039
3736.44421	0.02057
3735.15844	0.02093
3733.87267	0.02163
3732.58690	0.02252
3731.30114	0.02314
3730.01537	0.02308
3728.72960	0.02236
3727.44383	0.02147
3726.15806	0.02094
3724.87229	0.02086
3723.58652	0.02102
3722.30075	0.02122
3721.01498	0.02148
3719.72922	0.02191
3718.44345	0.02246
3717.15768	0.02299
3715.87191	0.02325
3714.58614	0.02293
3713.30037	0.02196
3712.01460	0.02067
3710.72883	0.01973
3709.44307	0.01964
3708.15730	0.02028
3706.87153	0.02103
3705.58576	0.02133
3704.29999	0.02116
3703.01422	0.02104
3701.72845	0.02128
3700.44268	0.02141
3699.15691	0.02072
3697.87115	0.01929
3696.58538	0.01800
3695.29961	0.01759
3694.01384	0.01806
3692.72807	0.01904
3691.44230	0.02002
3690.15653	0.02064
3688.87076	0.02090
3687.58500	0.02097
3686.29923	0.02094
3685.01346	0.02092
3683.72769	0.02089
3682.44192	0.02086
3681.15615	0.02091
3679.87038	0.02101
3678.58461	0.02101
3677.29884	0.02087
3676.01308	0.02071
3674.72731	0.02071
3673.44154	0.02097
3672.15577	0.02140
3670.87000	0.02197
3669.58423	0.02262
3668.29846	0.02311
3667.01269	0.02312
3665.72693	0.02260
3664.44116	0.02185
3663.15539	0.02125
3661.86962	0.02093
3660.58385	0.02077
3659.29808	0.02063
3658.01231	0.02042
3656.72654	0.02018
3655.44077	0.02017
3654.15501	0.02066
3652.86924	0.02150
3651.58347	0.02220
3650.29770	0.02238
3649.01193	0.02215
3647.72616	0.02194
3646.44039	0.02200
3645.15462	0.02212
3643.86886	0.02204
3642.58309	0.02172
3641.29732	0.02139
3640.01155	0.02124
3638.72578	0.02129
3637.44001	0.02144
3636.15424	0.02156
3634.86847	0.02154
3633.58270	0.02133
3632.29694	0.02099
3631.01117	0.02075
3629.72540	0.02083
3628.43963	0.02127
3627.15386	0.02186
3625.86809	0.02225
3624.58232	0.02229
3623.29655	0.02204
3622.01079	0.02170
3620.72502	0.02150
3619.43925	0.02159
3618.15348	0.02189
3616.86771	0.02216
3615.58194	0.02225
3614.29617	0.02227
3613.01040	0.02246
3611.72463	0.02282
3610.43887	0.02315
3609.15310	0.02333
3607.86733	0.02348
3606.58156	0.02379
3605.29579	0.02423
3604.01002	0.02457
3602.72425	0.02469
3601.43848	0.02465
3600.15272	0.02453
3598.86695	0.02419
3597.58118	0.02353
3596.29541	0.02275
3595.00964	0.02228
3593.72387	0.02243
3592.43810	0.02320
3591.15233	0.02426
3589.86656	0.02510
3588.58080	0.02535
3587.29503	0.02495
3586.00926	0.02416
3584.72349	0.02341
3583.43772	0.02315
3582.15195	0.02350
3580.86618	0.02421
3579.58041	0.02497
3578.29464	0.02556
3577.00888	0.02575
3575.72311	0.02553
3574.43734	0.02520
3573.15157	0.02522
3571.86580	0.02574
3570.58003	0.02641
3569.29426	0.02681
3568.00849	0.02689
3566.72273	0.02681
3565.43696	0.02661
3564.15119	0.02619
3562.86542	0.02565
3561.57965	0.02538
3560.29388	0.02569
3559.00811	0.02652
3557.72234	0.02741
3556.43657	0.02784
3555.15081	0.02757
3553.86504	0.02679
3552.57927	0.02594
3551.29350	0.02542
3550.00773	0.02534
3548.72196	0.02565
3547.43619	0.02624
3546.15042	0.02707
3544.86466	0.02798
3543.57889	0.02878
3542.29312	0.02935
3541.00735	0.02970
3539.72158	0.02991
3538.43581	0.02999
3537.15004	0.02992
3535.86427	0.02976
3534.57850	0.02964
3533.29274	0.02965
3532.00697	0.02961
3530.72120	0.02926
3529.43543	0.02860
3528.14966	0.02796
3526.86389	0.02774
3525.57812	0.02799
3524.29235	0.02841
3523.00659	0.02867
3521.72082	0.02874
3520.43505	0.02883
3519.14928	0.02907
3517.86351	0.02938
3516.57774	0.02964
3515.29197	0.02986
3514.00620	0.03014
3512.72043	0.03044
3511.43467	0.03057
3510.14890	0.03043
3508.86313	0.03014
3507.57736	0.03000
3506.29159	0.03018
3505.00582	0.03058
3503.72005	0.03094
3502.43428	0.03105
3501.14852	0.03090
3499.86275	0.03069
3498.57698	0.03065
3497.29121	0.03087
3496.00544	0.03124
3494.71967	0.03156
3493.43390	0.03162
3492.14813	0.03134
3490.86236	0.03085
3489.57660	0.03046
3488.29083	0.03046
3487.00506	0.03081
3485.71929	0.03122
3484.43352	0.03140
3483.14775	0.03133
3481.86198	0.03119
3480.57621	0.03116
3479.29045	0.03129
3478.00468	0.03146
3476.71891	0.03146
3475.43314	0.03116
3474.14737	0.03061
3472.86160	0.03002
3471.57583	0.02964
3470.29006	0.02966
3469.00429	0.03013
3467.71853	0.03092
3466.43276	0.03175
3465.14699	0.03235
3463.86122	0.03251
3462.57545	0.03226
3461.28968	0.03191
3460.00391	0.03178
3458.71814	0.03199
3457.43238	0.03225
3456.14661	0.03222
3454.86084	0.03187
3453.57507	0.03155
3452.28930	0.03166
3451.00353	0.03222
3449.71776	0.03287
3448.43199	0.03319
3447.14622	0.03314
3445.86046	0.03304
3444.57469	0.03316
3443.28892	0.03340
3442.00315	0.03342
3440.71738	0.03309
3439.43161	0.03262
3438.14584	0.03237
3436.86007	0.03242
3435.57431	0.03256
3434.28854	0.03256
3433.00277	0.03237
3431.71700	0.03212
3430.43123	0.03196
3429.14546	0.03203
3427.85969	0.03237
3426.57392	0.03289
3425.28815	0.03336
3424.00239	0.03364
3422.71662	0.03371
3421.43085	0.03365
3420.14508	0.03355
3418.85931	0.03344
3417.57354	0.03330
3416.28777	0.03311
3415.00200	0.03288
3413.71624	0.03264
3412.43047	0.03238
3411.14470	0.03203
3409.85893	0.03160
3408.57316	0.03128
3407.28739	0.03130
3406.00162	0.03166
3404.71585	0.03210
3403.43008	0.03229
3402.14432	0.03216
3400.85855	0.03192
3399.57278	0.03190
3398.28701	0.03223
3397.00124	0.03284
3395.71547	0.03356
3394.42970	0.03429
3393.14393	0.03493
3391.85817	0.03537
3390.57240	0.03550
3389.28663	0.03523
3388.00086	0.03464
3386.71509	0.03402
3385.42932	0.03365
3384.14355	0.03364
3382.85778	0.03381
3381.57201	0.03391
3380.28625	0.03387
3379.00048	0.03377
3377.71471	0.03370
3376.42894	0.03366
3375.14317	0.03355
3373.85740	0.03336
3372.57163	0.03322
3371.28586	0.03332
3370.00010	0.03367
3368.71433	0.03407
3367.42856	0.03426
3366.14279	0.03413
3364.85702	0.03378
3363.57125	0.03343
3362.28548	0.03331
3360.99971	0.03343
3359.71394	0.03361
3358.42818	0.03375
3357.14241	0.03396
3355.85664	0.03437
3354.57087	0.03491
3353.28510	0.03533
3351.99933	0.03538
3350.71356	0.03504
3349.42779	0.03452
3348.14202	0.03409
3346.85626	0.03392
3345.57049	0.03395
3344.28472	0.03397
3342.99895	0.03382
3341.71318	0.03356
3340.42741	0.03335
3339.14164	0.03332
3337.85587	0.03348
3336.57011	0.03370
3335.28434	0.03387
3333.99857	0.03398
3332.71280	0.03407
3331.42703	0.03421
3330.14126	0.03438
3328.85549	0.03451
3327.56972	0.03455
3326.28395	0.03450
3324.99819	0.03443
3323.71242	0.03433
3322.42665	0.03415
3321.14088	0.03389
3319.85511	0.03365
3318.56934	0.03354
3317.28357	0.03362
3315.99780	0.03388
3314.71204	0.03419
3313.42627	0.03434
3312.14050	0.03423
3310.85473	0.03397
3309.56896	0.03370
3308.28319	0.03342
3306.99742	0.03308
3305.71165	0.03266
3304.42588	0.03221
3303.14012	0.03184
3301.85435	0.03169
3300.56858	0.03180
3299.28281	0.03200
3297.99704	0.03203
3296.71127	0.03179
3295.42550	0.03153
3294.13973	0.03159
3292.85397	0.03209
3291.56820	0.03287
3290.28243	0.03356
3288.99666	0.03392
3287.71089	0.03387
3286.42512	0.03352
3285.13935	0.03299
3283.85358	0.03239
3282.56781	0.03183
3281.28205	0.03144
3279.99628	0.03136
3278.71051	0.03164
3277.42474	0.03219
3276.13897	0.03269
3274.85320	0.03280
3273.56743	0.03244
3272.28166	0.03192
3270.99590	0.03169
3269.71013	0.03196
3268.42436	0.03255
3267.13859	0.03310
3265.85282	0.03332
3264.56705	0.03314
3263.28128	0.03266
3261.99551	0.03213
3260.70974	0.03177
3259.42398	0.03171
3258.13821	0.03199
3256.85244	0.03245
3255.56667	0.03285
3254.28090	0.03297
3252.99513	0.03280
3251.70936	0.03247
3250.42359	0.03208
3249.13783	0.03167
3247.85206	0.03125
3246.56629	0.03094
3245.28052	0.03090
3243.99475	0.03121
3242.70898	0.03169
3241.42321	0.03205
3240.13744	0.03208
3238.85167	0.03179
3237.56591	0.03146
3236.28014	0.03137
3234.99437	0.03153
3233.70860	0.03166
3232.42283	0.03149
3231.13706	0.03106
3229.85129	0.03068
3228.56552	0.03061
3227.27976	0.03081
3225.99399	0.03112
3224.70822	0.03143
3223.42245	0.03175
3222.13668	0.03208
3220.85091	0.03234
3219.56514	0.03239
3218.27937	0.03220
3216.99360	0.03188
3215.70784	0.03162
3214.42207	0.03140
3213.13630	0.03104
3211.85053	0.03049
3210.56476	0.02999
3209.27899	0.02986
3207.99322	0.03021
3206.70745	0.03073
3205.42169	0.03106
3204.13592	0.03110
3202.85015	0.03103
3201.56438	0.03107
3200.27861	0.03121
3198.99284	0.03128
3197.70707	0.03118
3196.42130	0.03102
3195.13553	0.03095
3193.84977	0.03096
3192.56400	0.03088
3191.27823	0.03055
3189.99246	0.03003
3188.70669	0.02968
3187.42092	0.02973
3186.13515	0.03004
3184.84938	0.03021
3183.56362	0.03005
3182.27785	0.02975
3180.99208	0.02967
3179.70631	0.02987
3178.42054	0.03015
3177.13477	0.03025
3175.84900	0.03009
3174.56323	0.02985
3173.27746	0.02974
3171.99170	0.02983
3170.70593	0.03006
3169.42016	0.03029
3168.13439	0.03046
3166.84862	0.03054
3165.56285	0.03051
3164.27708	0.03026
3162.99131	0.02975
3161.70555	0.02909
3160.41978	0.02855
3159.13401	0.02839
3157.84824	0.02859
3156.56247	0.02890
3155.27670	0.02907
3153.99093	0.02902
3152.70516	0.02887
3151.41939	0.02877
3150.13363	0.02873
3148.84786	0.02871
3147.56209	0.02865
3146.27632	0.02858
3144.99055	0.02857
3143.70478	0.02864
3142.41901	0.02873
3141.13324	0.02870
3139.84748	0.02845
3138.56171	0.02806
3137.27594	0.02774
3135.99017	0.02778
3134.70440	0.02820
3133.41863	0.02880
3132.13286	0.02928
3130.84709	0.02947
3129.56132	0.02934
3128.27556	0.02901
3126.98979	0.02865
3125.70402	0.02837
3124.41825	0.02824
3123.13248	0.02822
3121.84671	0.02827
3120.56094	0.02837
3119.27517	0.02850
3117.98940	0.02862
3116.70364	0.02866
3115.41787	0.02856
3114.13210	0.02836
3112.84633	0.02812
3111.56056	0.02789
3110.27479	0.02765
3108.98902	0.02734
3107.70325	0.02704
3106.41749	0.02694
3105.13172	0.02718
3103.84595	0.02767
3102.56018	0.02813
3101.27441	0.02838
3099.98864	0.02845
3098.70287	0.02846
3097.41710	0.02847
3096.13133	0.02848
3094.84557	0.02845
3093.55980	0.02833
3092.27403	0.02811
3090.98826	0.02783
3089.70249	0.02759
3088.41672	0.02742
3087.13095	0.02720
3085.84518	0.02689
3084.55942	0.02663
3083.27365	0.02663
3081.98788	0.02690
3080.70211	0.02724
3079.41634	0.02746
3078.13057	0.02754
3076.84480	0.02758
3075.55903	0.02767
3074.27326	0.02779
3072.98750	0.02782
3071.70173	0.02762
3070.41596	0.02725
3069.13019	0.02686
3067.84442	0.02666
3066.55865	0.02661
3065.27288	0.02659
3063.98711	0.02648
3062.70135	0.02638
3061.41558	0.02641
3060.12981	0.02653
3058.84404	0.02657
3057.55827	0.02637
3056.27250	0.02595
3054.98673	0.02555
3053.70096	0.02546
3052.41519	0.02577
3051.12943	0.02632
3049.84366	0.02678
3048.55789	0.02692
3047.27212	0.02675
3045.98635	0.02647
3044.70058	0.02625
3043.41481	0.02612
3042.12904	0.02602
3040.84328	0.02591
3039.55751	0.02578
3038.27174	0.02563
3036.98597	0.02542
3035.70020	0.02515
3034.41443	0.02493
3033.12866	0.02491
3031.84289	0.02518
3030.55712	0.02558
3029.27136	0.02579
3027.98559	0.02562
3026.69982	0.02518
3025.41405	0.02478
3024.12828	0.02466
3022.84251	0.02486
3021.55674	0.02525
3020.27097	0.02566
3018.98521	0.02596
3017.69944	0.02608
3016.41367	0.02605
3015.12790	0.02592
3013.84213	0.02574
3012.55636	0.02556
3011.27059	0.02538
3009.98482	0.02522
3008.69905	0.02504
3007.41329	0.02484
3006.12752	0.02469
3004.84175	0.02469
3003.55598	0.02482
3002.27021	0.02493
3000.98444	0.02492
2999.69867	0.02486
2998.41290	0.02493
2997.12714	0.02524
2995.84137	0.02563
2994.55560	0.02592
2993.26983	0.02602
2991.98406	0.02597
2990.69829	0.02582
2989.41252	0.02560
2988.12675	0.02527
2986.84098	0.02486
2985.55522	0.02451
2984.26945	0.02444
2982.98368	0.02477
2981.69791	0.02533
2980.41214	0.02576
2979.12637	0.02584
2977.84060	0.02569
2976.55483	0.02558
2975.26907	0.02569
2973.98330	0.02605
2972.69753	0.02656
2971.41176	0.02710
2970.12599	0.02764
2968.84022	0.02816
2967.55445	0.02866
2966.26868	0.02917
2964.98291	0.02974
2963.69715	0.03038
2962.41138	0.03098
2961.12561	0.03139
2959.83984	0.03158
2958.55407	0.03172
2957.26830	0.03197
2955.98253	0.03234
2954.69676	0.03267
2953.41100	0.03293
2952.12523	0.03320
2950.83946	0.03356
2949.55369	0.03384
2948.26792	0.03386
2946.98215	0.03366
2945.69638	0.03345
2944.41061	0.03334
2943.12484	0.03325
2941.83908	0.03306
2940.55331	0.03278
2939.26754	0.03259
2937.98177	0.03261
2936.69600	0.03287
2935.41023	0.03334
2934.12446	0.03399
2932.83869	0.03478
2931.55293	0.03555
2930.26716	0.03606
2928.98139	0.03621
2927.69562	0.03610
2926.40985	0.03595
2925.12408	0.03588
2923.83831	0.03587
2922.55254	0.03584
2921.26677	0.03571
2919.98101	0.03542
2918.69524	0.03503
2917.40947	0.03463
2916.12370	0.03430
2914.83793	0.03403
2913.55216	0.03378
2912.26639	0.03354
2910.98062	0.03330
2909.69486	0.03305
2908.40909	0.03280
2907.12332	0.03254
2905.83755	0.03228
2904.55178	0.03201
2903.26601	0.03166
2901.98024	0.03117
2900.69447	0.03068
2899.40870	0.03043
2898.12294	0.03045
2896.83717	0.03049
2895.55140	0.03026
2894.26563	0.02978
2892.97986	0.02939
2891.69409	0.02931
2890.40832	0.02949
2889.12255	0.02966
2887.83678	0.02964
2886.55102	0.02944
2885.26525	0.02920
2883.97948	0.02903
2882.69371	0.02892
2881.40794	0.02880
2880.12217	0.02864
2878.83640	0.02847
2877.55063	0.02838
2876.26487	0.02846
2874.97910	0.02871
2873.69333	0.02906
2872.40756	0.02937
2871.12179	0.02951
2869.83602	0.02949
2868.55025	0.02939
2867.26448	0.02928
2865.97871	0.02916
2864.69295	0.02900
2863.40718	0.02883
2862.12141	0.02876
2860.83564	0.02880
2859.54987	0.02883
2858.26410	0.02878
2856.97833	0.02874
2855.69256	0.02885
2854.40680	0.02910
2853.12103	0.02925
2851.83526	0.02912
2850.54949	0.02869
2849.26372	0.02812
2847.97795	0.02754
2846.69218	0.02698
2845.40641	0.02645
2844.12064	0.02600
2842.83488	0.02570
2841.54911	0.02552
2840.26334	0.02540
2838.97757	0.02525
2837.69180	0.02503
2836.40603	0.02467
2835.12026	0.02418
2833.83449	0.02366
2832.54873	0.02326
2831.26296	0.02303
2829.97719	0.02293
2828.69142	0.02283
2827.40565	0.02264
2826.11988	0.02241
2824.83411	0.02223
2823.54834	0.02209
2822.26257	0.02195
2820.97681	0.02177
2819.69104	0.02162
2818.40527	0.02156
2817.11950	0.02158
2815.83373	0.02157
2814.54796	0.02146
2813.26219	0.02133
2811.97642	0.02127
2810.69066	0.02133
2809.40489	0.02147
2808.11912	0.02163
2806.83335	0.02176
2805.54758	0.02177
2804.26181	0.02159
2802.97604	0.02124
2801.69027	0.02085
2800.40450	0.02052
2799.11874	0.02029
2797.83297	0.02015
2796.54720	0.02009
2795.26143	0.02010
2793.97566	0.02017
2792.68989	0.02025
2791.40412	0.02031
2790.11835	0.02037
2788.83259	0.02043
2787.54682	0.02047
2786.26105	0.02043
2784.97528	0.02034
2783.68951	0.02028
2782.40374	0.02025
2781.11797	0.02020
2779.83220	0.02004
2778.54643	0.01984
2777.26067	0.01974
2775.97490	0.01981
2774.68913	0.01998
2773.40336	0.02011
2772.11759	0.02008
2770.83182	0.01985
2769.54605	0.01953
2768.26028	0.01930
2766.97452	0.01928
2765.68875	0.01942
2764.40298	0.01959
2763.11721	0.01969
2761.83144	0.01971
2760.54567	0.01966
2759.25990	0.01961
2757.97413	0.01971
2756.68836	0.01995
2755.40260	0.02018
2754.11683	0.02018
2752.83106	0.01993
2751.54529	0.01964
2750.25952	0.01951
2748.97375	0.01957
2747.68798	0.01964
2746.40221	0.01955
2745.11645	0.01934
2743.83068	0.01916
2742.54491	0.01910
2741.25914	0.01919
2739.97337	0.01939
2738.68760	0.01956
2737.40183	0.01955
2736.11606	0.01935
2734.83029	0.01909
2733.54453	0.01891
2732.25876	0.01891
2730.97299	0.01907
2729.68722	0.01930
2728.40145	0.01947
2727.11568	0.01950
2725.82991	0.01938
2724.54414	0.01922
2723.25838	0.01915
2721.97261	0.01916
2720.68684	0.01912
2719.40107	0.01891
2718.11530	0.01855
2716.82953	0.01822
2715.54376	0.01811
2714.25799	0.01825
2712.97222	0.01846
2711.68646	0.01859
2710.40069	0.01856
2709.11492	0.01843
2707.82915	0.01833
2706.54338	0.01834
2705.25761	0.01846
2703.97184	0.01861
2702.68607	0.01871
2701.40031	0.01876
2700.11454	0.01881
2698.82877	0.01886
2697.54300	0.01890
2696.25723	0.01889
2694.97146	0.01883
2693.68569	0.01870
2692.39992	0.01849
2691.11415	0.01828
2689.82839	0.01820
2688.54262	0.01830
2687.25685	0.01848
2685.97108	0.01860
2684.68531	0.01859
2683.39954	0.01849
2682.11377	0.01837
2680.82800	0.01828
2679.54224	0.01824
2678.25647	0.01822
2676.97070	0.01821
2675.68493	0.01820
2674.39916	0.01815
2673.11339	0.01805
2671.82762	0.01793
2670.54185	0.01789
2669.25608	0.01795
2667.97032	0.01805
2666.68455	0.01810
2665.39878	0.01805
2664.11301	0.01796
2662.82724	0.01790
2661.54147	0.01791
2660.25570	0.01795
2658.96993	0.01794
2657.68417	0.01779
2656.39840	0.01755
2655.11263	0.01735
2653.82686	0.01732
2652.54109	0.01745
2651.25532	0.01761
2649.96955	0.01771
2648.68378	0.01776
2647.39801	0.01779
2646.11225	0.01774
2644.82648	0.01764
2643.54071	0.01761
2642.25494	0.01768
2640.96917	0.01770
2639.68340	0.01748
2638.39763	0.01705
2637.11186	0.01669
2635.82609	0.01669
2634.54033	0.01701
2633.25456	0.01737
2631.96879	0.01751
2630.68302	0.01738
2629.39725	0.01715
2628.11148	0.01692
2626.82571	0.01673
2625.53994	0.01656
2624.25418	0.01636
2622.96841	0.01613
2621.68264	0.01592
2620.39687	0.01584
2619.11110	0.01584
2617.82533	0.01580
2616.53956	0.01571
2615.25379	0.01571
2613.96802	0.01585
2612.68226	0.01596
2611.39649	0.01583
2610.11072	0.01554
2608.82495	0.01539
2607.53918	0.01556
2606.25341	0.01593
2604.96764	0.01624
2603.68187	0.01634
2602.39611	0.01626
2601.11034	0.01609
2599.82457	0.01587
2598.53880	0.01564
2597.25303	0.01548
2595.96726	0.01549
2594.68149	0.01562
2593.39572	0.01569
2592.10995	0.01559
2590.82419	0.01541
2589.53842	0.01529
2588.25265	0.01527
2586.96688	0.01534
2585.68111	0.01544
2584.39534	0.01547
2583.10957	0.01533
2581.82380	0.01505
2580.53804	0.01481
2579.25227	0.01474
2577.96650	0.01481
2576.68073	0.01496
2575.39496	0.01519
2574.10919	0.01538
2572.82342	0.01540
2571.53765	0.01524
2570.25188	0.01513
2568.96612	0.01524
2567.68035	0.01537
2566.39458	0.01522
2565.10881	0.01478
2563.82304	0.01433
2562.53727	0.01412
2561.25150	0.01410
2559.96573	0.01410
2558.67997	0.01399
2557.39420	0.01370
2556.10843	0.01330
2554.82266	0.01298
2553.53689	0.01295
2552.25112	0.01327
2550.96535	0.01377
2549.67958	0.01420
2548.39381	0.01445
2547.10805	0.01460
2545.82228	0.01480
2544.53651	0.01502
2543.25074	0.01507
2541.96497	0.01483
2540.67920	0.01442
2539.39343	0.01410
2538.10766	0.01399
2536.82190	0.01395
2535.53613	0.01382
2534.25036	0.01367
2532.96459	0.01368
2531.67882	0.01396
2530.39305	0.01435
2529.10728	0.01461
2527.82151	0.01455
2526.53574	0.01423
2525.24998	0.01391
2523.96421	0.01385
2522.67844	0.01405
2521.39267	0.01425
2520.10690	0.01420
2518.82113	0.01391
2517.53536	0.01360
2516.24959	0.01339
2514.96383	0.01319
2513.67806	0.01291
2512.39229	0.01267
2511.10652	0.01265
2509.82075	0.01280
2508.53498	0.01288
2507.24921	0.01280
2505.96344	0.01273
2504.67767	0.01287
2503.39191	0.01318
2502.10614	0.01344
2500.82037	0.01351
2499.53460	0.01348
2498.24883	0.01349
2496.96306	0.01362
2495.67729	0.01377
2494.39152	0.01378
2493.10576	0.01361
2491.81999	0.01334
2490.53422	0.01307
2489.24845	0.01280
2487.96268	0.01255
2486.67691	0.01244
2485.39114	0.01259
2484.10537	0.01300
2482.81960	0.01349
2481.53384	0.01378
2480.24807	0.01372
2478.96230	0.01338
2477.67653	0.01307
2476.39076	0.01298
2475.10499	0.01306
2473.81922	0.01306
2472.53345	0.01287
2471.24769	0.01263
2469.96192	0.01253
2468.67615	0.01255
2467.39038	0.01258
2466.10461	0.01258
2464.81884	0.01265
2463.53307	0.01278
2462.24730	0.01283
2460.96153	0.01268
2459.67577	0.01242
2458.39000	0.01220
2457.10423	0.01209
2455.81846	0.01215
2454.53269	0.01243
2453.24692	0.01292
2451.96115	0.01343
2450.67538	0.01374
2449.38962	0.01370
2448.10385	0.01337
2446.81808	0.01298
2445.53231	0.01275
2444.24654	0.01270
2442.96077	0.01267
2441.67500	0.01259
2440.38923	0.01254
2439.10346	0.01263
2437.81770	0.01275
2436.53193	0.01274
2435.24616	0.01259
2433.96039	0.01249
2432.67462	0.01257
2431.38885	0.01278
2430.10308	0.01293
2428.81731	0.01290
2427.53155	0.01272
2426.24578	0.01251
2424.96001	0.01236
2423.67424	0.01221
2422.38847	0.01197
2421.10270	0.01166
2419.81693	0.01139
2418.53116	0.01129
2417.24539	0.01139
2415.95963	0.01160
2414.67386	0.01183
2413.38809	0.01206
2412.10232	0.01226
2410.81655	0.01235
2409.53078	0.01224
2408.24501	0.01198
2406.95924	0.01173
2405.67347	0.01165
2404.38771	0.01180
2403.10194	0.01211
2401.81617	0.01239
2400.53040	0.01242
2399.24463	0.01222
2397.95886	0.01179
2396.67309	0.01144
2395.38732	0.01139
2394.10156	0.01155
2392.81579	0.01169
2391.53002	0.01165
2390.24425	0.01141
2388.95848	0.01117
2387.67271	0.01116
2386.38694	0.01144
2385.10117	0.01187
2383.81540	0.01219
2382.52964	0.01228
2381.24387	0.01219
2379.95810	0.01207
2378.67233	0.01203
2377.38656	0.01205
2376.10079	0.01211
2374.81502	0.01209
2373.52925	0.01198
2372.24349	0.01181
2370.95772	0.01168
2369.67195	0.01153
2368.38618	0.01148
2367.10041	0.01166
2365.81464	0.01214
2364.52887	0.01261
2363.24310	0.01290
2361.95733	0.01304
2360.67157	0.01324
2359.38580	0.01326
2358.10003	0.01300
2356.81426	0.01259
2355.52849	0.01224
2354.24272	0.01208
2352.95695	0.01217
2351.67118	0.01256
2350.38542	0.01292
2349.09965	0.01284
2347.81388	0.01246
2346.52811	0.01254
2345.24234	0.01294
2343.95657	0.01283
2342.67080	0.01222
2341.38503	0.01233
2340.09926	0.01321
2338.81350	0.01317
2337.52773	0.01224
2336.24196	0.01263
2334.95619	0.01393
2333.67042	0.01378
2332.38465	0.01281
2331.09888	0.01351
2329.81311	0.01444
2328.52735	0.01400
2327.24158	0.01461
2325.95581	0.01564
2324.67004	0.01500
2323.38427	0.01432
2322.09850	0.01419
2320.81273	0.01313
2319.52696	0.01255
2318.24119	0.01248
2316.95543	0.01198
2315.66966	0.01203
2314.38389	0.01243
2313.09812	0.01252
2311.81235	0.01281
2310.52658	0.01282
2309.24081	0.01259
2307.95504	0.01238
2306.66928	0.01201
2305.38351	0.01186
2304.09774	0.01190
2302.81197	0.01196
2301.52620	0.01205
2300.24043	0.01197
2298.95466	0.01180
2297.66889	0.01159
2296.38312	0.01148
2295.09736	0.01164
2293.81159	0.01205
2292.52582	0.01263
2291.24005	0.01308
2289.95428	0.01314
2288.66851	0.01269
2287.38274	0.01186
2286.09697	0.01104
2284.81121	0.01060
2283.52544	0.01065
2282.23967	0.01101
2280.95390	0.01143
2279.66813	0.01185
2278.38236	0.01232
2277.09659	0.01281
2275.81082	0.01316
2274.52505	0.01316
2273.23929	0.01278
2271.95352	0.01210
2270.66775	0.01126
2269.38198	0.01044
2268.09621	0.00991
2266.81044	0.00990
2265.52467	0.01026
2264.23890	0.01041
2262.95314	0.00995
2261.66737	0.00903
2260.38160	0.00821
2259.09583	0.00800
2257.81006	0.00851
2256.52429	0.00939
2255.23852	0.01013
2253.95275	0.01044
2252.66698	0.01035
2251.38122	0.01008
2250.09545	0.00970
2248.80968	0.00911
2247.52391	0.00880
2246.23814	0.00843
2244.95237	0.00834
2243.66660	0.00879
2242.38083	0.00942
2241.09507	0.00957
2239.80930	0.00900
2238.52353	0.00818
2237.23776	0.00774
2235.95199	0.00787
2234.66622	0.00826
2233.38045	0.00854
2232.09468	0.00856
2230.80891	0.00832
2229.52315	0.00774
2228.23738	0.00685
2226.95161	0.00605
2225.66584	0.00591
2224.38007	0.00652
2223.09430	0.00720
2221.80853	0.00728
2220.52276	0.00679
2219.23700	0.00639
2217.95123	0.00655
2216.66546	0.00708
2215.37969	0.00734
2214.09392	0.00687
2212.80815	0.00586
2211.52238	0.00507
2210.23661	0.00517
2208.95084	0.00596
2207.66508	0.00659
2206.37931	0.00639
2205.09354	0.00568
2203.80777	0.00542
2202.52200	0.00619
2201.23623	0.00757
2199.95046	0.00854
2198.66469	0.00853
2197.37893	0.00790
2196.09316	0.00737
2194.80739	0.00716
2193.52162	0.00696
2192.23585	0.00649
2190.95008	0.00585
2189.66431	0.00546
2188.37854	0.00569
2187.09277	0.00650
2185.80701	0.00738
2184.52124	0.00774
2183.23547	0.00740
2181.94970	0.00667
2180.66393	0.00582
2179.37816	0.00490
2178.09239	0.00400
2176.80662	0.00335
2175.52085	0.00322
2174.23509	0.00361
2172.94932	0.00411
2171.66355	0.00423
2170.37778	0.00398
2169.09201	0.00383
2167.80624	0.00417
2166.52047	0.00492
2165.23470	0.00574
2163.94894	0.00645
2162.66317	0.00693
2161.37740	0.00693
2160.09163	0.00620
2158.80586	0.00483
2157.52009	0.00346
2156.23432	0.00283
2154.94855	0.00318
2153.66278	0.00401
2152.37702	0.00448
2151.09125	0.00409
2149.80548	0.00309
2148.51971	0.00229
2147.23394	0.00240
2145.94817	0.00346
2144.66240	0.00477
2143.37663	0.00553
2142.09087	0.00552
2140.80510	0.00516
2139.51933	0.00507
2138.23356	0.00555
2136.94779	0.00635
2135.66202	0.00686
2134.37625	0.00666
2133.09048	0.00598
2131.80471	0.00537
2130.51895	0.00507
2129.23318	0.00489
2127.94741	0.00470
2126.66164	0.00462
2125.37587	0.00478
2124.09010	0.00510
2122.80433	0.00544
2121.51856	0.00584
2120.23280	0.00634
2118.94703	0.00678
2117.66126	0.00693
2116.37549	0.00670
2115.08972	0.00623
2113.80395	0.00578
2112.51818	0.00564
2111.23241	0.00591
2109.94664	0.00638
2108.66088	0.00664
2107.37511	0.00647
2106.08934	0.00606
2104.80357	0.00576
2103.51780	0.00573
2102.23203	0.00594
2100.94626	0.00610
2099.66049	0.00464
2098.37473	0.00362
2097.08896	0.00321
2095.80319	0.00317
2094.51742	0.00353
2093.23165	0.00423
2091.94588	0.00502
2090.66011	0.00565
2089.37434	0.00591
2088.08857	0.00578
2086.80281	0.00544
2085.51704	0.00525
2084.23127	0.00547
2082.94550	0.00601
2081.65973	0.00647
2080.37396	0.00640
2079.08819	0.00575
2077.80242	0.00491
2076.51666	0.00434
2075.23089	0.00409
2073.94512	0.00391
2072.65935	0.00361
2071.37358	0.00324
2070.08781	0.00293
2068.80204	0.00261
2067.51627	0.00219
2066.23050	0.00179
2064.94474	0.00168
2063.65897	0.00207
2062.37320	0.00281
2061.08743	0.00348
2059.80166	0.00374
2058.51589	0.00355
2057.23012	0.00324
2055.94435	0.00326
2054.65859	0.00379
2053.37282	0.00451
2052.08705	0.00473
2050.80128	0.00399
2049.51551	0.00256
2048.22974	0.00130
2046.94397	0.00092
2045.65820	0.00138
2044.37243	0.00203
2043.08667	0.00216
2041.80090	0.00160
2040.51513	0.00068
2039.22936	-0.00017
2037.94359	-0.00087
2036.65782	-0.00159
2035.37205	-0.00242
2034.08628	-0.00314
2032.80052	-0.00336
2031.51475	-0.00269
2030.22898	-0.00109
2028.94321	0.00091
2027.65744	0.00245
2026.37167	0.00296
2025.08590	0.00255
2023.80013	0.00174
2022.51436	0.00091
2021.22860	0.00018
2019.94283	-0.00038
2018.65706	-0.00067
2017.37129	-0.00063
2016.08552	-0.00031
2014.79975	0.00013
2013.51398	0.00045
2012.22821	0.00037
2010.94245	-0.00029
2009.65668	-0.00142
2008.37091	-0.00261
2007.08514	-0.00324
2005.79937	-0.00289
2004.51360	-0.00169
2003.22783	-0.00013
2001.94206	0.00145
2000.65629	0.00290
1999.37053	0.00396
1998.08476	0.00434
1996.79899	0.00407
1995.51322	0.00368
1994.22745	0.00373
1992.94168	0.00427
1991.65591	0.00492
1990.37014	0.00523
1989.08438	0.00502
1987.79861	0.00436
1986.51284	0.00347
1985.22707	0.00256
1983.94130	0.00178
1982.65553	0.00122
1981.36976	0.00090
1980.08399	0.00065
1978.79822	0.00036
1977.51246	0.00014
1976.22669	0.00030
1974.94092	0.00082
1973.65515	0.00127
1972.36938	0.00129
1971.08361	0.00101
1969.79784	0.00089
1968.51207	0.00115
1967.22631	0.00175
1965.94054	0.00254
1964.65477	0.00333
1963.36900	0.00385
1962.08323	0.00392
1960.79746	0.00378
1959.51169	0.00389
1958.22592	0.00444
1956.94015	0.00508
1955.65439	0.00530
1954.36862	0.00498
1953.08285	0.00448
1951.79708	0.00425
1950.51131	0.00444
1949.22554	0.00481
1947.93977	0.00496
1946.65400	0.00478
1945.36823	0.00451
1944.08247	0.00449
1942.79670	0.00478
1941.51093	0.00516
1940.22516	0.00534
1938.93939	0.00518
1937.65362	0.00475
1936.36785	0.00424
1935.08208	0.00390
1933.79632	0.00388
1932.51055	0.00412
1931.22478	0.00438
1929.93901	0.00451
1928.65324	0.00459
1927.36747	0.00483
1926.08170	0.00529
1924.79593	0.00575
1923.51016	0.00596
1922.22440	0.00593
1920.93863	0.00581
1919.65286	0.00565
1918.36709	0.00541
1917.08132	0.00513
1915.79555	0.00496
1914.50978	0.00503
1913.22401	0.00525
1911.93825	0.00542
1910.65248	0.00538
1909.36671	0.00513
1908.08094	0.00483
1906.79517	0.00467
1905.50940	0.00475
1904.22363	0.00493
1902.93786	0.00502
1901.65209	0.00498
1900.36633	0.00495
1899.08056	0.00509
1897.79479	0.00541
1896.50902	0.00569
1895.22325	0.00567
1893.93748	0.00536
1892.65171	0.00502
1891.36594	0.00490
1890.08018	0.00504
1888.79441	0.00523
1887.50864	0.00529
1886.22287	0.00526
1884.93710	0.00529
1883.65133	0.00540
1882.36556	0.00550
1881.07979	0.00553
1879.79402	0.00550
1878.50826	0.00544
1877.22249	0.00536
1875.93672	0.00531
1874.65095	0.00535
1873.36518	0.00551
1872.07941	0.00576
1870.79364	0.00597
1869.50787	0.00608
1868.22211	0.00606
1866.93634	0.00600
1865.65057	0.00596
1864.36480	0.00597
1863.07903	0.00594
1861.79326	0.00579
1860.50749	0.00554
1859.22172	0.00533
1857.93595	0.00527
1856.65019	0.00541
1855.36442	0.00570
1854.07865	0.00602
1852.79288	0.00625
1851.50711	0.00637
1850.22134	0.00639
1848.93557	0.00637
1847.64980	0.00630
1846.36404	0.00622
1845.07827	0.00619
1843.79250	0.00623
1842.50673	0.00634
1841.22096	0.00644
1839.93519	0.00649
1838.64942	0.00646
1837.36365	0.00638
1836.07788	0.00626
1834.79212	0.00613
1833.50635	0.00604
1832.22058	0.00607
1830.93481	0.00620
1829.64904	0.00637
1828.36327	0.00646
1827.07750	0.00642
1825.79173	0.00626
1824.50597	0.00601
1823.22020	0.00568
1821.93443	0.00532
1820.64866	0.00506
1819.36289	0.00502
1818.07712	0.00528
1816.79135	0.00575
1815.50558	0.00627
1814.21981	0.00670
1812.93405	0.00700
1811.64828	0.00721
1810.36251	0.00735
1809.07674	0.00748
1807.79097	0.00755
1806.50520	0.00754
1805.21943	0.00740
1803.93366	0.00716
1802.64790	0.00692
1801.36213	0.00678
1800.07636	0.00679
1798.79059	0.00689
1797.50482	0.00697
1796.21905	0.00696
1794.93328	0.00691
1793.64751	0.00687
1792.36174	0.00689
1791.07598	0.00697
1789.79021	0.00707
1788.50444	0.00719
1787.21867	0.00728
1785.93290	0.00730
1784.64713	0.00724
1783.36136	0.00713
1782.07559	0.00700
1780.78983	0.00689
1779.50406	0.00679
1778.21829	0.00670
1776.93252	0.00665
1775.64675	0.00666
1774.36098	0.00674
1773.07521	0.00689
1771.78944	0.00710
1770.50367	0.00733
1769.21791	0.00749
1767.93214	0.00758
1766.64637	0.00761
1765.36060	0.00764
1764.07483	0.00769
1762.78906	0.00775
1761.50329	0.00782
1760.21752	0.00788
1758.93176	0.00792
1757.64599	0.00795
1756.36022	0.00801
1755.07445	0.00812
1753.78868	0.00818
1752.50291	0.00815
1751.21714	0.00803
1749.93137	0.00795
1748.64560	0.00798
1747.35984	0.00810
1746.07407	0.00820
1744.78830	0.00818
1743.50253	0.00805
1742.21676	0.00791
1740.93099	0.00789
1739.64522	0.00802
1738.35945	0.00818
1737.07369	0.00823
1735.78792	0.00812
1734.50215	0.00801
1733.21638	0.00808
1731.93061	0.00833
1730.64484	0.00862
1729.35907	0.00879
1728.07330	0.00885
1726.78753	0.00888
1725.50177	0.00896
1724.21600	0.00909
1722.93023	0.00921
1721.64446	0.00928
1720.35869	0.00929
1719.07292	0.00927
1717.78715	0.00932
1716.50138	0.00951
1715.21561	0.00982
1713.92985	0.01014
1712.64408	0.01038
1711.35831	0.01054
1710.07254	0.01068
1708.78677	0.01084
1707.50100	0.01102
1706.21523	0.01115
1704.92946	0.01123
1703.64370	0.01123
1702.35793	0.01117
1701.07216	0.01111
1699.78639	0.01111
1698.50062	0.01117
1697.21485	0.01128
1695.92908	0.01144
1694.64331	0.01170
1693.35754	0.01205
1692.07178	0.01237
1690.78601	0.01254
1689.50024	0.01254
1688.21447	0.01242
1686.92870	0.01230
1685.64293	0.01230
1684.35716	0.01247
1683.07139	0.01281
1681.78563	0.01321
1680.49986	0.01355
1679.21409	0.01375
1677.92832	0.01379
1676.64255	0.01375
1675.35678	0.01376
1674.07101	0.01388
1672.78524	0.01409
1671.49947	0.01433
1670.21371	0.01456
1668.92794	0.01477
1667.64217	0.01497
1666.35640	0.01515
1665.07063	0.01527
1663.78486	0.01536
1662.49909	0.01545
1661.21332	0.01558
1659.92756	0.01576
1658.64179	0.01591
1657.35602	0.01594
1656.07025	0.01581
1654.78448	0.01560
1653.49871	0.01550
1652.21294	0.01565
1650.92717	0.01597
1649.64140	0.01625
1648.35564	0.01638
1647.06987	0.01638
1645.78410	0.01639
1644.49833	0.01647
1643.21256	0.01661
1641.92679	0.01672
1640.64102	0.01677
1639.35525	0.01672
1638.06949	0.01657
1636.78372	0.01638
1635.49795	0.01627
1634.21218	0.01630
1632.92641	0.01645
1631.64064	0.01664
1630.35487	0.01679
1629.06910	0.01690
1627.78333	0.01697
1626.49757	0.01701
1625.21180	0.01700
1623.92603	0.01697
1622.64026	0.01696
1621.35449	0.01698
1620.06872	0.01700
1618.78295	0.01695
1617.49718	0.01686
1616.21142	0.01684
1614.92565	0.01695
1613.63988	0.01715
1612.35411	0.01739
1611.06834	0.01760
1609.78257	0.01775
1608.49680	0.01788
1607.21103	0.01801
1605.92526	0.01815
1604.63950	0.01830
1603.35373	0.01843
1602.06796	0.01856
1600.78219	0.01870
1599.49642	0.01884
1598.21065	0.01895
1596.92488	0.01902
1595.63911	0.01906
1594.35335	0.01912
1593.06758	0.01922
1591.78181	0.01938
1590.49604	0.01959
1589.21027	0.01983
1587.92450	0.02005
1586.63873	0.02023
1585.35296	0.02037
1584.06719	0.02048
1582.78143	0.02060
1581.49566	0.02070
1580.20989	0.02076
1578.92412	0.02078
1577.63835	0.02085
1576.35258	0.02105
1575.06681	0.02138
1573.78104	0.02174
1572.49528	0.02200
1571.20951	0.02216
1569.92374	0.02233
1568.63797	0.02258
1567.35220	0.02293
1566.06643	0.02329
1564.78066	0.02359
1563.49489	0.02374
1562.20912	0.02370
1560.92336	0.02359
1559.63759	0.02357
1558.35182	0.02376
1557.06605	0.02413
1555.78028	0.02454
1554.49451	0.02487
1553.20874	0.02511
1551.92297	0.02529
1550.63721	0.02545
1549.35144	0.02558
1548.06567	0.02567
1546.77990	0.02570
1545.49413	0.02569
1544.20836	0.02561
1542.92259	0.02545
1541.63682	0.02529
1540.35105	0.02526
1539.06529	0.02542
1537.77952	0.02573
1536.49375	0.02604
1535.20798	0.02631
1533.92221	0.02658
1532.63644	0.02691
1531.35067	0.02729
1530.06490	0.02765
1528.77914	0.02796
1527.49337	0.02824
1526.20760	0.02854
1524.92183	0.02889
1523.63606	0.02929
1522.35029	0.02977
1521.06452	0.03037
1519.77875	0.03110
1518.49298	0.03191
1517.20722	0.03272
1515.92145	0.03353
1514.63568	0.03436
1513.34991	0.03525
1512.06414	0.03616
1510.77837	0.03704
1509.49260	0.03782
1508.20683	0.03856
1506.92107	0.03938
1505.63530	0.04036
1504.34953	0.04144
1503.06376	0.04246
1501.77799	0.04330
1500.49222	0.04394
1499.20645	0.04444
1497.92068	0.04492
1496.63491	0.04547
1495.34915	0.04612
1494.06338	0.04681
1492.77761	0.04748
1491.49184	0.04812
1490.20607	0.04879
1488.92030	0.04954
1487.63453	0.05038
1486.34876	0.05124
1485.06299	0.05209
1483.77723	0.05291
1482.49146	0.05370
1481.20569	0.05446
1479.91992	0.05518
1478.63415	0.05585
1477.34838	0.05649
1476.06261	0.05709
1474.77684	0.05766
1473.49108	0.05824
1472.20531	0.05884
1470.91954	0.05945
1469.63377	0.06003
1468.34800	0.06052
1467.06223	0.06089
1465.77646	0.06114
1464.49069	0.06129
1463.20492	0.06138
1461.91916	0.06145
1460.63339	0.06152
1459.34762	0.06165
1458.06185	0.06190
1456.77608	0.06230
1455.49031	0.06279
1454.20454	0.06326
1452.91877	0.06364
1451.63301	0.06391
1450.34724	0.06413
1449.06147	0.06436
1447.77570	0.06456
1446.48993	0.06471
1445.20416	0.06475
1443.91839	0.06466
1442.63262	0.06444
1441.34685	0.06410
1440.06109	0.06367
1438.77532	0.06321
1437.48955	0.06284
1436.20378	0.06268
1434.91801	0.06273
1433.63224	0.06295
1432.34647	0.06329
1431.06070	0.06377
1429.77494	0.06440
1428.48917	0.06515
1427.20340	0.06601
1425.91763	0.06695
1424.63186	0.06792
1423.34609	0.06881
1422.06032	0.06955
1420.77455	0.07014
1419.48878	0.07067
1418.20302	0.07123
1416.91725	0.07178
1415.63148	0.07222
1414.34571	0.07246
1413.05994	0.07247
1411.77417	0.07227
1410.48840	0.07192
1409.20263	0.07143
1407.91687	0.07081
1406.63110	0.07007
1405.34533	0.06921
1404.05956	0.06827
1402.77379	0.06723
1401.48802	0.06607
1400.20225	0.06477
1398.91648	0.06336
1397.63071	0.06192
1396.34495	0.06048
1395.05918	0.05902
1393.77341	0.05756
1392.48764	0.05611
1391.20187	0.05468
1389.91610	0.05329
1388.63033	0.05194
1387.34456	0.05064
1386.05880	0.04940
1384.77303	0.04818
1383.48726	0.04695
1382.20149	0.04571
1380.91572	0.04447
1379.62995	0.04323
1378.34418	0.04197
1377.05841	0.04067
1375.77264	0.03934
1374.48688	0.03799
1373.20111	0.03667
1371.91534	0.03538
1370.62957	0.03414
1369.34380	0.03291
1368.05803	0.03173
1366.77226	0.03060
1365.48649	0.02955
1364.20073	0.02856
1362.91496	0.02763
1361.62919	0.02678
1360.34342	0.02600
1359.05765	0.02526
1357.77188	0.02456
1356.48611	0.02389
1355.20034	0.02330
1353.91457	0.02279
1352.62881	0.02231
1351.34304	0.02183
1350.05727	0.02134
1348.77150	0.02088
1347.48573	0.02047
1346.19996	0.02014
1344.91419	0.01985
1343.62842	0.01958
1342.34266	0.01932
1341.05689	0.01903
1339.77112	0.01872
1338.48535	0.01838
1337.19958	0.01805
1335.91381	0.01776
1334.62804	0.01749
1333.34227	0.01724
1332.05650	0.01701
1330.77074	0.01682
1329.48497	0.01667
1328.19920	0.01650
1326.91343	0.01631
1325.62766	0.01611
1324.34189	0.01594
1323.05612	0.01583
1321.77035	0.01576
1320.48459	0.01567
1319.19882	0.01554
1317.91305	0.01537
1316.62728	0.01521
1315.34151	0.01510
1314.05574	0.01502
1312.76997	0.01496
1311.48420	0.01485
1310.19843	0.01468
1308.91267	0.01447
1307.62690	0.01426
1306.34113	0.01409
1305.05536	0.01398
1303.76959	0.01391
1302.48382	0.01385
1301.19805	0.01379
1299.91228	0.01373
1298.62652	0.01368
1297.34075	0.01364
1296.05498	0.01360
1294.76921	0.01356
1293.48344	0.01348
1292.19767	0.01338
1290.91190	0.01324
1289.62613	0.01308
1288.34036	0.01293
1287.05460	0.01282
1285.76883	0.01276
1284.48306	0.01275
1283.19729	0.01276
1281.91152	0.01277
1280.62575	0.01273
1279.33998	0.01262
1278.05421	0.01248
1276.76845	0.01235
1275.48268	0.01228
1274.19691	0.01225
1272.91114	0.01223
1271.62537	0.01220
1270.33960	0.01217
1269.05383	0.01213
1267.76806	0.01208
1266.48229	0.01200
1265.19653	0.01192
1263.91076	0.01182
1262.62499	0.01170
1261.33922	0.01158
1260.05345	0.01147
1258.76768	0.01139
1257.48191	0.01136
1256.19614	0.01136
1254.91037	0.01135
1253.62461	0.01133
1252.33884	0.01128
1251.05307	0.01124
1249.76730	0.01121
1248.48153	0.01118
1247.19576	0.01113
1245.90999	0.01103
1244.62422	0.01091
1243.33846	0.01078
1242.05269	0.01071
1240.76692	0.01070
1239.48115	0.01073
1238.19538	0.01075
1236.90961	0.01073
1235.62384	0.01068
1234.33807	0.01063
1233.05230	0.01057
1231.76654	0.01053
1230.48077	0.01048
1229.19500	0.01044
1227.90923	0.01041
1226.62346	0.01041
1225.33769	0.01044
1224.05192	0.01046
1222.76615	0.01044
1221.48039	0.01041
1220.19462	0.01040
1218.90885	0.01042
1217.62308	0.01043
1216.33731	0.01039
1215.05154	0.01031
1213.76577	0.01024
1212.48000	0.01022
1211.19423	0.01023
1209.90847	0.01021
1208.62270	0.01014
1207.33693	0.01002
1206.05116	0.00988
1204.76539	0.00976
1203.47962	0.00969
1202.19385	0.00968
1200.90808	0.00981
1199.62232	0.01010
1198.33655	0.01019
1197.05078	0.01024
1195.76501	0.01026
1194.47924	0.01023
1193.19347	0.01016
1191.90770	0.01009
1190.62193	0.01007
1189.33616	0.01013
1188.05040	0.01023
1186.76463	0.01032
1185.47886	0.01037
1184.19309	0.01038
1182.90732	0.01037
1181.62155	0.01035
1180.33578	0.01030
1179.05001	0.01026
1177.76425	0.01024
1176.47848	0.01025
1175.19271	0.01028
1173.90694	0.01035
1172.62117	0.01048
1171.33540	0.01064
1170.04963	0.01078
1168.76386	0.01084
1167.47809	0.01084
1166.19233	0.01083
1164.90656	0.01087
1163.62079	0.01095
1162.33502	0.01106
1161.04925	0.01118
1159.76348	0.01128
1158.47771	0.01138
1157.19194	0.01149
1155.90618	0.01162
1154.62041	0.01177
1153.33464	0.01191
1152.04887	0.01202
1150.76310	0.01214
1149.47733	0.01234
1148.19156	0.01264
1146.90579	0.01302
1145.62002	0.01345
1144.33426	0.01393
1143.04849	0.01448
1141.76272	0.01507
1140.47695	0.01566
1139.19118	0.01624
1137.90541	0.01691
1136.61964	0.01770
1135.33387	0.01862
1134.04811	0.01961
1132.76234	0.02067
1131.47657	0.02182
1130.19080	0.02311
1128.90503	0.02461
1127.61926	0.02635
1126.33349	0.02828
1125.04772	0.03033
1123.76195	0.03244
1122.47619	0.03458
1121.19042	0.03679
1119.90465	0.03912
1118.61888	0.04160
1117.33311	0.04419
1116.04734	0.04679
1114.76157	0.04931
1113.47580	0.05172
1112.19004	0.05402
1110.90427	0.05626
1109.61850	0.05847
1108.33273	0.06067
1107.04696	0.06283
1105.76119	0.06490
1104.47542	0.06684
1103.18965	0.06866
1101.90388	0.07040
1100.61812	0.07211
1099.33235	0.07382
1098.04658	0.07548
1096.76081	0.07704
1095.47504	0.07848
1094.18927	0.07985
1092.90350	0.08122
1091.61773	0.08259
1090.33197	0.08390
1089.04620	0.08510
1087.76043	0.08618
1086.47466	0.08721
1085.18889	0.08829
1083.90312	0.08948
1082.61735	0.09077
1081.33158	0.09212
1080.04581	0.09353
1078.76005	0.09503
1077.47428	0.09667
1076.18851	0.09846
1074.90274	0.10039
1073.61697	0.10240
1072.33120	0.10441
1071.04543	0.10640
1069.75966	0.10840
1068.47390	0.11046
1067.18813	0.11260
1065.90236	0.11485
1064.61659	0.11718
1063.33082	0.11953
1062.04505	0.12182
1060.75928	0.12401
1059.47351	0.12613
1058.18774	0.12823
1056.90198	0.13031
1055.61621	0.13229
1054.33044	0.13417
1053.04467	0.13600
1051.75890	0.13790
1050.47313	0.13990
1049.18736	0.14201
1047.90159	0.14420
1046.61583	0.14642
1045.33006	0.14861
1044.04429	0.15071
1042.75852	0.15271
1041.47275	0.15468
1040.18698	0.15665
1038.90121	0.15861
1037.61544	0.16055
1036.32967	0.16247
1035.04391	0.16435
1033.75814	0.16611
1032.47237	0.16768
1031.18660	0.16895
1029.90083	0.16992
1028.61506	0.17059
1027.32929	0.17106
1026.04352	0.17138
1024.75775	0.17156
1023.47199	0.17151
1022.18622	0.17114
1020.90045	0.17041
1019.61468	0.16929
1018.32891	0.16780
1017.04314	0.16600
1015.75737	0.16396
1014.47160	0.16173
1013.18584	0.15927
1011.90007	0.15651
1010.61430	0.15337
1009.32853	0.14989
1008.04276	0.14613
1006.75699	0.14212
1005.47122	0.13788
1004.18545	0.13343
1002.89968	0.12880
1001.61392	0.12404
1000.32815	0.11916
999.04238	0.11423
997.75661	0.10932
996.47084	0.10450
995.18507	0.09980
993.89930	0.09521
992.61353	0.09075
991.32777	0.08645
990.04200	0.08236
988.75623	0.07852
987.47046	0.07494
986.18469	0.07162
984.89892	0.06852
983.61315	0.06556
982.32738	0.06274
981.04161	0.06010
979.75585	0.05771
978.47008	0.05561
977.18431	0.05378
975.89854	0.05224
974.61277	0.05096
973.32700	0.04994
972.04123	0.04918
970.75546	0.04870
969.46970	0.04856
968.18393	0.04878
966.89816	0.04937
965.61239	0.05027
964.32662	0.05132
963.04085	0.05223
961.75508	0.05276
960.46931	0.05281
959.18354	0.05244
957.89778	0.05169
956.61201	0.05060
955.32624	0.04920
954.04047	0.04762
952.75470	0.04601
951.46893	0.04445
950.18316	0.04294
948.89739	0.04147
947.61163	0.04004
946.32586	0.03867
945.04009	0.03735
943.75432	0.03608
942.46855	0.03487
941.18278	0.03378
939.89701	0.03282
938.61124	0.03194
937.32547	0.03111
936.03971	0.03033
934.75394	0.02965
933.46817	0.02905
932.18240	0.02847
930.89663	0.02787
929.61086	0.02727
928.32509	0.02675
927.03932	0.02633
925.75356	0.02598
924.46779	0.02561
923.18202	0.02520
921.89625	0.02481
920.61048	0.02451
919.32471	0.02428
918.03894	0.02408
916.75317	0.02384
915.46740	0.02356
914.18164	0.02329
912.89587	0.02308
911.61010	0.02294
910.32433	0.02282
909.03856	0.02267
907.75279	0.02246
906.46702	0.02220
905.18125	0.02195
903.89549	0.02177
902.60972	0.02163
901.32395	0.02143
900.03818	0.02113
898.75241	0.02078
897.46664	0.02048
896.18087	0.02027
894.89510	0.02015
893.60933	0.02016
892.32357	0.02034
891.03780	0.02070
889.75203	0.02123
888.46626	0.02193
887.18049	0.02288
885.89472	0.02421
884.60895	0.02601
883.32318	0.02825
882.03742	0.03068
880.75165	0.03295
879.46588	0.03476
878.18011	0.03605
876.89434	0.03705
875.60857	0.03804
874.32280	0.03913
873.03703	0.04009
871.75126	0.04055
870.46550	0.04020
869.17973	0.03903
867.89396	0.03725
866.60819	0.03517
865.32242	0.03307
864.03665	0.03111
862.75088	0.02936
861.46511	0.02784
860.17935	0.02654
858.89358	0.02545
857.60781	0.02457
856.32204	0.02385
855.03627	0.02322
853.75050	0.02264
852.46473	0.02211
851.17896	0.02165
849.89319	0.02130
848.60743	0.02104
847.32166	0.02083
846.03589	0.02062
844.75012	0.02040
843.46435	0.02019
842.17858	0.02000
840.89281	0.01983
839.60704	0.01967
838.32128	0.01951
837.03551	0.01934
835.74974	0.01915
834.46397	0.01894
833.17820	0.01873
831.89243	0.01854
830.60666	0.01838
829.32089	0.01826
828.03512	0.01820
826.74936	0.01823
825.46359	0.01836
824.17782	0.01855
822.89205	0.01868
821.60628	0.01870
820.32051	0.01857
819.03474	0.01837
817.74897	0.01815
816.46321	0.01797
815.17744	0.01784
813.89167	0.01778
812.60590	0.01786
811.32013	0.01805
810.03436	0.01825
808.74859	0.01832
807.46282	0.01822
806.17705	0.01804
804.89129	0.01792
803.60552	0.01790
802.31975	0.01792
801.03398	0.01790
799.74821	0.01782
798.46244	0.01771
797.17667	0.01761
795.89090	0.01750
794.60513	0.01736
793.31937	0.01721
792.03360	0.01710
790.74783	0.01707
789.46206	0.01710
788.17629	0.01710
786.89052	0.01704
785.60475	0.01697
784.31898	0.01694
783.03322	0.01696
781.74745	0.01698
780.46168	0.01691
779.17591	0.01675
777.89014	0.01657
776.60437	0.01649
775.31860	0.01658
774.03283	0.01678
772.74706	0.01700
771.46130	0.01714
770.17553	0.01719
768.88976	0.01717
767.60399	0.01711
766.31822	0.01705
765.03245	0.01704
763.74668	0.01708
762.46091	0.01712
761.17515	0.01714
759.88938	0.01715
758.60361	0.01719
757.31784	0.01723
756.03207	0.01728
754.74630	0.01730
753.46053	0.01731
752.17476	0.01730
750.88899	0.01725
749.60323	0.01717
748.31746	0.01709
747.03169	0.01709
745.74592	0.01716
744.46015	0.01725
743.17438	0.01728
741.88861	0.01726
740.60284	0.01725
739.31708	0.01728
738.03131	0.01728
736.74554	0.01718
735.45977	0.01700
734.17400	0.01681
732.88823	0.01672
731.60246	0.01673
730.31669	0.01679
729.03092	0.01683
727.74516	0.01686
726.45939	0.01690
725.17362	0.01695
723.88785	0.01716
722.60208	0.01719
721.31631	0.01713
720.03054	0.01705
718.74477	0.01693
717.45901	0.01678
716.17324	0.01669
714.88747	0.01669
713.60170	0.01678
712.31593	0.01688
711.03016	0.01697
709.74439	0.01703
708.45862	0.01705
707.17285	0.01704
705.88709	0.01702
704.60132	0.01699
703.31555	0.01696
702.02978	0.01693
700.74401	0.01691
699.45824	0.01691
698.17247	0.01692
696.88670	0.01690
695.60094	0.01679
694.31517	0.01664
693.02940	0.01652
691.74363	0.01651
690.45786	0.01661
689.17209	0.01676
687.88632	0.01690
686.60055	0.01698
685.31478	0.01699
684.02902	0.01694
682.74325	0.01689
681.45748	0.01685
680.17171	0.01685
678.88594	0.01688
677.60017	0.01690
676.31440	0.01691
675.02863	0.01691
673.74287	0.01691
672.45710	0.01693
671.17133	0.01702
669.88556	0.01720
668.59979	0.01737
667.31402	0.01750
666.02825	0.01768
664.74248	0.01762
663.45671	0.01740
662.17095	0.01711
660.88518	0.01685
659.59941	0.01672
658.31364	0.01670
657.02787	0.01676
655.74210	0.01683
654.45633	0.01689
653.17056	0.01696
651.88480	0.01705
650.59903	0.01716
649.31326	0.01726
648.02749	0.01733
646.74172	0.01735
645.45595	0.01735
644.17018	0.01738
642.88441	0.01748
641.59864	0.01767
640.31288	0.01794
639.02711	0.01825
637.74134	0.01855
636.45557	0.01885
635.16980	0.01918
633.88403	0.01957
632.59826	0.02002
631.31249	0.02030
630.02673	0.01958
628.74096	0.01830
627.45519	0.01976
626.16942	0.01850
624.88365	0.01555
623.59788	0.01323
622.31211	0.01255
621.02634	0.01387
619.74057	0.01701
618.45481	0.02130
617.16904	0.02595
615.88327	0.03032
614.59750	0.03400
613.31173	0.03697
612.02596	0.03964
610.74019	0.04253
609.45442	0.04578
608.16866	0.04900
606.88289	0.05183
605.59712	0.05416
604.31135	0.05591
603.02558	0.05689
601.73981	0.05708
600.45404	0.05671
599.16827	0.05593
597.88250	0.05479
596.59674	0.05340
595.31097	0.05197
594.02520	0.05074
592.73943	0.04975
591.45366	0.04897
590.16789	0.04841
588.88212	0.04819
587.59635	0.04847
586.31059	0.04924
585.02482	0.05039
583.73905	0.05180
582.45328	0.05339
581.16751	0.05512
579.88174	0.05694
578.59597	0.05883
577.31020	0.06078
576.02443	0.06265
574.73867	0.06430
573.45290	0.06568
572.16713	0.06697
570.88136	0.06846
569.59559	0.07035
568.30982	0.07264
567.02405	0.07516
565.73828	0.07763
564.45251	0.07967
563.16675	0.08099
561.88098	0.08140
560.59521	0.08072
559.30944	0.07879
558.02367	0.07557
556.73790	0.07127
555.45213	0.06638
554.16636	0.06136
552.88060	0.05658
551.59483	0.05221
550.30906	0.04834
549.02329	0.04500
547.73752	0.04216
546.45175	0.03977
545.16598	0.03777
543.88021	0.03606
542.59444	0.03455
541.30868	0.03318
540.02291	0.03191
538.73714	0.03072
537.45137	0.02959
536.16560	0.02849
534.87983	0.02739
533.59406	0.02633
532.30829	0.02537
531.02253	0.02452
529.73676	0.02379
528.45099	0.02317
527.16522	0.02264
525.87945	0.02219
524.59368	0.02181
523.30791	0.02145
522.02214	0.02110
520.73637	0.02074
519.45061	0.02041
518.16484	0.02010
516.87907	0.01978
515.59330	0.01942
514.30753	0.01902
513.02176	0.01860
511.73599	0.01824
510.45022	0.01799
509.16446	0.01779
507.87869	0.01753
506.59292	0.01711
505.30715	0.01662
504.02138	0.01626
502.73561	0.01617
501.44984	0.01627
500.16407	0.01635
498.87830	0.01627
497.59254	0.01607
496.30677	0.01585
495.02100	0.01570
493.73523	0.01563
492.44946	0.01560
491.16369	0.01557
489.87792	0.01552
488.59215	0.01542
487.30639	0.01528
486.02062	0.01512
484.73485	0.01501
483.44908	0.01505
482.16331	0.01524
480.87754	0.01549
479.59177	0.01570
478.30600	0.01583
477.02023	0.01597
475.73447	0.01619
474.44870	0.01649
473.16293	0.01675
471.87716	0.01684
470.59139	0.01669
469.30562	0.01641
468.01985	0.01616
466.73408	0.01605
465.44832	0.01604
464.16255	0.01600
462.87678	0.01586
461.59101	0.01562
460.30524	0.01532
459.01947	0.01503
457.73370	0.01475
456.44793	0.01451
455.16216	0.01427
453.87640	0.01405
452.59063	0.01386
451.30486	0.01370
450.01909	0.01355
448.73332	0.01342
447.44755	0.01336
446.16178	0.01339
444.87601	0.01349
443.59025	0.01358
442.30448	0.01363
441.01871	0.01360
439.73294	0.01349
438.44717	0.01335
437.16140	0.01323
435.87563	0.01314
434.58986	0.01311
433.30409	0.01316
432.01833	0.01325
430.73256	0.01334
429.44679	0.01336
428.16102	0.01331
426.87525	0.01321
425.58948	0.01310
424.30371	0.01300
423.01794	0.01292
421.73218	0.01285
420.44641	0.01280
419.16064	0.01279
417.87487	0.01282
416.58910	0.01291
415.30333	0.01304
414.01756	0.01318
412.73179	0.01328
411.44602	0.01333
410.16026	0.01336
408.87449	0.01340
407.58872	0.01344
406.30295	0.01349
405.01718	0.01350
403.73141	0.01351
402.44564	0.01354
401.15987	0.01364
399.87411	0.01382
