3997.45528	0.06548
3996.16951	0.06489
3994.88374	0.06405
3993.59798	0.06314
3992.31221	0.06265
3991.02644	0.06292
3989.74067	0.06381
3988.45490	0.06474
3987.16913	0.06514
3985.88336	0.06492
3984.59759	0.06450
3983.31183	0.06438
3982.02606	0.06465
3980.74029	0.06502
3979.45452	0.06529
3978.16875	0.06561
3976.88298	0.06620
3975.59721	0.06703
3974.31144	0.06782
3973.02567	0.06834
3971.73991	0.06851
3970.45414	0.06827
3969.16837	0.06766
3967.88260	0.06686
3966.59683	0.06615
3965.31106	0.06565
3964.02529	0.06543
3962.73952	0.06558
3961.45376	0.06615
3960.16799	0.06693
3958.88222	0.06752
3957.59645	0.06762
3956.31068	0.06723
3955.02491	0.06664
3953.73914	0.06619
3952.45337	0.06599
3951.16760	0.06598
3949.88184	0.06603
3948.59607	0.06597
3947.31030	0.06570
3946.02453	0.06514
3944.73876	0.06441
3943.45299	0.06378
3942.16722	0.06342
3940.88145	0.06328
3939.59569	0.06321
3938.30992	0.06318
3937.02415	0.06320
3935.73838	0.06324
3934.45261	0.06326
3933.16684	0.06335
3931.88107	0.06363
3930.59530	0.06405
3929.30953	0.06451
3928.02377	0.06499
3926.73800	0.06562
3925.45223	0.06641
3924.16646	0.06717
3922.88069	0.06748
3921.59492	0.06701
3920.30915	0.06579
3919.02338	0.06422
3917.73762	0.06293
3916.45185	0.06240
3915.16608	0.06265
3913.88031	0.06328
3912.59454	0.06382
3911.30877	0.06400
3910.02300	0.06380
3908.73723	0.06339
3907.45146	0.06307
3906.16570	0.06303
3904.87993	0.06324
3903.59416	0.06344
3902.30839	0.06328
3901.02262	0.06253
3899.73685	0.06148
3898.45108	0.06069
3897.16531	0.06049
3895.87955	0.06084
3894.59378	0.06148
3893.30801	0.06219
3892.02224	0.06285
3890.73647	0.06347
3889.45070	0.06382
3888.16493	0.06361
3886.87916	0.06320
3885.59339	0.06348
3884.30763	0.06469
3883.02186	0.06599
3881.73609	0.06644
3880.45032	0.06588
3879.16455	0.06472
3877.87878	0.06339
3876.59301	0.06223
3875.30724	0.06164
3874.02148	0.06173
3872.73571	0.06210
3871.44994	0.06234
3870.16417	0.06251
3868.87840	0.06279
3867.59263	0.06288
3866.30686	0.06249
3865.02109	0.06189
3863.73532	0.06131
3862.44956	0.06067
3861.16379	0.06004
3859.87802	0.05988
3858.59225	0.06048
3857.30648	0.06153
3856.02071	0.06248
3854.73494	0.06319
3853.44917	0.06394
3852.16341	0.06465
3850.87764	0.06484
3849.59187	0.06448
3848.30610	0.06401
3847.02033	0.06361
3845.73456	0.06316
3844.44879	0.06260
3843.16302	0.06210
3841.87725	0.06169
3840.59149	0.06125
3839.30572	0.06078
3838.01995	0.06053
3836.73418	0.06060
3835.44841	0.06077
3834.16264	0.06086
3832.87687	0.06102
3831.59110	0.06130
3830.30534	0.06153
3829.01957	0.06153
3827.73380	0.06147
3826.44803	0.06163
3825.16226	0.06190
3823.87649	0.06188
3822.59072	0.06164
3821.30495	0.06184
3820.01918	0.06267
3818.73342	0.06329
3817.44765	0.06311
3816.16188	0.06264
3814.87611	0.06241
3813.59034	0.06189
3812.30457	0.06046
3811.01880	0.05846
3809.73303	0.05665
3808.44726	0.05567
3807.16150	0.05602
3805.87573	0.05756
3804.58996	0.05914
3803.30419	0.05977
3802.01842	0.05976
3800.73265	0.06006
3799.44688	0.06072
3798.16111	0.06112
3796.87535	0.06116
3795.58958	0.06124
3794.30381	0.06142
3793.01804	0.06147
3791.73227	0.06126
3790.44650	0.06078
3789.16073	0.06011
3787.87496	0.05937
3786.58919	0.05882
3785.30343	0.05868
3784.01766	0.05902
3782.73189	0.05968
3781.44612	0.06044
3780.16035	0.06111
3778.87458	0.06151
3777.58881	0.06143
3776.30304	0.06085
3775.01728	0.06011
3773.73151	0.05955
3772.44574	0.05926
3771.15997	0.05919
3769.87420	0.05938
3768.58843	0.05971
3767.30266	0.05981
3766.01689	0.05959
3764.73112	0.05929
3763.44536	0.05901
3762.15959	0.05863
3760.87382	0.05827
3759.58805	0.05821
3758.30228	0.05847
3757.01651	0.05880
3755.73074	0.05892
3754.44497	0.05871
3753.15921	0.05845
3751.87344	0.05865
3750.58767	0.05943
3749.30190	0.06053
3748.01613	0.06135
3746.73036	0.06134
3745.44459	0.06078
3744.15882	0.06064
3742.87305	0.06106
3741.58729	0.06109
3740.30152	0.06034
3739.01575	0.05930
3737.72998	0.05857
3736.44421	0.05845
3735.15844	0.05886
3733.87267	0.05928
3732.58690	0.05931
3731.30114	0.05890
3730.01537	0.05813
3728.72960	0.05714
3727.44383	0.05644
3726.15806	0.05651
3724.87229	0.05705
3723.58652	0.05728
3722.30075	0.05691
3721.01498	0.05630
3719.72922	0.05593
3718.44345	0.05604
3717.15768	0.05652
3715.87191	0.05714
3714.58614	0.05768
3713.30037	0.05811
3712.01460	0.05832
3710.72883	0.05808
3709.44307	0.05737
3708.15730	0.05656
3706.87153	0.05597
3705.58576	0.05554
3704.29999	0.05516
3703.01422	0.05501
3701.72845	0.05529
3700.44268	0.05590
3699.15691	0.05649
3697.87115	0.05678
3696.58538	0.05666
3695.29961	0.05605
3694.01384	0.05511
3692.72807	0.05443
3691.44230	0.05446
3690.15653	0.05502
3688.87076	0.05566
3687.58500	0.05618
3686.29923	0.05653
3685.01346	0.05676
3683.72769	0.05709
3682.44192	0.05756
3681.15615	0.05794
3679.87038	0.05800
3678.58461	0.05771
3677.29884	0.05747
3676.01308	0.05794
3674.72731	0.05911
3673.44154	0.05974
3672.15577	0.05870
3670.87000	0.05667
3669.58423	0.05536
3668.29846	0.05543
3667.01269	0.05623
3665.72693	0.05698
3664.44116	0.05737
3663.15539	0.05745
3661.86962	0.05744
3660.58385	0.05761
3659.29808	0.05797
3658.01231	0.05845
3656.72654	0.05904
3655.44077	0.05978
3654.15501	0.06045
3652.86924	0.06066
3651.58347	0.06044
3650.29770	0.06022
3649.01193	0.06043
3647.72616	0.06109
3646.44039	0.06181
3645.15462	0.06205
3643.86886	0.06155
3642.58309	0.06060
3641.29732	0.05987
3640.01155	0.05984
3638.72578	0.06040
3637.44001	0.06095
3636.15424	0.06107
3634.86847	0.06099
3633.58270	0.06134
3632.29694	0.06213
3631.01117	0.06273
3629.72540	0.06285
3628.43963	0.06288
3627.15386	0.06305
3625.86809	0.06316
3624.58232	0.06316
3623.29655	0.06328
3622.01079	0.06356
3620.72502	0.06386
3619.43925	0.06410
3618.15348	0.06424
3616.86771	0.06417
3615.58194	0.06397
3614.29617	0.06398
3613.01040	0.06443
3611.72463	0.06495
3610.43887	0.06503
3609.15310	0.06464
3607.86733	0.06425
3606.58156	0.06421
3605.29579	0.06453
3604.01002	0.06511
3602.72425	0.06584
3601.43848	0.06659
3600.15272	0.06722
3598.86695	0.06749
3597.58118	0.06733
3596.29541	0.06696
3595.00964	0.06677
3593.72387	0.06696
3592.43810	0.06739
3591.15233	0.06766
3589.86656	0.06760
3588.58080	0.06745
3587.29503	0.06747
3586.00926	0.06759
3584.72349	0.06758
3583.43772	0.06748
3582.15195	0.06760
3580.86618	0.06808
3579.58041	0.06880
3578.29464	0.06957
3577.00888	0.07028
3575.72311	0.07087
3574.43734	0.07126
3573.15157	0.07153
3571.86580	0.07180
3570.58003	0.07208
3569.29426	0.07217
3568.00849	0.07199
3566.72273	0.07175
3565.43696	0.07179
3564.15119	0.07221
3562.86542	0.07284
3561.57965	0.07340
3560.29388	0.07376
3559.00811	0.07399
3557.72234	0.07419
3556.43657	0.07438
3555.15081	0.07453
3553.86504	0.07468
3552.57927	0.07488
3551.29350	0.07508
3550.00773	0.07520
3548.72196	0.07530
3547.43619	0.07547
3546.15042	0.07570
3544.86466	0.07580
3543.57889	0.07567
3542.29312	0.07559
3541.00735	0.07599
3539.72158	0.07691
3538.43581	0.07793
3537.15004	0.07858
3535.86427	0.07879
3534.57850	0.07876
3533.29274	0.07861
3532.00697	0.07834
3530.72120	0.07800
3529.43543	0.07779
3528.14966	0.07789
3526.86389	0.07821
3525.57812	0.07855
3524.29235	0.07881
3523.00659	0.07889
3521.72082	0.07865
3520.43505	0.07804
3519.14928	0.07733
3517.86351	0.07708
3516.57774	0.07764
3515.29197	0.07888
3514.00620	0.08031
3512.72043	0.08146
3511.43467	0.08215
3510.14890	0.08239
3508.86313	0.08232
3507.57736	0.08213
3506.29159	0.08207
3505.00582	0.08233
3503.72005	0.08291
3502.43428	0.08360
3501.14852	0.08418
3499.86275	0.08459
3498.57698	0.08490
3497.29121	0.08520
3496.00544	0.08556
3494.71967	0.08597
3493.43390	0.08629
3492.14813	0.08632
3490.86236	0.08605
3489.57660	0.08570
3488.29083	0.08556
3487.00506	0.08580
3485.71929	0.08640
3484.43352	0.08714
3483.14775	0.08778
3481.86198	0.08813
3480.57621	0.08812
3479.29045	0.08792
3478.00468	0.08770
3476.71891	0.08750
3475.43314	0.08729
3474.14737	0.08714
3472.86160	0.08724
3471.57583	0.08760
3470.29006	0.08802
3469.00429	0.08830
3467.71853	0.08840
3466.43276	0.08839
3465.14699	0.08831
3463.86122	0.08817
3462.57545	0.08813
3461.28968	0.08833
3460.00391	0.08867
3458.71814	0.08885
3457.43238	0.08877
3456.14661	0.08863
3454.86084	0.08875
3453.57507	0.08922
3452.28930	0.08986
3451.00353	0.09046
3449.71776	0.09083
3448.43199	0.09079
3447.14622	0.09035
3445.86046	0.08981
3444.57469	0.08960
3443.28892	0.09004
3442.00315	0.09107
3440.71738	0.09230
3439.43161	0.09327
3438.14584	0.09370
3436.86007	0.09363
3435.57431	0.09333
3434.28854	0.09311
3433.00277	0.09307
3431.71700	0.09313
3430.43123	0.09327
3429.14546	0.09360
3427.85969	0.09420
3426.57392	0.09490
3425.28815	0.09536
3424.00239	0.09533
3422.71662	0.09489
3421.43085	0.09437
3420.14508	0.09410
3418.85931	0.09422
3417.57354	0.09455
3416.28777	0.09480
3415.00200	0.09484
3413.71624	0.09475
3412.43047	0.09475
3411.14470	0.09500
3409.85893	0.09544
3408.57316	0.09584
3407.28739	0.09614
3406.00162	0.09642
3404.71585	0.09676
3403.43008	0.09698
3402.14432	0.09682
3400.85855	0.09626
3399.57278	0.09555
3398.28701	0.09501
3397.00124	0.09485
3395.71547	0.09509
3394.42970	0.09563
3393.14393	0.09630
3391.85817	0.09688
3390.57240	0.09726
3389.28663	0.09744
3388.00086	0.09761
3386.71509	0.09790
3385.42932	0.09823
3384.14355	0.09833
3382.85778	0.09808
3381.57201	0.09759
3380.28625	0.09713
3379.00048	0.09690
3377.71471	0.09696
3376.42894	0.09723
3375.14317	0.09757
3373.85740	0.09790
3372.57163	0.09828
3371.28586	0.09886
3370.00010	0.09954
3368.71433	0.10008
3367.42856	0.10019
3366.14279	0.09986
3364.85702	0.09938
3363.57125	0.09906
3362.28548	0.09901
3360.99971	0.09910
3359.71394	0.09906
3358.42818	0.09880
3357.14241	0.09845
3355.85664	0.09831
3354.57087	0.09859
3353.28510	0.09919
3351.99933	0.09975
3350.71356	0.09995
3349.42779	0.09980
3348.14202	0.09960
3346.85626	0.09961
3345.57049	0.09980
3344.28472	0.09995
3342.99895	0.09994
3341.71318	0.09986
3340.42741	0.09985
3339.14164	0.09986
3337.85587	0.09979
3336.57011	0.09965
3335.28434	0.09966
3333.99857	0.09991
3332.71280	0.10023
3331.42703	0.10029
3330.14126	0.09999
3328.85549	0.09958
3327.56972	0.09943
3326.28395	0.09974
3324.99819	0.10044
3323.71242	0.10122
3322.42665	0.10181
3321.14088	0.10209
3319.85511	0.10208
3318.56934	0.10185
3317.28357	0.10144
3315.99780	0.10096
3314.71204	0.10061
3313.42627	0.10053
3312.14050	0.10062
3310.85473	0.10063
3309.56896	0.10042
3308.28319	0.10003
3306.99742	0.09960
3305.71165	0.09922
3304.42588	0.09893
3303.14012	0.09877
3301.85435	0.09881
3300.56858	0.09912
3299.28281	0.09961
3297.99704	0.10010
3296.71127	0.10039
3295.42550	0.10045
3294.13973	0.10039
3292.85397	0.10030
3291.56820	0.10019
3290.28243	0.09998
3288.99666	0.09959
3287.71089	0.09904
3286.42512	0.09856
3285.13935	0.09842
3283.85358	0.09873
3282.56781	0.09926
3281.28205	0.09958
3279.99628	0.09949
3278.71051	0.09906
3277.42474	0.09858
3276.13897	0.09822
3274.85320	0.09801
3273.56743	0.09795
3272.28166	0.09804
3270.99590	0.09822
3269.71013	0.09841
3268.42436	0.09852
3267.13859	0.09860
3265.85282	0.09875
3264.56705	0.09897
3263.28128	0.09912
3261.99551	0.09906
3260.70974	0.09881
3259.42398	0.09861
3258.13821	0.09869
3256.85244	0.09902
3255.56667	0.09931
3254.28090	0.09924
3252.99513	0.09872
3251.70936	0.09793
3250.42359	0.09719
3249.13783	0.09666
3247.85206	0.09631
3246.56629	0.09607
3245.28052	0.09596
3243.99475	0.09606
3242.70898	0.09640
3241.42321	0.09678
3240.13744	0.09696
3238.85167	0.09684
3237.56591	0.09660
3236.28014	0.09649
3234.99437	0.09660
3233.70860	0.09679
3232.42283	0.09687
3231.13706	0.09677
3229.85129	0.09651
3228.56552	0.09618
3227.27976	0.09591
3225.99399	0.09579
3224.70822	0.09590
3223.42245	0.09621
3222.13668	0.09654
3220.85091	0.09665
3219.56514	0.09639
3218.27937	0.09591
3216.99360	0.09550
3215.70784	0.09539
3214.42207	0.09559
3213.13630	0.09589
3211.85053	0.09607
3210.56476	0.09598
3209.27899	0.09564
3207.99322	0.09519
3206.70745	0.09482
3205.42169	0.09472
3204.13592	0.09481
3202.85015	0.09483
3201.56438	0.09460
3200.27861	0.09429
3198.99284	0.09419
3197.70707	0.09442
3196.42130	0.09481
3195.13553	0.09512
3193.84977	0.09525
3192.56400	0.09523
3191.27823	0.09519
3189.99246	0.09512
3188.70669	0.09491
3187.42092	0.09448
3186.13515	0.09384
3184.84938	0.09317
3183.56362	0.09264
3182.27785	0.09239
3180.99208	0.09245
3179.70631	0.09268
3178.42054	0.09280
3177.13477	0.09265
3175.84900	0.09233
3174.56323	0.09205
3173.27746	0.09188
3171.99170	0.09175
3170.70593	0.09155
3169.42016	0.09135
3168.13439	0.09127
3166.84862	0.09141
3165.56285	0.09179
3164.27708	0.09224
3162.99131	0.09250
3161.70555	0.09235
3160.41978	0.09188
3159.13401	0.09139
3157.84824	0.09110
3156.56247	0.09101
3155.27670	0.09091
3153.99093	0.09065
3152.70516	0.09022
3151.41939	0.08972
3150.13363	0.08932
3148.84786	0.08912
3147.56209	0.08907
3146.27632	0.08902
3144.99055	0.08888
3143.70478	0.08866
3142.41901	0.08849
3141.13324	0.08843
3139.84748	0.08845
3138.56171	0.08842
3137.27594	0.08828
3135.99017	0.08807
3134.70440	0.08789
3133.41863	0.08780
3132.13286	0.08766
3130.84709	0.08731
3129.56132	0.08683
3128.27556	0.08646
3126.98979	0.08634
3125.70402	0.08633
3124.41825	0.08629
3123.13248	0.08626
3121.84671	0.08632
3120.56094	0.08646
3119.27517	0.08658
3117.98940	0.08658
3116.70364	0.08639
3115.41787	0.08599
3114.13210	0.08546
3112.84633	0.08500
3111.56056	0.08480
3110.27479	0.08492
3108.98902	0.08522
3107.70325	0.08550
3106.41749	0.08562
3105.13172	0.08557
3103.84595	0.08538
3102.56018	0.08512
3101.27441	0.08494
3099.98864	0.08500
3098.70287	0.08526
3097.41710	0.08547
3096.13133	0.08541
3094.84557	0.08513
3093.55980	0.08480
3092.27403	0.08451
3090.98826	0.08425
3089.70249	0.08408
3088.41672	0.08410
3087.13095	0.08428
3085.84518	0.08449
3084.55942	0.08461
3083.27365	0.08463
3081.98788	0.08450
3080.70211	0.08422
3079.41634	0.08381
3078.13057	0.08343
3076.84480	0.08317
3075.55903	0.08299
3074.27326	0.08276
3072.98750	0.08243
3071.70173	0.08202
3070.41596	0.08163
3069.13019	0.08137
3067.84442	0.08137
3066.55865	0.08158
3065.27288	0.08184
3063.98711	0.08195
3062.70135	0.08195
3061.41558	0.08196
3060.12981	0.08208
3058.84404	0.08225
3057.55827	0.08230
3056.27250	0.08210
3054.98673	0.08165
3053.70096	0.08113
3052.41519	0.08072
3051.12943	0.08054
3049.84366	0.08053
3048.55789	0.08055
3047.27212	0.08053
3045.98635	0.08047
3044.70058	0.08036
3043.41481	0.08013
3042.12904	0.07980
3040.84328	0.07952
3039.55751	0.07945
3038.27174	0.07956
3036.98597	0.07961
3035.70020	0.07949
3034.41443	0.07929
3033.12866	0.07916
3031.84289	0.07908
3030.55712	0.07894
3029.27136	0.07864
3027.98559	0.07820
3026.69982	0.07778
3025.41405	0.07747
3024.12828	0.07728
3022.84251	0.07716
3021.55674	0.07714
3020.27097	0.07730
3018.98521	0.07760
3017.69944	0.07790
3016.41367	0.07807
3015.12790	0.07802
3013.84213	0.07780
3012.55636	0.07751
3011.27059	0.07729
3009.98482	0.07721
3008.69905	0.07722
3007.41329	0.07717
3006.12752	0.07700
3004.84175	0.07676
3003.55598	0.07655
3002.27021	0.07636
3000.98444	0.07613
2999.69867	0.07584
2998.41290	0.07559
2997.12714	0.07543
2995.84137	0.07531
2994.55560	0.07519
2993.26983	0.07510
2991.98406	0.07513
2990.69829	0.07531
2989.41252	0.07561
2988.12675	0.07601
2986.84098	0.07650
2985.55522	0.07706
2984.26945	0.07762
2982.98368	0.07812
2981.69791	0.07870
2980.41214	0.07948
2979.12637	0.08047
2977.84060	0.08152
2976.55483	0.08258
2975.26907	0.08368
2973.98330	0.08482
2972.69753	0.08591
2971.41176	0.08688
2970.12599	0.08783
2968.84022	0.08902
2967.55445	0.09063
2966.26868	0.09268
2964.98291	0.09499
2963.69715	0.09728
2962.41138	0.09944
2961.12561	0.10148
2959.83984	0.10347
2958.55407	0.10533
2957.26830	0.10690
2955.98253	0.10817
2954.69676	0.10922
2953.41100	0.11012
2952.12523	0.11082
2950.83946	0.11128
2949.55369	0.11158
2948.26792	0.11187
2946.98215	0.11217
2945.69638	0.11233
2944.41061	0.11220
2943.12484	0.11187
2941.83908	0.11173
2940.55331	0.11216
2939.26754	0.11327
2937.98177	0.11483
2936.69600	0.11650
2935.41023	0.11811
2934.12446	0.11962
2932.83869	0.12114
2931.55293	0.12281
2930.26716	0.12464
2928.98139	0.12651
2927.69562	0.12826
2926.40985	0.12988
2925.12408	0.13133
2923.83831	0.13241
2922.55254	0.13287
2921.26677	0.13266
2919.98101	0.13199
2918.69524	0.13105
2917.40947	0.12987
2916.12370	0.12844
2914.83793	0.12679
2913.55216	0.12504
2912.26639	0.12337
2910.98062	0.12195
2909.69486	0.12085
2908.40909	0.11999
2907.12332	0.11915
2905.83755	0.11810
2904.55178	0.11681
2903.26601	0.11545
2901.98024	0.11422
2900.69447	0.11315
2899.40870	0.11214
2898.12294	0.11106
2896.83717	0.10994
2895.55140	0.10885
2894.26563	0.10779
2892.97986	0.10664
2891.69409	0.10533
2890.40832	0.10402
2889.12255	0.10298
2887.83678	0.10234
2886.55102	0.10193
2885.26525	0.10143
2883.97948	0.10068
2882.69371	0.09977
2881.40794	0.09890
2880.12217	0.09832
2878.83640	0.09821
2877.55063	0.09863
2876.26487	0.09944
2874.97910	0.10041
2873.69333	0.10134
2872.40756	0.10216
2871.12179	0.10289
2869.83602	0.10358
2868.55025	0.10423
2867.26448	0.10477
2865.97871	0.10512
2864.69295	0.10528
2863.40718	0.10535
2862.12141	0.10550
2860.83564	0.10582
2859.54987	0.10630
2858.26410	0.10689
2856.97833	0.10743
2855.69256	0.10774
2854.40680	0.10771
2853.12103	0.10742
2851.83526	0.10699
2850.54949	0.10640
2849.26372	0.10544
2847.97795	0.10397
2846.69218	0.10216
2845.40641	0.10031
2844.12064	0.09861
2842.83488	0.09707
2841.54911	0.09563
2840.26334	0.09419
2838.97757	0.09259
2837.69180	0.09079
2836.40603	0.08892
2835.12026	0.08723
2833.83449	0.08584
2832.54873	0.08461
2831.26296	0.08340
2829.97719	0.08226
2828.69142	0.08139
2827.40565	0.08081
2826.11988	0.08029
2824.83411	0.07958
2823.54834	0.07871
2822.26257	0.07794
2820.97681	0.07740
2819.69104	0.07698
2818.40527	0.07647
2817.11950	0.07587
2815.83373	0.07530
2814.54796	0.07487
2813.26219	0.07453
2811.97642	0.07419
2810.69066	0.07383
2809.40489	0.07345
2808.11912	0.07308
2806.83335	0.07275
2805.54758	0.07246
2804.26181	0.07223
2802.97604	0.07203
2801.69027	0.07177
2800.40450	0.07139
2799.11874	0.07096
2797.83297	0.07060
2796.54720	0.07038
2795.26143	0.07023
2793.97566	0.07002
2792.68989	0.06974
2791.40412	0.06950
2790.11835	0.06937
2788.83259	0.06935
2787.54682	0.06934
2786.26105	0.06925
2784.97528	0.06907
2783.68951	0.06883
2782.40374	0.06857
2781.11797	0.06830
2779.83220	0.06804
2778.54643	0.06780
2777.26067	0.06755
2775.97490	0.06732
2774.68913	0.06717
2773.40336	0.06719
2772.11759	0.06730
2770.83182	0.06730
2769.54605	0.06705
2768.26028	0.06665
2766.97452	0.06628
2765.68875	0.06607
2764.40298	0.06606
2763.11721	0.06620
2761.83144	0.06631
2760.54567	0.06622
2759.25990	0.06591
2757.97413	0.06555
2756.68836	0.06533
2755.40260	0.06521
2754.11683	0.06509
2752.83106	0.06489
2751.54529	0.06466
2750.25952	0.06450
2748.97375	0.06443
2747.68798	0.06445
2746.40221	0.06449
2745.11645	0.06453
2743.83068	0.06457
2742.54491	0.06459
2741.25914	0.06452
2739.97337	0.06431
2738.68760	0.06398
2737.40183	0.06367
2736.11606	0.06345
2734.83029	0.06335
2733.54453	0.06336
2732.25876	0.06342
2730.97299	0.06344
2729.68722	0.06339
2728.40145	0.06332
2727.11568	0.06333
2725.82991	0.06336
2724.54414	0.06324
2723.25838	0.06294
2721.97261	0.06267
2720.68684	0.06265
2719.40107	0.06284
2718.11530	0.06297
2716.82953	0.06287
2715.54376	0.06262
2714.25799	0.06240
2712.97222	0.06224
2711.68646	0.06206
2710.40069	0.06181
2709.11492	0.06156
2707.82915	0.06141
2706.54338	0.06137
2705.25761	0.06141
2703.97184	0.06146
2702.68607	0.06146
2701.40031	0.06135
2700.11454	0.06116
2698.82877	0.06090
2697.54300	0.06063
2696.25723	0.06038
2694.97146	0.06018
2693.68569	0.06009
2692.39992	0.06013
2691.11415	0.06026
2689.82839	0.06036
2688.54262	0.06029
2687.25685	0.06006
2685.97108	0.05977
2684.68531	0.05952
2683.39954	0.05937
2682.11377	0.05931
2680.82800	0.05934
2679.54224	0.05938
2678.25647	0.05931
2676.97070	0.05913
2675.68493	0.05894
2674.39916	0.05886
2673.11339	0.05893
2671.82762	0.05908
2670.54185	0.05924
2669.25608	0.05933
2667.97032	0.05934
2666.68455	0.05927
2665.39878	0.05914
2664.11301	0.05902
2662.82724	0.05896
2661.54147	0.05901
2660.25570	0.05911
2658.96993	0.05917
2657.68417	0.05909
2656.39840	0.05885
2655.11263	0.05851
2653.82686	0.05817
2652.54109	0.05786
2651.25532	0.05763
2649.96955	0.05749
2648.68378	0.05744
2647.39801	0.05742
2646.11225	0.05736
2644.82648	0.05722
2643.54071	0.05693
2642.25494	0.05651
2640.96917	0.05605
2639.68340	0.05569
2638.39763	0.05543
2637.11186	0.05515
2635.82609	0.05476
2634.54033	0.05439
2633.25456	0.05419
2631.96879	0.05416
2630.68302	0.05419
2629.39725	0.05415
2628.11148	0.05398
2626.82571	0.05370
2625.53994	0.05336
2624.25418	0.05303
2622.96841	0.05272
2621.68264	0.05245
2620.39687	0.05224
2619.11110	0.05211
2617.82533	0.05200
2616.53956	0.05191
2615.25379	0.05191
2613.96802	0.05202
2612.68226	0.05213
2611.39649	0.05215
2610.11072	0.05209
2608.82495	0.05204
2607.53918	0.05193
2606.25341	0.05166
2604.96764	0.05126
2603.68187	0.05091
2602.39611	0.05068
2601.11034	0.05041
2599.82457	0.04994
2598.53880	0.04933
2597.25303	0.04885
2595.96726	0.04864
2594.68149	0.04859
2593.39572	0.04852
2592.10995	0.04846
2590.82419	0.04857
2589.53842	0.04886
2588.25265	0.04913
2586.96688	0.04915
2585.68111	0.04898
2584.39534	0.04882
2583.10957	0.04882
2581.82380	0.04887
2580.53804	0.04877
2579.25227	0.04844
2577.96650	0.04797
2576.68073	0.04760
2575.39496	0.04748
2574.10919	0.04759
2572.82342	0.04768
2571.53765	0.04752
2570.25188	0.04707
2568.96612	0.04657
2567.68035	0.04630
2566.39458	0.04635
2565.10881	0.04653
2563.82304	0.04667
2562.53727	0.04678
2561.25150	0.04689
2559.96573	0.04686
2558.67997	0.04660
2557.39420	0.04621
2556.10843	0.04595
2554.82266	0.04589
2553.53689	0.04592
2552.25112	0.04596
2550.96535	0.04607
2549.67958	0.04627
2548.39381	0.04648
2547.10805	0.04655
2545.82228	0.04647
2544.53651	0.04635
2543.25074	0.04629
2541.96497	0.04626
2540.67920	0.04613
2539.39343	0.04585
2538.10766	0.04549
2536.82190	0.04513
2535.53613	0.04481
2534.25036	0.04454
2532.96459	0.04434
2531.67882	0.04428
2530.39305	0.04440
2529.10728	0.04471
2527.82151	0.04514
2526.53574	0.04553
2525.24998	0.04567
2523.96421	0.04548
2522.67844	0.04508
2521.39267	0.04464
2520.10690	0.04422
2518.82113	0.04381
2517.53536	0.04342
2516.24959	0.04314
2514.96383	0.04303
2513.67806	0.04305
2512.39229	0.04315
2511.10652	0.04331
2509.82075	0.04351
2508.53498	0.04372
2507.24921	0.04387
2505.96344	0.04393
2504.67767	0.04399
2503.39191	0.04413
2502.10614	0.04421
2500.82037	0.04404
2499.53460	0.04366
2498.24883	0.04333
2496.96306	0.04320
2495.67729	0.04312
2494.39152	0.04295
2493.10576	0.04278
2491.81999	0.04275
2490.53422	0.04286
2489.24845	0.04304
2487.96268	0.04326
2486.67691	0.04344
2485.39114	0.04342
2484.10537	0.04308
2482.81960	0.04255
2481.53384	0.04205
2480.24807	0.04173
2478.96230	0.04164
2477.67653	0.04173
2476.39076	0.04186
2475.10499	0.04182
2473.81922	0.04155
2472.53345	0.04130
2471.24769	0.04140
2469.96192	0.04182
2468.67615	0.04223
2467.39038	0.04242
2466.10461	0.04254
2464.81884	0.04276
2463.53307	0.04302
2462.24730	0.04313
2460.96153	0.04308
2459.67577	0.04306
2458.39000	0.04322
2457.10423	0.04352
2455.81846	0.04379
2454.53269	0.04386
2453.24692	0.04366
2451.96115	0.04326
2450.67538	0.04280
2449.38962	0.04241
2448.10385	0.04208
2446.81808	0.04178
2445.53231	0.04149
2444.24654	0.04121
2442.96077	0.04097
2441.67500	0.04080
2440.38923	0.04070
2439.10346	0.04060
2437.81770	0.04039
2436.53193	0.04006
2435.24616	0.03978
2433.96039	0.03981
2432.67462	0.04025
2431.38885	0.04092
2430.10308	0.04146
2428.81731	0.04167
2427.53155	0.04159
2426.24578	0.04136
2424.96001	0.04104
2423.67424	0.04065
2422.38847	0.04024
2421.10270	0.04001
2419.81693	0.04007
2418.53116	0.04041
2417.24539	0.04078
2415.95963	0.04092
2414.67386	0.04070
2413.38809	0.04027
2412.10232	0.03989
2410.81655	0.03970
2409.53078	0.03971
2408.24501	0.03983
2406.95924	0.04000
2405.67347	0.04021
2404.38771	0.04038
2403.10194	0.04044
2401.81617	0.04036
2400.53040	0.04025
2399.24463	0.04002
2397.95886	0.04001
2396.67309	0.04021
2395.38732	0.04042
2394.10156	0.04049
2392.81579	0.04041
2391.53002	0.04028
2390.24425	0.04020
2388.95848	0.04029
2387.67271	0.04058
2386.38694	0.04098
2385.10117	0.04130
2383.81540	0.04134
2382.52964	0.04101
2381.24387	0.04042
2379.95810	0.03979
2378.67233	0.03932
2377.38656	0.03913
2376.10079	0.03925
2374.81502	0.03959
2373.52925	0.03986
2372.24349	0.03971
2370.95772	0.03898
2369.67195	0.03788
2368.38618	0.03688
2367.10041	0.03630
2365.81464	0.03608
2364.52887	0.03589
2363.24310	0.03556
2361.95733	0.03538
2360.67157	0.03595
2359.38580	0.03754
2358.10003	0.03962
2356.81426	0.04122
2355.52849	0.04180
2354.24272	0.04159
2352.95695	0.04126
2351.67118	0.04125
2350.38542	0.04141
2349.09965	0.04135
2347.81388	0.04074
2346.52811	0.03961
2345.24234	0.03844
2343.95657	0.03788
2342.67080	0.03837
2341.38503	0.03983
2340.09926	0.04163
2338.81350	0.04296
2337.52773	0.04326
2336.24196	0.04261
2334.95619	0.04152
2333.67042	0.04062
2332.38465	0.04031
2331.09888	0.04073
2329.81311	0.04173
2328.52735	0.04293
2327.24158	0.04380
2325.95581	0.04392
2324.67004	0.04320
2323.38427	0.04195
2322.09850	0.04063
2320.81273	0.03952
2319.52696	0.03870
2318.24119	0.03815
2316.95543	0.03785
2315.66966	0.03776
2314.38389	0.03776
2313.09812	0.03777
2311.81235	0.03781
2310.52658	0.03795
2309.24081	0.03824
2307.95504	0.03860
2306.66928	0.03887
2305.38351	0.03892
2304.09774	0.03877
2302.81197	0.03851
2301.52620	0.03826
2300.24043	0.03807
2298.95466	0.03790
2297.66889	0.03771
2296.38312	0.03743
2295.09736	0.03710
2293.81159	0.03679
2292.52582	0.03661
2291.24005	0.03661
2289.95428	0.03674
2288.66851	0.03688
2287.38274	0.03688
2286.09697	0.03667
2284.81121	0.03631
2283.52544	0.03587
2282.23967	0.03544
2280.95390	0.03502
2279.66813	0.03468
2278.38236	0.03443
2277.09659	0.03421
2275.81082	0.03394
2274.52505	0.03358
2273.23929	0.03318
2271.95352	0.03282
2270.66775	0.03254
2269.38198	0.03235
2268.09621	0.03223
2266.81044	0.03218
2265.52467	0.03219
2264.23890	0.03217
2262.95314	0.03202
2261.66737	0.03170
2260.38160	0.03135
2259.09583	0.03115
2257.81006	0.03117
2256.52429	0.03128
2255.23852	0.03135
2253.95275	0.03143
2252.66698	0.03170
2251.38122	0.03213
2250.09545	0.03244
2248.80968	0.03228
2247.52391	0.03165
2246.23814	0.03067
2244.95237	0.02980
2243.66660	0.02947
2242.38083	0.02980
2241.09507	0.03045
2239.80930	0.03076
2238.52353	0.03034
2237.23776	0.02937
2235.95199	0.02833
2234.66622	0.02748
2233.38045	0.02691
2232.09468	0.02677
2230.80891	0.02710
2229.52315	0.02756
2228.23738	0.02771
2226.95161	0.02756
2225.66584	0.02742
2224.38007	0.02727
2223.09430	0.02669
2221.80853	0.02554
2220.52276	0.02433
2219.23700	0.02380
2217.95123	0.02425
2216.66546	0.02524
2215.37969	0.02598
2214.09392	0.02596
2212.80815	0.02526
2211.52238	0.02444
2210.23661	0.02403
2208.95084	0.02415
2207.66508	0.02450
2206.37931	0.02462
2205.09354	0.02434
2203.80777	0.02379
2202.52200	0.02315
2201.23623	0.02250
2199.95046	0.02192
2198.66469	0.02162
2197.37893	0.02171
2196.09316	0.02207
2194.80739	0.02244
2193.52162	0.02261
2192.23585	0.02246
2190.95008	0.02192
2189.66431	0.02099
2188.37854	0.01986
2187.09277	0.01877
2185.80701	0.01787
2184.52124	0.01726
2183.23547	0.01712
2181.94970	0.01764
2180.66393	0.01878
2179.37816	0.02005
2178.09239	0.02074
2176.80662	0.02052
2175.52085	0.01961
2174.23509	0.01858
2172.94932	0.01804
2171.66355	0.01833
2170.37778	0.01932
2169.09201	0.02044
2167.80624	0.02094
2166.52047	0.02033
2165.23470	0.01872
2163.94894	0.01673
2162.66317	0.01498
2161.37740	0.01360
2160.09163	0.01231
2158.80586	0.01101
2157.52009	0.01005
2156.23432	0.00990
2154.94855	0.01078
2153.66278	0.01257
2152.37702	0.01479
2151.09125	0.01683
2149.80548	0.01832
2148.51971	0.01931
2147.23394	0.02002
2145.94817	0.02042
2144.66240	0.02035
2143.37663	0.01991
2142.09087	0.01964
2140.80510	0.01998
2139.51933	0.02077
2138.23356	0.02127
2136.94779	0.02097
2135.66202	0.02010
2134.37625	0.01940
2133.09048	0.01940
2131.80471	0.02004
2130.51895	0.02099
2129.23318	0.02193
2127.94741	0.02262
2126.66164	0.02292
2125.37587	0.02290
2124.09010	0.02277
2122.80433	0.02274
2121.51856	0.02296
2120.23280	0.02348
2118.94703	0.02412
2117.66126	0.02446
2116.37549	0.02428
2115.08972	0.02393
2113.80395	0.02391
2112.51818	0.02428
2111.23241	0.02461
2109.94664	0.02454
2108.66088	0.02413
2107.37511	0.02368
2106.08934	0.02338
2104.80357	0.02323
2103.51780	0.02318
2102.23203	0.02320
2100.94626	0.02329
2099.66049	0.02349
2098.37473	0.02318
2097.08896	0.02244
2095.80319	0.02184
2094.51742	0.02186
2093.23165	0.02253
2091.94588	0.02341
2090.66011	0.02400
2089.37434	0.02415
2088.08857	0.02404
2086.80281	0.02392
2085.51704	0.02380
2084.23127	0.02354
2082.94550	0.02312
2081.65973	0.02268
2080.37396	0.02238
2079.08819	0.02217
2077.80242	0.02191
2076.51666	0.02155
2075.23089	0.02115
2073.94512	0.02079
2072.65935	0.02054
2071.37358	0.02041
2070.08781	0.02042
2068.80204	0.02049
2067.51627	0.02040
2066.23050	0.02001
2064.94474	0.01943
2063.65897	0.01902
2062.37320	0.01904
2061.08743	0.01941
2059.80166	0.01982
2058.51589	0.02000
2057.23012	0.01991
2055.94435	0.01961
2054.65859	0.01925
2053.37282	0.01899
2052.08705	0.01887
2050.80128	0.01872
2049.51551	0.01827
2048.22974	0.01743
2046.94397	0.01638
2045.65820	0.01534
2044.37243	0.01440
2043.08667	0.01362
2041.80090	0.01324
2040.51513	0.01343
2039.22936	0.01391
2037.94359	0.01408
2036.65782	0.01372
2035.37205	0.01344
2034.08628	0.01387
2032.80052	0.01486
2031.51475	0.01551
2030.22898	0.01509
2028.94321	0.01377
2027.65744	0.01241
2026.37167	0.01181
2025.08590	0.01207
2023.80013	0.01262
2022.51436	0.01288
2021.22860	0.01279
2019.94283	0.01267
2018.65706	0.01274
2017.37129	0.01290
2016.08552	0.01292
2014.79975	0.01281
2013.51398	0.01285
2012.22821	0.01319
2010.94245	0.01357
2009.65668	0.01357
2008.37091	0.01319
2007.08514	0.01299
2005.79937	0.01341
2004.51360	0.01423
2003.22783	0.01489
2001.94206	0.01513
2000.65629	0.01516
1999.37053	0.01531
1998.08476	0.01564
1996.79899	0.01601
1995.51322	0.01627
1994.22745	0.01638
1992.94168	0.01645
1991.65591	0.01656
1990.37014	0.01681
1989.08438	0.01731
1987.79861	0.01805
1986.51284	0.01868
1985.22707	0.01877
1983.94130	0.01828
1982.65553	0.01758
1981.36976	0.01696
1980.08399	0.01626
1978.79822	0.01527
1977.51246	0.01413
1976.22669	0.01333
1974.94092	0.01326
1973.65515	0.01391
1972.36938	0.01492
1971.08361	0.01591
1969.79784	0.01664
1968.51207	0.01708
1967.22631	0.01730
1965.94054	0.01737
1964.65477	0.01722
1963.36900	0.01686
1962.08323	0.01651
1960.79746	0.01647
1959.51169	0.01683
1958.22592	0.01736
1956.94015	0.01782
1955.65439	0.01821
1954.36862	0.01867
1953.08285	0.01918
1951.79708	0.01955
1950.51131	0.01965
1949.22554	0.01959
1947.93977	0.01956
1946.65400	0.01962
1945.36823	0.01976
1944.08247	0.02001
1942.79670	0.02039
1941.51093	0.02076
1940.22516	0.02085
1938.93939	0.02063
1937.65362	0.02036
1936.36785	0.02038
1935.08208	0.02073
1933.79632	0.02118
1932.51055	0.02148
1931.22478	0.02158
1929.93901	0.02155
1928.65324	0.02145
1927.36747	0.02125
1926.08170	0.02092
1924.79593	0.02057
1923.51016	0.02042
1922.22440	0.02058
1920.93863	0.02092
1919.65286	0.02122
1918.36709	0.02144
1917.08132	0.02169
1915.79555	0.02197
1914.50978	0.02215
1913.22401	0.02215
1911.93825	0.02190
1910.65248	0.02144
1909.36671	0.02087
1908.08094	0.02043
1906.79517	0.02030
1905.50940	0.02048
1904.22363	0.02090
1902.93786	0.02147
1901.65209	0.02213
1900.36633	0.02284
1899.08056	0.02349
1897.79479	0.02387
1896.50902	0.02383
1895.22325	0.02344
1893.93748	0.02296
1892.65171	0.02269
1891.36594	0.02277
1890.08018	0.02307
1888.79441	0.02335
1887.50864	0.02347
1886.22287	0.02344
1884.93710	0.02339
1883.65133	0.02335
1882.36556	0.02324
1881.07979	0.02300
1879.79402	0.02272
1878.50826	0.02257
1877.22249	0.02266
1875.93672	0.02296
1874.65095	0.02336
1873.36518	0.02372
1872.07941	0.02397
1870.79364	0.02401
1869.50787	0.02382
1868.22211	0.02348
1866.93634	0.02311
1865.65057	0.02286
1864.36480	0.02281
1863.07903	0.02296
1861.79326	0.02320
1860.50749	0.02339
1859.22172	0.02348
1857.93595	0.02351
1856.65019	0.02354
1855.36442	0.02354
1854.07865	0.02344
1852.79288	0.02323
1851.50711	0.02298
1850.22134	0.02280
1848.93557	0.02281
1847.64980	0.02299
1846.36404	0.02320
1845.07827	0.02334
1843.79250	0.02352
1842.50673	0.02375
1841.22096	0.02393
1839.93519	0.02394
1838.64942	0.02383
1837.36365	0.02369
1836.07788	0.02355
1834.79212	0.02345
1833.50635	0.02343
1832.22058	0.02346
1830.93481	0.02352
1829.64904	0.02359
1828.36327	0.02362
1827.07750	0.02349
1825.79173	0.02326
1824.50597	0.02309
1823.22020	0.02312
1821.93443	0.02326
1820.64866	0.02334
1819.36289	0.02328
1818.07712	0.02310
1816.79135	0.02299
1815.50558	0.02306
1814.21981	0.02331
1812.93405	0.02362
1811.64828	0.02391
1810.36251	0.02415
1809.07674	0.02430
1807.79097	0.02432
1806.50520	0.02421
1805.21943	0.02405
1803.93366	0.02390
1802.64790	0.02382
1801.36213	0.02385
1800.07636	0.02398
1798.79059	0.02416
1797.50482	0.02437
1796.21905	0.02459
1794.93328	0.02474
1793.64751	0.02477
1792.36174	0.02471
1791.07598	0.02466
1789.79021	0.02460
1788.50444	0.02448
1787.21867	0.02430
1785.93290	0.02418
1784.64713	0.02420
1783.36136	0.02434
1782.07559	0.02451
1780.78983	0.02465
1779.50406	0.02479
1778.21829	0.02493
1776.93252	0.02507
1775.64675	0.02515
1774.36098	0.02512
1773.07521	0.02506
1771.78944	0.02512
1770.50367	0.02526
1769.21791	0.02533
1767.93214	0.02534
1766.64637	0.02542
1765.36060	0.02552
1764.07483	0.02549
1762.78906	0.02540
1761.50329	0.02542
1760.21752	0.02560
1758.93176	0.02575
1757.64599	0.02577
1756.36022	0.02575
1755.07445	0.02580
1753.78868	0.02582
1752.50291	0.02577
1751.21714	0.02570
1749.93137	0.02567
1748.64560	0.02565
1747.35984	0.02563
1746.07407	0.02566
1744.78830	0.02578
1743.50253	0.02593
1742.21676	0.02603
1740.93099	0.02609
1739.64522	0.02622
1738.35945	0.02650
1737.07369	0.02675
1735.78792	0.02679
1734.50215	0.02680
1733.21638	0.02701
1731.93061	0.02727
1730.64484	0.02732
1729.35907	0.02715
1728.07330	0.02703
1726.78753	0.02708
1725.50177	0.02724
1724.21600	0.02747
1722.93023	0.02775
1721.64446	0.02806
1720.35869	0.02827
1719.07292	0.02839
1717.78715	0.02859
1716.50138	0.02898
1715.21561	0.02943
1713.92985	0.02979
1712.64408	0.03010
1711.35831	0.03045
1710.07254	0.03086
1708.78677	0.03130
1707.50100	0.03170
1706.21523	0.03215
1704.92946	0.03277
1703.64370	0.03345
1702.35793	0.03391
1701.07216	0.03423
1699.78639	0.03474
1698.50062	0.03537
1697.21485	0.03573
1695.92908	0.03590
1694.64331	0.03627
1693.35754	0.03679
1692.07178	0.03718
1690.78601	0.03749
1689.50024	0.03796
1688.21447	0.03858
1686.92870	0.03907
1685.64293	0.03931
1684.35716	0.03959
1683.07139	0.04007
1681.78563	0.04055
1680.49986	0.04090
1679.21409	0.04126
1677.92832	0.04172
1676.64255	0.04221
1675.35678	0.04276
1674.07101	0.04343
1672.78524	0.04409
1671.49947	0.04461
1670.21371	0.04507
1668.92794	0.04564
1667.64217	0.04635
1666.35640	0.04700
1665.07063	0.04747
1663.78486	0.04780
1662.49909	0.04817
1661.21332	0.04863
1659.92756	0.04914
1658.64179	0.04969
1657.35602	0.05030
1656.07025	0.05077
1654.78448	0.05088
1653.49871	0.05089
1652.21294	0.05118
1650.92717	0.05168
1649.64140	0.05191
1648.35564	0.05176
1647.06987	0.05154
1645.78410	0.05152
1644.49833	0.05161
1643.21256	0.05165
1641.92679	0.05159
1640.64102	0.05156
1639.35525	0.05156
1638.06949	0.05148
1636.78372	0.05126
1635.49795	0.05105
1634.21218	0.05097
1632.92641	0.05092
1631.64064	0.05077
1630.35487	0.05055
1629.06910	0.05034
1627.78333	0.05018
1626.49757	0.05003
1625.21180	0.04985
1623.92603	0.04966
1622.64026	0.04959
1621.35449	0.04962
1620.06872	0.04959
1618.78295	0.04934
1617.49718	0.04902
1616.21142	0.04889
1614.92565	0.04896
1613.63988	0.04900
1612.35411	0.04893
1611.06834	0.04888
1609.78257	0.04896
1608.49680	0.04912
1607.21103	0.04928
1605.92526	0.04941
1604.63950	0.04949
1603.35373	0.04957
1602.06796	0.04966
1600.78219	0.04979
1599.49642	0.04995
1598.21065	0.05015
1596.92488	0.05037
1595.63911	0.05059
1594.35335	0.05080
1593.06758	0.05099
1591.78181	0.05119
1590.49604	0.05143
1589.21027	0.05171
1587.92450	0.05204
1586.63873	0.05240
1585.35296	0.05277
1584.06719	0.05313
1582.78143	0.05351
1581.49566	0.05398
1580.20989	0.05453
1578.92412	0.05506
1577.63835	0.05549
1576.35258	0.05599
1575.06681	0.05672
1573.78104	0.05752
1572.49528	0.05811
1571.20951	0.05853
1569.92374	0.05900
1568.63797	0.05963
1567.35220	0.06025
1566.06643	0.06075
1564.78066	0.06126
1563.49489	0.06191
1562.20912	0.06257
1560.92336	0.06308
1559.63759	0.06359
1558.35182	0.06431
1557.06605	0.06508
1555.78028	0.06554
1554.49451	0.06569
1553.20874	0.06582
1551.92297	0.06602
1550.63721	0.06621
1549.35144	0.06639
1548.06567	0.06661
1546.77990	0.06682
1545.49413	0.06699
1544.20836	0.06709
1542.92259	0.06705
1541.63682	0.06676
1540.35105	0.06635
1539.06529	0.06606
1537.77952	0.06592
1536.49375	0.06568
1535.20798	0.06521
1533.92221	0.06470
1532.63644	0.06440
1531.35067	0.06431
1530.06490	0.06426
1528.77914	0.06425
1527.49337	0.06433
1526.20760	0.06462
1524.92183	0.06506
1523.63606	0.06552
1522.35029	0.06594
1521.06452	0.06645
1519.77875	0.06712
1518.49298	0.06783
1517.20722	0.06856
1515.92145	0.06939
1514.63568	0.07035
1513.34991	0.07134
1512.06414	0.07243
1510.77837	0.07367
1509.49260	0.07494
1508.20683	0.07608
1506.92107	0.07718
1505.63530	0.07839
1504.34953	0.07966
1503.06376	0.08078
1501.77799	0.08173
1500.49222	0.08264
1499.20645	0.08358
1497.92068	0.08451
1496.63491	0.08543
1495.34915	0.08637
1494.06338	0.08727
1492.77761	0.08802
1491.49184	0.08865
1490.20607	0.08932
1488.92030	0.09006
1487.63453	0.09085
1486.34876	0.09170
1485.06299	0.09267
1483.77723	0.09375
1482.49146	0.09493
1481.20569	0.09619
1479.91992	0.09751
1478.63415	0.09881
1477.34838	0.10010
1476.06261	0.10139
1474.77684	0.10269
1473.49108	0.10400
1472.20531	0.10535
1470.91954	0.10673
1469.63377	0.10802
1468.34800	0.10917
1467.06223	0.11023
1465.77646	0.11127
1464.49069	0.11235
1463.20492	0.11344
1461.91916	0.11450
1460.63339	0.11548
1459.34762	0.11638
1458.06185	0.11727
1456.77608	0.11829
1455.49031	0.11939
1454.20454	0.12025
1452.91877	0.12073
1451.63301	0.12097
1450.34724	0.12115
1449.06147	0.12131
1447.77570	0.12139
1446.48993	0.12134
1445.20416	0.12113
1443.91839	0.12079
1442.63262	0.12045
1441.34685	0.12020
1440.06109	0.11998
1438.77532	0.11971
1437.48955	0.11944
1436.20378	0.11936
1434.91801	0.11954
1433.63224	0.11985
1432.34647	0.12025
1431.06070	0.12085
1429.77494	0.12177
1428.48917	0.12297
1427.20340	0.12436
1425.91763	0.12581
1424.63186	0.12733
1423.34609	0.12891
1422.06032	0.13045
1420.77455	0.13186
1419.48878	0.13320
1418.20302	0.13452
1416.91725	0.13570
1415.63148	0.13659
1414.34571	0.13716
1413.05994	0.13748
1411.77417	0.13760
1410.48840	0.13756
1409.20263	0.13736
1407.91687	0.13694
1406.63110	0.13626
1405.34533	0.13530
1404.05956	0.13412
1402.77379	0.13271
1401.48802	0.13105
1400.20225	0.12920
1398.91648	0.12726
1397.63071	0.12526
1396.34495	0.12309
1395.05918	0.12075
1393.77341	0.11834
1392.48764	0.11592
1391.20187	0.11349
1389.91610	0.11106
1388.63033	0.10871
1387.34456	0.10656
1386.05880	0.10463
1384.77303	0.10281
1383.48726	0.10098
1382.20149	0.09915
1380.91572	0.09735
1379.62995	0.09559
1378.34418	0.09385
1377.05841	0.09205
1375.77264	0.09009
1374.48688	0.08789
1373.20111	0.08549
1371.91534	0.08295
1370.62957	0.08039
1369.34380	0.07795
1368.05803	0.07575
1366.77226	0.07376
1365.48649	0.07184
1364.20073	0.06989
1362.91496	0.06795
1361.62919	0.06611
1360.34342	0.06441
1359.05765	0.06285
1357.77188	0.06139
1356.48611	0.06004
1355.20034	0.05881
1353.91457	0.05770
1352.62881	0.05669
1351.34304	0.05573
1350.05727	0.05481
1348.77150	0.05390
1347.48573	0.05303
1346.19996	0.05221
1344.91419	0.05149
1343.62842	0.05085
1342.34266	0.05026
1341.05689	0.04971
1339.77112	0.04918
1338.48535	0.04865
1337.19958	0.04813
1335.91381	0.04759
1334.62804	0.04707
1333.34227	0.04658
1332.05650	0.04612
1330.77074	0.04567
1329.48497	0.04520
1328.19920	0.04474
1326.91343	0.04431
1325.62766	0.04393
1324.34189	0.04358
1323.05612	0.04325
1321.77035	0.04291
1320.48459	0.04257
1319.19882	0.04226
1317.91305	0.04196
1316.62728	0.04165
1315.34151	0.04134
1314.05574	0.04106
1312.76997	0.04081
1311.48420	0.04058
1310.19843	0.04034
1308.91267	0.04007
1307.62690	0.03977
1306.34113	0.03946
1305.05536	0.03916
1303.76959	0.03888
1302.48382	0.03865
1301.19805	0.03843
1299.91228	0.03818
1298.62652	0.03788
1297.34075	0.03755
1296.05498	0.03722
1294.76921	0.03691
1293.48344	0.03666
1292.19767	0.03646
1290.91190	0.03629
1289.62613	0.03611
1288.34036	0.03592
1287.05460	0.03573
1285.76883	0.03553
1284.48306	0.03532
1283.19729	0.03511
1281.91152	0.03493
1280.62575	0.03477
1279.33998	0.03462
1278.05421	0.03446
1276.76845	0.03427
1275.48268	0.03404
1274.19691	0.03379
1272.91114	0.03355
1271.62537	0.03338
1270.33960	0.03326
1269.05383	0.03313
1267.76806	0.03296
1266.48229	0.03275
1265.19653	0.03255
1263.91076	0.03239
1262.62499	0.03225
1261.33922	0.03209
1260.05345	0.03191
1258.76768	0.03173
1257.48191	0.03157
1256.19614	0.03147
1254.91037	0.03144
1253.62461	0.03145
1252.33884	0.03143
1251.05307	0.03137
1249.76730	0.03126
1248.48153	0.03112
1247.19576	0.03095
1245.90999	0.03076
1244.62422	0.03057
1243.33846	0.03041
1242.05269	0.03030
1240.76692	0.03021
1239.48115	0.03011
1238.19538	0.02997
1236.90961	0.02984
1235.62384	0.02974
1234.33807	0.02963
1233.05230	0.02949
1231.76654	0.02932
1230.48077	0.02913
1229.19500	0.02896
1227.90923	0.02881
1226.62346	0.02867
1225.33769	0.02856
1224.05192	0.02844
1222.76615	0.02830
1221.48039	0.02811
1220.19462	0.02789
1218.90885	0.02767
1217.62308	0.02750
1216.33731	0.02739
1215.05154	0.02735
1213.76577	0.02735
1212.48000	0.02735
1211.19423	0.02735
1209.90847	0.02733
1208.62270	0.02730
1207.33693	0.02725
1206.05116	0.02720
1204.76539	0.02714
1203.47962	0.02707
1202.19385	0.02696
1200.90808	0.02678
1199.62232	0.02656
1198.33655	0.02641
1197.05078	0.02635
1195.76501	0.02637
1194.47924	0.02640
1193.19347	0.02638
1191.90770	0.02630
1190.62193	0.02619
1189.33616	0.02608
1188.05040	0.02601
1186.76463	0.02599
1185.47886	0.02600
1184.19309	0.02601
1182.90732	0.02601
1181.62155	0.02601
1180.33578	0.02601
1179.05001	0.02600
1177.76425	0.02601
1176.47848	0.02607
1175.19271	0.02621
1173.90694	0.02638
1172.62117	0.02652
1171.33540	0.02662
1170.04963	0.02669
1168.76386	0.02676
1167.47809	0.02690
1166.19233	0.02711
1164.90656	0.02734
1163.62079	0.02753
1162.33502	0.02766
1161.04925	0.02773
1159.76348	0.02782
1158.47771	0.02801
1157.19194	0.02829
1155.90618	0.02858
1154.62041	0.02884
1153.33464	0.02908
1152.04887	0.02934
1150.76310	0.02965
1149.47733	0.03000
1148.19156	0.03041
1146.90579	0.03090
1145.62002	0.03148
1144.33426	0.03213
1143.04849	0.03283
1141.76272	0.03359
1140.47695	0.03443
1139.19118	0.03539
1137.90541	0.03650
1136.61964	0.03776
1135.33387	0.03916
1134.04811	0.04068
1132.76234	0.04240
1131.47657	0.04437
1130.19080	0.04660
1128.90503	0.04904
1127.61926	0.05167
1126.33349	0.05452
1125.04772	0.05757
1123.76195	0.06082
1122.47619	0.06422
1121.19042	0.06776
1119.90465	0.07140
1118.61888	0.07506
1117.33311	0.07870
1116.04734	0.08231
1114.76157	0.08597
1113.47580	0.08968
1112.19004	0.09336
1110.90427	0.09686
1109.61850	0.10008
1108.33273	0.10305
1107.04696	0.10588
1105.76119	0.10869
1104.47542	0.11147
1103.18965	0.11410
1101.90388	0.11654
1100.61812	0.11882
1099.33235	0.12104
1098.04658	0.12323
1096.76081	0.12534
1095.47504	0.12729
1094.18927	0.12910
1092.90350	0.13083
1091.61773	0.13252
1090.33197	0.13413
1089.04620	0.13560
1087.76043	0.13697
1086.47466	0.13832
1085.18889	0.13976
1083.90312	0.14129
1082.61735	0.14286
1081.33158	0.14448
1080.04581	0.14621
1078.76005	0.14812
1077.47428	0.15022
1076.18851	0.15243
1074.90274	0.15469
1073.61697	0.15700
1072.33120	0.15940
1071.04543	0.16189
1069.75966	0.16449
1068.47390	0.16717
1067.18813	0.16992
1065.90236	0.17276
1064.61659	0.17566
1063.33082	0.17864
1062.04505	0.18168
1060.75928	0.18475
1059.47351	0.18784
1058.18774	0.19097
1056.90198	0.19416
1055.61621	0.19732
1054.33044	0.20043
1053.04467	0.20347
1051.75890	0.20650
1050.47313	0.20954
1049.18736	0.21268
1047.90159	0.21602
1046.61583	0.21965
1045.33006	0.22350
1044.04429	0.22740
1042.75852	0.23122
1041.47275	0.23497
1040.18698	0.23874
1038.90121	0.24261
1037.61544	0.24655
1036.32967	0.25052
1035.04391	0.25450
1033.75814	0.25846
1032.47237	0.26229
1031.18660	0.26588
1029.90083	0.26915
1028.61506	0.27214
1027.32929	0.27490
1026.04352	0.27745
1024.75775	0.27972
1023.47199	0.28169
1022.18622	0.28333
1020.90045	0.28462
1019.61468	0.28556
1018.32891	0.28612
1017.04314	0.28631
1015.75737	0.28611
1014.47160	0.28546
1013.18584	0.28429
1011.90007	0.28257
1010.61430	0.28036
1009.32853	0.27775
1008.04276	0.27479
1006.75699	0.27146
1005.47122	0.26774
1004.18545	0.26360
1002.89968	0.25904
1001.61392	0.25411
1000.32815	0.24886
999.04238	0.24332
997.75661	0.23750
996.47084	0.23141
995.18507	0.22509
993.89930	0.21867
992.61353	0.21232
991.32777	0.20619
990.04200	0.20025
988.75623	0.19443
987.47046	0.18863
986.18469	0.18286
984.89892	0.17718
983.61315	0.17168
982.32738	0.16646
981.04161	0.16158
979.75585	0.15702
978.47008	0.15275
977.18431	0.14873
975.89854	0.14500
974.61277	0.14167
973.32700	0.13879
972.04123	0.13639
970.75546	0.13448
969.46970	0.13310
968.18393	0.13231
966.89816	0.13214
965.61239	0.13253
964.32662	0.13324
963.04085	0.13397
961.75508	0.13442
960.46931	0.13442
959.18354	0.13391
957.89778	0.13286
956.61201	0.13124
955.32624	0.12907
954.04047	0.12648
952.75470	0.12370
951.46893	0.12093
950.18316	0.11826
948.89739	0.11566
947.61163	0.11312
946.32586	0.11065
945.04009	0.10822
943.75432	0.10581
942.46855	0.10345
941.18278	0.10120
939.89701	0.09912
938.61124	0.09715
937.32547	0.09525
936.03971	0.09345
934.75394	0.09176
933.46817	0.09015
932.18240	0.08858
930.89663	0.08705
929.61086	0.08559
928.32509	0.08426
927.03932	0.08305
925.75356	0.08193
924.46779	0.08081
923.18202	0.07966
921.89625	0.07852
920.61048	0.07748
919.32471	0.07661
918.03894	0.07589
916.75317	0.07521
915.46740	0.07448
914.18164	0.07364
912.89587	0.07274
911.61010	0.07187
910.32433	0.07110
909.03856	0.07042
907.75279	0.06976
906.46702	0.06910
905.18125	0.06846
903.89549	0.06785
902.60972	0.06724
901.32395	0.06662
900.03818	0.06601
898.75241	0.06545
897.46664	0.06495
896.18087	0.06445
894.89510	0.06393
893.60933	0.06343
892.32357	0.06306
891.03780	0.06290
889.75203	0.06300
888.46626	0.06335
887.18049	0.06401
885.89472	0.06515
884.60895	0.06700
883.32318	0.06967
882.03742	0.07296
880.75165	0.07631
879.46588	0.07919
878.18011	0.08140
876.89434	0.08318
875.60857	0.08490
874.32280	0.08668
873.03703	0.08824
871.75126	0.08911
870.46550	0.08900
869.17973	0.08790
867.89396	0.08601
866.60819	0.08358
865.32242	0.08087
864.03665	0.07811
862.75088	0.07552
861.46511	0.07321
860.17935	0.07119
858.89358	0.06939
857.60781	0.06778
856.32204	0.06632
855.03627	0.06504
853.75050	0.06392
852.46473	0.06294
851.17896	0.06207
849.89319	0.06129
848.60743	0.06057
847.32166	0.05988
846.03589	0.05920
844.75012	0.05853
843.46435	0.05790
842.17858	0.05735
840.89281	0.05688
839.60704	0.05645
838.32128	0.05608
837.03551	0.05573
835.74974	0.05540
834.46397	0.05507
833.17820	0.05473
831.89243	0.05436
830.60666	0.05395
829.32089	0.05355
828.03512	0.05318
826.74936	0.05288
825.46359	0.05263
824.17782	0.05241
822.89205	0.05217
821.60628	0.05190
820.32051	0.05168
819.03474	0.05156
817.74897	0.05153
816.46321	0.05155
815.17744	0.05152
813.89167	0.05138
812.60590	0.05115
811.32013	0.05092
810.03436	0.05077
808.74859	0.05069
807.46282	0.05066
806.17705	0.05069
804.89129	0.05075
803.60552	0.05082
802.31975	0.05084
801.03398	0.05080
799.74821	0.05071
798.46244	0.05057
797.17667	0.05038
795.89090	0.05020
794.60513	0.05006
793.31937	0.04999
792.03360	0.04996
790.74783	0.04991
789.46206	0.04980
788.17629	0.04964
786.89052	0.04943
785.60475	0.04920
784.31898	0.04897
783.03322	0.04881
781.74745	0.04873
780.46168	0.04866
779.17591	0.04855
777.89014	0.04840
776.60437	0.04825
775.31860	0.04815
774.03283	0.04811
772.74706	0.04810
771.46130	0.04807
770.17553	0.04798
768.88976	0.04782
767.60399	0.04762
766.31822	0.04746
765.03245	0.04739
763.74668	0.04739
762.46091	0.04739
761.17515	0.04736
759.88938	0.04735
758.60361	0.04739
757.31784	0.04747
756.03207	0.04753
754.74630	0.04753
753.46053	0.04748
752.17476	0.04742
750.88899	0.04741
749.60323	0.04749
748.31746	0.04758
747.03169	0.04754
745.74592	0.04734
744.46015	0.04706
743.17438	0.04681
741.88861	0.04659
740.60284	0.04637
739.31708	0.04613
738.03131	0.04594
736.74554	0.04585
735.45977	0.04590
734.17400	0.04603
732.88823	0.04616
731.60246	0.04622
730.31669	0.04620
729.03092	0.04615
727.74516	0.04611
726.45939	0.04608
725.17362	0.04605
723.88785	0.04604
722.60208	0.04592
721.31631	0.04573
720.03054	0.04552
718.74477	0.04534
717.45901	0.04521
716.17324	0.04511
714.88747	0.04503
713.60170	0.04493
712.31593	0.04479
711.03016	0.04462
709.74439	0.04444
708.45862	0.04426
707.17285	0.04410
705.88709	0.04398
704.60132	0.04385
703.31555	0.04371
702.02978	0.04357
700.74401	0.04343
699.45824	0.04334
698.17247	0.04328
696.88670	0.04325
695.60094	0.04320
694.31517	0.04311
693.02940	0.04297
691.74363	0.04280
690.45786	0.04264
689.17209	0.04252
687.88632	0.04240
686.60055	0.04224
685.31478	0.04202
684.02902	0.04177
682.74325	0.04155
681.45748	0.04142
680.17171	0.04139
678.88594	0.04141
677.60017	0.04144
676.31440	0.04145
675.02863	0.04142
673.74287	0.04136
672.45710	0.04124
671.17133	0.04103
669.88556	0.04084
668.59979	0.04077
667.31402	0.04083
666.02825	0.04088
664.74248	0.04088
663.45671	0.04081
662.17095	0.04066
660.88518	0.04044
659.59941	0.04016
658.31364	0.03985
657.02787	0.03955
655.74210	0.03928
654.45633	0.03906
653.17056	0.03886
651.88480	0.03868
650.59903	0.03854
649.31326	0.03844
648.02749	0.03838
646.74172	0.03833
645.45595	0.03828
644.17018	0.03822
642.88441	0.03820
641.59864	0.03824
640.31288	0.03834
639.02711	0.03845
637.74134	0.03854
636.45557	0.03863
635.16980	0.03875
633.88403	0.03895
632.59826	0.03930
631.31249	0.03986
630.02673	0.04070
628.74096	0.04157
627.45519	0.04216
626.16942	0.04346
624.88365	0.04495
623.59788	0.04602
622.31211	0.04705
621.02634	0.04896
619.74057	0.05213
618.45481	0.05602
617.16904	0.06001
615.88327	0.06384
614.59750	0.06761
613.31173	0.07175
612.02596	0.07675
610.74019	0.08251
609.45442	0.08788
608.16866	0.09179
606.88289	0.09451
605.59712	0.09719
604.31135	0.10040
603.02558	0.10358
601.73981	0.10571
600.45404	0.10611
599.16827	0.10491
597.88250	0.10267
596.59674	0.10002
595.31097	0.09735
594.02520	0.09485
592.73943	0.09261
591.45366	0.09070
590.16789	0.08922
588.88212	0.08833
587.59635	0.08814
586.31059	0.08863
585.02482	0.08973
583.73905	0.09135
582.45328	0.09336
581.16751	0.09566
579.88174	0.09810
578.59597	0.10055
577.31020	0.10295
576.02443	0.10529
574.73867	0.10761
573.45290	0.10988
572.16713	0.11209
570.88136	0.11430
569.59559	0.11679
568.30982	0.11987
567.02405	0.12369
565.73828	0.12807
564.45251	0.13251
563.16675	0.13637
561.88098	0.13904
560.59521	0.14003
559.30944	0.13908
558.02367	0.13632
556.73790	0.13217
555.45213	0.12712
554.16636	0.12158
552.88060	0.11587
551.59483	0.11034
550.30906	0.10522
549.02329	0.10053
547.73752	0.09616
546.45175	0.09205
545.16598	0.08824
543.88021	0.08482
542.59444	0.08185
541.30868	0.07930
540.02291	0.07710
538.73714	0.07513
537.45137	0.07326
536.16560	0.07145
534.87983	0.06969
533.59406	0.06804
532.30829	0.06647
531.02253	0.06495
529.73676	0.06348
528.45099	0.06214
527.16522	0.06096
525.87945	0.05993
524.59368	0.05896
523.30791	0.05797
522.02214	0.05688
520.73637	0.05571
519.45061	0.05454
518.16484	0.05347
516.87907	0.05253
515.59330	0.05168
514.30753	0.05084
513.02176	0.04999
511.73599	0.04918
510.45022	0.04841
509.16446	0.04769
507.87869	0.04706
506.59292	0.04653
505.30715	0.04609
504.02138	0.04562
502.73561	0.04505
501.44984	0.04441
500.16407	0.04377
498.87830	0.04321
497.59254	0.04274
496.30677	0.04231
495.02100	0.04188
493.73523	0.04146
492.44946	0.04113
491.16369	0.04092
489.87792	0.04077
488.59215	0.04058
487.30639	0.04035
486.02062	0.04014
484.73485	0.04006
483.44908	0.04016
482.16331	0.04039
480.87754	0.04068
479.59177	0.04099
478.30600	0.04134
477.02023	0.04174
475.73447	0.04217
474.44870	0.04262
473.16293	0.04309
471.87716	0.04350
470.59139	0.04379
469.30562	0.04391
468.01985	0.04387
466.73408	0.04372
465.44832	0.04347
464.16255	0.04313
462.87678	0.04279
461.59101	0.04250
460.30524	0.04223
459.01947	0.04195
457.73370	0.04165
456.44793	0.04134
455.16216	0.04100
453.87640	0.04061
452.59063	0.04019
451.30486	0.03978
450.01909	0.03937
448.73332	0.03895
447.44755	0.03849
446.16178	0.03802
444.87601	0.03757
443.59025	0.03721
442.30448	0.03699
441.01871	0.03686
439.73294	0.03671
438.44717	0.03649
437.16140	0.03621
435.87563	0.03596
434.58986	0.03577
433.30409	0.03564
432.01833	0.03556
430.73256	0.03550
429.44679	0.03546
428.16102	0.03537
426.87525	0.03520
425.58948	0.03494
424.30371	0.03464
423.01794	0.03433
421.73218	0.03402
420.44641	0.03371
419.16064	0.03345
417.87487	0.03329
416.58910	0.03316
415.30333	0.03298
414.01756	0.03273
412.73179	0.03244
411.44602	0.03216
410.16026	0.03194
408.87449	0.03181
407.58872	0.03174
406.30295	0.03173
405.01718	0.03177
403.73141	0.03184
402.44564	0.03193
401.15987	0.03202
399.87411	0.03210
