3997.45528	0.04453
3996.16951	0.04479
3994.88374	0.04520
3993.59798	0.04554
3992.31221	0.04553
3991.02644	0.04521
3989.74067	0.04483
3988.45490	0.04469
3987.16913	0.04490
3985.88336	0.04526
3984.59759	0.04550
3983.31183	0.04555
3982.02606	0.04561
3980.74029	0.04594
3979.45452	0.04666
3978.16875	0.04758
3976.88298	0.04824
3975.59721	0.04825
3974.31144	0.04768
3973.02567	0.04693
3971.73991	0.04636
3970.45414	0.04599
3969.16837	0.04565
3967.88260	0.04533
3966.59683	0.04519
3965.31106	0.04534
3964.02529	0.04561
3962.73952	0.04565
3961.45376	0.04527
3960.16799	0.04462
3958.88222	0.04402
3957.59645	0.04371
3956.31068	0.04373
3955.02491	0.04401
3953.73914	0.04433
3952.45337	0.04442
3951.16760	0.04415
3949.88184	0.04379
3948.59607	0.04375
3947.31030	0.04417
3946.02453	0.04474
3944.73876	0.04504
3943.45299	0.04490
3942.16722	0.04448
3940.88145	0.04401
3939.59569	0.04367
3938.30992	0.04358
3937.02415	0.04373
3935.73838	0.04400
3934.45261	0.04421
3933.16684	0.04418
3931.88107	0.04384
3930.59530	0.04340
3929.30953	0.04327
3928.02377	0.04365
3926.73800	0.04421
3925.45223	0.04437
3924.16646	0.04394
3922.88069	0.04335
3921.59492	0.04314
3920.30915	0.04344
3919.02338	0.04392
3917.73762	0.04423
3916.45185	0.04424
3915.16608	0.04402
3913.88031	0.04375
3912.59454	0.04359
3911.30877	0.04367
3910.02300	0.04399
3908.73723	0.04440
3907.45146	0.04466
3906.16570	0.04462
3904.87993	0.04441
3903.59416	0.04423
3902.30839	0.04420
3901.02262	0.04431
3899.73685	0.04459
3898.45108	0.04503
3897.16531	0.04548
3895.87955	0.04579
3894.59378	0.04583
3893.30801	0.04550
3892.02224	0.04468
3890.73647	0.04362
3889.45070	0.04286
3888.16493	0.04287
3886.87916	0.04368
3885.59339	0.04483
3884.30763	0.04567
3883.02186	0.04580
3881.73609	0.04531
3880.45032	0.04466
3879.16455	0.04419
3877.87878	0.04392
3876.59301	0.04378
3875.30724	0.04375
3874.02148	0.04377
3872.73571	0.04369
3871.44994	0.04347
3870.16417	0.04342
3868.87840	0.04381
3867.59263	0.04450
3866.30686	0.04517
3865.02109	0.04561
3863.73532	0.04567
3862.44956	0.04526
3861.16379	0.04461
3859.87802	0.04411
3858.59225	0.04390
3857.30648	0.04383
3856.02071	0.04374
3854.73494	0.04367
3853.44917	0.04369
3852.16341	0.04367
3850.87764	0.04344
3849.59187	0.04310
3848.30610	0.04283
3847.02033	0.04257
3845.73456	0.04217
3844.44879	0.04173
3843.16302	0.04151
3841.87725	0.04160
3840.59149	0.04179
3839.30572	0.04188
3838.01995	0.04195
3836.73418	0.04210
3835.44841	0.04223
3834.16264	0.04220
3832.87687	0.04207
3831.59110	0.04201
3830.30534	0.04211
3829.01957	0.04237
3827.73380	0.04282
3826.44803	0.04343
3825.16226	0.04396
3823.87649	0.04407
3822.59072	0.04361
3821.30495	0.04293
3820.01918	0.04247
3818.73342	0.04225
3817.44765	0.04202
3816.16188	0.04172
3814.87611	0.04145
3813.59034	0.04121
3812.30457	0.04101
3811.01880	0.04101
3809.73303	0.04130
3808.44726	0.04183
3807.16150	0.04247
3805.87573	0.04303
3804.58996	0.04327
3803.30419	0.04315
3802.01842	0.04292
3800.73265	0.04281
3799.44688	0.04276
3798.16111	0.04257
3796.87535	0.04231
3795.58958	0.04220
3794.30381	0.04245
3793.01804	0.04309
3791.73227	0.04388
3790.44650	0.04434
3789.16073	0.04408
3787.87496	0.04322
3786.58919	0.04219
3785.30343	0.04138
3784.01766	0.04096
3782.73189	0.04095
3781.44612	0.04115
3780.16035	0.04129
3778.87458	0.04121
3777.58881	0.04098
3776.30304	0.04089
3775.01728	0.04113
3773.73151	0.04155
3772.44574	0.04175
3771.15997	0.04154
3769.87420	0.04109
3768.58843	0.04066
3767.30266	0.04028
3766.01689	0.03995
3764.73112	0.03978
3763.44536	0.03994
3762.15959	0.04040
3760.87382	0.04101
3759.58805	0.04149
3758.30228	0.04159
3757.01651	0.04128
3755.73074	0.04075
3754.44497	0.04021
3753.15921	0.03983
3751.87344	0.03973
3750.58767	0.03985
3749.30190	0.04012
3748.01613	0.04043
3746.73036	0.04062
3745.44459	0.04068
3744.15882	0.04074
3742.87305	0.04066
3741.58729	0.04016
3740.30152	0.03942
3739.01575	0.03887
3737.72998	0.03876
3736.44421	0.03903
3735.15844	0.03946
3733.87267	0.03967
3732.58690	0.03954
3731.30114	0.03922
3730.01537	0.03888
3728.72960	0.03847
3727.44383	0.03801
3726.15806	0.03769
3724.87229	0.03767
3723.58652	0.03788
3722.30075	0.03812
3721.01498	0.03827
3719.72922	0.03832
3718.44345	0.03842
3717.15768	0.03871
3715.87191	0.03922
3714.58614	0.03977
3713.30037	0.04009
3712.01460	0.04011
3710.72883	0.03989
3709.44307	0.03956
3708.15730	0.03919
3706.87153	0.03875
3705.58576	0.03825
3704.29999	0.03777
3703.01422	0.03751
3701.72845	0.03755
3700.44268	0.03761
3699.15691	0.03732
3697.87115	0.03690
3696.58538	0.03693
3695.29961	0.03737
3694.01384	0.03754
3692.72807	0.03699
3691.44230	0.03594
3690.15653	0.03508
3688.87076	0.03505
3687.58500	0.03577
3686.29923	0.03651
3685.01346	0.03685
3683.72769	0.03693
3682.44192	0.03702
3681.15615	0.03731
3679.87038	0.03789
3678.58461	0.03863
3677.29884	0.03926
3676.01308	0.03958
3674.72731	0.03967
3673.44154	0.03968
3672.15577	0.03962
3670.87000	0.03956
3669.58423	0.03959
3668.29846	0.03967
3667.01269	0.03976
3665.72693	0.03993
3664.44116	0.04028
3663.15539	0.04079
3661.86962	0.04125
3660.58385	0.04124
3659.29808	0.04044
3658.01231	0.03905
3656.72654	0.03776
3655.44077	0.03721
3654.15501	0.03747
3652.86924	0.03829
3651.58347	0.03950
3650.29770	0.04093
3649.01193	0.04219
3647.72616	0.04284
3646.44039	0.04275
3645.15462	0.04218
3643.86886	0.04150
3642.58309	0.04105
3641.29732	0.04112
3640.01155	0.04182
3638.72578	0.04286
3637.44001	0.04360
3636.15424	0.04353
3634.86847	0.04276
3633.58270	0.04198
3632.29694	0.04176
3631.01117	0.04205
3629.72540	0.04246
3628.43963	0.04271
3627.15386	0.04276
3625.86809	0.04266
3624.58232	0.04255
3623.29655	0.04249
3622.01079	0.04235
3620.72502	0.04198
3619.43925	0.04144
3618.15348	0.04092
3616.86771	0.04062
3615.58194	0.04067
3614.29617	0.04108
3613.01040	0.04174
3611.72463	0.04248
3610.43887	0.04314
3609.15310	0.04365
3607.86733	0.04398
3606.58156	0.04416
3605.29579	0.04420
3604.01002	0.04408
3602.72425	0.04374
3601.43848	0.04337
3600.15272	0.04330
3598.86695	0.04375
3597.58118	0.04460
3596.29541	0.04553
3595.00964	0.04616
3593.72387	0.04615
3592.43810	0.04557
3591.15233	0.04486
3589.86656	0.04446
3588.58080	0.04463
3587.29503	0.04527
3586.00926	0.04592
3584.72349	0.04622
3583.43772	0.04629
3582.15195	0.04654
3580.86618	0.04718
3579.58041	0.04807
3578.29464	0.04883
3577.00888	0.04924
3575.72311	0.04943
3574.43734	0.04964
3573.15157	0.04996
3571.86580	0.05022
3570.58003	0.05023
3569.29426	0.05000
3568.00849	0.04985
3566.72273	0.05008
3565.43696	0.05071
3564.15119	0.05142
3562.86542	0.05189
3561.57965	0.05200
3560.29388	0.05183
3559.00811	0.05145
3557.72234	0.05088
3556.43657	0.05023
3555.15081	0.04977
3553.86504	0.04978
3552.57927	0.05024
3551.29350	0.05090
3550.00773	0.05150
3548.72196	0.05189
3547.43619	0.05204
3546.15042	0.05196
3544.86466	0.05171
3543.57889	0.05151
3542.29312	0.05163
3541.00735	0.05208
3539.72158	0.05254
3538.43581	0.05273
3537.15004	0.05275
3535.86427	0.05295
3534.57850	0.05338
3533.29274	0.05371
3532.00697	0.05368
3530.72120	0.05352
3529.43543	0.05365
3528.14966	0.05417
3526.86389	0.05476
3525.57812	0.05513
3524.29235	0.05521
3523.00659	0.05502
3521.72082	0.05464
3520.43505	0.05428
3519.14928	0.05430
3517.86351	0.05482
3516.57774	0.05550
3515.29197	0.05595
3514.00620	0.05606
3512.72043	0.05604
3511.43467	0.05604
3510.14890	0.05600
3508.86313	0.05584
3507.57736	0.05563
3506.29159	0.05561
3505.00582	0.05595
3503.72005	0.05656
3502.43428	0.05720
3501.14852	0.05766
3499.86275	0.05798
3498.57698	0.05834
3497.29121	0.05873
3496.00544	0.05896
3494.71967	0.05884
3493.43390	0.05842
3492.14813	0.05795
3490.86236	0.05765
3489.57660	0.05760
3488.29083	0.05773
3487.00506	0.05794
3485.71929	0.05816
3484.43352	0.05838
3483.14775	0.05864
3481.86198	0.05901
3480.57621	0.05945
3479.29045	0.05989
3478.00468	0.06024
3476.71891	0.06049
3475.43314	0.06059
3474.14737	0.06055
3472.86160	0.06047
3471.57583	0.06050
3470.29006	0.06075
3469.00429	0.06108
3467.71853	0.06121
3466.43276	0.06099
3465.14699	0.06059
3463.86122	0.06026
3462.57545	0.06010
3461.28968	0.06000
3460.00391	0.05986
3458.71814	0.05971
3457.43238	0.05968
3456.14661	0.05980
3454.86084	0.06004
3453.57507	0.06038
3452.28930	0.06079
3451.00353	0.06129
3449.71776	0.06184
3448.43199	0.06229
3447.14622	0.06241
3445.86046	0.06212
3444.57469	0.06161
3443.28892	0.06119
3442.00315	0.06099
3440.71738	0.06101
3439.43161	0.06129
3438.14584	0.06193
3436.86007	0.06286
3435.57431	0.06376
3434.28854	0.06428
3433.00277	0.06446
3431.71700	0.06465
3430.43123	0.06509
3429.14546	0.06569
3427.85969	0.06604
3426.57392	0.06581
3425.28815	0.06498
3424.00239	0.06400
3422.71662	0.06343
3421.43085	0.06357
3420.14508	0.06423
3418.85931	0.06497
3417.57354	0.06542
3416.28777	0.06547
3415.00200	0.06521
3413.71624	0.06480
3412.43047	0.06444
3411.14470	0.06436
3409.85893	0.06460
3408.57316	0.06500
3407.28739	0.06536
3406.00162	0.06566
3404.71585	0.06607
3403.43008	0.06667
3402.14432	0.06734
3400.85855	0.06785
3399.57278	0.06807
3398.28701	0.06808
3397.00124	0.06800
3395.71547	0.06789
3394.42970	0.06780
3393.14393	0.06775
3391.85817	0.06776
3390.57240	0.06775
3389.28663	0.06769
3388.00086	0.06759
3386.71509	0.06745
3385.42932	0.06726
3384.14355	0.06708
3382.85778	0.06707
3381.57201	0.06735
3380.28625	0.06781
3379.00048	0.06824
3377.71471	0.06843
3376.42894	0.06841
3375.14317	0.06842
3373.85740	0.06865
3372.57163	0.06899
3371.28586	0.06909
3370.00010	0.06872
3368.71433	0.06809
3367.42856	0.06764
3366.14279	0.06768
3364.85702	0.06817
3363.57125	0.06875
3362.28548	0.06904
3360.99971	0.06894
3359.71394	0.06868
3358.42818	0.06853
3357.14241	0.06857
3355.85664	0.06869
3354.57087	0.06880
3353.28510	0.06892
3351.99933	0.06910
3350.71356	0.06932
3349.42779	0.06947
3348.14202	0.06946
3346.85626	0.06930
3345.57049	0.06919
3344.28472	0.06935
3342.99895	0.06986
3341.71318	0.07048
3340.42741	0.07093
3339.14164	0.07101
3337.85587	0.07072
3336.57011	0.07019
3335.28434	0.06960
3333.99857	0.06918
3332.71280	0.06914
3331.42703	0.06946
3330.14126	0.06988
3328.85549	0.07011
3327.56972	0.07000
3326.28395	0.06968
3324.99819	0.06942
3323.71242	0.06936
3322.42665	0.06942
3321.14088	0.06941
3319.85511	0.06923
3318.56934	0.06898
3317.28357	0.06883
3315.99780	0.06887
3314.71204	0.06900
3313.42627	0.06915
3312.14050	0.06935
3310.85473	0.06977
3309.56896	0.07048
3308.28319	0.07134
3306.99742	0.07208
3305.71165	0.07256
3304.42588	0.07273
3303.14012	0.07257
3301.85435	0.07212
3300.56858	0.07148
3299.28281	0.07093
3297.99704	0.07070
3296.71127	0.07091
3295.42550	0.07145
3294.13973	0.07207
3292.85397	0.07251
3291.56820	0.07260
3290.28243	0.07234
3288.99666	0.07189
3287.71089	0.07145
3286.42512	0.07113
3285.13935	0.07091
3283.85358	0.07071
3282.56781	0.07052
3281.28205	0.07047
3279.99628	0.07071
3278.71051	0.07118
3277.42474	0.07159
3276.13897	0.07169
3274.85320	0.07149
3273.56743	0.07118
3272.28166	0.07094
3270.99590	0.07078
3269.71013	0.07064
3268.42436	0.07049
3267.13859	0.07035
3265.85282	0.07033
3264.56705	0.07047
3263.28128	0.07061
3261.99551	0.07054
3260.70974	0.07022
3259.42398	0.06983
3258.13821	0.06962
3256.85244	0.06963
3255.56667	0.06977
3254.28090	0.06991
3252.99513	0.06996
3251.70936	0.06989
3250.42359	0.06970
3249.13783	0.06947
3247.85206	0.06922
3246.56629	0.06893
3245.28052	0.06862
3243.99475	0.06835
3242.70898	0.06824
3241.42321	0.06836
3240.13744	0.06862
3238.85167	0.06885
3237.56591	0.06890
3236.28014	0.06871
3234.99437	0.06831
3233.70860	0.06777
3232.42283	0.06724
3231.13706	0.06692
3229.85129	0.06694
3228.56552	0.06722
3227.27976	0.06752
3225.99399	0.06767
3224.70822	0.06769
3223.42245	0.06764
3222.13668	0.06748
3220.85091	0.06720
3219.56514	0.06700
3218.27937	0.06715
3216.99360	0.06765
3215.70784	0.06816
3214.42207	0.06826
3213.13630	0.06781
3211.85053	0.06704
3210.56476	0.06632
3209.27899	0.06595
3207.99322	0.06596
3206.70745	0.06622
3205.42169	0.06653
3204.13592	0.06670
3202.85015	0.06661
3201.56438	0.06626
3200.27861	0.06577
3198.99284	0.06535
3197.70707	0.06516
3196.42130	0.06515
3195.13553	0.06506
3193.84977	0.06472
3192.56400	0.06423
3191.27823	0.06389
3189.99246	0.06387
3188.70669	0.06407
3187.42092	0.06432
3186.13515	0.06451
3184.84938	0.06464
3183.56362	0.06468
3182.27785	0.06460
3180.99208	0.06434
3179.70631	0.06389
3178.42054	0.06336
3177.13477	0.06294
3175.84900	0.06275
3174.56323	0.06278
3173.27746	0.06289
3171.99170	0.06299
3170.70593	0.06312
3169.42016	0.06335
3168.13439	0.06366
3166.84862	0.06394
3165.56285	0.06403
3164.27708	0.06380
3162.99131	0.06326
3161.70555	0.06263
3160.41978	0.06221
3159.13401	0.06216
3157.84824	0.06238
3156.56247	0.06261
3155.27670	0.06272
3153.99093	0.06274
3152.70516	0.06272
3151.41939	0.06262
3150.13363	0.06237
3148.84786	0.06203
3147.56209	0.06167
3146.27632	0.06133
3144.99055	0.06100
3143.70478	0.06069
3142.41901	0.06050
3141.13324	0.06049
3139.84748	0.06066
3138.56171	0.06095
3137.27594	0.06122
3135.99017	0.06132
3134.70440	0.06118
3133.41863	0.06086
3132.13286	0.06048
3130.84709	0.06021
3129.56132	0.06010
3128.27556	0.06004
3126.98979	0.05987
3125.70402	0.05957
3124.41825	0.05930
3123.13248	0.05911
3121.84671	0.05893
3120.56094	0.05868
3119.27517	0.05850
3117.98940	0.05857
3116.70364	0.05886
3115.41787	0.05915
3114.13210	0.05920
3112.84633	0.05891
3111.56056	0.05843
3110.27479	0.05804
3108.98902	0.05791
3107.70325	0.05791
3106.41749	0.05788
3105.13172	0.05783
3103.84595	0.05792
3102.56018	0.05811
3101.27441	0.05816
3099.98864	0.05790
3098.70287	0.05746
3097.41710	0.05716
3096.13133	0.05717
3094.84557	0.05745
3093.55980	0.05783
3092.27403	0.05818
3090.98826	0.05843
3089.70249	0.05857
3088.41672	0.05867
3087.13095	0.05880
3085.84518	0.05893
3084.55942	0.05899
3083.27365	0.05892
3081.98788	0.05872
3080.70211	0.05844
3079.41634	0.05813
3078.13057	0.05792
3076.84480	0.05786
3075.55903	0.05790
3074.27326	0.05788
3072.98750	0.05778
3071.70173	0.05774
3070.41596	0.05795
3069.13019	0.05842
3067.84442	0.05893
3066.55865	0.05917
3065.27288	0.05897
3063.98711	0.05843
3062.70135	0.05784
3061.41558	0.05746
3060.12981	0.05733
3058.84404	0.05732
3057.55827	0.05732
3056.27250	0.05732
3054.98673	0.05730
3053.70096	0.05717
3052.41519	0.05692
3051.12943	0.05668
3049.84366	0.05658
3048.55789	0.05659
3047.27212	0.05658
3045.98635	0.05651
3044.70058	0.05644
3043.41481	0.05644
3042.12904	0.05648
3040.84328	0.05647
3039.55751	0.05632
3038.27174	0.05605
3036.98597	0.05575
3035.70020	0.05553
3034.41443	0.05545
3033.12866	0.05548
3031.84289	0.05554
3030.55712	0.05551
3029.27136	0.05532
3027.98559	0.05498
3026.69982	0.05458
3025.41405	0.05423
3024.12828	0.05400
3022.84251	0.05390
3021.55674	0.05390
3020.27097	0.05394
3018.98521	0.05397
3017.69944	0.05394
3016.41367	0.05385
3015.12790	0.05372
3013.84213	0.05350
3012.55636	0.05317
3011.27059	0.05285
3009.98482	0.05269
3008.69905	0.05276
3007.41329	0.05296
3006.12752	0.05310
3004.84175	0.05312
3003.55598	0.05307
3002.27021	0.05304
3000.98444	0.05307
2999.69867	0.05314
2998.41290	0.05322
2997.12714	0.05327
2995.84137	0.05333
2994.55560	0.05342
2993.26983	0.05353
2991.98406	0.05364
2990.69829	0.05367
2989.41252	0.05358
2988.12675	0.05347
2986.84098	0.05352
2985.55522	0.05382
2984.26945	0.05421
2982.98368	0.05442
2981.69791	0.05437
2980.41214	0.05424
2979.12637	0.05425
2977.84060	0.05448
2976.55483	0.05482
2975.26907	0.05519
2973.98330	0.05556
2972.69753	0.05594
2971.41176	0.05635
2970.12599	0.05678
2968.84022	0.05724
2967.55445	0.05770
2966.26868	0.05809
2964.98291	0.05833
2963.69715	0.05839
2962.41138	0.05834
2961.12561	0.05833
2959.83984	0.05850
2958.55407	0.05885
2957.26830	0.05927
2955.98253	0.05969
2954.69676	0.06010
2953.41100	0.06052
2952.12523	0.06094
2950.83946	0.06130
2949.55369	0.06152
2948.26792	0.06156
2946.98215	0.06150
2945.69638	0.06140
2944.41061	0.06125
2943.12484	0.06098
2941.83908	0.06067
2940.55331	0.06047
2939.26754	0.06051
2937.98177	0.06078
2936.69600	0.06116
2935.41023	0.06155
2934.12446	0.06185
2932.83869	0.06205
2931.55293	0.06218
2930.26716	0.06231
2928.98139	0.06248
2927.69562	0.06266
2926.40985	0.06283
2925.12408	0.06292
2923.83831	0.06295
2922.55254	0.06294
2921.26677	0.06294
2919.98101	0.06288
2918.69524	0.06260
2917.40947	0.06207
2916.12370	0.06141
2914.83793	0.06087
2913.55216	0.06058
2912.26639	0.06045
2910.98062	0.06029
2909.69486	0.05995
2908.40909	0.05946
2907.12332	0.05895
2905.83755	0.05854
2904.55178	0.05824
2903.26601	0.05806
2901.98024	0.05801
2900.69447	0.05810
2899.40870	0.05820
2898.12294	0.05811
2896.83717	0.05767
2895.55140	0.05695
2894.26563	0.05621
2892.97986	0.05572
2891.69409	0.05555
2890.40832	0.05553
2889.12255	0.05552
2887.83678	0.05545
2886.55102	0.05534
2885.26525	0.05516
2883.97948	0.05489
2882.69371	0.05453
2881.40794	0.05414
2880.12217	0.05388
2878.83640	0.05391
2877.55063	0.05426
2876.26487	0.05477
2874.97910	0.05522
2873.69333	0.05542
2872.40756	0.05539
2871.12179	0.05529
2869.83602	0.05527
2868.55025	0.05531
2867.26448	0.05532
2865.97871	0.05529
2864.69295	0.05527
2863.40718	0.05523
2862.12141	0.05504
2860.83564	0.05461
2859.54987	0.05404
2858.26410	0.05358
2856.97833	0.05336
2855.69256	0.05338
2854.40680	0.05351
2853.12103	0.05365
2851.83526	0.05372
2850.54949	0.05367
2849.26372	0.05353
2847.97795	0.05343
2846.69218	0.05347
2845.40641	0.05357
2844.12064	0.05354
2842.83488	0.05317
2841.54911	0.05247
2840.26334	0.05168
2838.97757	0.05110
2837.69180	0.05086
2836.40603	0.05088
2835.12026	0.05090
2833.83449	0.05066
2832.54873	0.05006
2831.26296	0.04917
2829.97719	0.04826
2828.69142	0.04760
2827.40565	0.04736
2826.11988	0.04746
2824.83411	0.04770
2823.54834	0.04789
2822.26257	0.04792
2820.97681	0.04780
2819.69104	0.04762
2818.40527	0.04742
2817.11950	0.04727
2815.83373	0.04719
2814.54796	0.04717
2813.26219	0.04715
2811.97642	0.04705
2810.69066	0.04680
2809.40489	0.04643
2808.11912	0.04606
2806.83335	0.04584
2805.54758	0.04579
2804.26181	0.04573
2802.97604	0.04554
2801.69027	0.04524
2800.40450	0.04501
2799.11874	0.04494
2797.83297	0.04501
2796.54720	0.04510
2795.26143	0.04512
2793.97566	0.04502
2792.68989	0.04490
2791.40412	0.04486
2790.11835	0.04491
2788.83259	0.04495
2787.54682	0.04489
2786.26105	0.04477
2784.97528	0.04461
2783.68951	0.04439
2782.40374	0.04410
2781.11797	0.04381
2779.83220	0.04364
2778.54643	0.04365
2777.26067	0.04376
2775.97490	0.04385
2774.68913	0.04385
2773.40336	0.04382
2772.11759	0.04385
2770.83182	0.04397
2769.54605	0.04411
2768.26028	0.04418
2766.97452	0.04418
2765.68875	0.04412
2764.40298	0.04400
2763.11721	0.04381
2761.83144	0.04359
2760.54567	0.04336
2759.25990	0.04315
2757.97413	0.04300
2756.68836	0.04290
2755.40260	0.04285
2754.11683	0.04277
2752.83106	0.04257
2751.54529	0.04226
2750.25952	0.04201
2748.97375	0.04200
2747.68798	0.04220
2746.40221	0.04244
2745.11645	0.04253
2743.83068	0.04251
2742.54491	0.04254
2741.25914	0.04270
2739.97337	0.04292
2738.68760	0.04306
2737.40183	0.04298
2736.11606	0.04268
2734.83029	0.04236
2733.54453	0.04224
2732.25876	0.04237
2730.97299	0.04255
2729.68722	0.04258
2728.40145	0.04235
2727.11568	0.04195
2725.82991	0.04152
2724.54414	0.04121
2723.25838	0.04113
2721.97261	0.04126
2720.68684	0.04147
2719.40107	0.04161
2718.11530	0.04166
2716.82953	0.04167
2715.54376	0.04162
2714.25799	0.04145
2712.97222	0.04113
2711.68646	0.04077
2710.40069	0.04052
2709.11492	0.04043
2707.82915	0.04043
2706.54338	0.04044
2705.25761	0.04040
2703.97184	0.04034
2702.68607	0.04028
2701.40031	0.04027
2700.11454	0.04039
2698.82877	0.04066
2697.54300	0.04094
2696.25723	0.04106
2694.97146	0.04093
2693.68569	0.04060
2692.39992	0.04020
2691.11415	0.03989
2689.82839	0.03979
2688.54262	0.03987
2687.25685	0.04005
2685.97108	0.04021
2684.68531	0.04033
2683.39954	0.04036
2682.11377	0.04025
2680.82800	0.04002
2679.54224	0.03979
2678.25647	0.03971
2676.97070	0.03977
2675.68493	0.03985
2674.39916	0.03985
2673.11339	0.03978
2671.82762	0.03968
2670.54185	0.03959
2669.25608	0.03952
2667.97032	0.03951
2666.68455	0.03953
2665.39878	0.03953
2664.11301	0.03946
2662.82724	0.03936
2661.54147	0.03924
2660.25570	0.03907
2658.96993	0.03887
2657.68417	0.03877
2656.39840	0.03886
2655.11263	0.03904
2653.82686	0.03912
2652.54109	0.03902
2651.25532	0.03883
2649.96955	0.03869
2648.68378	0.03858
2647.39801	0.03847
2646.11225	0.03839
2644.82648	0.03838
2643.54071	0.03842
2642.25494	0.03840
2640.96917	0.03824
2639.68340	0.03796
2638.39763	0.03760
2637.11186	0.03725
2635.82609	0.03700
2634.54033	0.03688
2633.25456	0.03685
2631.96879	0.03676
2630.68302	0.03652
2629.39725	0.03612
2628.11148	0.03576
2626.82571	0.03567
2625.53994	0.03591
2624.25418	0.03631
2622.96841	0.03660
2621.68264	0.03662
2620.39687	0.03634
2619.11110	0.03590
2617.82533	0.03549
2616.53956	0.03526
2615.25379	0.03520
2613.96802	0.03515
2612.68226	0.03493
2611.39649	0.03456
2610.11072	0.03422
2608.82495	0.03408
2607.53918	0.03414
2606.25341	0.03423
2604.96764	0.03418
2603.68187	0.03401
2602.39611	0.03382
2601.11034	0.03367
2599.82457	0.03352
2598.53880	0.03334
2597.25303	0.03317
2595.96726	0.03310
2594.68149	0.03322
2593.39572	0.03347
2592.10995	0.03360
2590.82419	0.03335
2589.53842	0.03279
2588.25265	0.03225
2586.96688	0.03209
2585.68111	0.03234
2584.39534	0.03278
2583.10957	0.03311
2581.82380	0.03325
2580.53804	0.03331
2579.25227	0.03343
2577.96650	0.03360
2576.68073	0.03362
2575.39496	0.03337
2574.10919	0.03297
2572.82342	0.03256
2571.53765	0.03217
2570.25188	0.03173
2568.96612	0.03134
2567.68035	0.03117
2566.39458	0.03127
2565.10881	0.03149
2563.82304	0.03171
2562.53727	0.03189
2561.25150	0.03202
2559.96573	0.03209
2558.67997	0.03214
2557.39420	0.03220
2556.10843	0.03221
2554.82266	0.03210
2553.53689	0.03186
2552.25112	0.03160
2550.96535	0.03146
2549.67958	0.03142
2548.39381	0.03144
2547.10805	0.03154
2545.82228	0.03172
2544.53651	0.03180
2543.25074	0.03159
2541.96497	0.03113
2540.67920	0.03067
2539.39343	0.03038
2538.10766	0.03025
2536.82190	0.03023
2535.53613	0.03030
2534.25036	0.03041
2532.96459	0.03044
2531.67882	0.03031
2530.39305	0.03011
2529.10728	0.02992
2527.82151	0.02977
2526.53574	0.02966
2525.24998	0.02964
2523.96421	0.02981
2522.67844	0.03021
2521.39267	0.03061
2520.10690	0.03075
2518.82113	0.03065
2517.53536	0.03049
2516.24959	0.03036
2514.96383	0.03010
2513.67806	0.02969
2512.39229	0.02938
2511.10652	0.02939
2509.82075	0.02965
2508.53498	0.02987
2507.24921	0.02984
2505.96344	0.02961
2504.67767	0.02949
2503.39191	0.02973
2502.10614	0.03032
2500.82037	0.03094
2499.53460	0.03128
2498.24883	0.03126
2496.96306	0.03106
2495.67729	0.03085
2494.39152	0.03059
2493.10576	0.03016
2491.81999	0.02956
2490.53422	0.02895
2489.24845	0.02858
2487.96268	0.02858
2486.67691	0.02885
2485.39114	0.02911
2484.10537	0.02914
2482.81960	0.02902
2481.53384	0.02892
2480.24807	0.02889
2478.96230	0.02879
2477.67653	0.02855
2476.39076	0.02828
2475.10499	0.02813
2473.81922	0.02814
2472.53345	0.02833
2471.24769	0.02866
2469.96192	0.02904
2468.67615	0.02932
2467.39038	0.02936
2466.10461	0.02921
2464.81884	0.02910
2463.53307	0.02922
2462.24730	0.02959
2460.96153	0.03004
2459.67577	0.03030
2458.39000	0.03019
2457.10423	0.02977
2455.81846	0.02935
2454.53269	0.02919
2453.24692	0.02918
2451.96115	0.02906
2450.67538	0.02877
2449.38962	0.02851
2448.10385	0.02845
2446.81808	0.02851
2445.53231	0.02852
2444.24654	0.02841
2442.96077	0.02825
2441.67500	0.02812
2440.38923	0.02805
2439.10346	0.02804
2437.81770	0.02805
2436.53193	0.02811
2435.24616	0.02829
2433.96039	0.02855
2432.67462	0.02874
2431.38885	0.02879
2430.10308	0.02876
2428.81731	0.02879
2427.53155	0.02887
2426.24578	0.02882
2424.96001	0.02850
2423.67424	0.02799
2422.38847	0.02751
2421.10270	0.02720
2419.81693	0.02708
2418.53116	0.02716
2417.24539	0.02739
2415.95963	0.02762
2414.67386	0.02766
2413.38809	0.02758
2412.10232	0.02760
2410.81655	0.02783
2409.53078	0.02810
2408.24501	0.02820
2406.95924	0.02806
2405.67347	0.02780
2404.38771	0.02755
2403.10194	0.02738
2401.81617	0.02729
2400.53040	0.02727
2399.24463	0.02733
2397.95886	0.02750
2396.67309	0.02773
2395.38732	0.02795
2394.10156	0.02813
2392.81579	0.02828
2391.53002	0.02837
2390.24425	0.02832
2388.95848	0.02809
2387.67271	0.02771
2386.38694	0.02735
2385.10117	0.02718
2383.81540	0.02727
2382.52964	0.02750
2381.24387	0.02769
2379.95810	0.02773
2378.67233	0.02764
2377.38656	0.02752
2376.10079	0.02749
2374.81502	0.02746
2373.52925	0.02748
2372.24349	0.02750
2370.95772	0.02753
2369.67195	0.02735
2368.38618	0.02716
2367.10041	0.02723
2365.81464	0.02763
2364.52887	0.02792
2363.24310	0.02804
2361.95733	0.02821
2360.67157	0.02873
2359.38580	0.02903
2358.10003	0.02892
2356.81426	0.02855
2355.52849	0.02818
2354.24272	0.02791
2352.95695	0.02784
2351.67118	0.02828
2350.38542	0.02888
2349.09965	0.02890
2347.81388	0.02837
2346.52811	0.02840
2345.24234	0.02881
2343.95657	0.02842
2342.67080	0.02737
2341.38503	0.02769
2340.09926	0.02933
2338.81350	0.02935
2337.52773	0.02771
2336.24196	0.02796
2334.95619	0.02959
2333.67042	0.02899
2332.38465	0.02711
2331.09888	0.02782
2329.81311	0.02870
2328.52735	0.02714
2327.24158	0.02745
2325.95581	0.02899
2324.67004	0.02850
2323.38427	0.02844
2322.09850	0.02934
2320.81273	0.02853
2319.52696	0.02831
2318.24119	0.02871
2316.95543	0.02807
2315.66966	0.02793
2314.38389	0.02798
2313.09812	0.02740
2311.81235	0.02725
2310.52658	0.02700
2309.24081	0.02681
2307.95504	0.02690
2306.66928	0.02662
2305.38351	0.02635
2304.09774	0.02609
2302.81197	0.02585
2301.52620	0.02583
2300.24043	0.02581
2298.95466	0.02594
2297.66889	0.02616
2296.38312	0.02634
2295.09736	0.02627
2293.81159	0.02578
2292.52582	0.02508
2291.24005	0.02447
2289.95428	0.02434
2288.66851	0.02481
2287.38274	0.02566
2286.09697	0.02640
2284.81121	0.02656
2283.52544	0.02603
2282.23967	0.02515
2280.95390	0.02441
2279.66813	0.02402
2278.38236	0.02381
2277.09659	0.02358
2275.81082	0.02334
2274.52505	0.02327
2273.23929	0.02346
2271.95352	0.02374
2270.66775	0.02388
2269.38198	0.02373
2268.09621	0.02336
2266.81044	0.02302
2265.52467	0.02285
2264.23890	0.02274
2262.95314	0.02261
2261.66737	0.02243
2260.38160	0.02225
2259.09583	0.02211
2257.81006	0.02204
2256.52429	0.02197
2255.23852	0.02182
2253.95275	0.02162
2252.66698	0.02143
2251.38122	0.02125
2250.09545	0.02107
2248.80968	0.02093
2247.52391	0.02082
2246.23814	0.02099
2244.95237	0.02130
2243.66660	0.02142
2242.38083	0.02113
2241.09507	0.02044
2239.80930	0.01971
2238.52353	0.01944
2237.23776	0.01992
2235.95199	0.02078
2234.66622	0.02131
2233.38045	0.02106
2232.09468	0.02018
2230.80891	0.01917
2229.52315	0.01851
2228.23738	0.01848
2226.95161	0.01898
2225.66584	0.01964
2224.38007	0.02012
2223.09430	0.02042
2221.80853	0.02062
2220.52276	0.02063
2219.23700	0.02039
2217.95123	0.02012
2216.66546	0.02004
2215.37969	0.01992
2214.09392	0.01934
2212.80815	0.01828
2211.52238	0.01728
2210.23661	0.01682
2208.95084	0.01688
2207.66508	0.01715
2206.37931	0.01741
2205.09354	0.01754
2203.80777	0.01740
2202.52200	0.01705
2201.23623	0.01675
2199.95046	0.01669
2198.66469	0.01675
2197.37893	0.01669
2196.09316	0.01653
2194.80739	0.01648
2193.52162	0.01671
2192.23585	0.01712
2190.95008	0.01734
2189.66431	0.01703
2188.37854	0.01617
2187.09277	0.01518
2185.80701	0.01452
2184.52124	0.01416
2183.23547	0.01373
2181.94970	0.01301
2180.66393	0.01239
2179.37816	0.01239
2178.09239	0.01302
2176.80662	0.01369
2175.52085	0.01379
2174.23509	0.01331
2172.94932	0.01273
2171.66355	0.01238
2170.37778	0.01213
2169.09201	0.01180
2167.80624	0.01146
2166.52047	0.01134
2165.23470	0.01148
2163.94894	0.01167
2162.66317	0.01157
2161.37740	0.01107
2160.09163	0.01056
2158.80586	0.01061
2157.52009	0.01126
2156.23432	0.01193
2154.94855	0.01226
2153.66278	0.01240
2152.37702	0.01246
2151.09125	0.01231
2149.80548	0.01208
2148.51971	0.01223
2147.23394	0.01278
2145.94817	0.01303
2144.66240	0.01247
2143.37663	0.01152
2142.09087	0.01098
2140.80510	0.01105
2139.51933	0.01150
2138.23356	0.01230
2136.94779	0.01356
2135.66202	0.01491
2134.37625	0.01557
2133.09048	0.01518
2131.80471	0.01424
2130.51895	0.01360
2129.23318	0.01366
2127.94741	0.01432
2126.66164	0.01530
2125.37587	0.01635
2124.09010	0.01719
2122.80433	0.01756
2121.51856	0.01740
2120.23280	0.01696
2118.94703	0.01663
2117.66126	0.01663
2116.37549	0.01688
2115.08972	0.01711
2113.80395	0.01711
2112.51818	0.01687
2111.23241	0.01651
2109.94664	0.01614
2108.66088	0.01584
2107.37511	0.01568
2106.08934	0.01576
2104.80357	0.01608
2103.51780	0.01649
2102.23203	0.01675
2100.94626	0.01679
2099.66049	0.01723
2098.37473	0.01739
2097.08896	0.01725
2095.80319	0.01686
2094.51742	0.01627
2093.23165	0.01569
2091.94588	0.01542
2090.66011	0.01550
2089.37434	0.01576
2088.08857	0.01596
2086.80281	0.01594
2085.51704	0.01567
2084.23127	0.01530
2082.94550	0.01503
2081.65973	0.01490
2080.37396	0.01482
2079.08819	0.01473
2077.80242	0.01465
2076.51666	0.01458
2075.23089	0.01451
2073.94512	0.01454
2072.65935	0.01475
2071.37358	0.01504
2070.08781	0.01511
2068.80204	0.01477
2067.51627	0.01405
2066.23050	0.01319
2064.94474	0.01250
2063.65897	0.01224
2062.37320	0.01243
2061.08743	0.01281
2059.80166	0.01295
2058.51589	0.01257
2057.23012	0.01171
2055.94435	0.01074
2054.65859	0.01013
2053.37282	0.01015
2052.08705	0.01066
2050.80128	0.01125
2049.51551	0.01158
2048.22974	0.01164
2046.94397	0.01151
2045.65820	0.01118
2044.37243	0.01067
2043.08667	0.01012
2041.80090	0.00964
2040.51513	0.00911
2039.22936	0.00848
2037.94359	0.00801
2036.65782	0.00807
2035.37205	0.00853
2034.08628	0.00875
2032.80052	0.00825
2031.51475	0.00728
2030.22898	0.00660
2028.94321	0.00666
2027.65744	0.00717
2026.37167	0.00749
2025.08590	0.00744
2023.80013	0.00746
2022.51436	0.00795
2021.22860	0.00869
2019.94283	0.00907
2018.65706	0.00900
2017.37129	0.00897
2016.08552	0.00948
2014.79975	0.01036
2013.51398	0.01100
2012.22821	0.01087
2010.94245	0.00990
2009.65668	0.00849
2008.37091	0.00730
2007.08514	0.00690
2005.79937	0.00743
2004.51360	0.00858
2003.22783	0.00987
2001.94206	0.01091
2000.65629	0.01154
1999.37053	0.01195
1998.08476	0.01242
1996.79899	0.01301
1995.51322	0.01345
1994.22745	0.01361
1992.94168	0.01369
1991.65591	0.01400
1990.37014	0.01450
1989.08438	0.01478
1987.79861	0.01442
1986.51284	0.01343
1985.22707	0.01234
1983.94130	0.01177
1982.65553	0.01185
1981.36976	0.01215
1980.08399	0.01214
1978.79822	0.01181
1977.51246	0.01147
1976.22669	0.01127
1974.94092	0.01100
1973.65515	0.01041
1972.36938	0.00961
1971.08361	0.00906
1969.79784	0.00920
1968.51207	0.01002
1967.22631	0.01107
1965.94054	0.01180
1964.65477	0.01202
1963.36900	0.01191
1962.08323	0.01173
1960.79746	0.01170
1959.51169	0.01190
1958.22592	0.01229
1956.94015	0.01264
1955.65439	0.01272
1954.36862	0.01253
1953.08285	0.01233
1951.79708	0.01231
1950.51131	0.01244
1949.22554	0.01254
1947.93977	0.01253
1946.65400	0.01254
1945.36823	0.01272
1944.08247	0.01311
1942.79670	0.01359
1941.51093	0.01408
1940.22516	0.01449
1938.93939	0.01472
1937.65362	0.01478
1936.36785	0.01477
1935.08208	0.01479
1933.79632	0.01484
1932.51055	0.01480
1931.22478	0.01468
1929.93901	0.01453
1928.65324	0.01442
1927.36747	0.01433
1926.08170	0.01427
1924.79593	0.01429
1923.51016	0.01439
1922.22440	0.01450
1920.93863	0.01459
1919.65286	0.01472
1918.36709	0.01489
1917.08132	0.01509
1915.79555	0.01527
1914.50978	0.01543
1913.22401	0.01557
1911.93825	0.01567
1910.65248	0.01576
1909.36671	0.01590
1908.08094	0.01605
1906.79517	0.01604
1905.50940	0.01577
1904.22363	0.01537
1902.93786	0.01509
1901.65209	0.01507
1900.36633	0.01522
1899.08056	0.01538
1897.79479	0.01546
1896.50902	0.01549
1895.22325	0.01555
1893.93748	0.01570
1892.65171	0.01595
1891.36594	0.01620
1890.08018	0.01629
1888.79441	0.01614
1887.50864	0.01584
1886.22287	0.01561
1884.93710	0.01553
1883.65133	0.01547
1882.36556	0.01533
1881.07979	0.01513
1879.79402	0.01506
1878.50826	0.01517
1877.22249	0.01535
1875.93672	0.01546
1874.65095	0.01553
1873.36518	0.01563
1872.07941	0.01576
1870.79364	0.01583
1869.50787	0.01578
1868.22211	0.01570
1866.93634	0.01569
1865.65057	0.01573
1864.36480	0.01575
1863.07903	0.01571
1861.79326	0.01567
1860.50749	0.01567
1859.22172	0.01572
1857.93595	0.01581
1856.65019	0.01592
1855.36442	0.01603
1854.07865	0.01608
1852.79288	0.01602
1851.50711	0.01585
1850.22134	0.01563
1848.93557	0.01551
1847.64980	0.01555
1846.36404	0.01570
1845.07827	0.01581
1843.79250	0.01581
1842.50673	0.01571
1841.22096	0.01558
1839.93519	0.01551
1838.64942	0.01550
1837.36365	0.01552
1836.07788	0.01554
1834.79212	0.01558
1833.50635	0.01567
1832.22058	0.01576
1830.93481	0.01581
1829.64904	0.01585
1828.36327	0.01598
1827.07750	0.01618
1825.79173	0.01636
1824.50597	0.01648
1823.22020	0.01652
1821.93443	0.01651
1820.64866	0.01648
1819.36289	0.01639
1818.07712	0.01622
1816.79135	0.01602
1815.50558	0.01590
1814.21981	0.01590
1812.93405	0.01596
1811.64828	0.01599
1810.36251	0.01595
1809.07674	0.01591
1807.79097	0.01593
1806.50520	0.01600
1805.21943	0.01607
1803.93366	0.01610
1802.64790	0.01612
1801.36213	0.01615
1800.07636	0.01619
1798.79059	0.01623
1797.50482	0.01625
1796.21905	0.01629
1794.93328	0.01635
1793.64751	0.01638
1792.36174	0.01634
1791.07598	0.01623
1789.79021	0.01612
1788.50444	0.01605
1787.21867	0.01604
1785.93290	0.01606
1784.64713	0.01611
1783.36136	0.01623
1782.07559	0.01639
1780.78983	0.01653
1779.50406	0.01659
1778.21829	0.01659
1776.93252	0.01655
1775.64675	0.01648
1774.36098	0.01636
1773.07521	0.01622
1771.78944	0.01616
1770.50367	0.01613
1769.21791	0.01608
1767.93214	0.01600
1766.64637	0.01597
1765.36060	0.01602
1764.07483	0.01611
1762.78906	0.01622
1761.50329	0.01633
1760.21752	0.01641
1758.93176	0.01644
1757.64599	0.01642
1756.36022	0.01638
1755.07445	0.01637
1753.78868	0.01636
1752.50291	0.01637
1751.21714	0.01640
1749.93137	0.01646
1748.64560	0.01646
1747.35984	0.01637
1746.07407	0.01627
1744.78830	0.01626
1743.50253	0.01636
1742.21676	0.01653
1740.93099	0.01672
1739.64522	0.01688
1738.35945	0.01703
1737.07369	0.01709
1735.78792	0.01703
1734.50215	0.01693
1733.21638	0.01691
1731.93061	0.01696
1730.64484	0.01699
1729.35907	0.01699
1728.07330	0.01704
1726.78753	0.01710
1725.50177	0.01716
1724.21600	0.01722
1722.93023	0.01736
1721.64446	0.01759
1720.35869	0.01783
1719.07292	0.01799
1717.78715	0.01810
1716.50138	0.01825
1715.21561	0.01847
1713.92985	0.01874
1712.64408	0.01905
1711.35831	0.01942
1710.07254	0.01984
1708.78677	0.02031
1707.50100	0.02082
1706.21523	0.02139
1704.92946	0.02205
1703.64370	0.02278
1702.35793	0.02352
1701.07216	0.02430
1699.78639	0.02520
1698.50062	0.02615
1697.21485	0.02702
1695.92908	0.02786
1694.64331	0.02880
1693.35754	0.02976
1692.07178	0.03059
1690.78601	0.03133
1689.50024	0.03215
1688.21447	0.03308
1686.92870	0.03400
1685.64293	0.03482
1684.35716	0.03564
1683.07139	0.03655
1681.78563	0.03752
1680.49986	0.03847
1679.21409	0.03941
1677.92832	0.04031
1676.64255	0.04117
1675.35678	0.04202
1674.07101	0.04290
1672.78524	0.04379
1671.49947	0.04466
1670.21371	0.04551
1668.92794	0.04639
1667.64217	0.04731
1666.35640	0.04823
1665.07063	0.04912
1663.78486	0.04997
1662.49909	0.05078
1661.21332	0.05153
1659.92756	0.05221
1658.64179	0.05288
1657.35602	0.05359
1656.07025	0.05427
1654.78448	0.05484
1653.49871	0.05535
1652.21294	0.05589
1650.92717	0.05642
1649.64140	0.05679
1648.35564	0.05698
1647.06987	0.05716
1645.78410	0.05740
1644.49833	0.05762
1643.21256	0.05771
1641.92679	0.05766
1640.64102	0.05759
1639.35525	0.05753
1638.06949	0.05742
1636.78372	0.05718
1635.49795	0.05682
1634.21218	0.05641
1632.92641	0.05598
1631.64064	0.05552
1630.35487	0.05506
1629.06910	0.05456
1627.78333	0.05401
1626.49757	0.05338
1625.21180	0.05266
1623.92603	0.05188
1622.64026	0.05112
1621.35449	0.05041
1620.06872	0.04976
1618.78295	0.04914
1617.49718	0.04853
1616.21142	0.04796
1614.92565	0.04739
1613.63988	0.04676
1612.35411	0.04610
1611.06834	0.04554
1609.78257	0.04507
1608.49680	0.04466
1607.21103	0.04425
1605.92526	0.04386
1604.63950	0.04352
1603.35373	0.04324
1602.06796	0.04300
1600.78219	0.04279
1599.49642	0.04259
1598.21065	0.04242
1596.92488	0.04230
1595.63911	0.04224
1594.35335	0.04222
1593.06758	0.04224
1591.78181	0.04228
1590.49604	0.04233
1589.21027	0.04238
1587.92450	0.04243
1586.63873	0.04250
1585.35296	0.04257
1584.06719	0.04266
1582.78143	0.04277
1581.49566	0.04292
1580.20989	0.04312
1578.92412	0.04333
1577.63835	0.04349
1576.35258	0.04365
1575.06681	0.04390
1573.78104	0.04422
1572.49528	0.04450
1571.20951	0.04474
1569.92374	0.04499
1568.63797	0.04528
1567.35220	0.04561
1566.06643	0.04595
1564.78066	0.04632
1563.49489	0.04672
1562.20912	0.04708
1560.92336	0.04733
1559.63759	0.04754
1558.35182	0.04781
1557.06605	0.04809
1555.78028	0.04828
1554.49451	0.04840
1553.20874	0.04856
1551.92297	0.04876
1550.63721	0.04894
1549.35144	0.04907
1548.06567	0.04914
1546.77990	0.04918
1545.49413	0.04925
1544.20836	0.04937
1542.92259	0.04952
1541.63682	0.04959
1540.35105	0.04957
1539.06529	0.04951
1537.77952	0.04944
1536.49375	0.04934
1535.20798	0.04922
1533.92221	0.04914
1532.63644	0.04917
1531.35067	0.04924
1530.06490	0.04929
1528.77914	0.04932
1527.49337	0.04939
1526.20760	0.04954
1524.92183	0.04976
1523.63606	0.04998
1522.35029	0.05014
1521.06452	0.05030
1519.77875	0.05049
1518.49298	0.05065
1517.20722	0.05081
1515.92145	0.05103
1514.63568	0.05131
1513.34991	0.05161
1512.06414	0.05196
1510.77837	0.05240
1509.49260	0.05289
1508.20683	0.05332
1506.92107	0.05367
1505.63530	0.05400
1504.34953	0.05434
1503.06376	0.05467
1501.77799	0.05501
1500.49222	0.05532
1499.20645	0.05556
1497.92068	0.05568
1496.63491	0.05573
1495.34915	0.05577
1494.06338	0.05586
1492.77761	0.05596
1491.49184	0.05611
1490.20607	0.05632
1488.92030	0.05658
1487.63453	0.05685
1486.34876	0.05713
1485.06299	0.05748
1483.77723	0.05790
1482.49146	0.05842
1481.20569	0.05903
1479.91992	0.05971
1478.63415	0.06043
1477.34838	0.06115
1476.06261	0.06187
1474.77684	0.06256
1473.49108	0.06321
1472.20531	0.06386
1470.91954	0.06453
1469.63377	0.06515
1468.34800	0.06567
1467.06223	0.06610
1465.77646	0.06647
1464.49069	0.06683
1463.20492	0.06719
1461.91916	0.06759
1460.63339	0.06808
1459.34762	0.06865
1458.06185	0.06927
1456.77608	0.06994
1455.49031	0.07066
1454.20454	0.07136
1452.91877	0.07197
1451.63301	0.07245
1450.34724	0.07282
1449.06147	0.07308
1447.77570	0.07327
1446.48993	0.07339
1445.20416	0.07338
1443.91839	0.07321
1442.63262	0.07294
1441.34685	0.07269
1440.06109	0.07250
1438.77532	0.07233
1437.48955	0.07214
1436.20378	0.07199
1434.91801	0.07192
1433.63224	0.07195
1432.34647	0.07210
1431.06070	0.07238
1429.77494	0.07279
1428.48917	0.07329
1427.20340	0.07384
1425.91763	0.07446
1424.63186	0.07516
1423.34609	0.07595
1422.06032	0.07676
1420.77455	0.07749
1419.48878	0.07812
1418.20302	0.07869
1416.91725	0.07917
1415.63148	0.07950
1414.34571	0.07969
1413.05994	0.07979
1411.77417	0.07986
1410.48840	0.07985
1409.20263	0.07972
1407.91687	0.07942
1406.63110	0.07894
1405.34533	0.07834
1404.05956	0.07767
1402.77379	0.07693
1401.48802	0.07609
1400.20225	0.07511
1398.91648	0.07403
1397.63071	0.07291
1396.34495	0.07179
1395.05918	0.07066
1393.77341	0.06950
1392.48764	0.06830
1391.20187	0.06704
1389.91610	0.06577
1388.63033	0.06453
1387.34456	0.06335
1386.05880	0.06223
1384.77303	0.06113
1383.48726	0.06002
1382.20149	0.05889
1380.91572	0.05773
1379.62995	0.05652
1378.34418	0.05528
1377.05841	0.05406
1375.77264	0.05289
1374.48688	0.05178
1373.20111	0.05066
1371.91534	0.04951
1370.62957	0.04831
1369.34380	0.04712
1368.05803	0.04599
1366.77226	0.04498
1365.48649	0.04407
1364.20073	0.04325
1362.91496	0.04250
1361.62919	0.04174
1360.34342	0.04097
1359.05765	0.04024
1357.77188	0.03960
1356.48611	0.03905
1355.20034	0.03857
1353.91457	0.03811
1352.62881	0.03764
1351.34304	0.03716
1350.05727	0.03670
1348.77150	0.03628
1347.48573	0.03591
1346.19996	0.03559
1344.91419	0.03531
1343.62842	0.03505
1342.34266	0.03480
1341.05689	0.03454
1339.77112	0.03428
1338.48535	0.03405
1337.19958	0.03382
1335.91381	0.03358
1334.62804	0.03331
1333.34227	0.03304
1332.05650	0.03277
1330.77074	0.03253
1329.48497	0.03229
1328.19920	0.03207
1326.91343	0.03188
1325.62766	0.03171
1324.34189	0.03155
1323.05612	0.03134
1321.77035	0.03108
1320.48459	0.03078
1319.19882	0.03047
1317.91305	0.03020
1316.62728	0.02997
1315.34151	0.02975
1314.05574	0.02953
1312.76997	0.02928
1311.48420	0.02902
1310.19843	0.02874
1308.91267	0.02847
1307.62690	0.02821
1306.34113	0.02799
1305.05536	0.02781
1303.76959	0.02764
1302.48382	0.02745
1301.19805	0.02722
1299.91228	0.02699
1298.62652	0.02679
1297.34075	0.02664
1296.05498	0.02651
1294.76921	0.02639
1293.48344	0.02630
1292.19767	0.02623
1290.91190	0.02616
1289.62613	0.02608
1288.34036	0.02597
1287.05460	0.02583
1285.76883	0.02568
1284.48306	0.02554
1283.19729	0.02542
1281.91152	0.02534
1280.62575	0.02529
1279.33998	0.02529
1278.05421	0.02532
1276.76845	0.02535
1275.48268	0.02534
1274.19691	0.02524
1272.91114	0.02509
1271.62537	0.02495
1270.33960	0.02487
1269.05383	0.02485
1267.76806	0.02485
1266.48229	0.02484
1265.19653	0.02482
1263.91076	0.02481
1262.62499	0.02481
1261.33922	0.02482
1260.05345	0.02483
1258.76768	0.02485
1257.48191	0.02487
1256.19614	0.02491
1254.91037	0.02500
1253.62461	0.02512
1252.33884	0.02526
1251.05307	0.02540
1249.76730	0.02549
1248.48153	0.02552
1247.19576	0.02551
1245.90999	0.02550
1244.62422	0.02552
1243.33846	0.02557
1242.05269	0.02563
1240.76692	0.02567
1239.48115	0.02569
1238.19538	0.02565
1236.90961	0.02558
1235.62384	0.02551
1234.33807	0.02547
1233.05230	0.02544
1231.76654	0.02540
1230.48077	0.02534
1229.19500	0.02527
1227.90923	0.02517
1226.62346	0.02506
1225.33769	0.02493
1224.05192	0.02481
1222.76615	0.02471
1221.48039	0.02462
1220.19462	0.02453
1218.90885	0.02444
1217.62308	0.02437
1216.33731	0.02432
1215.05154	0.02431
1213.76577	0.02433
1212.48000	0.02438
1211.19423	0.02443
1209.90847	0.02450
1208.62270	0.02461
1207.33693	0.02475
1206.05116	0.02491
1204.76539	0.02507
1203.47962	0.02524
1202.19385	0.02543
1200.90808	0.02559
1199.62232	0.02568
1198.33655	0.02578
1197.05078	0.02583
1195.76501	0.02585
1194.47924	0.02588
1193.19347	0.02590
1191.90770	0.02592
1190.62193	0.02590
1189.33616	0.02583
1188.05040	0.02573
1186.76463	0.02565
1185.47886	0.02564
1184.19309	0.02574
1182.90732	0.02592
1181.62155	0.02605
1180.33578	0.02609
1179.05001	0.02605
1177.76425	0.02602
1176.47848	0.02605
1175.19271	0.02611
1173.90694	0.02618
1172.62117	0.02624
1171.33540	0.02632
1170.04963	0.02645
1168.76386	0.02665
1167.47809	0.02690
1166.19233	0.02712
1164.90656	0.02725
1163.62079	0.02731
1162.33502	0.02738
1161.04925	0.02750
1159.76348	0.02766
1158.47771	0.02784
1157.19194	0.02803
1155.90618	0.02822
1154.62041	0.02840
1153.33464	0.02860
1152.04887	0.02881
1150.76310	0.02904
1149.47733	0.02926
1148.19156	0.02945
1146.90579	0.02970
1145.62002	0.03009
1144.33426	0.03061
1143.04849	0.03118
1141.76272	0.03170
1140.47695	0.03217
1139.19118	0.03272
1137.90541	0.03341
1136.61964	0.03421
1135.33387	0.03509
1134.04811	0.03601
1132.76234	0.03704
1131.47657	0.03820
1130.19080	0.03947
1128.90503	0.04082
1127.61926	0.04223
1126.33349	0.04373
1125.04772	0.04534
1123.76195	0.04708
1122.47619	0.04892
1121.19042	0.05084
1119.90465	0.05281
1118.61888	0.05483
1117.33311	0.05687
1116.04734	0.05892
1114.76157	0.06101
1113.47580	0.06313
1112.19004	0.06527
1110.90427	0.06741
1109.61850	0.06957
1108.33273	0.07173
1107.04696	0.07384
1105.76119	0.07591
1104.47542	0.07794
1103.18965	0.07997
1101.90388	0.08200
1100.61812	0.08402
1099.33235	0.08601
1098.04658	0.08790
1096.76081	0.08962
1095.47504	0.09118
1094.18927	0.09267
1092.90350	0.09411
1091.61773	0.09547
1090.33197	0.09673
1089.04620	0.09788
1087.76043	0.09900
1086.47466	0.10015
1085.18889	0.10135
1083.90312	0.10258
1082.61735	0.10382
1081.33158	0.10510
1080.04581	0.10645
1078.76005	0.10788
1077.47428	0.10938
1076.18851	0.11100
1074.90274	0.11275
1073.61697	0.11464
1072.33120	0.11661
1071.04543	0.11858
1069.75966	0.12052
1068.47390	0.12244
1067.18813	0.12442
1065.90236	0.12653
1064.61659	0.12873
1063.33082	0.13094
1062.04505	0.13307
1060.75928	0.13508
1059.47351	0.13698
1058.18774	0.13883
1056.90198	0.14067
1055.61621	0.14248
1054.33044	0.14426
1053.04467	0.14602
1051.75890	0.14786
1050.47313	0.14981
1049.18736	0.15184
1047.90159	0.15383
1046.61583	0.15573
1045.33006	0.15762
1044.04429	0.15960
1042.75852	0.16171
1041.47275	0.16385
1040.18698	0.16590
1038.90121	0.16782
1037.61544	0.16974
1036.32967	0.17179
1035.04391	0.17396
1033.75814	0.17615
1032.47237	0.17818
1031.18660	0.17996
1029.90083	0.18148
1028.61506	0.18280
1027.32929	0.18400
1026.04352	0.18513
1024.75775	0.18617
1023.47199	0.18708
1022.18622	0.18782
1020.90045	0.18835
1019.61468	0.18864
1018.32891	0.18869
1017.04314	0.18848
1015.75737	0.18802
1014.47160	0.18731
1013.18584	0.18640
1011.90007	0.18529
1010.61430	0.18395
1009.32853	0.18231
1008.04276	0.18034
1006.75699	0.17808
1005.47122	0.17564
1004.18545	0.17311
1002.89968	0.17049
1001.61392	0.16773
1000.32815	0.16473
999.04238	0.16152
997.75661	0.15818
996.47084	0.15477
995.18507	0.15131
993.89930	0.14781
992.61353	0.14429
991.32777	0.14072
990.04200	0.13710
988.75623	0.13345
987.47046	0.12987
986.18469	0.12642
984.89892	0.12312
983.61315	0.11994
982.32738	0.11685
981.04161	0.11382
979.75585	0.11080
978.47008	0.10783
977.18431	0.10497
975.89854	0.10228
974.61277	0.09979
973.32700	0.09757
972.04123	0.09564
970.75546	0.09400
969.46970	0.09267
968.18393	0.09167
966.89816	0.09104
965.61239	0.09079
964.32662	0.09083
963.04085	0.09094
961.75508	0.09092
960.46931	0.09068
959.18354	0.09019
957.89778	0.08941
956.61201	0.08832
955.32624	0.08697
954.04047	0.08546
952.75470	0.08390
951.46893	0.08235
950.18316	0.08081
948.89739	0.07927
947.61163	0.07773
946.32586	0.07620
945.04009	0.07466
943.75432	0.07310
942.46855	0.07152
941.18278	0.06996
939.89701	0.06846
938.61124	0.06706
937.32547	0.06577
936.03971	0.06458
934.75394	0.06342
933.46817	0.06230
932.18240	0.06124
930.89663	0.06024
929.61086	0.05929
928.32509	0.05837
927.03932	0.05750
925.75356	0.05668
924.46779	0.05593
923.18202	0.05521
921.89625	0.05454
920.61048	0.05395
919.32471	0.05345
918.03894	0.05296
916.75317	0.05240
915.46740	0.05177
914.18164	0.05110
912.89587	0.05044
911.61010	0.04980
910.32433	0.04921
909.03856	0.04868
907.75279	0.04818
906.46702	0.04770
905.18125	0.04723
903.89549	0.04676
902.60972	0.04630
901.32395	0.04582
900.03818	0.04535
898.75241	0.04494
897.46664	0.04461
896.18087	0.04434
894.89510	0.04407
893.60933	0.04378
892.32357	0.04348
891.03780	0.04316
889.75203	0.04287
888.46626	0.04268
887.18049	0.04272
885.89472	0.04317
884.60895	0.04419
883.32318	0.04579
882.03742	0.04774
880.75165	0.04966
879.46588	0.05125
878.18011	0.05244
876.89434	0.05343
875.60857	0.05449
874.32280	0.05564
873.03703	0.05660
871.75126	0.05704
870.46550	0.05682
869.17973	0.05605
867.89396	0.05494
866.60819	0.05362
865.32242	0.05212
864.03665	0.05049
862.75088	0.04880
861.46511	0.04717
860.17935	0.04573
858.89358	0.04452
857.60781	0.04356
856.32204	0.04277
855.03627	0.04207
853.75050	0.04143
852.46473	0.04085
851.17896	0.04039
849.89319	0.04003
848.60743	0.03972
847.32166	0.03944
846.03589	0.03919
844.75012	0.03900
843.46435	0.03882
842.17858	0.03861
840.89281	0.03832
839.60704	0.03798
838.32128	0.03763
837.03551	0.03731
835.74974	0.03701
834.46397	0.03673
833.17820	0.03646
831.89243	0.03622
830.60666	0.03601
829.32089	0.03585
828.03512	0.03571
826.74936	0.03557
825.46359	0.03545
824.17782	0.03538
822.89205	0.03532
821.60628	0.03522
820.32051	0.03505
819.03474	0.03487
817.74897	0.03478
816.46321	0.03476
815.17744	0.03473
813.89167	0.03465
812.60590	0.03458
811.32013	0.03458
810.03436	0.03465
808.74859	0.03475
807.46282	0.03483
806.17705	0.03491
804.89129	0.03496
803.60552	0.03501
802.31975	0.03505
801.03398	0.03510
799.74821	0.03514
798.46244	0.03516
797.17667	0.03516
795.89090	0.03517
794.60513	0.03520
793.31937	0.03524
792.03360	0.03528
790.74783	0.03529
789.46206	0.03527
788.17629	0.03520
786.89052	0.03509
785.60475	0.03497
784.31898	0.03487
783.03322	0.03481
781.74745	0.03482
780.46168	0.03490
779.17591	0.03496
777.89014	0.03497
776.60437	0.03495
775.31860	0.03494
774.03283	0.03491
772.74706	0.03482
771.46130	0.03462
770.17553	0.03434
768.88976	0.03404
767.60399	0.03376
766.31822	0.03354
765.03245	0.03340
763.74668	0.03336
762.46091	0.03345
761.17515	0.03362
759.88938	0.03378
758.60361	0.03387
757.31784	0.03389
756.03207	0.03389
754.74630	0.03394
753.46053	0.03401
752.17476	0.03406
750.88899	0.03400
749.60323	0.03383
748.31746	0.03358
747.03169	0.03338
745.74592	0.03336
744.46015	0.03353
743.17438	0.03379
741.88861	0.03400
740.60284	0.03403
739.31708	0.03389
738.03131	0.03368
736.74554	0.03347
735.45977	0.03328
734.17400	0.03310
732.88823	0.03300
731.60246	0.03299
730.31669	0.03308
729.03092	0.03321
727.74516	0.03333
726.45939	0.03344
725.17362	0.03355
723.88785	0.03362
722.60208	0.03370
721.31631	0.03376
720.03054	0.03378
718.74477	0.03380
717.45901	0.03379
716.17324	0.03376
714.88747	0.03368
713.60170	0.03358
712.31593	0.03347
711.03016	0.03339
709.74439	0.03338
708.45862	0.03339
707.17285	0.03338
705.88709	0.03334
704.60132	0.03328
703.31555	0.03324
702.02978	0.03321
700.74401	0.03320
699.45824	0.03322
698.17247	0.03327
696.88670	0.03335
695.60094	0.03344
694.31517	0.03351
693.02940	0.03350
691.74363	0.03338
690.45786	0.03321
689.17209	0.03307
687.88632	0.03300
686.60055	0.03296
685.31478	0.03291
684.02902	0.03283
682.74325	0.03276
681.45748	0.03270
680.17171	0.03265
678.88594	0.03261
677.60017	0.03259
676.31440	0.03257
675.02863	0.03253
673.74287	0.03245
672.45710	0.03241
671.17133	0.03253
669.88556	0.03275
668.59979	0.03275
667.31402	0.03274
666.02825	0.03298
664.74248	0.03285
663.45671	0.03266
662.17095	0.03251
660.88518	0.03235
659.59941	0.03220
658.31364	0.03210
657.02787	0.03209
655.74210	0.03211
654.45633	0.03211
653.17056	0.03211
651.88480	0.03215
650.59903	0.03226
649.31326	0.03238
648.02749	0.03245
646.74172	0.03245
645.45595	0.03245
644.17018	0.03249
642.88441	0.03258
641.59864	0.03269
640.31288	0.03280
639.02711	0.03289
637.74134	0.03300
636.45557	0.03314
635.16980	0.03335
633.88403	0.03360
632.59826	0.03382
631.31249	0.03400
630.02673	0.03448
628.74096	0.03522
627.45519	0.03512
626.16942	0.03636
624.88365	0.03853
623.59788	0.04079
622.31211	0.04302
621.02634	0.04511
619.74057	0.04670
618.45481	0.04771
617.16904	0.04863
615.88327	0.04986
614.59750	0.05138
613.31173	0.05321
612.02596	0.05588
610.74019	0.05998
609.45442	0.06512
608.16866	0.07007
606.88289	0.07411
605.59712	0.07749
604.31135	0.08044
603.02558	0.08243
601.73981	0.08280
600.45404	0.08149
599.16827	0.07913
597.88250	0.07647
596.59674	0.07398
595.31097	0.07186
594.02520	0.07013
592.73943	0.06878
591.45366	0.06780
590.16789	0.06721
588.88212	0.06702
587.59635	0.06721
586.31059	0.06770
585.02482	0.06850
583.73905	0.06962
582.45328	0.07109
581.16751	0.07279
579.88174	0.07455
578.59597	0.07624
577.31020	0.07785
576.02443	0.07946
574.73867	0.08113
573.45290	0.08291
572.16713	0.08480
570.88136	0.08676
569.59559	0.08878
568.30982	0.09087
567.02405	0.09304
565.73828	0.09524
564.45251	0.09730
563.16675	0.09898
561.88098	0.09997
560.59521	0.09998
559.30944	0.09896
558.02367	0.09709
556.73790	0.09466
555.45213	0.09189
554.16636	0.08889
552.88060	0.08578
551.59483	0.08268
550.30906	0.07966
549.02329	0.07672
547.73752	0.07388
546.45175	0.07126
545.16598	0.06897
543.88021	0.06704
542.59444	0.06535
541.30868	0.06379
540.02291	0.06232
538.73714	0.06094
537.45137	0.05966
536.16560	0.05845
534.87983	0.05733
533.59406	0.05630
532.30829	0.05533
531.02253	0.05439
529.73676	0.05347
528.45099	0.05259
527.16522	0.05180
525.87945	0.05112
524.59368	0.05049
523.30791	0.04979
522.02214	0.04896
520.73637	0.04803
519.45061	0.04712
518.16484	0.04633
516.87907	0.04571
515.59330	0.04518
514.30753	0.04461
513.02176	0.04392
511.73599	0.04315
510.45022	0.04246
509.16446	0.04199
507.87869	0.04173
506.59292	0.04152
505.30715	0.04123
504.02138	0.04083
502.73561	0.04045
501.44984	0.04017
500.16407	0.04000
498.87830	0.03982
497.59254	0.03950
496.30677	0.03901
495.02100	0.03846
493.73523	0.03800
492.44946	0.03769
491.16369	0.03748
489.87792	0.03727
488.59215	0.03708
487.30639	0.03694
486.02062	0.03688
484.73485	0.03687
483.44908	0.03688
482.16331	0.03689
480.87754	0.03694
479.59177	0.03707
478.30600	0.03729
477.02023	0.03758
475.73447	0.03791
474.44870	0.03823
473.16293	0.03850
471.87716	0.03872
470.59139	0.03883
469.30562	0.03879
468.01985	0.03855
466.73408	0.03817
465.44832	0.03774
464.16255	0.03735
462.87678	0.03703
461.59101	0.03675
460.30524	0.03649
459.01947	0.03621
457.73370	0.03587
456.44793	0.03546
455.16216	0.03502
453.87640	0.03460
452.59063	0.03422
451.30486	0.03388
450.01909	0.03357
448.73332	0.03325
447.44755	0.03292
446.16178	0.03257
444.87601	0.03219
443.59025	0.03181
442.30448	0.03147
441.01871	0.03116
439.73294	0.03091
438.44717	0.03071
437.16140	0.03057
435.87563	0.03045
434.58986	0.03033
433.30409	0.03021
432.01833	0.03009
430.73256	0.02997
429.44679	0.02981
428.16102	0.02962
426.87525	0.02944
425.58948	0.02927
424.30371	0.02909
423.01794	0.02887
421.73218	0.02857
420.44641	0.02820
419.16064	0.02779
417.87487	0.02740
416.58910	0.02708
415.30333	0.02682
414.01756	0.02658
412.73179	0.02633
411.44602	0.02608
410.16026	0.02590
408.87449	0.02579
407.58872	0.02569
406.30295	0.02556
405.01718	0.02541
403.73141	0.02530
402.44564	0.02528
401.15987	0.02535
399.87411	0.02545
