3997.45528	0.03903
3996.16951	0.03900
3994.88374	0.03896
3993.59798	0.03907
3992.31221	0.03949
3991.02644	0.04017
3989.74067	0.04094
3988.45490	0.04168
3987.16913	0.04226
3985.88336	0.04238
3984.59759	0.04172
3983.31183	0.04046
3982.02606	0.03935
3980.74029	0.03908
3979.45452	0.03972
3978.16875	0.04068
3976.88298	0.04136
3975.59721	0.04154
3974.31144	0.04135
3973.02567	0.04112
3971.73991	0.04108
3970.45414	0.04118
3969.16837	0.04120
3967.88260	0.04104
3966.59683	0.04082
3965.31106	0.04061
3964.02529	0.04026
3962.73952	0.03967
3961.45376	0.03905
3960.16799	0.03876
3958.88222	0.03890
3957.59645	0.03920
3956.31068	0.03933
3955.02491	0.03933
3953.73914	0.03949
3952.45337	0.04005
3951.16760	0.04088
3949.88184	0.04157
3948.59607	0.04176
3947.31030	0.04140
3946.02453	0.04063
3944.73876	0.03956
3943.45299	0.03832
3942.16722	0.03718
3940.88145	0.03649
3939.59569	0.03644
3938.30992	0.03679
3937.02415	0.03715
3935.73838	0.03731
3934.45261	0.03743
3933.16684	0.03770
3931.88107	0.03808
3930.59530	0.03837
3929.30953	0.03857
3928.02377	0.03882
3926.73800	0.03903
3925.45223	0.03892
3924.16646	0.03849
3922.88069	0.03810
3921.59492	0.03813
3920.30915	0.03860
3919.02338	0.03916
3917.73762	0.03941
3916.45185	0.03908
3915.16608	0.03829
3913.88031	0.03750
3912.59454	0.03713
3911.30877	0.03717
3910.02300	0.03731
3908.73723	0.03740
3907.45146	0.03758
3906.16570	0.03788
3904.87993	0.03817
3903.59416	0.03834
3902.30839	0.03852
3901.02262	0.03889
3899.73685	0.03932
3898.45108	0.03938
3897.16531	0.03881
3895.87955	0.03785
3894.59378	0.03707
3893.30801	0.03690
3892.02224	0.03724
3890.73647	0.03767
3889.45070	0.03794
3888.16493	0.03806
3886.87916	0.03823
3885.59339	0.03858
3884.30763	0.03900
3883.02186	0.03923
3881.73609	0.03907
3880.45032	0.03869
3879.16455	0.03832
3877.87878	0.03796
3876.59301	0.03743
3875.30724	0.03681
3874.02148	0.03649
3872.73571	0.03672
3871.44994	0.03726
3870.16417	0.03767
3868.87840	0.03774
3867.59263	0.03759
3866.30686	0.03741
3865.02109	0.03723
3863.73532	0.03696
3862.44956	0.03667
3861.16379	0.03657
3859.87802	0.03668
3858.59225	0.03673
3857.30648	0.03651
3856.02071	0.03626
3854.73494	0.03639
3853.44917	0.03696
3852.16341	0.03760
3850.87764	0.03798
3849.59187	0.03812
3848.30610	0.03812
3847.02033	0.03800
3845.73456	0.03774
3844.44879	0.03733
3843.16302	0.03677
3841.87725	0.03607
3840.59149	0.03538
3839.30572	0.03493
3838.01995	0.03491
3836.73418	0.03532
3835.44841	0.03603
3834.16264	0.03676
3832.87687	0.03722
3831.59110	0.03722
3830.30534	0.03685
3829.01957	0.03644
3827.73380	0.03623
3826.44803	0.03623
3825.16226	0.03632
3823.87649	0.03653
3822.59072	0.03696
3821.30495	0.03761
3820.01918	0.03825
3818.73342	0.03863
3817.44765	0.03871
3816.16188	0.03864
3814.87611	0.03857
3813.59034	0.03849
3812.30457	0.03817
3811.01880	0.03749
3809.73303	0.03662
3808.44726	0.03584
3807.16150	0.03536
3805.87573	0.03523
3804.58996	0.03546
3803.30419	0.03604
3802.01842	0.03679
3800.73265	0.03737
3799.44688	0.03762
3798.16111	0.03770
3796.87535	0.03787
3795.58958	0.03818
3794.30381	0.03847
3793.01804	0.03856
3791.73227	0.03827
3790.44650	0.03759
3789.16073	0.03669
3787.87496	0.03587
3786.58919	0.03525
3785.30343	0.03479
3784.01766	0.03456
3782.73189	0.03479
3781.44612	0.03562
3780.16035	0.03672
3778.87458	0.03748
3777.58881	0.03746
3776.30304	0.03680
3775.01728	0.03603
3773.73151	0.03560
3772.44574	0.03566
3771.15997	0.03611
3769.87420	0.03669
3768.58843	0.03714
3767.30266	0.03731
3766.01689	0.03718
3764.73112	0.03679
3763.44536	0.03623
3762.15959	0.03574
3760.87382	0.03553
3759.58805	0.03564
3758.30228	0.03588
3757.01651	0.03612
3755.73074	0.03634
3754.44497	0.03651
3753.15921	0.03646
3751.87344	0.03605
3750.58767	0.03546
3749.30190	0.03500
3748.01613	0.03477
3746.73036	0.03452
3745.44459	0.03397
3744.15882	0.03324
3742.87305	0.03287
3741.58729	0.03325
3740.30152	0.03423
3739.01575	0.03532
3737.72998	0.03612
3736.44421	0.03649
3735.15844	0.03645
3733.87267	0.03598
3732.58690	0.03513
3731.30114	0.03406
3730.01537	0.03303
3728.72960	0.03223
3727.44383	0.03173
3726.15806	0.03161
3724.87229	0.03186
3723.58652	0.03231
3722.30075	0.03265
3721.01498	0.03265
3719.72922	0.03244
3718.44345	0.03247
3717.15768	0.03304
3715.87191	0.03395
3714.58614	0.03459
3713.30037	0.03453
3712.01460	0.03401
3710.72883	0.03366
3709.44307	0.03398
3708.15730	0.03483
3706.87153	0.03552
3705.58576	0.03543
3704.29999	0.03470
3703.01422	0.03406
3701.72845	0.03408
3700.44268	0.03453
3699.15691	0.03464
3697.87115	0.03393
3696.58538	0.03266
3695.29961	0.03154
3694.01384	0.03115
3692.72807	0.03157
3691.44230	0.03244
3690.15653	0.03327
3688.87076	0.03376
3687.58500	0.03397
3686.29923	0.03413
3685.01346	0.03438
3683.72769	0.03468
3682.44192	0.03493
3681.15615	0.03503
3679.87038	0.03490
3678.58461	0.03453
3677.29884	0.03417
3676.01308	0.03407
3674.72731	0.03425
3673.44154	0.03453
3672.15577	0.03480
3670.87000	0.03510
3669.58423	0.03536
3668.29846	0.03536
3667.01269	0.03498
3665.72693	0.03440
3664.44116	0.03386
3663.15539	0.03342
3661.86962	0.03309
3660.58385	0.03297
3659.29808	0.03313
3658.01231	0.03343
3656.72654	0.03361
3655.44077	0.03366
3654.15501	0.03377
3652.86924	0.03405
3651.58347	0.03442
3650.29770	0.03470
3649.01193	0.03487
3647.72616	0.03506
3646.44039	0.03536
3645.15462	0.03573
3643.86886	0.03605
3642.58309	0.03625
3641.29732	0.03640
3640.01155	0.03661
3638.72578	0.03696
3637.44001	0.03741
3636.15424	0.03778
3634.86847	0.03785
3633.58270	0.03750
3632.29694	0.03686
3631.01117	0.03625
3629.72540	0.03601
3628.43963	0.03624
3627.15386	0.03670
3625.86809	0.03711
3624.58232	0.03744
3623.29655	0.03785
3622.01079	0.03842
3620.72502	0.03900
3619.43925	0.03945
3618.15348	0.03969
3616.86771	0.03965
3615.58194	0.03930
3614.29617	0.03892
3613.01040	0.03890
3611.72463	0.03939
3610.43887	0.04004
3609.15310	0.04052
3607.86733	0.04084
3606.58156	0.04115
3605.29579	0.04150
3604.01002	0.04180
3602.72425	0.04206
3601.43848	0.04236
3600.15272	0.04256
3598.86695	0.04233
3597.58118	0.04156
3596.29541	0.04064
3595.00964	0.04028
3593.72387	0.04094
3592.43810	0.04235
3591.15233	0.04372
3589.86656	0.04445
3588.58080	0.04454
3587.29503	0.04441
3586.00926	0.04442
3584.72349	0.04461
3583.43772	0.04491
3582.15195	0.04523
3580.86618	0.04549
3579.58041	0.04564
3578.29464	0.04569
3577.00888	0.04565
3575.72311	0.04560
3574.43734	0.04570
3573.15157	0.04618
3571.86580	0.04710
3570.58003	0.04826
3569.29426	0.04933
3568.00849	0.05009
3566.72273	0.05040
3565.43696	0.05019
3564.15119	0.04945
3562.86542	0.04842
3561.57965	0.04750
3560.29388	0.04700
3559.00811	0.04696
3557.72234	0.04719
3556.43657	0.04745
3555.15081	0.04756
3553.86504	0.04750
3552.57927	0.04734
3551.29350	0.04716
3550.00773	0.04701
3548.72196	0.04702
3547.43619	0.04742
3546.15042	0.04830
3544.86466	0.04953
3543.57889	0.05075
3542.29312	0.05171
3541.00735	0.05235
3539.72158	0.05268
3538.43581	0.05262
3537.15004	0.05216
3535.86427	0.05151
3534.57850	0.05103
3533.29274	0.05095
3532.00697	0.05117
3530.72120	0.05140
3529.43543	0.05144
3528.14966	0.05135
3526.86389	0.05133
3525.57812	0.05155
3524.29235	0.05204
3523.00659	0.05268
3521.72082	0.05325
3520.43505	0.05354
3519.14928	0.05342
3517.86351	0.05290
3516.57774	0.05226
3515.29197	0.05194
3514.00620	0.05230
3512.72043	0.05318
3511.43467	0.05397
3510.14890	0.05419
3508.86313	0.05388
3507.57736	0.05358
3506.29159	0.05383
3505.00582	0.05467
3503.72005	0.05569
3502.43428	0.05632
3501.14852	0.05628
3499.86275	0.05570
3498.57698	0.05507
3497.29121	0.05486
3496.00544	0.05529
3494.71967	0.05616
3493.43390	0.05700
3492.14813	0.05744
3490.86236	0.05743
3489.57660	0.05721
3488.29083	0.05704
3487.00506	0.05696
3485.71929	0.05692
3484.43352	0.05686
3483.14775	0.05686
3481.86198	0.05697
3480.57621	0.05721
3479.29045	0.05758
3478.00468	0.05807
3476.71891	0.05865
3475.43314	0.05920
3474.14737	0.05952
3472.86160	0.05943
3471.57583	0.05899
3470.29006	0.05840
3469.00429	0.05798
3467.71853	0.05790
3466.43276	0.05818
3465.14699	0.05868
3463.86122	0.05921
3462.57545	0.05971
3461.28968	0.06022
3460.00391	0.06079
3458.71814	0.06131
3457.43238	0.06155
3456.14661	0.06139
3454.86084	0.06096
3453.57507	0.06057
3452.28930	0.06047
3451.00353	0.06063
3449.71776	0.06085
3448.43199	0.06097
3447.14622	0.06105
3445.86046	0.06129
3444.57469	0.06178
3443.28892	0.06240
3442.00315	0.06285
3440.71738	0.06298
3439.43161	0.06293
3438.14584	0.06296
3436.86007	0.06306
3435.57431	0.06306
3434.28854	0.06288
3433.00277	0.06265
3431.71700	0.06248
3430.43123	0.06238
3429.14546	0.06235
3427.85969	0.06243
3426.57392	0.06263
3425.28815	0.06283
3424.00239	0.06293
3422.71662	0.06287
3421.43085	0.06263
3420.14508	0.06226
3418.85931	0.06198
3417.57354	0.06214
3416.28777	0.06286
3415.00200	0.06385
3413.71624	0.06454
3412.43047	0.06454
3411.14470	0.06391
3409.85893	0.06303
3408.57316	0.06229
3407.28739	0.06199
3406.00162	0.06228
3404.71585	0.06308
3403.43008	0.06410
3402.14432	0.06492
3400.85855	0.06532
3399.57278	0.06539
3398.28701	0.06536
3397.00124	0.06533
3395.71547	0.06528
3394.42970	0.06526
3393.14393	0.06546
3391.85817	0.06594
3390.57240	0.06644
3389.28663	0.06661
3388.00086	0.06636
3386.71509	0.06596
3385.42932	0.06567
3384.14355	0.06558
3382.85778	0.06565
3381.57201	0.06582
3380.28625	0.06604
3379.00048	0.06621
3377.71471	0.06618
3376.42894	0.06591
3375.14317	0.06547
3373.85740	0.06499
3372.57163	0.06465
3371.28586	0.06467
3370.00010	0.06515
3368.71433	0.06590
3367.42856	0.06655
3366.14279	0.06679
3364.85702	0.06661
3363.57125	0.06626
3362.28548	0.06601
3360.99971	0.06590
3359.71394	0.06581
3358.42818	0.06571
3357.14241	0.06576
3355.85664	0.06608
3354.57087	0.06658
3353.28510	0.06703
3351.99933	0.06732
3350.71356	0.06742
3349.42779	0.06740
3348.14202	0.06725
3346.85626	0.06705
3345.57049	0.06691
3344.28472	0.06688
3342.99895	0.06692
3341.71318	0.06697
3340.42741	0.06700
3339.14164	0.06703
3337.85587	0.06709
3336.57011	0.06718
3335.28434	0.06729
3333.99857	0.06737
3332.71280	0.06739
3331.42703	0.06740
3330.14126	0.06747
3328.85549	0.06749
3327.56972	0.06729
3326.28395	0.06677
3324.99819	0.06607
3323.71242	0.06545
3322.42665	0.06509
3321.14088	0.06505
3319.85511	0.06530
3318.56934	0.06570
3317.28357	0.06608
3315.99780	0.06631
3314.71204	0.06634
3313.42627	0.06616
3312.14050	0.06585
3310.85473	0.06557
3309.56896	0.06543
3308.28319	0.06549
3306.99742	0.06565
3305.71165	0.06569
3304.42588	0.06540
3303.14012	0.06488
3301.85435	0.06450
3300.56858	0.06459
3299.28281	0.06512
3297.99704	0.06568
3296.71127	0.06591
3295.42550	0.06578
3294.13973	0.06560
3292.85397	0.06568
3291.56820	0.06603
3290.28243	0.06635
3288.99666	0.06638
3287.71089	0.06614
3286.42512	0.06582
3285.13935	0.06548
3283.85358	0.06514
3282.56781	0.06480
3281.28205	0.06457
3279.99628	0.06460
3278.71051	0.06491
3277.42474	0.06542
3276.13897	0.06591
3274.85320	0.06617
3273.56743	0.06606
3272.28166	0.06566
3270.99590	0.06517
3269.71013	0.06481
3268.42436	0.06465
3267.13859	0.06462
3265.85282	0.06452
3264.56705	0.06424
3263.28128	0.06380
3261.99551	0.06339
3260.70974	0.06316
3259.42398	0.06319
3258.13821	0.06343
3256.85244	0.06382
3255.56667	0.06424
3254.28090	0.06452
3252.99513	0.06454
3251.70936	0.06438
3250.42359	0.06423
3249.13783	0.06424
3247.85206	0.06436
3246.56629	0.06449
3245.28052	0.06456
3243.99475	0.06455
3242.70898	0.06440
3241.42321	0.06404
3240.13744	0.06353
3238.85167	0.06308
3237.56591	0.06293
3236.28014	0.06312
3234.99437	0.06345
3233.70860	0.06356
3232.42283	0.06337
3231.13706	0.06307
3229.85129	0.06292
3228.56552	0.06296
3227.27976	0.06309
3225.99399	0.06322
3224.70822	0.06334
3223.42245	0.06343
3222.13668	0.06339
3220.85091	0.06321
3219.56514	0.06295
3218.27937	0.06271
3216.99360	0.06262
3215.70784	0.06274
3214.42207	0.06297
3213.13630	0.06311
3211.85053	0.06301
3210.56476	0.06276
3209.27899	0.06251
3207.99322	0.06230
3206.70745	0.06210
3205.42169	0.06199
3204.13592	0.06209
3202.85015	0.06237
3201.56438	0.06265
3200.27861	0.06269
3198.99284	0.06243
3197.70707	0.06197
3196.42130	0.06152
3195.13553	0.06127
3193.84977	0.06129
3192.56400	0.06141
3191.27823	0.06141
3189.99246	0.06119
3188.70669	0.06091
3187.42092	0.06075
3186.13515	0.06069
3184.84938	0.06059
3183.56362	0.06046
3182.27785	0.06046
3180.99208	0.06070
3179.70631	0.06108
3178.42054	0.06129
3177.13477	0.06106
3175.84900	0.06040
3174.56323	0.05968
3173.27746	0.05931
3171.99170	0.05951
3170.70593	0.06007
3169.42016	0.06057
3168.13439	0.06071
3166.84862	0.06049
3165.56285	0.06017
3164.27708	0.05997
3162.99131	0.05991
3161.70555	0.05982
3160.41978	0.05957
3159.13401	0.05921
3157.84824	0.05893
3156.56247	0.05883
3155.27670	0.05887
3153.99093	0.05892
3152.70516	0.05895
3151.41939	0.05903
3150.13363	0.05917
3148.84786	0.05923
3147.56209	0.05912
3146.27632	0.05886
3144.99055	0.05862
3143.70478	0.05846
3142.41901	0.05829
3141.13324	0.05799
3139.84748	0.05753
3138.56171	0.05702
3137.27594	0.05664
3135.99017	0.05651
3134.70440	0.05665
3133.41863	0.05698
3132.13286	0.05736
3130.84709	0.05762
3129.56132	0.05764
3128.27556	0.05744
3126.98979	0.05710
3125.70402	0.05676
3124.41825	0.05651
3123.13248	0.05639
3121.84671	0.05637
3120.56094	0.05641
3119.27517	0.05647
3117.98940	0.05657
3116.70364	0.05674
3115.41787	0.05692
3114.13210	0.05704
3112.84633	0.05702
3111.56056	0.05680
3110.27479	0.05640
3108.98902	0.05592
3107.70325	0.05554
3106.41749	0.05546
3105.13172	0.05575
3103.84595	0.05627
3102.56018	0.05673
3101.27441	0.05691
3099.98864	0.05678
3098.70287	0.05649
3097.41710	0.05617
3096.13133	0.05588
3094.84557	0.05562
3093.55980	0.05535
3092.27403	0.05507
3090.98826	0.05481
3089.70249	0.05468
3088.41672	0.05470
3087.13095	0.05475
3085.84518	0.05467
3084.55942	0.05445
3083.27365	0.05426
3081.98788	0.05428
3080.70211	0.05449
3079.41634	0.05473
3078.13057	0.05488
3076.84480	0.05496
3075.55903	0.05503
3074.27326	0.05504
3072.98750	0.05483
3071.70173	0.05439
3070.41596	0.05401
3069.13019	0.05399
3067.84442	0.05430
3066.55865	0.05458
3065.27288	0.05448
3063.98711	0.05404
3062.70135	0.05359
3061.41558	0.05334
3060.12981	0.05324
3058.84404	0.05306
3057.55827	0.05277
3056.27250	0.05251
3054.98673	0.05248
3053.70096	0.05269
3052.41519	0.05304
3051.12943	0.05337
3049.84366	0.05358
3048.55789	0.05359
3047.27212	0.05345
3045.98635	0.05330
3044.70058	0.05325
3043.41481	0.05322
3042.12904	0.05306
3040.84328	0.05270
3039.55751	0.05227
3038.27174	0.05195
3036.98597	0.05180
3035.70020	0.05170
3034.41443	0.05159
3033.12866	0.05155
3031.84289	0.05165
3030.55712	0.05181
3029.27136	0.05191
3027.98559	0.05191
3026.69982	0.05189
3025.41405	0.05188
3024.12828	0.05182
3022.84251	0.05163
3021.55674	0.05136
3020.27097	0.05115
3018.98521	0.05110
3017.69944	0.05113
3016.41367	0.05106
3015.12790	0.05080
3013.84213	0.05046
3012.55636	0.05027
3011.27059	0.05030
3009.98482	0.05048
3008.69905	0.05064
3007.41329	0.05065
3006.12752	0.05048
3004.84175	0.05021
3003.55598	0.04994
3002.27021	0.04974
3000.98444	0.04964
2999.69867	0.04970
2998.41290	0.04996
2997.12714	0.05033
2995.84137	0.05060
2994.55560	0.05065
2993.26983	0.05058
2991.98406	0.05052
2990.69829	0.05047
2989.41252	0.05036
2988.12675	0.05013
2986.84098	0.04981
2985.55522	0.04952
2984.26945	0.04943
2982.98368	0.04964
2981.69791	0.05004
2980.41214	0.05043
2979.12637	0.05064
2977.84060	0.05066
2976.55483	0.05065
2975.26907	0.05082
2973.98330	0.05124
2972.69753	0.05187
2971.41176	0.05254
2970.12599	0.05312
2968.84022	0.05355
2967.55445	0.05393
2966.26868	0.05443
2964.98291	0.05512
2963.69715	0.05583
2962.41138	0.05628
2961.12561	0.05637
2959.83984	0.05632
2958.55407	0.05646
2957.26830	0.05698
2955.98253	0.05775
2954.69676	0.05846
2953.41100	0.05891
2952.12523	0.05916
2950.83946	0.05930
2949.55369	0.05927
2948.26792	0.05901
2946.98215	0.05861
2945.69638	0.05827
2944.41061	0.05813
2943.12484	0.05815
2941.83908	0.05820
2940.55331	0.05820
2939.26754	0.05817
2937.98177	0.05822
2936.69600	0.05843
2935.41023	0.05884
2934.12446	0.05941
2932.83869	0.06007
2931.55293	0.06069
2930.26716	0.06113
2928.98139	0.06134
2927.69562	0.06145
2926.40985	0.06161
2925.12408	0.06185
2923.83831	0.06199
2922.55254	0.06186
2921.26677	0.06147
2919.98101	0.06098
2918.69524	0.06057
2917.40947	0.06023
2916.12370	0.05988
2914.83793	0.05945
2913.55216	0.05901
2912.26639	0.05863
2910.98062	0.05834
2909.69486	0.05804
2908.40909	0.05763
2907.12332	0.05712
2905.83755	0.05663
2904.55178	0.05624
2903.26601	0.05587
2901.98024	0.05539
2900.69447	0.05486
2899.40870	0.05448
2898.12294	0.05435
2896.83717	0.05435
2895.55140	0.05427
2894.26563	0.05402
2892.97986	0.05368
2891.69409	0.05334
2890.40832	0.05308
2889.12255	0.05288
2887.83678	0.05269
2886.55102	0.05246
2885.26525	0.05221
2883.97948	0.05196
2882.69371	0.05169
2881.40794	0.05142
2880.12217	0.05123
2878.83640	0.05121
2877.55063	0.05137
2876.26487	0.05161
2874.97910	0.05189
2873.69333	0.05218
2872.40756	0.05241
2871.12179	0.05245
2869.83602	0.05227
2868.55025	0.05196
2867.26448	0.05168
2865.97871	0.05155
2864.69295	0.05154
2863.40718	0.05155
2862.12141	0.05149
2860.83564	0.05135
2859.54987	0.05115
2858.26410	0.05094
2856.97833	0.05078
2855.69256	0.05075
2854.40680	0.05089
2853.12103	0.05109
2851.83526	0.05112
2850.54949	0.05085
2849.26372	0.05035
2847.97795	0.04980
2846.69218	0.04930
2845.40641	0.04893
2844.12064	0.04874
2842.83488	0.04870
2841.54911	0.04864
2840.26334	0.04837
2838.97757	0.04785
2837.69180	0.04721
2836.40603	0.04661
2835.12026	0.04610
2833.83449	0.04565
2832.54873	0.04520
2831.26296	0.04474
2829.97719	0.04430
2828.69142	0.04389
2827.40565	0.04352
2826.11988	0.04329
2824.83411	0.04327
2823.54834	0.04338
2822.26257	0.04343
2820.97681	0.04330
2819.69104	0.04306
2818.40527	0.04287
2817.11950	0.04278
2815.83373	0.04270
2814.54796	0.04249
2813.26219	0.04216
2811.97642	0.04180
2810.69066	0.04155
2809.40489	0.04148
2808.11912	0.04154
2806.83335	0.04164
2805.54758	0.04164
2804.26181	0.04147
2802.97604	0.04117
2801.69027	0.04089
2800.40450	0.04075
2799.11874	0.04071
2797.83297	0.04062
2796.54720	0.04041
2795.26143	0.04017
2793.97566	0.04002
2792.68989	0.03994
2791.40412	0.03982
2790.11835	0.03965
2788.83259	0.03947
2787.54682	0.03932
2786.26105	0.03917
2784.97528	0.03905
2783.68951	0.03908
2782.40374	0.03929
2781.11797	0.03954
2779.83220	0.03963
2778.54643	0.03947
2777.26067	0.03920
2775.97490	0.03897
2774.68913	0.03882
2773.40336	0.03866
2772.11759	0.03845
2770.83182	0.03825
2769.54605	0.03814
2768.26028	0.03813
2766.97452	0.03814
2765.68875	0.03813
2764.40298	0.03812
2763.11721	0.03816
2761.83144	0.03825
2760.54567	0.03833
2759.25990	0.03835
2757.97413	0.03833
2756.68836	0.03831
2755.40260	0.03833
2754.11683	0.03839
2752.83106	0.03840
2751.54529	0.03826
2750.25952	0.03802
2748.97375	0.03781
2747.68798	0.03772
2746.40221	0.03768
2745.11645	0.03763
2743.83068	0.03757
2742.54491	0.03754
2741.25914	0.03758
2739.97337	0.03769
2738.68760	0.03782
2737.40183	0.03785
2736.11606	0.03773
2734.83029	0.03753
2733.54453	0.03739
2732.25876	0.03735
2730.97299	0.03737
2729.68722	0.03736
2728.40145	0.03724
2727.11568	0.03702
2725.82991	0.03673
2724.54414	0.03651
2723.25838	0.03646
2721.97261	0.03653
2720.68684	0.03657
2719.40107	0.03644
2718.11530	0.03617
2716.82953	0.03588
2715.54376	0.03570
2714.25799	0.03573
2712.97222	0.03594
2711.68646	0.03618
2710.40069	0.03626
2709.11492	0.03608
2707.82915	0.03577
2706.54338	0.03550
2705.25761	0.03537
2703.97184	0.03535
2702.68607	0.03537
2701.40031	0.03532
2700.11454	0.03520
2698.82877	0.03509
2697.54300	0.03506
2696.25723	0.03510
2694.97146	0.03517
2693.68569	0.03521
2692.39992	0.03520
2691.11415	0.03514
2689.82839	0.03508
2688.54262	0.03507
2687.25685	0.03508
2685.97108	0.03506
2684.68531	0.03502
2683.39954	0.03499
2682.11377	0.03502
2680.82800	0.03512
2679.54224	0.03519
2678.25647	0.03513
2676.97070	0.03496
2675.68493	0.03484
2674.39916	0.03484
2673.11339	0.03490
2671.82762	0.03490
2670.54185	0.03475
2669.25608	0.03447
2667.97032	0.03417
2666.68455	0.03397
2665.39878	0.03391
2664.11301	0.03400
2662.82724	0.03416
2661.54147	0.03430
2660.25570	0.03430
2658.96993	0.03414
2657.68417	0.03386
2656.39840	0.03358
2655.11263	0.03343
2653.82686	0.03349
2652.54109	0.03367
2651.25532	0.03384
2649.96955	0.03388
2648.68378	0.03380
2647.39801	0.03363
2646.11225	0.03345
2644.82648	0.03332
2643.54071	0.03326
2642.25494	0.03320
2640.96917	0.03305
2639.68340	0.03272
2638.39763	0.03229
2637.11186	0.03193
2635.82609	0.03185
2634.54033	0.03200
2633.25456	0.03217
2631.96879	0.03216
2630.68302	0.03193
2629.39725	0.03162
2628.11148	0.03139
2626.82571	0.03127
2625.53994	0.03118
2624.25418	0.03099
2622.96841	0.03065
2621.68264	0.03023
2620.39687	0.02984
2619.11110	0.02961
2617.82533	0.02963
2616.53956	0.02996
2615.25379	0.03051
2613.96802	0.03100
2612.68226	0.03106
2611.39649	0.03059
2610.11072	0.02986
2608.82495	0.02930
2607.53918	0.02912
2606.25341	0.02916
2604.96764	0.02915
2603.68187	0.02895
2602.39611	0.02862
2601.11034	0.02833
2599.82457	0.02817
2598.53880	0.02811
2597.25303	0.02813
2595.96726	0.02825
2594.68149	0.02845
2593.39572	0.02855
2592.10995	0.02839
2590.82419	0.02806
2589.53842	0.02778
2588.25265	0.02761
2586.96688	0.02756
2585.68111	0.02761
2584.39534	0.02775
2583.10957	0.02782
2581.82380	0.02767
2580.53804	0.02737
2579.25227	0.02711
2577.96650	0.02708
2576.68073	0.02730
2575.39496	0.02763
2574.10919	0.02781
2572.82342	0.02754
2571.53765	0.02685
2570.25188	0.02614
2568.96612	0.02589
2567.68035	0.02619
2566.39458	0.02669
2565.10881	0.02701
2563.82304	0.02711
2562.53727	0.02714
2561.25150	0.02710
2559.96573	0.02691
2558.67997	0.02655
2557.39420	0.02612
2556.10843	0.02566
2554.82266	0.02525
2553.53689	0.02499
2552.25112	0.02498
2550.96535	0.02517
2549.67958	0.02541
2548.39381	0.02553
2547.10805	0.02553
2545.82228	0.02556
2544.53651	0.02576
2543.25074	0.02604
2541.96497	0.02624
2540.67920	0.02627
2539.39343	0.02622
2538.10766	0.02617
2536.82190	0.02611
2535.53613	0.02594
2534.25036	0.02564
2532.96459	0.02531
2531.67882	0.02509
2530.39305	0.02504
2529.10728	0.02511
2527.82151	0.02522
2526.53574	0.02531
2525.24998	0.02538
2523.96421	0.02547
2522.67844	0.02560
2521.39267	0.02565
2520.10690	0.02544
2518.82113	0.02494
2517.53536	0.02442
2516.24959	0.02417
2514.96383	0.02416
2513.67806	0.02421
2512.39229	0.02429
2511.10652	0.02443
2509.82075	0.02452
2508.53498	0.02436
2507.24921	0.02397
2505.96344	0.02361
2504.67767	0.02349
2503.39191	0.02351
2502.10614	0.02350
2500.82037	0.02345
2499.53460	0.02345
2498.24883	0.02356
2496.96306	0.02376
2495.67729	0.02399
2494.39152	0.02414
2493.10576	0.02410
2491.81999	0.02389
2490.53422	0.02357
2489.24845	0.02322
2487.96268	0.02289
2486.67691	0.02272
2485.39114	0.02288
2484.10537	0.02335
2482.81960	0.02389
2481.53384	0.02426
2480.24807	0.02435
2478.96230	0.02423
2477.67653	0.02401
2476.39076	0.02380
2475.10499	0.02362
2473.81922	0.02345
2472.53345	0.02324
2471.24769	0.02303
2469.96192	0.02290
2468.67615	0.02291
2467.39038	0.02308
2466.10461	0.02341
2464.81884	0.02388
2463.53307	0.02433
2462.24730	0.02450
2460.96153	0.02423
2459.67577	0.02368
2458.39000	0.02314
2457.10423	0.02290
2455.81846	0.02306
2454.53269	0.02350
2453.24692	0.02399
2451.96115	0.02429
2450.67538	0.02436
2449.38962	0.02427
2448.10385	0.02409
2446.81808	0.02383
2445.53231	0.02355
2444.24654	0.02332
2442.96077	0.02319
2441.67500	0.02315
2440.38923	0.02318
2439.10346	0.02318
2437.81770	0.02304
2436.53193	0.02281
2435.24616	0.02266
2433.96039	0.02273
2432.67462	0.02295
2431.38885	0.02312
2430.10308	0.02312
2428.81731	0.02299
2427.53155	0.02285
2426.24578	0.02281
2424.96001	0.02288
2423.67424	0.02301
2422.38847	0.02309
2421.10270	0.02303
2419.81693	0.02278
2418.53116	0.02245
2417.24539	0.02218
2415.95963	0.02213
2414.67386	0.02235
2413.38809	0.02276
2412.10232	0.02309
2410.81655	0.02315
2409.53078	0.02293
2408.24501	0.02268
2406.95924	0.02257
2405.67347	0.02259
2404.38771	0.02265
2403.10194	0.02274
2401.81617	0.02289
2400.53040	0.02296
2399.24463	0.02278
2397.95886	0.02250
2396.67309	0.02233
2395.38732	0.02239
2394.10156	0.02259
2392.81579	0.02275
2391.53002	0.02276
2390.24425	0.02266
2388.95848	0.02258
2387.67271	0.02262
2386.38694	0.02279
2385.10117	0.02293
2383.81540	0.02290
2382.52964	0.02271
2381.24387	0.02253
2379.95810	0.02251
2378.67233	0.02264
2377.38656	0.02282
2376.10079	0.02296
2374.81502	0.02306
2373.52925	0.02306
2372.24349	0.02292
2370.95772	0.02267
2369.67195	0.02244
2368.38618	0.02235
2367.10041	0.02242
2365.81464	0.02256
2364.52887	0.02265
2363.24310	0.02267
2361.95733	0.02267
2360.67157	0.02263
2359.38580	0.02255
2358.10003	0.02248
2356.81426	0.02251
2355.52849	0.02274
2354.24272	0.02313
2352.95695	0.02356
2351.67118	0.02386
2350.38542	0.02393
2349.09965	0.02376
2347.81388	0.02349
2346.52811	0.02334
2345.24234	0.02343
2343.95657	0.02367
2342.67080	0.02384
2341.38503	0.02381
2340.09926	0.02364
2338.81350	0.02346
2337.52773	0.02343
2336.24196	0.02347
2334.95619	0.02348
2333.67042	0.02339
2332.38465	0.02322
2331.09888	0.02311
2329.81311	0.02321
2328.52735	0.02355
2327.24158	0.02413
2325.95581	0.02473
2324.67004	0.02509
2323.38427	0.02506
2322.09850	0.02472
2320.81273	0.02427
2319.52696	0.02391
2318.24119	0.02366
2316.95543	0.02345
2315.66966	0.02327
2314.38389	0.02312
2313.09812	0.02304
2311.81235	0.02300
2310.52658	0.02291
2309.24081	0.02272
2307.95504	0.02248
2306.66928	0.02227
2305.38351	0.02216
2304.09774	0.02214
2302.81197	0.02211
2301.52620	0.02199
2300.24043	0.02168
2298.95466	0.02117
2297.66889	0.02060
2296.38312	0.02021
2295.09736	0.02026
2293.81159	0.02071
2292.52582	0.02129
2291.24005	0.02164
2289.95428	0.02156
2288.66851	0.02111
2287.38274	0.02050
2286.09697	0.01994
2284.81121	0.01953
2283.52544	0.01921
2282.23967	0.01889
2280.95390	0.01866
2279.66813	0.01873
2278.38236	0.01922
2277.09659	0.01994
2275.81082	0.02052
2274.52505	0.02076
2273.23929	0.02068
2271.95352	0.02031
2270.66775	0.01957
2269.38198	0.01854
2268.09621	0.01757
2266.81044	0.01710
2265.52467	0.01716
2264.23890	0.01729
2262.95314	0.01706
2261.66737	0.01655
2260.38160	0.01621
2259.09583	0.01627
2257.81006	0.01647
2256.52429	0.01648
2255.23852	0.01624
2253.95275	0.01597
2252.66698	0.01581
2251.38122	0.01572
2250.09545	0.01558
2248.80968	0.01533
2247.52391	0.01496
2246.23814	0.01488
2244.95237	0.01528
2243.66660	0.01592
2242.38083	0.01623
2241.09507	0.01588
2239.80930	0.01510
2238.52353	0.01443
2237.23776	0.01428
2235.95199	0.01465
2234.66622	0.01517
2233.38045	0.01548
2232.09468	0.01540
2230.80891	0.01491
2229.52315	0.01401
2228.23738	0.01288
2226.95161	0.01203
2225.66584	0.01199
2224.38007	0.01270
2223.09430	0.01340
2221.80853	0.01345
2220.52276	0.01296
2219.23700	0.01257
2217.95123	0.01271
2216.66546	0.01327
2215.37969	0.01375
2214.09392	0.01369
2212.80815	0.01297
2211.52238	0.01214
2210.23661	0.01192
2208.95084	0.01239
2207.66508	0.01267
2206.37931	0.01203
2205.09354	0.01084
2203.80777	0.01019
2202.52200	0.01054
2201.23623	0.01131
2199.95046	0.01179
2198.66469	0.01192
2197.37893	0.01183
2196.09316	0.01137
2194.80739	0.01031
2193.52162	0.00895
2192.23585	0.00802
2190.95008	0.00797
2189.66431	0.00858
2188.37854	0.00924
2187.09277	0.00942
2185.80701	0.00900
2184.52124	0.00831
2183.23547	0.00789
2181.94970	0.00804
2180.66393	0.00856
2179.37816	0.00921
2178.09239	0.00993
2176.80662	0.01064
2175.52085	0.01106
2174.23509	0.01100
2172.94932	0.01067
2171.66355	0.01035
2170.37778	0.01013
2169.09201	0.00999
2167.80624	0.00992
2166.52047	0.00977
2165.23470	0.00915
2163.94894	0.00784
2162.66317	0.00622
2161.37740	0.00510
2160.09163	0.00490
2158.80586	0.00519
2157.52009	0.00523
2156.23432	0.00493
2154.94855	0.00469
2153.66278	0.00474
2152.37702	0.00488
2151.09125	0.00499
2149.80548	0.00526
2148.51971	0.00587
2147.23394	0.00663
2145.94817	0.00715
2144.66240	0.00729
2143.37663	0.00724
2142.09087	0.00715
2140.80510	0.00701
2139.51933	0.00687
2138.23356	0.00691
2136.94779	0.00729
2135.66202	0.00786
2134.37625	0.00833
2133.09048	0.00859
2131.80471	0.00873
2130.51895	0.00886
2129.23318	0.00908
2127.94741	0.00945
2126.66164	0.00997
2125.37587	0.01055
2124.09010	0.01110
2122.80433	0.01166
2121.51856	0.01228
2120.23280	0.01284
2118.94703	0.01309
2117.66126	0.01291
2116.37549	0.01247
2115.08972	0.01210
2113.80395	0.01202
2112.51818	0.01228
2111.23241	0.01278
2109.94664	0.01318
2108.66088	0.01302
2107.37511	0.01213
2106.08934	0.01094
2104.80357	0.01017
2103.51780	0.01011
2102.23203	0.01047
2100.94626	0.01079
2099.66049	0.01027
2098.37473	0.00967
2097.08896	0.00914
2095.80319	0.00880
2094.51742	0.00890
2093.23165	0.00948
2091.94588	0.01027
2090.66011	0.01092
2089.37434	0.01122
2088.08857	0.01116
2086.80281	0.01087
2085.51704	0.01058
2084.23127	0.01043
2082.94550	0.01044
2081.65973	0.01046
2080.37396	0.01035
2079.08819	0.01007
2077.80242	0.00975
2076.51666	0.00945
2075.23089	0.00913
2073.94512	0.00871
2072.65935	0.00830
2071.37358	0.00820
2070.08781	0.00853
2068.80204	0.00905
2067.51627	0.00930
2066.23050	0.00903
2064.94474	0.00843
2063.65897	0.00788
2062.37320	0.00764
2061.08743	0.00768
2059.80166	0.00781
2058.51589	0.00780
2057.23012	0.00761
2055.94435	0.00746
2054.65859	0.00764
2053.37282	0.00817
2052.08705	0.00864
2050.80128	0.00859
2049.51551	0.00802
2048.22974	0.00737
2046.94397	0.00700
2045.65820	0.00678
2044.37243	0.00636
2043.08667	0.00568
2041.80090	0.00498
2040.51513	0.00443
2039.22936	0.00383
2037.94359	0.00282
2036.65782	0.00148
2035.37205	0.00032
2034.08628	-0.00017
2032.80052	0.00005
2031.51475	0.00074
2030.22898	0.00167
2028.94321	0.00266
2027.65744	0.00350
2026.37167	0.00402
2025.08590	0.00429
2023.80013	0.00444
2022.51436	0.00448
2021.22860	0.00435
2019.94283	0.00395
2018.65706	0.00325
2017.37129	0.00239
2016.08552	0.00173
2014.79975	0.00156
2013.51398	0.00190
2012.22821	0.00227
2010.94245	0.00198
2009.65668	0.00065
2008.37091	-0.00124
2007.08514	-0.00244
2005.79937	-0.00201
2004.51360	-0.00016
2003.22783	0.00208
2001.94206	0.00397
2000.65629	0.00531
1999.37053	0.00615
1998.08476	0.00649
1996.79899	0.00649
1995.51322	0.00645
1994.22745	0.00652
1992.94168	0.00663
1991.65591	0.00674
1990.37014	0.00692
1989.08438	0.00713
1987.79861	0.00707
1986.51284	0.00656
1985.22707	0.00579
1983.94130	0.00524
1982.65553	0.00522
1981.36976	0.00551
1980.08399	0.00557
1978.79822	0.00507
1977.51246	0.00434
1976.22669	0.00404
1974.94092	0.00437
1973.65515	0.00483
1972.36938	0.00485
1971.08361	0.00446
1969.79784	0.00409
1968.51207	0.00398
1967.22631	0.00404
1965.94054	0.00425
1964.65477	0.00471
1963.36900	0.00547
1962.08323	0.00626
1960.79746	0.00679
1959.51169	0.00703
1958.22592	0.00716
1956.94015	0.00731
1955.65439	0.00750
1954.36862	0.00781
1953.08285	0.00841
1951.79708	0.00924
1950.51131	0.01001
1949.22554	0.01043
1947.93977	0.01048
1946.65400	0.01040
1945.36823	0.01042
1944.08247	0.01058
1942.79670	0.01073
1941.51093	0.01073
1940.22516	0.01059
1938.93939	0.01045
1937.65362	0.01037
1936.36785	0.01033
1935.08208	0.01021
1933.79632	0.00994
1932.51055	0.00959
1931.22478	0.00931
1929.93901	0.00922
1928.65324	0.00934
1927.36747	0.00959
1926.08170	0.00987
1924.79593	0.01009
1923.51016	0.01027
1922.22440	0.01051
1920.93863	0.01090
1919.65286	0.01127
1918.36709	0.01138
1917.08132	0.01119
1915.79555	0.01094
1914.50978	0.01088
1913.22401	0.01103
1911.93825	0.01125
1910.65248	0.01141
1909.36671	0.01144
1908.08094	0.01132
1906.79517	0.01110
1905.50940	0.01085
1904.22363	0.01062
1902.93786	0.01038
1901.65209	0.01021
1900.36633	0.01023
1899.08056	0.01047
1897.79479	0.01070
1896.50902	0.01070
1895.22325	0.01051
1893.93748	0.01041
1892.65171	0.01061
1891.36594	0.01110
1890.08018	0.01162
1888.79441	0.01186
1887.50864	0.01172
1886.22287	0.01137
1884.93710	0.01107
1883.65133	0.01096
1882.36556	0.01097
1881.07979	0.01105
1879.79402	0.01117
1878.50826	0.01127
1877.22249	0.01130
1875.93672	0.01124
1874.65095	0.01116
1873.36518	0.01114
1872.07941	0.01120
1870.79364	0.01130
1869.50787	0.01137
1868.22211	0.01142
1866.93634	0.01150
1865.65057	0.01164
1864.36480	0.01176
1863.07903	0.01172
1861.79326	0.01148
1860.50749	0.01114
1859.22172	0.01085
1857.93595	0.01071
1856.65019	0.01075
1855.36442	0.01091
1854.07865	0.01113
1852.79288	0.01134
1851.50711	0.01151
1850.22134	0.01162
1848.93557	0.01165
1847.64980	0.01165
1846.36404	0.01168
1845.07827	0.01183
1843.79250	0.01205
1842.50673	0.01218
1841.22096	0.01211
1839.93519	0.01188
1838.64942	0.01168
1837.36365	0.01160
1836.07788	0.01168
1834.79212	0.01182
1833.50635	0.01198
1832.22058	0.01213
1830.93481	0.01229
1829.64904	0.01246
1828.36327	0.01258
1827.07750	0.01258
1825.79173	0.01244
1824.50597	0.01220
1823.22020	0.01195
1821.93443	0.01171
1820.64866	0.01153
1819.36289	0.01144
1818.07712	0.01150
1816.79135	0.01172
1815.50558	0.01205
1814.21981	0.01241
1812.93405	0.01270
1811.64828	0.01290
1810.36251	0.01306
1809.07674	0.01322
1807.79097	0.01338
1806.50520	0.01349
1805.21943	0.01349
1803.93366	0.01340
1802.64790	0.01324
1801.36213	0.01307
1800.07636	0.01294
1798.79059	0.01287
1797.50482	0.01289
1796.21905	0.01293
1794.93328	0.01295
1793.64751	0.01296
1792.36174	0.01296
1791.07598	0.01300
1789.79021	0.01311
1788.50444	0.01328
1787.21867	0.01347
1785.93290	0.01360
1784.64713	0.01362
1783.36136	0.01354
1782.07559	0.01343
1780.78983	0.01331
1779.50406	0.01321
1778.21829	0.01314
1776.93252	0.01312
1775.64675	0.01318
1774.36098	0.01332
1773.07521	0.01353
1771.78944	0.01377
1770.50367	0.01399
1769.21791	0.01415
1767.93214	0.01423
1766.64637	0.01427
1765.36060	0.01433
1764.07483	0.01440
1762.78906	0.01447
1761.50329	0.01455
1760.21752	0.01463
1758.93176	0.01472
1757.64599	0.01480
1756.36022	0.01486
1755.07445	0.01488
1753.78868	0.01483
1752.50291	0.01472
1751.21714	0.01461
1749.93137	0.01459
1748.64560	0.01470
1747.35984	0.01488
1746.07407	0.01503
1744.78830	0.01508
1743.50253	0.01503
1742.21676	0.01500
1740.93099	0.01506
1739.64522	0.01521
1738.35945	0.01535
1737.07369	0.01539
1735.78792	0.01533
1734.50215	0.01531
1733.21638	0.01543
1731.93061	0.01570
1730.64484	0.01603
1729.35907	0.01634
1728.07330	0.01660
1726.78753	0.01683
1725.50177	0.01705
1724.21600	0.01728
1722.93023	0.01751
1721.64446	0.01773
1720.35869	0.01795
1719.07292	0.01817
1717.78715	0.01837
1716.50138	0.01856
1715.21561	0.01878
1713.92985	0.01904
1712.64408	0.01935
1711.35831	0.01969
1710.07254	0.02004
1708.78677	0.02041
1707.50100	0.02076
1706.21523	0.02108
1704.92946	0.02139
1703.64370	0.02167
1702.35793	0.02195
1701.07216	0.02227
1699.78639	0.02265
1698.50062	0.02309
1697.21485	0.02356
1695.92908	0.02402
1694.64331	0.02448
1693.35754	0.02493
1692.07178	0.02535
1690.78601	0.02570
1689.50024	0.02601
1688.21447	0.02632
1686.92870	0.02665
1685.64293	0.02704
1684.35716	0.02751
1683.07139	0.02805
1681.78563	0.02862
1680.49986	0.02919
1679.21409	0.02971
1677.92832	0.03014
1676.64255	0.03050
1675.35678	0.03086
1674.07101	0.03124
1672.78524	0.03167
1671.49947	0.03213
1670.21371	0.03260
1668.92794	0.03308
1667.64217	0.03356
1666.35640	0.03401
1665.07063	0.03441
1663.78486	0.03475
1662.49909	0.03504
1661.21332	0.03536
1659.92756	0.03571
1658.64179	0.03608
1657.35602	0.03640
1656.07025	0.03661
1654.78448	0.03672
1653.49871	0.03683
1652.21294	0.03698
1650.92717	0.03719
1649.64140	0.03736
1648.35564	0.03748
1647.06987	0.03755
1645.78410	0.03762
1644.49833	0.03769
1643.21256	0.03775
1641.92679	0.03777
1640.64102	0.03771
1639.35525	0.03754
1638.06949	0.03731
1636.78372	0.03709
1635.49795	0.03698
1634.21218	0.03698
1632.92641	0.03703
1631.64064	0.03708
1630.35487	0.03708
1629.06910	0.03701
1627.78333	0.03688
1626.49757	0.03670
1625.21180	0.03648
1623.92603	0.03626
1622.64026	0.03605
1621.35449	0.03589
1620.06872	0.03576
1618.78295	0.03564
1617.49718	0.03551
1616.21142	0.03542
1614.92565	0.03541
1613.63988	0.03547
1612.35411	0.03558
1611.06834	0.03565
1609.78257	0.03567
1608.49680	0.03564
1607.21103	0.03562
1605.92526	0.03562
1604.63950	0.03564
1603.35373	0.03567
1602.06796	0.03573
1600.78219	0.03583
1599.49642	0.03596
1598.21065	0.03605
1596.92488	0.03607
1595.63911	0.03604
1594.35335	0.03604
1593.06758	0.03611
1591.78181	0.03626
1590.49604	0.03646
1589.21027	0.03665
1587.92450	0.03682
1586.63873	0.03697
1585.35296	0.03712
1584.06719	0.03729
1582.78143	0.03744
1581.49566	0.03755
1580.20989	0.03763
1578.92412	0.03771
1577.63835	0.03784
1576.35258	0.03806
1575.06681	0.03836
1573.78104	0.03867
1572.49528	0.03894
1571.20951	0.03918
1569.92374	0.03941
1568.63797	0.03966
1567.35220	0.03990
1566.06643	0.04007
1564.78066	0.04018
1563.49489	0.04023
1562.20912	0.04025
1560.92336	0.04027
1559.63759	0.04030
1558.35182	0.04036
1557.06605	0.04045
1555.78028	0.04058
1554.49451	0.04072
1553.20874	0.04088
1551.92297	0.04101
1550.63721	0.04109
1549.35144	0.04109
1548.06567	0.04102
1546.77990	0.04092
1545.49413	0.04081
1544.20836	0.04067
1542.92259	0.04046
1541.63682	0.04019
1540.35105	0.03990
1539.06529	0.03963
1537.77952	0.03940
1536.49375	0.03915
1535.20798	0.03889
1533.92221	0.03865
1532.63644	0.03845
1531.35067	0.03829
1530.06490	0.03812
1528.77914	0.03793
1527.49337	0.03775
1526.20760	0.03759
1524.92183	0.03749
1523.63606	0.03742
1522.35029	0.03744
1521.06452	0.03758
1519.77875	0.03787
1518.49298	0.03829
1517.20722	0.03875
1515.92145	0.03919
1514.63568	0.03960
1513.34991	0.04001
1512.06414	0.04047
1510.77837	0.04096
1509.49260	0.04143
1508.20683	0.04187
1506.92107	0.04230
1505.63530	0.04277
1504.34953	0.04327
1503.06376	0.04375
1501.77799	0.04416
1500.49222	0.04448
1499.20645	0.04475
1497.92068	0.04500
1496.63491	0.04526
1495.34915	0.04556
1494.06338	0.04589
1492.77761	0.04623
1491.49184	0.04654
1490.20607	0.04685
1488.92030	0.04718
1487.63453	0.04755
1486.34876	0.04798
1485.06299	0.04846
1483.77723	0.04898
1482.49146	0.04952
1481.20569	0.05005
1479.91992	0.05059
1478.63415	0.05118
1477.34838	0.05187
1476.06261	0.05267
1474.77684	0.05357
1473.49108	0.05456
1472.20531	0.05559
1470.91954	0.05660
1469.63377	0.05752
1468.34800	0.05833
1467.06223	0.05907
1465.77646	0.05976
1464.49069	0.06040
1463.20492	0.06101
1461.91916	0.06160
1460.63339	0.06224
1459.34762	0.06298
1458.06185	0.06384
1456.77608	0.06475
1455.49031	0.06557
1454.20454	0.06618
1452.91877	0.06653
1451.63301	0.06666
1450.34724	0.06666
1449.06147	0.06659
1447.77570	0.06644
1446.48993	0.06619
1445.20416	0.06582
1443.91839	0.06535
1442.63262	0.06478
1441.34685	0.06416
1440.06109	0.06356
1438.77532	0.06303
1437.48955	0.06262
1436.20378	0.06235
1434.91801	0.06218
1433.63224	0.06213
1432.34647	0.06222
1431.06070	0.06249
1429.77494	0.06297
1428.48917	0.06364
1427.20340	0.06442
1425.91763	0.06524
1424.63186	0.06605
1423.34609	0.06684
1422.06032	0.06761
1420.77455	0.06834
1419.48878	0.06904
1418.20302	0.06969
1416.91725	0.07028
1415.63148	0.07075
1414.34571	0.07104
1413.05994	0.07113
1411.77417	0.07102
1410.48840	0.07076
1409.20263	0.07035
1407.91687	0.06977
1406.63110	0.06901
1405.34533	0.06807
1404.05956	0.06697
1402.77379	0.06576
1401.48802	0.06446
1400.20225	0.06308
1398.91648	0.06163
1397.63071	0.06014
1396.34495	0.05865
1395.05918	0.05718
1393.77341	0.05573
1392.48764	0.05434
1391.20187	0.05301
1389.91610	0.05176
1388.63033	0.05056
1387.34456	0.04940
1386.05880	0.04827
1384.77303	0.04716
1383.48726	0.04609
1382.20149	0.04508
1380.91572	0.04412
1379.62995	0.04318
1378.34418	0.04221
1377.05841	0.04117
1375.77264	0.04006
1374.48688	0.03892
1373.20111	0.03782
1371.91534	0.03681
1370.62957	0.03590
1369.34380	0.03504
1368.05803	0.03419
1366.77226	0.03331
1365.48649	0.03243
1364.20073	0.03158
1362.91496	0.03079
1361.62919	0.03009
1360.34342	0.02949
1359.05765	0.02895
1357.77188	0.02844
1356.48611	0.02797
1355.20034	0.02753
1353.91457	0.02710
1352.62881	0.02666
1351.34304	0.02619
1350.05727	0.02572
1348.77150	0.02530
1347.48573	0.02498
1346.19996	0.02473
1344.91419	0.02453
1343.62842	0.02435
1342.34266	0.02417
1341.05689	0.02394
1339.77112	0.02367
1338.48535	0.02337
1337.19958	0.02309
1335.91381	0.02284
1334.62804	0.02261
1333.34227	0.02237
1332.05650	0.02213
1330.77074	0.02194
1329.48497	0.02180
1328.19920	0.02169
1326.91343	0.02156
1325.62766	0.02140
1324.34189	0.02125
1323.05612	0.02114
1321.77035	0.02108
1320.48459	0.02105
1319.19882	0.02100
1317.91305	0.02089
1316.62728	0.02073
1315.34151	0.02054
1314.05574	0.02038
1312.76997	0.02023
1311.48420	0.02008
1310.19843	0.01991
1308.91267	0.01971
1307.62690	0.01953
1306.34113	0.01939
1305.05536	0.01933
1303.76959	0.01930
1302.48382	0.01926
1301.19805	0.01917
1299.91228	0.01906
1298.62652	0.01895
1297.34075	0.01887
1296.05498	0.01883
1294.76921	0.01881
1293.48344	0.01879
1292.19767	0.01875
1290.91190	0.01868
1289.62613	0.01860
1288.34036	0.01850
1287.05460	0.01842
1285.76883	0.01837
1284.48306	0.01834
1283.19729	0.01832
1281.91152	0.01826
1280.62575	0.01815
1279.33998	0.01802
1278.05421	0.01789
1276.76845	0.01780
1275.48268	0.01774
1274.19691	0.01771
1272.91114	0.01768
1271.62537	0.01764
1270.33960	0.01760
1269.05383	0.01757
1267.76806	0.01757
1266.48229	0.01761
1265.19653	0.01763
1263.91076	0.01759
1262.62499	0.01749
1261.33922	0.01738
1260.05345	0.01730
1258.76768	0.01726
1257.48191	0.01725
1256.19614	0.01723
1254.91037	0.01721
1253.62461	0.01719
1252.33884	0.01716
1251.05307	0.01715
1249.76730	0.01716
1248.48153	0.01717
1247.19576	0.01715
1245.90999	0.01709
1244.62422	0.01700
1243.33846	0.01690
1242.05269	0.01682
1240.76692	0.01677
1239.48115	0.01675
1238.19538	0.01678
1236.90961	0.01683
1235.62384	0.01687
1234.33807	0.01690
1233.05230	0.01687
1231.76654	0.01680
1230.48077	0.01667
1229.19500	0.01654
1227.90923	0.01643
1226.62346	0.01637
1225.33769	0.01635
1224.05192	0.01634
1222.76615	0.01632
1221.48039	0.01632
1220.19462	0.01636
1218.90885	0.01641
1217.62308	0.01645
1216.33731	0.01643
1215.05154	0.01637
1213.76577	0.01631
1212.48000	0.01627
1211.19423	0.01629
1209.90847	0.01635
1208.62270	0.01640
1207.33693	0.01644
1206.05116	0.01645
1204.76539	0.01642
1203.47962	0.01638
1202.19385	0.01635
1200.90808	0.01640
1199.62232	0.01655
1198.33655	0.01665
1197.05078	0.01673
1195.76501	0.01675
1194.47924	0.01673
1193.19347	0.01671
1191.90770	0.01673
1190.62193	0.01682
1189.33616	0.01693
1188.05040	0.01704
1186.76463	0.01711
1185.47886	0.01715
1184.19309	0.01722
1182.90732	0.01734
1181.62155	0.01746
1180.33578	0.01753
1179.05001	0.01758
1177.76425	0.01766
1176.47848	0.01781
1175.19271	0.01801
1173.90694	0.01823
1172.62117	0.01846
1171.33540	0.01868
1170.04963	0.01889
1168.76386	0.01908
1167.47809	0.01928
1166.19233	0.01951
1164.90656	0.01979
1163.62079	0.02008
1162.33502	0.02034
1161.04925	0.02058
1159.76348	0.02084
1158.47771	0.02114
1157.19194	0.02150
1155.90618	0.02188
1154.62041	0.02229
1153.33464	0.02270
1152.04887	0.02312
1150.76310	0.02352
1149.47733	0.02393
1148.19156	0.02440
1146.90579	0.02496
1145.62002	0.02562
1144.33426	0.02637
1143.04849	0.02717
1141.76272	0.02800
1140.47695	0.02882
1139.19118	0.02966
1137.90541	0.03055
1136.61964	0.03151
1135.33387	0.03253
1134.04811	0.03359
1132.76234	0.03466
1131.47657	0.03579
1130.19080	0.03703
1128.90503	0.03846
1127.61926	0.04010
1126.33349	0.04197
1125.04772	0.04403
1123.76195	0.04626
1122.47619	0.04862
1121.19042	0.05105
1119.90465	0.05353
1118.61888	0.05605
1117.33311	0.05860
1116.04734	0.06118
1114.76157	0.06383
1113.47580	0.06655
1112.19004	0.06935
1110.90427	0.07215
1109.61850	0.07497
1108.33273	0.07783
1107.04696	0.08074
1105.76119	0.08362
1104.47542	0.08639
1103.18965	0.08903
1101.90388	0.09160
1100.61812	0.09418
1099.33235	0.09680
1098.04658	0.09944
1096.76081	0.10202
1095.47504	0.10445
1094.18927	0.10669
1092.90350	0.10872
1091.61773	0.11060
1090.33197	0.11237
1089.04620	0.11401
1087.76043	0.11544
1086.47466	0.11670
1085.18889	0.11789
1083.90312	0.11913
1082.61735	0.12046
1081.33158	0.12185
1080.04581	0.12333
1078.76005	0.12500
1077.47428	0.12687
1076.18851	0.12898
1074.90274	0.13131
1073.61697	0.13383
1072.33120	0.13646
1071.04543	0.13911
1069.75966	0.14175
1068.47390	0.14439
1067.18813	0.14706
1065.90236	0.14982
1064.61659	0.15272
1063.33082	0.15570
1062.04505	0.15867
1060.75928	0.16157
1059.47351	0.16441
1058.18774	0.16725
1056.90198	0.17012
1055.61621	0.17300
1054.33044	0.17579
1053.04467	0.17852
1051.75890	0.18125
1050.47313	0.18409
1049.18736	0.18704
1047.90159	0.19010
1046.61583	0.19321
1045.33006	0.19632
1044.04429	0.19938
1042.75852	0.20234
1041.47275	0.20520
1040.18698	0.20801
1038.90121	0.21083
1037.61544	0.21366
1036.32967	0.21642
1035.04391	0.21906
1033.75814	0.22156
1032.47237	0.22396
1031.18660	0.22626
1029.90083	0.22841
1028.61506	0.23030
1027.32929	0.23184
1026.04352	0.23305
1024.75775	0.23399
1023.47199	0.23470
1022.18622	0.23509
1020.90045	0.23509
1019.61468	0.23464
1018.32891	0.23376
1017.04314	0.23247
1015.75737	0.23080
1014.47160	0.22883
1013.18584	0.22661
1011.90007	0.22417
1010.61430	0.22151
1009.32853	0.21865
1008.04276	0.21558
1006.75699	0.21229
1005.47122	0.20876
1004.18545	0.20502
1002.89968	0.20115
1001.61392	0.19721
1000.32815	0.19314
999.04238	0.18890
997.75661	0.18451
996.47084	0.18005
995.18507	0.17561
993.89930	0.17123
992.61353	0.16691
991.32777	0.16260
990.04200	0.15824
988.75623	0.15385
987.47046	0.14950
986.18469	0.14532
984.89892	0.14127
983.61315	0.13728
982.32738	0.13329
981.04161	0.12937
979.75585	0.12562
978.47008	0.12206
977.18431	0.11864
975.89854	0.11536
974.61277	0.11226
973.32700	0.10941
972.04123	0.10690
970.75546	0.10488
969.46970	0.10345
968.18393	0.10266
966.89816	0.10247
965.61239	0.10284
964.32662	0.10361
963.04085	0.10450
961.75508	0.10513
960.46931	0.10520
959.18354	0.10464
957.89778	0.10352
956.61201	0.10197
955.32624	0.10014
954.04047	0.09811
952.75470	0.09599
951.46893	0.09387
950.18316	0.09181
948.89739	0.08980
947.61163	0.08780
946.32586	0.08577
945.04009	0.08372
943.75432	0.08172
942.46855	0.07983
941.18278	0.07808
939.89701	0.07640
938.61124	0.07473
937.32547	0.07305
936.03971	0.07137
934.75394	0.06977
933.46817	0.06826
932.18240	0.06684
930.89663	0.06552
929.61086	0.06433
928.32509	0.06329
927.03932	0.06236
925.75356	0.06147
924.46779	0.06055
923.18202	0.05959
921.89625	0.05866
920.61048	0.05781
919.32471	0.05704
918.03894	0.05633
916.75317	0.05568
915.46740	0.05505
914.18164	0.05443
912.89587	0.05378
911.61010	0.05316
910.32433	0.05263
909.03856	0.05219
907.75279	0.05178
906.46702	0.05133
905.18125	0.05081
903.89549	0.05027
902.60972	0.04973
901.32395	0.04917
900.03818	0.04862
898.75241	0.04810
897.46664	0.04762
896.18087	0.04716
894.89510	0.04671
893.60933	0.04634
892.32357	0.04608
891.03780	0.04593
889.75203	0.04585
888.46626	0.04585
887.18049	0.04604
885.89472	0.04658
884.60895	0.04763
883.32318	0.04919
882.03742	0.05109
880.75165	0.05297
879.46588	0.05448
878.18011	0.05548
876.89434	0.05618
875.60857	0.05688
874.32280	0.05767
873.03703	0.05829
871.75126	0.05842
870.46550	0.05792
869.17973	0.05691
867.89396	0.05561
866.60819	0.05417
865.32242	0.05271
864.03665	0.05127
862.75088	0.04989
861.46511	0.04858
860.17935	0.04740
858.89358	0.04634
857.60781	0.04538
856.32204	0.04448
855.03627	0.04363
853.75050	0.04285
852.46473	0.04215
851.17896	0.04152
849.89319	0.04099
848.60743	0.04056
847.32166	0.04025
846.03589	0.04002
844.75012	0.03981
843.46435	0.03956
842.17858	0.03923
840.89281	0.03885
839.60704	0.03849
838.32128	0.03823
837.03551	0.03806
835.74974	0.03787
834.46397	0.03757
833.17820	0.03717
831.89243	0.03674
830.60666	0.03638
829.32089	0.03610
828.03512	0.03589
826.74936	0.03574
825.46359	0.03566
824.17782	0.03564
822.89205	0.03563
821.60628	0.03552
820.32051	0.03526
819.03474	0.03491
817.74897	0.03457
816.46321	0.03436
815.17744	0.03433
813.89167	0.03445
812.60590	0.03460
811.32013	0.03466
810.03436	0.03459
808.74859	0.03441
807.46282	0.03421
806.17705	0.03406
804.89129	0.03397
803.60552	0.03390
802.31975	0.03383
801.03398	0.03372
799.74821	0.03355
798.46244	0.03338
797.17667	0.03326
795.89090	0.03323
794.60513	0.03324
793.31937	0.03321
792.03360	0.03312
790.74783	0.03299
789.46206	0.03284
788.17629	0.03271
786.89052	0.03265
785.60475	0.03265
784.31898	0.03269
783.03322	0.03268
781.74745	0.03261
780.46168	0.03251
779.17591	0.03241
777.89014	0.03233
776.60437	0.03226
775.31860	0.03222
774.03283	0.03219
772.74706	0.03214
771.46130	0.03205
770.17553	0.03197
768.88976	0.03192
767.60399	0.03189
766.31822	0.03186
765.03245	0.03183
763.74668	0.03181
762.46091	0.03179
761.17515	0.03175
759.88938	0.03171
758.60361	0.03171
757.31784	0.03174
756.03207	0.03175
754.74630	0.03173
753.46053	0.03172
752.17476	0.03176
750.88899	0.03180
749.60323	0.03177
748.31746	0.03164
747.03169	0.03144
745.74592	0.03123
744.46015	0.03106
743.17438	0.03098
741.88861	0.03100
740.60284	0.03107
739.31708	0.03113
738.03131	0.03110
736.74554	0.03093
735.45977	0.03066
734.17400	0.03040
732.88823	0.03024
731.60246	0.03019
730.31669	0.03016
729.03092	0.03013
727.74516	0.03009
726.45939	0.03007
725.17362	0.03005
723.88785	0.03003
722.60208	0.03009
721.31631	0.03021
720.03054	0.03032
718.74477	0.03039
717.45901	0.03042
716.17324	0.03041
714.88747	0.03038
713.60170	0.03032
712.31593	0.03025
711.03016	0.03019
709.74439	0.03017
708.45862	0.03017
707.17285	0.03017
705.88709	0.03013
704.60132	0.03004
703.31555	0.02994
702.02978	0.02985
700.74401	0.02981
699.45824	0.02983
698.17247	0.02988
696.88670	0.02991
695.60094	0.02987
694.31517	0.02976
693.02940	0.02967
691.74363	0.02967
690.45786	0.02977
689.17209	0.02992
687.88632	0.03002
686.60055	0.03002
685.31478	0.02994
684.02902	0.02982
682.74325	0.02970
681.45748	0.02961
680.17171	0.02954
678.88594	0.02949
677.60017	0.02947
676.31440	0.02948
675.02863	0.02955
673.74287	0.02967
672.45710	0.02982
671.17133	0.02998
669.88556	0.03013
668.59979	0.03021
667.31402	0.03026
666.02825	0.03024
664.74248	0.03008
663.45671	0.02987
662.17095	0.02970
660.88518	0.02961
659.59941	0.02962
658.31364	0.02971
657.02787	0.02982
655.74210	0.02994
654.45633	0.03005
653.17056	0.03019
651.88480	0.03037
650.59903	0.03062
649.31326	0.03090
648.02749	0.03119
646.74172	0.03145
645.45595	0.03170
644.17018	0.03196
642.88441	0.03228
641.59864	0.03267
640.31288	0.03310
639.02711	0.03350
637.74134	0.03385
636.45557	0.03418
635.16980	0.03457
633.88403	0.03502
632.59826	0.03548
631.31249	0.03578
630.02673	0.03564
628.74096	0.03528
627.45519	0.03603
626.16942	0.03589
624.88365	0.03522
623.59788	0.03484
622.31211	0.03522
621.02634	0.03666
619.74057	0.03898
618.45481	0.04159
617.16904	0.04400
615.88327	0.04625
614.59750	0.04875
613.31173	0.05206
612.02596	0.05668
610.74019	0.06258
609.45442	0.06872
608.16866	0.07360
606.88289	0.07674
605.59712	0.07895
604.31135	0.08117
603.02558	0.08350
601.73981	0.08527
600.45404	0.08593
599.16827	0.08543
597.88250	0.08404
596.59674	0.08206
595.31097	0.07978
594.02520	0.07751
592.73943	0.07546
591.45366	0.07380
590.16789	0.07269
588.88212	0.07225
587.59635	0.07247
586.31059	0.07320
585.02482	0.07428
583.73905	0.07560
582.45328	0.07717
581.16751	0.07902
579.88174	0.08114
578.59597	0.08352
577.31020	0.08618
576.02443	0.08906
574.73867	0.09204
573.45290	0.09491
572.16713	0.09755
570.88136	0.10002
569.59559	0.10252
568.30982	0.10522
567.02405	0.10809
565.73828	0.11091
564.45251	0.11344
563.16675	0.11544
561.88098	0.11662
560.59521	0.11666
559.30944	0.11538
558.02367	0.11289
556.73790	0.10947
555.45213	0.10547
554.16636	0.10118
552.88060	0.09688
551.59483	0.09274
550.30906	0.08886
549.02329	0.08525
547.73752	0.08194
546.45175	0.07898
545.16598	0.07632
543.88021	0.07386
542.59444	0.07155
541.30868	0.06941
540.02291	0.06749
538.73714	0.06575
537.45137	0.06409
536.16560	0.06242
534.87983	0.06074
533.59406	0.05908
532.30829	0.05747
531.02253	0.05597
529.73676	0.05461
528.45099	0.05340
527.16522	0.05226
525.87945	0.05113
524.59368	0.04997
523.30791	0.04882
522.02214	0.04773
520.73637	0.04670
519.45061	0.04574
518.16484	0.04487
516.87907	0.04409
515.59330	0.04331
514.30753	0.04248
513.02176	0.04162
511.73599	0.04080
510.45022	0.04008
509.16446	0.03944
507.87869	0.03882
506.59292	0.03822
505.30715	0.03766
504.02138	0.03714
502.73561	0.03658
501.44984	0.03593
500.16407	0.03524
498.87830	0.03463
497.59254	0.03418
496.30677	0.03386
495.02100	0.03357
493.73523	0.03332
492.44946	0.03311
491.16369	0.03294
489.87792	0.03271
488.59215	0.03240
487.30639	0.03211
486.02062	0.03194
484.73485	0.03193
483.44908	0.03199
482.16331	0.03205
480.87754	0.03209
479.59177	0.03217
478.30600	0.03236
477.02023	0.03269
475.73447	0.03314
474.44870	0.03362
473.16293	0.03395
471.87716	0.03401
470.59139	0.03380
469.30562	0.03349
468.01985	0.03320
466.73408	0.03298
465.44832	0.03277
464.16255	0.03251
462.87678	0.03218
461.59101	0.03177
460.30524	0.03130
459.01947	0.03079
457.73370	0.03036
456.44793	0.03006
455.16216	0.02986
453.87640	0.02965
452.59063	0.02932
451.30486	0.02888
450.01909	0.02840
448.73332	0.02795
447.44755	0.02757
446.16178	0.02725
444.87601	0.02700
443.59025	0.02685
442.30448	0.02679
441.01871	0.02676
439.73294	0.02670
438.44717	0.02656
437.16140	0.02638
435.87563	0.02619
434.58986	0.02602
433.30409	0.02587
432.01833	0.02572
430.73256	0.02560
429.44679	0.02549
428.16102	0.02539
426.87525	0.02528
425.58948	0.02513
424.30371	0.02496
423.01794	0.02476
421.73218	0.02454
420.44641	0.02430
419.16064	0.02406
417.87487	0.02383
416.58910	0.02365
415.30333	0.02353
414.01756	0.02344
412.73179	0.02332
411.44602	0.02319
410.16026	0.02307
408.87449	0.02303
407.58872	0.02303
406.30295	0.02301
405.01718	0.02290
403.73141	0.02270
402.44564	0.02251
401.15987	0.02242
399.87411	0.02244
