3997.45528	0.03462
3996.16951	0.03458
3994.88374	0.03447
3993.59798	0.03437
3992.31221	0.03437
3991.02644	0.03435
3989.74067	0.03415
3988.45490	0.03381
3987.16913	0.03349
3985.88336	0.03328
3984.59759	0.03314
3983.31183	0.03293
3982.02606	0.03252
3980.74029	0.03189
3979.45452	0.03111
3978.16875	0.03034
3976.88298	0.02965
3975.59721	0.02911
3974.31144	0.02883
3973.02567	0.02892
3971.73991	0.02941
3970.45414	0.03020
3969.16837	0.03106
3967.88260	0.03174
3966.59683	0.03216
3965.31106	0.03248
3964.02529	0.03280
3962.73952	0.03299
3961.45376	0.03280
3960.16799	0.03220
3958.88222	0.03143
3957.59645	0.03079
3956.31068	0.03044
3955.02491	0.03044
3953.73914	0.03077
3952.45337	0.03120
3951.16760	0.03144
3949.88184	0.03138
3948.59607	0.03128
3947.31030	0.03152
3946.02453	0.03220
3944.73876	0.03309
3943.45299	0.03389
3942.16722	0.03432
3940.88145	0.03419
3939.59569	0.03352
3938.30992	0.03271
3937.02415	0.03216
3935.73838	0.03196
3934.45261	0.03186
3933.16684	0.03173
3931.88107	0.03167
3930.59530	0.03168
3929.30953	0.03159
3928.02377	0.03127
3926.73800	0.03084
3925.45223	0.03047
3924.16646	0.03030
3922.88069	0.03036
3921.59492	0.03070
3920.30915	0.03125
3919.02338	0.03171
3917.73762	0.03176
3916.45185	0.03131
3915.16608	0.03065
3913.88031	0.03014
3912.59454	0.02984
3911.30877	0.02950
3910.02300	0.02889
3908.73723	0.02810
3907.45146	0.02750
3906.16570	0.02736
3904.87993	0.02760
3903.59416	0.02788
3902.30839	0.02798
3901.02262	0.02808
3899.73685	0.02854
3898.45108	0.02936
3897.16531	0.03005
3895.87955	0.03013
3894.59378	0.02960
3893.30801	0.02904
3892.02224	0.02900
3890.73647	0.02952
3889.45070	0.03010
3888.16493	0.03032
3886.87916	0.03017
3885.59339	0.02988
3884.30763	0.02964
3883.02186	0.02951
3881.73609	0.02958
3880.45032	0.02990
3879.16455	0.03038
3877.87878	0.03074
3876.59301	0.03071
3875.30724	0.03025
3874.02148	0.02964
3872.73571	0.02928
3871.44994	0.02953
3870.16417	0.03034
3868.87840	0.03125
3867.59263	0.03163
3866.30686	0.03120
3865.02109	0.03019
3863.73532	0.02909
3862.44956	0.02834
3861.16379	0.02809
3859.87802	0.02813
3858.59225	0.02813
3857.30648	0.02791
3856.02071	0.02767
3854.73494	0.02779
3853.44917	0.02843
3852.16341	0.02931
3850.87764	0.02999
3849.59187	0.03019
3848.30610	0.02989
3847.02033	0.02908
3845.73456	0.02792
3844.44879	0.02676
3843.16302	0.02607
3841.87725	0.02607
3840.59149	0.02661
3839.30572	0.02727
3838.01995	0.02773
3836.73418	0.02792
3835.44841	0.02793
3834.16264	0.02780
3832.87687	0.02755
3831.59110	0.02735
3830.30534	0.02759
3829.01957	0.02847
3827.73380	0.02968
3826.44803	0.03057
3825.16226	0.03066
3823.87649	0.02998
3822.59072	0.02898
3821.30495	0.02827
3820.01918	0.02824
3818.73342	0.02881
3817.44765	0.02952
3816.16188	0.02991
3814.87611	0.02980
3813.59034	0.02928
3812.30457	0.02848
3811.01880	0.02754
3809.73303	0.02667
3808.44726	0.02616
3807.16150	0.02624
3805.87573	0.02693
3804.58996	0.02793
3803.30419	0.02875
3802.01842	0.02903
3800.73265	0.02875
3799.44688	0.02817
3798.16111	0.02761
3796.87535	0.02725
3795.58958	0.02711
3794.30381	0.02713
3793.01804	0.02716
3791.73227	0.02706
3790.44650	0.02682
3789.16073	0.02658
3787.87496	0.02644
3786.58919	0.02644
3785.30343	0.02655
3784.01766	0.02671
3782.73189	0.02680
3781.44612	0.02669
3780.16035	0.02643
3778.87458	0.02620
3777.58881	0.02617
3776.30304	0.02624
3775.01728	0.02623
3773.73151	0.02612
3772.44574	0.02621
3771.15997	0.02670
3769.87420	0.02740
3768.58843	0.02779
3767.30266	0.02754
3766.01689	0.02685
3764.73112	0.02621
3763.44536	0.02601
3762.15959	0.02628
3760.87382	0.02679
3759.58805	0.02723
3758.30228	0.02731
3757.01651	0.02696
3755.73074	0.02633
3754.44497	0.02568
3753.15921	0.02528
3751.87344	0.02533
3750.58767	0.02587
3749.30190	0.02679
3748.01613	0.02781
3746.73036	0.02864
3745.44459	0.02901
3744.15882	0.02885
3742.87305	0.02841
3741.58729	0.02815
3740.30152	0.02837
3739.01575	0.02896
3737.72998	0.02960
3736.44421	0.03000
3735.15844	0.03010
3733.87267	0.03010
3732.58690	0.03013
3731.30114	0.03015
3730.01537	0.03004
3728.72960	0.02989
3727.44383	0.03002
3726.15806	0.03052
3724.87229	0.03099
3723.58652	0.03092
3722.30075	0.03026
3721.01498	0.02948
3719.72922	0.02895
3718.44345	0.02861
3717.15768	0.02830
3715.87191	0.02796
3714.58614	0.02766
3713.30037	0.02757
3712.01460	0.02765
3710.72883	0.02776
3709.44307	0.02780
3708.15730	0.02778
3706.87153	0.02791
3705.58576	0.02823
3704.29999	0.02870
3703.01422	0.02923
3701.72845	0.02966
3700.44268	0.02985
3699.15691	0.02977
3697.87115	0.02968
3696.58538	0.02991
3695.29961	0.03024
3694.01384	0.03016
3692.72807	0.02941
3691.44230	0.02828
3690.15653	0.02730
3688.87076	0.02679
3687.58500	0.02677
3686.29923	0.02717
3685.01346	0.02797
3683.72769	0.02902
3682.44192	0.03000
3681.15615	0.03055
3679.87038	0.03044
3678.58461	0.02969
3677.29884	0.02864
3676.01308	0.02772
3674.72731	0.02715
3673.44154	0.02677
3672.15577	0.02644
3670.87000	0.02614
3669.58423	0.02593
3668.29846	0.02580
3667.01269	0.02574
3665.72693	0.02579
3664.44116	0.02594
3663.15539	0.02604
3661.86962	0.02590
3660.58385	0.02557
3659.29808	0.02529
3658.01231	0.02526
3656.72654	0.02553
3655.44077	0.02592
3654.15501	0.02615
3652.86924	0.02607
3651.58347	0.02584
3650.29770	0.02577
3649.01193	0.02608
3647.72616	0.02671
3646.44039	0.02741
3645.15462	0.02800
3643.86886	0.02842
3642.58309	0.02874
3641.29732	0.02901
3640.01155	0.02920
3638.72578	0.02923
3637.44001	0.02921
3636.15424	0.02934
3634.86847	0.02974
3633.58270	0.03022
3632.29694	0.03057
3631.01117	0.03078
3629.72540	0.03086
3628.43963	0.03088
3627.15386	0.03074
3625.86809	0.03049
3624.58232	0.03010
3623.29655	0.02964
3622.01079	0.02921
3620.72502	0.02922
3619.43925	0.02974
3618.15348	0.03043
3616.86771	0.03083
3615.58194	0.03085
3614.29617	0.03068
3613.01040	0.03041
3611.72463	0.03003
3610.43887	0.02957
3609.15310	0.02925
3607.86733	0.02920
3606.58156	0.02945
3605.29579	0.02999
3604.01002	0.03082
3602.72425	0.03185
3601.43848	0.03279
3600.15272	0.03332
3598.86695	0.03311
3597.58118	0.03231
3596.29541	0.03135
3595.00964	0.03073
3593.72387	0.03067
3592.43810	0.03111
3591.15233	0.03179
3589.86656	0.03228
3588.58080	0.03227
3587.29503	0.03179
3586.00926	0.03113
3584.72349	0.03064
3583.43772	0.03046
3582.15195	0.03058
3580.86618	0.03094
3579.58041	0.03150
3578.29464	0.03215
3577.00888	0.03278
3575.72311	0.03330
3574.43734	0.03358
3573.15157	0.03359
3571.86580	0.03349
3570.58003	0.03348
3569.29426	0.03359
3568.00849	0.03358
3566.72273	0.03314
3565.43696	0.03220
3564.15119	0.03114
3562.86542	0.03051
3561.57965	0.03061
3560.29388	0.03125
3559.00811	0.03199
3557.72234	0.03256
3556.43657	0.03304
3555.15081	0.03358
3553.86504	0.03421
3552.57927	0.03478
3551.29350	0.03512
3550.00773	0.03514
3548.72196	0.03489
3547.43619	0.03452
3546.15042	0.03428
3544.86466	0.03438
3543.57889	0.03476
3542.29312	0.03512
3541.00735	0.03516
3539.72158	0.03487
3538.43581	0.03456
3537.15004	0.03456
3535.86427	0.03494
3534.57850	0.03546
3533.29274	0.03584
3532.00697	0.03600
3530.72120	0.03607
3529.43543	0.03617
3528.14966	0.03627
3526.86389	0.03627
3525.57812	0.03611
3524.29235	0.03583
3523.00659	0.03554
3521.72082	0.03533
3520.43505	0.03515
3519.14928	0.03492
3517.86351	0.03471
3516.57774	0.03466
3515.29197	0.03482
3514.00620	0.03498
3512.72043	0.03499
3511.43467	0.03492
3510.14890	0.03490
3508.86313	0.03494
3507.57736	0.03490
3506.29159	0.03477
3505.00582	0.03471
3503.72005	0.03491
3502.43428	0.03549
3501.14852	0.03640
3499.86275	0.03738
3498.57698	0.03801
3497.29121	0.03803
3496.00544	0.03756
3494.71967	0.03703
3493.43390	0.03673
3492.14813	0.03665
3490.86236	0.03656
3489.57660	0.03632
3488.29083	0.03607
3487.00506	0.03597
3485.71929	0.03599
3484.43352	0.03591
3483.14775	0.03568
3481.86198	0.03556
3480.57621	0.03572
3479.29045	0.03607
3478.00468	0.03640
3476.71891	0.03671
3475.43314	0.03712
3474.14737	0.03763
3472.86160	0.03800
3471.57583	0.03803
3470.29006	0.03772
3469.00429	0.03730
3467.71853	0.03698
3466.43276	0.03680
3465.14699	0.03664
3463.86122	0.03647
3462.57545	0.03640
3461.28968	0.03655
3460.00391	0.03687
3458.71814	0.03727
3457.43238	0.03765
3456.14661	0.03795
3454.86084	0.03808
3453.57507	0.03797
3452.28930	0.03759
3451.00353	0.03699
3449.71776	0.03638
3448.43199	0.03596
3447.14622	0.03584
3445.86046	0.03603
3444.57469	0.03648
3443.28892	0.03713
3442.00315	0.03782
3440.71738	0.03838
3439.43161	0.03873
3438.14584	0.03888
3436.86007	0.03885
3435.57431	0.03863
3434.28854	0.03825
3433.00277	0.03781
3431.71700	0.03739
3430.43123	0.03710
3429.14546	0.03711
3427.85969	0.03753
3426.57392	0.03827
3425.28815	0.03898
3424.00239	0.03934
3422.71662	0.03933
3421.43085	0.03921
3420.14508	0.03930
3418.85931	0.03963
3417.57354	0.03986
3416.28777	0.03966
3415.00200	0.03904
3413.71624	0.03839
3412.43047	0.03808
3411.14470	0.03817
3409.85893	0.03850
3408.57316	0.03895
3407.28739	0.03943
3406.00162	0.03983
3404.71585	0.04010
3403.43008	0.04032
3402.14432	0.04065
3400.85855	0.04108
3399.57278	0.04141
3398.28701	0.04143
3397.00124	0.04110
3395.71547	0.04052
3394.42970	0.03986
3393.14393	0.03924
3391.85817	0.03881
3390.57240	0.03879
3389.28663	0.03922
3388.00086	0.03990
3386.71509	0.04045
3385.42932	0.04068
3384.14355	0.04071
3382.85778	0.04079
3381.57201	0.04102
3380.28625	0.04129
3379.00048	0.04144
3377.71471	0.04139
3376.42894	0.04107
3375.14317	0.04053
3373.85740	0.04002
3372.57163	0.03989
3371.28586	0.04027
3370.00010	0.04088
3368.71433	0.04120
3367.42856	0.04102
3366.14279	0.04059
3364.85702	0.04023
3363.57125	0.04001
3362.28548	0.03981
3360.99971	0.03962
3359.71394	0.03957
3358.42818	0.03976
3357.14241	0.04007
3355.85664	0.04025
3354.57087	0.04017
3353.28510	0.03992
3351.99933	0.03973
3350.71356	0.03979
3349.42779	0.04014
3348.14202	0.04063
3346.85626	0.04096
3345.57049	0.04084
3344.28472	0.04022
3342.99895	0.03944
3341.71318	0.03894
3340.42741	0.03890
3339.14164	0.03919
3337.85587	0.03958
3336.57011	0.03995
3335.28434	0.04026
3333.99857	0.04040
3332.71280	0.04029
3331.42703	0.03993
3330.14126	0.03948
3328.85549	0.03906
3327.56972	0.03875
3326.28395	0.03861
3324.99819	0.03861
3323.71242	0.03868
3322.42665	0.03877
3321.14088	0.03895
3319.85511	0.03934
3318.56934	0.03996
3317.28357	0.04060
3315.99780	0.04107
3314.71204	0.04124
3313.42627	0.04109
3312.14050	0.04067
3310.85473	0.04008
3309.56896	0.03952
3308.28319	0.03924
3306.99742	0.03935
3305.71165	0.03969
3304.42588	0.04000
3303.14012	0.04017
3301.85435	0.04027
3300.56858	0.04036
3299.28281	0.04039
3297.99704	0.04026
3296.71127	0.04000
3295.42550	0.03975
3294.13973	0.03955
3292.85397	0.03941
3291.56820	0.03940
3290.28243	0.03960
3288.99666	0.03997
3287.71089	0.04026
3286.42512	0.04016
3285.13935	0.03964
3283.85358	0.03892
3282.56781	0.03836
3281.28205	0.03816
3279.99628	0.03824
3278.71051	0.03841
3277.42474	0.03853
3276.13897	0.03862
3274.85320	0.03875
3273.56743	0.03893
3272.28166	0.03909
3270.99590	0.03923
3269.71013	0.03939
3268.42436	0.03958
3267.13859	0.03973
3265.85282	0.03979
3264.56705	0.03975
3263.28128	0.03960
3261.99551	0.03936
3260.70974	0.03908
3259.42398	0.03894
3258.13821	0.03905
3256.85244	0.03939
3255.56667	0.03974
3254.28090	0.03988
3252.99513	0.03969
3251.70936	0.03924
3250.42359	0.03873
3249.13783	0.03846
3247.85206	0.03856
3246.56629	0.03890
3245.28052	0.03918
3243.99475	0.03926
3242.70898	0.03925
3241.42321	0.03927
3240.13744	0.03928
3238.85167	0.03907
3237.56591	0.03862
3236.28014	0.03809
3234.99437	0.03773
3233.70860	0.03767
3232.42283	0.03789
3231.13706	0.03828
3229.85129	0.03868
3228.56552	0.03895
3227.27976	0.03908
3225.99399	0.03911
3224.70822	0.03903
3223.42245	0.03873
3222.13668	0.03826
3220.85091	0.03790
3219.56514	0.03790
3218.27937	0.03822
3216.99360	0.03854
3215.70784	0.03859
3214.42207	0.03839
3213.13630	0.03818
3211.85053	0.03803
3210.56476	0.03781
3209.27899	0.03732
3207.99322	0.03657
3206.70745	0.03588
3205.42169	0.03553
3204.13592	0.03561
3202.85015	0.03598
3201.56438	0.03650
3200.27861	0.03706
3198.99284	0.03751
3197.70707	0.03775
3196.42130	0.03782
3195.13553	0.03782
3193.84977	0.03784
3192.56400	0.03795
3191.27823	0.03823
3189.99246	0.03865
3188.70669	0.03899
3187.42092	0.03910
3186.13515	0.03896
3184.84938	0.03866
3183.56362	0.03826
3182.27785	0.03780
3180.99208	0.03735
3179.70631	0.03698
3178.42054	0.03672
3177.13477	0.03659
3175.84900	0.03655
3174.56323	0.03653
3173.27746	0.03647
3171.99170	0.03640
3170.70593	0.03645
3169.42016	0.03663
3168.13439	0.03687
3166.84862	0.03702
3165.56285	0.03695
3164.27708	0.03663
3162.99131	0.03611
3161.70555	0.03560
3160.41978	0.03527
3159.13401	0.03521
3157.84824	0.03540
3156.56247	0.03571
3155.27670	0.03593
3153.99093	0.03589
3152.70516	0.03565
3151.41939	0.03546
3150.13363	0.03551
3148.84786	0.03577
3147.56209	0.03605
3146.27632	0.03621
3144.99055	0.03625
3143.70478	0.03620
3142.41901	0.03603
3141.13324	0.03579
3139.84748	0.03553
3138.56171	0.03531
3137.27594	0.03520
3135.99017	0.03519
3134.70440	0.03525
3133.41863	0.03530
3132.13286	0.03527
3130.84709	0.03521
3129.56132	0.03517
3128.27556	0.03524
3126.98979	0.03546
3125.70402	0.03578
3124.41825	0.03602
3123.13248	0.03602
3121.84671	0.03572
3120.56094	0.03523
3119.27517	0.03471
3117.98940	0.03435
3116.70364	0.03427
3115.41787	0.03447
3114.13210	0.03479
3112.84633	0.03503
3111.56056	0.03506
3110.27479	0.03488
3108.98902	0.03451
3107.70325	0.03409
3106.41749	0.03383
3105.13172	0.03389
3103.84595	0.03423
3102.56018	0.03461
3101.27441	0.03483
3099.98864	0.03491
3098.70287	0.03497
3097.41710	0.03504
3096.13133	0.03504
3094.84557	0.03481
3093.55980	0.03435
3092.27403	0.03381
3090.98826	0.03340
3089.70249	0.03319
3088.41672	0.03312
3087.13095	0.03314
3085.84518	0.03325
3084.55942	0.03346
3083.27365	0.03371
3081.98788	0.03393
3080.70211	0.03408
3079.41634	0.03415
3078.13057	0.03412
3076.84480	0.03398
3075.55903	0.03374
3074.27326	0.03347
3072.98750	0.03325
3071.70173	0.03311
3070.41596	0.03302
3069.13019	0.03299
3067.84442	0.03297
3066.55865	0.03290
3065.27288	0.03282
3063.98711	0.03284
3062.70135	0.03304
3061.41558	0.03336
3060.12981	0.03362
3058.84404	0.03365
3057.55827	0.03340
3056.27250	0.03292
3054.98673	0.03239
3053.70096	0.03199
3052.41519	0.03181
3051.12943	0.03181
3049.84366	0.03188
3048.55789	0.03188
3047.27212	0.03175
3045.98635	0.03152
3044.70058	0.03135
3043.41481	0.03128
3042.12904	0.03127
3040.84328	0.03124
3039.55751	0.03120
3038.27174	0.03126
3036.98597	0.03145
3035.70020	0.03168
3034.41443	0.03185
3033.12866	0.03188
3031.84289	0.03175
3030.55712	0.03145
3029.27136	0.03108
3027.98559	0.03083
3026.69982	0.03088
3025.41405	0.03110
3024.12828	0.03124
3022.84251	0.03120
3021.55674	0.03112
3020.27097	0.03115
3018.98521	0.03127
3017.69944	0.03130
3016.41367	0.03111
3015.12790	0.03072
3013.84213	0.03022
3012.55636	0.02979
3011.27059	0.02958
3009.98482	0.02956
3008.69905	0.02956
3007.41329	0.02939
3006.12752	0.02914
3004.84175	0.02906
3003.55598	0.02933
3002.27021	0.02990
3000.98444	0.03048
2999.69867	0.03079
2998.41290	0.03063
2997.12714	0.03012
2995.84137	0.02951
2994.55560	0.02915
2993.26983	0.02924
2991.98406	0.02973
2990.69829	0.03036
2989.41252	0.03084
2988.12675	0.03097
2986.84098	0.03074
2985.55522	0.03027
2984.26945	0.02973
2982.98368	0.02933
2981.69791	0.02925
2980.41214	0.02952
2979.12637	0.02992
2977.84060	0.03023
2976.55483	0.03037
2975.26907	0.03057
2973.98330	0.03098
2972.69753	0.03148
2971.41176	0.03179
2970.12599	0.03179
2968.84022	0.03168
2967.55445	0.03174
2966.26868	0.03204
2964.98291	0.03245
2963.69715	0.03280
2962.41138	0.03304
2961.12561	0.03322
2959.83984	0.03341
2958.55407	0.03374
2957.26830	0.03432
2955.98253	0.03514
2954.69676	0.03598
2953.41100	0.03655
2952.12523	0.03673
2950.83946	0.03659
2949.55369	0.03631
2948.26792	0.03602
2946.98215	0.03572
2945.69638	0.03537
2944.41061	0.03498
2943.12484	0.03469
2941.83908	0.03455
2940.55331	0.03451
2939.26754	0.03458
2937.98177	0.03483
2936.69600	0.03535
2935.41023	0.03601
2934.12446	0.03659
2932.83869	0.03696
2931.55293	0.03711
2930.26716	0.03704
2928.98139	0.03683
2927.69562	0.03665
2926.40985	0.03665
2925.12408	0.03686
2923.83831	0.03720
2922.55254	0.03759
2921.26677	0.03788
2919.98101	0.03791
2918.69524	0.03760
2917.40947	0.03711
2916.12370	0.03668
2914.83793	0.03636
2913.55216	0.03604
2912.26639	0.03565
2910.98062	0.03525
2909.69486	0.03494
2908.40909	0.03466
2907.12332	0.03433
2905.83755	0.03404
2904.55178	0.03391
2903.26601	0.03397
2901.98024	0.03415
2900.69447	0.03431
2899.40870	0.03433
2898.12294	0.03412
2896.83717	0.03366
2895.55140	0.03305
2894.26563	0.03247
2892.97986	0.03211
2891.69409	0.03201
2890.40832	0.03201
2889.12255	0.03190
2887.83678	0.03162
2886.55102	0.03131
2885.26525	0.03113
2883.97948	0.03109
2882.69371	0.03105
2881.40794	0.03088
2880.12217	0.03061
2878.83640	0.03044
2877.55063	0.03054
2876.26487	0.03087
2874.97910	0.03126
2873.69333	0.03153
2872.40756	0.03163
2871.12179	0.03160
2869.83602	0.03153
2868.55025	0.03154
2867.26448	0.03170
2865.97871	0.03192
2864.69295	0.03204
2863.40718	0.03199
2862.12141	0.03181
2860.83564	0.03161
2859.54987	0.03145
2858.26410	0.03131
2856.97833	0.03112
2855.69256	0.03089
2854.40680	0.03075
2853.12103	0.03086
2851.83526	0.03110
2850.54949	0.03117
2849.26372	0.03089
2847.97795	0.03035
2846.69218	0.02980
2845.40641	0.02939
2844.12064	0.02912
2842.83488	0.02891
2841.54911	0.02871
2840.26334	0.02850
2838.97757	0.02825
2837.69180	0.02794
2836.40603	0.02751
2835.12026	0.02702
2833.83449	0.02658
2832.54873	0.02633
2831.26296	0.02630
2829.97719	0.02640
2828.69142	0.02647
2827.40565	0.02641
2826.11988	0.02622
2824.83411	0.02601
2823.54834	0.02590
2822.26257	0.02589
2820.97681	0.02581
2819.69104	0.02546
2818.40527	0.02492
2817.11950	0.02443
2815.83373	0.02417
2814.54796	0.02413
2813.26219	0.02424
2811.97642	0.02445
2810.69066	0.02471
2809.40489	0.02490
2808.11912	0.02492
2806.83335	0.02482
2805.54758	0.02467
2804.26181	0.02454
2802.97604	0.02445
2801.69027	0.02443
2800.40450	0.02447
2799.11874	0.02450
2797.83297	0.02445
2796.54720	0.02435
2795.26143	0.02430
2793.97566	0.02432
2792.68989	0.02436
2791.40412	0.02434
2790.11835	0.02425
2788.83259	0.02411
2787.54682	0.02397
2786.26105	0.02384
2784.97528	0.02370
2783.68951	0.02351
2782.40374	0.02333
2781.11797	0.02322
2779.83220	0.02321
2778.54643	0.02326
2777.26067	0.02332
2775.97490	0.02338
2774.68913	0.02346
2773.40336	0.02362
2772.11759	0.02387
2770.83182	0.02407
2769.54605	0.02405
2768.26028	0.02378
2766.97452	0.02338
2765.68875	0.02300
2764.40298	0.02274
2763.11721	0.02263
2761.83144	0.02263
2760.54567	0.02270
2759.25990	0.02276
2757.97413	0.02275
2756.68836	0.02270
2755.40260	0.02265
2754.11683	0.02265
2752.83106	0.02270
2751.54529	0.02275
2750.25952	0.02273
2748.97375	0.02262
2747.68798	0.02250
2746.40221	0.02246
2745.11645	0.02249
2743.83068	0.02258
2742.54491	0.02274
2741.25914	0.02296
2739.97337	0.02310
2738.68760	0.02305
2737.40183	0.02285
2736.11606	0.02268
2734.83029	0.02259
2733.54453	0.02251
2732.25876	0.02233
2730.97299	0.02202
2729.68722	0.02172
2728.40145	0.02156
2727.11568	0.02162
2725.82991	0.02178
2724.54414	0.02188
2723.25838	0.02189
2721.97261	0.02188
2720.68684	0.02197
2719.40107	0.02214
2718.11530	0.02233
2716.82953	0.02242
2715.54376	0.02239
2714.25799	0.02230
2712.97222	0.02223
2711.68646	0.02222
2710.40069	0.02217
2709.11492	0.02205
2707.82915	0.02188
2706.54338	0.02175
2705.25761	0.02170
2703.97184	0.02171
2702.68607	0.02172
2701.40031	0.02166
2700.11454	0.02154
2698.82877	0.02139
2697.54300	0.02129
2696.25723	0.02122
2694.97146	0.02116
2693.68569	0.02109
2692.39992	0.02099
2691.11415	0.02088
2689.82839	0.02078
2688.54262	0.02074
2687.25685	0.02072
2685.97108	0.02066
2684.68531	0.02057
2683.39954	0.02052
2682.11377	0.02056
2680.82800	0.02063
2679.54224	0.02067
2678.25647	0.02067
2676.97070	0.02062
2675.68493	0.02049
2674.39916	0.02031
2673.11339	0.02017
2671.82762	0.02017
2670.54185	0.02034
2669.25608	0.02060
2667.97032	0.02077
2666.68455	0.02069
2665.39878	0.02043
2664.11301	0.02022
2662.82724	0.02025
2661.54147	0.02049
2660.25570	0.02079
2658.96993	0.02099
2657.68417	0.02105
2656.39840	0.02100
2655.11263	0.02092
2653.82686	0.02085
2652.54109	0.02081
2651.25532	0.02077
2649.96955	0.02071
2648.68378	0.02059
2647.39801	0.02041
2646.11225	0.02021
2644.82648	0.02008
2643.54071	0.02010
2642.25494	0.02017
2640.96917	0.02016
2639.68340	0.02001
2638.39763	0.01981
2637.11186	0.01965
2635.82609	0.01953
2634.54033	0.01939
2633.25456	0.01926
2631.96879	0.01918
2630.68302	0.01915
2629.39725	0.01913
2628.11148	0.01915
2626.82571	0.01918
2625.53994	0.01912
2624.25418	0.01877
2622.96841	0.01817
2621.68264	0.01769
2620.39687	0.01766
2619.11110	0.01795
2617.82533	0.01811
2616.53956	0.01792
2615.25379	0.01767
2613.96802	0.01759
2612.68226	0.01759
2611.39649	0.01746
2610.11072	0.01720
2608.82495	0.01707
2607.53918	0.01720
2606.25341	0.01751
2604.96764	0.01777
2603.68187	0.01786
2602.39611	0.01780
2601.11034	0.01770
2599.82457	0.01765
2598.53880	0.01766
2597.25303	0.01765
2595.96726	0.01755
2594.68149	0.01734
2593.39572	0.01708
2592.10995	0.01688
2590.82419	0.01685
2589.53842	0.01697
2588.25265	0.01708
2586.96688	0.01704
2585.68111	0.01693
2584.39534	0.01703
2583.10957	0.01748
2581.82380	0.01799
2580.53804	0.01815
2579.25227	0.01777
2577.96650	0.01705
2576.68073	0.01640
2575.39496	0.01614
2574.10919	0.01626
2572.82342	0.01650
2571.53765	0.01661
2570.25188	0.01657
2568.96612	0.01646
2567.68035	0.01637
2566.39458	0.01633
2565.10881	0.01634
2563.82304	0.01638
2562.53727	0.01641
2561.25150	0.01640
2559.96573	0.01639
2558.67997	0.01637
2557.39420	0.01632
2556.10843	0.01625
2554.82266	0.01628
2553.53689	0.01656
2552.25112	0.01709
2550.96535	0.01761
2549.67958	0.01779
2548.39381	0.01764
2547.10805	0.01737
2545.82228	0.01721
2544.53651	0.01720
2543.25074	0.01732
2541.96497	0.01751
2540.67920	0.01762
2539.39343	0.01744
2538.10766	0.01690
2536.82190	0.01626
2535.53613	0.01582
2534.25036	0.01573
2532.96459	0.01580
2531.67882	0.01577
2530.39305	0.01554
2529.10728	0.01526
2527.82151	0.01514
2526.53574	0.01519
2525.24998	0.01531
2523.96421	0.01539
2522.67844	0.01543
2521.39267	0.01551
2520.10690	0.01569
2518.82113	0.01590
2517.53536	0.01600
2516.24959	0.01593
2514.96383	0.01582
2513.67806	0.01582
2512.39229	0.01593
2511.10652	0.01609
2509.82075	0.01623
2508.53498	0.01630
2507.24921	0.01624
2505.96344	0.01603
2504.67767	0.01576
2503.39191	0.01556
2502.10614	0.01554
2500.82037	0.01569
2499.53460	0.01589
2498.24883	0.01596
2496.96306	0.01578
2495.67729	0.01540
2494.39152	0.01504
2493.10576	0.01481
2491.81999	0.01469
2490.53422	0.01456
2489.24845	0.01440
2487.96268	0.01431
2486.67691	0.01439
2485.39114	0.01469
2484.10537	0.01502
2482.81960	0.01515
2481.53384	0.01503
2480.24807	0.01482
2478.96230	0.01466
2477.67653	0.01456
2476.39076	0.01455
2475.10499	0.01477
2473.81922	0.01528
2472.53345	0.01582
2471.24769	0.01606
2469.96192	0.01587
2468.67615	0.01548
2467.39038	0.01516
2466.10461	0.01505
2464.81884	0.01505
2463.53307	0.01501
2462.24730	0.01483
2460.96153	0.01459
2459.67577	0.01446
2458.39000	0.01456
2457.10423	0.01486
2455.81846	0.01518
2454.53269	0.01542
2453.24692	0.01554
2451.96115	0.01543
2450.67538	0.01502
2449.38962	0.01444
2448.10385	0.01396
2446.81808	0.01377
2445.53231	0.01376
2444.24654	0.01374
2442.96077	0.01365
2441.67500	0.01352
2440.38923	0.01346
2439.10346	0.01352
2437.81770	0.01374
2436.53193	0.01409
2435.24616	0.01449
2433.96039	0.01484
2432.67462	0.01503
2431.38885	0.01505
2430.10308	0.01499
2428.81731	0.01492
2427.53155	0.01481
2426.24578	0.01455
2424.96001	0.01420
2423.67424	0.01392
2422.38847	0.01381
2421.10270	0.01381
2419.81693	0.01381
2418.53116	0.01382
2417.24539	0.01396
2415.95963	0.01427
2414.67386	0.01461
2413.38809	0.01480
2412.10232	0.01479
2410.81655	0.01474
2409.53078	0.01483
2408.24501	0.01502
2406.95924	0.01516
2405.67347	0.01508
2404.38771	0.01477
2403.10194	0.01430
2401.81617	0.01378
2400.53040	0.01316
2399.24463	0.00922
2397.95886	0.00698
2396.67309	0.00761
2395.38732	0.00966
2394.10156	0.01199
2392.81579	0.01412
2391.53002	0.01600
2390.24425	0.01772
2388.95848	0.01940
2387.67271	0.02110
2386.38694	0.02277
2385.10117	0.02422
2383.81540	0.02522
2382.52964	0.02560
2381.24387	0.02540
2379.95810	0.02497
2378.67233	0.02460
2377.38656	0.02441
2376.10079	0.02479
2374.81502	0.02582
2373.52925	0.02728
2372.24349	0.02900
2370.95772	0.03047
2369.67195	0.03205
2368.38618	0.03361
2367.10041	0.03458
2365.81464	0.03564
2364.52887	0.03801
2363.24310	0.04088
2361.95733	0.04270
2360.67157	0.04328
2359.38580	0.04370
2358.10003	0.04371
2356.81426	0.04374
2355.52849	0.04479
2354.24272	0.04632
2352.95695	0.04799
2351.67118	0.04869
2350.38542	0.04717
2349.09965	0.04556
2347.81388	0.04581
2346.52811	0.04571
2345.24234	0.04371
2343.95657	0.04153
2342.67080	0.04111
2341.38503	0.04174
2340.09926	0.04218
2338.81350	0.04233
2337.52773	0.04218
2336.24196	0.04271
2334.95619	0.04325
2333.67042	0.04269
2332.38465	0.04207
2331.09888	0.04196
2329.81311	0.04255
2328.52735	0.04411
2327.24158	0.04483
2325.95581	0.04332
2324.67004	0.03991
2323.38427	0.03505
2322.09850	0.03012
2320.81273	0.02698
2319.52696	0.02546
2318.24119	0.02476
2316.95543	0.02450
2315.66966	0.02413
2314.38389	0.02332
2313.09812	0.02211
2311.81235	0.02109
2310.52658	0.02071
2309.24081	0.02084
2307.95504	0.02126
2306.66928	0.02176
2305.38351	0.02206
2304.09774	0.02218
2302.81197	0.02223
2301.52620	0.02234
2300.24043	0.02259
2298.95466	0.02295
2297.66889	0.02321
2296.38312	0.02311
2295.09736	0.02260
2293.81159	0.02176
2292.52582	0.02078
2291.24005	0.01984
2289.95428	0.01898
2288.66851	0.01812
2287.38274	0.01712
2286.09697	0.01596
2284.81121	0.01478
2283.52544	0.01384
2282.23967	0.01332
2280.95390	0.01312
2279.66813	0.01302
2278.38236	0.01281
2277.09659	0.01250
2275.81082	0.01224
2274.52505	0.01224
2273.23929	0.01260
2271.95352	0.01319
2270.66775	0.01380
2269.38198	0.01422
2268.09621	0.01438
2266.81044	0.01430
2265.52467	0.01401
2264.23890	0.01365
2262.95314	0.01339
2261.66737	0.01345
2260.38160	0.01375
2259.09583	0.01402
2257.81006	0.01411
2256.52429	0.01404
2255.23852	0.01394
2253.95275	0.01388
2252.66698	0.01388
2251.38122	0.01382
2250.09545	0.01297
2248.80968	0.01112
2247.52391	0.01110
2246.23814	0.01152
2244.95237	0.01209
2243.66660	0.01255
2242.38083	0.01273
2241.09507	0.01271
2239.80930	0.01262
2238.52353	0.01245
2237.23776	0.01208
2235.95199	0.01144
2234.66622	0.01066
2233.38045	0.01000
2232.09468	0.00968
2230.80891	0.00968
2229.52315	0.00974
2228.23738	0.00964
2226.95161	0.00940
2225.66584	0.00921
2224.38007	0.00899
2223.09430	0.00855
2221.80853	0.00793
2220.52276	0.00764
2219.23700	0.00800
2217.95123	0.00878
2216.66546	0.00940
2215.37969	0.00960
2214.09392	0.00962
2212.80815	0.00977
2211.52238	0.00992
2210.23661	0.00970
2208.95084	0.00902
2207.66508	0.00837
2206.37931	0.00836
2205.09354	0.00901
2203.80777	0.00969
2202.52200	0.00978
2201.23623	0.00913
2199.95046	0.00797
2198.66469	0.00677
2197.37893	0.00603
2196.09316	0.00607
2194.80739	0.00664
2193.52162	0.00715
2192.23585	0.00721
2190.95008	0.00698
2189.66431	0.00688
2188.37854	0.00717
2187.09277	0.00769
2185.80701	0.00801
2184.52124	0.00776
2183.23547	0.00712
2181.94970	0.00666
2180.66393	0.00677
2179.37816	0.00722
2178.09239	0.00749
2176.80662	0.00734
2175.52085	0.00688
2174.23509	0.00631
2172.94932	0.00576
2171.66355	0.00527
2170.37778	0.00489
2169.09201	0.00462
2167.80624	0.00439
2166.52047	0.00421
2165.23470	0.00432
2163.94894	0.00489
2162.66317	0.00561
2161.37740	0.00578
2160.09163	0.00503
2158.80586	0.00388
2157.52009	0.00332
2156.23432	0.00369
2154.94855	0.00444
2153.66278	0.00483
2152.37702	0.00452
2151.09125	0.00379
2149.80548	0.00324
2148.51971	0.00341
2147.23394	0.00445
2145.94817	0.00591
2144.66240	0.00706
2143.37663	0.00741
2142.09087	0.00713
2140.80510	0.00674
2139.51933	0.00651
2138.23356	0.00619
2136.94779	0.00552
2135.66202	0.00466
2134.37625	0.00397
2133.09048	0.00370
2131.80471	0.00386
2130.51895	0.00440
2129.23318	0.00525
2127.94741	0.00624
2126.66164	0.00706
2125.37587	0.00749
2124.09010	0.00753
2122.80433	0.00737
2121.51856	0.00723
2120.23280	0.00722
2118.94703	0.00732
2117.66126	0.00747
2116.37549	0.00765
2115.08972	0.00781
2113.80395	0.00790
2112.51818	0.00799
2111.23241	0.00823
2109.94664	0.00852
2108.66088	0.00849
2107.37511	0.00789
2106.08934	0.00699
2104.80357	0.00627
2103.51780	0.00596
2102.23203	0.00594
2100.94626	0.00613
2099.66049	0.00628
2098.37473	0.00653
2097.08896	0.00659
2095.80319	0.00629
2094.51742	0.00592
2093.23165	0.00585
2091.94588	0.00613
2090.66011	0.00642
2089.37434	0.00639
2088.08857	0.00614
2086.80281	0.00602
2085.51704	0.00622
2084.23127	0.00657
2082.94550	0.00672
2081.65973	0.00655
2080.37396	0.00623
2079.08819	0.00595
2077.80242	0.00573
2076.51666	0.00544
2075.23089	0.00504
2073.94512	0.00460
2072.65935	0.00423
2071.37358	0.00395
2070.08781	0.00374
2068.80204	0.00362
2067.51627	0.00367
2066.23050	0.00395
2064.94474	0.00439
2063.65897	0.00465
2062.37320	0.00440
2061.08743	0.00367
2059.80166	0.00287
2058.51589	0.00239
2057.23012	0.00227
2055.94435	0.00227
2054.65859	0.00212
2053.37282	0.00179
2052.08705	0.00150
2050.80128	0.00143
2049.51551	0.00151
2048.22974	0.00144
2046.94397	0.00103
2045.65820	0.00043
2044.37243	-0.00005
2043.08667	-0.00011
2041.80090	0.00041
2040.51513	0.00147
2039.22936	0.00264
2037.94359	0.00325
2036.65782	0.00303
2035.37205	0.00240
2034.08628	0.00204
2032.80052	0.00210
2031.51475	0.00210
2030.22898	0.00171
2028.94321	0.00105
2027.65744	0.00046
2026.37167	0.00015
2025.08590	0.00013
2023.80013	0.00030
2022.51436	0.00051
2021.22860	0.00076
2019.94283	0.00110
2018.65706	0.00153
2017.37129	0.00189
2016.08552	0.00200
2014.79975	0.00186
2013.51398	0.00169
2012.22821	0.00169
2010.94245	0.00180
2009.65668	0.00178
2008.37091	0.00138
2007.08514	0.00076
2005.79937	0.00037
2004.51360	0.00060
2003.22783	0.00144
2001.94206	0.00262
2000.65629	0.00388
1999.37053	0.00492
1998.08476	0.00542
1996.79899	0.00518
1995.51322	0.00438
1994.22745	0.00354
1992.94168	0.00324
1991.65591	0.00371
1990.37014	0.00470
1989.08438	0.00566
1987.79861	0.00619
1986.51284	0.00636
1985.22707	0.00656
1983.94130	0.00703
1982.65553	0.00765
1981.36976	0.00806
1980.08399	0.00796
1978.79822	0.00724
1977.51246	0.00604
1976.22669	0.00475
1974.94092	0.00380
1973.65515	0.00338
1972.36938	0.00337
1971.08361	0.00349
1969.79784	0.00356
1968.51207	0.00359
1967.22631	0.00368
1965.94054	0.00395
1964.65477	0.00434
1963.36900	0.00459
1962.08323	0.00444
1960.79746	0.00392
1959.51169	0.00337
1958.22592	0.00315
1956.94015	0.00338
1955.65439	0.00394
1954.36862	0.00463
1953.08285	0.00531
1951.79708	0.00582
1950.51131	0.00605
1949.22554	0.00599
1947.93977	0.00591
1946.65400	0.00606
1945.36823	0.00649
1944.08247	0.00701
1942.79670	0.00734
1941.51093	0.00734
1940.22516	0.00711
1938.93939	0.00683
1937.65362	0.00663
1936.36785	0.00651
1935.08208	0.00646
1933.79632	0.00658
1932.51055	0.00689
1931.22478	0.00733
1929.93901	0.00779
1928.65324	0.00821
1927.36747	0.00853
1926.08170	0.00861
1924.79593	0.00840
1923.51016	0.00798
1922.22440	0.00746
1920.93863	0.00696
1919.65286	0.00659
1918.36709	0.00648
1917.08132	0.00664
1915.79555	0.00696
1914.50978	0.00731
1913.22401	0.00754
1911.93825	0.00755
1910.65248	0.00732
1909.36671	0.00703
1908.08094	0.00694
1906.79517	0.00714
1905.50940	0.00742
1904.22363	0.00752
1902.93786	0.00737
1901.65209	0.00713
1900.36633	0.00705
1899.08056	0.00722
1897.79479	0.00750
1896.50902	0.00767
1895.22325	0.00759
1893.93748	0.00730
1892.65171	0.00697
1891.36594	0.00677
1890.08018	0.00676
1888.79441	0.00693
1887.50864	0.00719
1886.22287	0.00744
1884.93710	0.00758
1883.65133	0.00758
1882.36556	0.00747
1881.07979	0.00731
1879.79402	0.00720
1878.50826	0.00716
1877.22249	0.00719
1875.93672	0.00730
1874.65095	0.00740
1873.36518	0.00740
1872.07941	0.00723
1870.79364	0.00699
1869.50787	0.00686
1868.22211	0.00697
1866.93634	0.00724
1865.65057	0.00757
1864.36480	0.00787
1863.07903	0.00810
1861.79326	0.00823
1860.50749	0.00825
1859.22172	0.00818
1857.93595	0.00805
1856.65019	0.00796
1855.36442	0.00793
1854.07865	0.00798
1852.79288	0.00804
1851.50711	0.00805
1850.22134	0.00797
1848.93557	0.00787
1847.64980	0.00783
1846.36404	0.00786
1845.07827	0.00789
1843.79250	0.00784
1842.50673	0.00771
1841.22096	0.00754
1839.93519	0.00739
1838.64942	0.00735
1837.36365	0.00750
1836.07788	0.00785
1834.79212	0.00823
1833.50635	0.00848
1832.22058	0.00853
1830.93481	0.00848
1829.64904	0.00842
1828.36327	0.00836
1827.07750	0.00824
1825.79173	0.00807
1824.50597	0.00795
1823.22020	0.00794
1821.93443	0.00797
1820.64866	0.00793
1819.36289	0.00781
1818.07712	0.00775
1816.79135	0.00785
1815.50558	0.00808
1814.21981	0.00835
1812.93405	0.00859
1811.64828	0.00881
1810.36251	0.00900
1809.07674	0.00909
1807.79097	0.00906
1806.50520	0.00893
1805.21943	0.00879
1803.93366	0.00870
1802.64790	0.00866
1801.36213	0.00866
1800.07636	0.00868
1798.79059	0.00871
1797.50482	0.00875
1796.21905	0.00879
1794.93328	0.00886
1793.64751	0.00893
1792.36174	0.00900
1791.07598	0.00904
1789.79021	0.00903
1788.50444	0.00895
1787.21867	0.00879
1785.93290	0.00859
1784.64713	0.00845
1783.36136	0.00846
1782.07559	0.00862
1780.78983	0.00883
1779.50406	0.00896
1778.21829	0.00899
1776.93252	0.00899
1775.64675	0.00901
1774.36098	0.00906
1773.07521	0.00912
1771.78944	0.00916
1770.50367	0.00919
1769.21791	0.00922
1767.93214	0.00926
1766.64637	0.00934
1765.36060	0.00944
1764.07483	0.00950
1762.78906	0.00950
1761.50329	0.00945
1760.21752	0.00938
1758.93176	0.00935
1757.64599	0.00937
1756.36022	0.00942
1755.07445	0.00944
1753.78868	0.00941
1752.50291	0.00937
1751.21714	0.00941
1749.93137	0.00955
1748.64560	0.00975
1747.35984	0.00993
1746.07407	0.01000
1744.78830	0.00994
1743.50253	0.00982
1742.21676	0.00972
1740.93099	0.00974
1739.64522	0.00983
1738.35945	0.00988
1737.07369	0.00985
1735.78792	0.00978
1734.50215	0.00977
1733.21638	0.00989
1731.93061	0.01006
1730.64484	0.01023
1729.35907	0.01036
1728.07330	0.01049
1726.78753	0.01064
1725.50177	0.01080
1724.21600	0.01095
1722.93023	0.01105
1721.64446	0.01111
1720.35869	0.01114
1719.07292	0.01117
1717.78715	0.01123
1716.50138	0.01138
1715.21561	0.01160
1713.92985	0.01187
1712.64408	0.01216
1711.35831	0.01242
1710.07254	0.01265
1708.78677	0.01281
1707.50100	0.01291
1706.21523	0.01295
1704.92946	0.01298
1703.64370	0.01298
1702.35793	0.01295
1701.07216	0.01294
1699.78639	0.01302
1698.50062	0.01321
1697.21485	0.01348
1695.92908	0.01382
1694.64331	0.01419
1693.35754	0.01452
1692.07178	0.01478
1690.78601	0.01495
1689.50024	0.01504
1688.21447	0.01504
1686.92870	0.01492
1685.64293	0.01477
1684.35716	0.01474
1683.07139	0.01493
1681.78563	0.01532
1680.49986	0.01574
1679.21409	0.01604
1677.92832	0.01619
1676.64255	0.01628
1675.35678	0.01642
1674.07101	0.01661
1672.78524	0.01679
1671.49947	0.01691
1670.21371	0.01699
1668.92794	0.01711
1667.64217	0.01729
1666.35640	0.01750
1665.07063	0.01770
1663.78486	0.01789
1662.49909	0.01808
1661.21332	0.01828
1659.92756	0.01846
1658.64179	0.01859
1657.35602	0.01859
1656.07025	0.01848
1654.78448	0.01834
1653.49871	0.01831
1652.21294	0.01845
1650.92717	0.01870
1649.64140	0.01894
1648.35564	0.01909
1647.06987	0.01917
1645.78410	0.01924
1644.49833	0.01933
1643.21256	0.01945
1641.92679	0.01958
1640.64102	0.01966
1639.35525	0.01967
1638.06949	0.01961
1636.78372	0.01957
1635.49795	0.01960
1634.21218	0.01975
1632.92641	0.01997
1631.64064	0.02018
1630.35487	0.02034
1629.06910	0.02043
1627.78333	0.02047
1626.49757	0.02050
1625.21180	0.02054
1623.92603	0.02059
1622.64026	0.02061
1621.35449	0.02059
1620.06872	0.02050
1618.78295	0.02040
1617.49718	0.02039
1616.21142	0.02051
1614.92565	0.02075
1613.63988	0.02104
1612.35411	0.02128
1611.06834	0.02143
1609.78257	0.02151
1608.49680	0.02159
1607.21103	0.02169
1605.92526	0.02180
1604.63950	0.02189
1603.35373	0.02194
1602.06796	0.02196
1600.78219	0.02196
1599.49642	0.02197
1598.21065	0.02199
1596.92488	0.02203
1595.63911	0.02209
1594.35335	0.02218
1593.06758	0.02227
1591.78181	0.02236
1590.49604	0.02246
1589.21027	0.02257
1587.92450	0.02270
1586.63873	0.02285
1585.35296	0.02298
1584.06719	0.02310
1582.78143	0.02320
1581.49566	0.02329
1580.20989	0.02337
1578.92412	0.02347
1577.63835	0.02360
1576.35258	0.02380
1575.06681	0.02405
1573.78104	0.02429
1572.49528	0.02445
1571.20951	0.02454
1569.92374	0.02464
1568.63797	0.02478
1567.35220	0.02497
1566.06643	0.02517
1564.78066	0.02534
1563.49489	0.02544
1562.20912	0.02546
1560.92336	0.02542
1559.63759	0.02539
1558.35182	0.02545
1557.06605	0.02564
1555.78028	0.02592
1554.49451	0.02624
1553.20874	0.02656
1551.92297	0.02683
1550.63721	0.02703
1549.35144	0.02714
1548.06567	0.02718
1546.77990	0.02718
1545.49413	0.02716
1544.20836	0.02711
1542.92259	0.02702
1541.63682	0.02695
1540.35105	0.02695
1539.06529	0.02701
1537.77952	0.02708
1536.49375	0.02712
1535.20798	0.02711
1533.92221	0.02711
1532.63644	0.02716
1531.35067	0.02728
1530.06490	0.02747
1528.77914	0.02771
1527.49337	0.02797
1526.20760	0.02824
1524.92183	0.02849
1523.63606	0.02873
1522.35029	0.02900
1521.06452	0.02938
1519.77875	0.02986
1518.49298	0.03041
1517.20722	0.03100
1515.92145	0.03160
1514.63568	0.03220
1513.34991	0.03279
1512.06414	0.03338
1510.77837	0.03396
1509.49260	0.03456
1508.20683	0.03518
1506.92107	0.03587
1505.63530	0.03663
1504.34953	0.03739
1503.06376	0.03808
1501.77799	0.03868
1500.49222	0.03919
1499.20645	0.03967
1497.92068	0.04014
1496.63491	0.04062
1495.34915	0.04109
1494.06338	0.04154
1492.77761	0.04197
1491.49184	0.04239
1490.20607	0.04278
1488.92030	0.04318
1487.63453	0.04365
1486.34876	0.04422
1485.06299	0.04487
1483.77723	0.04555
1482.49146	0.04620
1481.20569	0.04683
1479.91992	0.04748
1478.63415	0.04819
1477.34838	0.04891
1476.06261	0.04960
1474.77684	0.05023
1473.49108	0.05081
1472.20531	0.05134
1470.91954	0.05184
1469.63377	0.05230
1468.34800	0.05269
1467.06223	0.05300
1465.77646	0.05324
1464.49069	0.05346
1463.20492	0.05369
1461.91916	0.05395
1460.63339	0.05420
1459.34762	0.05445
1458.06185	0.05474
1456.77608	0.05510
1455.49031	0.05550
1454.20454	0.05582
1452.91877	0.05602
1451.63301	0.05612
1450.34724	0.05620
1449.06147	0.05627
1447.77570	0.05631
1446.48993	0.05626
1445.20416	0.05611
1443.91839	0.05589
1442.63262	0.05561
1441.34685	0.05532
1440.06109	0.05504
1438.77532	0.05481
1437.48955	0.05470
1436.20378	0.05473
1434.91801	0.05489
1433.63224	0.05511
1432.34647	0.05539
1431.06070	0.05576
1429.77494	0.05628
1428.48917	0.05696
1427.20340	0.05774
1425.91763	0.05855
1424.63186	0.05934
1423.34609	0.06007
1422.06032	0.06076
1420.77455	0.06143
1419.48878	0.06208
1418.20302	0.06266
1416.91725	0.06311
1415.63148	0.06341
1414.34571	0.06360
1413.05994	0.06373
1411.77417	0.06377
1410.48840	0.06369
1409.20263	0.06346
1407.91687	0.06307
1406.63110	0.06252
1405.34533	0.06180
1404.05956	0.06090
1402.77379	0.05986
1401.48802	0.05873
1400.20225	0.05756
1398.91648	0.05640
1397.63071	0.05527
1396.34495	0.05417
1395.05918	0.05306
1393.77341	0.05191
1392.48764	0.05073
1391.20187	0.04955
1389.91610	0.04838
1388.63033	0.04721
1387.34456	0.04609
1386.05880	0.04506
1384.77303	0.04411
1383.48726	0.04317
1382.20149	0.04216
1380.91572	0.04109
1379.62995	0.04000
1378.34418	0.03896
1377.05841	0.03794
1375.77264	0.03691
1374.48688	0.03584
1373.20111	0.03473
1371.91534	0.03361
1370.62957	0.03255
1369.34380	0.03160
1368.05803	0.03075
1366.77226	0.02997
1365.48649	0.02921
1364.20073	0.02844
1362.91496	0.02766
1361.62919	0.02689
1360.34342	0.02616
1359.05765	0.02549
1357.77188	0.02490
1356.48611	0.02435
1355.20034	0.02382
1353.91457	0.02332
1352.62881	0.02287
1351.34304	0.02249
1350.05727	0.02214
1348.77150	0.02180
1347.48573	0.02146
1346.19996	0.02114
1344.91419	0.02085
1343.62842	0.02056
1342.34266	0.02024
1341.05689	0.01991
1339.77112	0.01959
1338.48535	0.01932
1337.19958	0.01910
1335.91381	0.01889
1334.62804	0.01869
1333.34227	0.01847
1332.05650	0.01823
1330.77074	0.01799
1329.48497	0.01780
1328.19920	0.01767
1326.91343	0.01761
1325.62766	0.01757
1324.34189	0.01750
1323.05612	0.01737
1321.77035	0.01721
1320.48459	0.01704
1319.19882	0.01688
1317.91305	0.01673
1316.62728	0.01654
1315.34151	0.01633
1314.05574	0.01611
1312.76997	0.01595
1311.48420	0.01585
1310.19843	0.01578
1308.91267	0.01573
1307.62690	0.01566
1306.34113	0.01559
1305.05536	0.01552
1303.76959	0.01546
1302.48382	0.01540
1301.19805	0.01532
1299.91228	0.01521
1298.62652	0.01507
1297.34075	0.01495
1296.05498	0.01488
1294.76921	0.01483
1293.48344	0.01475
1292.19767	0.01461
1290.91190	0.01445
1289.62613	0.01431
1288.34036	0.01425
1287.05460	0.01424
1285.76883	0.01425
1284.48306	0.01421
1283.19729	0.01410
1281.91152	0.01394
1280.62575	0.01377
1279.33998	0.01365
1278.05421	0.01359
1276.76845	0.01355
1275.48268	0.01352
1274.19691	0.01346
1272.91114	0.01340
1271.62537	0.01333
1270.33960	0.01328
1269.05383	0.01322
1267.76806	0.01317
1266.48229	0.01312
1265.19653	0.01307
1263.91076	0.01302
1262.62499	0.01293
1261.33922	0.01281
1260.05345	0.01269
1258.76768	0.01259
1257.48191	0.01252
1256.19614	0.01248
1254.91037	0.01245
1253.62461	0.01243
1252.33884	0.01242
1251.05307	0.01241
1249.76730	0.01240
1248.48153	0.01239
1247.19576	0.01236
1245.90999	0.01230
1244.62422	0.01221
1243.33846	0.01210
1242.05269	0.01200
1240.76692	0.01192
1239.48115	0.01185
1238.19538	0.01180
1236.90961	0.01177
1235.62384	0.01175
1234.33807	0.01171
1233.05230	0.01167
1231.76654	0.01161
1230.48077	0.01155
1229.19500	0.01148
1227.90923	0.01141
1226.62346	0.01136
1225.33769	0.01132
1224.05192	0.01127
1222.76615	0.01122
1221.48039	0.01119
1220.19462	0.01120
1218.90885	0.01123
1217.62308	0.01127
1216.33731	0.01126
1215.05154	0.01121
1213.76577	0.01113
1212.48000	0.01108
1211.19423	0.01108
1209.90847	0.01109
1208.62270	0.01107
1207.33693	0.01102
1206.05116	0.01097
1204.76539	0.01094
1203.47962	0.01090
1202.19385	0.01088
1200.90808	0.01088
1199.62232	0.01091
1198.33655	0.01090
1197.05078	0.01088
1195.76501	0.01087
1194.47924	0.01085
1193.19347	0.01078
1191.90770	0.01067
1190.62193	0.01058
1189.33616	0.01054
1188.05040	0.01055
1186.76463	0.01057
1185.47886	0.01058
1184.19309	0.01060
1182.90732	0.01064
1181.62155	0.01071
1180.33578	0.01079
1179.05001	0.01088
1177.76425	0.01097
1176.47848	0.01106
1175.19271	0.01113
1173.90694	0.01120
1172.62117	0.01128
1171.33540	0.01140
1170.04963	0.01153
1168.76386	0.01163
1167.47809	0.01166
1166.19233	0.01165
1164.90656	0.01169
1163.62079	0.01185
1162.33502	0.01211
1161.04925	0.01237
1159.76348	0.01258
1158.47771	0.01276
1157.19194	0.01293
1155.90618	0.01310
1154.62041	0.01329
1153.33464	0.01355
1152.04887	0.01388
1150.76310	0.01424
1149.47733	0.01459
1148.19156	0.01494
1146.90579	0.01532
1145.62002	0.01578
1144.33426	0.01631
1143.04849	0.01690
1141.76272	0.01752
1140.47695	0.01823
1139.19118	0.01903
1137.90541	0.01994
1136.61964	0.02090
1135.33387	0.02188
1134.04811	0.02288
1132.76234	0.02400
1131.47657	0.02531
1130.19080	0.02686
1128.90503	0.02860
1127.61926	0.03045
1126.33349	0.03239
1125.04772	0.03445
1123.76195	0.03661
1122.47619	0.03884
1121.19042	0.04112
1119.90465	0.04346
1118.61888	0.04587
1117.33311	0.04831
1116.04734	0.05077
1114.76157	0.05321
1113.47580	0.05564
1112.19004	0.05804
1110.90427	0.06039
1109.61850	0.06268
1108.33273	0.06486
1107.04696	0.06695
1105.76119	0.06895
1104.47542	0.07087
1103.18965	0.07272
1101.90388	0.07449
1100.61812	0.07623
1099.33235	0.07794
1098.04658	0.07966
1096.76081	0.08131
1095.47504	0.08285
1094.18927	0.08425
1092.90350	0.08554
1091.61773	0.08677
1090.33197	0.08799
1089.04620	0.08921
1087.76043	0.09047
1086.47466	0.09181
1085.18889	0.09323
1083.90312	0.09469
1082.61735	0.09611
1081.33158	0.09752
1080.04581	0.09897
1078.76005	0.10056
1077.47428	0.10233
1076.18851	0.10427
1074.90274	0.10631
1073.61697	0.10837
1072.33120	0.11040
1071.04543	0.11239
1069.75966	0.11438
1068.47390	0.11648
1067.18813	0.11872
1065.90236	0.12111
1064.61659	0.12354
1063.33082	0.12593
1062.04505	0.12827
1060.75928	0.13060
1059.47351	0.13292
1058.18774	0.13517
1056.90198	0.13728
1055.61621	0.13928
1054.33044	0.14124
1053.04467	0.14326
1051.75890	0.14539
1050.47313	0.14763
1049.18736	0.14991
1047.90159	0.15221
1046.61583	0.15453
1045.33006	0.15690
1044.04429	0.15935
1042.75852	0.16185
1041.47275	0.16434
1040.18698	0.16678
1038.90121	0.16919
1037.61544	0.17160
1036.32967	0.17400
1035.04391	0.17629
1033.75814	0.17841
1032.47237	0.18033
1031.18660	0.18203
1029.90083	0.18348
1028.61506	0.18463
1027.32929	0.18548
1026.04352	0.18605
1024.75775	0.18639
1023.47199	0.18653
1022.18622	0.18645
1020.90045	0.18612
1019.61468	0.18547
1018.32891	0.18446
1017.04314	0.18305
1015.75737	0.18122
1014.47160	0.17900
1013.18584	0.17642
1011.90007	0.17354
1010.61430	0.17043
1009.32853	0.16709
1008.04276	0.16347
1006.75699	0.15953
1005.47122	0.15528
1004.18545	0.15076
1002.89968	0.14605
1001.61392	0.14121
1000.32815	0.13624
999.04238	0.13118
997.75661	0.12607
996.47084	0.12098
995.18507	0.11598
993.89930	0.11103
992.61353	0.10615
991.32777	0.10137
990.04200	0.09676
988.75623	0.09238
987.47046	0.08829
986.18469	0.08453
984.89892	0.08108
983.61315	0.07786
982.32738	0.07478
981.04161	0.07183
979.75585	0.06905
978.47008	0.06645
977.18431	0.06409
975.89854	0.06203
974.61277	0.06035
973.32700	0.05906
972.04123	0.05817
970.75546	0.05760
969.46970	0.05733
968.18393	0.05731
966.89816	0.05757
965.61239	0.05808
964.32662	0.05878
963.04085	0.05949
961.75508	0.05999
960.46931	0.06009
959.18354	0.05972
957.89778	0.05893
956.61201	0.05777
955.32624	0.05634
954.04047	0.05473
952.75470	0.05310
951.46893	0.05157
950.18316	0.05011
948.89739	0.04868
947.61163	0.04723
946.32586	0.04581
945.04009	0.04445
943.75432	0.04314
942.46855	0.04187
941.18278	0.04063
939.89701	0.03944
938.61124	0.03832
937.32547	0.03733
936.03971	0.03651
934.75394	0.03584
933.46817	0.03521
932.18240	0.03456
930.89663	0.03390
929.61086	0.03334
928.32509	0.03289
927.03932	0.03251
925.75356	0.03213
924.46779	0.03172
923.18202	0.03127
921.89625	0.03079
920.61048	0.03031
919.32471	0.02988
918.03894	0.02952
916.75317	0.02924
915.46740	0.02900
914.18164	0.02875
912.89587	0.02847
911.61010	0.02820
910.32433	0.02801
909.03856	0.02792
907.75279	0.02787
906.46702	0.02779
905.18125	0.02761
903.89549	0.02732
902.60972	0.02699
901.32395	0.02669
900.03818	0.02646
898.75241	0.02628
897.46664	0.02617
896.18087	0.02614
894.89510	0.02619
893.60933	0.02630
892.32357	0.02647
891.03780	0.02668
889.75203	0.02695
888.46626	0.02734
887.18049	0.02792
885.89472	0.02880
884.60895	0.03007
883.32318	0.03173
882.03742	0.03370
880.75165	0.03568
879.46588	0.03730
878.18011	0.03840
876.89434	0.03915
875.60857	0.03984
874.32280	0.04058
873.03703	0.04114
871.75126	0.04124
870.46550	0.04077
869.17973	0.03984
867.89396	0.03857
866.60819	0.03709
865.32242	0.03552
864.03665	0.03399
862.75088	0.03263
861.46511	0.03146
860.17935	0.03046
858.89358	0.02959
857.60781	0.02884
856.32204	0.02820
855.03627	0.02765
853.75050	0.02719
852.46473	0.02679
851.17896	0.02643
849.89319	0.02610
848.60743	0.02582
847.32166	0.02560
846.03589	0.02540
844.75012	0.02519
843.46435	0.02496
842.17858	0.02473
840.89281	0.02453
839.60704	0.02439
838.32128	0.02429
837.03551	0.02421
835.74974	0.02413
834.46397	0.02405
833.17820	0.02396
831.89243	0.02383
830.60666	0.02366
829.32089	0.02347
828.03512	0.02333
826.74936	0.02329
825.46359	0.02328
824.17782	0.02325
822.89205	0.02316
821.60628	0.02308
820.32051	0.02308
819.03474	0.02316
817.74897	0.02323
816.46321	0.02322
815.17744	0.02311
813.89167	0.02297
812.60590	0.02288
811.32013	0.02289
810.03436	0.02297
808.74859	0.02307
807.46282	0.02309
806.17705	0.02301
804.89129	0.02288
803.60552	0.02281
802.31975	0.02286
801.03398	0.02303
799.74821	0.02324
798.46244	0.02337
797.17667	0.02334
795.89090	0.02313
794.60513	0.02283
793.31937	0.02259
792.03360	0.02249
790.74783	0.02252
789.46206	0.02262
788.17629	0.02273
786.89052	0.02279
785.60475	0.02283
784.31898	0.02284
783.03322	0.02281
781.74745	0.02275
780.46168	0.02270
779.17591	0.02269
777.89014	0.02270
776.60437	0.02267
775.31860	0.02260
774.03283	0.02254
772.74706	0.02250
771.46130	0.02246
770.17553	0.02242
768.88976	0.02244
767.60399	0.02254
766.31822	0.02268
765.03245	0.02275
763.74668	0.02269
762.46091	0.02257
761.17515	0.02248
759.88938	0.02246
758.60361	0.02252
757.31784	0.02263
756.03207	0.02277
754.74630	0.02291
753.46053	0.02299
752.17476	0.02296
750.88899	0.02285
749.60323	0.02272
748.31746	0.02261
747.03169	0.02258
745.74592	0.02261
744.46015	0.02267
743.17438	0.02271
741.88861	0.02275
740.60284	0.02279
739.31708	0.02286
738.03131	0.02294
736.74554	0.02299
735.45977	0.02297
734.17400	0.02292
732.88823	0.02290
731.60246	0.02297
730.31669	0.02307
729.03092	0.02311
727.74516	0.02306
726.45939	0.02296
725.17362	0.02296
723.88785	0.02360
722.60208	0.02317
721.31631	0.02203
720.03054	0.02102
718.74477	0.02045
717.45901	0.02038
716.17324	0.02061
714.88747	0.02098
713.60170	0.02144
712.31593	0.02192
711.03016	0.02234
709.74439	0.02265
708.45862	0.02285
707.17285	0.02298
705.88709	0.02307
704.60132	0.02313
703.31555	0.02317
702.02978	0.02321
700.74401	0.02319
699.45824	0.02306
698.17247	0.02277
696.88670	0.02234
695.60094	0.02190
694.31517	0.02156
693.02940	0.02139
691.74363	0.02134
690.45786	0.02134
689.17209	0.02132
687.88632	0.02131
686.60055	0.02132
685.31478	0.02140
684.02902	0.02156
682.74325	0.02179
681.45748	0.02206
680.17171	0.02233
678.88594	0.02263
677.60017	0.02299
676.31440	0.02339
675.02863	0.02361
673.74287	0.02302
672.45710	0.02083
671.17133	0.01748
669.88556	0.01593
668.59979	0.01808
667.31402	0.01945
666.02825	0.01887
664.74248	0.02007
663.45671	0.02212
662.17095	0.02317
660.88518	0.02318
659.59941	0.02279
658.31364	0.02240
657.02787	0.02212
655.74210	0.02191
654.45633	0.02172
653.17056	0.02156
651.88480	0.02141
650.59903	0.02134
649.31326	0.02144
648.02749	0.02168
646.74172	0.02198
645.45595	0.02223
644.17018	0.02238
642.88441	0.02249
641.59864	0.02263
640.31288	0.02289
639.02711	0.02326
637.74134	0.02368
636.45557	0.02408
635.16980	0.02442
633.88403	0.02476
632.59826	0.02514
631.31249	0.02555
630.02673	0.02590
628.74096	0.02626
627.45519	0.02693
626.16942	0.02724
624.88365	0.02767
623.59788	0.02879
622.31211	0.03057
621.02634	0.03254
619.74057	0.03441
618.45481	0.03617
617.16904	0.03779
615.88327	0.03926
614.59750	0.04071
613.31173	0.04220
612.02596	0.04381
610.74019	0.04598
609.45442	0.04932
608.16866	0.05387
606.88289	0.05889
605.59712	0.06354
604.31135	0.06716
603.02558	0.06930
601.73981	0.06982
600.45404	0.06903
599.16827	0.06740
597.88250	0.06531
596.59674	0.06300
595.31097	0.06073
594.02520	0.05882
592.73943	0.05747
591.45366	0.05673
590.16789	0.05648
588.88212	0.05661
587.59635	0.05704
586.31059	0.05775
585.02482	0.05871
583.73905	0.05995
582.45328	0.06149
581.16751	0.06333
579.88174	0.06535
578.59597	0.06747
577.31020	0.06961
576.02443	0.07171
574.73867	0.07366
573.45290	0.07537
572.16713	0.07682
570.88136	0.07827
569.59559	0.08009
568.30982	0.08247
567.02405	0.08524
565.73828	0.08796
564.45251	0.09016
563.16675	0.09153
561.88098	0.09189
560.59521	0.09111
559.30944	0.08916
558.02367	0.08612
556.73790	0.08228
555.45213	0.07794
554.16636	0.07339
552.88060	0.06880
551.59483	0.06430
550.30906	0.06001
549.02329	0.05610
547.73752	0.05274
546.45175	0.04998
545.16598	0.04775
543.88021	0.04580
542.59444	0.04394
541.30868	0.04209
540.02291	0.04033
538.73714	0.03879
537.45137	0.03753
536.16560	0.03653
534.87983	0.03561
533.59406	0.03462
532.30829	0.03351
531.02253	0.03237
529.73676	0.03134
528.45099	0.03050
527.16522	0.02980
525.87945	0.02919
524.59368	0.02864
523.30791	0.02813
522.02214	0.02766
520.73637	0.02718
519.45061	0.02666
518.16484	0.02610
516.87907	0.02557
515.59330	0.02511
514.30753	0.02474
513.02176	0.02448
511.73599	0.02430
510.45022	0.02417
509.16446	0.02405
507.87869	0.02390
506.59292	0.02365
505.30715	0.02326
504.02138	0.02276
502.73561	0.02229
501.44984	0.02191
500.16407	0.02164
498.87830	0.02141
497.59254	0.02123
496.30677	0.02113
495.02100	0.02109
493.73523	0.02104
492.44946	0.02095
491.16369	0.02083
489.87792	0.02075
488.59215	0.02073
487.30639	0.02077
486.02062	0.02084
484.73485	0.02088
483.44908	0.02089
482.16331	0.02091
480.87754	0.02096
479.59177	0.02101
478.30600	0.02104
477.02023	0.02107
475.73447	0.02114
474.44870	0.02129
473.16293	0.02148
471.87716	0.02164
470.59139	0.02172
469.30562	0.02171
468.01985	0.02164
466.73408	0.02152
465.44832	0.02138
464.16255	0.02124
462.87678	0.02109
461.59101	0.02094
460.30524	0.02077
459.01947	0.02059
457.73370	0.02040
456.44793	0.02020
455.16216	0.02000
453.87640	0.01979
452.59063	0.01959
451.30486	0.01944
450.01909	0.01937
448.73332	0.01937
447.44755	0.01940
446.16178	0.01944
444.87601	0.01949
443.59025	0.01953
442.30448	0.01954
441.01871	0.01951
439.73294	0.01946
438.44717	0.01941
437.16140	0.01939
435.87563	0.01941
434.58986	0.01946
433.30409	0.01950
432.01833	0.01952
430.73256	0.01952
429.44679	0.01950
428.16102	0.01946
426.87525	0.01939
425.58948	0.01928
424.30371	0.01916
423.01794	0.01903
421.73218	0.01894
420.44641	0.01895
419.16064	0.01905
417.87487	0.01921
416.58910	0.01934
415.30333	0.01942
414.01756	0.01943
412.73179	0.01941
411.44602	0.01939
410.16026	0.01938
408.87449	0.01939
407.58872	0.01944
406.30295	0.01952
405.01718	0.01965
403.73141	0.01979
402.44564	0.01995
401.15987	0.02010
399.87411	0.02027
