3997.45528	0.03359
3996.16951	0.03327
3994.88374	0.03283
3993.59798	0.03245
3992.31221	0.03239
3991.02644	0.03261
3989.74067	0.03290
3988.45490	0.03316
3987.16913	0.03353
3985.88336	0.03412
3984.59759	0.03486
3983.31183	0.03550
3982.02606	0.03570
3980.74029	0.03528
3979.45452	0.03437
3978.16875	0.03344
3976.88298	0.03296
3975.59721	0.03303
3974.31144	0.03344
3973.02567	0.03390
3971.73991	0.03422
3970.45414	0.03433
3969.16837	0.03429
3967.88260	0.03426
3966.59683	0.03436
3965.31106	0.03452
3964.02529	0.03453
3962.73952	0.03427
3961.45376	0.03385
3960.16799	0.03341
3958.88222	0.03304
3957.59645	0.03283
3956.31068	0.03294
3955.02491	0.03345
3953.73914	0.03411
3952.45337	0.03453
3951.16760	0.03458
3949.88184	0.03448
3948.59607	0.03450
3947.31030	0.03467
3946.02453	0.03483
3944.73876	0.03485
3943.45299	0.03473
3942.16722	0.03454
3940.88145	0.03429
3939.59569	0.03397
3938.30992	0.03359
3937.02415	0.03322
3935.73838	0.03299
3934.45261	0.03300
3933.16684	0.03321
3931.88107	0.03347
3930.59530	0.03360
3929.30953	0.03350
3928.02377	0.03316
3926.73800	0.03259
3925.45223	0.03191
3924.16646	0.03135
3922.88069	0.03113
3921.59492	0.03137
3920.30915	0.03198
3919.02338	0.03270
3917.73762	0.03323
3916.45185	0.03345
3915.16608	0.03346
3913.88031	0.03334
3912.59454	0.03303
3911.30877	0.03247
3910.02300	0.03185
3908.73723	0.03152
3907.45146	0.03161
3906.16570	0.03194
3904.87993	0.03212
3903.59416	0.03200
3902.30839	0.03178
3901.02262	0.03183
3899.73685	0.03232
3898.45108	0.03301
3897.16531	0.03356
3895.87955	0.03385
3894.59378	0.03400
3893.30801	0.03403
3892.02224	0.03388
3890.73647	0.03366
3889.45070	0.03367
3888.16493	0.03399
3886.87916	0.03444
3885.59339	0.03477
3884.30763	0.03481
3883.02186	0.03455
3881.73609	0.03417
3880.45032	0.03401
3879.16455	0.03418
3877.87878	0.03442
3876.59301	0.03438
3875.30724	0.03401
3874.02148	0.03348
3872.73571	0.03299
3871.44994	0.03267
3870.16417	0.03270
3868.87840	0.03314
3867.59263	0.03372
3866.30686	0.03409
3865.02109	0.03419
3863.73532	0.03410
3862.44956	0.03385
3861.16379	0.03351
3859.87802	0.03321
3858.59225	0.03302
3857.30648	0.03288
3856.02071	0.03267
3854.73494	0.03244
3853.44917	0.03236
3852.16341	0.03234
3850.87764	0.03214
3849.59187	0.03180
3848.30610	0.03155
3847.02033	0.03146
3845.73456	0.03141
3844.44879	0.03139
3843.16302	0.03152
3841.87725	0.03182
3840.59149	0.03200
3839.30572	0.03177
3838.01995	0.03130
3836.73418	0.03101
3835.44841	0.03107
3834.16264	0.03128
3832.87687	0.03144
3831.59110	0.03154
3830.30534	0.03164
3829.01957	0.03173
3827.73380	0.03181
3826.44803	0.03204
3825.16226	0.03235
3823.87649	0.03232
3822.59072	0.03165
3821.30495	0.03074
3820.01918	0.03027
3818.73342	0.03034
3817.44765	0.03047
3816.16188	0.03033
3814.87611	0.02997
3813.59034	0.02970
3812.30457	0.02984
3811.01880	0.03052
3809.73303	0.03144
3808.44726	0.03212
3807.16150	0.03242
3805.87573	0.03248
3804.58996	0.03242
3803.30419	0.03233
3802.01842	0.03235
3800.73265	0.03247
3799.44688	0.03240
3798.16111	0.03201
3796.87535	0.03166
3795.58958	0.03180
3794.30381	0.03252
3793.01804	0.03360
3791.73227	0.03459
3790.44650	0.03495
3789.16073	0.03432
3787.87496	0.03286
3786.58919	0.03123
3785.30343	0.03009
3784.01766	0.02971
3782.73189	0.02991
3781.44612	0.03026
3780.16035	0.03047
3778.87458	0.03057
3777.58881	0.03077
3776.30304	0.03123
3775.01728	0.03191
3773.73151	0.03254
3772.44574	0.03280
3771.15997	0.03262
3769.87420	0.03214
3768.58843	0.03161
3767.30266	0.03116
3766.01689	0.03085
3764.73112	0.03068
3763.44536	0.03063
3762.15959	0.03071
3760.87382	0.03101
3759.58805	0.03147
3758.30228	0.03170
3757.01651	0.03136
3755.73074	0.03054
3754.44497	0.02975
3753.15921	0.02955
3751.87344	0.03010
3750.58767	0.03103
3749.30190	0.03184
3748.01613	0.03222
3746.73036	0.03210
3745.44459	0.03172
3744.15882	0.03152
3742.87305	0.03154
3741.58729	0.03133
3740.30152	0.03075
3739.01575	0.03021
3737.72998	0.03019
3736.44421	0.03085
3735.15844	0.03178
3733.87267	0.03228
3732.58690	0.03191
3731.30114	0.03087
3730.01537	0.02970
3728.72960	0.02885
3727.44383	0.02860
3726.15806	0.02900
3724.87229	0.02973
3723.58652	0.03034
3722.30075	0.03050
3721.01498	0.03028
3719.72922	0.02992
3718.44345	0.02963
3717.15768	0.02953
3715.87191	0.02961
3714.58614	0.02977
3713.30037	0.02987
3712.01460	0.02980
3710.72883	0.02968
3709.44307	0.02972
3708.15730	0.03003
3706.87153	0.03038
3705.58576	0.03046
3704.29999	0.03020
3703.01422	0.02980
3701.72845	0.02940
3700.44268	0.02901
3699.15691	0.02866
3697.87115	0.02845
3696.58538	0.02855
3695.29961	0.02899
3694.01384	0.02945
3692.72807	0.02945
3691.44230	0.02892
3690.15653	0.02829
3688.87076	0.02810
3687.58500	0.02846
3686.29923	0.02907
3685.01346	0.02946
3683.72769	0.02949
3682.44192	0.02929
3681.15615	0.02897
3679.87038	0.02869
3678.58461	0.02855
3677.29884	0.02850
3676.01308	0.02853
3674.72731	0.02872
3673.44154	0.02901
3672.15577	0.02921
3670.87000	0.02929
3669.58423	0.02944
3668.29846	0.02975
3667.01269	0.03015
3665.72693	0.03051
3664.44116	0.03080
3663.15539	0.03102
3661.86962	0.03115
3660.58385	0.03104
3659.29808	0.03053
3658.01231	0.02968
3656.72654	0.02889
3655.44077	0.02859
3654.15501	0.02897
3652.86924	0.02991
3651.58347	0.03108
3650.29770	0.03201
3649.01193	0.03233
3647.72616	0.03202
3646.44039	0.03155
3645.15462	0.03141
3643.86886	0.03180
3642.58309	0.03250
3641.29732	0.03314
3640.01155	0.03349
3638.72578	0.03360
3637.44001	0.03357
3636.15424	0.03343
3634.86847	0.03313
3633.58270	0.03281
3632.29694	0.03271
3631.01117	0.03297
3629.72540	0.03353
3628.43963	0.03417
3627.15386	0.03461
3625.86809	0.03477
3624.58232	0.03477
3623.29655	0.03463
3622.01079	0.03415
3620.72502	0.03321
3619.43925	0.03213
3618.15348	0.03140
3616.86771	0.03133
3615.58194	0.03199
3614.29617	0.03323
3613.01040	0.03466
3611.72463	0.03570
3610.43887	0.03598
3609.15310	0.03563
3607.86733	0.03511
3606.58156	0.03472
3605.29579	0.03446
3604.01002	0.03424
3602.72425	0.03405
3601.43848	0.03401
3600.15272	0.03436
3598.86695	0.03527
3597.58118	0.03659
3596.29541	0.03790
3595.00964	0.03884
3593.72387	0.03939
3592.43810	0.03967
3591.15233	0.03972
3589.86656	0.03955
3588.58080	0.03924
3587.29503	0.03884
3586.00926	0.03836
3584.72349	0.03789
3583.43772	0.03767
3582.15195	0.03807
3580.86618	0.03911
3579.58041	0.04031
3578.29464	0.04118
3577.00888	0.04167
3575.72311	0.04206
3574.43734	0.04251
3573.15157	0.04286
3571.86580	0.04285
3570.58003	0.04251
3569.29426	0.04203
3568.00849	0.04162
3566.72273	0.04139
3565.43696	0.04143
3564.15119	0.04173
3562.86542	0.04213
3561.57965	0.04236
3560.29388	0.04227
3559.00811	0.04204
3557.72234	0.04191
3556.43657	0.04201
3555.15081	0.04226
3553.86504	0.04253
3552.57927	0.04271
3551.29350	0.04278
3550.00773	0.04273
3548.72196	0.04256
3547.43619	0.04232
3546.15042	0.04203
3544.86466	0.04177
3543.57889	0.04177
3542.29312	0.04229
3541.00735	0.04340
3539.72158	0.04476
3538.43581	0.04585
3537.15004	0.04634
3535.86427	0.04633
3534.57850	0.04605
3533.29274	0.04565
3532.00697	0.04517
3530.72120	0.04484
3529.43543	0.04490
3528.14966	0.04531
3526.86389	0.04575
3525.57812	0.04595
3524.29235	0.04592
3523.00659	0.04583
3521.72082	0.04574
3520.43505	0.04569
3519.14928	0.04579
3517.86351	0.04611
3516.57774	0.04654
3515.29197	0.04694
3514.00620	0.04735
3512.72043	0.04792
3511.43467	0.04858
3510.14890	0.04905
3508.86313	0.04911
3507.57736	0.04886
3506.29159	0.04863
3505.00582	0.04871
3503.72005	0.04912
3502.43428	0.04965
3501.14852	0.05005
3499.86275	0.05017
3498.57698	0.05003
3497.29121	0.04972
3496.00544	0.04932
3494.71967	0.04902
3493.43390	0.04902
3492.14813	0.04934
3490.86236	0.04974
3489.57660	0.04995
3488.29083	0.04987
3487.00506	0.04961
3485.71929	0.04935
3484.43352	0.04925
3483.14775	0.04945
3481.86198	0.04995
3480.57621	0.05056
3479.29045	0.05100
3478.00468	0.05109
3476.71891	0.05090
3475.43314	0.05068
3474.14737	0.05069
3472.86160	0.05094
3471.57583	0.05124
3470.29006	0.05142
3469.00429	0.05151
3467.71853	0.05154
3466.43276	0.05142
3465.14699	0.05111
3463.86122	0.05085
3462.57545	0.05095
3461.28968	0.05144
3460.00391	0.05198
3458.71814	0.05225
3457.43238	0.05216
3456.14661	0.05191
3454.86084	0.05173
3453.57507	0.05169
3452.28930	0.05166
3451.00353	0.05157
3449.71776	0.05156
3448.43199	0.05185
3447.14622	0.05233
3445.86046	0.05266
3444.57469	0.05259
3443.28892	0.05222
3442.00315	0.05181
3440.71738	0.05159
3439.43161	0.05170
3438.14584	0.05227
3436.86007	0.05322
3435.57431	0.05414
3434.28854	0.05464
3433.00277	0.05470
3431.71700	0.05465
3430.43123	0.05483
3429.14546	0.05530
3427.85969	0.05591
3426.57392	0.05637
3425.28815	0.05645
3424.00239	0.05623
3422.71662	0.05597
3421.43085	0.05593
3420.14508	0.05615
3418.85931	0.05650
3417.57354	0.05680
3416.28777	0.05685
3415.00200	0.05654
3413.71624	0.05597
3412.43047	0.05552
3411.14470	0.05549
3409.85893	0.05585
3408.57316	0.05626
3407.28739	0.05646
3406.00162	0.05647
3404.71585	0.05645
3403.43008	0.05650
3402.14432	0.05665
3400.85855	0.05693
3399.57278	0.05730
3398.28701	0.05765
3397.00124	0.05780
3395.71547	0.05775
3394.42970	0.05767
3393.14393	0.05776
3391.85817	0.05811
3390.57240	0.05863
3389.28663	0.05917
3388.00086	0.05956
3386.71509	0.05967
3385.42932	0.05943
3384.14355	0.05898
3382.85778	0.05852
3381.57201	0.05818
3380.28625	0.05806
3379.00048	0.05813
3377.71471	0.05831
3376.42894	0.05844
3375.14317	0.05843
3373.85740	0.05824
3372.57163	0.05795
3371.28586	0.05768
3370.00010	0.05759
3368.71433	0.05771
3367.42856	0.05793
3366.14279	0.05810
3364.85702	0.05823
3363.57125	0.05844
3362.28548	0.05875
3360.99971	0.05904
3359.71394	0.05924
3358.42818	0.05940
3357.14241	0.05959
3355.85664	0.05975
3354.57087	0.05975
3353.28510	0.05954
3351.99933	0.05923
3350.71356	0.05898
3349.42779	0.05891
3348.14202	0.05900
3346.85626	0.05918
3345.57049	0.05939
3344.28472	0.05957
3342.99895	0.05971
3341.71318	0.05981
3340.42741	0.05985
3339.14164	0.05975
3337.85587	0.05947
3336.57011	0.05915
3335.28434	0.05905
3333.99857	0.05929
3332.71280	0.05978
3331.42703	0.06027
3330.14126	0.06054
3328.85549	0.06050
3327.56972	0.06025
3326.28395	0.05999
3324.99819	0.05994
3323.71242	0.06017
3322.42665	0.06057
3321.14088	0.06087
3319.85511	0.06076
3318.56934	0.06011
3317.28357	0.05920
3315.99780	0.05855
3314.71204	0.05849
3313.42627	0.05890
3312.14050	0.05940
3310.85473	0.05984
3309.56896	0.06026
3308.28319	0.06069
3306.99742	0.06107
3305.71165	0.06130
3304.42588	0.06134
3303.14012	0.06113
3301.85435	0.06069
3300.56858	0.06013
3299.28281	0.05959
3297.99704	0.05912
3296.71127	0.05875
3295.42550	0.05863
3294.13973	0.05895
3292.85397	0.05963
3291.56820	0.06037
3290.28243	0.06087
3288.99666	0.06105
3287.71089	0.06103
3286.42512	0.06087
3285.13935	0.06059
3283.85358	0.06027
3282.56781	0.06005
3281.28205	0.06003
3279.99628	0.06018
3278.71051	0.06042
3277.42474	0.06070
3276.13897	0.06097
3274.85320	0.06106
3273.56743	0.06081
3272.28166	0.06024
3270.99590	0.05958
3269.71013	0.05906
3268.42436	0.05874
3267.13859	0.05859
3265.85282	0.05865
3264.56705	0.05897
3263.28128	0.05941
3261.99551	0.05970
3260.70974	0.05970
3259.42398	0.05962
3258.13821	0.05970
3256.85244	0.05994
3255.56667	0.06014
3254.28090	0.06010
3252.99513	0.05983
3251.70936	0.05938
3250.42359	0.05883
3249.13783	0.05835
3247.85206	0.05810
3246.56629	0.05818
3245.28052	0.05846
3243.99475	0.05876
3242.70898	0.05898
3241.42321	0.05907
3240.13744	0.05902
3238.85167	0.05878
3237.56591	0.05836
3236.28014	0.05780
3234.99437	0.05716
3233.70860	0.05655
3232.42283	0.05608
3231.13706	0.05583
3229.85129	0.05578
3228.56552	0.05583
3227.27976	0.05601
3225.99399	0.05639
3224.70822	0.05695
3223.42245	0.05742
3222.13668	0.05753
3220.85091	0.05728
3219.56514	0.05697
3218.27937	0.05689
3216.99360	0.05704
3215.70784	0.05719
3214.42207	0.05715
3213.13630	0.05691
3211.85053	0.05659
3210.56476	0.05627
3209.27899	0.05595
3207.99322	0.05562
3206.70745	0.05542
3205.42169	0.05548
3204.13592	0.05575
3202.85015	0.05604
3201.56438	0.05619
3200.27861	0.05629
3198.99284	0.05645
3197.70707	0.05666
3196.42130	0.05671
3195.13553	0.05641
3193.84977	0.05587
3192.56400	0.05539
3191.27823	0.05526
3189.99246	0.05545
3188.70669	0.05564
3187.42092	0.05560
3186.13515	0.05537
3184.84938	0.05527
3183.56362	0.05549
3182.27785	0.05593
3180.99208	0.05624
3179.70631	0.05610
3178.42054	0.05558
3177.13477	0.05505
3175.84900	0.05482
3174.56323	0.05485
3173.27746	0.05485
3171.99170	0.05467
3170.70593	0.05439
3169.42016	0.05417
3168.13439	0.05412
3166.84862	0.05417
3165.56285	0.05414
3164.27708	0.05386
3162.99131	0.05333
3161.70555	0.05277
3160.41978	0.05248
3159.13401	0.05256
3157.84824	0.05283
3156.56247	0.05308
3155.27670	0.05323
3153.99093	0.05341
3152.70516	0.05362
3151.41939	0.05369
3150.13363	0.05349
3148.84786	0.05313
3147.56209	0.05290
3146.27632	0.05293
3144.99055	0.05311
3143.70478	0.05326
3142.41901	0.05334
3141.13324	0.05336
3139.84748	0.05331
3138.56171	0.05321
3137.27594	0.05311
3135.99017	0.05312
3134.70440	0.05318
3133.41863	0.05313
3132.13286	0.05288
3130.84709	0.05254
3129.56132	0.05232
3128.27556	0.05222
3126.98979	0.05203
3125.70402	0.05162
3124.41825	0.05113
3123.13248	0.05075
3121.84671	0.05057
3120.56094	0.05050
3119.27517	0.05046
3117.98940	0.05048
3116.70364	0.05059
3115.41787	0.05076
3114.13210	0.05085
3112.84633	0.05076
3111.56056	0.05048
3110.27479	0.05021
3108.98902	0.05012
3107.70325	0.05027
3106.41749	0.05051
3105.13172	0.05068
3103.84595	0.05079
3102.56018	0.05088
3101.27441	0.05090
3099.98864	0.05073
3098.70287	0.05036
3097.41710	0.04996
3096.13133	0.04972
3094.84557	0.04977
3093.55980	0.05004
3092.27403	0.05040
3090.98826	0.05067
3089.70249	0.05073
3088.41672	0.05065
3087.13095	0.05064
3085.84518	0.05082
3084.55942	0.05102
3083.27365	0.05095
3081.98788	0.05056
3080.70211	0.05001
3079.41634	0.04957
3078.13057	0.04937
3076.84480	0.04939
3075.55903	0.04945
3074.27326	0.04940
3072.98750	0.04923
3071.70173	0.04909
3070.41596	0.04918
3069.13019	0.04954
3067.84442	0.05004
3066.55865	0.05039
3065.27288	0.05039
3063.98711	0.05005
3062.70135	0.04959
3061.41558	0.04924
3060.12981	0.04900
3058.84404	0.04879
3057.55827	0.04858
3056.27250	0.04849
3054.98673	0.04855
3053.70096	0.04870
3052.41519	0.04886
3051.12943	0.04898
3049.84366	0.04900
3048.55789	0.04883
3047.27212	0.04854
3045.98635	0.04827
3044.70058	0.04809
3043.41481	0.04795
3042.12904	0.04777
3040.84328	0.04758
3039.55751	0.04750
3038.27174	0.04760
3036.98597	0.04786
3035.70020	0.04813
3034.41443	0.04825
3033.12866	0.04811
3031.84289	0.04778
3030.55712	0.04741
3029.27136	0.04712
3027.98559	0.04696
3026.69982	0.04687
3025.41405	0.04680
3024.12828	0.04674
3022.84251	0.04670
3021.55674	0.04663
3020.27097	0.04649
3018.98521	0.04637
3017.69944	0.04635
3016.41367	0.04642
3015.12790	0.04636
3013.84213	0.04604
3012.55636	0.04552
3011.27059	0.04510
3009.98482	0.04501
3008.69905	0.04519
3007.41329	0.04542
3006.12752	0.04557
3004.84175	0.04569
3003.55598	0.04585
3002.27021	0.04602
3000.98444	0.04613
2999.69867	0.04617
2998.41290	0.04613
2997.12714	0.04597
2995.84137	0.04567
2994.55560	0.04536
2993.26983	0.04519
2991.98406	0.04523
2990.69829	0.04541
2989.41252	0.04564
2988.12675	0.04588
2986.84098	0.04609
2985.55522	0.04626
2984.26945	0.04637
2982.98368	0.04645
2981.69791	0.04660
2980.41214	0.04690
2979.12637	0.04735
2977.84060	0.04781
2976.55483	0.04815
2975.26907	0.04835
2973.98330	0.04857
2972.69753	0.04896
2971.41176	0.04957
2970.12599	0.05020
2968.84022	0.05066
2967.55445	0.05091
2966.26868	0.05114
2964.98291	0.05147
2963.69715	0.05185
2962.41138	0.05215
2961.12561	0.05242
2959.83984	0.05280
2958.55407	0.05337
2957.26830	0.05404
2955.98253	0.05469
2954.69676	0.05522
2953.41100	0.05555
2952.12523	0.05563
2950.83946	0.05552
2949.55369	0.05536
2948.26792	0.05527
2946.98215	0.05529
2945.69638	0.05536
2944.41061	0.05539
2943.12484	0.05540
2941.83908	0.05543
2940.55331	0.05547
2939.26754	0.05551
2937.98177	0.05557
2936.69600	0.05581
2935.41023	0.05630
2934.12446	0.05690
2932.83869	0.05733
2931.55293	0.05742
2930.26716	0.05729
2928.98139	0.05721
2927.69562	0.05737
2926.40985	0.05771
2925.12408	0.05802
2923.83831	0.05823
2922.55254	0.05841
2921.26677	0.05862
2919.98101	0.05880
2918.69524	0.05878
2917.40947	0.05848
2916.12370	0.05792
2914.83793	0.05724
2913.55216	0.05659
2912.26639	0.05604
2910.98062	0.05560
2909.69486	0.05521
2908.40909	0.05485
2907.12332	0.05450
2905.83755	0.05419
2904.55178	0.05395
2903.26601	0.05381
2901.98024	0.05375
2900.69447	0.05366
2899.40870	0.05344
2898.12294	0.05305
2896.83717	0.05255
2895.55140	0.05204
2894.26563	0.05165
2892.97986	0.05143
2891.69409	0.05129
2890.40832	0.05107
2889.12255	0.05075
2887.83678	0.05043
2886.55102	0.05016
2885.26525	0.04992
2883.97948	0.04960
2882.69371	0.04919
2881.40794	0.04877
2880.12217	0.04846
2878.83640	0.04838
2877.55063	0.04852
2876.26487	0.04880
2874.97910	0.04916
2873.69333	0.04957
2872.40756	0.04998
2871.12179	0.05035
2869.83602	0.05060
2868.55025	0.05062
2867.26448	0.05044
2865.97871	0.05023
2864.69295	0.05018
2863.40718	0.05021
2862.12141	0.05015
2860.83564	0.04990
2859.54987	0.04959
2858.26410	0.04936
2856.97833	0.04926
2855.69256	0.04924
2854.40680	0.04925
2853.12103	0.04923
2851.83526	0.04915
2850.54949	0.04897
2849.26372	0.04876
2847.97795	0.04856
2846.69218	0.04838
2845.40641	0.04810
2844.12064	0.04763
2842.83488	0.04698
2841.54911	0.04628
2840.26334	0.04568
2838.97757	0.04523
2837.69180	0.04494
2836.40603	0.04473
2835.12026	0.04447
2833.83449	0.04403
2832.54873	0.04345
2831.26296	0.04288
2829.97719	0.04248
2828.69142	0.04233
2827.40565	0.04236
2826.11988	0.04243
2824.83411	0.04242
2823.54834	0.04227
2822.26257	0.04200
2820.97681	0.04167
2819.69104	0.04134
2818.40527	0.04101
2817.11950	0.04070
2815.83373	0.04040
2814.54796	0.04018
2813.26219	0.04013
2811.97642	0.04030
2810.69066	0.04053
2809.40489	0.04058
2808.11912	0.04031
2806.83335	0.03985
2805.54758	0.03947
2804.26181	0.03930
2802.97604	0.03930
2801.69027	0.03936
2800.40450	0.03940
2799.11874	0.03932
2797.83297	0.03912
2796.54720	0.03888
2795.26143	0.03874
2793.97566	0.03878
2792.68989	0.03898
2791.40412	0.03924
2790.11835	0.03945
2788.83259	0.03945
2787.54682	0.03923
2786.26105	0.03891
2784.97528	0.03862
2783.68951	0.03834
2782.40374	0.03801
2781.11797	0.03762
2779.83220	0.03729
2778.54643	0.03706
2777.26067	0.03697
2775.97490	0.03698
2774.68913	0.03710
2773.40336	0.03723
2772.11759	0.03731
2770.83182	0.03733
2769.54605	0.03732
2768.26028	0.03730
2766.97452	0.03727
2765.68875	0.03722
2764.40298	0.03720
2763.11721	0.03722
2761.83144	0.03726
2760.54567	0.03723
2759.25990	0.03711
2757.97413	0.03693
2756.68836	0.03677
2755.40260	0.03662
2754.11683	0.03647
2752.83106	0.03633
2751.54529	0.03625
2750.25952	0.03626
2748.97375	0.03633
2747.68798	0.03637
2746.40221	0.03631
2745.11645	0.03616
2743.83068	0.03600
2742.54491	0.03595
2741.25914	0.03598
2739.97337	0.03603
2738.68760	0.03600
2737.40183	0.03589
2736.11606	0.03578
2734.83029	0.03576
2733.54453	0.03588
2732.25876	0.03613
2730.97299	0.03640
2729.68722	0.03652
2728.40145	0.03643
2727.11568	0.03618
2725.82991	0.03584
2724.54414	0.03550
2723.25838	0.03524
2721.97261	0.03510
2720.68684	0.03506
2719.40107	0.03507
2718.11530	0.03514
2716.82953	0.03529
2715.54376	0.03543
2714.25799	0.03544
2712.97222	0.03530
2711.68646	0.03514
2710.40069	0.03502
2709.11492	0.03492
2707.82915	0.03477
2706.54338	0.03456
2705.25761	0.03437
2703.97184	0.03428
2702.68607	0.03431
2701.40031	0.03444
2700.11454	0.03467
2698.82877	0.03492
2697.54300	0.03509
2696.25723	0.03506
2694.97146	0.03483
2693.68569	0.03450
2692.39992	0.03423
2691.11415	0.03402
2689.82839	0.03384
2688.54262	0.03362
2687.25685	0.03340
2685.97108	0.03331
2684.68531	0.03339
2683.39954	0.03354
2682.11377	0.03360
2680.82800	0.03351
2679.54224	0.03339
2678.25647	0.03335
2676.97070	0.03337
2675.68493	0.03336
2674.39916	0.03327
2673.11339	0.03311
2671.82762	0.03294
2670.54185	0.03280
2669.25608	0.03279
2667.97032	0.03291
2666.68455	0.03303
2665.39878	0.03306
2664.11301	0.03299
2662.82724	0.03295
2661.54147	0.03302
2660.25570	0.03309
2658.96993	0.03305
2657.68417	0.03290
2656.39840	0.03277
2655.11263	0.03273
2653.82686	0.03273
2652.54109	0.03274
2651.25532	0.03274
2649.96955	0.03277
2648.68378	0.03280
2647.39801	0.03282
2646.11225	0.03276
2644.82648	0.03259
2643.54071	0.03233
2642.25494	0.03204
2640.96917	0.03178
2639.68340	0.03154
2638.39763	0.03130
2637.11186	0.03114
2635.82609	0.03111
2634.54033	0.03120
2633.25456	0.03127
2631.96879	0.03120
2630.68302	0.03092
2629.39725	0.03053
2628.11148	0.03021
2626.82571	0.03016
2625.53994	0.03041
2624.25418	0.03077
2622.96841	0.03103
2621.68264	0.03107
2620.39687	0.03090
2619.11110	0.03056
2617.82533	0.03009
2616.53956	0.02961
2615.25379	0.02920
2613.96802	0.02890
2612.68226	0.02871
2611.39649	0.02868
2610.11072	0.02886
2608.82495	0.02918
2607.53918	0.02943
2606.25341	0.02941
2604.96764	0.02916
2603.68187	0.02885
2602.39611	0.02863
2601.11034	0.02856
2599.82457	0.02859
2598.53880	0.02870
2597.25303	0.02877
2595.96726	0.02876
2594.68149	0.02868
2593.39572	0.02861
2592.10995	0.02850
2590.82419	0.02828
2589.53842	0.02802
2588.25265	0.02790
2586.96688	0.02804
2585.68111	0.02838
2584.39534	0.02876
2583.10957	0.02902
2581.82380	0.02908
2580.53804	0.02891
2579.25227	0.02855
2577.96650	0.02810
2576.68073	0.02767
2575.39496	0.02729
2574.10919	0.02696
2572.82342	0.02662
2571.53765	0.02620
2570.25188	0.02572
2568.96612	0.02534
2567.68035	0.02528
2566.39458	0.02562
2565.10881	0.02622
2563.82304	0.02679
2562.53727	0.02713
2561.25150	0.02722
2559.96573	0.02715
2558.67997	0.02706
2557.39420	0.02703
2556.10843	0.02703
2554.82266	0.02698
2553.53689	0.02684
2552.25112	0.02668
2550.96535	0.02659
2549.67958	0.02659
2548.39381	0.02663
2547.10805	0.02671
2545.82228	0.02681
2544.53651	0.02685
2543.25074	0.02675
2541.96497	0.02652
2540.67920	0.02621
2539.39343	0.02584
2538.10766	0.02546
2536.82190	0.02522
2535.53613	0.02526
2534.25036	0.02551
2532.96459	0.02571
2531.67882	0.02570
2530.39305	0.02553
2529.10728	0.02532
2527.82151	0.02508
2526.53574	0.02481
2525.24998	0.02463
2523.96421	0.02480
2522.67844	0.02532
2521.39267	0.02590
2520.10690	0.02613
2518.82113	0.02592
2517.53536	0.02548
2516.24959	0.02506
2514.96383	0.02471
2513.67806	0.02447
2512.39229	0.02440
2511.10652	0.02453
2509.82075	0.02469
2508.53498	0.02473
2507.24921	0.02467
2505.96344	0.02466
2504.67767	0.02483
2503.39191	0.02513
2502.10614	0.02546
2500.82037	0.02568
2499.53460	0.02568
2498.24883	0.02544
2496.96306	0.02517
2495.67729	0.02506
2494.39152	0.02503
2493.10576	0.02479
2491.81999	0.02419
2490.53422	0.02343
2489.24845	0.02294
2487.96268	0.02295
2486.67691	0.02333
2485.39114	0.02374
2484.10537	0.02390
2482.81960	0.02379
2481.53384	0.02356
2480.24807	0.02341
2478.96230	0.02342
2477.67653	0.02352
2476.39076	0.02362
2475.10499	0.02371
2473.81922	0.02384
2472.53345	0.02403
2471.24769	0.02423
2469.96192	0.02436
2468.67615	0.02441
2467.39038	0.02443
2466.10461	0.02451
2464.81884	0.02466
2463.53307	0.02483
2462.24730	0.02496
2460.96153	0.02509
2459.67577	0.02520
2458.39000	0.02518
2457.10423	0.02490
2455.81846	0.02443
2454.53269	0.02399
2453.24692	0.02370
2451.96115	0.02353
2450.67538	0.02346
2449.38962	0.02347
2448.10385	0.02352
2446.81808	0.02359
2445.53231	0.02376
2444.24654	0.02408
2442.96077	0.02442
2441.67500	0.02456
2440.38923	0.02438
2439.10346	0.02392
2437.81770	0.02339
2436.53193	0.02299
2435.24616	0.02286
2433.96039	0.02295
2432.67462	0.02319
2431.38885	0.02350
2430.10308	0.02376
2428.81731	0.02383
2427.53155	0.02371
2426.24578	0.02354
2424.96001	0.02340
2423.67424	0.02319
2422.38847	0.02280
2421.10270	0.02226
2419.81693	0.02179
2418.53116	0.02168
2417.24539	0.02196
2415.95963	0.02242
2414.67386	0.02280
2413.38809	0.02305
2412.10232	0.02325
2410.81655	0.02341
2409.53078	0.02341
2408.24501	0.02316
2406.95924	0.02279
2405.67347	0.02254
2404.38771	0.02248
2403.10194	0.02253
2401.81617	0.02256
2400.53040	0.02253
2399.24463	0.02250
2397.95886	0.02256
2396.67309	0.02270
2395.38732	0.02291
2394.10156	0.02314
2392.81579	0.02332
2391.53002	0.02338
2390.24425	0.02332
2388.95848	0.02316
2387.67271	0.02295
2386.38694	0.02272
2385.10117	0.02256
2383.81540	0.02252
2382.52964	0.02261
2381.24387	0.02276
2379.95810	0.02294
2378.67233	0.02315
2377.38656	0.02340
2376.10079	0.02366
2374.81502	0.02381
2373.52925	0.02361
2372.24349	0.02312
2370.95772	0.02265
2369.67195	0.02245
2368.38618	0.02246
2367.10041	0.02252
2365.81464	0.02265
2364.52887	0.02281
2363.24310	0.02296
2361.95733	0.02299
2360.67157	0.02279
2359.38580	0.02263
2358.10003	0.02277
2356.81426	0.02314
2355.52849	0.02358
2354.24272	0.02397
2352.95695	0.02411
2351.67118	0.02382
2350.38542	0.02344
2349.09965	0.02342
2347.81388	0.02363
2346.52811	0.02353
2345.24234	0.02343
2343.95657	0.02402
2342.67080	0.02491
2341.38503	0.02469
2340.09926	0.02354
2338.81350	0.02342
2337.52773	0.02429
2336.24196	0.02395
2334.95619	0.02283
2333.67042	0.02310
2332.38465	0.02414
2331.09888	0.02368
2329.81311	0.02318
2328.52735	0.02392
2327.24158	0.02407
2325.95581	0.02396
2324.67004	0.02473
2323.38427	0.02512
2322.09850	0.02454
2320.81273	0.02427
2319.52696	0.02394
2318.24119	0.02367
2316.95543	0.02388
2315.66966	0.02382
2314.38389	0.02353
2313.09812	0.02333
2311.81235	0.02306
2310.52658	0.02301
2309.24081	0.02305
2307.95504	0.02281
2306.66928	0.02238
2305.38351	0.02181
2304.09774	0.02137
2302.81197	0.02123
2301.52620	0.02127
2300.24043	0.02145
2298.95466	0.02168
2297.66889	0.02196
2296.38312	0.02222
2295.09736	0.02231
2293.81159	0.02222
2292.52582	0.02198
2291.24005	0.02174
2289.95428	0.02163
2288.66851	0.02176
2287.38274	0.02211
2286.09697	0.02246
2284.81121	0.02251
2283.52544	0.02216
2282.23967	0.02159
2280.95390	0.02109
2279.66813	0.02080
2278.38236	0.02065
2277.09659	0.02054
2275.81082	0.02037
2274.52505	0.02017
2273.23929	0.01993
2271.95352	0.01960
2270.66775	0.01911
2269.38198	0.01858
2268.09621	0.01828
2266.81044	0.01851
2265.52467	0.01923
2264.23890	0.02005
2262.95314	0.02038
2261.66737	0.01992
2260.38160	0.01896
2259.09583	0.01811
2257.81006	0.01773
2256.52429	0.01778
2255.23852	0.01799
2253.95275	0.01813
2252.66698	0.01814
2251.38122	0.01800
2250.09545	0.01773
2248.80968	0.01745
2247.52391	0.01730
2246.23814	0.01735
2244.95237	0.01745
2243.66660	0.01734
2242.38083	0.01685
2241.09507	0.01610
2239.80930	0.01555
2238.52353	0.01574
2237.23776	0.01680
2235.95199	0.01817
2234.66622	0.01902
2233.38045	0.01890
2232.09468	0.01795
2230.80891	0.01671
2229.52315	0.01576
2228.23738	0.01540
2226.95161	0.01558
2225.66584	0.01593
2224.38007	0.01612
2223.09430	0.01607
2221.80853	0.01594
2220.52276	0.01590
2219.23700	0.01598
2217.95123	0.01609
2216.66546	0.01606
2215.37969	0.01569
2214.09392	0.01493
2212.80815	0.01405
2211.52238	0.01344
2210.23661	0.01333
2208.95084	0.01363
2207.66508	0.01416
2206.37931	0.01473
2205.09354	0.01503
2203.80777	0.01476
2202.52200	0.01402
2201.23623	0.01336
2199.95046	0.01323
2198.66469	0.01352
2197.37893	0.01380
2196.09316	0.01390
2194.80739	0.01407
2193.52162	0.01449
2192.23585	0.01497
2190.95008	0.01500
2189.66431	0.01434
2188.37854	0.01324
2187.09277	0.01222
2185.80701	0.01152
2184.52124	0.01108
2183.23547	0.01080
2181.94970	0.01063
2180.66393	0.01068
2179.37816	0.01107
2178.09239	0.01170
2176.80662	0.01202
2175.52085	0.01165
2174.23509	0.01092
2172.94932	0.01049
2171.66355	0.01044
2170.37778	0.01031
2169.09201	0.01000
2167.80624	0.00991
2166.52047	0.01034
2165.23470	0.01094
2163.94894	0.01110
2162.66317	0.01032
2161.37740	0.00860
2160.09163	0.00671
2158.80586	0.00570
2157.52009	0.00592
2156.23432	0.00681
2154.94855	0.00772
2153.66278	0.00833
2152.37702	0.00847
2151.09125	0.00801
2149.80548	0.00716
2148.51971	0.00640
2147.23394	0.00616
2145.94817	0.00660
2144.66240	0.00751
2143.37663	0.00842
2142.09087	0.00898
2140.80510	0.00925
2139.51933	0.00964
2138.23356	0.01039
2136.94779	0.01142
2135.66202	0.01238
2134.37625	0.01288
2133.09048	0.01271
2131.80471	0.01193
2130.51895	0.01090
2129.23318	0.01012
2127.94741	0.00998
2126.66164	0.01052
2125.37587	0.01135
2124.09010	0.01195
2122.80433	0.01214
2121.51856	0.01215
2120.23280	0.01218
2118.94703	0.01213
2117.66126	0.01187
2116.37549	0.01157
2115.08972	0.01157
2113.80395	0.01201
2112.51818	0.01259
2111.23241	0.01290
2109.94664	0.01270
2108.66088	0.01218
2107.37511	0.01173
2106.08934	0.01165
2104.80357	0.01198
2103.51780	0.01255
2102.23203	0.01316
2100.94626	0.01353
2099.66049	0.01329
2098.37473	0.01275
2097.08896	0.01221
2095.80319	0.01184
2094.51742	0.01161
2093.23165	0.01136
2091.94588	0.01110
2090.66011	0.01106
2089.37434	0.01149
2088.08857	0.01230
2086.80281	0.01304
2085.51704	0.01326
2084.23127	0.01290
2082.94550	0.01227
2081.65973	0.01173
2080.37396	0.01142
2079.08819	0.01133
2077.80242	0.01138
2076.51666	0.01145
2075.23089	0.01145
2073.94512	0.01139
2072.65935	0.01129
2071.37358	0.01112
2070.08781	0.01086
2068.80204	0.01055
2067.51627	0.01021
2066.23050	0.00979
2064.94474	0.00922
2063.65897	0.00860
2062.37320	0.00813
2061.08743	0.00802
2059.80166	0.00836
2058.51589	0.00901
2057.23012	0.00964
2055.94435	0.00992
2054.65859	0.00976
2053.37282	0.00930
2052.08705	0.00880
2050.80128	0.00847
2049.51551	0.00837
2048.22974	0.00834
2046.94397	0.00812
2045.65820	0.00752
2044.37243	0.00665
2043.08667	0.00586
2041.80090	0.00549
2040.51513	0.00560
2039.22936	0.00593
2037.94359	0.00620
2036.65782	0.00631
2035.37205	0.00630
2034.08628	0.00615
2032.80052	0.00573
2031.51475	0.00514
2030.22898	0.00487
2028.94321	0.00548
2027.65744	0.00697
2026.37167	0.00852
2025.08590	0.00916
2023.80013	0.00869
2022.51436	0.00772
2021.22860	0.00692
2019.94283	0.00640
2018.65706	0.00601
2017.37129	0.00573
2016.08552	0.00566
2014.79975	0.00569
2013.51398	0.00554
2012.22821	0.00503
2010.94245	0.00416
2009.65668	0.00316
2008.37091	0.00245
2007.08514	0.00245
2005.79937	0.00329
2004.51360	0.00467
2003.22783	0.00611
2001.94206	0.00724
2000.65629	0.00789
1999.37053	0.00817
1998.08476	0.00843
1996.79899	0.00902
1995.51322	0.00992
1994.22745	0.01077
1992.94168	0.01121
1991.65591	0.01125
1990.37014	0.01117
1989.08438	0.01112
1987.79861	0.01098
1986.51284	0.01053
1985.22707	0.00979
1983.94130	0.00906
1982.65553	0.00861
1981.36976	0.00844
1980.08399	0.00824
1978.79822	0.00784
1977.51246	0.00741
1976.22669	0.00724
1974.94092	0.00727
1973.65515	0.00708
1972.36938	0.00640
1971.08361	0.00559
1969.79784	0.00532
1968.51207	0.00596
1967.22631	0.00714
1965.94054	0.00802
1964.65477	0.00812
1963.36900	0.00770
1962.08323	0.00750
1960.79746	0.00793
1959.51169	0.00876
1958.22592	0.00945
1956.94015	0.00959
1955.65439	0.00914
1954.36862	0.00835
1953.08285	0.00765
1951.79708	0.00740
1950.51131	0.00769
1949.22554	0.00835
1947.93977	0.00916
1946.65400	0.00997
1945.36823	0.01064
1944.08247	0.01106
1942.79670	0.01126
1941.51093	0.01134
1940.22516	0.01138
1938.93939	0.01140
1937.65362	0.01138
1936.36785	0.01128
1935.08208	0.01106
1933.79632	0.01073
1932.51055	0.01045
1931.22478	0.01043
1929.93901	0.01080
1928.65324	0.01146
1927.36747	0.01222
1926.08170	0.01291
1924.79593	0.01343
1923.51016	0.01368
1922.22440	0.01360
1920.93863	0.01327
1919.65286	0.01290
1918.36709	0.01267
1917.08132	0.01266
1915.79555	0.01279
1914.50978	0.01295
1913.22401	0.01303
1911.93825	0.01299
1910.65248	0.01286
1909.36671	0.01266
1908.08094	0.01245
1906.79517	0.01228
1905.50940	0.01223
1904.22363	0.01234
1902.93786	0.01256
1901.65209	0.01270
1900.36633	0.01267
1899.08056	0.01252
1897.79479	0.01240
1896.50902	0.01237
1895.22325	0.01238
1893.93748	0.01233
1892.65171	0.01225
1891.36594	0.01220
1890.08018	0.01222
1888.79441	0.01228
1887.50864	0.01230
1886.22287	0.01222
1884.93710	0.01209
1883.65133	0.01202
1882.36556	0.01215
1881.07979	0.01256
1879.79402	0.01314
1878.50826	0.01362
1877.22249	0.01374
1875.93672	0.01350
1874.65095	0.01312
1873.36518	0.01291
1872.07941	0.01292
1870.79364	0.01302
1869.50787	0.01307
1868.22211	0.01304
1866.93634	0.01295
1865.65057	0.01281
1864.36480	0.01262
1863.07903	0.01244
1861.79326	0.01237
1860.50749	0.01248
1859.22172	0.01271
1857.93595	0.01296
1856.65019	0.01314
1855.36442	0.01319
1854.07865	0.01305
1852.79288	0.01278
1851.50711	0.01251
1850.22134	0.01239
1848.93557	0.01246
1847.64980	0.01258
1846.36404	0.01261
1845.07827	0.01255
1843.79250	0.01250
1842.50673	0.01253
1841.22096	0.01259
1839.93519	0.01264
1838.64942	0.01267
1837.36365	0.01270
1836.07788	0.01275
1834.79212	0.01285
1833.50635	0.01301
1832.22058	0.01315
1830.93481	0.01325
1829.64904	0.01332
1828.36327	0.01343
1827.07750	0.01354
1825.79173	0.01362
1824.50597	0.01362
1823.22020	0.01353
1821.93443	0.01340
1820.64866	0.01328
1819.36289	0.01322
1818.07712	0.01325
1816.79135	0.01335
1815.50558	0.01350
1814.21981	0.01365
1812.93405	0.01371
1811.64828	0.01368
1810.36251	0.01363
1809.07674	0.01363
1807.79097	0.01369
1806.50520	0.01375
1805.21943	0.01376
1803.93366	0.01371
1802.64790	0.01362
1801.36213	0.01354
1800.07636	0.01348
1798.79059	0.01343
1797.50482	0.01343
1796.21905	0.01350
1794.93328	0.01360
1793.64751	0.01363
1792.36174	0.01358
1791.07598	0.01352
1789.79021	0.01350
1788.50444	0.01351
1787.21867	0.01354
1785.93290	0.01358
1784.64713	0.01365
1783.36136	0.01376
1782.07559	0.01386
1780.78983	0.01391
1779.50406	0.01391
1778.21829	0.01389
1776.93252	0.01387
1775.64675	0.01387
1774.36098	0.01386
1773.07521	0.01385
1771.78944	0.01387
1770.50367	0.01389
1769.21791	0.01387
1767.93214	0.01383
1766.64637	0.01384
1765.36060	0.01390
1764.07483	0.01399
1762.78906	0.01410
1761.50329	0.01422
1760.21752	0.01433
1758.93176	0.01436
1757.64599	0.01435
1756.36022	0.01437
1755.07445	0.01446
1753.78868	0.01451
1752.50291	0.01447
1751.21714	0.01436
1749.93137	0.01428
1748.64560	0.01425
1747.35984	0.01431
1746.07407	0.01445
1744.78830	0.01465
1743.50253	0.01485
1742.21676	0.01499
1740.93099	0.01506
1739.64522	0.01513
1738.35945	0.01526
1737.07369	0.01534
1735.78792	0.01532
1734.50215	0.01529
1733.21638	0.01541
1731.93061	0.01565
1730.64484	0.01587
1729.35907	0.01602
1728.07330	0.01611
1726.78753	0.01614
1725.50177	0.01611
1724.21600	0.01607
1722.93023	0.01611
1721.64446	0.01626
1720.35869	0.01646
1719.07292	0.01666
1717.78715	0.01688
1716.50138	0.01716
1715.21561	0.01747
1713.92985	0.01777
1712.64408	0.01809
1711.35831	0.01848
1710.07254	0.01891
1708.78677	0.01935
1707.50100	0.01979
1706.21523	0.02024
1704.92946	0.02075
1703.64370	0.02129
1702.35793	0.02179
1701.07216	0.02232
1699.78639	0.02301
1698.50062	0.02380
1697.21485	0.02449
1695.92908	0.02513
1694.64331	0.02584
1693.35754	0.02659
1692.07178	0.02719
1690.78601	0.02766
1689.50024	0.02814
1688.21447	0.02866
1686.92870	0.02917
1685.64293	0.02967
1684.35716	0.03029
1683.07139	0.03109
1681.78563	0.03194
1680.49986	0.03272
1679.21409	0.03344
1677.92832	0.03407
1676.64255	0.03465
1675.35678	0.03524
1674.07101	0.03591
1672.78524	0.03662
1671.49947	0.03731
1670.21371	0.03799
1668.92794	0.03871
1667.64217	0.03947
1666.35640	0.04019
1665.07063	0.04083
1663.78486	0.04142
1662.49909	0.04200
1661.21332	0.04257
1659.92756	0.04311
1658.64179	0.04361
1657.35602	0.04405
1656.07025	0.04436
1654.78448	0.04449
1653.49871	0.04460
1652.21294	0.04491
1650.92717	0.04536
1649.64140	0.04573
1648.35564	0.04590
1647.06987	0.04602
1645.78410	0.04621
1644.49833	0.04641
1643.21256	0.04650
1641.92679	0.04644
1640.64102	0.04628
1639.35525	0.04610
1638.06949	0.04586
1636.78372	0.04551
1635.49795	0.04512
1634.21218	0.04480
1632.92641	0.04450
1631.64064	0.04417
1630.35487	0.04377
1629.06910	0.04333
1627.78333	0.04288
1626.49757	0.04243
1625.21180	0.04194
1623.92603	0.04141
1622.64026	0.04089
1621.35449	0.04038
1620.06872	0.03987
1618.78295	0.03933
1617.49718	0.03881
1616.21142	0.03839
1614.92565	0.03806
1613.63988	0.03773
1612.35411	0.03736
1611.06834	0.03701
1609.78257	0.03671
1608.49680	0.03643
1607.21103	0.03620
1605.92526	0.03607
1604.63950	0.03603
1603.35373	0.03604
1602.06796	0.03603
1600.78219	0.03596
1599.49642	0.03587
1598.21065	0.03579
1596.92488	0.03577
1595.63911	0.03581
1594.35335	0.03589
1593.06758	0.03601
1591.78181	0.03615
1590.49604	0.03631
1589.21027	0.03648
1587.92450	0.03666
1586.63873	0.03684
1585.35296	0.03703
1584.06719	0.03726
1582.78143	0.03753
1581.49566	0.03787
1580.20989	0.03825
1578.92412	0.03857
1577.63835	0.03881
1576.35258	0.03905
1575.06681	0.03943
1573.78104	0.03992
1572.49528	0.04039
1571.20951	0.04078
1569.92374	0.04114
1568.63797	0.04155
1567.35220	0.04195
1566.06643	0.04231
1564.78066	0.04264
1563.49489	0.04299
1562.20912	0.04330
1560.92336	0.04354
1559.63759	0.04378
1558.35182	0.04412
1557.06605	0.04452
1555.78028	0.04486
1554.49451	0.04511
1553.20874	0.04537
1551.92297	0.04563
1550.63721	0.04585
1549.35144	0.04601
1548.06567	0.04608
1546.77990	0.04607
1545.49413	0.04599
1544.20836	0.04591
1542.92259	0.04581
1541.63682	0.04565
1540.35105	0.04546
1539.06529	0.04533
1537.77952	0.04530
1536.49375	0.04527
1535.20798	0.04520
1533.92221	0.04515
1532.63644	0.04519
1531.35067	0.04532
1530.06490	0.04547
1528.77914	0.04564
1527.49337	0.04586
1526.20760	0.04617
1524.92183	0.04653
1523.63606	0.04688
1522.35029	0.04719
1521.06452	0.04751
1519.77875	0.04786
1518.49298	0.04824
1517.20722	0.04866
1515.92145	0.04918
1514.63568	0.04978
1513.34991	0.05041
1512.06414	0.05106
1510.77837	0.05177
1509.49260	0.05252
1508.20683	0.05325
1506.92107	0.05397
1505.63530	0.05473
1504.34953	0.05550
1503.06376	0.05618
1501.77799	0.05679
1500.49222	0.05731
1499.20645	0.05774
1497.92068	0.05804
1496.63491	0.05831
1495.34915	0.05863
1494.06338	0.05902
1492.77761	0.05943
1491.49184	0.05983
1490.20607	0.06026
1488.92030	0.06077
1487.63453	0.06137
1486.34876	0.06205
1485.06299	0.06281
1483.77723	0.06362
1482.49146	0.06444
1481.20569	0.06529
1479.91992	0.06617
1478.63415	0.06705
1477.34838	0.06788
1476.06261	0.06865
1474.77684	0.06932
1473.49108	0.06995
1472.20531	0.07059
1470.91954	0.07124
1469.63377	0.07181
1468.34800	0.07225
1467.06223	0.07256
1465.77646	0.07279
1464.49069	0.07301
1463.20492	0.07326
1461.91916	0.07355
1460.63339	0.07387
1459.34762	0.07421
1458.06185	0.07461
1456.77608	0.07514
1455.49031	0.07581
1454.20454	0.07647
1452.91877	0.07701
1451.63301	0.07738
1450.34724	0.07762
1449.06147	0.07779
1447.77570	0.07793
1446.48993	0.07805
1445.20416	0.07810
1443.91839	0.07800
1442.63262	0.07776
1441.34685	0.07742
1440.06109	0.07704
1438.77532	0.07666
1437.48955	0.07636
1436.20378	0.07620
1434.91801	0.07619
1433.63224	0.07630
1432.34647	0.07655
1431.06070	0.07696
1429.77494	0.07754
1428.48917	0.07826
1427.20340	0.07905
1425.91763	0.07989
1424.63186	0.08079
1423.34609	0.08173
1422.06032	0.08268
1420.77455	0.08358
1419.48878	0.08447
1418.20302	0.08535
1416.91725	0.08614
1415.63148	0.08676
1414.34571	0.08720
1413.05994	0.08750
1411.77417	0.08773
1410.48840	0.08785
1409.20263	0.08783
1407.91687	0.08761
1406.63110	0.08720
1405.34533	0.08665
1404.05956	0.08602
1402.77379	0.08530
1401.48802	0.08445
1400.20225	0.08343
1398.91648	0.08228
1397.63071	0.08108
1396.34495	0.07987
1395.05918	0.07866
1393.77341	0.07743
1392.48764	0.07614
1391.20187	0.07479
1389.91610	0.07341
1388.63033	0.07206
1387.34456	0.07078
1386.05880	0.06956
1384.77303	0.06836
1383.48726	0.06713
1382.20149	0.06586
1380.91572	0.06455
1379.62995	0.06321
1378.34418	0.06183
1377.05841	0.06043
1375.77264	0.05898
1374.48688	0.05748
1373.20111	0.05592
1371.91534	0.05432
1370.62957	0.05270
1369.34380	0.05111
1368.05803	0.04964
1366.77226	0.04832
1365.48649	0.04712
1364.20073	0.04598
1362.91496	0.04488
1361.62919	0.04381
1360.34342	0.04279
1359.05765	0.04184
1357.77188	0.04097
1356.48611	0.04020
1355.20034	0.03947
1353.91457	0.03878
1352.62881	0.03810
1351.34304	0.03745
1350.05727	0.03683
1348.77150	0.03626
1347.48573	0.03570
1346.19996	0.03517
1344.91419	0.03466
1343.62842	0.03420
1342.34266	0.03380
1341.05689	0.03345
1339.77112	0.03314
1338.48535	0.03286
1337.19958	0.03257
1335.91381	0.03224
1334.62804	0.03187
1333.34227	0.03151
1332.05650	0.03117
1330.77074	0.03086
1329.48497	0.03055
1328.19920	0.03025
1326.91343	0.02996
1325.62766	0.02969
1324.34189	0.02943
1323.05612	0.02919
1321.77035	0.02893
1320.48459	0.02865
1319.19882	0.02836
1317.91305	0.02808
1316.62728	0.02781
1315.34151	0.02757
1314.05574	0.02734
1312.76997	0.02712
1311.48420	0.02691
1310.19843	0.02668
1308.91267	0.02646
1307.62690	0.02624
1306.34113	0.02607
1305.05536	0.02592
1303.76959	0.02576
1302.48382	0.02555
1301.19805	0.02530
1299.91228	0.02502
1298.62652	0.02478
1297.34075	0.02458
1296.05498	0.02442
1294.76921	0.02428
1293.48344	0.02418
1292.19767	0.02413
1290.91190	0.02410
1289.62613	0.02407
1288.34036	0.02398
1287.05460	0.02384
1285.76883	0.02369
1284.48306	0.02357
1283.19729	0.02350
1281.91152	0.02350
1280.62575	0.02351
1279.33998	0.02349
1278.05421	0.02342
1276.76845	0.02331
1275.48268	0.02320
1274.19691	0.02306
1272.91114	0.02290
1271.62537	0.02271
1270.33960	0.02253
1269.05383	0.02238
1267.76806	0.02231
1266.48229	0.02231
1265.19653	0.02237
1263.91076	0.02242
1262.62499	0.02240
1261.33922	0.02232
1260.05345	0.02223
1258.76768	0.02216
1257.48191	0.02213
1256.19614	0.02210
1254.91037	0.02207
1253.62461	0.02203
1252.33884	0.02200
1251.05307	0.02199
1249.76730	0.02200
1248.48153	0.02203
1247.19576	0.02204
1245.90999	0.02203
1244.62422	0.02198
1243.33846	0.02191
1242.05269	0.02183
1240.76692	0.02174
1239.48115	0.02164
1238.19538	0.02154
1236.90961	0.02143
1235.62384	0.02131
1234.33807	0.02118
1233.05230	0.02103
1231.76654	0.02090
1230.48077	0.02078
1229.19500	0.02064
1227.90923	0.02047
1226.62346	0.02025
1225.33769	0.02001
1224.05192	0.01978
1222.76615	0.01958
1221.48039	0.01943
1220.19462	0.01932
1218.90885	0.01920
1217.62308	0.01904
1216.33731	0.01885
1215.05154	0.01869
1213.76577	0.01856
1212.48000	0.01848
1211.19423	0.01841
1209.90847	0.01836
1208.62270	0.01831
1207.33693	0.01827
1206.05116	0.01821
1204.76539	0.01816
1203.47962	0.01814
1202.19385	0.01813
1200.90808	0.01814
1199.62232	0.01813
1198.33655	0.01804
1197.05078	0.01787
1195.76501	0.01768
1194.47924	0.01754
1193.19347	0.01749
1191.90770	0.01747
1190.62193	0.01739
1189.33616	0.01719
1188.05040	0.01693
1186.76463	0.01673
1185.47886	0.01665
1184.19309	0.01667
1182.90732	0.01672
1181.62155	0.01672
1180.33578	0.01664
1179.05001	0.01651
1177.76425	0.01639
1176.47848	0.01633
1175.19271	0.01636
1173.90694	0.01644
1172.62117	0.01650
1171.33540	0.01651
1170.04963	0.01647
1168.76386	0.01643
1167.47809	0.01644
1166.19233	0.01650
1164.90656	0.01656
1163.62079	0.01658
1162.33502	0.01658
1161.04925	0.01662
1159.76348	0.01673
1158.47771	0.01689
1157.19194	0.01703
1155.90618	0.01714
1154.62041	0.01721
1153.33464	0.01723
1152.04887	0.01725
1150.76310	0.01730
1149.47733	0.01739
1148.19156	0.01757
1146.90579	0.01785
1145.62002	0.01825
1144.33426	0.01873
1143.04849	0.01921
1141.76272	0.01964
1140.47695	0.02010
1139.19118	0.02068
1137.90541	0.02143
1136.61964	0.02229
1135.33387	0.02321
1134.04811	0.02423
1132.76234	0.02541
1131.47657	0.02680
1130.19080	0.02836
1128.90503	0.03005
1127.61926	0.03183
1126.33349	0.03370
1125.04772	0.03569
1123.76195	0.03783
1122.47619	0.04013
1121.19042	0.04258
1119.90465	0.04516
1118.61888	0.04777
1117.33311	0.05032
1116.04734	0.05279
1114.76157	0.05524
1113.47580	0.05772
1112.19004	0.06023
1110.90427	0.06272
1109.61850	0.06513
1108.33273	0.06745
1107.04696	0.06968
1105.76119	0.07183
1104.47542	0.07391
1103.18965	0.07593
1101.90388	0.07790
1100.61812	0.07980
1099.33235	0.08160
1098.04658	0.08330
1096.76081	0.08492
1095.47504	0.08648
1094.18927	0.08801
1092.90350	0.08948
1091.61773	0.09086
1090.33197	0.09211
1089.04620	0.09325
1087.76043	0.09434
1086.47466	0.09541
1085.18889	0.09651
1083.90312	0.09766
1082.61735	0.09889
1081.33158	0.10024
1080.04581	0.10171
1078.76005	0.10327
1077.47428	0.10489
1076.18851	0.10658
1074.90274	0.10841
1073.61697	0.11041
1072.33120	0.11256
1071.04543	0.11477
1069.75966	0.11693
1068.47390	0.11903
1067.18813	0.12114
1065.90236	0.12335
1064.61659	0.12565
1063.33082	0.12801
1062.04505	0.13041
1060.75928	0.13283
1059.47351	0.13522
1058.18774	0.13754
1056.90198	0.13973
1055.61621	0.14183
1054.33044	0.14387
1053.04467	0.14594
1051.75890	0.14810
1050.47313	0.15031
1049.18736	0.15253
1047.90159	0.15474
1046.61583	0.15696
1045.33006	0.15926
1044.04429	0.16161
1042.75852	0.16398
1041.47275	0.16631
1040.18698	0.16861
1038.90121	0.17090
1037.61544	0.17318
1036.32967	0.17547
1035.04391	0.17778
1033.75814	0.18006
1032.47237	0.18219
1031.18660	0.18407
1029.90083	0.18566
1028.61506	0.18699
1027.32929	0.18811
1026.04352	0.18908
1024.75775	0.18992
1023.47199	0.19059
1022.18622	0.19102
1020.90045	0.19110
1019.61468	0.19082
1018.32891	0.19020
1017.04314	0.18932
1015.75737	0.18821
1014.47160	0.18687
1013.18584	0.18528
1011.90007	0.18342
1010.61430	0.18125
1009.32853	0.17871
1008.04276	0.17583
1006.75699	0.17271
1005.47122	0.16940
1004.18545	0.16589
1002.89968	0.16215
1001.61392	0.15818
1000.32815	0.15406
999.04238	0.14987
997.75661	0.14569
996.47084	0.14153
995.18507	0.13737
993.89930	0.13315
992.61353	0.12888
991.32777	0.12464
990.04200	0.12052
988.75623	0.11660
987.47046	0.11287
986.18469	0.10930
984.89892	0.10592
983.61315	0.10271
982.32738	0.09964
981.04161	0.09665
979.75585	0.09373
978.47008	0.09094
977.18431	0.08835
975.89854	0.08602
974.61277	0.08402
973.32700	0.08234
972.04123	0.08098
970.75546	0.07993
969.46970	0.07920
968.18393	0.07884
966.89816	0.07887
965.61239	0.07923
964.32662	0.07980
963.04085	0.08040
961.75508	0.08084
960.46931	0.08101
959.18354	0.08080
957.89778	0.08016
956.61201	0.07909
955.32624	0.07763
954.04047	0.07594
952.75470	0.07417
951.46893	0.07244
950.18316	0.07078
948.89739	0.06919
947.61163	0.06768
946.32586	0.06624
945.04009	0.06485
943.75432	0.06344
942.46855	0.06196
941.18278	0.06043
939.89701	0.05892
938.61124	0.05750
937.32547	0.05620
936.03971	0.05506
934.75394	0.05408
933.46817	0.05321
932.18240	0.05240
930.89663	0.05160
929.61086	0.05079
928.32509	0.04997
927.03932	0.04916
925.75356	0.04841
924.46779	0.04774
923.18202	0.04713
921.89625	0.04661
920.61048	0.04617
919.32471	0.04579
918.03894	0.04539
916.75317	0.04489
915.46740	0.04428
914.18164	0.04365
912.89587	0.04308
911.61010	0.04256
910.32433	0.04208
909.03856	0.04161
907.75279	0.04119
906.46702	0.04086
905.18125	0.04059
903.89549	0.04030
902.60972	0.03994
901.32395	0.03955
900.03818	0.03918
898.75241	0.03885
897.46664	0.03854
896.18087	0.03825
894.89510	0.03801
893.60933	0.03785
892.32357	0.03773
891.03780	0.03761
889.75203	0.03748
888.46626	0.03742
887.18049	0.03756
885.89472	0.03813
884.60895	0.03935
883.32318	0.04131
882.03742	0.04374
880.75165	0.04617
879.46588	0.04811
878.18011	0.04946
876.89434	0.05043
875.60857	0.05141
874.32280	0.05254
873.03703	0.05365
871.75126	0.05438
870.46550	0.05449
869.17973	0.05401
867.89396	0.05304
866.60819	0.05166
865.32242	0.04995
864.03665	0.04808
862.75088	0.04623
861.46511	0.04453
860.17935	0.04300
858.89358	0.04169
857.60781	0.04064
856.32204	0.03983
855.03627	0.03916
853.75050	0.03854
852.46473	0.03797
851.17896	0.03748
849.89319	0.03708
848.60743	0.03671
847.32166	0.03636
846.03589	0.03605
844.75012	0.03579
843.46435	0.03555
842.17858	0.03528
840.89281	0.03497
839.60704	0.03464
838.32128	0.03433
837.03551	0.03406
835.74974	0.03385
834.46397	0.03371
833.17820	0.03363
831.89243	0.03357
830.60666	0.03346
829.32089	0.03329
828.03512	0.03308
826.74936	0.03285
825.46359	0.03263
824.17782	0.03244
822.89205	0.03231
821.60628	0.03224
820.32051	0.03220
819.03474	0.03221
817.74897	0.03223
816.46321	0.03221
815.17744	0.03209
813.89167	0.03191
812.60590	0.03172
811.32013	0.03158
810.03436	0.03150
808.74859	0.03142
807.46282	0.03132
806.17705	0.03114
804.89129	0.03094
803.60552	0.03077
802.31975	0.03071
801.03398	0.03075
799.74821	0.03083
798.46244	0.03090
797.17667	0.03096
795.89090	0.03102
794.60513	0.03107
793.31937	0.03107
792.03360	0.03100
790.74783	0.03087
789.46206	0.03071
788.17629	0.03054
786.89052	0.03038
785.60475	0.03025
784.31898	0.03016
783.03322	0.03015
781.74745	0.03024
780.46168	0.03036
779.17591	0.03040
777.89014	0.03033
776.60437	0.03020
775.31860	0.03013
774.03283	0.03014
772.74706	0.03017
771.46130	0.03016
770.17553	0.03010
768.88976	0.02999
767.60399	0.02986
766.31822	0.02970
765.03245	0.02957
763.74668	0.02952
762.46091	0.02957
761.17515	0.02965
759.88938	0.02971
758.60361	0.02972
757.31784	0.02972
756.03207	0.02977
754.74630	0.02992
753.46053	0.03016
752.17476	0.03040
750.88899	0.03051
749.60323	0.03042
748.31746	0.03012
747.03169	0.02977
745.74592	0.02953
744.46015	0.02951
743.17438	0.02964
741.88861	0.02975
740.60284	0.02968
739.31708	0.02946
738.03131	0.02922
736.74554	0.02912
735.45977	0.02913
734.17400	0.02917
732.88823	0.02920
731.60246	0.02926
730.31669	0.02936
729.03092	0.02947
727.74516	0.02955
726.45939	0.02961
725.17362	0.02962
723.88785	0.02954
722.60208	0.02941
721.31631	0.02931
720.03054	0.02931
718.74477	0.02942
717.45901	0.02953
716.17324	0.02955
714.88747	0.02946
713.60170	0.02930
712.31593	0.02915
711.03016	0.02906
709.74439	0.02904
708.45862	0.02907
707.17285	0.02911
705.88709	0.02911
704.60132	0.02909
703.31555	0.02906
702.02978	0.02904
700.74401	0.02904
699.45824	0.02907
698.17247	0.02911
696.88670	0.02914
695.60094	0.02915
694.31517	0.02916
693.02940	0.02917
691.74363	0.02917
690.45786	0.02915
689.17209	0.02912
687.88632	0.02910
686.60055	0.02908
685.31478	0.02904
684.02902	0.02894
682.74325	0.02879
681.45748	0.02866
680.17171	0.02856
678.88594	0.02849
677.60017	0.02845
676.31440	0.02842
675.02863	0.02842
673.74287	0.02844
672.45710	0.02845
671.17133	0.02846
669.88556	0.02849
668.59979	0.02858
667.31402	0.02871
666.02825	0.02869
664.74248	0.02858
663.45671	0.02843
662.17095	0.02828
660.88518	0.02814
659.59941	0.02799
658.31364	0.02783
657.02787	0.02770
655.74210	0.02763
654.45633	0.02761
653.17056	0.02764
651.88480	0.02769
650.59903	0.02772
649.31326	0.02769
648.02749	0.02759
646.74172	0.02746
645.45595	0.02737
644.17018	0.02737
642.88441	0.02744
641.59864	0.02753
640.31288	0.02761
639.02711	0.02770
637.74134	0.02781
636.45557	0.02795
635.16980	0.02810
633.88403	0.02827
632.59826	0.02846
631.31249	0.02863
630.02673	0.02870
628.74096	0.02868
627.45519	0.02887
626.16942	0.02890
624.88365	0.02904
623.59788	0.02970
622.31211	0.03113
621.02634	0.03333
619.74057	0.03609
618.45481	0.03915
617.16904	0.04226
615.88327	0.04514
614.59750	0.04754
613.31173	0.04937
612.02596	0.05088
610.74019	0.05272
609.45442	0.05550
608.16866	0.05926
606.88289	0.06340
605.59712	0.06720
604.31135	0.07028
603.02558	0.07248
601.73981	0.07370
600.45404	0.07398
599.16827	0.07348
597.88250	0.07241
596.59674	0.07092
595.31097	0.06915
594.02520	0.06733
592.73943	0.06574
591.45366	0.06455
590.16789	0.06377
588.88212	0.06336
587.59635	0.06331
586.31059	0.06366
585.02482	0.06444
583.73905	0.06558
582.45328	0.06701
581.16751	0.06864
579.88174	0.07043
578.59597	0.07231
577.31020	0.07419
576.02443	0.07599
574.73867	0.07773
573.45290	0.07951
572.16713	0.08144
570.88136	0.08355
569.59559	0.08581
568.30982	0.08822
567.02405	0.09079
565.73828	0.09343
564.45251	0.09585
563.16675	0.09764
561.88098	0.09846
560.59521	0.09816
559.30944	0.09679
558.02367	0.09445
556.73790	0.09135
555.45213	0.08770
554.16636	0.08381
552.88060	0.07996
551.59483	0.07628
550.30906	0.07279
549.02329	0.06943
547.73752	0.06624
546.45175	0.06331
545.16598	0.06072
543.88021	0.05849
542.59444	0.05651
541.30868	0.05472
540.02291	0.05312
538.73714	0.05174
537.45137	0.05050
536.16560	0.04930
534.87983	0.04805
533.59406	0.04678
532.30829	0.04558
531.02253	0.04453
529.73676	0.04361
528.45099	0.04276
527.16522	0.04199
525.87945	0.04131
524.59368	0.04075
523.30791	0.04026
522.02214	0.03978
520.73637	0.03928
519.45061	0.03877
518.16484	0.03824
516.87907	0.03765
515.59330	0.03696
514.30753	0.03617
513.02176	0.03534
511.73599	0.03462
510.45022	0.03416
509.16446	0.03393
507.87869	0.03375
506.59292	0.03346
505.30715	0.03304
504.02138	0.03256
502.73561	0.03211
501.44984	0.03172
500.16407	0.03138
498.87830	0.03103
497.59254	0.03067
496.30677	0.03029
495.02100	0.02991
493.73523	0.02952
492.44946	0.02916
491.16369	0.02882
489.87792	0.02849
488.59215	0.02819
487.30639	0.02793
486.02062	0.02780
484.73485	0.02782
483.44908	0.02793
482.16331	0.02803
480.87754	0.02809
479.59177	0.02811
478.30600	0.02815
477.02023	0.02823
475.73447	0.02833
474.44870	0.02846
473.16293	0.02865
471.87716	0.02889
470.59139	0.02905
469.30562	0.02900
468.01985	0.02871
466.73408	0.02829
465.44832	0.02788
464.16255	0.02752
462.87678	0.02721
461.59101	0.02692
460.30524	0.02666
459.01947	0.02639
457.73370	0.02604
456.44793	0.02562
455.16216	0.02519
453.87640	0.02486
452.59063	0.02466
451.30486	0.02452
450.01909	0.02437
448.73332	0.02418
447.44755	0.02397
446.16178	0.02372
444.87601	0.02344
443.59025	0.02317
442.30448	0.02293
441.01871	0.02274
439.73294	0.02257
438.44717	0.02243
437.16140	0.02232
435.87563	0.02224
434.58986	0.02216
433.30409	0.02205
432.01833	0.02191
430.73256	0.02180
429.44679	0.02172
428.16102	0.02162
426.87525	0.02146
425.58948	0.02125
424.30371	0.02103
423.01794	0.02085
421.73218	0.02069
420.44641	0.02052
419.16064	0.02032
417.87487	0.02007
416.58910	0.01983
415.30333	0.01964
414.01756	0.01951
412.73179	0.01941
411.44602	0.01936
410.16026	0.01937
408.87449	0.01943
407.58872	0.01949
406.30295	0.01947
405.01718	0.01938
403.73141	0.01929
402.44564	0.01930
401.15987	0.01941
399.87411	0.01954
