3997.45528	0.05173
3996.16951	0.05252
3994.88374	0.05306
3993.59798	0.05316
3992.31221	0.05287
3991.02644	0.05254
3989.74067	0.05252
3988.45490	0.05291
3987.16913	0.05345
3985.88336	0.05380
3984.59759	0.05386
3983.31183	0.05393
3982.02606	0.05431
3980.74029	0.05493
3979.45452	0.05542
3978.16875	0.05554
3976.88298	0.05536
3975.59721	0.05513
3974.31144	0.05494
3973.02567	0.05471
3971.73991	0.05437
3970.45414	0.05392
3969.16837	0.05343
3967.88260	0.05295
3966.59683	0.05262
3965.31106	0.05254
3964.02529	0.05273
3962.73952	0.05304
3961.45376	0.05321
3960.16799	0.05309
3958.88222	0.05266
3957.59645	0.05213
3956.31068	0.05183
3955.02491	0.05196
3953.73914	0.05244
3952.45337	0.05305
3951.16760	0.05369
3949.88184	0.05428
3948.59607	0.05465
3947.31030	0.05462
3946.02453	0.05425
3944.73876	0.05382
3943.45299	0.05352
3942.16722	0.05337
3940.88145	0.05334
3939.59569	0.05336
3938.30992	0.05339
3937.02415	0.05334
3935.73838	0.05331
3934.45261	0.05347
3933.16684	0.05394
3931.88107	0.05451
3930.59530	0.05482
3929.30953	0.05462
3928.02377	0.05400
3926.73800	0.05325
3925.45223	0.05260
3924.16646	0.05219
3922.88069	0.05209
3921.59492	0.05231
3920.30915	0.05278
3919.02338	0.05325
3917.73762	0.05343
3916.45185	0.05319
3915.16608	0.05268
3913.88031	0.05219
3912.59454	0.05193
3911.30877	0.05188
3910.02300	0.05184
3908.73723	0.05158
3907.45146	0.05107
3906.16570	0.05047
3904.87993	0.05001
3903.59416	0.04987
3902.30839	0.05012
3901.02262	0.05070
3899.73685	0.05140
3898.45108	0.05188
3897.16531	0.05190
3895.87955	0.05149
3894.59378	0.05096
3893.30801	0.05058
3892.02224	0.05040
3890.73647	0.05035
3889.45070	0.05044
3888.16493	0.05081
3886.87916	0.05144
3885.59339	0.05194
3884.30763	0.05184
3883.02186	0.05112
3881.73609	0.05030
3880.45032	0.04986
3879.16455	0.04976
3877.87878	0.04961
3876.59301	0.04930
3875.30724	0.04913
3874.02148	0.04945
3872.73571	0.05022
3871.44994	0.05110
3870.16417	0.05179
3868.87840	0.05221
3867.59263	0.05243
3866.30686	0.05247
3865.02109	0.05233
3863.73532	0.05204
3862.44956	0.05170
3861.16379	0.05127
3859.87802	0.05058
3858.59225	0.04953
3857.30648	0.04847
3856.02071	0.04806
3854.73494	0.04865
3853.44917	0.04982
3852.16341	0.05070
3850.87764	0.05082
3849.59187	0.05033
3848.30610	0.04965
3847.02033	0.04909
3845.73456	0.04883
3844.44879	0.04891
3843.16302	0.04915
3841.87725	0.04923
3840.59149	0.04907
3839.30572	0.04889
3838.01995	0.04882
3836.73418	0.04873
3835.44841	0.04846
3834.16264	0.04820
3832.87687	0.04837
3831.59110	0.04914
3830.30534	0.05020
3829.01957	0.05104
3827.73380	0.05137
3826.44803	0.05128
3825.16226	0.05101
3823.87649	0.05074
3822.59072	0.05050
3821.30495	0.05031
3820.01918	0.05023
3818.73342	0.05030
3817.44765	0.05042
3816.16188	0.05043
3814.87611	0.05024
3813.59034	0.04979
3812.30457	0.04912
3811.01880	0.04840
3809.73303	0.04795
3808.44726	0.04797
3807.16150	0.04827
3805.87573	0.04848
3804.58996	0.04859
3803.30419	0.04892
3802.01842	0.04955
3800.73265	0.04998
3799.44688	0.04974
3798.16111	0.04903
3796.87535	0.04850
3795.58958	0.04853
3794.30381	0.04890
3793.01804	0.04921
3791.73227	0.04921
3790.44650	0.04889
3789.16073	0.04840
3787.87496	0.04800
3786.58919	0.04789
3785.30343	0.04806
3784.01766	0.04835
3782.73189	0.04859
3781.44612	0.04865
3780.16035	0.04842
3778.87458	0.04786
3777.58881	0.04709
3776.30304	0.04648
3775.01728	0.04637
3773.73151	0.04680
3772.44574	0.04735
3771.15997	0.04752
3769.87420	0.04713
3768.58843	0.04640
3767.30266	0.04578
3766.01689	0.04558
3764.73112	0.04591
3763.44536	0.04675
3762.15959	0.04793
3760.87382	0.04903
3759.58805	0.04954
3758.30228	0.04922
3757.01651	0.04840
3755.73074	0.04777
3754.44497	0.04788
3753.15921	0.04872
3751.87344	0.04976
3750.58767	0.05037
3749.30190	0.05024
3748.01613	0.04955
3746.73036	0.04870
3745.44459	0.04798
3744.15882	0.04738
3742.87305	0.04681
3741.58729	0.04636
3740.30152	0.04618
3739.01575	0.04633
3737.72998	0.04673
3736.44421	0.04727
3735.15844	0.04778
3733.87267	0.04808
3732.58690	0.04803
3731.30114	0.04779
3730.01537	0.04756
3728.72960	0.04739
3727.44383	0.04712
3726.15806	0.04669
3724.87229	0.04624
3723.58652	0.04590
3722.30075	0.04566
3721.01498	0.04548
3719.72922	0.04546
3718.44345	0.04568
3717.15768	0.04607
3715.87191	0.04639
3714.58614	0.04651
3713.30037	0.04651
3712.01460	0.04651
3710.72883	0.04654
3709.44307	0.04659
3708.15730	0.04669
3706.87153	0.04676
3705.58576	0.04665
3704.29999	0.04632
3703.01422	0.04594
3701.72845	0.04570
3700.44268	0.04552
3699.15691	0.04528
3697.87115	0.04512
3696.58538	0.04522
3695.29961	0.04540
3694.01384	0.04518
3692.72807	0.04452
3691.44230	0.04388
3690.15653	0.04377
3688.87076	0.04420
3687.58500	0.04477
3686.29923	0.04512
3685.01346	0.04521
3683.72769	0.04513
3682.44192	0.04494
3681.15615	0.04471
3679.87038	0.04451
3678.58461	0.04439
3677.29884	0.04438
3676.01308	0.04454
3674.72731	0.04492
3673.44154	0.04560
3672.15577	0.04654
3670.87000	0.04750
3669.58423	0.04825
3668.29846	0.04870
3667.01269	0.04889
3665.72693	0.04879
3664.44116	0.04838
3663.15539	0.04775
3661.86962	0.04713
3660.58385	0.04661
3659.29808	0.04611
3658.01231	0.04561
3656.72654	0.04530
3655.44077	0.04546
3654.15501	0.04614
3652.86924	0.04716
3651.58347	0.04829
3650.29770	0.04925
3649.01193	0.04985
3647.72616	0.05003
3646.44039	0.04990
3645.15462	0.04967
3643.86886	0.04950
3642.58309	0.04948
3641.29732	0.04968
3640.01155	0.05011
3638.72578	0.05063
3637.44001	0.05101
3636.15424	0.05106
3634.86847	0.05083
3633.58270	0.05053
3632.29694	0.05046
3631.01117	0.05075
3629.72540	0.05117
3628.43963	0.05129
3627.15386	0.05095
3625.86809	0.05051
3624.58232	0.05050
3623.29655	0.05103
3622.01079	0.05166
3620.72502	0.05194
3619.43925	0.05183
3618.15348	0.05172
3616.86771	0.05194
3615.58194	0.05249
3614.29617	0.05306
3613.01040	0.05340
3611.72463	0.05367
3610.43887	0.05415
3609.15310	0.05484
3607.86733	0.05534
3606.58156	0.05531
3605.29579	0.05480
3604.01002	0.05413
3602.72425	0.05357
3601.43848	0.05330
3600.15272	0.05347
3598.86695	0.05405
3597.58118	0.05481
3596.29541	0.05543
3595.00964	0.05580
3593.72387	0.05596
3592.43810	0.05605
3591.15233	0.05617
3589.86656	0.05636
3588.58080	0.05663
3587.29503	0.05692
3586.00926	0.05708
3584.72349	0.05711
3583.43772	0.05729
3582.15195	0.05796
3580.86618	0.05915
3579.58041	0.06050
3578.29464	0.06156
3577.00888	0.06220
3575.72311	0.06266
3574.43734	0.06321
3573.15157	0.06377
3571.86580	0.06399
3570.58003	0.06364
3569.29426	0.06293
3568.00849	0.06232
3566.72273	0.06213
3565.43696	0.06244
3564.15119	0.06308
3562.86542	0.06375
3561.57965	0.06412
3560.29388	0.06409
3559.00811	0.06381
3557.72234	0.06351
3556.43657	0.06335
3555.15081	0.06334
3553.86504	0.06346
3552.57927	0.06371
3551.29350	0.06409
3550.00773	0.06460
3548.72196	0.06512
3547.43619	0.06544
3546.15042	0.06532
3544.86466	0.06483
3543.57889	0.06430
3542.29312	0.06417
3541.00735	0.06459
3539.72158	0.06535
3538.43581	0.06611
3537.15004	0.06667
3535.86427	0.06706
3534.57850	0.06729
3533.29274	0.06730
3532.00697	0.06719
3530.72120	0.06723
3529.43543	0.06762
3528.14966	0.06822
3526.86389	0.06866
3525.57812	0.06873
3524.29235	0.06845
3523.00659	0.06796
3521.72082	0.06745
3520.43505	0.06716
3519.14928	0.06731
3517.86351	0.06783
3516.57774	0.06849
3515.29197	0.06907
3514.00620	0.06960
3512.72043	0.07018
3511.43467	0.07071
3510.14890	0.07103
3508.86313	0.07101
3507.57736	0.07077
3506.29159	0.07062
3505.00582	0.07087
3503.72005	0.07157
3502.43428	0.07228
3501.14852	0.07245
3499.86275	0.07198
3498.57698	0.07134
3497.29121	0.07107
3496.00544	0.07123
3494.71967	0.07149
3493.43390	0.07175
3492.14813	0.07220
3490.86236	0.07295
3489.57660	0.07367
3488.29083	0.07393
3487.00506	0.07367
3485.71929	0.07328
3484.43352	0.07326
3483.14775	0.07384
3481.86198	0.07485
3480.57621	0.07585
3479.29045	0.07640
3478.00468	0.07639
3476.71891	0.07606
3475.43314	0.07582
3474.14737	0.07587
3472.86160	0.07610
3471.57583	0.07637
3470.29006	0.07665
3469.00429	0.07692
3467.71853	0.07704
3466.43276	0.07678
3465.14699	0.07624
3463.86122	0.07584
3462.57545	0.07598
3461.28968	0.07657
3460.00391	0.07719
3458.71814	0.07747
3457.43238	0.07746
3456.14661	0.07747
3454.86084	0.07766
3453.57507	0.07791
3452.28930	0.07808
3451.00353	0.07824
3449.71776	0.07861
3448.43199	0.07922
3447.14622	0.07977
3445.86046	0.07987
3444.57469	0.07945
3443.28892	0.07878
3442.00315	0.07827
3440.71738	0.07817
3439.43161	0.07852
3438.14584	0.07912
3436.86007	0.07969
3435.57431	0.08002
3434.28854	0.08012
3433.00277	0.08018
3431.71700	0.08033
3430.43123	0.08054
3429.14546	0.08074
3427.85969	0.08089
3426.57392	0.08088
3425.28815	0.08061
3424.00239	0.08014
3422.71662	0.07981
3421.43085	0.07990
3420.14508	0.08043
3418.85931	0.08118
3417.57354	0.08193
3416.28777	0.08246
3415.00200	0.08263
3413.71624	0.08246
3412.43047	0.08211
3411.14470	0.08183
3409.85893	0.08173
3408.57316	0.08180
3407.28739	0.08194
3406.00162	0.08205
3404.71585	0.08210
3403.43008	0.08219
3402.14432	0.08243
3400.85855	0.08280
3399.57278	0.08331
3398.28701	0.08379
3397.00124	0.08410
3395.71547	0.08425
3394.42970	0.08430
3393.14393	0.08428
3391.85817	0.08428
3390.57240	0.08440
3389.28663	0.08461
3388.00086	0.08473
3386.71509	0.08461
3385.42932	0.08428
3384.14355	0.08397
3382.85778	0.08388
3381.57201	0.08400
3380.28625	0.08423
3379.00048	0.08448
3377.71471	0.08472
3376.42894	0.08495
3375.14317	0.08525
3373.85740	0.08573
3372.57163	0.08635
3371.28586	0.08694
3370.00010	0.08730
3368.71433	0.08740
3367.42856	0.08738
3366.14279	0.08733
3364.85702	0.08722
3363.57125	0.08696
3362.28548	0.08651
3360.99971	0.08601
3359.71394	0.08572
3358.42818	0.08579
3357.14241	0.08612
3355.85664	0.08646
3354.57087	0.08661
3353.28510	0.08660
3351.99933	0.08657
3350.71356	0.08656
3349.42779	0.08656
3348.14202	0.08654
3346.85626	0.08654
3345.57049	0.08662
3344.28472	0.08680
3342.99895	0.08703
3341.71318	0.08727
3340.42741	0.08747
3339.14164	0.08758
3337.85587	0.08754
3336.57011	0.08735
3335.28434	0.08716
3333.99857	0.08714
3332.71280	0.08739
3331.42703	0.08782
3330.14126	0.08813
3328.85549	0.08806
3327.56972	0.08762
3326.28395	0.08714
3324.99819	0.08697
3323.71242	0.08724
3322.42665	0.08772
3321.14088	0.08805
3319.85511	0.08797
3318.56934	0.08749
3317.28357	0.08689
3315.99780	0.08645
3314.71204	0.08627
3313.42627	0.08628
3312.14050	0.08640
3310.85473	0.08667
3309.56896	0.08705
3308.28319	0.08743
3306.99742	0.08768
3305.71165	0.08780
3304.42588	0.08779
3303.14012	0.08757
3301.85435	0.08715
3300.56858	0.08673
3299.28281	0.08656
3297.99704	0.08669
3296.71127	0.08697
3295.42550	0.08729
3294.13973	0.08767
3292.85397	0.08813
3291.56820	0.08851
3290.28243	0.08865
3288.99666	0.08858
3287.71089	0.08841
3286.42512	0.08819
3285.13935	0.08782
3283.85358	0.08725
3282.56781	0.08660
3281.28205	0.08610
3279.99628	0.08592
3278.71051	0.08607
3277.42474	0.08643
3276.13897	0.08679
3274.85320	0.08693
3273.56743	0.08674
3272.28166	0.08633
3270.99590	0.08590
3269.71013	0.08565
3268.42436	0.08562
3267.13859	0.08577
3265.85282	0.08599
3264.56705	0.08613
3263.28128	0.08604
3261.99551	0.08569
3260.70974	0.08523
3259.42398	0.08489
3258.13821	0.08485
3256.85244	0.08508
3255.56667	0.08541
3254.28090	0.08565
3252.99513	0.08566
3251.70936	0.08543
3250.42359	0.08507
3249.13783	0.08471
3247.85206	0.08440
3246.56629	0.08408
3245.28052	0.08369
3243.99475	0.08327
3242.70898	0.08299
3241.42321	0.08294
3240.13744	0.08312
3238.85167	0.08343
3237.56591	0.08365
3236.28014	0.08360
3234.99437	0.08321
3233.70860	0.08262
3232.42283	0.08209
3231.13706	0.08180
3229.85129	0.08175
3228.56552	0.08178
3227.27976	0.08171
3225.99399	0.08154
3224.70822	0.08140
3223.42245	0.08137
3222.13668	0.08137
3220.85091	0.08130
3219.56514	0.08124
3218.27937	0.08128
3216.99360	0.08146
3215.70784	0.08167
3214.42207	0.08173
3213.13630	0.08151
3211.85053	0.08102
3210.56476	0.08041
3209.27899	0.07994
3207.99322	0.07978
3206.70745	0.07999
3205.42169	0.08043
3204.13592	0.08085
3202.85015	0.08100
3201.56438	0.08080
3200.27861	0.08042
3198.99284	0.08015
3197.70707	0.08003
3196.42130	0.07983
3195.13553	0.07928
3193.84977	0.07848
3192.56400	0.07782
3191.27823	0.07768
3189.99246	0.07801
3188.70669	0.07845
3187.42092	0.07870
3186.13515	0.07871
3184.84938	0.07863
3183.56362	0.07861
3182.27785	0.07861
3180.99208	0.07849
3179.70631	0.07817
3178.42054	0.07776
3177.13477	0.07746
3175.84900	0.07742
3174.56323	0.07753
3173.27746	0.07755
3171.99170	0.07730
3170.70593	0.07685
3169.42016	0.07641
3168.13439	0.07625
3166.84862	0.07640
3165.56285	0.07661
3164.27708	0.07648
3162.99131	0.07583
3161.70555	0.07489
3160.41978	0.07418
3159.13401	0.07409
3157.84824	0.07455
3156.56247	0.07522
3155.27670	0.07579
3153.99093	0.07618
3152.70516	0.07639
3151.41939	0.07640
3150.13363	0.07619
3148.84786	0.07589
3147.56209	0.07567
3146.27632	0.07548
3144.99055	0.07518
3143.70478	0.07476
3142.41901	0.07439
3141.13324	0.07426
3139.84748	0.07432
3138.56171	0.07445
3137.27594	0.07455
3135.99017	0.07464
3134.70440	0.07469
3133.41863	0.07457
3132.13286	0.07418
3130.84709	0.07360
3129.56132	0.07313
3128.27556	0.07300
3126.98979	0.07308
3125.70402	0.07304
3124.41825	0.07267
3123.13248	0.07210
3121.84671	0.07161
3120.56094	0.07136
3119.27517	0.07134
3117.98940	0.07143
3116.70364	0.07149
3115.41787	0.07138
3114.13210	0.07101
3112.84633	0.07045
3111.56056	0.06999
3110.27479	0.06988
3108.98902	0.07012
3107.70325	0.07041
3106.41749	0.07051
3105.13172	0.07046
3103.84595	0.07049
3102.56018	0.07072
3101.27441	0.07100
3099.98864	0.07103
3098.70287	0.07069
3097.41710	0.07018
3096.13133	0.06978
3094.84557	0.06964
3093.55980	0.06972
3092.27403	0.06995
3090.98826	0.07021
3089.70249	0.07042
3088.41672	0.07056
3087.13095	0.07065
3085.84518	0.07072
3084.55942	0.07064
3083.27365	0.07033
3081.98788	0.06986
3080.70211	0.06942
3079.41634	0.06915
3078.13057	0.06903
3076.84480	0.06899
3075.55903	0.06900
3074.27326	0.06904
3072.98750	0.06905
3071.70173	0.06900
3070.41596	0.06900
3069.13019	0.06920
3067.84442	0.06959
3066.55865	0.06990
3065.27288	0.06984
3063.98711	0.06937
3062.70135	0.06873
3061.41558	0.06819
3060.12981	0.06787
3058.84404	0.06774
3057.55827	0.06777
3056.27250	0.06787
3054.98673	0.06795
3053.70096	0.06795
3052.41519	0.06788
3051.12943	0.06777
3049.84366	0.06755
3048.55789	0.06717
3047.27212	0.06677
3045.98635	0.06653
3044.70058	0.06652
3043.41481	0.06660
3042.12904	0.06654
3040.84328	0.06631
3039.55751	0.06609
3038.27174	0.06605
3036.98597	0.06615
3035.70020	0.06624
3034.41443	0.06618
3033.12866	0.06600
3031.84289	0.06578
3030.55712	0.06555
3029.27136	0.06533
3027.98559	0.06514
3026.69982	0.06500
3025.41405	0.06485
3024.12828	0.06465
3022.84251	0.06441
3021.55674	0.06418
3020.27097	0.06407
3018.98521	0.06413
3017.69944	0.06427
3016.41367	0.06430
3015.12790	0.06405
3013.84213	0.06357
3012.55636	0.06305
3011.27059	0.06272
3009.98482	0.06268
3008.69905	0.06288
3007.41329	0.06311
3006.12752	0.06320
3004.84175	0.06311
3003.55598	0.06293
3002.27021	0.06277
3000.98444	0.06270
2999.69867	0.06281
2998.41290	0.06287
2997.12714	0.06290
2995.84137	0.06294
2994.55560	0.06302
2993.26983	0.06308
2991.98406	0.06302
2990.69829	0.06284
2989.41252	0.06269
2988.12675	0.06276
2986.84098	0.06308
2985.55522	0.06351
2984.26945	0.06387
2982.98368	0.06410
2981.69791	0.06432
2980.41214	0.06468
2979.12637	0.06514
2977.84060	0.06557
2976.55483	0.06590
2975.26907	0.06629
2973.98330	0.06692
2972.69753	0.06783
2971.41176	0.06887
2970.12599	0.06980
2968.84022	0.07049
2967.55445	0.07101
2966.26868	0.07157
2964.98291	0.07224
2963.69715	0.07289
2962.41138	0.07340
2961.12561	0.07393
2959.83984	0.07468
2958.55407	0.07559
2957.26830	0.07637
2955.98253	0.07688
2954.69676	0.07719
2953.41100	0.07743
2952.12523	0.07763
2950.83946	0.07778
2949.55369	0.07787
2948.26792	0.07791
2946.98215	0.07789
2945.69638	0.07781
2944.41061	0.07770
2943.12484	0.07763
2941.83908	0.07758
2940.55331	0.07757
2939.26754	0.07764
2937.98177	0.07795
2936.69600	0.07859
2935.41023	0.07947
2934.12446	0.08030
2932.83869	0.08086
2931.55293	0.08116
2930.26716	0.08138
2928.98139	0.08169
2927.69562	0.08212
2926.40985	0.08254
2925.12408	0.08282
2923.83831	0.08289
2922.55254	0.08285
2921.26677	0.08280
2919.98101	0.08274
2918.69524	0.08251
2917.40947	0.08195
2916.12370	0.08103
2914.83793	0.07989
2913.55216	0.07882
2912.26639	0.07807
2910.98062	0.07761
2909.69486	0.07723
2908.40909	0.07671
2907.12332	0.07609
2905.83755	0.07555
2904.55178	0.07520
2903.26601	0.07502
2901.98024	0.07488
2900.69447	0.07460
2899.40870	0.07413
2898.12294	0.07351
2896.83717	0.07284
2895.55140	0.07216
2894.26563	0.07149
2892.97986	0.07085
2891.69409	0.07025
2890.40832	0.06967
2889.12255	0.06915
2887.83678	0.06871
2886.55102	0.06836
2885.26525	0.06805
2883.97948	0.06773
2882.69371	0.06740
2881.40794	0.06713
2880.12217	0.06704
2878.83640	0.06716
2877.55063	0.06743
2876.26487	0.06781
2874.97910	0.06827
2873.69333	0.06871
2872.40756	0.06903
2871.12179	0.06924
2869.83602	0.06944
2868.55025	0.06964
2867.26448	0.06973
2865.97871	0.06966
2864.69295	0.06951
2863.40718	0.06936
2862.12141	0.06914
2860.83564	0.06881
2859.54987	0.06844
2858.26410	0.06812
2856.97833	0.06786
2855.69256	0.06771
2854.40680	0.06767
2853.12103	0.06769
2851.83526	0.06766
2850.54949	0.06745
2849.26372	0.06706
2847.97795	0.06650
2846.69218	0.06584
2845.40641	0.06513
2844.12064	0.06445
2842.83488	0.06379
2841.54911	0.06306
2840.26334	0.06219
2838.97757	0.06123
2837.69180	0.06039
2836.40603	0.05982
2835.12026	0.05949
2833.83449	0.05914
2832.54873	0.05855
2831.26296	0.05778
2829.97719	0.05705
2828.69142	0.05657
2827.40565	0.05636
2826.11988	0.05627
2824.83411	0.05620
2823.54834	0.05607
2822.26257	0.05587
2820.97681	0.05560
2819.69104	0.05527
2818.40527	0.05493
2817.11950	0.05457
2815.83373	0.05417
2814.54796	0.05374
2813.26219	0.05338
2811.97642	0.05318
2810.69066	0.05314
2809.40489	0.05313
2808.11912	0.05305
2806.83335	0.05296
2805.54758	0.05288
2804.26181	0.05279
2802.97604	0.05261
2801.69027	0.05233
2800.40450	0.05201
2799.11874	0.05173
2797.83297	0.05158
2796.54720	0.05156
2795.26143	0.05161
2793.97566	0.05164
2792.68989	0.05159
2791.40412	0.05145
2790.11835	0.05121
2788.83259	0.05090
2787.54682	0.05065
2786.26105	0.05060
2784.97528	0.05071
2783.68951	0.05074
2782.40374	0.05051
2781.11797	0.05006
2779.83220	0.04961
2778.54643	0.04936
2777.26067	0.04934
2775.97490	0.04945
2774.68913	0.04957
2773.40336	0.04966
2772.11759	0.04973
2770.83182	0.04981
2769.54605	0.04988
2768.26028	0.04988
2766.97452	0.04974
2765.68875	0.04943
2764.40298	0.04908
2763.11721	0.04885
2761.83144	0.04883
2760.54567	0.04895
2759.25990	0.04906
2757.97413	0.04908
2756.68836	0.04898
2755.40260	0.04875
2754.11683	0.04846
2752.83106	0.04822
2751.54529	0.04813
2750.25952	0.04814
2748.97375	0.04817
2747.68798	0.04812
2746.40221	0.04799
2745.11645	0.04787
2743.83068	0.04788
2742.54491	0.04807
2741.25914	0.04836
2739.97337	0.04859
2738.68760	0.04862
2737.40183	0.04845
2736.11606	0.04817
2734.83029	0.04794
2733.54453	0.04786
2732.25876	0.04791
2730.97299	0.04792
2729.68722	0.04776
2728.40145	0.04740
2727.11568	0.04696
2725.82991	0.04660
2724.54414	0.04638
2723.25838	0.04626
2721.97261	0.04618
2720.68684	0.04611
2719.40107	0.04605
2718.11530	0.04604
2716.82953	0.04613
2715.54376	0.04630
2714.25799	0.04641
2712.97222	0.04636
2711.68646	0.04611
2710.40069	0.04577
2709.11492	0.04547
2707.82915	0.04528
2706.54338	0.04521
2705.25761	0.04518
2703.97184	0.04516
2702.68607	0.04519
2701.40031	0.04531
2700.11454	0.04550
2698.82877	0.04569
2697.54300	0.04574
2696.25723	0.04561
2694.97146	0.04535
2693.68569	0.04508
2692.39992	0.04489
2691.11415	0.04478
2689.82839	0.04467
2688.54262	0.04454
2687.25685	0.04441
2685.97108	0.04435
2684.68531	0.04445
2683.39954	0.04463
2682.11377	0.04473
2680.82800	0.04463
2679.54224	0.04441
2678.25647	0.04425
2676.97070	0.04420
2675.68493	0.04420
2674.39916	0.04411
2673.11339	0.04392
2671.82762	0.04369
2670.54185	0.04349
2669.25608	0.04336
2667.97032	0.04329
2666.68455	0.04329
2665.39878	0.04332
2664.11301	0.04334
2662.82724	0.04335
2661.54147	0.04331
2660.25570	0.04323
2658.96993	0.04310
2657.68417	0.04301
2656.39840	0.04304
2655.11263	0.04313
2653.82686	0.04310
2652.54109	0.04285
2651.25532	0.04248
2649.96955	0.04215
2648.68378	0.04194
2647.39801	0.04178
2646.11225	0.04160
2644.82648	0.04140
2643.54071	0.04122
2642.25494	0.04107
2640.96917	0.04096
2639.68340	0.04085
2638.39763	0.04069
2637.11186	0.04047
2635.82609	0.04028
2634.54033	0.04020
2633.25456	0.04019
2631.96879	0.04011
2630.68302	0.03992
2629.39725	0.03969
2628.11148	0.03956
2626.82571	0.03959
2625.53994	0.03975
2624.25418	0.03989
2622.96841	0.03987
2621.68264	0.03967
2620.39687	0.03943
2619.11110	0.03922
2617.82533	0.03899
2616.53956	0.03867
2615.25379	0.03826
2613.96802	0.03789
2612.68226	0.03766
2611.39649	0.03760
2610.11072	0.03763
2608.82495	0.03769
2607.53918	0.03772
2606.25341	0.03766
2604.96764	0.03755
2603.68187	0.03746
2602.39611	0.03742
2601.11034	0.03734
2599.82457	0.03712
2598.53880	0.03674
2597.25303	0.03632
2595.96726	0.03602
2594.68149	0.03594
2593.39572	0.03604
2592.10995	0.03620
2590.82419	0.03634
2589.53842	0.03650
2588.25265	0.03667
2586.96688	0.03675
2585.68111	0.03669
2584.39534	0.03657
2583.10957	0.03651
2581.82380	0.03648
2580.53804	0.03646
2579.25227	0.03656
2577.96650	0.03685
2576.68073	0.03717
2575.39496	0.03721
2574.10919	0.03683
2572.82342	0.03617
2571.53765	0.03548
2570.25188	0.03497
2568.96612	0.03474
2567.68035	0.03484
2566.39458	0.03517
2565.10881	0.03557
2563.82304	0.03583
2562.53727	0.03587
2561.25150	0.03575
2559.96573	0.03561
2558.67997	0.03551
2557.39420	0.03544
2556.10843	0.03539
2554.82266	0.03537
2553.53689	0.03540
2552.25112	0.03542
2550.96535	0.03537
2549.67958	0.03525
2548.39381	0.03515
2547.10805	0.03513
2545.82228	0.03514
2544.53651	0.03509
2543.25074	0.03495
2541.96497	0.03477
2540.67920	0.03450
2539.39343	0.03413
2538.10766	0.03373
2536.82190	0.03353
2535.53613	0.03365
2534.25036	0.03392
2532.96459	0.03406
2531.67882	0.03393
2530.39305	0.03368
2529.10728	0.03346
2527.82151	0.03335
2526.53574	0.03332
2525.24998	0.03340
2523.96421	0.03358
2522.67844	0.03380
2521.39267	0.03393
2520.10690	0.03389
2518.82113	0.03370
2517.53536	0.03338
2516.24959	0.03294
2514.96383	0.03246
2513.67806	0.03206
2512.39229	0.03185
2511.10652	0.03182
2509.82075	0.03190
2508.53498	0.03204
2507.24921	0.03221
2505.96344	0.03246
2504.67767	0.03281
2503.39191	0.03324
2502.10614	0.03357
2500.82037	0.03366
2499.53460	0.03348
2498.24883	0.03321
2496.96306	0.03298
2495.67729	0.03285
2494.39152	0.03275
2493.10576	0.03256
2491.81999	0.03221
2490.53422	0.03173
2489.24845	0.03126
2487.96268	0.03102
2486.67691	0.03113
2485.39114	0.03149
2484.10537	0.03187
2482.81960	0.03210
2481.53384	0.03211
2480.24807	0.03199
2478.96230	0.03180
2477.67653	0.03162
2476.39076	0.03153
2475.10499	0.03155
2473.81922	0.03167
2472.53345	0.03180
2471.24769	0.03185
2469.96192	0.03178
2468.67615	0.03166
2467.39038	0.03161
2466.10461	0.03171
2464.81884	0.03200
2463.53307	0.03246
2462.24730	0.03300
2460.96153	0.03341
2459.67577	0.03347
2458.39000	0.03312
2457.10423	0.03253
2455.81846	0.03196
2454.53269	0.03165
2453.24692	0.03155
2451.96115	0.03146
2450.67538	0.03118
2449.38962	0.03077
2448.10385	0.03046
2446.81808	0.03045
2445.53231	0.03074
2444.24654	0.03116
2442.96077	0.03150
2441.67500	0.03166
2440.38923	0.03164
2439.10346	0.03144
2437.81770	0.03109
2436.53193	0.03075
2435.24616	0.03061
2433.96039	0.03070
2432.67462	0.03084
2431.38885	0.03091
2430.10308	0.03096
2428.81731	0.03102
2427.53155	0.03103
2426.24578	0.03088
2424.96001	0.03058
2423.67424	0.03025
2422.38847	0.02997
2421.10270	0.02972
2419.81693	0.02951
2418.53116	0.02945
2417.24539	0.02958
2415.95963	0.02982
2414.67386	0.02996
2413.38809	0.02996
2412.10232	0.02999
2410.81655	0.03022
2409.53078	0.03060
2408.24501	0.03085
2406.95924	0.03080
2405.67347	0.03052
2404.38771	0.03018
2403.10194	0.02981
2401.81617	0.02941
2400.53040	0.02906
2399.24463	0.02871
2397.95886	0.02889
2396.67309	0.02914
2395.38732	0.02936
2394.10156	0.02969
2392.81579	0.03015
2391.53002	0.03058
2390.24425	0.03082
2388.95848	0.03081
2387.67271	0.03062
2386.38694	0.03037
2385.10117	0.03013
2383.81540	0.02997
2382.52964	0.02992
2381.24387	0.03001
2379.95810	0.03018
2378.67233	0.03038
2377.38656	0.03055
2376.10079	0.03067
2374.81502	0.03072
2373.52925	0.03071
2372.24349	0.03064
2370.95772	0.03046
2369.67195	0.03017
2368.38618	0.02993
2367.10041	0.02990
2365.81464	0.03004
2364.52887	0.03022
2363.24310	0.03038
2361.95733	0.03056
2360.67157	0.03080
2359.38580	0.03096
2358.10003	0.03092
2356.81426	0.03076
2355.52849	0.03057
2354.24272	0.03041
2352.95695	0.03030
2351.67118	0.03031
2350.38542	0.03037
2349.09965	0.03036
2347.81388	0.03030
2346.52811	0.03042
2345.24234	0.03059
2343.95657	0.03045
2342.67080	0.03008
2341.38503	0.03006
2340.09926	0.03045
2338.81350	0.03054
2337.52773	0.03030
2336.24196	0.03061
2334.95619	0.03124
2333.67042	0.03117
2332.38465	0.03073
2331.09888	0.03084
2329.81311	0.03083
2328.52735	0.03015
2327.24158	0.03003
2325.95581	0.03044
2324.67004	0.03049
2323.38427	0.03047
2322.09850	0.03041
2320.81273	0.02986
2319.52696	0.02958
2318.24119	0.02972
2316.95543	0.02977
2315.66966	0.02983
2314.38389	0.02976
2313.09812	0.02947
2311.81235	0.02929
2310.52658	0.02910
2309.24081	0.02882
2307.95504	0.02840
2306.66928	0.02776
2305.38351	0.02715
2304.09774	0.02680
2302.81197	0.02681
2301.52620	0.02711
2300.24043	0.02746
2298.95466	0.02770
2297.66889	0.02776
2296.38312	0.02766
2295.09736	0.02743
2293.81159	0.02706
2292.52582	0.02664
2291.24005	0.02632
2289.95428	0.02627
2288.66851	0.02653
2287.38274	0.02693
2286.09697	0.02724
2284.81121	0.02723
2283.52544	0.02688
2282.23967	0.02628
2280.95390	0.02566
2279.66813	0.02522
2278.38236	0.02512
2277.09659	0.02534
2275.81082	0.02567
2274.52505	0.02578
2273.23929	0.02553
2271.95352	0.02499
2270.66775	0.02435
2269.38198	0.02380
2268.09621	0.02356
2266.81044	0.02376
2265.52467	0.02428
2264.23890	0.02468
2262.95314	0.02458
2261.66737	0.02398
2260.38160	0.02327
2259.09583	0.02286
2257.81006	0.02287
2256.52429	0.02314
2255.23852	0.02336
2253.95275	0.02333
2252.66698	0.02306
2251.38122	0.02279
2250.09545	0.02262
2248.80968	0.02220
2247.52391	0.02181
2246.23814	0.02134
2244.95237	0.02088
2243.66660	0.02046
2242.38083	0.02004
2241.09507	0.01964
2239.80930	0.01950
2238.52353	0.01990
2237.23776	0.02090
2235.95199	0.02213
2234.66622	0.02301
2233.38045	0.02317
2232.09468	0.02270
2230.80891	0.02195
2229.52315	0.02133
2228.23738	0.02102
2226.95161	0.02101
2225.66584	0.02111
2224.38007	0.02117
2223.09430	0.02124
2221.80853	0.02129
2220.52276	0.02114
2219.23700	0.02068
2217.95123	0.02007
2216.66546	0.01954
2215.37969	0.01916
2214.09392	0.01890
2212.80815	0.01885
2211.52238	0.01904
2210.23661	0.01918
2208.95084	0.01881
2207.66508	0.01789
2206.37931	0.01696
2205.09354	0.01668
2203.80777	0.01720
2202.52200	0.01813
2201.23623	0.01892
2199.95046	0.01934
2198.66469	0.01952
2197.37893	0.01962
2196.09316	0.01963
2194.80739	0.01950
2193.52162	0.01924
2192.23585	0.01888
2190.95008	0.01844
2189.66431	0.01796
2188.37854	0.01747
2187.09277	0.01692
2185.80701	0.01620
2184.52124	0.01533
2183.23547	0.01452
2181.94970	0.01404
2180.66393	0.01411
2179.37816	0.01464
2178.09239	0.01518
2176.80662	0.01525
2175.52085	0.01484
2174.23509	0.01442
2172.94932	0.01432
2171.66355	0.01429
2170.37778	0.01400
2169.09201	0.01359
2167.80624	0.01352
2166.52047	0.01385
2165.23470	0.01394
2163.94894	0.01313
2162.66317	0.01136
2161.37740	0.00928
2160.09163	0.00772
2158.80586	0.00720
2157.52009	0.00762
2156.23432	0.00854
2154.94855	0.00955
2153.66278	0.01048
2152.37702	0.01115
2151.09125	0.01142
2149.80548	0.01140
2148.51971	0.01146
2147.23394	0.01177
2145.94817	0.01206
2144.66240	0.01203
2143.37663	0.01181
2142.09087	0.01181
2140.80510	0.01232
2139.51933	0.01321
2138.23356	0.01414
2136.94779	0.01483
2135.66202	0.01524
2134.37625	0.01552
2133.09048	0.01569
2131.80471	0.01557
2130.51895	0.01509
2129.23318	0.01458
2127.94741	0.01456
2126.66164	0.01518
2125.37587	0.01616
2124.09010	0.01701
2122.80433	0.01756
2121.51856	0.01789
2120.23280	0.01808
2118.94703	0.01799
2117.66126	0.01765
2116.37549	0.01735
2115.08972	0.01740
2113.80395	0.01770
2112.51818	0.01789
2111.23241	0.01780
2109.94664	0.01742
2108.66088	0.01683
2107.37511	0.01615
2106.08934	0.01568
2104.80357	0.01566
2103.51780	0.01605
2102.23203	0.01655
2100.94626	0.01681
2099.66049	0.01712
2098.37473	0.01696
2097.08896	0.01670
2095.80319	0.01651
2094.51742	0.01627
2093.23165	0.01596
2091.94588	0.01577
2090.66011	0.01586
2089.37434	0.01621
2088.08857	0.01654
2086.80281	0.01648
2085.51704	0.01589
2084.23127	0.01507
2082.94550	0.01456
2081.65973	0.01466
2080.37396	0.01519
2079.08819	0.01570
2077.80242	0.01585
2076.51666	0.01556
2075.23089	0.01503
2073.94512	0.01453
2072.65935	0.01428
2071.37358	0.01416
2070.08781	0.01386
2068.80204	0.01319
2067.51627	0.01237
2066.23050	0.01183
2064.94474	0.01181
2063.65897	0.01218
2062.37320	0.01261
2061.08743	0.01291
2059.80166	0.01312
2058.51589	0.01329
2057.23012	0.01335
2055.94435	0.01316
2054.65859	0.01264
2053.37282	0.01183
2052.08705	0.01091
2050.80128	0.01012
2049.51551	0.00963
2048.22974	0.00936
2046.94397	0.00901
2045.65820	0.00845
2044.37243	0.00789
2043.08667	0.00762
2041.80090	0.00762
2040.51513	0.00751
2039.22936	0.00690
2037.94359	0.00590
2036.65782	0.00508
2035.37205	0.00490
2034.08628	0.00531
2032.80052	0.00585
2031.51475	0.00625
2030.22898	0.00664
2028.94321	0.00729
2027.65744	0.00819
2026.37167	0.00896
2025.08590	0.00931
2023.80013	0.00935
2022.51436	0.00937
2021.22860	0.00925
2019.94283	0.00863
2018.65706	0.00752
2017.37129	0.00662
2016.08552	0.00662
2014.79975	0.00760
2013.51398	0.00892
2012.22821	0.00988
2010.94245	0.01011
2009.65668	0.00965
2008.37091	0.00890
2007.08514	0.00831
2005.79937	0.00824
2004.51360	0.00881
2003.22783	0.00989
2001.94206	0.01111
2000.65629	0.01207
1999.37053	0.01258
1998.08476	0.01280
1996.79899	0.01301
1995.51322	0.01329
1994.22745	0.01343
1992.94168	0.01318
1991.65591	0.01259
1990.37014	0.01202
1989.08438	0.01181
1987.79861	0.01198
1986.51284	0.01230
1985.22707	0.01261
1983.94130	0.01304
1982.65553	0.01363
1981.36976	0.01410
1980.08399	0.01410
1978.79822	0.01357
1977.51246	0.01281
1976.22669	0.01215
1974.94092	0.01172
1973.65515	0.01152
1972.36938	0.01150
1971.08361	0.01159
1969.79784	0.01176
1968.51207	0.01199
1967.22631	0.01218
1965.94054	0.01224
1964.65477	0.01226
1963.36900	0.01242
1962.08323	0.01281
1960.79746	0.01328
1959.51169	0.01368
1958.22592	0.01400
1956.94015	0.01419
1955.65439	0.01407
1954.36862	0.01355
1953.08285	0.01289
1951.79708	0.01253
1950.51131	0.01266
1949.22554	0.01309
1947.93977	0.01349
1946.65400	0.01369
1945.36823	0.01381
1944.08247	0.01411
1942.79670	0.01477
1941.51093	0.01573
1940.22516	0.01661
1938.93939	0.01700
1937.65362	0.01679
1936.36785	0.01630
1935.08208	0.01587
1933.79632	0.01563
1932.51055	0.01551
1931.22478	0.01552
1929.93901	0.01572
1928.65324	0.01606
1927.36747	0.01632
1926.08170	0.01638
1924.79593	0.01632
1923.51016	0.01629
1922.22440	0.01638
1920.93863	0.01655
1919.65286	0.01674
1918.36709	0.01689
1917.08132	0.01700
1915.79555	0.01705
1914.50978	0.01699
1913.22401	0.01682
1911.93825	0.01665
1910.65248	0.01661
1909.36671	0.01674
1908.08094	0.01689
1906.79517	0.01691
1905.50940	0.01678
1904.22363	0.01666
1902.93786	0.01670
1901.65209	0.01688
1900.36633	0.01711
1899.08056	0.01725
1897.79479	0.01724
1896.50902	0.01708
1895.22325	0.01684
1893.93748	0.01666
1892.65171	0.01668
1891.36594	0.01691
1890.08018	0.01722
1888.79441	0.01745
1887.50864	0.01747
1886.22287	0.01729
1884.93710	0.01697
1883.65133	0.01659
1882.36556	0.01628
1881.07979	0.01621
1879.79402	0.01645
1878.50826	0.01690
1877.22249	0.01728
1875.93672	0.01743
1874.65095	0.01737
1873.36518	0.01725
1872.07941	0.01720
1870.79364	0.01720
1869.50787	0.01716
1868.22211	0.01700
1866.93634	0.01676
1865.65057	0.01652
1864.36480	0.01639
1863.07903	0.01643
1861.79326	0.01663
1860.50749	0.01689
1859.22172	0.01708
1857.93595	0.01717
1856.65019	0.01718
1855.36442	0.01716
1854.07865	0.01708
1852.79288	0.01693
1851.50711	0.01677
1850.22134	0.01666
1848.93557	0.01662
1847.64980	0.01660
1846.36404	0.01656
1845.07827	0.01652
1843.79250	0.01653
1842.50673	0.01658
1841.22096	0.01663
1839.93519	0.01665
1838.64942	0.01661
1837.36365	0.01656
1836.07788	0.01655
1834.79212	0.01665
1833.50635	0.01686
1832.22058	0.01708
1830.93481	0.01723
1829.64904	0.01732
1828.36327	0.01741
1827.07750	0.01755
1825.79173	0.01769
1824.50597	0.01777
1823.22020	0.01778
1821.93443	0.01775
1820.64866	0.01772
1819.36289	0.01771
1818.07712	0.01773
1816.79135	0.01775
1815.50558	0.01777
1814.21981	0.01774
1812.93405	0.01761
1811.64828	0.01743
1810.36251	0.01724
1809.07674	0.01712
1807.79097	0.01709
1806.50520	0.01714
1805.21943	0.01722
1803.93366	0.01729
1802.64790	0.01736
1801.36213	0.01743
1800.07636	0.01751
1798.79059	0.01754
1797.50482	0.01750
1796.21905	0.01746
1794.93328	0.01747
1793.64751	0.01755
1792.36174	0.01766
1791.07598	0.01774
1789.79021	0.01777
1788.50444	0.01774
1787.21867	0.01762
1785.93290	0.01747
1784.64713	0.01737
1783.36136	0.01741
1782.07559	0.01752
1780.78983	0.01761
1779.50406	0.01762
1778.21829	0.01759
1776.93252	0.01759
1775.64675	0.01766
1774.36098	0.01781
1773.07521	0.01796
1771.78944	0.01805
1770.50367	0.01802
1769.21791	0.01787
1767.93214	0.01769
1766.64637	0.01758
1765.36060	0.01759
1764.07483	0.01775
1762.78906	0.01801
1761.50329	0.01827
1760.21752	0.01844
1758.93176	0.01849
1757.64599	0.01844
1756.36022	0.01836
1755.07445	0.01828
1753.78868	0.01820
1752.50291	0.01818
1751.21714	0.01823
1749.93137	0.01835
1748.64560	0.01849
1747.35984	0.01862
1746.07407	0.01874
1744.78830	0.01887
1743.50253	0.01900
1742.21676	0.01914
1740.93099	0.01927
1739.64522	0.01938
1738.35945	0.01946
1737.07369	0.01954
1735.78792	0.01963
1734.50215	0.01975
1733.21638	0.01987
1731.93061	0.01996
1730.64484	0.02003
1729.35907	0.02012
1728.07330	0.02025
1726.78753	0.02040
1725.50177	0.02054
1724.21600	0.02066
1722.93023	0.02080
1721.64446	0.02100
1720.35869	0.02129
1719.07292	0.02165
1717.78715	0.02200
1716.50138	0.02234
1715.21561	0.02269
1713.92985	0.02308
1712.64408	0.02353
1711.35831	0.02403
1710.07254	0.02459
1708.78677	0.02522
1707.50100	0.02587
1706.21523	0.02650
1704.92946	0.02712
1703.64370	0.02778
1702.35793	0.02857
1701.07216	0.02950
1699.78639	0.03049
1698.50062	0.03144
1697.21485	0.03237
1695.92908	0.03330
1694.64331	0.03425
1693.35754	0.03515
1692.07178	0.03596
1690.78601	0.03669
1689.50024	0.03742
1688.21447	0.03823
1686.92870	0.03916
1685.64293	0.04018
1684.35716	0.04121
1683.07139	0.04215
1681.78563	0.04299
1680.49986	0.04377
1679.21409	0.04460
1677.92832	0.04551
1676.64255	0.04651
1675.35678	0.04754
1674.07101	0.04853
1672.78524	0.04946
1671.49947	0.05037
1670.21371	0.05129
1668.92794	0.05221
1667.64217	0.05309
1666.35640	0.05392
1665.07063	0.05474
1663.78486	0.05558
1662.49909	0.05644
1661.21332	0.05726
1659.92756	0.05802
1658.64179	0.05869
1657.35602	0.05930
1656.07025	0.05987
1654.78448	0.06046
1653.49871	0.06104
1652.21294	0.06149
1650.92717	0.06174
1649.64140	0.06184
1648.35564	0.06193
1647.06987	0.06205
1645.78410	0.06213
1644.49833	0.06209
1643.21256	0.06189
1641.92679	0.06159
1640.64102	0.06125
1639.35525	0.06090
1638.06949	0.06056
1636.78372	0.06019
1635.49795	0.05972
1634.21218	0.05909
1632.92641	0.05835
1631.64064	0.05760
1630.35487	0.05691
1629.06910	0.05626
1627.78333	0.05558
1626.49757	0.05482
1625.21180	0.05404
1623.92603	0.05326
1622.64026	0.05248
1621.35449	0.05167
1620.06872	0.05087
1618.78295	0.05015
1617.49718	0.04953
1616.21142	0.04896
1614.92565	0.04838
1613.63988	0.04779
1612.35411	0.04723
1611.06834	0.04675
1609.78257	0.04634
1608.49680	0.04599
1607.21103	0.04568
1605.92526	0.04543
1604.63950	0.04521
1603.35373	0.04500
1602.06796	0.04481
1600.78219	0.04470
1599.49642	0.04471
1598.21065	0.04480
1596.92488	0.04492
1595.63911	0.04507
1594.35335	0.04526
1593.06758	0.04552
1591.78181	0.04580
1590.49604	0.04608
1589.21027	0.04633
1587.92450	0.04659
1586.63873	0.04687
1585.35296	0.04719
1584.06719	0.04755
1582.78143	0.04798
1581.49566	0.04850
1580.20989	0.04912
1578.92412	0.04978
1577.63835	0.05042
1576.35258	0.05100
1575.06681	0.05153
1573.78104	0.05206
1572.49528	0.05266
1571.20951	0.05334
1569.92374	0.05403
1568.63797	0.05467
1567.35220	0.05525
1566.06643	0.05582
1564.78066	0.05636
1563.49489	0.05688
1562.20912	0.05740
1560.92336	0.05799
1559.63759	0.05864
1558.35182	0.05925
1557.06605	0.05973
1555.78028	0.06011
1554.49451	0.06048
1553.20874	0.06089
1551.92297	0.06129
1550.63721	0.06160
1549.35144	0.06179
1548.06567	0.06190
1546.77990	0.06197
1545.49413	0.06203
1544.20836	0.06210
1542.92259	0.06214
1541.63682	0.06213
1540.35105	0.06204
1539.06529	0.06186
1537.77952	0.06164
1536.49375	0.06143
1535.20798	0.06130
1533.92221	0.06126
1532.63644	0.06130
1531.35067	0.06140
1530.06490	0.06158
1528.77914	0.06184
1527.49337	0.06219
1526.20760	0.06262
1524.92183	0.06311
1523.63606	0.06367
1522.35029	0.06432
1521.06452	0.06499
1519.77875	0.06564
1518.49298	0.06625
1517.20722	0.06688
1515.92145	0.06757
1514.63568	0.06834
1513.34991	0.06919
1512.06414	0.07015
1510.77837	0.07119
1509.49260	0.07230
1508.20683	0.07346
1506.92107	0.07461
1505.63530	0.07571
1504.34953	0.07672
1503.06376	0.07761
1501.77799	0.07841
1500.49222	0.07911
1499.20645	0.07970
1497.92068	0.08022
1496.63491	0.08075
1495.34915	0.08131
1494.06338	0.08191
1492.77761	0.08251
1491.49184	0.08312
1490.20607	0.08375
1488.92030	0.08445
1487.63453	0.08524
1486.34876	0.08613
1485.06299	0.08713
1483.77723	0.08824
1482.49146	0.08945
1481.20569	0.09077
1479.91992	0.09215
1478.63415	0.09353
1477.34838	0.09487
1476.06261	0.09611
1474.77684	0.09725
1473.49108	0.09830
1472.20531	0.09927
1470.91954	0.10013
1469.63377	0.10090
1468.34800	0.10158
1467.06223	0.10219
1465.77646	0.10274
1464.49069	0.10321
1463.20492	0.10363
1461.91916	0.10407
1460.63339	0.10463
1459.34762	0.10535
1458.06185	0.10621
1456.77608	0.10711
1455.49031	0.10794
1454.20454	0.10866
1452.91877	0.10929
1451.63301	0.10984
1450.34724	0.11028
1449.06147	0.11061
1447.77570	0.11083
1446.48993	0.11090
1445.20416	0.11077
1443.91839	0.11041
1442.63262	0.10984
1441.34685	0.10916
1440.06109	0.10847
1438.77532	0.10787
1437.48955	0.10742
1436.20378	0.10713
1434.91801	0.10698
1433.63224	0.10699
1432.34647	0.10721
1431.06070	0.10769
1429.77494	0.10844
1428.48917	0.10942
1427.20340	0.11058
1425.91763	0.11189
1424.63186	0.11331
1423.34609	0.11481
1422.06032	0.11636
1420.77455	0.11791
1419.48878	0.11939
1418.20302	0.12071
1416.91725	0.12180
1415.63148	0.12263
1414.34571	0.12322
1413.05994	0.12359
1411.77417	0.12378
1410.48840	0.12375
1409.20263	0.12348
1407.91687	0.12292
1406.63110	0.12211
1405.34533	0.12110
1404.05956	0.11991
1402.77379	0.11853
1401.48802	0.11695
1400.20225	0.11512
1398.91648	0.11307
1397.63071	0.11088
1396.34495	0.10866
1395.05918	0.10645
1393.77341	0.10424
1392.48764	0.10199
1391.20187	0.09972
1389.91610	0.09749
1388.63033	0.09532
1387.34456	0.09322
1386.05880	0.09116
1384.77303	0.08912
1383.48726	0.08706
1382.20149	0.08498
1380.91572	0.08287
1379.62995	0.08072
1378.34418	0.07854
1377.05841	0.07634
1375.77264	0.07416
1374.48688	0.07199
1373.20111	0.06979
1371.91534	0.06754
1370.62957	0.06531
1369.34380	0.06318
1368.05803	0.06123
1366.77226	0.05945
1365.48649	0.05781
1364.20073	0.05628
1362.91496	0.05482
1361.62919	0.05341
1360.34342	0.05204
1359.05765	0.05077
1357.77188	0.04962
1356.48611	0.04859
1355.20034	0.04763
1353.91457	0.04673
1352.62881	0.04587
1351.34304	0.04503
1350.05727	0.04422
1348.77150	0.04344
1347.48573	0.04275
1346.19996	0.04215
1344.91419	0.04162
1343.62842	0.04114
1342.34266	0.04070
1341.05689	0.04030
1339.77112	0.03993
1338.48535	0.03957
1337.19958	0.03919
1335.91381	0.03877
1334.62804	0.03832
1333.34227	0.03787
1332.05650	0.03742
1330.77074	0.03700
1329.48497	0.03660
1328.19920	0.03622
1326.91343	0.03588
1325.62766	0.03561
1324.34189	0.03540
1323.05612	0.03519
1321.77035	0.03493
1320.48459	0.03463
1319.19882	0.03431
1317.91305	0.03403
1316.62728	0.03376
1315.34151	0.03348
1314.05574	0.03314
1312.76997	0.03277
1311.48420	0.03242
1310.19843	0.03214
1308.91267	0.03193
1307.62690	0.03176
1306.34113	0.03157
1305.05536	0.03136
1303.76959	0.03113
1302.48382	0.03086
1301.19805	0.03059
1299.91228	0.03033
1298.62652	0.03010
1297.34075	0.02990
1296.05498	0.02971
1294.76921	0.02953
1293.48344	0.02936
1292.19767	0.02923
1290.91190	0.02915
1289.62613	0.02910
1288.34036	0.02905
1287.05460	0.02895
1285.76883	0.02881
1284.48306	0.02865
1283.19729	0.02850
1281.91152	0.02838
1280.62575	0.02828
1279.33998	0.02818
1278.05421	0.02809
1276.76845	0.02802
1275.48268	0.02798
1274.19691	0.02794
1272.91114	0.02786
1271.62537	0.02772
1270.33960	0.02757
1269.05383	0.02742
1267.76806	0.02731
1266.48229	0.02725
1265.19653	0.02721
1263.91076	0.02717
1262.62499	0.02713
1261.33922	0.02708
1260.05345	0.02704
1258.76768	0.02702
1257.48191	0.02699
1256.19614	0.02697
1254.91037	0.02697
1253.62461	0.02697
1252.33884	0.02696
1251.05307	0.02692
1249.76730	0.02686
1248.48153	0.02678
1247.19576	0.02670
1245.90999	0.02665
1244.62422	0.02660
1243.33846	0.02655
1242.05269	0.02651
1240.76692	0.02646
1239.48115	0.02639
1238.19538	0.02629
1236.90961	0.02615
1235.62384	0.02599
1234.33807	0.02585
1233.05230	0.02572
1231.76654	0.02556
1230.48077	0.02536
1229.19500	0.02511
1227.90923	0.02482
1226.62346	0.02450
1225.33769	0.02419
1224.05192	0.02392
1222.76615	0.02369
1221.48039	0.02350
1220.19462	0.02330
1218.90885	0.02310
1217.62308	0.02290
1216.33731	0.02275
1215.05154	0.02266
1213.76577	0.02258
1212.48000	0.02248
1211.19423	0.02236
1209.90847	0.02222
1208.62270	0.02211
1207.33693	0.02204
1206.05116	0.02199
1204.76539	0.02194
1203.47962	0.02190
1202.19385	0.02190
1200.90808	0.02192
1199.62232	0.02183
1198.33655	0.02181
1197.05078	0.02174
1195.76501	0.02161
1194.47924	0.02146
1193.19347	0.02129
1191.90770	0.02113
1190.62193	0.02095
1189.33616	0.02077
1188.05040	0.02060
1186.76463	0.02046
1185.47886	0.02038
1184.19309	0.02035
1182.90732	0.02034
1181.62155	0.02029
1180.33578	0.02021
1179.05001	0.02013
1177.76425	0.02010
1176.47848	0.02011
1175.19271	0.02013
1173.90694	0.02013
1172.62117	0.02011
1171.33540	0.02012
1170.04963	0.02018
1168.76386	0.02028
1167.47809	0.02040
1166.19233	0.02054
1164.90656	0.02071
1163.62079	0.02089
1162.33502	0.02105
1161.04925	0.02119
1159.76348	0.02130
1158.47771	0.02142
1157.19194	0.02154
1155.90618	0.02165
1154.62041	0.02176
1153.33464	0.02188
1152.04887	0.02203
1150.76310	0.02218
1149.47733	0.02236
1148.19156	0.02261
1146.90579	0.02296
1145.62002	0.02342
1144.33426	0.02399
1143.04849	0.02465
1141.76272	0.02539
1140.47695	0.02620
1139.19118	0.02708
1137.90541	0.02803
1136.61964	0.02910
1135.33387	0.03029
1134.04811	0.03166
1132.76234	0.03322
1131.47657	0.03501
1130.19080	0.03702
1128.90503	0.03920
1127.61926	0.04152
1126.33349	0.04398
1125.04772	0.04665
1123.76195	0.04955
1122.47619	0.05266
1121.19042	0.05593
1119.90465	0.05934
1118.61888	0.06287
1117.33311	0.06650
1116.04734	0.07018
1114.76157	0.07388
1113.47580	0.07757
1112.19004	0.08121
1110.90427	0.08478
1109.61850	0.08827
1108.33273	0.09170
1107.04696	0.09509
1105.76119	0.09844
1104.47542	0.10175
1103.18965	0.10501
1101.90388	0.10818
1100.61812	0.11127
1099.33235	0.11424
1098.04658	0.11712
1096.76081	0.11990
1095.47504	0.12257
1094.18927	0.12509
1092.90350	0.12741
1091.61773	0.12951
1090.33197	0.13142
1089.04620	0.13318
1087.76043	0.13483
1086.47466	0.13640
1085.18889	0.13795
1083.90312	0.13955
1082.61735	0.14125
1081.33158	0.14313
1080.04581	0.14522
1078.76005	0.14756
1077.47428	0.15013
1076.18851	0.15293
1074.90274	0.15595
1073.61697	0.15916
1072.33120	0.16253
1071.04543	0.16600
1069.75966	0.16954
1068.47390	0.17313
1067.18813	0.17677
1065.90236	0.18046
1064.61659	0.18423
1063.33082	0.18808
1062.04505	0.19200
1060.75928	0.19592
1059.47351	0.19980
1058.18774	0.20360
1056.90198	0.20736
1055.61621	0.21109
1054.33044	0.21482
1053.04467	0.21856
1051.75890	0.22232
1050.47313	0.22611
1049.18736	0.22994
1047.90159	0.23381
1046.61583	0.23775
1045.33006	0.24176
1044.04429	0.24583
1042.75852	0.25000
1041.47275	0.25421
1040.18698	0.25839
1038.90121	0.26246
1037.61544	0.26647
1036.32967	0.27049
1035.04391	0.27454
1033.75814	0.27848
1032.47237	0.28216
1031.18660	0.28552
1029.90083	0.28859
1028.61506	0.29139
1027.32929	0.29392
1026.04352	0.29607
1024.75775	0.29779
1023.47199	0.29907
1022.18622	0.29987
1020.90045	0.30015
1019.61468	0.29987
1018.32891	0.29903
1017.04314	0.29769
1015.75737	0.29583
1014.47160	0.29341
1013.18584	0.29042
1011.90007	0.28686
1010.61430	0.28276
1009.32853	0.27807
1008.04276	0.27279
1006.75699	0.26696
1005.47122	0.26068
1004.18545	0.25401
1002.89968	0.24700
1001.61392	0.23966
1000.32815	0.23208
999.04238	0.22438
997.75661	0.21667
996.47084	0.20897
995.18507	0.20127
993.89930	0.19360
992.61353	0.18601
991.32777	0.17862
990.04200	0.17150
988.75623	0.16471
987.47046	0.15829
986.18469	0.15220
984.89892	0.14642
983.61315	0.14089
982.32738	0.13561
981.04161	0.13060
979.75585	0.12591
978.47008	0.12163
977.18431	0.11776
975.89854	0.11431
974.61277	0.11132
973.32700	0.10886
972.04123	0.10695
970.75546	0.10557
969.46970	0.10475
968.18393	0.10457
966.89816	0.10507
965.61239	0.10614
964.32662	0.10751
963.04085	0.10886
961.75508	0.10988
960.46931	0.11027
959.18354	0.10983
957.89778	0.10848
956.61201	0.10631
955.32624	0.10360
954.04047	0.10066
952.75470	0.09773
951.46893	0.09488
950.18316	0.09209
948.89739	0.08937
947.61163	0.08677
946.32586	0.08436
945.04009	0.08209
943.75432	0.07984
942.46855	0.07756
941.18278	0.07529
939.89701	0.07317
938.61124	0.07126
937.32547	0.06958
936.03971	0.06802
934.75394	0.06652
933.46817	0.06507
932.18240	0.06370
930.89663	0.06245
929.61086	0.06131
928.32509	0.06029
927.03932	0.05936
925.75356	0.05848
924.46779	0.05760
923.18202	0.05669
921.89625	0.05582
920.61048	0.05503
919.32471	0.05435
918.03894	0.05371
916.75317	0.05307
915.46740	0.05240
914.18164	0.05171
912.89587	0.05103
911.61010	0.05044
910.32433	0.04999
909.03856	0.04963
907.75279	0.04924
906.46702	0.04874
905.18125	0.04816
903.89549	0.04757
902.60972	0.04705
901.32395	0.04662
900.03818	0.04630
898.75241	0.04609
897.46664	0.04593
896.18087	0.04577
894.89510	0.04558
893.60933	0.04535
892.32357	0.04512
891.03780	0.04496
889.75203	0.04498
888.46626	0.04527
887.18049	0.04593
885.89472	0.04716
884.60895	0.04921
883.32318	0.05218
882.03742	0.05575
880.75165	0.05927
879.46588	0.06212
878.18011	0.06414
876.89434	0.06570
875.60857	0.06725
874.32280	0.06893
873.03703	0.07039
871.75126	0.07113
870.46550	0.07086
869.17973	0.06963
867.89396	0.06762
866.60819	0.06504
865.32242	0.06217
864.03665	0.05927
862.75088	0.05655
861.46511	0.05411
860.17935	0.05197
858.89358	0.05015
857.60781	0.04867
856.32204	0.04744
855.03627	0.04639
853.75050	0.04550
852.46473	0.04476
851.17896	0.04416
849.89319	0.04362
848.60743	0.04312
847.32166	0.04268
846.03589	0.04233
844.75012	0.04204
843.46435	0.04173
842.17858	0.04132
840.89281	0.04086
839.60704	0.04042
838.32128	0.04003
837.03551	0.03966
835.74974	0.03927
834.46397	0.03891
833.17820	0.03865
831.89243	0.03849
830.60666	0.03834
829.32089	0.03817
828.03512	0.03800
826.74936	0.03784
825.46359	0.03764
824.17782	0.03738
822.89205	0.03711
821.60628	0.03691
820.32051	0.03683
819.03474	0.03686
817.74897	0.03695
816.46321	0.03701
815.17744	0.03699
813.89167	0.03685
812.60590	0.03665
811.32013	0.03646
810.03436	0.03631
808.74859	0.03618
807.46282	0.03605
806.17705	0.03592
804.89129	0.03577
803.60552	0.03560
802.31975	0.03544
801.03398	0.03533
799.74821	0.03528
798.46244	0.03528
797.17667	0.03530
795.89090	0.03530
794.60513	0.03528
793.31937	0.03522
792.03360	0.03518
790.74783	0.03520
789.46206	0.03529
788.17629	0.03539
786.89052	0.03542
785.60475	0.03533
784.31898	0.03519
783.03322	0.03509
781.74745	0.03507
780.46168	0.03513
779.17591	0.03517
777.89014	0.03513
776.60437	0.03502
775.31860	0.03490
774.03283	0.03483
772.74706	0.03480
771.46130	0.03474
770.17553	0.03462
768.88976	0.03446
767.60399	0.03429
766.31822	0.03413
765.03245	0.03404
763.74668	0.03407
762.46091	0.03425
761.17515	0.03452
759.88938	0.03476
758.60361	0.03489
757.31784	0.03491
756.03207	0.03490
754.74630	0.03494
753.46053	0.03503
752.17476	0.03514
750.88899	0.03519
749.60323	0.03512
748.31746	0.03497
747.03169	0.03484
745.74592	0.03481
744.46015	0.03483
743.17438	0.03483
741.88861	0.03475
740.60284	0.03464
739.31708	0.03456
738.03131	0.03456
736.74554	0.03462
735.45977	0.03464
734.17400	0.03459
732.88823	0.03450
731.60246	0.03443
730.31669	0.03437
729.03092	0.03434
727.74516	0.03437
726.45939	0.03449
725.17362	0.03463
723.88785	0.03465
722.60208	0.03477
721.31631	0.03491
720.03054	0.03502
718.74477	0.03508
717.45901	0.03507
716.17324	0.03503
714.88747	0.03499
713.60170	0.03495
712.31593	0.03488
711.03016	0.03478
709.74439	0.03469
708.45862	0.03461
707.17285	0.03452
705.88709	0.03442
704.60132	0.03432
703.31555	0.03426
702.02978	0.03425
700.74401	0.03426
699.45824	0.03429
698.17247	0.03433
696.88670	0.03441
695.60094	0.03451
694.31517	0.03460
693.02940	0.03463
691.74363	0.03457
690.45786	0.03448
689.17209	0.03441
687.88632	0.03438
686.60055	0.03437
685.31478	0.03434
684.02902	0.03428
682.74325	0.03422
681.45748	0.03415
680.17171	0.03407
678.88594	0.03400
677.60017	0.03396
676.31440	0.03394
675.02863	0.03396
673.74287	0.03403
672.45710	0.03415
671.17133	0.03432
669.88556	0.03452
668.59979	0.03469
667.31402	0.03476
666.02825	0.03475
664.74248	0.03464
663.45671	0.03446
662.17095	0.03426
660.88518	0.03408
659.59941	0.03392
658.31364	0.03377
657.02787	0.03363
655.74210	0.03351
654.45633	0.03342
653.17056	0.03342
651.88480	0.03351
650.59903	0.03368
649.31326	0.03385
648.02749	0.03397
646.74172	0.03401
645.45595	0.03405
644.17018	0.03419
642.88441	0.03442
641.59864	0.03468
640.31288	0.03490
639.02711	0.03506
637.74134	0.03521
636.45557	0.03537
635.16980	0.03561
633.88403	0.03587
632.59826	0.03612
631.31249	0.03649
630.02673	0.03729
628.74096	0.03784
627.45519	0.03729
626.16942	0.03796
624.88365	0.03962
623.59788	0.04162
622.31211	0.04384
621.02634	0.04634
619.74057	0.04905
618.45481	0.05173
617.16904	0.05429
615.88327	0.05676
614.59750	0.05930
613.31173	0.06246
612.02596	0.06716
610.74019	0.07385
609.45442	0.08158
608.16866	0.08882
606.88289	0.09508
605.59712	0.10073
604.31135	0.10572
603.02558	0.10924
601.73981	0.11062
600.45404	0.10997
599.16827	0.10788
597.88250	0.10487
596.59674	0.10126
595.31097	0.09738
594.02520	0.09361
592.73943	0.09040
591.45366	0.08802
590.16789	0.08650
588.88212	0.08578
587.59635	0.08574
586.31059	0.08634
585.02482	0.08756
583.73905	0.08936
582.45328	0.09166
581.16751	0.09434
579.88174	0.09730
578.59597	0.10044
577.31020	0.10366
576.02443	0.10688
574.73867	0.11000
573.45290	0.11302
572.16713	0.11599
570.88136	0.11906
569.59559	0.12247
568.30982	0.12644
567.02405	0.13096
565.73828	0.13560
564.45251	0.13964
563.16675	0.14248
561.88098	0.14380
560.59521	0.14345
559.30944	0.14136
558.02367	0.13748
556.73790	0.13203
555.45213	0.12548
554.16636	0.11846
552.88060	0.11147
551.59483	0.10485
550.30906	0.09876
549.02329	0.09323
547.73752	0.08825
546.45175	0.08380
545.16598	0.07981
543.88021	0.07622
542.59444	0.07299
541.30868	0.07014
540.02291	0.06766
538.73714	0.06553
537.45137	0.06366
536.16560	0.06194
534.87983	0.06028
533.59406	0.05861
532.30829	0.05693
531.02253	0.05529
529.73676	0.05377
528.45099	0.05241
527.16522	0.05120
525.87945	0.05010
524.59368	0.04907
523.30791	0.04808
522.02214	0.04711
520.73637	0.04614
519.45061	0.04519
518.16484	0.04428
516.87907	0.04342
515.59330	0.04260
514.30753	0.04181
513.02176	0.04107
511.73599	0.04040
510.45022	0.03988
509.16446	0.03947
507.87869	0.03908
506.59292	0.03861
505.30715	0.03804
504.02138	0.03746
502.73561	0.03696
501.44984	0.03654
500.16407	0.03614
498.87830	0.03573
497.59254	0.03528
496.30677	0.03481
495.02100	0.03435
493.73523	0.03392
492.44946	0.03350
491.16369	0.03310
489.87792	0.03274
488.59215	0.03245
487.30639	0.03227
486.02062	0.03217
484.73485	0.03213
483.44908	0.03210
482.16331	0.03210
480.87754	0.03214
479.59177	0.03226
478.30600	0.03245
477.02023	0.03270
475.73447	0.03295
474.44870	0.03317
473.16293	0.03337
471.87716	0.03358
470.59139	0.03377
469.30562	0.03381
468.01985	0.03363
466.73408	0.03325
465.44832	0.03277
464.16255	0.03229
462.87678	0.03181
461.59101	0.03132
460.30524	0.03081
459.01947	0.03030
457.73370	0.02981
456.44793	0.02931
455.16216	0.02881
453.87640	0.02834
452.59063	0.02797
451.30486	0.02773
450.01909	0.02757
448.73332	0.02743
447.44755	0.02724
446.16178	0.02701
444.87601	0.02675
443.59025	0.02649
442.30448	0.02624
441.01871	0.02602
439.73294	0.02584
438.44717	0.02568
437.16140	0.02556
435.87563	0.02547
434.58986	0.02540
433.30409	0.02534
432.01833	0.02526
430.73256	0.02513
429.44679	0.02497
428.16102	0.02477
426.87525	0.02459
425.58948	0.02444
424.30371	0.02431
423.01794	0.02418
421.73218	0.02402
420.44641	0.02382
419.16064	0.02358
417.87487	0.02331
416.58910	0.02306
415.30333	0.02287
414.01756	0.02274
412.73179	0.02263
411.44602	0.02254
410.16026	0.02249
408.87449	0.02252
407.58872	0.02260
406.30295	0.02269
405.01718	0.02275
403.73141	0.02278
402.44564	0.02281
401.15987	0.02286
399.87411	0.02294
