3997.45528	0.05525
3996.16951	0.05538
3994.88374	0.05550
3993.59798	0.05567
3992.31221	0.05568
3991.02644	0.05514
3989.74067	0.05398
3988.45490	0.05279
3987.16913	0.05235
3985.88336	0.05298
3984.59759	0.05432
3983.31183	0.05585
3982.02606	0.05711
3980.74029	0.05783
3979.45452	0.05776
3978.16875	0.05690
3976.88298	0.05558
3975.59721	0.05438
3974.31144	0.05381
3973.02567	0.05407
3971.73991	0.05497
3970.45414	0.05600
3969.16837	0.05664
3967.88260	0.05674
3966.59683	0.05661
3965.31106	0.05653
3964.02529	0.05640
3962.73952	0.05592
3961.45376	0.05502
3960.16799	0.05407
3958.88222	0.05353
3957.59645	0.05368
3956.31068	0.05439
3955.02491	0.05519
3953.73914	0.05563
3952.45337	0.05552
3951.16760	0.05497
3949.88184	0.05429
3948.59607	0.05376
3947.31030	0.05348
3946.02453	0.05333
3944.73876	0.05317
3943.45299	0.05305
3942.16722	0.05305
3940.88145	0.05310
3939.59569	0.05311
3938.30992	0.05319
3937.02415	0.05345
3935.73838	0.05383
3934.45261	0.05425
3933.16684	0.05476
3931.88107	0.05538
3930.59530	0.05584
3929.30953	0.05573
3928.02377	0.05499
3926.73800	0.05402
3925.45223	0.05331
3924.16646	0.05300
3922.88069	0.05299
3921.59492	0.05316
3920.30915	0.05351
3919.02338	0.05402
3917.73762	0.05456
3916.45185	0.05496
3915.16608	0.05506
3913.88031	0.05477
3912.59454	0.05414
3911.30877	0.05346
3910.02300	0.05306
3908.73723	0.05310
3907.45146	0.05340
3906.16570	0.05363
3904.87993	0.05357
3903.59416	0.05329
3902.30839	0.05296
3901.02262	0.05264
3899.73685	0.05229
3898.45108	0.05203
3897.16531	0.05209
3895.87955	0.05257
3894.59378	0.05325
3893.30801	0.05380
3892.02224	0.05395
3890.73647	0.05368
3889.45070	0.05310
3888.16493	0.05234
3886.87916	0.05143
3885.59339	0.05050
3884.30763	0.04991
3883.02186	0.04999
3881.73609	0.05063
3880.45032	0.05128
3879.16455	0.05139
3877.87878	0.05089
3876.59301	0.05024
3875.30724	0.05010
3874.02148	0.05095
3872.73571	0.05262
3871.44994	0.05425
3870.16417	0.05488
3868.87840	0.05428
3867.59263	0.05307
3866.30686	0.05206
3865.02109	0.05162
3863.73532	0.05171
3862.44956	0.05219
3861.16379	0.05279
3859.87802	0.05319
3858.59225	0.05328
3857.30648	0.05334
3856.02071	0.05375
3854.73494	0.05441
3853.44917	0.05479
3852.16341	0.05463
3850.87764	0.05429
3849.59187	0.05425
3848.30610	0.05450
3847.02033	0.05465
3845.73456	0.05448
3844.44879	0.05411
3843.16302	0.05378
3841.87725	0.05357
3840.59149	0.05342
3839.30572	0.05328
3838.01995	0.05308
3836.73418	0.05278
3835.44841	0.05234
3834.16264	0.05187
3832.87687	0.05147
3831.59110	0.05119
3830.30534	0.05099
3829.01957	0.05085
3827.73380	0.05069
3826.44803	0.05054
3825.16226	0.05054
3823.87649	0.05083
3822.59072	0.05139
3821.30495	0.05199
3820.01918	0.05258
3818.73342	0.05320
3817.44765	0.05373
3816.16188	0.05374
3814.87611	0.05291
3813.59034	0.05149
3812.30457	0.05023
3811.01880	0.04981
3809.73303	0.05027
3808.44726	0.05106
3807.16150	0.05168
3805.87573	0.05230
3804.58996	0.05336
3803.30419	0.05470
3802.01842	0.05544
3800.73265	0.05488
3799.44688	0.05336
3798.16111	0.05186
3796.87535	0.05098
3795.58958	0.05059
3794.30381	0.05027
3793.01804	0.04989
3791.73227	0.04964
3790.44650	0.04969
3789.16073	0.04989
3787.87496	0.04999
3786.58919	0.04992
3785.30343	0.04983
3784.01766	0.04988
3782.73189	0.05003
3781.44612	0.05009
3780.16035	0.04993
3778.87458	0.04958
3777.58881	0.04913
3776.30304	0.04866
3775.01728	0.04828
3773.73151	0.04813
3772.44574	0.04837
3771.15997	0.04902
3769.87420	0.04985
3768.58843	0.05044
3767.30266	0.05045
3766.01689	0.04988
3764.73112	0.04920
3763.44536	0.04900
3762.15959	0.04949
3760.87382	0.05022
3759.58805	0.05055
3758.30228	0.05025
3757.01651	0.04981
3755.73074	0.04988
3754.44497	0.05069
3753.15921	0.05187
3751.87344	0.05281
3750.58767	0.05303
3749.30190	0.05262
3748.01613	0.05215
3746.73036	0.05214
3745.44459	0.05241
3744.15882	0.05216
3742.87305	0.05087
3741.58729	0.04898
3740.30152	0.04757
3739.01575	0.04740
3737.72998	0.04839
3736.44421	0.04971
3735.15844	0.05042
3733.87267	0.05015
3732.58690	0.04916
3731.30114	0.04800
3730.01537	0.04712
3728.72960	0.04666
3727.44383	0.04663
3726.15806	0.04698
3724.87229	0.04767
3723.58652	0.04866
3722.30075	0.04960
3721.01498	0.04999
3719.72922	0.04957
3718.44345	0.04860
3717.15768	0.04776
3715.87191	0.04757
3714.58614	0.04811
3713.30037	0.04909
3712.01460	0.04990
3710.72883	0.05012
3709.44307	0.04971
3708.15730	0.04900
3706.87153	0.04850
3705.58576	0.04855
3704.29999	0.04901
3703.01422	0.04948
3701.72845	0.04957
3700.44268	0.04927
3699.15691	0.04887
3697.87115	0.04863
3696.58538	0.04854
3695.29961	0.04842
3694.01384	0.04831
3692.72807	0.04835
3691.44230	0.04860
3690.15653	0.04884
3688.87076	0.04886
3687.58500	0.04875
3686.29923	0.04882
3685.01346	0.04922
3683.72769	0.04986
3682.44192	0.05052
3681.15615	0.05102
3679.87038	0.05120
3678.58461	0.05101
3677.29884	0.05051
3676.01308	0.04990
3674.72731	0.04939
3673.44154	0.04916
3672.15577	0.04927
3670.87000	0.04968
3669.58423	0.05031
3668.29846	0.05112
3667.01269	0.05210
3665.72693	0.05312
3664.44116	0.05393
3663.15539	0.05444
3661.86962	0.05468
3660.58385	0.05473
3659.29808	0.05459
3658.01231	0.05434
3656.72654	0.05416
3655.44077	0.05419
3654.15501	0.05446
3652.86924	0.05497
3651.58347	0.05567
3650.29770	0.05625
3649.01193	0.05629
3647.72616	0.05557
3646.44039	0.05432
3645.15462	0.05306
3643.86886	0.05224
3642.58309	0.05207
3641.29732	0.05247
3640.01155	0.05317
3638.72578	0.05391
3637.44001	0.05462
3636.15424	0.05541
3634.86847	0.05639
3633.58270	0.05750
3632.29694	0.05863
3631.01117	0.05976
3629.72540	0.06083
3628.43963	0.06173
3627.15386	0.06238
3625.86809	0.06292
3624.58232	0.06348
3623.29655	0.06399
3622.01079	0.06412
3620.72502	0.06379
3619.43925	0.06321
3618.15348	0.06279
3616.86771	0.06274
3615.58194	0.06295
3614.29617	0.06315
3613.01040	0.06325
3611.72463	0.06337
3610.43887	0.06359
3609.15310	0.06377
3607.86733	0.06370
3606.58156	0.06337
3605.29579	0.06305
3604.01002	0.06302
3602.72425	0.06340
3601.43848	0.06414
3600.15272	0.06514
3598.86695	0.06619
3597.58118	0.06693
3596.29541	0.06703
3595.00964	0.06656
3593.72387	0.06613
3592.43810	0.06640
3591.15233	0.06774
3589.86656	0.06978
3588.58080	0.07165
3587.29503	0.07272
3586.00926	0.07300
3584.72349	0.07302
3583.43772	0.07324
3582.15195	0.07361
3580.86618	0.07375
3579.58041	0.07343
3578.29464	0.07280
3577.00888	0.07229
3575.72311	0.07225
3574.43734	0.07279
3573.15157	0.07378
3571.86580	0.07499
3570.58003	0.07610
3569.29426	0.07678
3568.00849	0.07702
3566.72273	0.07709
3565.43696	0.07725
3564.15119	0.07752
3562.86542	0.07769
3561.57965	0.07770
3560.29388	0.07767
3559.00811	0.07770
3557.72234	0.07777
3556.43657	0.07781
3555.15081	0.07778
3553.86504	0.07778
3552.57927	0.07790
3551.29350	0.07821
3550.00773	0.07871
3548.72196	0.07942
3547.43619	0.08034
3546.15042	0.08138
3544.86466	0.08232
3543.57889	0.08298
3542.29312	0.08333
3541.00735	0.08349
3539.72158	0.08363
3538.43581	0.08387
3537.15004	0.08415
3535.86427	0.08432
3534.57850	0.08430
3533.29274	0.08428
3532.00697	0.08455
3530.72120	0.08518
3529.43543	0.08593
3528.14966	0.08648
3526.86389	0.08677
3525.57812	0.08694
3524.29235	0.08720
3523.00659	0.08761
3521.72082	0.08817
3520.43505	0.08880
3519.14928	0.08945
3517.86351	0.09004
3516.57774	0.09049
3515.29197	0.09073
3514.00620	0.09077
3512.72043	0.09080
3511.43467	0.09109
3510.14890	0.09172
3508.86313	0.09249
3507.57736	0.09312
3506.29159	0.09348
3505.00582	0.09369
3503.72005	0.09395
3502.43428	0.09425
3501.14852	0.09438
3499.86275	0.09419
3498.57698	0.09372
3497.29121	0.09316
3496.00544	0.09272
3494.71967	0.09256
3493.43390	0.09275
3492.14813	0.09323
3490.86236	0.09389
3489.57660	0.09471
3488.29083	0.09576
3487.00506	0.09692
3485.71929	0.09791
3484.43352	0.09850
3483.14775	0.09861
3481.86198	0.09832
3480.57621	0.09777
3479.29045	0.09726
3478.00468	0.09707
3476.71891	0.09730
3475.43314	0.09771
3474.14737	0.09814
3472.86160	0.09859
3471.57583	0.09911
3470.29006	0.09963
3469.00429	0.10003
3467.71853	0.10031
3466.43276	0.10054
3465.14699	0.10073
3463.86122	0.10079
3462.57545	0.10070
3461.28968	0.10060
3460.00391	0.10066
3458.71814	0.10096
3457.43238	0.10139
3456.14661	0.10172
3454.86084	0.10181
3453.57507	0.10176
3452.28930	0.10189
3451.00353	0.10247
3449.71776	0.10336
3448.43199	0.10399
3447.14622	0.10391
3445.86046	0.10331
3444.57469	0.10289
3443.28892	0.10312
3442.00315	0.10374
3440.71738	0.10417
3439.43161	0.10412
3438.14584	0.10381
3436.86007	0.10362
3435.57431	0.10376
3434.28854	0.10423
3433.00277	0.10484
3431.71700	0.10537
3430.43123	0.10560
3429.14546	0.10548
3427.85969	0.10515
3426.57392	0.10485
3425.28815	0.10480
3424.00239	0.10516
3422.71662	0.10588
3421.43085	0.10677
3420.14508	0.10757
3418.85931	0.10805
3417.57354	0.10810
3416.28777	0.10780
3415.00200	0.10739
3413.71624	0.10724
3412.43047	0.10749
3411.14470	0.10796
3409.85893	0.10834
3408.57316	0.10856
3407.28739	0.10878
3406.00162	0.10904
3404.71585	0.10918
3403.43008	0.10906
3402.14432	0.10882
3400.85855	0.10878
3399.57278	0.10914
3398.28701	0.10972
3397.00124	0.11014
3395.71547	0.11019
3394.42970	0.11000
3393.14393	0.10980
3391.85817	0.10962
3390.57240	0.10928
3389.28663	0.10882
3388.00086	0.10854
3386.71509	0.10877
3385.42932	0.10944
3384.14355	0.11017
3382.85778	0.11065
3381.57201	0.11086
3380.28625	0.11099
3379.00048	0.11116
3377.71471	0.11128
3376.42894	0.11117
3375.14317	0.11084
3373.85740	0.11048
3372.57163	0.11031
3371.28586	0.11031
3370.00010	0.11021
3368.71433	0.10990
3367.42856	0.10959
3366.14279	0.10963
3364.85702	0.11011
3363.57125	0.11077
3362.28548	0.11127
3360.99971	0.11143
3359.71394	0.11126
3358.42818	0.11091
3357.14241	0.11064
3355.85664	0.11061
3354.57087	0.11075
3353.28510	0.11086
3351.99933	0.11085
3350.71356	0.11075
3349.42779	0.11067
3348.14202	0.11069
3346.85626	0.11084
3345.57049	0.11109
3344.28472	0.11128
3342.99895	0.11125
3341.71318	0.11097
3340.42741	0.11056
3339.14164	0.11015
3337.85587	0.10982
3336.57011	0.10968
3335.28434	0.10986
3333.99857	0.11030
3332.71280	0.11074
3331.42703	0.11087
3330.14126	0.11068
3328.85549	0.11034
3327.56972	0.11006
3326.28395	0.10995
3324.99819	0.11005
3323.71242	0.11029
3322.42665	0.11051
3321.14088	0.11055
3319.85511	0.11049
3318.56934	0.11051
3317.28357	0.11069
3315.99780	0.11089
3314.71204	0.11088
3313.42627	0.11056
3312.14050	0.11005
3310.85473	0.10955
3309.56896	0.10911
3308.28319	0.10865
3306.99742	0.10816
3305.71165	0.10783
3304.42588	0.10787
3303.14012	0.10823
3301.85435	0.10852
3300.56858	0.10841
3299.28281	0.10797
3297.99704	0.10759
3296.71127	0.10763
3295.42550	0.10805
3294.13973	0.10853
3292.85397	0.10877
3291.56820	0.10868
3290.28243	0.10831
3288.99666	0.10774
3287.71089	0.10707
3286.42512	0.10646
3285.13935	0.10603
3283.85358	0.10587
3282.56781	0.10597
3281.28205	0.10621
3279.99628	0.10643
3278.71051	0.10649
3277.42474	0.10646
3276.13897	0.10643
3274.85320	0.10642
3273.56743	0.10632
3272.28166	0.10606
3270.99590	0.10577
3269.71013	0.10565
3268.42436	0.10577
3267.13859	0.10599
3265.85282	0.10615
3264.56705	0.10625
3263.28128	0.10645
3261.99551	0.10682
3260.70974	0.10724
3259.42398	0.10744
3258.13821	0.10718
3256.85244	0.10649
3255.56667	0.10573
3254.28090	0.10531
3252.99513	0.10533
3251.70936	0.10548
3250.42359	0.10540
3249.13783	0.10509
3247.85206	0.10492
3246.56629	0.10518
3245.28052	0.10572
3243.99475	0.10615
3242.70898	0.10620
3241.42321	0.10594
3240.13744	0.10563
3238.85167	0.10551
3237.56591	0.10570
3236.28014	0.10614
3234.99437	0.10654
3233.70860	0.10659
3232.42283	0.10616
3231.13706	0.10544
3229.85129	0.10463
3228.56552	0.10387
3227.27976	0.10319
3225.99399	0.10272
3224.70822	0.10259
3223.42245	0.10280
3222.13668	0.10312
3220.85091	0.10327
3219.56514	0.10320
3218.27937	0.10303
3216.99360	0.10292
3215.70784	0.10290
3214.42207	0.10288
3213.13630	0.10276
3211.85053	0.10250
3210.56476	0.10214
3209.27899	0.10178
3207.99322	0.10155
3206.70745	0.10152
3205.42169	0.10166
3204.13592	0.10185
3202.85015	0.10188
3201.56438	0.10163
3200.27861	0.10120
3198.99284	0.10078
3197.70707	0.10051
3196.42130	0.10036
3195.13553	0.10033
3193.84977	0.10038
3192.56400	0.10041
3191.27823	0.10024
3189.99246	0.09984
3188.70669	0.09944
3187.42092	0.09934
3186.13515	0.09959
3184.84938	0.09995
3183.56362	0.10014
3182.27785	0.09998
3180.99208	0.09945
3179.70631	0.09873
3178.42054	0.09814
3177.13477	0.09795
3175.84900	0.09815
3174.56323	0.09849
3173.27746	0.09863
3171.99170	0.09846
3170.70593	0.09807
3169.42016	0.09763
3168.13439	0.09725
3166.84862	0.09694
3165.56285	0.09663
3164.27708	0.09633
3162.99131	0.09607
3161.70555	0.09580
3160.41978	0.09541
3159.13401	0.09482
3157.84824	0.09417
3156.56247	0.09376
3155.27670	0.09378
3153.99093	0.09410
3152.70516	0.09440
3151.41939	0.09442
3150.13363	0.09418
3148.84786	0.09387
3147.56209	0.09368
3146.27632	0.09371
3144.99055	0.09390
3143.70478	0.09408
3142.41901	0.09410
3141.13324	0.09384
3139.84748	0.09332
3138.56171	0.09260
3137.27594	0.09182
3135.99017	0.09116
3134.70440	0.09076
3133.41863	0.09069
3132.13286	0.09082
3130.84709	0.09093
3129.56132	0.09089
3128.27556	0.09074
3126.98979	0.09063
3125.70402	0.09067
3124.41825	0.09085
3123.13248	0.09106
3121.84671	0.09117
3120.56094	0.09118
3119.27517	0.09111
3117.98940	0.09097
3116.70364	0.09071
3115.41787	0.09035
3114.13210	0.09000
3112.84633	0.08972
3111.56056	0.08948
3110.27479	0.08923
3108.98902	0.08896
3107.70325	0.08879
3106.41749	0.08882
3105.13172	0.08893
3103.84595	0.08889
3102.56018	0.08861
3101.27441	0.08819
3099.98864	0.08785
3098.70287	0.08767
3097.41710	0.08754
3096.13133	0.08735
3094.84557	0.08716
3093.55980	0.08706
3092.27403	0.08707
3090.98826	0.08706
3089.70249	0.08697
3088.41672	0.08687
3087.13095	0.08681
3085.84518	0.08672
3084.55942	0.08650
3083.27365	0.08622
3081.98788	0.08604
3080.70211	0.08602
3079.41634	0.08602
3078.13057	0.08583
3076.84480	0.08538
3075.55903	0.08478
3074.27326	0.08424
3072.98750	0.08394
3071.70173	0.08387
3070.41596	0.08387
3069.13019	0.08385
3067.84442	0.08382
3066.55865	0.08386
3065.27288	0.08393
3063.98711	0.08389
3062.70135	0.08361
3061.41558	0.08308
3060.12981	0.08240
3058.84404	0.08173
3057.55827	0.08124
3056.27250	0.08103
3054.98673	0.08116
3053.70096	0.08153
3052.41519	0.08195
3051.12943	0.08219
3049.84366	0.08210
3048.55789	0.08168
3047.27212	0.08118
3045.98635	0.08092
3044.70058	0.08104
3043.41481	0.08133
3042.12904	0.08143
3040.84328	0.08116
3039.55751	0.08068
3038.27174	0.08027
3036.98597	0.08009
3035.70020	0.08008
3034.41443	0.08012
3033.12866	0.08009
3031.84289	0.07986
3030.55712	0.07943
3029.27136	0.07892
3027.98559	0.07854
3026.69982	0.07838
3025.41405	0.07836
3024.12828	0.07830
3022.84251	0.07803
3021.55674	0.07756
3020.27097	0.07712
3018.98521	0.07696
3017.69944	0.07704
3016.41367	0.07708
3015.12790	0.07687
3013.84213	0.07647
3012.55636	0.07613
3011.27059	0.07596
3009.98482	0.07589
3008.69905	0.07585
3007.41329	0.07579
3006.12752	0.07567
3004.84175	0.07551
3003.55598	0.07537
3002.27021	0.07534
3000.98444	0.07542
2999.69867	0.07556
2998.41290	0.07570
2997.12714	0.07584
2995.84137	0.07596
2994.55560	0.07604
2993.26983	0.07610
2991.98406	0.07613
2990.69829	0.07613
2989.41252	0.07614
2988.12675	0.07625
2986.84098	0.07656
2985.55522	0.07702
2984.26945	0.07749
2982.98368	0.07789
2981.69791	0.07832
2980.41214	0.07902
2979.12637	0.08015
2977.84060	0.08171
2976.55483	0.08358
2975.26907	0.08562
2973.98330	0.08780
2972.69753	0.09019
2971.41176	0.09287
2970.12599	0.09582
2968.84022	0.09887
2967.55445	0.10178
2966.26868	0.10444
2964.98291	0.10684
2963.69715	0.10899
2962.41138	0.11077
2961.12561	0.11190
2959.83984	0.11219
2958.55407	0.11170
2957.26830	0.11078
2955.98253	0.10978
2954.69676	0.10887
2953.41100	0.10797
2952.12523	0.10691
2950.83946	0.10566
2949.55369	0.10439
2948.26792	0.10338
2946.98215	0.10271
2945.69638	0.10228
2944.41061	0.10196
2943.12484	0.10179
2941.83908	0.10180
2940.55331	0.10193
2939.26754	0.10208
2937.98177	0.10237
2936.69600	0.10302
2935.41023	0.10411
2934.12446	0.10542
2932.83869	0.10664
2931.55293	0.10765
2930.26716	0.10859
2928.98139	0.10957
2927.69562	0.11055
2926.40985	0.11132
2925.12408	0.11168
2923.83831	0.11154
2922.55254	0.11105
2921.26677	0.11043
2919.98101	0.10977
2918.69524	0.10899
2917.40947	0.10796
2916.12370	0.10674
2914.83793	0.10560
2913.55216	0.10481
2912.26639	0.10437
2910.98062	0.10398
2909.69486	0.10333
2908.40909	0.10239
2907.12332	0.10137
2905.83755	0.10044
2904.55178	0.09958
2903.26601	0.09867
2901.98024	0.09765
2900.69447	0.09656
2899.40870	0.09548
2898.12294	0.09442
2896.83717	0.09337
2895.55140	0.09233
2894.26563	0.09134
2892.97986	0.09039
2891.69409	0.08943
2890.40832	0.08841
2889.12255	0.08739
2887.83678	0.08651
2886.55102	0.08588
2885.26525	0.08545
2883.97948	0.08508
2882.69371	0.08465
2881.40794	0.08428
2880.12217	0.08411
2878.83640	0.08419
2877.55063	0.08447
2876.26487	0.08485
2874.97910	0.08526
2873.69333	0.08568
2872.40756	0.08608
2871.12179	0.08645
2869.83602	0.08673
2868.55025	0.08683
2867.26448	0.08675
2865.97871	0.08655
2864.69295	0.08633
2863.40718	0.08619
2862.12141	0.08620
2860.83564	0.08639
2859.54987	0.08673
2858.26410	0.08716
2856.97833	0.08758
2855.69256	0.08784
2854.40680	0.08782
2853.12103	0.08754
2851.83526	0.08708
2850.54949	0.08645
2849.26372	0.08559
2847.97795	0.08457
2846.69218	0.08352
2845.40641	0.08248
2844.12064	0.08138
2842.83488	0.08016
2841.54911	0.07891
2840.26334	0.07767
2838.97757	0.07637
2837.69180	0.07492
2836.40603	0.07339
2835.12026	0.07198
2833.83449	0.07089
2832.54873	0.07018
2831.26296	0.06972
2829.97719	0.06926
2828.69142	0.06862
2827.40565	0.06781
2826.11988	0.06702
2824.83411	0.06645
2823.54834	0.06611
2822.26257	0.06587
2820.97681	0.06561
2819.69104	0.06530
2818.40527	0.06498
2817.11950	0.06469
2815.83373	0.06440
2814.54796	0.06410
2813.26219	0.06382
2811.97642	0.06360
2810.69066	0.06348
2809.40489	0.06343
2808.11912	0.06334
2806.83335	0.06316
2805.54758	0.06288
2804.26181	0.06256
2802.97604	0.06222
2801.69027	0.06185
2800.40450	0.06149
2799.11874	0.06121
2797.83297	0.06107
2796.54720	0.06100
2795.26143	0.06088
2793.97566	0.06062
2792.68989	0.06027
2791.40412	0.05996
2790.11835	0.05974
2788.83259	0.05957
2787.54682	0.05939
2786.26105	0.05922
2784.97528	0.05907
2783.68951	0.05895
2782.40374	0.05887
2781.11797	0.05884
2779.83220	0.05887
2778.54643	0.05887
2777.26067	0.05870
2775.97490	0.05828
2774.68913	0.05775
2773.40336	0.05735
2772.11759	0.05719
2770.83182	0.05715
2769.54605	0.05709
2768.26028	0.05698
2766.97452	0.05690
2765.68875	0.05690
2764.40298	0.05693
2763.11721	0.05694
2761.83144	0.05694
2760.54567	0.05691
2759.25990	0.05682
2757.97413	0.05666
2756.68836	0.05645
2755.40260	0.05627
2754.11683	0.05609
2752.83106	0.05587
2751.54529	0.05556
2750.25952	0.05522
2748.97375	0.05495
2747.68798	0.05484
2746.40221	0.05487
2745.11645	0.05498
2743.83068	0.05504
2742.54491	0.05500
2741.25914	0.05485
2739.97337	0.05466
2738.68760	0.05456
2737.40183	0.05455
2736.11606	0.05454
2734.83029	0.05448
2733.54453	0.05441
2732.25876	0.05440
2730.97299	0.05442
2729.68722	0.05437
2728.40145	0.05420
2727.11568	0.05395
2725.82991	0.05373
2724.54414	0.05361
2723.25838	0.05362
2721.97261	0.05367
2720.68684	0.05366
2719.40107	0.05352
2718.11530	0.05334
2716.82953	0.05323
2715.54376	0.05315
2714.25799	0.05301
2712.97222	0.05276
2711.68646	0.05251
2710.40069	0.05238
2709.11492	0.05241
2707.82915	0.05253
2706.54338	0.05259
2705.25761	0.05254
2703.97184	0.05237
2702.68607	0.05215
2701.40031	0.05190
2700.11454	0.05161
2698.82877	0.05130
2697.54300	0.05107
2696.25723	0.05102
2694.97146	0.05117
2693.68569	0.05142
2692.39992	0.05163
2691.11415	0.05172
2689.82839	0.05167
2688.54262	0.05150
2687.25685	0.05126
2685.97108	0.05103
2684.68531	0.05083
2683.39954	0.05063
2682.11377	0.05042
2680.82800	0.05017
2679.54224	0.04991
2678.25647	0.04967
2676.97070	0.04949
2675.68493	0.04935
2674.39916	0.04924
2673.11339	0.04922
2671.82762	0.04935
2670.54185	0.04960
2669.25608	0.04984
2667.97032	0.04997
2666.68455	0.04998
2665.39878	0.04990
2664.11301	0.04974
2662.82724	0.04952
2661.54147	0.04931
2660.25570	0.04924
2658.96993	0.04931
2657.68417	0.04941
2656.39840	0.04937
2655.11263	0.04914
2653.82686	0.04883
2652.54109	0.04857
2651.25532	0.04843
2649.96955	0.04835
2648.68378	0.04827
2647.39801	0.04809
2646.11225	0.04781
2644.82648	0.04746
2643.54071	0.04711
2642.25494	0.04682
2640.96917	0.04655
2639.68340	0.04623
2638.39763	0.04584
2637.11186	0.04543
2635.82609	0.04507
2634.54033	0.04480
2633.25456	0.04463
2631.96879	0.04454
2630.68302	0.04450
2629.39725	0.04445
2628.11148	0.04434
2626.82571	0.04410
2625.53994	0.04381
2624.25418	0.04365
2622.96841	0.04372
2621.68264	0.04390
2620.39687	0.04397
2619.11110	0.04386
2617.82533	0.04366
2616.53956	0.04345
2615.25379	0.04312
2613.96802	0.04263
2612.68226	0.04216
2611.39649	0.04203
2610.11072	0.04227
2608.82495	0.04253
2607.53918	0.04251
2606.25341	0.04223
2604.96764	0.04190
2603.68187	0.04162
2602.39611	0.04131
2601.11034	0.04087
2599.82457	0.04043
2598.53880	0.04022
2597.25303	0.04037
2595.96726	0.04077
2594.68149	0.04109
2593.39572	0.04111
2592.10995	0.04088
2590.82419	0.04062
2589.53842	0.04048
2588.25265	0.04037
2586.96688	0.04020
2585.68111	0.04005
2584.39534	0.04003
2583.10957	0.04009
2581.82380	0.04003
2580.53804	0.03979
2579.25227	0.03949
2577.96650	0.03919
2576.68073	0.03885
2575.39496	0.03842
2574.10919	0.03805
2572.82342	0.03785
2571.53765	0.03776
2570.25188	0.03770
2568.96612	0.03776
2567.68035	0.03803
2566.39458	0.03835
2565.10881	0.03838
2563.82304	0.03808
2562.53727	0.03774
2561.25150	0.03761
2559.96573	0.03762
2558.67997	0.03758
2557.39420	0.03755
2556.10843	0.03769
2554.82266	0.03793
2553.53689	0.03803
2552.25112	0.03792
2550.96535	0.03780
2549.67958	0.03781
2548.39381	0.03787
2547.10805	0.03785
2545.82228	0.03780
2544.53651	0.03786
2543.25074	0.03793
2541.96497	0.03773
2540.67920	0.03723
2539.39343	0.03675
2538.10766	0.03657
2536.82190	0.03659
2535.53613	0.03648
2534.25036	0.03618
2532.96459	0.03594
2531.67882	0.03596
2530.39305	0.03613
2529.10728	0.03616
2527.82151	0.03592
2526.53574	0.03555
2525.24998	0.03542
2523.96421	0.03571
2522.67844	0.03623
2521.39267	0.03657
2520.10690	0.03660
2518.82113	0.03645
2517.53536	0.03629
2516.24959	0.03614
2514.96383	0.03599
2513.67806	0.03589
2512.39229	0.03581
2511.10652	0.03570
2509.82075	0.03565
2508.53498	0.03578
2507.24921	0.03599
2505.96344	0.03604
2504.67767	0.03587
2503.39191	0.03577
2502.10614	0.03594
2500.82037	0.03625
2499.53460	0.03638
2498.24883	0.03615
2496.96306	0.03554
2495.67729	0.03473
2494.39152	0.03403
2493.10576	0.03379
2491.81999	0.03409
2490.53422	0.03467
2489.24845	0.03518
2487.96268	0.03544
2486.67691	0.03545
2485.39114	0.03524
2484.10537	0.03486
2482.81960	0.03447
2481.53384	0.03430
2480.24807	0.03438
2478.96230	0.03453
2477.67653	0.03459
2476.39076	0.03456
2475.10499	0.03450
2473.81922	0.03439
2472.53345	0.03422
2471.24769	0.03399
2469.96192	0.03375
2468.67615	0.03359
2467.39038	0.03356
2466.10461	0.03367
2464.81884	0.03383
2463.53307	0.03402
2462.24730	0.03426
2460.96153	0.03458
2459.67577	0.03484
2458.39000	0.03487
2457.10423	0.03454
2455.81846	0.03400
2454.53269	0.03352
2453.24692	0.03334
2451.96115	0.03345
2450.67538	0.03358
2449.38962	0.03349
2448.10385	0.03324
2446.81808	0.03301
2445.53231	0.03296
2444.24654	0.03308
2442.96077	0.03333
2441.67500	0.03363
2440.38923	0.03389
2439.10346	0.03398
2437.81770	0.03389
2436.53193	0.03369
2435.24616	0.03348
2433.96039	0.03335
2432.67462	0.03337
2431.38885	0.03356
2430.10308	0.03376
2428.81731	0.03376
2427.53155	0.03344
2426.24578	0.03297
2424.96001	0.03261
2423.67424	0.03247
2422.38847	0.03249
2421.10270	0.03259
2419.81693	0.03276
2418.53116	0.03290
2417.24539	0.03287
2415.95963	0.03274
2414.67386	0.03272
2413.38809	0.03291
2412.10232	0.03310
2410.81655	0.03310
2409.53078	0.03297
2408.24501	0.03289
2406.95924	0.03290
2405.67347	0.03286
2404.38771	0.03266
2403.10194	0.03246
2401.81617	0.03248
2400.53040	0.03273
2399.24463	0.03289
2397.95886	0.03290
2396.67309	0.03282
2395.38732	0.03270
2394.10156	0.03258
2392.81579	0.03239
2391.53002	0.03214
2390.24425	0.03189
2388.95848	0.03175
2387.67271	0.03171
2386.38694	0.03171
2385.10117	0.03169
2383.81540	0.03164
2382.52964	0.03161
2381.24387	0.03165
2379.95810	0.03180
2378.67233	0.03201
2377.38656	0.03213
2376.10079	0.03219
2374.81502	0.03194
2373.52925	0.03100
2372.24349	0.02940
2370.95772	0.02732
2369.67195	0.02546
2368.38618	0.02410
2367.10041	0.02316
2365.81464	0.02320
2364.52887	0.02482
2363.24310	0.02702
2361.95733	0.02814
2360.67157	0.02779
2359.38580	0.02705
2358.10003	0.02672
2356.81426	0.02723
2355.52849	0.02860
2354.24272	0.03022
2352.95695	0.03147
2351.67118	0.03165
2350.38542	0.03055
2349.09965	0.02972
2347.81388	0.03055
2346.52811	0.03177
2345.24234	0.03149
2343.95657	0.03001
2342.67080	0.02891
2341.38503	0.02862
2340.09926	0.02875
2338.81350	0.02908
2337.52773	0.02925
2336.24196	0.02933
2334.95619	0.02919
2333.67042	0.02886
2332.38465	0.02891
2331.09888	0.02925
2329.81311	0.02966
2328.52735	0.03033
2327.24158	0.03092
2325.95581	0.03126
2324.67004	0.03162
2323.38427	0.03186
2322.09850	0.03193
2320.81273	0.03202
2319.52696	0.03187
2318.24119	0.03137
2316.95543	0.03087
2315.66966	0.03053
2314.38389	0.03028
2313.09812	0.02999
2311.81235	0.02979
2310.52658	0.02983
2309.24081	0.03013
2307.95504	0.03064
2306.66928	0.03114
2305.38351	0.03135
2304.09774	0.03121
2302.81197	0.03088
2301.52620	0.03049
2300.24043	0.03016
2298.95466	0.02999
2297.66889	0.03004
2296.38312	0.03025
2295.09736	0.03056
2293.81159	0.03087
2292.52582	0.03102
2291.24005	0.03094
2289.95428	0.03064
2288.66851	0.03027
2287.38274	0.02999
2286.09697	0.02987
2284.81121	0.02978
2283.52544	0.02955
2282.23967	0.02908
2280.95390	0.02845
2279.66813	0.02785
2278.38236	0.02736
2277.09659	0.02693
2275.81082	0.02643
2274.52505	0.02592
2273.23929	0.02561
2271.95352	0.02561
2270.66775	0.02583
2269.38198	0.02601
2268.09621	0.02598
2266.81044	0.02578
2265.52467	0.02565
2264.23890	0.02584
2262.95314	0.02642
2261.66737	0.02719
2260.38160	0.02775
2259.09583	0.02783
2257.81006	0.02750
2256.52429	0.02695
2255.23852	0.02628
2253.95275	0.02555
2252.66698	0.02490
2251.38122	0.02457
2250.09545	0.02454
2248.80968	0.02455
2247.52391	0.02437
2246.23814	0.02403
2244.95237	0.02376
2243.66660	0.02364
2242.38083	0.02360
2241.09507	0.02358
2239.80930	0.02379
2238.52353	0.02435
2237.23776	0.02506
2235.95199	0.02539
2234.66622	0.02495
2233.38045	0.02381
2232.09468	0.02238
2230.80891	0.02109
2229.52315	0.02023
2228.23738	0.01990
2226.95161	0.02013
2225.66584	0.02077
2224.38007	0.02148
2223.09430	0.02188
2221.80853	0.02179
2220.52276	0.02143
2219.23700	0.02108
2217.95123	0.02092
2216.66546	0.02098
2215.37969	0.02122
2214.09392	0.02144
2212.80815	0.02132
2211.52238	0.02069
2210.23661	0.01955
2208.95084	0.01825
2207.66508	0.01736
2206.37931	0.01733
2205.09354	0.01796
2203.80777	0.01853
2202.52200	0.01865
2201.23623	0.01864
2199.95046	0.01887
2198.66469	0.01913
2197.37893	0.01895
2196.09316	0.01832
2194.80739	0.01760
2193.52162	0.01696
2192.23585	0.01622
2190.95008	0.01551
2189.66431	0.01542
2188.37854	0.01630
2187.09277	0.01760
2185.80701	0.01831
2184.52124	0.01808
2183.23547	0.01742
2181.94970	0.01688
2180.66393	0.01643
2179.37816	0.01577
2178.09239	0.01491
2176.80662	0.01424
2175.52085	0.01428
2174.23509	0.01513
2172.94932	0.01627
2171.66355	0.01688
2170.37778	0.01649
2169.09201	0.01526
2167.80624	0.01361
2166.52047	0.01184
2165.23470	0.01023
2163.94894	0.00911
2162.66317	0.00848
2161.37740	0.00781
2160.09163	0.00669
2158.80586	0.00574
2157.52009	0.00596
2156.23432	0.00728
2154.94855	0.00864
2153.66278	0.00940
2152.37702	0.00994
2151.09125	0.01085
2149.80548	0.01214
2148.51971	0.01329
2147.23394	0.01374
2145.94817	0.01327
2144.66240	0.01216
2143.37663	0.01106
2142.09087	0.01057
2140.80510	0.01076
2139.51933	0.01128
2138.23356	0.01178
2136.94779	0.01232
2135.66202	0.01316
2134.37625	0.01453
2133.09048	0.01625
2131.80471	0.01777
2130.51895	0.01866
2129.23318	0.01892
2127.94741	0.01889
2126.66164	0.01874
2125.37587	0.01842
2124.09010	0.01807
2122.80433	0.01806
2121.51856	0.01856
2120.23280	0.01918
2118.94703	0.01942
2117.66126	0.01921
2116.37549	0.01890
2115.08972	0.01875
2113.80395	0.01884
2112.51818	0.01921
2111.23241	0.01968
2109.94664	0.01978
2108.66088	0.01913
2107.37511	0.01802
2106.08934	0.01714
2104.80357	0.01691
2103.51780	0.01721
2102.23203	0.01763
2100.94626	0.01792
2099.66049	0.01898
2098.37473	0.01936
2097.08896	0.01912
2095.80319	0.01874
2094.51742	0.01847
2093.23165	0.01845
2091.94588	0.01866
2090.66011	0.01882
2089.37434	0.01870
2088.08857	0.01829
2086.80281	0.01783
2085.51704	0.01759
2084.23127	0.01770
2082.94550	0.01810
2081.65973	0.01855
2080.37396	0.01873
2079.08819	0.01842
2077.80242	0.01774
2076.51666	0.01716
2075.23089	0.01709
2073.94512	0.01750
2072.65935	0.01797
2071.37358	0.01801
2070.08781	0.01745
2068.80204	0.01654
2067.51627	0.01565
2066.23050	0.01495
2064.94474	0.01433
2063.65897	0.01371
2062.37320	0.01330
2061.08743	0.01348
2059.80166	0.01433
2058.51589	0.01546
2057.23012	0.01628
2055.94435	0.01650
2054.65859	0.01624
2053.37282	0.01583
2052.08705	0.01544
2050.80128	0.01498
2049.51551	0.01434
2048.22974	0.01357
2046.94397	0.01272
2045.65820	0.01179
2044.37243	0.01084
2043.08667	0.01008
2041.80090	0.00967
2040.51513	0.00960
2039.22936	0.00973
2037.94359	0.00999
2036.65782	0.01038
2035.37205	0.01084
2034.08628	0.01115
2032.80052	0.01110
2031.51475	0.01056
2030.22898	0.00964
2028.94321	0.00862
2027.65744	0.00790
2026.37167	0.00779
2025.08590	0.00822
2023.80013	0.00873
2022.51436	0.00889
2021.22860	0.00877
2019.94283	0.00888
2018.65706	0.00950
2017.37129	0.01035
2016.08552	0.01112
2014.79975	0.01193
2013.51398	0.01307
2012.22821	0.01431
2010.94245	0.01490
2009.65668	0.01441
2008.37091	0.01322
2007.08514	0.01211
2005.79937	0.01147
2004.51360	0.01112
2003.22783	0.01087
2001.94206	0.01082
2000.65629	0.01118
1999.37053	0.01197
1998.08476	0.01285
1996.79899	0.01341
1995.51322	0.01339
1994.22745	0.01291
1992.94168	0.01240
1991.65591	0.01225
1990.37014	0.01256
1989.08438	0.01311
1987.79861	0.01361
1986.51284	0.01392
1985.22707	0.01401
1983.94130	0.01395
1982.65553	0.01384
1981.36976	0.01377
1980.08399	0.01383
1978.79822	0.01405
1977.51246	0.01440
1976.22669	0.01469
1974.94092	0.01469
1973.65515	0.01441
1972.36938	0.01408
1971.08361	0.01389
1969.79784	0.01380
1968.51207	0.01370
1967.22631	0.01358
1965.94054	0.01350
1964.65477	0.01343
1963.36900	0.01327
1962.08323	0.01296
1960.79746	0.01260
1959.51169	0.01237
1958.22592	0.01245
1956.94015	0.01288
1955.65439	0.01355
1954.36862	0.01427
1953.08285	0.01489
1951.79708	0.01534
1950.51131	0.01560
1949.22554	0.01568
1947.93977	0.01564
1946.65400	0.01556
1945.36823	0.01551
1944.08247	0.01557
1942.79670	0.01578
1941.51093	0.01618
1940.22516	0.01674
1938.93939	0.01747
1937.65362	0.01825
1936.36785	0.01883
1935.08208	0.01894
1933.79632	0.01866
1932.51055	0.01835
1931.22478	0.01833
1929.93901	0.01850
1928.65324	0.01855
1927.36747	0.01836
1926.08170	0.01814
1924.79593	0.01807
1923.51016	0.01817
1922.22440	0.01832
1920.93863	0.01848
1919.65286	0.01872
1918.36709	0.01906
1917.08132	0.01934
1915.79555	0.01940
1914.50978	0.01924
1913.22401	0.01906
1911.93825	0.01907
1910.65248	0.01922
1909.36671	0.01931
1908.08094	0.01922
1906.79517	0.01907
1905.50940	0.01902
1904.22363	0.01909
1902.93786	0.01914
1901.65209	0.01905
1900.36633	0.01889
1899.08056	0.01886
1897.79479	0.01905
1896.50902	0.01937
1895.22325	0.01960
1893.93748	0.01958
1892.65171	0.01933
1891.36594	0.01899
1890.08018	0.01869
1888.79441	0.01852
1887.50864	0.01852
1886.22287	0.01865
1884.93710	0.01884
1883.65133	0.01896
1882.36556	0.01891
1881.07979	0.01871
1879.79402	0.01852
1878.50826	0.01843
1877.22249	0.01842
1875.93672	0.01842
1874.65095	0.01844
1873.36518	0.01857
1872.07941	0.01883
1870.79364	0.01915
1869.50787	0.01944
1868.22211	0.01959
1866.93634	0.01955
1865.65057	0.01933
1864.36480	0.01901
1863.07903	0.01875
1861.79326	0.01863
1860.50749	0.01864
1859.22172	0.01875
1857.93595	0.01887
1856.65019	0.01895
1855.36442	0.01897
1854.07865	0.01898
1852.79288	0.01909
1851.50711	0.01931
1850.22134	0.01956
1848.93557	0.01973
1847.64980	0.01979
1846.36404	0.01978
1845.07827	0.01974
1843.79250	0.01968
1842.50673	0.01964
1841.22096	0.01961
1839.93519	0.01959
1838.64942	0.01952
1837.36365	0.01945
1836.07788	0.01944
1834.79212	0.01953
1833.50635	0.01970
1832.22058	0.01987
1830.93481	0.01994
1829.64904	0.01989
1828.36327	0.01978
1827.07750	0.01972
1825.79173	0.01979
1824.50597	0.01995
1823.22020	0.02013
1821.93443	0.02028
1820.64866	0.02036
1819.36289	0.02031
1818.07712	0.02016
1816.79135	0.01999
1815.50558	0.01988
1814.21981	0.01984
1812.93405	0.01983
1811.64828	0.01982
1810.36251	0.01979
1809.07674	0.01977
1807.79097	0.01980
1806.50520	0.01990
1805.21943	0.02008
1803.93366	0.02031
1802.64790	0.02051
1801.36213	0.02060
1800.07636	0.02057
1798.79059	0.02056
1797.50482	0.02069
1796.21905	0.02097
1794.93328	0.02127
1793.64751	0.02147
1792.36174	0.02152
1791.07598	0.02147
1789.79021	0.02143
1788.50444	0.02149
1787.21867	0.02164
1785.93290	0.02184
1784.64713	0.02199
1783.36136	0.02208
1782.07559	0.02215
1780.78983	0.02224
1779.50406	0.02235
1778.21829	0.02249
1776.93252	0.02268
1775.64675	0.02294
1774.36098	0.02325
1773.07521	0.02350
1771.78944	0.02358
1770.50367	0.02347
1769.21791	0.02326
1767.93214	0.02305
1766.64637	0.02293
1765.36060	0.02293
1764.07483	0.02308
1762.78906	0.02331
1761.50329	0.02352
1760.21752	0.02364
1758.93176	0.02369
1757.64599	0.02375
1756.36022	0.02388
1755.07445	0.02409
1753.78868	0.02436
1752.50291	0.02462
1751.21714	0.02481
1749.93137	0.02491
1748.64560	0.02498
1747.35984	0.02508
1746.07407	0.02521
1744.78830	0.02533
1743.50253	0.02545
1742.21676	0.02560
1740.93099	0.02580
1739.64522	0.02603
1738.35945	0.02633
1737.07369	0.02681
1735.78792	0.02742
1734.50215	0.02792
1733.21638	0.02805
1731.93061	0.02783
1730.64484	0.02750
1729.35907	0.02732
1728.07330	0.02735
1726.78753	0.02751
1725.50177	0.02777
1724.21600	0.02813
1722.93023	0.02860
1721.64446	0.02920
1720.35869	0.02993
1719.07292	0.03071
1717.78715	0.03136
1716.50138	0.03172
1715.21561	0.03180
1713.92985	0.03176
1712.64408	0.03180
1711.35831	0.03203
1710.07254	0.03240
1708.78677	0.03282
1707.50100	0.03328
1706.21523	0.03380
1704.92946	0.03447
1703.64370	0.03532
1702.35793	0.03627
1701.07216	0.03711
1699.78639	0.03765
1698.50062	0.03789
1697.21485	0.03796
1695.92908	0.03794
1694.64331	0.03784
1693.35754	0.03772
1692.07178	0.03771
1690.78601	0.03791
1689.50024	0.03831
1688.21447	0.03889
1686.92870	0.03958
1685.64293	0.04024
1684.35716	0.04065
1683.07139	0.04074
1681.78563	0.04065
1680.49986	0.04062
1679.21409	0.04084
1677.92832	0.04125
1676.64255	0.04170
1675.35678	0.04204
1674.07101	0.04224
1672.78524	0.04243
1671.49947	0.04270
1670.21371	0.04303
1668.92794	0.04331
1667.64217	0.04355
1666.35640	0.04384
1665.07063	0.04428
1663.78486	0.04479
1662.49909	0.04523
1661.21332	0.04549
1659.92756	0.04564
1658.64179	0.04585
1657.35602	0.04636
1656.07025	0.04727
1654.78448	0.04839
1653.49871	0.04927
1652.21294	0.04955
1650.92717	0.04929
1649.64140	0.04894
1648.35564	0.04882
1647.06987	0.04889
1645.78410	0.04894
1644.49833	0.04886
1643.21256	0.04875
1641.92679	0.04879
1640.64102	0.04903
1639.35525	0.04945
1638.06949	0.04995
1636.78372	0.05038
1635.49795	0.05061
1634.21218	0.05064
1632.92641	0.05061
1631.64064	0.05068
1630.35487	0.05087
1629.06910	0.05108
1627.78333	0.05127
1626.49757	0.05147
1625.21180	0.05170
1623.92603	0.05195
1622.64026	0.05214
1621.35449	0.05232
1620.06872	0.05259
1618.78295	0.05301
1617.49718	0.05347
1616.21142	0.05377
1614.92565	0.05387
1613.63988	0.05388
1612.35411	0.05397
1611.06834	0.05421
1609.78257	0.05454
1608.49680	0.05493
1607.21103	0.05533
1605.92526	0.05573
1604.63950	0.05607
1603.35373	0.05634
1602.06796	0.05653
1600.78219	0.05670
1599.49642	0.05687
1598.21065	0.05711
1596.92488	0.05741
1595.63911	0.05777
1594.35335	0.05813
1593.06758	0.05846
1591.78181	0.05876
1590.49604	0.05903
1589.21027	0.05930
1587.92450	0.05959
1586.63873	0.05989
1585.35296	0.06020
1584.06719	0.06049
1582.78143	0.06076
1581.49566	0.06105
1580.20989	0.06142
1578.92412	0.06192
1577.63835	0.06246
1576.35258	0.06286
1575.06681	0.06302
1573.78104	0.06303
1572.49528	0.06308
1571.20951	0.06326
1569.92374	0.06349
1568.63797	0.06364
1567.35220	0.06370
1566.06643	0.06372
1564.78066	0.06383
1563.49489	0.06417
1562.20912	0.06478
1560.92336	0.06555
1559.63759	0.06618
1558.35182	0.06639
1557.06605	0.06619
1555.78028	0.06579
1554.49451	0.06546
1553.20874	0.06530
1551.92297	0.06527
1550.63721	0.06530
1549.35144	0.06531
1548.06567	0.06528
1546.77990	0.06522
1545.49413	0.06518
1544.20836	0.06518
1542.92259	0.06519
1541.63682	0.06513
1540.35105	0.06484
1539.06529	0.06423
1537.77952	0.06343
1536.49375	0.06269
1535.20798	0.06222
1533.92221	0.06200
1532.63644	0.06190
1531.35067	0.06184
1530.06490	0.06185
1528.77914	0.06200
1527.49337	0.06230
1526.20760	0.06275
1524.92183	0.06337
1523.63606	0.06418
1522.35029	0.06508
1521.06452	0.06595
1519.77875	0.06673
1518.49298	0.06749
1517.20722	0.06833
1515.92145	0.06929
1514.63568	0.07035
1513.34991	0.07152
1512.06414	0.07283
1510.77837	0.07434
1509.49260	0.07607
1508.20683	0.07792
1506.92107	0.07963
1505.63530	0.08097
1504.34953	0.08194
1503.06376	0.08275
1501.77799	0.08367
1500.49222	0.08483
1499.20645	0.08613
1497.92068	0.08739
1496.63491	0.08844
1495.34915	0.08924
1494.06338	0.08989
1492.77761	0.09059
1491.49184	0.09145
1490.20607	0.09246
1488.92030	0.09353
1487.63453	0.09462
1486.34876	0.09572
1485.06299	0.09688
1483.77723	0.09810
1482.49146	0.09938
1481.20569	0.10069
1479.91992	0.10203
1478.63415	0.10339
1477.34838	0.10477
1476.06261	0.10617
1474.77684	0.10756
1473.49108	0.10884
1472.20531	0.10992
1470.91954	0.11074
1469.63377	0.11139
1468.34800	0.11199
1467.06223	0.11257
1465.77646	0.11311
1464.49069	0.11355
1463.20492	0.11397
1461.91916	0.11452
1460.63339	0.11530
1459.34762	0.11630
1458.06185	0.11728
1456.77608	0.11798
1455.49031	0.11832
1454.20454	0.11845
1452.91877	0.11860
1451.63301	0.11890
1450.34724	0.11930
1449.06147	0.11966
1447.77570	0.11983
1446.48993	0.11977
1445.20416	0.11954
1443.91839	0.11924
1442.63262	0.11893
1441.34685	0.11865
1440.06109	0.11847
1438.77532	0.11840
1437.48955	0.11838
1436.20378	0.11833
1434.91801	0.11828
1433.63224	0.11840
1432.34647	0.11880
1431.06070	0.11954
1429.77494	0.12054
1428.48917	0.12176
1427.20340	0.12314
1425.91763	0.12466
1424.63186	0.12629
1423.34609	0.12801
1422.06032	0.12980
1420.77455	0.13159
1419.48878	0.13321
1418.20302	0.13454
1416.91725	0.13560
1415.63148	0.13646
1414.34571	0.13716
1413.05994	0.13767
1411.77417	0.13790
1410.48840	0.13784
1409.20263	0.13748
1407.91687	0.13683
1406.63110	0.13588
1405.34533	0.13465
1404.05956	0.13319
1402.77379	0.13157
1401.48802	0.12985
1400.20225	0.12801
1398.91648	0.12599
1397.63071	0.12378
1396.34495	0.12141
1395.05918	0.11896
1393.77341	0.11649
1392.48764	0.11405
1391.20187	0.11168
1389.91610	0.10942
1388.63033	0.10725
1387.34456	0.10514
1386.05880	0.10304
1384.77303	0.10095
1383.48726	0.09889
1382.20149	0.09687
1380.91572	0.09488
1379.62995	0.09291
1378.34418	0.09093
1377.05841	0.08888
1375.77264	0.08669
1374.48688	0.08431
1373.20111	0.08178
1371.91534	0.07923
1370.62957	0.07682
1369.34380	0.07463
1368.05803	0.07265
1366.77226	0.07079
1365.48649	0.06900
1364.20073	0.06723
1362.91496	0.06547
1361.62919	0.06373
1360.34342	0.06208
1359.05765	0.06058
1357.77188	0.05923
1356.48611	0.05799
1355.20034	0.05684
1353.91457	0.05574
1352.62881	0.05467
1351.34304	0.05365
1350.05727	0.05268
1348.77150	0.05177
1347.48573	0.05090
1346.19996	0.05007
1344.91419	0.04924
1343.62842	0.04844
1342.34266	0.04765
1341.05689	0.04690
1339.77112	0.04620
1338.48535	0.04554
1337.19958	0.04488
1335.91381	0.04423
1334.62804	0.04360
1333.34227	0.04301
1332.05650	0.04248
1330.77074	0.04201
1329.48497	0.04158
1328.19920	0.04117
1326.91343	0.04075
1325.62766	0.04033
1324.34189	0.03995
1323.05612	0.03963
1321.77035	0.03937
1320.48459	0.03913
1319.19882	0.03888
1317.91305	0.03858
1316.62728	0.03826
1315.34151	0.03793
1314.05574	0.03758
1312.76997	0.03724
1311.48420	0.03693
1310.19843	0.03670
1308.91267	0.03654
1307.62690	0.03643
1306.34113	0.03630
1305.05536	0.03609
1303.76959	0.03579
1302.48382	0.03544
1301.19805	0.03510
1299.91228	0.03482
1298.62652	0.03462
1297.34075	0.03449
1296.05498	0.03440
1294.76921	0.03431
1293.48344	0.03420
1292.19767	0.03404
1290.91190	0.03386
1289.62613	0.03370
1288.34036	0.03358
1287.05460	0.03348
1285.76883	0.03339
1284.48306	0.03332
1283.19729	0.03331
1281.91152	0.03336
1280.62575	0.03344
1279.33998	0.03355
1278.05421	0.03373
1276.76845	0.03400
1275.48268	0.03444
1274.19691	0.03514
1272.91114	0.03631
1271.62537	0.03823
1270.33960	0.04124
1269.05383	0.04563
1267.76806	0.05155
1266.48229	0.05881
1265.19653	0.06678
1263.91076	0.07447
1262.62499	0.08071
1261.33922	0.08453
1260.05345	0.08535
1258.76768	0.08316
1257.48191	0.07842
1256.19614	0.07201
1254.91037	0.06492
1253.62461	0.05809
1252.33884	0.05215
1251.05307	0.04736
1249.76730	0.04367
1248.48153	0.04089
1247.19576	0.03881
1245.90999	0.03724
1244.62422	0.03602
1243.33846	0.03503
1242.05269	0.03420
1240.76692	0.03348
1239.48115	0.03285
1238.19538	0.03233
1236.90961	0.03191
1235.62384	0.03160
1234.33807	0.03135
1233.05230	0.03112
1231.76654	0.03085
1230.48077	0.03054
1229.19500	0.03022
1227.90923	0.02993
1226.62346	0.02969
1225.33769	0.02952
1224.05192	0.02940
1222.76615	0.02928
1221.48039	0.02914
1220.19462	0.02899
1218.90885	0.02887
1217.62308	0.02880
1216.33731	0.02877
1215.05154	0.02877
1213.76577	0.02874
1212.48000	0.02868
1211.19423	0.02860
1209.90847	0.02852
1208.62270	0.02848
1207.33693	0.02848
1206.05116	0.02853
1204.76539	0.02862
1203.47962	0.02872
1202.19385	0.02879
1200.90808	0.02873
1199.62232	0.02852
1198.33655	0.02845
1197.05078	0.02847
1195.76501	0.02860
1194.47924	0.02879
1193.19347	0.02894
1191.90770	0.02901
1190.62193	0.02899
1189.33616	0.02896
1188.05040	0.02896
1186.76463	0.02902
1185.47886	0.02910
1184.19309	0.02919
1182.90732	0.02923
1181.62155	0.02922
1180.33578	0.02917
1179.05001	0.02916
1177.76425	0.02924
1176.47848	0.02943
1175.19271	0.02966
1173.90694	0.02988
1172.62117	0.03005
1171.33540	0.03018
1170.04963	0.03032
1168.76386	0.03050
1167.47809	0.03072
1166.19233	0.03096
1164.90656	0.03122
1163.62079	0.03152
1162.33502	0.03186
1161.04925	0.03220
1159.76348	0.03249
1158.47771	0.03274
1157.19194	0.03297
1155.90618	0.03320
1154.62041	0.03346
1153.33464	0.03375
1152.04887	0.03406
1150.76310	0.03444
1149.47733	0.03493
1148.19156	0.03557
1146.90579	0.03633
1145.62002	0.03715
1144.33426	0.03800
1143.04849	0.03890
1141.76272	0.03988
1140.47695	0.04097
1139.19118	0.04220
1137.90541	0.04356
1136.61964	0.04500
1135.33387	0.04650
1134.04811	0.04809
1132.76234	0.04984
1131.47657	0.05180
1130.19080	0.05403
1128.90503	0.05660
1127.61926	0.05957
1126.33349	0.06290
1125.04772	0.06647
1123.76195	0.07020
1122.47619	0.07405
1121.19042	0.07801
1119.90465	0.08207
1118.61888	0.08618
1117.33311	0.09024
1116.04734	0.09423
1114.76157	0.09819
1113.47580	0.10220
1112.19004	0.10628
1110.90427	0.11033
1109.61850	0.11428
1108.33273	0.11811
1107.04696	0.12190
1105.76119	0.12570
1104.47542	0.12955
1103.18965	0.13338
1101.90388	0.13709
1100.61812	0.14059
1099.33235	0.14386
1098.04658	0.14697
1096.76081	0.15000
1095.47504	0.15291
1094.18927	0.15563
1092.90350	0.15811
1091.61773	0.16030
1090.33197	0.16222
1089.04620	0.16388
1087.76043	0.16532
1086.47466	0.16661
1085.18889	0.16781
1083.90312	0.16897
1082.61735	0.17015
1081.33158	0.17144
1080.04581	0.17291
1078.76005	0.17463
1077.47428	0.17656
1076.18851	0.17863
1074.90274	0.18078
1073.61697	0.18298
1072.33120	0.18525
1071.04543	0.18764
1069.75966	0.19021
1068.47390	0.19299
1067.18813	0.19595
1065.90236	0.19900
1064.61659	0.20210
1063.33082	0.20523
1062.04505	0.20838
1060.75928	0.21152
1059.47351	0.21465
1058.18774	0.21782
1056.90198	0.22105
1055.61621	0.22437
1054.33044	0.22775
1053.04467	0.23116
1051.75890	0.23460
1050.47313	0.23810
1049.18736	0.24169
1047.90159	0.24540
1046.61583	0.24930
1045.33006	0.25340
1044.04429	0.25770
1042.75852	0.26215
1041.47275	0.26670
1040.18698	0.27132
1038.90121	0.27603
1037.61544	0.28085
1036.32967	0.28574
1035.04391	0.29061
1033.75814	0.29533
1032.47237	0.29985
1031.18660	0.30421
1029.90083	0.30844
1028.61506	0.31248
1027.32929	0.31624
1026.04352	0.31965
1024.75775	0.32269
1023.47199	0.32536
1022.18622	0.32768
1020.90045	0.32963
1019.61468	0.33122
1018.32891	0.33243
1017.04314	0.33324
1015.75737	0.33359
1014.47160	0.33343
1013.18584	0.33264
1011.90007	0.33111
1010.61430	0.32881
1009.32853	0.32581
1008.04276	0.32220
1006.75699	0.31807
1005.47122	0.31342
1004.18545	0.30823
1002.89968	0.30251
1001.61392	0.29637
1000.32815	0.28990
999.04238	0.28317
997.75661	0.27619
996.47084	0.26902
995.18507	0.26173
993.89930	0.25442
992.61353	0.24716
991.32777	0.23999
990.04200	0.23291
988.75623	0.22596
987.47046	0.21919
986.18469	0.21264
984.89892	0.20628
983.61315	0.20010
982.32738	0.19411
981.04161	0.18830
979.75585	0.18269
978.47008	0.17732
977.18431	0.17231
975.89854	0.16772
974.61277	0.16351
973.32700	0.15964
972.04123	0.15620
970.75546	0.15335
969.46970	0.15128
968.18393	0.15004
966.89816	0.14955
965.61239	0.14962
964.32662	0.15003
963.04085	0.15050
961.75508	0.15072
960.46931	0.15040
959.18354	0.14932
957.89778	0.14743
956.61201	0.14485
955.32624	0.14181
954.04047	0.13853
952.75470	0.13516
951.46893	0.13179
950.18316	0.12847
948.89739	0.12524
947.61163	0.12208
946.32586	0.11900
945.04009	0.11602
943.75432	0.11318
942.46855	0.11053
941.18278	0.10800
939.89701	0.10552
938.61124	0.10309
937.32547	0.10075
936.03971	0.09854
934.75394	0.09646
933.46817	0.09449
932.18240	0.09263
930.89663	0.09090
929.61086	0.08932
928.32509	0.08786
927.03932	0.08650
925.75356	0.08523
924.46779	0.08405
923.18202	0.08293
921.89625	0.08183
920.61048	0.08073
919.32471	0.07965
918.03894	0.07866
916.75317	0.07776
915.46740	0.07694
914.18164	0.07615
912.89587	0.07535
911.61010	0.07455
910.32433	0.07373
909.03856	0.07289
907.75279	0.07204
906.46702	0.07121
905.18125	0.07042
903.89549	0.06967
902.60972	0.06891
901.32395	0.06813
900.03818	0.06738
898.75241	0.06673
897.46664	0.06621
896.18087	0.06578
894.89510	0.06542
893.60933	0.06515
892.32357	0.06501
891.03780	0.06505
889.75203	0.06532
888.46626	0.06591
887.18049	0.06693
885.89472	0.06859
884.60895	0.07108
883.32318	0.07439
882.03742	0.07818
880.75165	0.08185
879.46588	0.08487
878.18011	0.08712
876.89434	0.08899
875.60857	0.09100
874.32280	0.09324
873.03703	0.09529
871.75126	0.09661
870.46550	0.09690
869.17973	0.09618
867.89396	0.09462
866.60819	0.09239
865.32242	0.08974
864.03665	0.08691
862.75088	0.08406
861.46511	0.08129
860.17935	0.07868
858.89358	0.07631
857.60781	0.07422
856.32204	0.07239
855.03627	0.07078
853.75050	0.06937
852.46473	0.06815
851.17896	0.06716
849.89319	0.06646
848.60743	0.06599
847.32166	0.06563
846.03589	0.06525
844.75012	0.06482
843.46435	0.06436
842.17858	0.06392
840.89281	0.06350
839.60704	0.06312
838.32128	0.06282
837.03551	0.06261
835.74974	0.06254
834.46397	0.06263
833.17820	0.06295
831.89243	0.06356
830.60666	0.06453
829.32089	0.06595
828.03512	0.06792
826.74936	0.07052
825.46359	0.07369
824.17782	0.07722
822.89205	0.08081
821.60628	0.08420
820.32051	0.08722
819.03474	0.08982
817.74897	0.09206
816.46321	0.09407
815.17744	0.09595
813.89167	0.09786
812.60590	0.10003
811.32013	0.10261
810.03436	0.10562
808.74859	0.10889
807.46282	0.11224
806.17705	0.11552
804.89129	0.11859
803.60552	0.12131
802.31975	0.12355
801.03398	0.12524
799.74821	0.12641
798.46244	0.12700
797.17667	0.12689
795.89090	0.12598
794.60513	0.12426
793.31937	0.12181
792.03360	0.11876
790.74783	0.11524
789.46206	0.11134
788.17629	0.10714
786.89052	0.10268
785.60475	0.09812
784.31898	0.09373
783.03322	0.08972
781.74745	0.08615
780.46168	0.08295
779.17591	0.08004
777.89014	0.07744
776.60437	0.07520
775.31860	0.07326
774.03283	0.07152
772.74706	0.06991
771.46130	0.06845
770.17553	0.06721
768.88976	0.06620
767.60399	0.06534
766.31822	0.06454
765.03245	0.06375
763.74668	0.06299
762.46091	0.06235
761.17515	0.06186
759.88938	0.06154
758.60361	0.06136
757.31784	0.06125
756.03207	0.06107
754.74630	0.06076
753.46053	0.06035
752.17476	0.05990
750.88899	0.05945
749.60323	0.05899
748.31746	0.05853
747.03169	0.05807
745.74592	0.05767
744.46015	0.05731
743.17438	0.05692
741.88861	0.05648
740.60284	0.05604
739.31708	0.05572
738.03131	0.05555
736.74554	0.05540
735.45977	0.05520
734.17400	0.05502
732.88823	0.05500
731.60246	0.05515
730.31669	0.05533
729.03092	0.05536
727.74516	0.05518
726.45939	0.05484
725.17362	0.05450
723.88785	0.05426
722.60208	0.05415
721.31631	0.05414
720.03054	0.05407
718.74477	0.05388
717.45901	0.05372
716.17324	0.05366
714.88747	0.05367
713.60170	0.05372
712.31593	0.05380
711.03016	0.05393
709.74439	0.05413
708.45862	0.05439
707.17285	0.05466
705.88709	0.05487
704.60132	0.05499
703.31555	0.05500
702.02978	0.05492
700.74401	0.05478
699.45824	0.05462
698.17247	0.05442
696.88670	0.05421
695.60094	0.05398
694.31517	0.05373
693.02940	0.05351
691.74363	0.05331
690.45786	0.05314
689.17209	0.05296
687.88632	0.05276
686.60055	0.05254
685.31478	0.05229
684.02902	0.05201
682.74325	0.05171
681.45748	0.05144
680.17171	0.05122
678.88594	0.05108
677.60017	0.05101
676.31440	0.05099
675.02863	0.05097
673.74287	0.05078
672.45710	0.05030
671.17133	0.04979
669.88556	0.05013
668.59979	0.05138
667.31402	0.05140
666.02825	0.05048
664.74248	0.05032
663.45671	0.05054
662.17095	0.05054
660.88518	0.05028
659.59941	0.04987
658.31364	0.04933
657.02787	0.04875
655.74210	0.04818
654.45633	0.04769
653.17056	0.04732
651.88480	0.04708
650.59903	0.04696
649.31326	0.04695
648.02749	0.04697
646.74172	0.04702
645.45595	0.04712
644.17018	0.04730
642.88441	0.04756
641.59864	0.04789
640.31288	0.04823
639.02711	0.04851
637.74134	0.04870
636.45557	0.04880
635.16980	0.04889
633.88403	0.04904
632.59826	0.04939
631.31249	0.05016
630.02673	0.05152
628.74096	0.05252
627.45519	0.05199
626.16942	0.05414
624.88365	0.05809
623.59788	0.06203
622.31211	0.06508
621.02634	0.06702
619.74057	0.06822
618.45481	0.06942
617.16904	0.07135
615.88327	0.07445
614.59750	0.07863
613.31173	0.08319
612.02596	0.08749
610.74019	0.09182
609.45442	0.09717
608.16866	0.10381
606.88289	0.11083
605.59712	0.11724
604.31135	0.12246
603.02558	0.12595
601.73981	0.12715
600.45404	0.12592
599.16827	0.12275
597.88250	0.11856
596.59674	0.11415
595.31097	0.11004
594.02520	0.10653
592.73943	0.10373
591.45366	0.10167
590.16789	0.10031
588.88212	0.09960
587.59635	0.09948
586.31059	0.09987
585.02482	0.10070
583.73905	0.10193
582.45328	0.10358
581.16751	0.10569
579.88174	0.10823
578.59597	0.11106
577.31020	0.11395
576.02443	0.11672
574.73867	0.11931
573.45290	0.12184
572.16713	0.12445
570.88136	0.12739
569.59559	0.13085
568.30982	0.13495
567.02405	0.13958
565.73828	0.14442
564.45251	0.14906
563.16675	0.15303
561.88098	0.15579
560.59521	0.15682
559.30944	0.15577
558.02367	0.15269
556.73790	0.14805
555.45213	0.14246
554.16636	0.13648
552.88060	0.13057
551.59483	0.12496
550.30906	0.11968
549.02329	0.11468
547.73752	0.10993
546.45175	0.10545
545.16598	0.10134
543.88021	0.09768
542.59444	0.09452
541.30868	0.09177
540.02291	0.08924
538.73714	0.08676
537.45137	0.08429
536.16560	0.08197
534.87983	0.07993
533.59406	0.07819
532.30829	0.07661
531.02253	0.07504
529.73676	0.07347
528.45099	0.07199
527.16522	0.07069
525.87945	0.06958
524.59368	0.06859
523.30791	0.06759
522.02214	0.06651
520.73637	0.06535
519.45061	0.06414
518.16484	0.06296
516.87907	0.06182
515.59330	0.06071
514.30753	0.05963
513.02176	0.05862
511.73599	0.05771
510.45022	0.05688
509.16446	0.05611
507.87869	0.05537
506.59292	0.05472
505.30715	0.05423
504.02138	0.05386
502.73561	0.05348
501.44984	0.05297
500.16407	0.05234
498.87830	0.05173
497.59254	0.05124
496.30677	0.05082
495.02100	0.05039
493.73523	0.04997
492.44946	0.04960
491.16369	0.04934
489.87792	0.04913
488.59215	0.04890
487.30639	0.04860
486.02062	0.04827
484.73485	0.04803
483.44908	0.04796
482.16331	0.04803
480.87754	0.04817
479.59177	0.04832
478.30600	0.04845
477.02023	0.04864
475.73447	0.04892
474.44870	0.04931
473.16293	0.04974
471.87716	0.05006
470.59139	0.05013
469.30562	0.04994
468.01985	0.04962
466.73408	0.04932
465.44832	0.04905
464.16255	0.04874
462.87678	0.04831
461.59101	0.04781
460.30524	0.04730
459.01947	0.04680
457.73370	0.04627
456.44793	0.04566
455.16216	0.04504
453.87640	0.04448
452.59063	0.04402
451.30486	0.04359
450.01909	0.04315
448.73332	0.04269
447.44755	0.04224
446.16178	0.04185
444.87601	0.04150
443.59025	0.04118
442.30448	0.04088
441.01871	0.04059
439.73294	0.04031
438.44717	0.04002
437.16140	0.03974
435.87563	0.03944
434.58986	0.03913
433.30409	0.03888
432.01833	0.03873
430.73256	0.03867
429.44679	0.03865
428.16102	0.03858
426.87525	0.03844
425.58948	0.03825
424.30371	0.03800
423.01794	0.03774
421.73218	0.03750
420.44641	0.03735
419.16064	0.03732
417.87487	0.03737
416.58910	0.03746
415.30333	0.03755
414.01756	0.03771
412.73179	0.03799
411.44602	0.03838
410.16026	0.03883
408.87449	0.03931
407.58872	0.03979
406.30295	0.04027
405.01718	0.04071
403.73141	0.04110
402.44564	0.04147
401.15987	0.04182
399.87411	0.04215
