3997.45528	0.03323
3996.16951	0.03311
3994.88374	0.03276
3993.59798	0.03228
3992.31221	0.03193
3991.02644	0.03193
3989.74067	0.03228
3988.45490	0.03291
3987.16913	0.03367
3985.88336	0.03430
3984.59759	0.03452
3983.31183	0.03427
3982.02606	0.03387
3980.74029	0.03371
3979.45452	0.03398
3978.16875	0.03460
3976.88298	0.03533
3975.59721	0.03593
3974.31144	0.03620
3973.02567	0.03621
3971.73991	0.03623
3970.45414	0.03651
3969.16837	0.03696
3967.88260	0.03731
3966.59683	0.03736
3965.31106	0.03700
3964.02529	0.03631
3962.73952	0.03566
3961.45376	0.03553
3960.16799	0.03612
3958.88222	0.03705
3957.59645	0.03771
3956.31068	0.03768
3955.02491	0.03697
3953.73914	0.03594
3952.45337	0.03504
3951.16760	0.03465
3949.88184	0.03493
3948.59607	0.03576
3947.31030	0.03673
3946.02453	0.03733
3944.73876	0.03723
3943.45299	0.03673
3942.16722	0.03636
3940.88145	0.03627
3939.59569	0.03622
3938.30992	0.03617
3937.02415	0.03618
3935.73838	0.03618
3934.45261	0.03599
3933.16684	0.03571
3931.88107	0.03556
3930.59530	0.03552
3929.30953	0.03548
3928.02377	0.03558
3926.73800	0.03604
3925.45223	0.03693
3924.16646	0.03792
3922.88069	0.03838
3921.59492	0.03794
3920.30915	0.03690
3919.02338	0.03581
3917.73762	0.03512
3916.45185	0.03513
3915.16608	0.03569
3913.88031	0.03631
3912.59454	0.03669
3911.30877	0.03692
3910.02300	0.03717
3908.73723	0.03747
3907.45146	0.03759
3906.16570	0.03723
3904.87993	0.03652
3903.59416	0.03592
3902.30839	0.03546
3901.02262	0.03485
3899.73685	0.03418
3898.45108	0.03400
3897.16531	0.03447
3895.87955	0.03530
3894.59378	0.03604
3893.30801	0.03641
3892.02224	0.03671
3890.73647	0.03763
3889.45070	0.03881
3888.16493	0.03883
3886.87916	0.03767
3885.59339	0.03718
3884.30763	0.03811
3883.02186	0.03897
3881.73609	0.03845
3880.45032	0.03727
3879.16455	0.03652
3877.87878	0.03597
3876.59301	0.03508
3875.30724	0.03442
3874.02148	0.03463
3872.73571	0.03491
3871.44994	0.03426
3870.16417	0.03369
3868.87840	0.03466
3867.59263	0.03627
3866.30686	0.03695
3865.02109	0.03688
3863.73532	0.03685
3862.44956	0.03678
3861.16379	0.03664
3859.87802	0.03698
3858.59225	0.03797
3857.30648	0.03851
3856.02071	0.03744
3854.73494	0.03567
3853.44917	0.03570
3852.16341	0.03796
3850.87764	0.04012
3849.59187	0.04056
3848.30610	0.03988
3847.02033	0.03905
3845.73456	0.03833
3844.44879	0.03775
3843.16302	0.03753
3841.87725	0.03756
3840.59149	0.03711
3839.30572	0.03609
3838.01995	0.03566
3836.73418	0.03670
3835.44841	0.03825
3834.16264	0.03882
3832.87687	0.03834
3831.59110	0.03774
3830.30534	0.03747
3829.01957	0.03729
3827.73380	0.03707
3826.44803	0.03722
3825.16226	0.03770
3823.87649	0.03760
3822.59072	0.03690
3821.30495	0.03709
3820.01918	0.03857
3818.73342	0.03925
3817.44765	0.03782
3816.16188	0.03630
3814.87611	0.03662
3813.59034	0.03748
3812.30457	0.03716
3811.01880	0.03605
3809.73303	0.03494
3808.44726	0.03401
3807.16150	0.03412
3805.87573	0.03581
3804.58996	0.03726
3803.30419	0.03647
3802.01842	0.03460
3800.73265	0.03437
3799.44688	0.03573
3798.16111	0.03652
3796.87535	0.03627
3795.58958	0.03605
3794.30381	0.03612
3793.01804	0.03611
3791.73227	0.03608
3790.44650	0.03628
3789.16073	0.03651
3787.87496	0.03639
3786.58919	0.03587
3785.30343	0.03531
3784.01766	0.03512
3782.73189	0.03522
3781.44612	0.03526
3780.16035	0.03520
3778.87458	0.03528
3777.58881	0.03538
3776.30304	0.03525
3775.01728	0.03517
3773.73151	0.03554
3772.44574	0.03601
3771.15997	0.03619
3769.87420	0.03633
3768.58843	0.03655
3767.30266	0.03635
3766.01689	0.03569
3764.73112	0.03521
3763.44536	0.03512
3762.15959	0.03492
3760.87382	0.03455
3759.58805	0.03447
3758.30228	0.03487
3757.01651	0.03576
3755.73074	0.03684
3754.44497	0.03736
3753.15921	0.03710
3751.87344	0.03673
3750.58767	0.03706
3749.30190	0.03836
3748.01613	0.03963
3746.73036	0.03864
3745.44459	0.03570
3744.15882	0.03432
3742.87305	0.03572
3741.58729	0.03709
3740.30152	0.03654
3739.01575	0.03480
3737.72998	0.03314
3736.44421	0.03250
3735.15844	0.03319
3733.87267	0.03419
3732.58690	0.03470
3731.30114	0.03493
3730.01537	0.03488
3728.72960	0.03410
3727.44383	0.03291
3726.15806	0.03240
3724.87229	0.03269
3723.58652	0.03290
3722.30075	0.03258
3721.01498	0.03192
3719.72922	0.03138
3718.44345	0.03157
3717.15768	0.03285
3715.87191	0.03458
3714.58614	0.03543
3713.30037	0.03491
3712.01460	0.03377
3710.72883	0.03281
3709.44307	0.03210
3708.15730	0.03177
3706.87153	0.03192
3705.58576	0.03239
3704.29999	0.03287
3703.01422	0.03332
3701.72845	0.03373
3700.44268	0.03383
3699.15691	0.03326
3697.87115	0.03231
3696.58538	0.03183
3695.29961	0.03216
3694.01384	0.03284
3692.72807	0.03355
3691.44230	0.03398
3690.15653	0.03381
3688.87076	0.03356
3687.58500	0.03420
3686.29923	0.03537
3685.01346	0.03584
3683.72769	0.03542
3682.44192	0.03503
3681.15615	0.03532
3679.87038	0.03607
3678.58461	0.03612
3677.29884	0.03490
3676.01308	0.03411
3674.72731	0.03559
3673.44154	0.03785
3672.15577	0.03800
3670.87000	0.03641
3669.58423	0.03569
3668.29846	0.03639
3667.01269	0.03711
3665.72693	0.03722
3664.44116	0.03710
3663.15539	0.03704
3661.86962	0.03708
3660.58385	0.03723
3659.29808	0.03727
3658.01231	0.03705
3656.72654	0.03717
3655.44077	0.03841
3654.15501	0.04010
3652.86924	0.04062
3651.58347	0.03963
3650.29770	0.03847
3649.01193	0.03843
3647.72616	0.03944
3646.44039	0.04052
3645.15462	0.04085
3643.86886	0.04046
3642.58309	0.03995
3641.29732	0.03978
3640.01155	0.03993
3638.72578	0.04017
3637.44001	0.04048
3636.15424	0.04095
3634.86847	0.04179
3633.58270	0.04315
3632.29694	0.04421
3631.01117	0.04375
3629.72540	0.04228
3628.43963	0.04166
3627.15386	0.04238
3625.86809	0.04319
3624.58232	0.04355
3623.29655	0.04385
3622.01079	0.04413
3620.72502	0.04423
3619.43925	0.04464
3618.15348	0.04572
3616.86771	0.04696
3615.58194	0.04772
3614.29617	0.04815
3613.01040	0.04872
3611.72463	0.04909
3610.43887	0.04864
3609.15310	0.04762
3607.86733	0.04706
3606.58156	0.04738
3605.29579	0.04810
3604.01002	0.04862
3602.72425	0.04880
3601.43848	0.04909
3600.15272	0.04988
3598.86695	0.05097
3597.58118	0.05172
3596.29541	0.05195
3595.00964	0.05209
3593.72387	0.05265
3592.43810	0.05355
3591.15233	0.05394
3589.86656	0.05330
3588.58080	0.05234
3587.29503	0.05209
3586.00926	0.05277
3584.72349	0.05371
3583.43772	0.05431
3582.15195	0.05464
3580.86618	0.05505
3579.58041	0.05567
3578.29464	0.05639
3577.00888	0.05704
3575.72311	0.05756
3574.43734	0.05800
3573.15157	0.05851
3571.86580	0.05910
3570.58003	0.05949
3569.29426	0.05944
3568.00849	0.05913
3566.72273	0.05903
3565.43696	0.05940
3564.15119	0.06016
3562.86542	0.06118
3561.57965	0.06228
3560.29388	0.06309
3559.00811	0.06340
3557.72234	0.06338
3556.43657	0.06342
3555.15081	0.06370
3553.86504	0.06409
3552.57927	0.06448
3551.29350	0.06489
3550.00773	0.06537
3548.72196	0.06590
3547.43619	0.06637
3546.15042	0.06659
3544.86466	0.06641
3543.57889	0.06594
3542.29312	0.06566
3541.00735	0.06593
3539.72158	0.06673
3538.43581	0.06773
3537.15004	0.06864
3535.86427	0.06924
3534.57850	0.06939
3533.29274	0.06911
3532.00697	0.06877
3530.72120	0.06885
3529.43543	0.06957
3528.14966	0.07069
3526.86389	0.07177
3525.57812	0.07249
3524.29235	0.07287
3523.00659	0.07312
3521.72082	0.07332
3520.43505	0.07337
3519.14928	0.07317
3517.86351	0.07283
3516.57774	0.07264
3515.29197	0.07294
3514.00620	0.07381
3512.72043	0.07492
3511.43467	0.07577
3510.14890	0.07619
3508.86313	0.07645
3507.57736	0.07680
3506.29159	0.07711
3505.00582	0.07724
3503.72005	0.07729
3502.43428	0.07755
3501.14852	0.07811
3499.86275	0.07875
3498.57698	0.07920
3497.29121	0.07940
3496.00544	0.07943
3494.71967	0.07936
3493.43390	0.07916
3492.14813	0.07882
3490.86236	0.07842
3489.57660	0.07815
3488.29083	0.07810
3487.00506	0.07830
3485.71929	0.07867
3484.43352	0.07914
3483.14775	0.07972
3481.86198	0.08043
3480.57621	0.08118
3479.29045	0.08173
3478.00468	0.08191
3476.71891	0.08182
3475.43314	0.08178
3474.14737	0.08202
3472.86160	0.08248
3471.57583	0.08289
3470.29006	0.08313
3469.00429	0.08332
3467.71853	0.08354
3466.43276	0.08377
3465.14699	0.08392
3463.86122	0.08401
3462.57545	0.08411
3461.28968	0.08420
3460.00391	0.08417
3458.71814	0.08409
3457.43238	0.08423
3456.14661	0.08480
3454.86084	0.08559
3453.57507	0.08618
3452.28930	0.08645
3451.00353	0.08668
3449.71776	0.08708
3448.43199	0.08752
3447.14622	0.08774
3445.86046	0.08773
3444.57469	0.08770
3443.28892	0.08786
3442.00315	0.08831
3440.71738	0.08894
3439.43161	0.08956
3438.14584	0.08999
3436.86007	0.09018
3435.57431	0.09020
3434.28854	0.09012
3433.00277	0.08993
3431.71700	0.08966
3430.43123	0.08950
3429.14546	0.08969
3427.85969	0.09030
3426.57392	0.09119
3425.28815	0.09210
3424.00239	0.09280
3422.71662	0.09314
3421.43085	0.09317
3420.14508	0.09313
3418.85931	0.09323
3417.57354	0.09341
3416.28777	0.09349
3415.00200	0.09345
3413.71624	0.09345
3412.43047	0.09370
3411.14470	0.09421
3409.85893	0.09477
3408.57316	0.09513
3407.28739	0.09525
3406.00162	0.09538
3404.71585	0.09563
3403.43008	0.09585
3402.14432	0.09577
3400.85855	0.09537
3399.57278	0.09484
3398.28701	0.09455
3397.00124	0.09462
3395.71547	0.09497
3394.42970	0.09544
3393.14393	0.09587
3391.85817	0.09615
3390.57240	0.09625
3389.28663	0.09633
3388.00086	0.09664
3386.71509	0.09730
3385.42932	0.09808
3384.14355	0.09863
3382.85778	0.09867
3381.57201	0.09823
3380.28625	0.09760
3379.00048	0.09712
3377.71471	0.09694
3376.42894	0.09693
3375.14317	0.09695
3373.85740	0.09710
3372.57163	0.09757
3371.28586	0.09836
3370.00010	0.09916
3368.71433	0.09964
3367.42856	0.09966
3366.14279	0.09931
3364.85702	0.09879
3363.57125	0.09829
3362.28548	0.09796
3360.99971	0.09784
3359.71394	0.09787
3358.42818	0.09792
3357.14241	0.09799
3355.85664	0.09819
3354.57087	0.09862
3353.28510	0.09915
3351.99933	0.09954
3350.71356	0.09968
3349.42779	0.09970
3348.14202	0.09981
3346.85626	0.10008
3345.57049	0.10035
3344.28472	0.10038
3342.99895	0.10011
3341.71318	0.09969
3340.42741	0.09938
3339.14164	0.09935
3337.85587	0.09954
3336.57011	0.09980
3335.28434	0.10003
3333.99857	0.10023
3332.71280	0.10040
3331.42703	0.10048
3330.14126	0.10035
3328.85549	0.09997
3327.56972	0.09957
3326.28395	0.09946
3324.99819	0.09980
3323.71242	0.10048
3322.42665	0.10116
3321.14088	0.10159
3319.85511	0.10167
3318.56934	0.10148
3317.28357	0.10115
3315.99780	0.10081
3314.71204	0.10055
3313.42627	0.10042
3312.14050	0.10042
3310.85473	0.10044
3309.56896	0.10035
3308.28319	0.10007
3306.99742	0.09972
3305.71165	0.09947
3304.42588	0.09942
3303.14012	0.09944
3301.85435	0.09940
3300.56858	0.09932
3299.28281	0.09928
3297.99704	0.09934
3296.71127	0.09944
3295.42550	0.09954
3294.13973	0.09966
3292.85397	0.09976
3291.56820	0.09974
3290.28243	0.09951
3288.99666	0.09907
3287.71089	0.09849
3286.42512	0.09799
3285.13935	0.09782
3283.85358	0.09806
3282.56781	0.09859
3281.28205	0.09907
3279.99628	0.09929
3278.71051	0.09919
3277.42474	0.09885
3276.13897	0.09848
3274.85320	0.09828
3273.56743	0.09837
3272.28166	0.09868
3270.99590	0.09894
3269.71013	0.09899
3268.42436	0.09879
3267.13859	0.09847
3265.85282	0.09818
3264.56705	0.09804
3263.28128	0.09809
3261.99551	0.09818
3260.70974	0.09818
3259.42398	0.09813
3258.13821	0.09818
3256.85244	0.09839
3255.56667	0.09847
3254.28090	0.09806
3252.99513	0.09714
3251.70936	0.09615
3250.42359	0.09562
3249.13783	0.09570
3247.85206	0.09607
3246.56629	0.09626
3245.28052	0.09610
3243.99475	0.09573
3242.70898	0.09544
3241.42321	0.09537
3240.13744	0.09538
3238.85167	0.09524
3237.56591	0.09489
3236.28014	0.09453
3234.99437	0.09440
3233.70860	0.09456
3232.42283	0.09482
3231.13706	0.09490
3229.85129	0.09471
3228.56552	0.09444
3227.27976	0.09432
3225.99399	0.09438
3224.70822	0.09443
3223.42245	0.09432
3222.13668	0.09412
3220.85091	0.09399
3219.56514	0.09396
3218.27937	0.09395
3216.99360	0.09392
3215.70784	0.09394
3214.42207	0.09405
3213.13630	0.09413
3211.85053	0.09400
3210.56476	0.09361
3209.27899	0.09308
3207.99322	0.09253
3206.70745	0.09202
3205.42169	0.09166
3204.13592	0.09159
3202.85015	0.09178
3201.56438	0.09202
3200.27861	0.09215
3198.99284	0.09218
3197.70707	0.09223
3196.42130	0.09228
3195.13553	0.09223
3193.84977	0.09200
3192.56400	0.09163
3191.27823	0.09123
3189.99246	0.09086
3188.70669	0.09054
3187.42092	0.09026
3186.13515	0.09005
3184.84938	0.08995
3183.56362	0.09001
3182.27785	0.09022
3180.99208	0.09049
3179.70631	0.09070
3178.42054	0.09068
3177.13477	0.09037
3175.84900	0.08983
3174.56323	0.08923
3173.27746	0.08874
3171.99170	0.08840
3170.70593	0.08814
3169.42016	0.08792
3168.13439	0.08782
3166.84862	0.08789
3165.56285	0.08801
3164.27708	0.08789
3162.99131	0.08734
3161.70555	0.08646
3160.41978	0.08568
3159.13401	0.08539
3157.84824	0.08559
3156.56247	0.08592
3155.27670	0.08597
3153.99093	0.08565
3152.70516	0.08516
3151.41939	0.08473
3150.13363	0.08446
3148.84786	0.08434
3147.56209	0.08438
3146.27632	0.08454
3144.99055	0.08473
3143.70478	0.08482
3142.41901	0.08474
3141.13324	0.08450
3139.84748	0.08416
3138.56171	0.08377
3137.27594	0.08338
3135.99017	0.08305
3134.70440	0.08282
3133.41863	0.08271
3132.13286	0.08262
3130.84709	0.08245
3129.56132	0.08223
3128.27556	0.08214
3126.98979	0.08223
3125.70402	0.08237
3124.41825	0.08240
3123.13248	0.08232
3121.84671	0.08220
3120.56094	0.08207
3119.27517	0.08186
3117.98940	0.08156
3116.70364	0.08127
3115.41787	0.08108
3114.13210	0.08086
3112.84633	0.08046
3111.56056	0.07995
3110.27479	0.07962
3108.98902	0.07972
3107.70325	0.08017
3106.41749	0.08065
3105.13172	0.08083
3103.84595	0.08058
3102.56018	0.08011
3101.27441	0.07977
3099.98864	0.07973
3098.70287	0.07984
3097.41710	0.07983
3096.13133	0.07965
3094.84557	0.07948
3093.55980	0.07952
3092.27403	0.07974
3090.98826	0.08000
3089.70249	0.08023
3088.41672	0.08041
3087.13095	0.08051
3085.84518	0.08046
3084.55942	0.08028
3083.27365	0.08011
3081.98788	0.07998
3080.70211	0.07981
3079.41634	0.07948
3078.13057	0.07906
3076.84480	0.07868
3075.55903	0.07837
3074.27326	0.07799
3072.98750	0.07742
3071.70173	0.07669
3070.41596	0.07604
3069.13019	0.07571
3067.84442	0.07578
3066.55865	0.07608
3065.27288	0.07633
3063.98711	0.07637
3062.70135	0.07628
3061.41558	0.07624
3060.12981	0.07636
3058.84404	0.07659
3057.55827	0.07673
3056.27250	0.07665
3054.98673	0.07632
3053.70096	0.07582
3052.41519	0.07530
3051.12943	0.07494
3049.84366	0.07481
3048.55789	0.07480
3047.27212	0.07473
3045.98635	0.07451
3044.70058	0.07416
3043.41481	0.07379
3042.12904	0.07347
3040.84328	0.07326
3039.55751	0.07323
3038.27174	0.07331
3036.98597	0.07331
3035.70020	0.07311
3034.41443	0.07277
3033.12866	0.07249
3031.84289	0.07243
3030.55712	0.07254
3029.27136	0.07262
3027.98559	0.07256
3026.69982	0.07237
3025.41405	0.07214
3024.12828	0.07190
3022.84251	0.07173
3021.55674	0.07173
3020.27097	0.07192
3018.98521	0.07218
3017.69944	0.07230
3016.41367	0.07217
3015.12790	0.07183
3013.84213	0.07139
3012.55636	0.07094
3011.27059	0.07054
3009.98482	0.07026
3008.69905	0.07018
3007.41329	0.07027
3006.12752	0.07036
3004.84175	0.07027
3003.55598	0.06992
3002.27021	0.06943
3000.98444	0.06901
2999.69867	0.06880
2998.41290	0.06890
2997.12714	0.06917
2995.84137	0.06948
2994.55560	0.06968
2993.26983	0.06980
2991.98406	0.06999
2990.69829	0.07027
2989.41252	0.07045
2988.12675	0.07039
2986.84098	0.07024
2985.55522	0.07028
2984.26945	0.07064
2982.98368	0.07121
2981.69791	0.07190
2980.41214	0.07266
2979.12637	0.07346
2977.84060	0.07420
2976.55483	0.07489
2975.26907	0.07569
2973.98330	0.07665
2972.69753	0.07766
2971.41176	0.07850
2970.12599	0.07922
2968.84022	0.08004
2967.55445	0.08118
2966.26868	0.08263
2964.98291	0.08418
2963.69715	0.08564
2962.41138	0.08696
2961.12561	0.08823
2959.83984	0.08950
2958.55407	0.09076
2957.26830	0.09194
2955.98253	0.09293
2954.69676	0.09366
2953.41100	0.09415
2952.12523	0.09451
2950.83946	0.09485
2949.55369	0.09519
2948.26792	0.09544
2946.98215	0.09548
2945.69638	0.09521
2944.41061	0.09465
2943.12484	0.09397
2941.83908	0.09349
2940.55331	0.09359
2939.26754	0.09440
2937.98177	0.09568
2936.69600	0.09699
2935.41023	0.09806
2934.12446	0.09891
2932.83869	0.09971
2931.55293	0.10063
2930.26716	0.10167
2928.98139	0.10276
2927.69562	0.10378
2926.40985	0.10469
2925.12408	0.10546
2923.83831	0.10592
2922.55254	0.10593
2921.26677	0.10551
2919.98101	0.10488
2918.69524	0.10422
2917.40947	0.10355
2916.12370	0.10274
2914.83793	0.10169
2913.55216	0.10042
2912.26639	0.09911
2910.98062	0.09796
2909.69486	0.09708
2908.40909	0.09642
2907.12332	0.09582
2905.83755	0.09512
2904.55178	0.09425
2903.26601	0.09330
2901.98024	0.09240
2900.69447	0.09162
2899.40870	0.09090
2898.12294	0.09018
2896.83717	0.08946
2895.55140	0.08876
2894.26563	0.08799
2892.97986	0.08703
2891.69409	0.08589
2890.40832	0.08478
2889.12255	0.08397
2887.83678	0.08356
2886.55102	0.08337
2885.26525	0.08312
2883.97948	0.08270
2882.69371	0.08219
2881.40794	0.08183
2880.12217	0.08176
2878.83640	0.08202
2877.55063	0.08254
2876.26487	0.08316
2874.97910	0.08374
2873.69333	0.08423
2872.40756	0.08468
2871.12179	0.08513
2869.83602	0.08548
2868.55025	0.08562
2867.26448	0.08554
2865.97871	0.08534
2864.69295	0.08523
2863.40718	0.08529
2862.12141	0.08550
2860.83564	0.08575
2859.54987	0.08595
2858.26410	0.08605
2856.97833	0.08604
2855.69256	0.08586
2854.40680	0.08548
2853.12103	0.08492
2851.83526	0.08431
2850.54949	0.08368
2849.26372	0.08293
2847.97795	0.08193
2846.69218	0.08071
2845.40641	0.07944
2844.12064	0.07827
2842.83488	0.07728
2841.54911	0.07647
2840.26334	0.07576
2838.97757	0.07502
2837.69180	0.07415
2836.40603	0.07313
2835.12026	0.07203
2833.83449	0.07091
2832.54873	0.06982
2831.26296	0.06885
2829.97719	0.06808
2828.69142	0.06749
2827.40565	0.06695
2826.11988	0.06640
2824.83411	0.06586
2823.54834	0.06542
2822.26257	0.06512
2820.97681	0.06488
2819.69104	0.06462
2818.40527	0.06429
2817.11950	0.06388
2815.83373	0.06344
2814.54796	0.06306
2813.26219	0.06277
2811.97642	0.06253
2810.69066	0.06227
2809.40489	0.06202
2808.11912	0.06182
2806.83335	0.06167
2805.54758	0.06153
2804.26181	0.06137
2802.97604	0.06116
2801.69027	0.06088
2800.40450	0.06056
2799.11874	0.06028
2797.83297	0.06011
2796.54720	0.06002
2795.26143	0.05990
2793.97566	0.05967
2792.68989	0.05935
2791.40412	0.05910
2790.11835	0.05901
2788.83259	0.05912
2787.54682	0.05928
2786.26105	0.05929
2784.97528	0.05901
2783.68951	0.05854
2782.40374	0.05817
2781.11797	0.05806
2779.83220	0.05816
2778.54643	0.05819
2777.26067	0.05795
2775.97490	0.05748
2774.68913	0.05700
2773.40336	0.05675
2772.11759	0.05674
2770.83182	0.05682
2769.54605	0.05681
2768.26028	0.05668
2766.97452	0.05652
2765.68875	0.05648
2764.40298	0.05656
2763.11721	0.05666
2761.83144	0.05663
2760.54567	0.05646
2759.25990	0.05631
2757.97413	0.05627
2756.68836	0.05631
2755.40260	0.05627
2754.11683	0.05606
2752.83106	0.05573
2751.54529	0.05535
2750.25952	0.05504
2748.97375	0.05492
2747.68798	0.05496
2746.40221	0.05504
2745.11645	0.05503
2743.83068	0.05492
2742.54491	0.05479
2741.25914	0.05471
2739.97337	0.05463
2738.68760	0.05451
2737.40183	0.05434
2736.11606	0.05418
2734.83029	0.05410
2733.54453	0.05409
2732.25876	0.05409
2730.97299	0.05400
2729.68722	0.05381
2728.40145	0.05365
2727.11568	0.05360
2725.82991	0.05361
2724.54414	0.05357
2723.25838	0.05342
2721.97261	0.05326
2720.68684	0.05319
2719.40107	0.05322
2718.11530	0.05326
2716.82953	0.05328
2715.54376	0.05329
2714.25799	0.05331
2712.97222	0.05333
2711.68646	0.05326
2710.40069	0.05303
2709.11492	0.05264
2707.82915	0.05223
2706.54338	0.05197
2705.25761	0.05193
2703.97184	0.05200
2702.68607	0.05200
2701.40031	0.05187
2700.11454	0.05168
2698.82877	0.05149
2697.54300	0.05134
2696.25723	0.05125
2694.97146	0.05121
2693.68569	0.05122
2692.39992	0.05124
2691.11415	0.05123
2689.82839	0.05113
2688.54262	0.05100
2687.25685	0.05091
2685.97108	0.05089
2684.68531	0.05089
2683.39954	0.05086
2682.11377	0.05077
2680.82800	0.05064
2679.54224	0.05048
2678.25647	0.05030
2676.97070	0.05017
2675.68493	0.05011
2674.39916	0.05010
2673.11339	0.05010
2671.82762	0.05010
2670.54185	0.05012
2669.25608	0.05016
2667.97032	0.05016
2666.68455	0.05006
2665.39878	0.04984
2664.11301	0.04958
2662.82724	0.04941
2661.54147	0.04944
2660.25570	0.04964
2658.96993	0.04989
2657.68417	0.05001
2656.39840	0.04991
2655.11263	0.04962
2653.82686	0.04925
2652.54109	0.04892
2651.25532	0.04870
2649.96955	0.04853
2648.68378	0.04837
2647.39801	0.04821
2646.11225	0.04807
2644.82648	0.04790
2643.54071	0.04766
2642.25494	0.04737
2640.96917	0.04712
2639.68340	0.04698
2638.39763	0.04691
2637.11186	0.04684
2635.82609	0.04671
2634.54033	0.04655
2633.25456	0.04637
2631.96879	0.04619
2630.68302	0.04604
2629.39725	0.04589
2628.11148	0.04569
2626.82571	0.04540
2625.53994	0.04506
2624.25418	0.04473
2622.96841	0.04438
2621.68264	0.04399
2620.39687	0.04360
2619.11110	0.04335
2617.82533	0.04330
2616.53956	0.04338
2615.25379	0.04352
2613.96802	0.04366
2612.68226	0.04374
2611.39649	0.04369
2610.11072	0.04353
2608.82495	0.04337
2607.53918	0.04319
2606.25341	0.04289
2604.96764	0.04248
2603.68187	0.04212
2602.39611	0.04193
2601.11034	0.04182
2599.82457	0.04169
2598.53880	0.04154
2597.25303	0.04145
2595.96726	0.04145
2594.68149	0.04147
2593.39572	0.04144
2592.10995	0.04137
2590.82419	0.04129
2589.53842	0.04124
2588.25265	0.04119
2586.96688	0.04109
2585.68111	0.04093
2584.39534	0.04071
2583.10957	0.04050
2581.82380	0.04035
2580.53804	0.04020
2579.25227	0.03997
2577.96650	0.03968
2576.68073	0.03944
2575.39496	0.03936
2574.10919	0.03932
2572.82342	0.03911
2571.53765	0.03864
2570.25188	0.03800
2568.96612	0.03749
2567.68035	0.03736
2566.39458	0.03771
2565.10881	0.03831
2563.82304	0.03885
2562.53727	0.03913
2561.25150	0.03918
2559.96573	0.03907
2558.67997	0.03880
2557.39420	0.03846
2556.10843	0.03829
2554.82266	0.03841
2553.53689	0.03873
2552.25112	0.03905
2550.96535	0.03923
2549.67958	0.03920
2548.39381	0.03897
2547.10805	0.03859
2545.82228	0.03818
2544.53651	0.03788
2543.25074	0.03776
2541.96497	0.03779
2540.67920	0.03782
2539.39343	0.03770
2538.10766	0.03747
2536.82190	0.03726
2535.53613	0.03712
2534.25036	0.03696
2532.96459	0.03677
2531.67882	0.03668
2530.39305	0.03685
2529.10728	0.03727
2527.82151	0.03775
2526.53574	0.03806
2525.24998	0.03811
2523.96421	0.03795
2522.67844	0.03765
2521.39267	0.03724
2520.10690	0.03674
2518.82113	0.03624
2517.53536	0.03588
2516.24959	0.03574
2514.96383	0.03580
2513.67806	0.03594
2512.39229	0.03602
2511.10652	0.03602
2509.82075	0.03597
2508.53498	0.03584
2507.24921	0.03565
2505.96344	0.03555
2504.67767	0.03568
2503.39191	0.03600
2502.10614	0.03619
2500.82037	0.03605
2499.53460	0.03576
2498.24883	0.03570
2496.96306	0.03602
2495.67729	0.03651
2494.39152	0.03684
2493.10576	0.03688
2491.81999	0.03672
2490.53422	0.03655
2489.24845	0.03651
2487.96268	0.03656
2486.67691	0.03653
2485.39114	0.03627
2484.10537	0.03587
2482.81960	0.03549
2481.53384	0.03523
2480.24807	0.03510
2478.96230	0.03510
2477.67653	0.03517
2476.39076	0.03524
2475.10499	0.03534
2473.81922	0.03554
2472.53345	0.03582
2471.24769	0.03603
2469.96192	0.03603
2468.67615	0.03582
2467.39038	0.03558
2466.10461	0.03545
2464.81884	0.03545
2463.53307	0.03544
2462.24730	0.03531
2460.96153	0.03513
2459.67577	0.03507
2458.39000	0.03522
2457.10423	0.03555
2455.81846	0.03597
2454.53269	0.03632
2453.24692	0.03650
2451.96115	0.03653
2450.67538	0.03651
2449.38962	0.03648
2448.10385	0.03636
2446.81808	0.03604
2445.53231	0.03556
2444.24654	0.03508
2442.96077	0.03475
2441.67500	0.03465
2440.38923	0.03470
2439.10346	0.03471
2437.81770	0.03454
2436.53193	0.03423
2435.24616	0.03392
2433.96039	0.03374
2432.67462	0.03369
2431.38885	0.03363
2430.10308	0.03348
2428.81731	0.03329
2427.53155	0.03317
2426.24578	0.03319
2424.96001	0.03327
2423.67424	0.03335
2422.38847	0.03342
2421.10270	0.03353
2419.81693	0.03375
2418.53116	0.03400
2417.24539	0.03413
2415.95963	0.03398
2414.67386	0.03358
2413.38809	0.03317
2412.10232	0.03298
2410.81655	0.03310
2409.53078	0.03344
2408.24501	0.03383
2406.95924	0.03410
2405.67347	0.03416
2404.38771	0.03397
2403.10194	0.03360
2401.81617	0.03327
2400.53040	0.03322
2399.24463	0.03414
2397.95886	0.03492
2396.67309	0.03515
2395.38732	0.03494
2394.10156	0.03448
2392.81579	0.03394
2391.53002	0.03342
2390.24425	0.03299
2388.95848	0.03267
2387.67271	0.03244
2386.38694	0.03227
2385.10117	0.03211
2383.81540	0.03195
2382.52964	0.03184
2381.24387	0.03190
2379.95810	0.03217
2378.67233	0.03265
2377.38656	0.03321
2376.10079	0.03348
2374.81502	0.03334
2373.52925	0.03299
2372.24349	0.03267
2370.95772	0.03266
2369.67195	0.03267
2368.38618	0.03256
2367.10041	0.03251
2365.81464	0.03234
2364.52887	0.03177
2363.24310	0.03128
2361.95733	0.03131
2360.67157	0.03155
2359.38580	0.03146
2358.10003	0.03131
2356.81426	0.03113
2355.52849	0.03053
2354.24272	0.02970
2352.95695	0.02892
2351.67118	0.02882
2350.38542	0.02974
2349.09965	0.03041
2347.81388	0.02968
2346.52811	0.02866
2345.24234	0.02871
2343.95657	0.02954
2342.67080	0.03027
2341.38503	0.03100
2340.09926	0.03191
2338.81350	0.03255
2337.52773	0.03264
2336.24196	0.03205
2334.95619	0.03149
2333.67042	0.03160
2332.38465	0.03201
2331.09888	0.03242
2329.81311	0.03267
2328.52735	0.03253
2327.24158	0.03253
2325.95581	0.03297
2324.67004	0.03345
2323.38427	0.03388
2322.09850	0.03406
2320.81273	0.03368
2319.52696	0.03315
2318.24119	0.03285
2316.95543	0.03273
2315.66966	0.03267
2314.38389	0.03253
2313.09812	0.03229
2311.81235	0.03197
2310.52658	0.03177
2309.24081	0.03187
2307.95504	0.03214
2306.66928	0.03237
2305.38351	0.03244
2304.09774	0.03231
2302.81197	0.03199
2301.52620	0.03157
2300.24043	0.03115
2298.95466	0.03078
2297.66889	0.03051
2296.38312	0.03033
2295.09736	0.03020
2293.81159	0.03014
2292.52582	0.03013
2291.24005	0.03016
2289.95428	0.03017
2288.66851	0.03013
2287.38274	0.03002
2286.09697	0.02989
2284.81121	0.02977
2283.52544	0.02965
2282.23967	0.02947
2280.95390	0.02922
2279.66813	0.02894
2278.38236	0.02871
2277.09659	0.02856
2275.81082	0.02853
2274.52505	0.02859
2273.23929	0.02861
2271.95352	0.02845
2270.66775	0.02802
2269.38198	0.02740
2268.09621	0.02678
2266.81044	0.02628
2265.52467	0.02590
2264.23890	0.02564
2262.95314	0.02554
2261.66737	0.02562
2260.38160	0.02587
2259.09583	0.02629
2257.81006	0.02673
2256.52429	0.02703
2255.23852	0.02700
2253.95275	0.02664
2252.66698	0.02607
2251.38122	0.02549
2250.09545	0.02515
2248.80968	0.02503
2247.52391	0.02447
2246.23814	0.02382
2244.95237	0.02340
2243.66660	0.02342
2242.38083	0.02384
2241.09507	0.02440
2239.80930	0.02492
2238.52353	0.02529
2237.23776	0.02542
2235.95199	0.02515
2234.66622	0.02439
2233.38045	0.02335
2232.09468	0.02249
2230.80891	0.02213
2229.52315	0.02220
2228.23738	0.02230
2226.95161	0.02203
2225.66584	0.02130
2224.38007	0.02030
2223.09430	0.01929
2221.80853	0.01850
2220.52276	0.01817
2219.23700	0.01852
2217.95123	0.01954
2216.66546	0.02083
2215.37969	0.02165
2214.09392	0.02141
2212.80815	0.02006
2211.52238	0.01836
2210.23661	0.01735
2208.95084	0.01758
2207.66508	0.01861
2206.37931	0.01959
2205.09354	0.02005
2203.80777	0.02006
2202.52200	0.01980
2201.23623	0.01932
2199.95046	0.01870
2198.66469	0.01811
2197.37893	0.01778
2196.09316	0.01784
2194.80739	0.01819
2193.52162	0.01851
2192.23585	0.01839
2190.95008	0.01764
2189.66431	0.01632
2188.37854	0.01473
2187.09277	0.01335
2185.80701	0.01255
2184.52124	0.01238
2183.23547	0.01269
2181.94970	0.01344
2180.66393	0.01456
2179.37816	0.01561
2178.09239	0.01597
2176.80662	0.01546
2175.52085	0.01450
2174.23509	0.01376
2172.94932	0.01353
2171.66355	0.01359
2170.37778	0.01352
2169.09201	0.01312
2167.80624	0.01261
2166.52047	0.01230
2165.23470	0.01238
2163.94894	0.01281
2162.66317	0.01334
2161.37740	0.01356
2160.09163	0.01313
2158.80586	0.01211
2157.52009	0.01090
2156.23432	0.00992
2154.94855	0.00950
2153.66278	0.00986
2152.37702	0.01089
2151.09125	0.01227
2149.80548	0.01368
2148.51971	0.01503
2147.23394	0.01623
2145.94817	0.01709
2144.66240	0.01735
2143.37663	0.01703
2142.09087	0.01654
2140.80510	0.01651
2139.51933	0.01711
2138.23356	0.01786
2136.94779	0.01810
2135.66202	0.01763
2134.37625	0.01676
2133.09048	0.01592
2131.80471	0.01543
2130.51895	0.01543
2129.23318	0.01584
2127.94741	0.01645
2126.66164	0.01711
2125.37587	0.01786
2124.09010	0.01863
2122.80433	0.01920
2121.51856	0.01947
2120.23280	0.01954
2118.94703	0.01945
2117.66126	0.01912
2116.37549	0.01857
2115.08972	0.01815
2113.80395	0.01819
2112.51818	0.01858
2111.23241	0.01882
2109.94664	0.01872
2108.66088	0.01858
2107.37511	0.01879
2106.08934	0.01937
2104.80357	0.02004
2103.51780	0.02050
2102.23203	0.02060
2100.94626	0.02033
2099.66049	0.02026
2098.37473	0.01962
2097.08896	0.01864
2095.80319	0.01789
2094.51742	0.01776
2093.23165	0.01824
2091.94588	0.01894
2090.66011	0.01929
2089.37434	0.01900
2088.08857	0.01823
2086.80281	0.01738
2085.51704	0.01672
2084.23127	0.01637
2082.94550	0.01640
2081.65973	0.01684
2080.37396	0.01748
2079.08819	0.01793
2077.80242	0.01789
2076.51666	0.01740
2075.23089	0.01669
2073.94512	0.01596
2072.65935	0.01527
2071.37358	0.01474
2070.08781	0.01452
2068.80204	0.01470
2067.51627	0.01525
2066.23050	0.01594
2064.94474	0.01649
2063.65897	0.01670
2062.37320	0.01657
2061.08743	0.01628
2059.80166	0.01597
2058.51589	0.01570
2057.23012	0.01530
2055.94435	0.01460
2054.65859	0.01371
2053.37282	0.01309
2052.08705	0.01328
2050.80128	0.01421
2049.51551	0.01517
2048.22974	0.01532
2046.94397	0.01440
2045.65820	0.01292
2044.37243	0.01174
2043.08667	0.01142
2041.80090	0.01203
2040.51513	0.01315
2039.22936	0.01414
2037.94359	0.01443
2036.65782	0.01402
2035.37205	0.01344
2034.08628	0.01314
2032.80052	0.01289
2031.51475	0.01209
2030.22898	0.01050
2028.94321	0.00861
2027.65744	0.00727
2026.37167	0.00700
2025.08590	0.00763
2023.80013	0.00861
2022.51436	0.00949
2021.22860	0.01020
2019.94283	0.01069
2018.65706	0.01075
2017.37129	0.01020
2016.08552	0.00918
2014.79975	0.00821
2013.51398	0.00791
2012.22821	0.00872
2010.94245	0.01032
2009.65668	0.01173
2008.37091	0.01224
2007.08514	0.01210
2005.79937	0.01214
2004.51360	0.01268
2003.22783	0.01329
2001.94206	0.01350
2000.65629	0.01337
1999.37053	0.01318
1998.08476	0.01304
1996.79899	0.01288
1995.51322	0.01260
1994.22745	0.01222
1992.94168	0.01187
1991.65591	0.01169
1990.37014	0.01177
1989.08438	0.01205
1987.79861	0.01239
1986.51284	0.01255
1985.22707	0.01239
1983.94130	0.01202
1982.65553	0.01183
1981.36976	0.01213
1980.08399	0.01288
1978.79822	0.01375
1977.51246	0.01436
1976.22669	0.01452
1974.94092	0.01439
1973.65515	0.01432
1972.36938	0.01461
1971.08361	0.01518
1969.79784	0.01564
1968.51207	0.01566
1967.22631	0.01526
1965.94054	0.01472
1964.65477	0.01415
1963.36900	0.01351
1962.08323	0.01303
1960.79746	0.01307
1959.51169	0.01369
1958.22592	0.01449
1956.94015	0.01506
1955.65439	0.01538
1954.36862	0.01565
1953.08285	0.01591
1951.79708	0.01603
1950.51131	0.01604
1949.22554	0.01606
1947.93977	0.01612
1946.65400	0.01613
1945.36823	0.01607
1944.08247	0.01611
1942.79670	0.01643
1941.51093	0.01695
1940.22516	0.01733
1938.93939	0.01735
1937.65362	0.01717
1936.36785	0.01704
1935.08208	0.01697
1933.79632	0.01691
1932.51055	0.01687
1931.22478	0.01694
1929.93901	0.01712
1928.65324	0.01731
1927.36747	0.01743
1926.08170	0.01747
1924.79593	0.01746
1923.51016	0.01750
1922.22440	0.01770
1920.93863	0.01798
1919.65286	0.01810
1918.36709	0.01803
1917.08132	0.01793
1915.79555	0.01783
1914.50978	0.01772
1913.22401	0.01768
1911.93825	0.01773
1910.65248	0.01772
1909.36671	0.01757
1908.08094	0.01739
1906.79517	0.01739
1905.50940	0.01770
1904.22363	0.01830
1902.93786	0.01902
1901.65209	0.01964
1900.36633	0.02002
1899.08056	0.02011
1897.79479	0.01994
1896.50902	0.01960
1895.22325	0.01927
1893.93748	0.01913
1892.65171	0.01915
1891.36594	0.01922
1890.08018	0.01930
1888.79441	0.01944
1887.50864	0.01960
1886.22287	0.01966
1884.93710	0.01961
1883.65133	0.01950
1882.36556	0.01934
1881.07979	0.01914
1879.79402	0.01897
1878.50826	0.01893
1877.22249	0.01906
1875.93672	0.01928
1874.65095	0.01955
1873.36518	0.01986
1872.07941	0.02008
1870.79364	0.02006
1869.50787	0.01979
1868.22211	0.01948
1866.93634	0.01924
1865.65057	0.01909
1864.36480	0.01907
1863.07903	0.01924
1861.79326	0.01952
1860.50749	0.01975
1859.22172	0.01988
1857.93595	0.01992
1856.65019	0.01992
1855.36442	0.01987
1854.07865	0.01975
1852.79288	0.01957
1851.50711	0.01940
1850.22134	0.01935
1848.93557	0.01951
1847.64980	0.01977
1846.36404	0.01980
1845.07827	0.01956
1843.79250	0.01949
1842.50673	0.01978
1841.22096	0.02004
1839.93519	0.01995
1838.64942	0.01971
1837.36365	0.01957
1836.07788	0.01953
1834.79212	0.01954
1833.50635	0.01955
1832.22058	0.01948
1830.93481	0.01940
1829.64904	0.01952
1828.36327	0.01977
1827.07750	0.01981
1825.79173	0.01961
1824.50597	0.01958
1823.22020	0.01986
1821.93443	0.02022
1820.64866	0.02034
1819.36289	0.02015
1818.07712	0.01976
1816.79135	0.01944
1815.50558	0.01940
1814.21981	0.01958
1812.93405	0.01977
1811.64828	0.01984
1810.36251	0.01985
1809.07674	0.01987
1807.79097	0.01992
1806.50520	0.02003
1805.21943	0.02017
1803.93366	0.02026
1802.64790	0.02020
1801.36213	0.02009
1800.07636	0.02007
1798.79059	0.02020
1797.50482	0.02046
1796.21905	0.02075
1794.93328	0.02088
1793.64751	0.02075
1792.36174	0.02063
1791.07598	0.02075
1789.79021	0.02091
1788.50444	0.02083
1787.21867	0.02054
1785.93290	0.02031
1784.64713	0.02035
1783.36136	0.02054
1782.07559	0.02062
1780.78983	0.02056
1779.50406	0.02060
1778.21829	0.02085
1776.93252	0.02126
1775.64675	0.02157
1774.36098	0.02153
1773.07521	0.02133
1771.78944	0.02147
1770.50367	0.02178
1769.21791	0.02181
1767.93214	0.02165
1766.64637	0.02173
1765.36060	0.02194
1764.07483	0.02191
1762.78906	0.02172
1761.50329	0.02181
1760.21752	0.02218
1758.93176	0.02236
1757.64599	0.02225
1756.36022	0.02226
1755.07445	0.02252
1753.78868	0.02257
1752.50291	0.02223
1751.21714	0.02193
1749.93137	0.02199
1748.64560	0.02216
1747.35984	0.02219
1746.07407	0.02214
1744.78830	0.02216
1743.50253	0.02224
1742.21676	0.02224
1740.93099	0.02216
1739.64522	0.02237
1738.35945	0.02309
1737.07369	0.02368
1735.78792	0.02350
1734.50215	0.02312
1733.21638	0.02344
1731.93061	0.02419
1730.64484	0.02442
1729.35907	0.02407
1728.07330	0.02371
1726.78753	0.02359
1725.50177	0.02360
1724.21600	0.02374
1722.93023	0.02420
1721.64446	0.02487
1720.35869	0.02531
1719.07292	0.02534
1717.78715	0.02548
1716.50138	0.02615
1715.21561	0.02699
1713.92985	0.02751
1712.64408	0.02772
1711.35831	0.02792
1710.07254	0.02828
1708.78677	0.02878
1707.50100	0.02930
1706.21523	0.03001
1704.92946	0.03118
1703.64370	0.03248
1702.35793	0.03310
1701.07216	0.03338
1699.78639	0.03443
1698.50062	0.03592
1697.21485	0.03654
1695.92908	0.03652
1694.64331	0.03712
1693.35754	0.03822
1692.07178	0.03888
1690.78601	0.03927
1689.50024	0.04016
1688.21447	0.04148
1686.92870	0.04236
1685.64293	0.04256
1684.35716	0.04302
1683.07139	0.04424
1681.78563	0.04543
1680.49986	0.04605
1679.21409	0.04655
1677.92832	0.04721
1676.64255	0.04788
1675.35678	0.04875
1674.07101	0.05003
1672.78524	0.05131
1671.49947	0.05206
1670.21371	0.05251
1668.92794	0.05324
1667.64217	0.05435
1666.35640	0.05538
1665.07063	0.05594
1663.78486	0.05624
1662.49909	0.05677
1661.21332	0.05760
1659.92756	0.05854
1658.64179	0.05961
1657.35602	0.06087
1656.07025	0.06171
1654.78448	0.06157
1653.49871	0.06132
1652.21294	0.06227
1650.92717	0.06398
1649.64140	0.06471
1648.35564	0.06405
1647.06987	0.06318
1645.78410	0.06305
1644.49833	0.06344
1643.21256	0.06365
1641.92679	0.06353
1640.64102	0.06347
1639.35525	0.06359
1638.06949	0.06342
1636.78372	0.06278
1635.49795	0.06222
1634.21218	0.06214
1632.92641	0.06214
1631.64064	0.06167
1630.35487	0.06085
1629.06910	0.06011
1627.78333	0.05967
1626.49757	0.05936
1625.21180	0.05883
1623.92603	0.05811
1622.64026	0.05760
1621.35449	0.05746
1620.06872	0.05721
1618.78295	0.05636
1617.49718	0.05525
1616.21142	0.05467
1614.92565	0.05463
1613.63988	0.05441
1612.35411	0.05374
1611.06834	0.05304
1609.78257	0.05261
1608.49680	0.05238
1607.21103	0.05218
1605.92526	0.05196
1604.63950	0.05174
1603.35373	0.05156
1602.06796	0.05146
1600.78219	0.05144
1599.49642	0.05145
1598.21065	0.05144
1596.92488	0.05139
1595.63911	0.05133
1594.35335	0.05132
1593.06758	0.05135
1591.78181	0.05141
1590.49604	0.05146
1589.21027	0.05155
1587.92450	0.05172
1586.63873	0.05197
1585.35296	0.05227
1584.06719	0.05259
1582.78143	0.05293
1581.49566	0.05343
1580.20989	0.05407
1578.92412	0.05450
1577.63835	0.05446
1576.35258	0.05451
1575.06681	0.05531
1573.78104	0.05644
1572.49528	0.05702
1571.20951	0.05698
1569.92374	0.05697
1568.63797	0.05741
1567.35220	0.05796
1566.06643	0.05831
1564.78066	0.05880
1563.49489	0.05970
1562.20912	0.06044
1560.92336	0.06048
1559.63759	0.06036
1558.35182	0.06101
1557.06605	0.06207
1555.78028	0.06246
1554.49451	0.06212
1553.20874	0.06181
1551.92297	0.06174
1550.63721	0.06168
1549.35144	0.06168
1548.06567	0.06182
1546.77990	0.06199
1545.49413	0.06219
1544.20836	0.06251
1542.92259	0.06272
1541.63682	0.06243
1540.35105	0.06187
1539.06529	0.06176
1537.77952	0.06216
1536.49375	0.06225
1535.20798	0.06162
1533.92221	0.06092
1532.63644	0.06086
1531.35067	0.06125
1530.06490	0.06153
1528.77914	0.06161
1527.49337	0.06181
1526.20760	0.06240
1524.92183	0.06328
1523.63606	0.06397
1522.35029	0.06437
1521.06452	0.06502
1519.77875	0.06606
1518.49298	0.06691
1517.20722	0.06739
1515.92145	0.06794
1514.63568	0.06877
1513.34991	0.06975
1512.06414	0.07096
1510.77837	0.07247
1509.49260	0.07384
1508.20683	0.07470
1506.92107	0.07545
1505.63530	0.07679
1504.34953	0.07848
1503.06376	0.07970
1501.77799	0.08032
1500.49222	0.08084
1499.20645	0.08149
1497.92068	0.08213
1496.63491	0.08282
1495.34915	0.08374
1494.06338	0.08475
1492.77761	0.08543
1491.49184	0.08581
1490.20607	0.08631
1488.92030	0.08707
1487.63453	0.08793
1486.34876	0.08881
1485.06299	0.08976
1483.77723	0.09076
1482.49146	0.09186
1481.20569	0.09312
1479.91992	0.09454
1478.63415	0.09599
1477.34838	0.09739
1476.06261	0.09874
1474.77684	0.09989
1473.49108	0.10085
1472.20531	0.10189
1470.91954	0.10313
1469.63377	0.10426
1468.34800	0.10499
1467.06223	0.10536
1465.77646	0.10567
1464.49069	0.10623
1463.20492	0.10710
1461.91916	0.10812
1460.63339	0.10903
1459.34762	0.10957
1458.06185	0.10984
1456.77608	0.11045
1455.49031	0.11159
1454.20454	0.11258
1452.91877	0.11295
1451.63301	0.11300
1450.34724	0.11309
1449.06147	0.11320
1447.77570	0.11326
1446.48993	0.11326
1445.20416	0.11312
1443.91839	0.11282
1442.63262	0.11251
1441.34685	0.11235
1440.06109	0.11222
1438.77532	0.11184
1437.48955	0.11138
1436.20378	0.11135
1434.91801	0.11183
1433.63224	0.11232
1432.34647	0.11258
1431.06070	0.11292
1429.77494	0.11367
1428.48917	0.11481
1427.20340	0.11610
1425.91763	0.11738
1424.63186	0.11876
1423.34609	0.12036
1422.06032	0.12190
1420.77455	0.12307
1419.48878	0.12412
1418.20302	0.12535
1416.91725	0.12654
1415.63148	0.12726
1414.34571	0.12757
1413.05994	0.12773
1411.77417	0.12786
1410.48840	0.12793
1409.20263	0.12785
1407.91687	0.12752
1406.63110	0.12688
1405.34533	0.12603
1404.05956	0.12511
1402.77379	0.12409
1401.48802	0.12279
1400.20225	0.12124
1398.91648	0.11961
1397.63071	0.11796
1396.34495	0.11608
1395.05918	0.11399
1393.77341	0.11195
1392.48764	0.11000
1391.20187	0.10796
1389.91610	0.10576
1388.63033	0.10352
1387.34456	0.10148
1386.05880	0.09968
1384.77303	0.09793
1383.48726	0.09608
1382.20149	0.09422
1380.91572	0.09241
1379.62995	0.09066
1378.34418	0.08887
1377.05841	0.08697
1375.77264	0.08484
1374.48688	0.08255
1373.20111	0.08021
1371.91534	0.07789
1370.62957	0.07555
1369.34380	0.07331
1368.05803	0.07130
1366.77226	0.06950
1365.48649	0.06771
1364.20073	0.06582
1362.91496	0.06393
1361.62919	0.06220
1360.34342	0.06065
1359.05765	0.05922
1357.77188	0.05786
1356.48611	0.05658
1355.20034	0.05542
1353.91457	0.05437
1352.62881	0.05341
1351.34304	0.05250
1350.05727	0.05163
1348.77150	0.05080
1347.48573	0.05000
1346.19996	0.04923
1344.91419	0.04853
1343.62842	0.04791
1342.34266	0.04733
1341.05689	0.04677
1339.77112	0.04623
1338.48535	0.04576
1337.19958	0.04533
1335.91381	0.04490
1334.62804	0.04446
1333.34227	0.04401
1332.05650	0.04356
1330.77074	0.04310
1329.48497	0.04261
1328.19920	0.04211
1326.91343	0.04160
1325.62766	0.04115
1324.34189	0.04074
1323.05612	0.04036
1321.77035	0.03997
1320.48459	0.03959
1319.19882	0.03922
1317.91305	0.03888
1316.62728	0.03857
1315.34151	0.03826
1314.05574	0.03796
1312.76997	0.03768
1311.48420	0.03743
1310.19843	0.03717
1308.91267	0.03690
1307.62690	0.03663
1306.34113	0.03636
1305.05536	0.03609
1303.76959	0.03581
1302.48382	0.03552
1301.19805	0.03526
1299.91228	0.03501
1298.62652	0.03478
1297.34075	0.03453
1296.05498	0.03426
1294.76921	0.03399
1293.48344	0.03372
1292.19767	0.03352
1290.91190	0.03341
1289.62613	0.03335
1288.34036	0.03331
1287.05460	0.03324
1285.76883	0.03313
1284.48306	0.03300
1283.19729	0.03286
1281.91152	0.03274
1280.62575	0.03259
1279.33998	0.03242
1278.05421	0.03223
1276.76845	0.03202
1275.48268	0.03180
1274.19691	0.03160
1272.91114	0.03145
1271.62537	0.03137
1270.33960	0.03132
1269.05383	0.03127
1267.76806	0.03117
1266.48229	0.03104
1265.19653	0.03093
1263.91076	0.03085
1262.62499	0.03080
1261.33922	0.03073
1260.05345	0.03063
1258.76768	0.03052
1257.48191	0.03043
1256.19614	0.03039
1254.91037	0.03042
1253.62461	0.03049
1252.33884	0.03056
1251.05307	0.03060
1249.76730	0.03060
1248.48153	0.03056
1247.19576	0.03047
1245.90999	0.03035
1244.62422	0.03021
1243.33846	0.03009
1242.05269	0.03003
1240.76692	0.03001
1239.48115	0.02997
1238.19538	0.02989
1236.90961	0.02977
1235.62384	0.02964
1234.33807	0.02953
1233.05230	0.02944
1231.76654	0.02935
1230.48077	0.02925
1229.19500	0.02914
1227.90923	0.02902
1226.62346	0.02890
1225.33769	0.02876
1224.05192	0.02860
1222.76615	0.02842
1221.48039	0.02823
1220.19462	0.02803
1218.90885	0.02783
1217.62308	0.02766
1216.33731	0.02757
1215.05154	0.02758
1213.76577	0.02764
1212.48000	0.02769
1211.19423	0.02772
1209.90847	0.02773
1208.62270	0.02774
1207.33693	0.02776
1206.05116	0.02781
1204.76539	0.02787
1203.47962	0.02791
1202.19385	0.02794
1200.90808	0.02788
1199.62232	0.02773
1198.33655	0.02765
1197.05078	0.02758
1195.76501	0.02752
1194.47924	0.02746
1193.19347	0.02740
1191.90770	0.02735
1190.62193	0.02730
1189.33616	0.02725
1188.05040	0.02722
1186.76463	0.02721
1185.47886	0.02722
1184.19309	0.02722
1182.90732	0.02721
1181.62155	0.02717
1180.33578	0.02713
1179.05001	0.02714
1177.76425	0.02725
1176.47848	0.02742
1175.19271	0.02759
1173.90694	0.02773
1172.62117	0.02785
1171.33540	0.02797
1170.04963	0.02810
1168.76386	0.02824
1167.47809	0.02841
1166.19233	0.02862
1164.90656	0.02887
1163.62079	0.02911
1162.33502	0.02932
1161.04925	0.02947
1159.76348	0.02958
1158.47771	0.02967
1157.19194	0.02977
1155.90618	0.02990
1154.62041	0.03005
1153.33464	0.03024
1152.04887	0.03048
1150.76310	0.03077
1149.47733	0.03110
1148.19156	0.03147
1146.90579	0.03186
1145.62002	0.03230
1144.33426	0.03281
1143.04849	0.03342
1141.76272	0.03413
1140.47695	0.03493
1139.19118	0.03581
1137.90541	0.03678
1136.61964	0.03788
1135.33387	0.03913
1134.04811	0.04053
1132.76234	0.04210
1131.47657	0.04387
1130.19080	0.04587
1128.90503	0.04806
1127.61926	0.05043
1126.33349	0.05301
1125.04772	0.05583
1123.76195	0.05886
1122.47619	0.06206
1121.19042	0.06537
1119.90465	0.06876
1118.61888	0.07219
1117.33311	0.07564
1116.04734	0.07905
1114.76157	0.08243
1113.47580	0.08577
1112.19004	0.08907
1110.90427	0.09230
1109.61850	0.09544
1108.33273	0.09847
1107.04696	0.10139
1105.76119	0.10415
1104.47542	0.10676
1103.18965	0.10925
1101.90388	0.11171
1100.61812	0.11419
1099.33235	0.11666
1098.04658	0.11907
1096.76081	0.12137
1095.47504	0.12355
1094.18927	0.12556
1092.90350	0.12737
1091.61773	0.12901
1090.33197	0.13055
1089.04620	0.13205
1087.76043	0.13349
1086.47466	0.13491
1085.18889	0.13641
1083.90312	0.13802
1082.61735	0.13972
1081.33158	0.14150
1080.04581	0.14338
1078.76005	0.14537
1077.47428	0.14746
1076.18851	0.14966
1074.90274	0.15201
1073.61697	0.15456
1072.33120	0.15728
1071.04543	0.16010
1069.75966	0.16295
1068.47390	0.16580
1067.18813	0.16869
1065.90236	0.17165
1064.61659	0.17471
1063.33082	0.17788
1062.04505	0.18106
1060.75928	0.18423
1059.47351	0.18736
1058.18774	0.19049
1056.90198	0.19364
1055.61621	0.19682
1054.33044	0.19998
1053.04467	0.20309
1051.75890	0.20613
1050.47313	0.20914
1049.18736	0.21221
1047.90159	0.21542
1046.61583	0.21880
1045.33006	0.22228
1044.04429	0.22580
1042.75852	0.22933
1041.47275	0.23288
1040.18698	0.23649
1038.90121	0.24017
1037.61544	0.24386
1036.32967	0.24754
1035.04391	0.25119
1033.75814	0.25477
1032.47237	0.25820
1031.18660	0.26141
1029.90083	0.26433
1028.61506	0.26691
1027.32929	0.26919
1026.04352	0.27123
1024.75775	0.27308
1023.47199	0.27472
1022.18622	0.27604
1020.90045	0.27691
1019.61468	0.27725
1018.32891	0.27708
1017.04314	0.27645
1015.75737	0.27541
1014.47160	0.27400
1013.18584	0.27220
1011.90007	0.26997
1010.61430	0.26730
1009.32853	0.26421
1008.04276	0.26069
1006.75699	0.25670
1005.47122	0.25224
1004.18545	0.24737
1002.89968	0.24222
1001.61392	0.23691
1000.32815	0.23148
999.04238	0.22595
997.75661	0.22026
996.47084	0.21434
995.18507	0.20819
993.89930	0.20194
992.61353	0.19576
991.32777	0.18980
990.04200	0.18409
988.75623	0.17861
987.47046	0.17327
986.18469	0.16803
984.89892	0.16291
983.61315	0.15797
982.32738	0.15327
981.04161	0.14890
979.75585	0.14486
978.47008	0.14112
977.18431	0.13758
975.89854	0.13422
974.61277	0.13110
973.32700	0.12836
972.04123	0.12608
970.75546	0.12435
969.46970	0.12322
968.18393	0.12276
966.89816	0.12292
965.61239	0.12351
964.32662	0.12428
963.04085	0.12495
961.75508	0.12527
960.46931	0.12509
959.18354	0.12431
957.89778	0.12291
956.61201	0.12096
955.32624	0.11860
954.04047	0.11605
952.75470	0.11351
951.46893	0.11106
950.18316	0.10868
948.89739	0.10634
947.61163	0.10405
946.32586	0.10182
945.04009	0.09962
943.75432	0.09739
942.46855	0.09511
941.18278	0.09288
939.89701	0.09084
938.61124	0.08906
937.32547	0.08750
936.03971	0.08605
934.75394	0.08462
933.46817	0.08321
932.18240	0.08182
930.89663	0.08046
929.61086	0.07915
928.32509	0.07792
927.03932	0.07677
925.75356	0.07566
924.46779	0.07459
923.18202	0.07356
921.89625	0.07260
920.61048	0.07172
919.32471	0.07093
918.03894	0.07022
916.75317	0.06954
915.46740	0.06882
914.18164	0.06803
912.89587	0.06718
911.61010	0.06635
910.32433	0.06560
909.03856	0.06495
907.75279	0.06433
906.46702	0.06369
905.18125	0.06302
903.89549	0.06236
902.60972	0.06168
901.32395	0.06098
900.03818	0.06028
898.75241	0.05967
897.46664	0.05916
896.18087	0.05872
894.89510	0.05828
893.60933	0.05780
892.32357	0.05738
891.03780	0.05710
889.75203	0.05706
888.46626	0.05729
887.18049	0.05782
885.89472	0.05871
884.60895	0.06014
883.32318	0.06225
882.03742	0.06498
880.75165	0.06795
879.46588	0.07065
878.18011	0.07279
876.89434	0.07459
875.60857	0.07647
874.32280	0.07854
873.03703	0.08039
871.75126	0.08144
870.46550	0.08145
869.17973	0.08053
867.89396	0.07892
866.60819	0.07676
865.32242	0.07418
864.03665	0.07143
862.75088	0.06879
861.46511	0.06641
860.17935	0.06434
858.89358	0.06254
857.60781	0.06096
856.32204	0.05959
855.03627	0.05841
853.75050	0.05742
852.46473	0.05659
851.17896	0.05587
849.89319	0.05525
848.60743	0.05471
847.32166	0.05423
846.03589	0.05375
844.75012	0.05327
843.46435	0.05280
842.17858	0.05237
840.89281	0.05193
839.60704	0.05148
838.32128	0.05103
837.03551	0.05061
835.74974	0.05019
834.46397	0.04976
833.17820	0.04936
831.89243	0.04905
830.60666	0.04884
829.32089	0.04867
828.03512	0.04846
826.74936	0.04825
825.46359	0.04806
824.17782	0.04788
822.89205	0.04767
821.60628	0.04748
820.32051	0.04738
819.03474	0.04740
817.74897	0.04741
816.46321	0.04733
815.17744	0.04716
813.89167	0.04699
812.60590	0.04688
811.32013	0.04681
810.03436	0.04674
808.74859	0.04668
807.46282	0.04669
806.17705	0.04679
804.89129	0.04697
803.60552	0.04716
802.31975	0.04732
801.03398	0.04738
799.74821	0.04735
798.46244	0.04722
797.17667	0.04704
795.89090	0.04686
794.60513	0.04676
793.31937	0.04675
792.03360	0.04676
790.74783	0.04670
789.46206	0.04656
788.17629	0.04639
786.89052	0.04624
785.60475	0.04613
784.31898	0.04606
783.03322	0.04604
781.74745	0.04605
780.46168	0.04599
779.17591	0.04580
777.89014	0.04551
776.60437	0.04524
775.31860	0.04511
774.03283	0.04512
772.74706	0.04519
771.46130	0.04525
770.17553	0.04526
768.88976	0.04521
767.60399	0.04508
766.31822	0.04486
765.03245	0.04463
763.74668	0.04452
762.46091	0.04457
761.17515	0.04471
759.88938	0.04486
758.60361	0.04495
757.31784	0.04497
756.03207	0.04492
754.74630	0.04483
753.46053	0.04474
752.17476	0.04466
750.88899	0.04460
749.60323	0.04453
748.31746	0.04443
747.03169	0.04431
745.74592	0.04418
744.46015	0.04405
743.17438	0.04395
741.88861	0.04387
740.60284	0.04377
739.31708	0.04360
738.03131	0.04340
736.74554	0.04327
735.45977	0.04325
734.17400	0.04326
732.88823	0.04320
731.60246	0.04311
730.31669	0.04305
729.03092	0.04306
727.74516	0.04312
726.45939	0.04321
725.17362	0.04328
723.88785	0.04322
722.60208	0.04329
721.31631	0.04344
720.03054	0.04357
718.74477	0.04369
717.45901	0.04370
716.17324	0.04362
714.88747	0.04346
713.60170	0.04324
712.31593	0.04300
711.03016	0.04276
709.74439	0.04256
708.45862	0.04240
707.17285	0.04227
705.88709	0.04216
704.60132	0.04206
703.31555	0.04200
702.02978	0.04199
700.74401	0.04202
699.45824	0.04209
698.17247	0.04215
696.88670	0.04219
695.60094	0.04222
694.31517	0.04224
693.02940	0.04226
691.74363	0.04225
690.45786	0.04219
689.17209	0.04210
687.88632	0.04197
686.60055	0.04182
685.31478	0.04165
684.02902	0.04146
682.74325	0.04126
681.45748	0.04108
680.17171	0.04092
678.88594	0.04078
677.60017	0.04066
676.31440	0.04056
675.02863	0.04051
673.74287	0.04069
672.45710	0.04130
671.17133	0.04213
669.88556	0.04220
668.59979	0.04117
667.31402	0.04101
666.02825	0.04164
664.74248	0.04128
663.45671	0.04037
662.17095	0.03970
660.88518	0.03937
659.59941	0.03919
658.31364	0.03904
657.02787	0.03889
655.74210	0.03875
654.45633	0.03866
653.17056	0.03861
651.88480	0.03858
650.59903	0.03856
649.31326	0.03853
648.02749	0.03849
646.74172	0.03844
645.45595	0.03836
644.17018	0.03828
642.88441	0.03822
641.59864	0.03820
640.31288	0.03822
639.02711	0.03828
637.74134	0.03836
636.45557	0.03842
635.16980	0.03847
633.88403	0.03852
632.59826	0.03867
631.31249	0.03909
630.02673	0.03989
628.74096	0.04053
627.45519	0.04023
626.16942	0.04120
624.88365	0.04283
623.59788	0.04445
622.31211	0.04643
621.02634	0.04914
619.74057	0.05211
618.45481	0.05474
617.16904	0.05729
615.88327	0.06058
614.59750	0.06504
613.31173	0.07035
612.02596	0.07577
610.74019	0.08050
609.45442	0.08441
608.16866	0.08825
606.88289	0.09279
605.59712	0.09774
604.31135	0.10199
603.02558	0.10473
601.73981	0.10589
600.45404	0.10570
599.16827	0.10426
597.88250	0.10181
596.59674	0.09888
595.31097	0.09601
594.02520	0.09352
592.73943	0.09145
591.45366	0.08977
590.16789	0.08854
588.88212	0.08789
587.59635	0.08792
586.31059	0.08861
585.02482	0.08986
583.73905	0.09156
582.45328	0.09361
581.16751	0.09592
579.88174	0.09833
578.59597	0.10071
577.31020	0.10300
576.02443	0.10522
574.73867	0.10740
573.45290	0.10951
572.16713	0.11161
570.88136	0.11386
569.59559	0.11653
568.30982	0.11983
567.02405	0.12367
565.73828	0.12772
564.45251	0.13143
563.16675	0.13417
561.88098	0.13548
560.59521	0.13516
559.30944	0.13326
558.02367	0.13008
556.73790	0.12596
555.45213	0.12121
554.16636	0.11607
552.88060	0.11084
551.59483	0.10576
550.30906	0.10097
549.02329	0.09657
547.73752	0.09265
546.45175	0.08928
545.16598	0.08634
543.88021	0.08361
542.59444	0.08095
541.30868	0.07845
540.02291	0.07629
538.73714	0.07450
537.45137	0.07296
536.16560	0.07150
534.87983	0.07004
533.59406	0.06861
532.30829	0.06723
531.02253	0.06587
529.73676	0.06455
528.45099	0.06330
527.16522	0.06218
525.87945	0.06124
524.59368	0.06040
523.30791	0.05956
522.02214	0.05864
520.73637	0.05766
519.45061	0.05672
518.16484	0.05587
516.87907	0.05513
515.59330	0.05446
514.30753	0.05385
513.02176	0.05331
511.73599	0.05282
510.45022	0.05231
509.16446	0.05177
507.87869	0.05121
506.59292	0.05064
505.30715	0.05002
504.02138	0.04929
502.73561	0.04848
501.44984	0.04768
500.16407	0.04698
498.87830	0.04642
497.59254	0.04600
496.30677	0.04564
495.02100	0.04529
493.73523	0.04499
492.44946	0.04478
491.16369	0.04462
489.87792	0.04443
488.59215	0.04414
487.30639	0.04380
486.02062	0.04352
484.73485	0.04342
483.44908	0.04351
482.16331	0.04378
480.87754	0.04412
479.59177	0.04448
478.30600	0.04481
477.02023	0.04516
475.73447	0.04557
474.44870	0.04599
473.16293	0.04637
471.87716	0.04664
470.59139	0.04678
469.30562	0.04680
468.01985	0.04673
466.73408	0.04655
465.44832	0.04618
464.16255	0.04562
462.87678	0.04502
461.59101	0.04449
460.30524	0.04404
459.01947	0.04364
457.73370	0.04328
456.44793	0.04294
455.16216	0.04254
453.87640	0.04202
452.59063	0.04144
451.30486	0.04089
450.01909	0.04037
448.73332	0.03986
447.44755	0.03934
446.16178	0.03882
444.87601	0.03833
443.59025	0.03792
442.30448	0.03762
441.01871	0.03741
439.73294	0.03717
438.44717	0.03687
437.16140	0.03656
435.87563	0.03635
434.58986	0.03621
433.30409	0.03608
432.01833	0.03592
430.73256	0.03575
429.44679	0.03559
428.16102	0.03540
426.87525	0.03515
425.58948	0.03486
424.30371	0.03461
423.01794	0.03441
421.73218	0.03413
420.44641	0.03369
419.16064	0.03323
417.87487	0.03292
416.58910	0.03269
415.30333	0.03236
414.01756	0.03193
412.73179	0.03150
411.44602	0.03113
410.16026	0.03084
408.87449	0.03061
407.58872	0.03040
406.30295	0.03021
405.01718	0.03008
403.73141	0.03005
402.44564	0.03012
401.15987	0.03024
399.87411	0.03036
