3997.45528	0.03503
3996.16951	0.03495
3994.88374	0.03462
3993.59798	0.03417
3992.31221	0.03374
3991.02644	0.03329
3989.74067	0.03269
3988.45490	0.03208
3987.16913	0.03181
3985.88336	0.03213
3984.59759	0.03281
3983.31183	0.03334
3982.02606	0.03335
3980.74029	0.03290
3979.45452	0.03239
3978.16875	0.03205
3976.88298	0.03171
3975.59721	0.03117
3974.31144	0.03055
3973.02567	0.03034
3971.73991	0.03085
3970.45414	0.03184
3969.16837	0.03273
3967.88260	0.03308
3966.59683	0.03284
3965.31106	0.03229
3964.02529	0.03177
3962.73952	0.03146
3961.45376	0.03137
3960.16799	0.03133
3958.88222	0.03110
3957.59645	0.03066
3956.31068	0.03020
3955.02491	0.02989
3953.73914	0.02980
3952.45337	0.02991
3951.16760	0.03017
3949.88184	0.03059
3948.59607	0.03112
3947.31030	0.03164
3946.02453	0.03195
3944.73876	0.03179
3943.45299	0.03113
3942.16722	0.03027
3940.88145	0.02962
3939.59569	0.02941
3938.30992	0.02969
3937.02415	0.03030
3935.73838	0.03093
3934.45261	0.03127
3933.16684	0.03122
3931.88107	0.03103
3930.59530	0.03099
3929.30953	0.03123
3928.02377	0.03166
3926.73800	0.03202
3925.45223	0.03203
3924.16646	0.03164
3922.88069	0.03110
3921.59492	0.03086
3920.30915	0.03106
3919.02338	0.03143
3917.73762	0.03158
3916.45185	0.03142
3915.16608	0.03115
3913.88031	0.03087
3912.59454	0.03052
3911.30877	0.03005
3910.02300	0.02957
3908.73723	0.02933
3907.45146	0.02944
3906.16570	0.02982
3904.87993	0.03021
3903.59416	0.03040
3902.30839	0.03035
3901.02262	0.03012
3899.73685	0.02980
3898.45108	0.02935
3897.16531	0.02872
3895.87955	0.02801
3894.59378	0.02756
3893.30801	0.02762
3892.02224	0.02808
3890.73647	0.02867
3889.45070	0.02916
3888.16493	0.02951
3886.87916	0.02977
3885.59339	0.03004
3884.30763	0.03026
3883.02186	0.03031
3881.73609	0.03013
3880.45032	0.02981
3879.16455	0.02941
3877.87878	0.02904
3876.59301	0.02889
3875.30724	0.02908
3874.02148	0.02938
3872.73571	0.02933
3871.44994	0.02885
3870.16417	0.02847
3868.87840	0.02874
3867.59263	0.02957
3866.30686	0.03040
3865.02109	0.03091
3863.73532	0.03109
3862.44956	0.03108
3861.16379	0.03095
3859.87802	0.03065
3858.59225	0.03009
3857.30648	0.02943
3856.02071	0.02903
3854.73494	0.02925
3853.44917	0.02990
3852.16341	0.03033
3850.87764	0.03009
3849.59187	0.02951
3848.30610	0.02918
3847.02033	0.02924
3845.73456	0.02936
3844.44879	0.02926
3843.16302	0.02902
3841.87725	0.02881
3840.59149	0.02860
3839.30572	0.02834
3838.01995	0.02817
3836.73418	0.02827
3835.44841	0.02847
3834.16264	0.02850
3832.87687	0.02826
3831.59110	0.02798
3830.30534	0.02793
3829.01957	0.02825
3827.73380	0.02886
3826.44803	0.02956
3825.16226	0.03006
3823.87649	0.03011
3822.59072	0.02973
3821.30495	0.02937
3820.01918	0.02938
3818.73342	0.02960
3817.44765	0.02966
3816.16188	0.02947
3814.87611	0.02916
3813.59034	0.02882
3812.30457	0.02857
3811.01880	0.02853
3809.73303	0.02857
3808.44726	0.02839
3807.16150	0.02799
3805.87573	0.02757
3804.58996	0.02716
3803.30419	0.02662
3802.01842	0.02617
3800.73265	0.02616
3799.44688	0.02663
3798.16111	0.02730
3796.87535	0.02795
3795.58958	0.02851
3794.30381	0.02890
3793.01804	0.02911
3791.73227	0.02924
3790.44650	0.02936
3789.16073	0.02946
3787.87496	0.02944
3786.58919	0.02915
3785.30343	0.02856
3784.01766	0.02791
3782.73189	0.02758
3781.44612	0.02773
3780.16035	0.02810
3778.87458	0.02824
3777.58881	0.02792
3776.30304	0.02733
3775.01728	0.02687
3773.73151	0.02678
3772.44574	0.02693
3771.15997	0.02709
3769.87420	0.02722
3768.58843	0.02734
3767.30266	0.02742
3766.01689	0.02750
3764.73112	0.02766
3763.44536	0.02782
3762.15959	0.02783
3760.87382	0.02764
3759.58805	0.02739
3758.30228	0.02719
3757.01651	0.02697
3755.73074	0.02665
3754.44497	0.02625
3753.15921	0.02606
3751.87344	0.02649
3750.58767	0.02761
3749.30190	0.02902
3748.01613	0.03009
3746.73036	0.03031
3745.44459	0.02980
3744.15882	0.02909
3742.87305	0.02847
3741.58729	0.02785
3740.30152	0.02728
3739.01575	0.02695
3737.72998	0.02681
3736.44421	0.02680
3735.15844	0.02690
3733.87267	0.02700
3732.58690	0.02692
3731.30114	0.02664
3730.01537	0.02626
3728.72960	0.02598
3727.44383	0.02598
3726.15806	0.02627
3724.87229	0.02661
3723.58652	0.02676
3722.30075	0.02678
3721.01498	0.02688
3719.72922	0.02713
3718.44345	0.02732
3717.15768	0.02728
3715.87191	0.02705
3714.58614	0.02672
3713.30037	0.02622
3712.01460	0.02539
3710.72883	0.02430
3709.44307	0.02335
3708.15730	0.02306
3706.87153	0.02363
3705.58576	0.02474
3704.29999	0.02584
3703.01422	0.02657
3701.72845	0.02698
3700.44268	0.02734
3699.15691	0.02779
3697.87115	0.02812
3696.58538	0.02803
3695.29961	0.02751
3694.01384	0.02695
3692.72807	0.02670
3691.44230	0.02666
3690.15653	0.02638
3688.87076	0.02566
3687.58500	0.02484
3686.29923	0.02437
3685.01346	0.02428
3683.72769	0.02431
3682.44192	0.02422
3681.15615	0.02392
3679.87038	0.02352
3678.58461	0.02322
3677.29884	0.02327
3676.01308	0.02398
3674.72731	0.02542
3673.44154	0.02709
3672.15577	0.02824
3670.87000	0.02848
3669.58423	0.02791
3668.29846	0.02682
3667.01269	0.02549
3665.72693	0.02426
3664.44116	0.02346
3663.15539	0.02339
3661.86962	0.02415
3660.58385	0.02541
3659.29808	0.02644
3658.01231	0.02666
3656.72654	0.02624
3655.44077	0.02591
3654.15501	0.02617
3652.86924	0.02680
3651.58347	0.02733
3650.29770	0.02753
3649.01193	0.02745
3647.72616	0.02729
3646.44039	0.02725
3645.15462	0.02750
3643.86886	0.02799
3642.58309	0.02842
3641.29732	0.02859
3640.01155	0.02861
3638.72578	0.02871
3637.44001	0.02886
3636.15424	0.02870
3634.86847	0.02807
3633.58270	0.02724
3632.29694	0.02660
3631.01117	0.02630
3629.72540	0.02634
3628.43963	0.02664
3627.15386	0.02693
3625.86809	0.02687
3624.58232	0.02645
3623.29655	0.02615
3622.01079	0.02644
3620.72502	0.02737
3619.43925	0.02855
3618.15348	0.02954
3616.86771	0.03005
3615.58194	0.03005
3614.29617	0.02959
3613.01040	0.02885
3611.72463	0.02820
3610.43887	0.02808
3609.15310	0.02862
3607.86733	0.02948
3606.58156	0.02997
3605.29579	0.02968
3604.01002	0.02887
3602.72425	0.02825
3601.43848	0.02836
3600.15272	0.02923
3598.86695	0.03041
3597.58118	0.03133
3596.29541	0.03173
3595.00964	0.03172
3593.72387	0.03155
3592.43810	0.03128
3591.15233	0.03095
3589.86656	0.03081
3588.58080	0.03119
3587.29503	0.03201
3586.00926	0.03271
3584.72349	0.03279
3583.43772	0.03219
3582.15195	0.03132
3580.86618	0.03066
3579.58041	0.03040
3578.29464	0.03043
3577.00888	0.03056
3575.72311	0.03069
3574.43734	0.03081
3573.15157	0.03094
3571.86580	0.03113
3570.58003	0.03147
3569.29426	0.03192
3568.00849	0.03220
3566.72273	0.03206
3565.43696	0.03164
3564.15119	0.03137
3562.86542	0.03151
3561.57965	0.03179
3560.29388	0.03174
3559.00811	0.03119
3557.72234	0.03046
3556.43657	0.03001
3555.15081	0.03004
3553.86504	0.03043
3552.57927	0.03090
3551.29350	0.03124
3550.00773	0.03144
3548.72196	0.03164
3547.43619	0.03201
3546.15042	0.03253
3544.86466	0.03299
3543.57889	0.03329
3542.29312	0.03354
3541.00735	0.03387
3539.72158	0.03421
3538.43581	0.03431
3537.15004	0.03401
3535.86427	0.03341
3534.57850	0.03276
3533.29274	0.03231
3532.00697	0.03216
3530.72120	0.03225
3529.43543	0.03237
3528.14966	0.03238
3526.86389	0.03233
3525.57812	0.03237
3524.29235	0.03256
3523.00659	0.03280
3521.72082	0.03290
3520.43505	0.03272
3519.14928	0.03239
3517.86351	0.03226
3516.57774	0.03252
3515.29197	0.03303
3514.00620	0.03344
3512.72043	0.03353
3511.43467	0.03335
3510.14890	0.03300
3508.86313	0.03271
3507.57736	0.03273
3506.29159	0.03328
3505.00582	0.03422
3503.72005	0.03514
3502.43428	0.03565
3501.14852	0.03559
3499.86275	0.03510
3498.57698	0.03449
3497.29121	0.03405
3496.00544	0.03388
3494.71967	0.03390
3493.43390	0.03403
3492.14813	0.03432
3490.86236	0.03481
3489.57660	0.03532
3488.29083	0.03549
3487.00506	0.03513
3485.71929	0.03444
3484.43352	0.03384
3483.14775	0.03357
3481.86198	0.03354
3480.57621	0.03357
3479.29045	0.03354
3478.00468	0.03353
3476.71891	0.03369
3475.43314	0.03410
3474.14737	0.03476
3472.86160	0.03556
3471.57583	0.03635
3470.29006	0.03695
3469.00429	0.03723
3467.71853	0.03721
3466.43276	0.03699
3465.14699	0.03674
3463.86122	0.03655
3462.57545	0.03655
3461.28968	0.03684
3460.00391	0.03736
3458.71814	0.03780
3457.43238	0.03785
3456.14661	0.03756
3454.86084	0.03720
3453.57507	0.03693
3452.28930	0.03667
3451.00353	0.03635
3449.71776	0.03611
3448.43199	0.03613
3447.14622	0.03637
3445.86046	0.03670
3444.57469	0.03701
3443.28892	0.03728
3442.00315	0.03751
3440.71738	0.03771
3439.43161	0.03786
3438.14584	0.03792
3436.86007	0.03780
3435.57431	0.03755
3434.28854	0.03733
3433.00277	0.03734
3431.71700	0.03758
3430.43123	0.03795
3429.14546	0.03833
3427.85969	0.03865
3426.57392	0.03883
3425.28815	0.03887
3424.00239	0.03886
3422.71662	0.03881
3421.43085	0.03866
3420.14508	0.03846
3418.85931	0.03838
3417.57354	0.03852
3416.28777	0.03870
3415.00200	0.03870
3413.71624	0.03845
3412.43047	0.03799
3411.14470	0.03741
3409.85893	0.03692
3408.57316	0.03681
3407.28739	0.03718
3406.00162	0.03782
3404.71585	0.03842
3403.43008	0.03882
3402.14432	0.03902
3400.85855	0.03906
3399.57278	0.03900
3398.28701	0.03885
3397.00124	0.03863
3395.71547	0.03839
3394.42970	0.03823
3393.14393	0.03828
3391.85817	0.03855
3390.57240	0.03881
3389.28663	0.03877
3388.00086	0.03838
3386.71509	0.03785
3385.42932	0.03746
3384.14355	0.03731
3382.85778	0.03737
3381.57201	0.03759
3380.28625	0.03793
3379.00048	0.03830
3377.71471	0.03859
3376.42894	0.03878
3375.14317	0.03891
3373.85740	0.03896
3372.57163	0.03885
3371.28586	0.03859
3370.00010	0.03838
3368.71433	0.03849
3367.42856	0.03900
3366.14279	0.03968
3364.85702	0.04007
3363.57125	0.03993
3362.28548	0.03942
3360.99971	0.03895
3359.71394	0.03885
3358.42818	0.03915
3357.14241	0.03960
3355.85664	0.03996
3354.57087	0.04001
3353.28510	0.03967
3351.99933	0.03906
3350.71356	0.03844
3349.42779	0.03805
3348.14202	0.03790
3346.85626	0.03784
3345.57049	0.03776
3344.28472	0.03774
3342.99895	0.03795
3341.71318	0.03844
3340.42741	0.03908
3339.14164	0.03965
3337.85587	0.03991
3336.57011	0.03971
3335.28434	0.03903
3333.99857	0.03815
3332.71280	0.03760
3331.42703	0.03773
3330.14126	0.03849
3328.85549	0.03948
3327.56972	0.04028
3326.28395	0.04077
3324.99819	0.04093
3323.71242	0.04081
3322.42665	0.04046
3321.14088	0.03998
3319.85511	0.03949
3318.56934	0.03907
3317.28357	0.03878
3315.99780	0.03873
3314.71204	0.03894
3313.42627	0.03928
3312.14050	0.03957
3310.85473	0.03963
3309.56896	0.03945
3308.28319	0.03913
3306.99742	0.03878
3305.71165	0.03844
3304.42588	0.03805
3303.14012	0.03766
3301.85435	0.03742
3300.56858	0.03744
3299.28281	0.03759
3297.99704	0.03770
3296.71127	0.03771
3295.42550	0.03771
3294.13973	0.03774
3292.85397	0.03780
3291.56820	0.03788
3290.28243	0.03806
3288.99666	0.03827
3287.71089	0.03838
3286.42512	0.03834
3285.13935	0.03831
3283.85358	0.03849
3282.56781	0.03888
3281.28205	0.03927
3279.99628	0.03946
3278.71051	0.03936
3277.42474	0.03900
3276.13897	0.03845
3274.85320	0.03783
3273.56743	0.03718
3272.28166	0.03652
3270.99590	0.03589
3269.71013	0.03545
3268.42436	0.03535
3267.13859	0.03564
3265.85282	0.03614
3264.56705	0.03666
3263.28128	0.03716
3261.99551	0.03770
3260.70974	0.03830
3259.42398	0.03874
3258.13821	0.03875
3256.85244	0.03827
3255.56667	0.03757
3254.28090	0.03702
3252.99513	0.03683
3251.70936	0.03689
3250.42359	0.03698
3249.13783	0.03697
3247.85206	0.03692
3246.56629	0.03697
3245.28052	0.03717
3243.99475	0.03747
3242.70898	0.03775
3241.42321	0.03792
3240.13744	0.03797
3238.85167	0.03796
3237.56591	0.03794
3236.28014	0.03791
3234.99437	0.03777
3233.70860	0.03744
3232.42283	0.03701
3231.13706	0.03668
3229.85129	0.03663
3228.56552	0.03677
3227.27976	0.03696
3225.99399	0.03714
3224.70822	0.03740
3223.42245	0.03766
3222.13668	0.03776
3220.85091	0.03757
3219.56514	0.03722
3218.27937	0.03691
3216.99360	0.03675
3215.70784	0.03674
3214.42207	0.03678
3213.13630	0.03672
3211.85053	0.03648
3210.56476	0.03618
3209.27899	0.03602
3207.99322	0.03610
3206.70745	0.03633
3205.42169	0.03654
3204.13592	0.03673
3202.85015	0.03698
3201.56438	0.03730
3200.27861	0.03752
3198.99284	0.03753
3197.70707	0.03740
3196.42130	0.03732
3195.13553	0.03728
3193.84977	0.03706
3192.56400	0.03658
3191.27823	0.03597
3189.99246	0.03556
3188.70669	0.03559
3187.42092	0.03604
3186.13515	0.03658
3184.84938	0.03677
3183.56362	0.03645
3182.27785	0.03591
3180.99208	0.03559
3179.70631	0.03572
3178.42054	0.03607
3177.13477	0.03626
3175.84900	0.03607
3174.56323	0.03559
3173.27746	0.03514
3171.99170	0.03500
3170.70593	0.03513
3169.42016	0.03534
3168.13439	0.03545
3166.84862	0.03548
3165.56285	0.03555
3164.27708	0.03570
3162.99131	0.03584
3161.70555	0.03585
3160.41978	0.03568
3159.13401	0.03541
3157.84824	0.03523
3156.56247	0.03533
3155.27670	0.03568
3153.99093	0.03604
3152.70516	0.03614
3151.41939	0.03597
3150.13363	0.03568
3148.84786	0.03537
3147.56209	0.03502
3146.27632	0.03463
3144.99055	0.03425
3143.70478	0.03396
3142.41901	0.03378
3141.13324	0.03374
3139.84748	0.03389
3138.56171	0.03411
3137.27594	0.03422
3135.99017	0.03422
3134.70440	0.03428
3133.41863	0.03455
3132.13286	0.03492
3130.84709	0.03515
3129.56132	0.03510
3128.27556	0.03479
3126.98979	0.03432
3125.70402	0.03387
3124.41825	0.03365
3123.13248	0.03374
3121.84671	0.03404
3120.56094	0.03431
3119.27517	0.03441
3117.98940	0.03432
3116.70364	0.03412
3115.41787	0.03396
3114.13210	0.03386
3112.84633	0.03377
3111.56056	0.03362
3110.27479	0.03347
3108.98902	0.03339
3107.70325	0.03339
3106.41749	0.03338
3105.13172	0.03329
3103.84595	0.03300
3102.56018	0.03252
3101.27441	0.03205
3099.98864	0.03187
3098.70287	0.03206
3097.41710	0.03238
3096.13133	0.03250
3094.84557	0.03234
3093.55980	0.03207
3092.27403	0.03180
3090.98826	0.03157
3089.70249	0.03140
3088.41672	0.03140
3087.13095	0.03168
3085.84518	0.03213
3084.55942	0.03254
3083.27365	0.03271
3081.98788	0.03266
3080.70211	0.03255
3079.41634	0.03255
3078.13057	0.03263
3076.84480	0.03261
3075.55903	0.03238
3074.27326	0.03206
3072.98750	0.03184
3071.70173	0.03183
3070.41596	0.03198
3069.13019	0.03217
3067.84442	0.03230
3066.55865	0.03220
3065.27288	0.03181
3063.98711	0.03122
3062.70135	0.03063
3061.41558	0.03026
3060.12981	0.03021
3058.84404	0.03045
3057.55827	0.03077
3056.27250	0.03094
3054.98673	0.03087
3053.70096	0.03072
3052.41519	0.03076
3051.12943	0.03109
3049.84366	0.03156
3048.55789	0.03190
3047.27212	0.03188
3045.98635	0.03150
3044.70058	0.03092
3043.41481	0.03044
3042.12904	0.03027
3040.84328	0.03040
3039.55751	0.03065
3038.27174	0.03081
3036.98597	0.03078
3035.70020	0.03053
3034.41443	0.03014
3033.12866	0.02978
3031.84289	0.02966
3030.55712	0.02986
3029.27136	0.03025
3027.98559	0.03061
3026.69982	0.03081
3025.41405	0.03088
3024.12828	0.03088
3022.84251	0.03085
3021.55674	0.03076
3020.27097	0.03055
3018.98521	0.03030
3017.69944	0.03012
3016.41367	0.03013
3015.12790	0.03030
3013.84213	0.03050
3012.55636	0.03058
3011.27059	0.03049
3009.98482	0.03022
3008.69905	0.02988
3007.41329	0.02958
3006.12752	0.02936
3004.84175	0.02918
3003.55598	0.02897
3002.27021	0.02874
3000.98444	0.02864
2999.69867	0.02886
2998.41290	0.02929
2997.12714	0.02969
2995.84137	0.02978
2994.55560	0.02956
2993.26983	0.02924
2991.98406	0.02902
2990.69829	0.02888
2989.41252	0.02874
2988.12675	0.02866
2986.84098	0.02876
2985.55522	0.02902
2984.26945	0.02929
2982.98368	0.02945
2981.69791	0.02952
2980.41214	0.02961
2979.12637	0.02978
2977.84060	0.03000
2976.55483	0.03019
2975.26907	0.03028
2973.98330	0.03026
2972.69753	0.03021
2971.41176	0.03021
2970.12599	0.03038
2968.84022	0.03080
2967.55445	0.03139
2966.26868	0.03197
2964.98291	0.03241
2963.69715	0.03269
2962.41138	0.03290
2961.12561	0.03306
2959.83984	0.03318
2958.55407	0.03323
2957.26830	0.03322
2955.98253	0.03321
2954.69676	0.03330
2953.41100	0.03351
2952.12523	0.03374
2950.83946	0.03390
2949.55369	0.03393
2948.26792	0.03387
2946.98215	0.03375
2945.69638	0.03357
2944.41061	0.03339
2943.12484	0.03331
2941.83908	0.03337
2940.55331	0.03342
2939.26754	0.03338
2937.98177	0.03332
2936.69600	0.03340
2935.41023	0.03364
2934.12446	0.03392
2932.83869	0.03415
2931.55293	0.03430
2930.26716	0.03439
2928.98139	0.03444
2927.69562	0.03449
2926.40985	0.03461
2925.12408	0.03482
2923.83831	0.03507
2922.55254	0.03521
2921.26677	0.03513
2919.98101	0.03483
2918.69524	0.03443
2917.40947	0.03407
2916.12370	0.03380
2914.83793	0.03362
2913.55216	0.03349
2912.26639	0.03337
2910.98062	0.03333
2909.69486	0.03342
2908.40909	0.03359
2907.12332	0.03362
2905.83755	0.03345
2904.55178	0.03318
2903.26601	0.03296
2901.98024	0.03269
2900.69447	0.03231
2899.40870	0.03192
2898.12294	0.03169
2896.83717	0.03164
2895.55140	0.03159
2894.26563	0.03146
2892.97986	0.03130
2891.69409	0.03122
2890.40832	0.03124
2889.12255	0.03128
2887.83678	0.03120
2886.55102	0.03093
2885.26525	0.03050
2883.97948	0.03009
2882.69371	0.02984
2881.40794	0.02976
2880.12217	0.02980
2878.83640	0.02997
2877.55063	0.03020
2876.26487	0.03035
2874.97910	0.03036
2873.69333	0.03029
2872.40756	0.03029
2871.12179	0.03040
2869.83602	0.03052
2868.55025	0.03055
2867.26448	0.03046
2865.97871	0.03035
2864.69295	0.03033
2863.40718	0.03034
2862.12141	0.03020
2860.83564	0.02987
2859.54987	0.02949
2858.26410	0.02927
2856.97833	0.02927
2855.69256	0.02937
2854.40680	0.02940
2853.12103	0.02931
2851.83526	0.02915
2850.54949	0.02901
2849.26372	0.02887
2847.97795	0.02872
2846.69218	0.02852
2845.40641	0.02827
2844.12064	0.02805
2842.83488	0.02792
2841.54911	0.02781
2840.26334	0.02757
2838.97757	0.02720
2837.69180	0.02682
2836.40603	0.02656
2835.12026	0.02643
2833.83449	0.02632
2832.54873	0.02613
2831.26296	0.02586
2829.97719	0.02557
2828.69142	0.02541
2827.40565	0.02545
2826.11988	0.02562
2824.83411	0.02580
2823.54834	0.02585
2822.26257	0.02570
2820.97681	0.02536
2819.69104	0.02498
2818.40527	0.02473
2817.11950	0.02469
2815.83373	0.02478
2814.54796	0.02482
2813.26219	0.02475
2811.97642	0.02466
2810.69066	0.02464
2809.40489	0.02466
2808.11912	0.02462
2806.83335	0.02447
2805.54758	0.02427
2804.26181	0.02412
2802.97604	0.02412
2801.69027	0.02426
2800.40450	0.02444
2799.11874	0.02444
2797.83297	0.02417
2796.54720	0.02376
2795.26143	0.02344
2793.97566	0.02332
2792.68989	0.02331
2791.40412	0.02327
2790.11835	0.02318
2788.83259	0.02308
2787.54682	0.02306
2786.26105	0.02312
2784.97528	0.02321
2783.68951	0.02326
2782.40374	0.02318
2781.11797	0.02297
2779.83220	0.02277
2778.54643	0.02272
2777.26067	0.02285
2775.97490	0.02302
2774.68913	0.02308
2773.40336	0.02302
2772.11759	0.02291
2770.83182	0.02284
2769.54605	0.02281
2768.26028	0.02279
2766.97452	0.02270
2765.68875	0.02247
2764.40298	0.02210
2763.11721	0.02174
2761.83144	0.02156
2760.54567	0.02160
2759.25990	0.02174
2757.97413	0.02179
2756.68836	0.02172
2755.40260	0.02168
2754.11683	0.02181
2752.83106	0.02211
2751.54529	0.02244
2750.25952	0.02266
2748.97375	0.02272
2747.68798	0.02260
2746.40221	0.02236
2745.11645	0.02209
2743.83068	0.02190
2742.54491	0.02180
2741.25914	0.02173
2739.97337	0.02166
2738.68760	0.02156
2737.40183	0.02145
2736.11606	0.02134
2734.83029	0.02125
2733.54453	0.02123
2732.25876	0.02130
2730.97299	0.02145
2729.68722	0.02161
2728.40145	0.02169
2727.11568	0.02166
2725.82991	0.02157
2724.54414	0.02150
2723.25838	0.02146
2721.97261	0.02142
2720.68684	0.02135
2719.40107	0.02125
2718.11530	0.02111
2716.82953	0.02095
2715.54376	0.02083
2714.25799	0.02083
2712.97222	0.02094
2711.68646	0.02110
2710.40069	0.02122
2709.11492	0.02128
2707.82915	0.02130
2706.54338	0.02129
2705.25761	0.02125
2703.97184	0.02121
2702.68607	0.02117
2701.40031	0.02111
2700.11454	0.02101
2698.82877	0.02092
2697.54300	0.02089
2696.25723	0.02095
2694.97146	0.02107
2693.68569	0.02120
2692.39992	0.02128
2691.11415	0.02128
2689.82839	0.02119
2688.54262	0.02103
2687.25685	0.02087
2685.97108	0.02072
2684.68531	0.02058
2683.39954	0.02046
2682.11377	0.02038
2680.82800	0.02038
2679.54224	0.02040
2678.25647	0.02043
2676.97070	0.02049
2675.68493	0.02060
2674.39916	0.02072
2673.11339	0.02078
2671.82762	0.02074
2670.54185	0.02062
2669.25608	0.02046
2667.97032	0.02032
2666.68455	0.02023
2665.39878	0.02016
2664.11301	0.02013
2662.82724	0.02012
2661.54147	0.02015
2660.25570	0.02019
2658.96993	0.02020
2657.68417	0.02017
2656.39840	0.02006
2655.11263	0.01985
2653.82686	0.01964
2652.54109	0.01957
2651.25532	0.01966
2649.96955	0.01978
2648.68378	0.01973
2647.39801	0.01949
2646.11225	0.01916
2644.82648	0.01893
2643.54071	0.01887
2642.25494	0.01894
2640.96917	0.01899
2639.68340	0.01889
2638.39763	0.01870
2637.11186	0.01855
2635.82609	0.01856
2634.54033	0.01865
2633.25456	0.01867
2631.96879	0.01863
2630.68302	0.01860
2629.39725	0.01864
2628.11148	0.01869
2626.82571	0.01868
2625.53994	0.01858
2624.25418	0.01843
2622.96841	0.01829
2621.68264	0.01819
2620.39687	0.01814
2619.11110	0.01813
2617.82533	0.01816
2616.53956	0.01822
2615.25379	0.01828
2613.96802	0.01826
2612.68226	0.01809
2611.39649	0.01774
2610.11072	0.01728
2608.82495	0.01687
2607.53918	0.01673
2606.25341	0.01689
2604.96764	0.01719
2603.68187	0.01735
2602.39611	0.01722
2601.11034	0.01688
2599.82457	0.01661
2598.53880	0.01658
2597.25303	0.01678
2595.96726	0.01699
2594.68149	0.01706
2593.39572	0.01697
2592.10995	0.01686
2590.82419	0.01680
2589.53842	0.01684
2588.25265	0.01692
2586.96688	0.01696
2585.68111	0.01691
2584.39534	0.01682
2583.10957	0.01681
2581.82380	0.01695
2580.53804	0.01719
2579.25227	0.01737
2577.96650	0.01738
2576.68073	0.01723
2575.39496	0.01704
2574.10919	0.01687
2572.82342	0.01672
2571.53765	0.01651
2570.25188	0.01632
2568.96612	0.01640
2567.68035	0.01687
2566.39458	0.01746
2565.10881	0.01774
2563.82304	0.01754
2562.53727	0.01706
2561.25150	0.01662
2559.96573	0.01631
2558.67997	0.01602
2557.39420	0.01568
2556.10843	0.01545
2554.82266	0.01559
2553.53689	0.01607
2552.25112	0.01654
2550.96535	0.01663
2549.67958	0.01635
2548.39381	0.01600
2547.10805	0.01587
2545.82228	0.01596
2544.53651	0.01604
2543.25074	0.01597
2541.96497	0.01578
2540.67920	0.01562
2539.39343	0.01559
2538.10766	0.01562
2536.82190	0.01567
2535.53613	0.01573
2534.25036	0.01577
2532.96459	0.01576
2531.67882	0.01569
2530.39305	0.01566
2529.10728	0.01577
2527.82151	0.01601
2526.53574	0.01615
2525.24998	0.01600
2523.96421	0.01565
2522.67844	0.01535
2521.39267	0.01525
2520.10690	0.01533
2518.82113	0.01546
2517.53536	0.01555
2516.24959	0.01556
2514.96383	0.01552
2513.67806	0.01554
2512.39229	0.01564
2511.10652	0.01568
2509.82075	0.01552
2508.53498	0.01515
2507.24921	0.01463
2505.96344	0.01408
2504.67767	0.01365
2503.39191	0.01362
2502.10614	0.01409
2500.82037	0.01485
2499.53460	0.01550
2498.24883	0.01583
2496.96306	0.01595
2495.67729	0.01600
2494.39152	0.01593
2493.10576	0.01564
2491.81999	0.01519
2490.53422	0.01475
2489.24845	0.01443
2487.96268	0.01426
2486.67691	0.01426
2485.39114	0.01444
2484.10537	0.01469
2482.81960	0.01488
2481.53384	0.01506
2480.24807	0.01532
2478.96230	0.01566
2477.67653	0.01590
2476.39076	0.01599
2475.10499	0.01600
2473.81922	0.01593
2472.53345	0.01562
2471.24769	0.01497
2469.96192	0.01417
2468.67615	0.01352
2467.39038	0.01316
2466.10461	0.01309
2464.81884	0.01327
2463.53307	0.01371
2462.24730	0.01424
2460.96153	0.01458
2459.67577	0.01453
2458.39000	0.01423
2457.10423	0.01399
2455.81846	0.01402
2454.53269	0.01430
2453.24692	0.01465
2451.96115	0.01490
2450.67538	0.01493
2449.38962	0.01482
2448.10385	0.01471
2446.81808	0.01464
2445.53231	0.01454
2444.24654	0.01438
2442.96077	0.01427
2441.67500	0.01432
2440.38923	0.01442
2439.10346	0.01440
2437.81770	0.01424
2436.53193	0.01414
2435.24616	0.01420
2433.96039	0.01431
2432.67462	0.01434
2431.38885	0.01433
2430.10308	0.01441
2428.81731	0.01467
2427.53155	0.01497
2426.24578	0.01507
2424.96001	0.01479
2423.67424	0.01418
2422.38847	0.01356
2421.10270	0.01329
2419.81693	0.01349
2418.53116	0.01391
2417.24539	0.01420
2415.95963	0.01417
2414.67386	0.01389
2413.38809	0.01357
2412.10232	0.01338
2410.81655	0.01340
2409.53078	0.01357
2408.24501	0.01368
2406.95924	0.01360
2405.67347	0.01345
2404.38771	0.01342
2403.10194	0.01353
2401.81617	0.01359
2400.53040	0.01347
2399.24463	0.01316
2397.95886	0.01317
2396.67309	0.01334
2395.38732	0.01351
2394.10156	0.01357
2392.81579	0.01350
2391.53002	0.01336
2390.24425	0.01319
2388.95848	0.01299
2387.67271	0.01280
2386.38694	0.01273
2385.10117	0.01282
2383.81540	0.01302
2382.52964	0.01323
2381.24387	0.01339
2379.95810	0.01355
2378.67233	0.01374
2377.38656	0.01393
2376.10079	0.01406
2374.81502	0.01408
2373.52925	0.01399
2372.24349	0.01384
2370.95772	0.01373
2369.67195	0.01379
2368.38618	0.01400
2367.10041	0.01425
2365.81464	0.01442
2364.52887	0.01446
2363.24310	0.01437
2361.95733	0.01420
2360.67157	0.01403
2359.38580	0.01404
2358.10003	0.01427
2356.81426	0.01454
2355.52849	0.01467
2354.24272	0.01466
2352.95695	0.01456
2351.67118	0.01440
2350.38542	0.01428
2349.09965	0.01427
2347.81388	0.01425
2346.52811	0.01398
2345.24234	0.01364
2343.95657	0.01368
2342.67080	0.01405
2341.38503	0.01416
2340.09926	0.01395
2338.81350	0.01413
2337.52773	0.01464
2336.24196	0.01451
2334.95619	0.01398
2333.67042	0.01409
2332.38465	0.01450
2331.09888	0.01417
2329.81311	0.01374
2328.52735	0.01399
2327.24158	0.01408
2325.95581	0.01413
2324.67004	0.01476
2323.38427	0.01516
2322.09850	0.01503
2320.81273	0.01496
2319.52696	0.01463
2318.24119	0.01415
2316.95543	0.01401
2315.66966	0.01399
2314.38389	0.01411
2313.09812	0.01438
2311.81235	0.01440
2310.52658	0.01418
2309.24081	0.01380
2307.95504	0.01336
2306.66928	0.01305
2305.38351	0.01279
2304.09774	0.01261
2302.81197	0.01254
2301.52620	0.01253
2300.24043	0.01255
2298.95466	0.01255
2297.66889	0.01255
2296.38312	0.01256
2295.09736	0.01259
2293.81159	0.01274
2292.52582	0.01305
2291.24005	0.01345
2289.95428	0.01371
2288.66851	0.01363
2287.38274	0.01319
2286.09697	0.01262
2284.81121	0.01213
2283.52544	0.01186
2282.23967	0.01176
2280.95390	0.01173
2279.66813	0.01171
2278.38236	0.01167
2277.09659	0.01162
2275.81082	0.01154
2274.52505	0.01137
2273.23929	0.01110
2271.95352	0.01076
2270.66775	0.01043
2269.38198	0.01022
2268.09621	0.01027
2266.81044	0.01061
2265.52467	0.01108
2264.23890	0.01135
2262.95314	0.01127
2261.66737	0.01100
2260.38160	0.01089
2259.09583	0.01106
2257.81006	0.01133
2256.52429	0.01143
2255.23852	0.01132
2253.95275	0.01104
2252.66698	0.01064
2251.38122	0.01020
2250.09545	0.01000
2248.80968	0.01015
2247.52391	0.01047
2246.23814	0.01044
2244.95237	0.00980
2243.66660	0.00896
2242.38083	0.00854
2241.09507	0.00876
2239.80930	0.00942
2238.52353	0.01014
2237.23776	0.01059
2235.95199	0.01064
2234.66622	0.01048
2233.38045	0.01043
2232.09468	0.01064
2230.80891	0.01092
2229.52315	0.01100
2228.23738	0.01084
2226.95161	0.01066
2225.66584	0.01060
2224.38007	0.01052
2223.09430	0.01013
2221.80853	0.00947
2220.52276	0.00893
2219.23700	0.00885
2217.95123	0.00921
2216.66546	0.00971
2215.37969	0.01005
2214.09392	0.01012
2212.80815	0.01004
2211.52238	0.00994
2210.23661	0.00989
2208.95084	0.00997
2207.66508	0.01031
2206.37931	0.01073
2205.09354	0.01068
2203.80777	0.00980
2202.52200	0.00839
2201.23623	0.00719
2199.95046	0.00679
2198.66469	0.00730
2197.37893	0.00833
2196.09316	0.00916
2194.80739	0.00928
2193.52162	0.00881
2192.23585	0.00836
2190.95008	0.00842
2189.66431	0.00899
2188.37854	0.00963
2187.09277	0.00993
2185.80701	0.00972
2184.52124	0.00910
2183.23547	0.00815
2181.94970	0.00693
2180.66393	0.00575
2179.37816	0.00502
2178.09239	0.00490
2176.80662	0.00512
2175.52085	0.00547
2174.23509	0.00599
2172.94932	0.00661
2171.66355	0.00709
2170.37778	0.00724
2169.09201	0.00719
2167.80624	0.00714
2166.52047	0.00722
2165.23470	0.00754
2163.94894	0.00823
2162.66317	0.00913
2161.37740	0.00960
2160.09163	0.00913
2158.80586	0.00798
2157.52009	0.00691
2156.23432	0.00631
2154.94855	0.00596
2153.66278	0.00573
2152.37702	0.00581
2151.09125	0.00619
2149.80548	0.00646
2148.51971	0.00622
2147.23394	0.00552
2145.94817	0.00473
2144.66240	0.00423
2143.37663	0.00423
2142.09087	0.00470
2140.80510	0.00534
2139.51933	0.00577
2138.23356	0.00589
2136.94779	0.00590
2135.66202	0.00605
2134.37625	0.00648
2133.09048	0.00721
2131.80471	0.00812
2130.51895	0.00896
2129.23318	0.00948
2127.94741	0.00963
2126.66164	0.00958
2125.37587	0.00951
2124.09010	0.00933
2122.80433	0.00885
2121.51856	0.00809
2120.23280	0.00741
2118.94703	0.00716
2117.66126	0.00734
2116.37549	0.00754
2115.08972	0.00748
2113.80395	0.00720
2112.51818	0.00703
2111.23241	0.00720
2109.94664	0.00773
2108.66088	0.00848
2107.37511	0.00921
2106.08934	0.00960
2104.80357	0.00935
2103.51780	0.00854
2102.23203	0.00754
2100.94626	0.00677
2099.66049	0.00637
2098.37473	0.00640
2097.08896	0.00668
2095.80319	0.00690
2094.51742	0.00688
2093.23165	0.00673
2091.94588	0.00669
2090.66011	0.00682
2089.37434	0.00698
2088.08857	0.00705
2086.80281	0.00698
2085.51704	0.00679
2084.23127	0.00657
2082.94550	0.00647
2081.65973	0.00662
2080.37396	0.00695
2079.08819	0.00716
2077.80242	0.00708
2076.51666	0.00669
2075.23089	0.00618
2073.94512	0.00586
2072.65935	0.00600
2071.37358	0.00662
2070.08781	0.00735
2068.80204	0.00769
2067.51627	0.00752
2066.23050	0.00718
2064.94474	0.00705
2063.65897	0.00713
2062.37320	0.00721
2061.08743	0.00721
2059.80166	0.00723
2058.51589	0.00723
2057.23012	0.00703
2055.94435	0.00655
2054.65859	0.00603
2053.37282	0.00579
2052.08705	0.00590
2050.80128	0.00612
2049.51551	0.00614
2048.22974	0.00581
2046.94397	0.00517
2045.65820	0.00434
2044.37243	0.00347
2043.08667	0.00274
2041.80090	0.00235
2040.51513	0.00233
2039.22936	0.00245
2037.94359	0.00231
2036.65782	0.00180
2035.37205	0.00129
2034.08628	0.00140
2032.80052	0.00220
2031.51475	0.00313
2030.22898	0.00350
2028.94321	0.00327
2027.65744	0.00299
2026.37167	0.00324
2025.08590	0.00407
2023.80013	0.00497
2022.51436	0.00533
2021.22860	0.00488
2019.94283	0.00382
2018.65706	0.00269
2017.37129	0.00193
2016.08552	0.00174
2014.79975	0.00197
2013.51398	0.00241
2012.22821	0.00295
2010.94245	0.00356
2009.65668	0.00419
2008.37091	0.00480
2007.08514	0.00538
2005.79937	0.00588
2004.51360	0.00624
2003.22783	0.00651
2001.94206	0.00687
2000.65629	0.00735
1999.37053	0.00779
1998.08476	0.00812
1996.79899	0.00843
1995.51322	0.00873
1994.22745	0.00872
1992.94168	0.00812
1991.65591	0.00694
1990.37014	0.00566
1989.08438	0.00480
1987.79861	0.00457
1986.51284	0.00479
1985.22707	0.00502
1983.94130	0.00494
1982.65553	0.00454
1981.36976	0.00411
1980.08399	0.00400
1978.79822	0.00428
1977.51246	0.00462
1976.22669	0.00464
1974.94092	0.00430
1973.65515	0.00390
1972.36938	0.00372
1971.08361	0.00380
1969.79784	0.00396
1968.51207	0.00402
1967.22631	0.00391
1965.94054	0.00387
1964.65477	0.00422
1963.36900	0.00502
1962.08323	0.00592
1960.79746	0.00656
1959.51169	0.00685
1958.22592	0.00687
1956.94015	0.00664
1955.65439	0.00608
1954.36862	0.00531
1953.08285	0.00474
1951.79708	0.00481
1950.51131	0.00559
1949.22554	0.00662
1947.93977	0.00722
1946.65400	0.00702
1945.36823	0.00633
1944.08247	0.00582
1942.79670	0.00591
1941.51093	0.00642
1940.22516	0.00690
1938.93939	0.00717
1937.65362	0.00736
1936.36785	0.00761
1935.08208	0.00776
1933.79632	0.00767
1932.51055	0.00750
1931.22478	0.00757
1929.93901	0.00794
1928.65324	0.00836
1927.36747	0.00851
1926.08170	0.00835
1924.79593	0.00808
1923.51016	0.00789
1922.22440	0.00783
1920.93863	0.00781
1919.65286	0.00777
1918.36709	0.00774
1917.08132	0.00770
1915.79555	0.00763
1914.50978	0.00750
1913.22401	0.00738
1911.93825	0.00733
1910.65248	0.00736
1909.36671	0.00739
1908.08094	0.00733
1906.79517	0.00715
1905.50940	0.00693
1904.22363	0.00681
1902.93786	0.00689
1901.65209	0.00713
1900.36633	0.00739
1899.08056	0.00758
1897.79479	0.00769
1896.50902	0.00775
1895.22325	0.00773
1893.93748	0.00755
1892.65171	0.00722
1891.36594	0.00689
1890.08018	0.00669
1888.79441	0.00664
1887.50864	0.00669
1886.22287	0.00677
1884.93710	0.00688
1883.65133	0.00702
1882.36556	0.00718
1881.07979	0.00729
1879.79402	0.00734
1878.50826	0.00735
1877.22249	0.00735
1875.93672	0.00741
1874.65095	0.00754
1873.36518	0.00772
1872.07941	0.00787
1870.79364	0.00790
1869.50787	0.00782
1868.22211	0.00769
1866.93634	0.00754
1865.65057	0.00743
1864.36480	0.00740
1863.07903	0.00746
1861.79326	0.00759
1860.50749	0.00775
1859.22172	0.00787
1857.93595	0.00790
1856.65019	0.00785
1855.36442	0.00778
1854.07865	0.00774
1852.79288	0.00767
1851.50711	0.00754
1850.22134	0.00739
1848.93557	0.00734
1847.64980	0.00737
1846.36404	0.00739
1845.07827	0.00735
1843.79250	0.00735
1842.50673	0.00746
1841.22096	0.00766
1839.93519	0.00783
1838.64942	0.00794
1837.36365	0.00796
1836.07788	0.00787
1834.79212	0.00772
1833.50635	0.00761
1832.22058	0.00758
1830.93481	0.00764
1829.64904	0.00772
1828.36327	0.00778
1827.07750	0.00775
1825.79173	0.00763
1824.50597	0.00748
1823.22020	0.00741
1821.93443	0.00747
1820.64866	0.00764
1819.36289	0.00783
1818.07712	0.00797
1816.79135	0.00805
1815.50558	0.00805
1814.21981	0.00798
1812.93405	0.00788
1811.64828	0.00782
1810.36251	0.00787
1809.07674	0.00799
1807.79097	0.00811
1806.50520	0.00816
1805.21943	0.00812
1803.93366	0.00802
1802.64790	0.00791
1801.36213	0.00783
1800.07636	0.00783
1798.79059	0.00788
1797.50482	0.00795
1796.21905	0.00799
1794.93328	0.00800
1793.64751	0.00801
1792.36174	0.00807
1791.07598	0.00815
1789.79021	0.00822
1788.50444	0.00824
1787.21867	0.00828
1785.93290	0.00836
1784.64713	0.00847
1783.36136	0.00854
1782.07559	0.00853
1780.78983	0.00846
1779.50406	0.00837
1778.21829	0.00826
1776.93252	0.00815
1775.64675	0.00811
1774.36098	0.00818
1773.07521	0.00833
1771.78944	0.00847
1770.50367	0.00852
1769.21791	0.00848
1767.93214	0.00845
1766.64637	0.00851
1765.36060	0.00861
1764.07483	0.00871
1762.78906	0.00883
1761.50329	0.00898
1760.21752	0.00913
1758.93176	0.00915
1757.64599	0.00905
1756.36022	0.00889
1755.07445	0.00876
1753.78868	0.00867
1752.50291	0.00862
1751.21714	0.00862
1749.93137	0.00870
1748.64560	0.00882
1747.35984	0.00892
1746.07407	0.00896
1744.78830	0.00894
1743.50253	0.00888
1742.21676	0.00882
1740.93099	0.00882
1739.64522	0.00888
1738.35945	0.00899
1737.07369	0.00908
1735.78792	0.00911
1734.50215	0.00916
1733.21638	0.00932
1731.93061	0.00951
1730.64484	0.00962
1729.35907	0.00965
1728.07330	0.00967
1726.78753	0.00971
1725.50177	0.00976
1724.21600	0.00986
1722.93023	0.00999
1721.64446	0.01010
1720.35869	0.01013
1719.07292	0.01012
1717.78715	0.01022
1716.50138	0.01046
1715.21561	0.01075
1713.92985	0.01097
1712.64408	0.01111
1711.35831	0.01121
1710.07254	0.01133
1708.78677	0.01149
1707.50100	0.01164
1706.21523	0.01174
1704.92946	0.01183
1703.64370	0.01196
1702.35793	0.01214
1701.07216	0.01238
1699.78639	0.01274
1698.50062	0.01308
1697.21485	0.01325
1695.92908	0.01331
1694.64331	0.01345
1693.35754	0.01363
1692.07178	0.01375
1690.78601	0.01382
1689.50024	0.01394
1688.21447	0.01409
1686.92870	0.01420
1685.64293	0.01430
1684.35716	0.01454
1683.07139	0.01496
1681.78563	0.01538
1680.49986	0.01568
1679.21409	0.01588
1677.92832	0.01603
1676.64255	0.01617
1675.35678	0.01633
1674.07101	0.01653
1672.78524	0.01669
1671.49947	0.01679
1670.21371	0.01688
1668.92794	0.01703
1667.64217	0.01720
1666.35640	0.01732
1665.07063	0.01739
1663.78486	0.01747
1662.49909	0.01761
1661.21332	0.01778
1659.92756	0.01793
1658.64179	0.01801
1657.35602	0.01806
1656.07025	0.01807
1654.78448	0.01802
1653.49871	0.01804
1652.21294	0.01823
1650.92717	0.01851
1649.64140	0.01868
1648.35564	0.01873
1647.06987	0.01878
1645.78410	0.01890
1644.49833	0.01900
1643.21256	0.01898
1641.92679	0.01886
1640.64102	0.01876
1639.35525	0.01877
1638.06949	0.01882
1636.78372	0.01883
1635.49795	0.01881
1634.21218	0.01879
1632.92641	0.01877
1631.64064	0.01875
1630.35487	0.01876
1629.06910	0.01881
1627.78333	0.01890
1626.49757	0.01896
1625.21180	0.01897
1623.92603	0.01895
1622.64026	0.01894
1621.35449	0.01897
1620.06872	0.01898
1618.78295	0.01895
1617.49718	0.01893
1616.21142	0.01898
1614.92565	0.01906
1613.63988	0.01908
1612.35411	0.01905
1611.06834	0.01903
1609.78257	0.01906
1608.49680	0.01913
1607.21103	0.01922
1605.92526	0.01929
1604.63950	0.01931
1603.35373	0.01933
1602.06796	0.01940
1600.78219	0.01953
1599.49642	0.01969
1598.21065	0.01983
1596.92488	0.01997
1595.63911	0.02008
1594.35335	0.02015
1593.06758	0.02016
1591.78181	0.02013
1590.49604	0.02015
1589.21027	0.02024
1587.92450	0.02040
1586.63873	0.02056
1585.35296	0.02069
1584.06719	0.02078
1582.78143	0.02089
1581.49566	0.02106
1580.20989	0.02131
1578.92412	0.02157
1577.63835	0.02178
1576.35258	0.02196
1575.06681	0.02216
1573.78104	0.02230
1572.49528	0.02234
1571.20951	0.02233
1569.92374	0.02240
1568.63797	0.02259
1567.35220	0.02282
1566.06643	0.02299
1564.78066	0.02309
1563.49489	0.02317
1562.20912	0.02324
1560.92336	0.02332
1559.63759	0.02351
1558.35182	0.02386
1557.06605	0.02424
1555.78028	0.02448
1554.49451	0.02458
1553.20874	0.02468
1551.92297	0.02484
1550.63721	0.02504
1549.35144	0.02524
1548.06567	0.02541
1546.77990	0.02553
1545.49413	0.02559
1544.20836	0.02565
1542.92259	0.02570
1541.63682	0.02573
1540.35105	0.02579
1539.06529	0.02595
1537.77952	0.02619
1536.49375	0.02636
1535.20798	0.02641
1533.92221	0.02646
1532.63644	0.02665
1531.35067	0.02696
1530.06490	0.02731
1528.77914	0.02767
1527.49337	0.02805
1526.20760	0.02850
1524.92183	0.02901
1523.63606	0.02950
1522.35029	0.02994
1521.06452	0.03040
1519.77875	0.03092
1518.49298	0.03146
1517.20722	0.03201
1515.92145	0.03263
1514.63568	0.03333
1513.34991	0.03404
1512.06414	0.03477
1510.77837	0.03554
1509.49260	0.03633
1508.20683	0.03708
1506.92107	0.03785
1505.63530	0.03868
1504.34953	0.03950
1503.06376	0.04018
1501.77799	0.04071
1500.49222	0.04119
1499.20645	0.04167
1497.92068	0.04217
1496.63491	0.04267
1495.34915	0.04313
1494.06338	0.04353
1492.77761	0.04385
1491.49184	0.04414
1490.20607	0.04451
1488.92030	0.04497
1487.63453	0.04552
1486.34876	0.04611
1485.06299	0.04673
1483.77723	0.04735
1482.49146	0.04794
1481.20569	0.04852
1479.91992	0.04911
1478.63415	0.04968
1477.34838	0.05023
1476.06261	0.05073
1474.77684	0.05117
1473.49108	0.05155
1472.20531	0.05192
1470.91954	0.05229
1469.63377	0.05260
1468.34800	0.05282
1467.06223	0.05297
1465.77646	0.05310
1464.49069	0.05320
1463.20492	0.05326
1461.91916	0.05330
1460.63339	0.05337
1459.34762	0.05353
1458.06185	0.05379
1456.77608	0.05417
1455.49031	0.05464
1454.20454	0.05510
1452.91877	0.05549
1451.63301	0.05580
1450.34724	0.05604
1449.06147	0.05622
1447.77570	0.05638
1446.48993	0.05656
1445.20416	0.05668
1443.91839	0.05667
1442.63262	0.05654
1441.34685	0.05638
1440.06109	0.05627
1438.77532	0.05622
1437.48955	0.05620
1436.20378	0.05623
1434.91801	0.05632
1433.63224	0.05651
1432.34647	0.05683
1431.06070	0.05731
1429.77494	0.05789
1428.48917	0.05852
1427.20340	0.05916
1425.91763	0.05982
1424.63186	0.06051
1423.34609	0.06123
1422.06032	0.06193
1420.77455	0.06258
1419.48878	0.06320
1418.20302	0.06380
1416.91725	0.06433
1415.63148	0.06471
1414.34571	0.06494
1413.05994	0.06504
1411.77417	0.06506
1410.48840	0.06499
1409.20263	0.06483
1407.91687	0.06457
1406.63110	0.06416
1405.34533	0.06359
1404.05956	0.06288
1402.77379	0.06207
1401.48802	0.06118
1400.20225	0.06026
1398.91648	0.05931
1397.63071	0.05833
1396.34495	0.05727
1395.05918	0.05614
1393.77341	0.05501
1392.48764	0.05388
1391.20187	0.05273
1389.91610	0.05150
1388.63033	0.05023
1387.34456	0.04894
1386.05880	0.04769
1384.77303	0.04648
1383.48726	0.04532
1382.20149	0.04421
1380.91572	0.04312
1379.62995	0.04203
1378.34418	0.04088
1377.05841	0.03965
1375.77264	0.03835
1374.48688	0.03703
1373.20111	0.03574
1371.91534	0.03454
1370.62957	0.03339
1369.34380	0.03229
1368.05803	0.03123
1366.77226	0.03022
1365.48649	0.02925
1364.20073	0.02833
1362.91496	0.02745
1361.62919	0.02661
1360.34342	0.02582
1359.05765	0.02506
1357.77188	0.02434
1356.48611	0.02366
1355.20034	0.02303
1353.91457	0.02247
1352.62881	0.02196
1351.34304	0.02146
1350.05727	0.02096
1348.77150	0.02047
1347.48573	0.02000
1346.19996	0.01957
1344.91419	0.01917
1343.62842	0.01880
1342.34266	0.01845
1341.05689	0.01809
1339.77112	0.01775
1338.48535	0.01746
1337.19958	0.01722
1335.91381	0.01704
1334.62804	0.01686
1333.34227	0.01666
1332.05650	0.01644
1330.77074	0.01622
1329.48497	0.01601
1328.19920	0.01582
1326.91343	0.01566
1325.62766	0.01551
1324.34189	0.01537
1323.05612	0.01522
1321.77035	0.01505
1320.48459	0.01485
1319.19882	0.01465
1317.91305	0.01447
1316.62728	0.01432
1315.34151	0.01421
1314.05574	0.01413
1312.76997	0.01407
1311.48420	0.01400
1310.19843	0.01389
1308.91267	0.01375
1307.62690	0.01359
1306.34113	0.01347
1305.05536	0.01339
1303.76959	0.01333
1302.48382	0.01329
1301.19805	0.01327
1299.91228	0.01325
1298.62652	0.01321
1297.34075	0.01310
1296.05498	0.01295
1294.76921	0.01281
1293.48344	0.01272
1292.19767	0.01270
1290.91190	0.01269
1289.62613	0.01264
1288.34036	0.01254
1287.05460	0.01240
1285.76883	0.01224
1284.48306	0.01207
1283.19729	0.01192
1281.91152	0.01182
1280.62575	0.01179
1279.33998	0.01182
1278.05421	0.01184
1276.76845	0.01184
1275.48268	0.01181
1274.19691	0.01175
1272.91114	0.01166
1271.62537	0.01158
1270.33960	0.01149
1269.05383	0.01141
1267.76806	0.01133
1266.48229	0.01125
1265.19653	0.01118
1263.91076	0.01115
1262.62499	0.01113
1261.33922	0.01111
1260.05345	0.01108
1258.76768	0.01105
1257.48191	0.01101
1256.19614	0.01097
1254.91037	0.01091
1253.62461	0.01081
1252.33884	0.01069
1251.05307	0.01058
1249.76730	0.01049
1248.48153	0.01043
1247.19576	0.01041
1245.90999	0.01039
1244.62422	0.01036
1243.33846	0.01031
1242.05269	0.01026
1240.76692	0.01020
1239.48115	0.01015
1238.19538	0.01008
1236.90961	0.00999
1235.62384	0.00989
1234.33807	0.00981
1233.05230	0.00975
1231.76654	0.00969
1230.48077	0.00963
1229.19500	0.00956
1227.90923	0.00949
1226.62346	0.00945
1225.33769	0.00943
1224.05192	0.00941
1222.76615	0.00937
1221.48039	0.00934
1220.19462	0.00932
1218.90885	0.00929
1217.62308	0.00924
1216.33731	0.00919
1215.05154	0.00916
1213.76577	0.00916
1212.48000	0.00916
1211.19423	0.00915
1209.90847	0.00911
1208.62270	0.00907
1207.33693	0.00902
1206.05116	0.00898
1204.76539	0.00897
1203.47962	0.00901
1202.19385	0.00909
1200.90808	0.00913
1199.62232	0.00908
1198.33655	0.00899
1197.05078	0.00893
1195.76501	0.00892
1194.47924	0.00894
1193.19347	0.00894
1191.90770	0.00895
1190.62193	0.00899
1189.33616	0.00904
1188.05040	0.00907
1186.76463	0.00906
1185.47886	0.00903
1184.19309	0.00900
1182.90732	0.00900
1181.62155	0.00902
1180.33578	0.00905
1179.05001	0.00907
1177.76425	0.00911
1176.47848	0.00914
1175.19271	0.00919
1173.90694	0.00926
1172.62117	0.00935
1171.33540	0.00943
1170.04963	0.00948
1168.76386	0.00952
1167.47809	0.00958
1166.19233	0.00967
1164.90656	0.00982
1163.62079	0.00998
1162.33502	0.01014
1161.04925	0.01027
1159.76348	0.01041
1158.47771	0.01059
1157.19194	0.01082
1155.90618	0.01106
1154.62041	0.01127
1153.33464	0.01143
1152.04887	0.01161
1150.76310	0.01187
1149.47733	0.01220
1148.19156	0.01259
1146.90579	0.01298
1145.62002	0.01336
1144.33426	0.01376
1143.04849	0.01421
1141.76272	0.01473
1140.47695	0.01531
1139.19118	0.01597
1137.90541	0.01671
1136.61964	0.01756
1135.33387	0.01852
1134.04811	0.01957
1132.76234	0.02070
1131.47657	0.02189
1130.19080	0.02316
1128.90503	0.02458
1127.61926	0.02617
1126.33349	0.02790
1125.04772	0.02968
1123.76195	0.03149
1122.47619	0.03336
1121.19042	0.03533
1119.90465	0.03736
1118.61888	0.03940
1117.33311	0.04145
1116.04734	0.04354
1114.76157	0.04572
1113.47580	0.04794
1112.19004	0.05012
1110.90427	0.05220
1109.61850	0.05416
1108.33273	0.05599
1107.04696	0.05774
1105.76119	0.05949
1104.47542	0.06127
1103.18965	0.06306
1101.90388	0.06486
1100.61812	0.06663
1099.33235	0.06832
1098.04658	0.06987
1096.76081	0.07132
1095.47504	0.07271
1094.18927	0.07402
1092.90350	0.07525
1091.61773	0.07641
1090.33197	0.07755
1089.04620	0.07871
1087.76043	0.07985
1086.47466	0.08093
1085.18889	0.08196
1083.90312	0.08307
1082.61735	0.08432
1081.33158	0.08573
1080.04581	0.08722
1078.76005	0.08873
1077.47428	0.09025
1076.18851	0.09177
1074.90274	0.09326
1073.61697	0.09474
1072.33120	0.09628
1071.04543	0.09797
1069.75966	0.09979
1068.47390	0.10165
1067.18813	0.10352
1065.90236	0.10541
1064.61659	0.10737
1063.33082	0.10939
1062.04505	0.11143
1060.75928	0.11341
1059.47351	0.11528
1058.18774	0.11703
1056.90198	0.11872
1055.61621	0.12039
1054.33044	0.12203
1053.04467	0.12365
1051.75890	0.12530
1050.47313	0.12701
1049.18736	0.12876
1047.90159	0.13049
1046.61583	0.13221
1045.33006	0.13396
1044.04429	0.13574
1042.75852	0.13752
1041.47275	0.13927
1040.18698	0.14100
1038.90121	0.14270
1037.61544	0.14437
1036.32967	0.14595
1035.04391	0.14745
1033.75814	0.14889
1032.47237	0.15026
1031.18660	0.15152
1029.90083	0.15262
1028.61506	0.15353
1027.32929	0.15425
1026.04352	0.15479
1024.75775	0.15517
1023.47199	0.15538
1022.18622	0.15540
1020.90045	0.15518
1019.61468	0.15473
1018.32891	0.15412
1017.04314	0.15338
1015.75737	0.15244
1014.47160	0.15121
1013.18584	0.14964
1011.90007	0.14779
1010.61430	0.14575
1009.32853	0.14354
1008.04276	0.14115
1006.75699	0.13857
1005.47122	0.13580
1004.18545	0.13287
1002.89968	0.12980
1001.61392	0.12662
1000.32815	0.12332
999.04238	0.11992
997.75661	0.11645
996.47084	0.11294
995.18507	0.10940
993.89930	0.10579
992.61353	0.10210
991.32777	0.09839
990.04200	0.09475
988.75623	0.09127
987.47046	0.08796
986.18469	0.08478
984.89892	0.08170
983.61315	0.07874
982.32738	0.07593
981.04161	0.07327
979.75585	0.07076
978.47008	0.06838
977.18431	0.06615
975.89854	0.06410
974.61277	0.06227
973.32700	0.06069
972.04123	0.05942
970.75546	0.05855
969.46970	0.05808
968.18393	0.05796
966.89816	0.05807
965.61239	0.05834
964.32662	0.05872
963.04085	0.05913
961.75508	0.05943
960.46931	0.05943
959.18354	0.05909
957.89778	0.05846
956.61201	0.05759
955.32624	0.05652
954.04047	0.05528
952.75470	0.05393
951.46893	0.05256
950.18316	0.05118
948.89739	0.04980
947.61163	0.04842
946.32586	0.04706
945.04009	0.04569
943.75432	0.04431
942.46855	0.04298
941.18278	0.04176
939.89701	0.04068
938.61124	0.03969
937.32547	0.03875
936.03971	0.03784
934.75394	0.03697
933.46817	0.03613
932.18240	0.03534
930.89663	0.03461
929.61086	0.03397
928.32509	0.03337
927.03932	0.03275
925.75356	0.03213
924.46779	0.03156
923.18202	0.03106
921.89625	0.03060
920.61048	0.03019
919.32471	0.02983
918.03894	0.02947
916.75317	0.02904
915.46740	0.02854
914.18164	0.02805
912.89587	0.02766
911.61010	0.02739
910.32433	0.02721
909.03856	0.02704
907.75279	0.02685
906.46702	0.02660
905.18125	0.02632
903.89549	0.02605
902.60972	0.02582
901.32395	0.02564
900.03818	0.02551
898.75241	0.02543
897.46664	0.02536
896.18087	0.02527
894.89510	0.02517
893.60933	0.02510
892.32357	0.02509
891.03780	0.02518
889.75203	0.02541
888.46626	0.02576
887.18049	0.02625
885.89472	0.02693
884.60895	0.02792
883.32318	0.02934
882.03742	0.03112
880.75165	0.03305
879.46588	0.03481
878.18011	0.03622
876.89434	0.03735
875.60857	0.03837
874.32280	0.03937
873.03703	0.04025
871.75126	0.04076
870.46550	0.04074
869.17973	0.04017
867.89396	0.03919
866.60819	0.03794
865.32242	0.03653
864.03665	0.03501
862.75088	0.03349
861.46511	0.03206
860.17935	0.03079
858.89358	0.02965
857.60781	0.02862
856.32204	0.02775
855.03627	0.02707
853.75050	0.02655
852.46473	0.02613
851.17896	0.02570
849.89319	0.02526
848.60743	0.02483
847.32166	0.02448
846.03589	0.02419
844.75012	0.02394
843.46435	0.02372
842.17858	0.02352
840.89281	0.02335
839.60704	0.02316
838.32128	0.02288
837.03551	0.02253
835.74974	0.02219
834.46397	0.02192
833.17820	0.02174
831.89243	0.02162
830.60666	0.02153
829.32089	0.02147
828.03512	0.02145
826.74936	0.02146
825.46359	0.02143
824.17782	0.02135
822.89205	0.02125
821.60628	0.02119
820.32051	0.02122
819.03474	0.02127
817.74897	0.02123
816.46321	0.02107
815.17744	0.02084
813.89167	0.02066
812.60590	0.02063
811.32013	0.02073
810.03436	0.02087
808.74859	0.02093
807.46282	0.02085
806.17705	0.02069
804.89129	0.02052
803.60552	0.02041
802.31975	0.02035
801.03398	0.02025
799.74821	0.02008
798.46244	0.01987
797.17667	0.01968
795.89090	0.01960
794.60513	0.01960
793.31937	0.01967
792.03360	0.01975
790.74783	0.01986
789.46206	0.01998
788.17629	0.02010
786.89052	0.02016
785.60475	0.02014
784.31898	0.02004
783.03322	0.01990
781.74745	0.01979
780.46168	0.01976
779.17591	0.01980
777.89014	0.01986
776.60437	0.01987
775.31860	0.01982
774.03283	0.01974
772.74706	0.01967
771.46130	0.01957
770.17553	0.01947
768.88976	0.01944
767.60399	0.01952
766.31822	0.01967
765.03245	0.01978
763.74668	0.01976
762.46091	0.01966
761.17515	0.01959
759.88938	0.01966
758.60361	0.01987
757.31784	0.02014
756.03207	0.02031
754.74630	0.02032
753.46053	0.02020
752.17476	0.02002
750.88899	0.01986
749.60323	0.01974
748.31746	0.01966
747.03169	0.01956
745.74592	0.01938
744.46015	0.01915
743.17438	0.01894
741.88861	0.01888
740.60284	0.01903
739.31708	0.01933
738.03131	0.01957
736.74554	0.01960
735.45977	0.01946
734.17400	0.01932
732.88823	0.01927
731.60246	0.01926
730.31669	0.01923
729.03092	0.01925
727.74516	0.01934
726.45939	0.01943
725.17362	0.01942
723.88785	0.01923
722.60208	0.01918
721.31631	0.01928
720.03054	0.01945
718.74477	0.01964
717.45901	0.01976
716.17324	0.01981
714.88747	0.01979
713.60170	0.01975
712.31593	0.01971
711.03016	0.01967
709.74439	0.01962
708.45862	0.01957
707.17285	0.01955
705.88709	0.01954
704.60132	0.01953
703.31555	0.01950
702.02978	0.01947
700.74401	0.01945
699.45824	0.01947
698.17247	0.01952
696.88670	0.01954
695.60094	0.01952
694.31517	0.01950
693.02940	0.01952
691.74363	0.01958
690.45786	0.01964
689.17209	0.01964
687.88632	0.01959
686.60055	0.01953
685.31478	0.01947
684.02902	0.01940
682.74325	0.01933
681.45748	0.01926
680.17171	0.01922
678.88594	0.01922
677.60017	0.01922
676.31440	0.01922
675.02863	0.01920
673.74287	0.01915
672.45710	0.01911
671.17133	0.01912
669.88556	0.01920
668.59979	0.01933
667.31402	0.01947
666.02825	0.01946
664.74248	0.01934
663.45671	0.01918
662.17095	0.01904
660.88518	0.01896
659.59941	0.01896
658.31364	0.01901
657.02787	0.01905
655.74210	0.01904
654.45633	0.01902
653.17056	0.01899
651.88480	0.01898
650.59903	0.01898
649.31326	0.01900
648.02749	0.01902
646.74172	0.01905
645.45595	0.01908
644.17018	0.01911
642.88441	0.01918
641.59864	0.01931
640.31288	0.01952
639.02711	0.01975
637.74134	0.01998
636.45557	0.02020
635.16980	0.02047
633.88403	0.02078
632.59826	0.02114
631.31249	0.02160
630.02673	0.02214
628.74096	0.02250
627.45519	0.02284
626.16942	0.02297
624.88365	0.02300
623.59788	0.02335
622.31211	0.02446
621.02634	0.02636
619.74057	0.02850
618.45481	0.03047
617.16904	0.03243
615.88327	0.03478
614.59750	0.03782
613.31173	0.04175
612.02596	0.04646
610.74019	0.05104
609.45442	0.05429
608.16866	0.05602
606.88289	0.05731
605.59712	0.05902
604.31135	0.06101
603.02558	0.06259
601.73981	0.06331
600.45404	0.06308
599.16827	0.06200
597.88250	0.06035
596.59674	0.05847
595.31097	0.05664
594.02520	0.05495
592.73943	0.05347
591.45366	0.05241
590.16789	0.05196
588.88212	0.05211
587.59635	0.05260
586.31059	0.05324
585.02482	0.05401
583.73905	0.05507
582.45328	0.05642
581.16751	0.05797
579.88174	0.05961
578.59597	0.06131
577.31020	0.06306
576.02443	0.06478
574.73867	0.06637
573.45290	0.06781
572.16713	0.06920
570.88136	0.07066
569.59559	0.07233
568.30982	0.07427
567.02405	0.07636
565.73828	0.07833
564.45251	0.07986
563.16675	0.08074
561.88098	0.08097
560.59521	0.08053
559.30944	0.07938
558.02367	0.07740
556.73790	0.07458
555.45213	0.07107
554.16636	0.06725
552.88060	0.06352
551.59483	0.06015
550.30906	0.05716
549.02329	0.05439
547.73752	0.05169
546.45175	0.04903
545.16598	0.04649
543.88021	0.04421
542.59444	0.04229
541.30868	0.04070
540.02291	0.03933
538.73714	0.03807
537.45137	0.03686
536.16560	0.03567
534.87983	0.03449
533.59406	0.03336
532.30829	0.03235
531.02253	0.03146
529.73676	0.03066
528.45099	0.02987
527.16522	0.02913
525.87945	0.02849
524.59368	0.02798
523.30791	0.02753
522.02214	0.02703
520.73637	0.02643
519.45061	0.02578
518.16484	0.02514
516.87907	0.02455
515.59330	0.02403
514.30753	0.02355
513.02176	0.02311
511.73599	0.02274
510.45022	0.02248
509.16446	0.02231
507.87869	0.02209
506.59292	0.02170
505.30715	0.02117
504.02138	0.02063
502.73561	0.02021
501.44984	0.01992
500.16407	0.01970
498.87830	0.01952
497.59254	0.01936
496.30677	0.01919
495.02100	0.01899
493.73523	0.01878
492.44946	0.01859
491.16369	0.01848
489.87792	0.01842
488.59215	0.01835
487.30639	0.01823
486.02062	0.01806
484.73485	0.01790
483.44908	0.01782
482.16331	0.01786
480.87754	0.01800
479.59177	0.01819
478.30600	0.01839
477.02023	0.01856
475.73447	0.01870
474.44870	0.01881
473.16293	0.01889
471.87716	0.01897
470.59139	0.01903
469.30562	0.01906
468.01985	0.01902
466.73408	0.01890
465.44832	0.01865
464.16255	0.01833
462.87678	0.01798
461.59101	0.01768
460.30524	0.01742
459.01947	0.01715
457.73370	0.01689
456.44793	0.01667
455.16216	0.01653
453.87640	0.01645
452.59063	0.01638
451.30486	0.01629
450.01909	0.01616
448.73332	0.01604
447.44755	0.01595
446.16178	0.01589
444.87601	0.01581
443.59025	0.01568
442.30448	0.01551
441.01871	0.01536
439.73294	0.01523
438.44717	0.01514
437.16140	0.01509
435.87563	0.01506
434.58986	0.01504
433.30409	0.01501
432.01833	0.01500
430.73256	0.01501
429.44679	0.01506
428.16102	0.01511
426.87525	0.01510
425.58948	0.01503
424.30371	0.01492
423.01794	0.01484
421.73218	0.01479
420.44641	0.01474
419.16064	0.01470
417.87487	0.01463
416.58910	0.01450
415.30333	0.01429
414.01756	0.01408
412.73179	0.01396
411.44602	0.01396
410.16026	0.01406
408.87449	0.01418
407.58872	0.01429
406.30295	0.01441
405.01718	0.01455
403.73141	0.01469
402.44564	0.01480
401.15987	0.01489
399.87411	0.01497
