3997.45528	0.05952
3996.16951	0.06003
3994.88374	0.06058
3993.59798	0.06112
3992.31221	0.06159
3991.02644	0.06188
3989.74067	0.06187
3988.45490	0.06164
3987.16913	0.06139
3985.88336	0.06128
3984.59759	0.06115
3983.31183	0.06078
3982.02606	0.06006
3980.74029	0.05920
3979.45452	0.05860
3978.16875	0.05848
3976.88298	0.05863
3975.59721	0.05869
3974.31144	0.05855
3973.02567	0.05850
3971.73991	0.05878
3970.45414	0.05934
3969.16837	0.05985
3967.88260	0.06000
3966.59683	0.05972
3965.31106	0.05920
3964.02529	0.05881
3962.73952	0.05874
3961.45376	0.05893
3960.16799	0.05922
3958.88222	0.05949
3957.59645	0.05967
3956.31068	0.05968
3955.02491	0.05959
3953.73914	0.05956
3952.45337	0.05962
3951.16760	0.05958
3949.88184	0.05934
3948.59607	0.05916
3947.31030	0.05930
3946.02453	0.05968
3944.73876	0.06001
3943.45299	0.06007
3942.16722	0.05987
3940.88145	0.05943
3939.59569	0.05883
3938.30992	0.05828
3937.02415	0.05809
3935.73838	0.05837
3934.45261	0.05898
3933.16684	0.05974
3931.88107	0.06055
3930.59530	0.06119
3929.30953	0.06130
3928.02377	0.06068
3926.73800	0.05964
3925.45223	0.05882
3924.16646	0.05863
3922.88069	0.05893
3921.59492	0.05926
3920.30915	0.05934
3919.02338	0.05914
3917.73762	0.05871
3916.45185	0.05805
3915.16608	0.05736
3913.88031	0.05702
3912.59454	0.05728
3911.30877	0.05793
3910.02300	0.05843
3908.73723	0.05845
3907.45146	0.05814
3906.16570	0.05789
3904.87993	0.05774
3903.59416	0.05739
3902.30839	0.05667
3901.02262	0.05592
3899.73685	0.05570
3898.45108	0.05615
3897.16531	0.05675
3895.87955	0.05691
3894.59378	0.05655
3893.30801	0.05621
3892.02224	0.05638
3890.73647	0.05696
3889.45070	0.05733
3888.16493	0.05716
3886.87916	0.05674
3885.59339	0.05654
3884.30763	0.05665
3883.02186	0.05685
3881.73609	0.05704
3880.45032	0.05736
3879.16455	0.05784
3877.87878	0.05825
3876.59301	0.05835
3875.30724	0.05821
3874.02148	0.05813
3872.73571	0.05837
3871.44994	0.05889
3870.16417	0.05936
3868.87840	0.05938
3867.59263	0.05881
3866.30686	0.05792
3865.02109	0.05712
3863.73532	0.05668
3862.44956	0.05651
3861.16379	0.05643
3859.87802	0.05629
3858.59225	0.05602
3857.30648	0.05557
3856.02071	0.05509
3854.73494	0.05488
3853.44917	0.05513
3852.16341	0.05561
3850.87764	0.05589
3849.59187	0.05574
3848.30610	0.05524
3847.02033	0.05466
3845.73456	0.05428
3844.44879	0.05429
3843.16302	0.05468
3841.87725	0.05518
3840.59149	0.05537
3839.30572	0.05500
3838.01995	0.05424
3836.73418	0.05356
3835.44841	0.05331
3834.16264	0.05340
3832.87687	0.05355
3831.59110	0.05364
3830.30534	0.05387
3829.01957	0.05440
3827.73380	0.05500
3826.44803	0.05521
3825.16226	0.05471
3823.87649	0.05362
3822.59072	0.05241
3821.30495	0.05155
3820.01918	0.05129
3818.73342	0.05163
3817.44765	0.05244
3816.16188	0.05355
3814.87611	0.05464
3813.59034	0.05538
3812.30457	0.05560
3811.01880	0.05540
3809.73303	0.05503
3808.44726	0.05461
3807.16150	0.05420
3805.87573	0.05382
3804.58996	0.05363
3803.30419	0.05380
3802.01842	0.05430
3800.73265	0.05482
3799.44688	0.05485
3798.16111	0.05417
3796.87535	0.05301
3795.58958	0.05188
3794.30381	0.05120
3793.01804	0.05111
3791.73227	0.05143
3790.44650	0.05191
3789.16073	0.05230
3787.87496	0.05248
3786.58919	0.05244
3785.30343	0.05213
3784.01766	0.05159
3782.73189	0.05106
3781.44612	0.05096
3780.16035	0.05149
3778.87458	0.05238
3777.58881	0.05308
3776.30304	0.05326
3775.01728	0.05295
3773.73151	0.05252
3772.44574	0.05233
3771.15997	0.05258
3769.87420	0.05317
3768.58843	0.05382
3767.30266	0.05418
3766.01689	0.05408
3764.73112	0.05362
3763.44536	0.05304
3762.15959	0.05259
3760.87382	0.05230
3759.58805	0.05206
3758.30228	0.05176
3757.01651	0.05134
3755.73074	0.05084
3754.44497	0.05025
3753.15921	0.04964
3751.87344	0.04922
3750.58767	0.04923
3749.30190	0.04974
3748.01613	0.05045
3746.73036	0.05106
3745.44459	0.05152
3744.15882	0.05176
3742.87305	0.05175
3741.58729	0.05164
3740.30152	0.05160
3739.01575	0.05166
3737.72998	0.05181
3736.44421	0.05190
3735.15844	0.05192
3733.87267	0.05178
3732.58690	0.05174
3731.30114	0.05203
3730.01537	0.05240
3728.72960	0.05260
3727.44383	0.05233
3726.15806	0.05183
3724.87229	0.05151
3723.58652	0.05142
3722.30075	0.05169
3721.01498	0.05226
3719.72922	0.05278
3718.44345	0.05311
3717.15768	0.05307
3715.87191	0.05254
3714.58614	0.05145
3713.30037	0.05001
3712.01460	0.04916
3710.72883	0.04934
3709.44307	0.05015
3708.15730	0.05123
3706.87153	0.05186
3705.58576	0.05177
3704.29999	0.05134
3703.01422	0.05116
3701.72845	0.05154
3700.44268	0.05229
3699.15691	0.05282
3697.87115	0.05273
3696.58538	0.05197
3695.29961	0.05089
3694.01384	0.04980
3692.72807	0.04926
3691.44230	0.04928
3690.15653	0.04943
3688.87076	0.04939
3687.58500	0.04912
3686.29923	0.04889
3685.01346	0.04914
3683.72769	0.04984
3682.44192	0.05066
3681.15615	0.05132
3679.87038	0.05146
3678.58461	0.05087
3677.29884	0.04993
3676.01308	0.04917
3674.72731	0.04884
3673.44154	0.04882
3672.15577	0.04889
3670.87000	0.04904
3669.58423	0.04936
3668.29846	0.04982
3667.01269	0.05027
3665.72693	0.05055
3664.44116	0.05067
3663.15539	0.05059
3661.86962	0.05038
3660.58385	0.05009
3659.29808	0.04975
3658.01231	0.04952
3656.72654	0.04962
3655.44077	0.05015
3654.15501	0.05080
3652.86924	0.05110
3651.58347	0.05085
3650.29770	0.05044
3649.01193	0.05047
3647.72616	0.05112
3646.44039	0.05203
3645.15462	0.05265
3643.86886	0.05285
3642.58309	0.05272
3641.29732	0.05238
3640.01155	0.05188
3638.72578	0.05136
3637.44001	0.05106
3636.15424	0.05120
3634.86847	0.05164
3633.58270	0.05213
3632.29694	0.05246
3631.01117	0.05264
3629.72540	0.05295
3628.43963	0.05328
3627.15386	0.05342
3625.86809	0.05323
3624.58232	0.05308
3623.29655	0.05305
3622.01079	0.05338
3620.72502	0.05399
3619.43925	0.05486
3618.15348	0.05559
3616.86771	0.05586
3615.58194	0.05585
3614.29617	0.05580
3613.01040	0.05575
3611.72463	0.05559
3610.43887	0.05563
3609.15310	0.05604
3607.86733	0.05662
3606.58156	0.05688
3605.29579	0.05671
3604.01002	0.05643
3602.72425	0.05632
3601.43848	0.05668
3600.15272	0.05735
3598.86695	0.05787
3597.58118	0.05778
3596.29541	0.05737
3595.00964	0.05692
3593.72387	0.05678
3592.43810	0.05733
3591.15233	0.05801
3589.86656	0.05835
3588.58080	0.05855
3587.29503	0.05863
3586.00926	0.05864
3584.72349	0.05861
3583.43772	0.05850
3582.15195	0.05837
3580.86618	0.05834
3579.58041	0.05841
3578.29464	0.05858
3577.00888	0.05886
3575.72311	0.05926
3574.43734	0.05968
3573.15157	0.05996
3571.86580	0.06003
3570.58003	0.05993
3569.29426	0.05985
3568.00849	0.05987
3566.72273	0.05997
3565.43696	0.06005
3564.15119	0.05995
3562.86542	0.05976
3561.57965	0.05964
3560.29388	0.05965
3559.00811	0.05977
3557.72234	0.06010
3556.43657	0.06084
3555.15081	0.06188
3553.86504	0.06278
3552.57927	0.06309
3551.29350	0.06285
3550.00773	0.06251
3548.72196	0.06248
3547.43619	0.06283
3546.15042	0.06337
3544.86466	0.06388
3543.57889	0.06415
3542.29312	0.06411
3541.00735	0.06386
3539.72158	0.06363
3538.43581	0.06354
3537.15004	0.06353
3535.86427	0.06345
3534.57850	0.06335
3533.29274	0.06341
3532.00697	0.06374
3530.72120	0.06424
3529.43543	0.06468
3528.14966	0.06492
3526.86389	0.06502
3525.57812	0.06523
3524.29235	0.06574
3523.00659	0.06650
3521.72082	0.06721
3520.43505	0.06755
3519.14928	0.06740
3517.86351	0.06696
3516.57774	0.06653
3515.29197	0.06630
3514.00620	0.06629
3512.72043	0.06641
3511.43467	0.06649
3510.14890	0.06637
3508.86313	0.06597
3507.57736	0.06549
3506.29159	0.06530
3505.00582	0.06567
3503.72005	0.06653
3502.43428	0.06751
3501.14852	0.06831
3499.86275	0.06890
3498.57698	0.06941
3497.29121	0.06987
3496.00544	0.07016
3494.71967	0.07021
3493.43390	0.07003
3492.14813	0.06974
3490.86236	0.06954
3489.57660	0.06964
3488.29083	0.07006
3487.00506	0.07061
3485.71929	0.07097
3484.43352	0.07096
3483.14775	0.07064
3481.86198	0.07032
3480.57621	0.07026
3479.29045	0.07052
3478.00468	0.07095
3476.71891	0.07138
3475.43314	0.07167
3474.14737	0.07181
3472.86160	0.07179
3471.57583	0.07164
3470.29006	0.07140
3469.00429	0.07110
3467.71853	0.07080
3466.43276	0.07055
3465.14699	0.07041
3463.86122	0.07044
3462.57545	0.07066
3461.28968	0.07103
3460.00391	0.07141
3458.71814	0.07165
3457.43238	0.07168
3456.14661	0.07158
3454.86084	0.07151
3453.57507	0.07163
3452.28930	0.07196
3451.00353	0.07242
3449.71776	0.07282
3448.43199	0.07302
3447.14622	0.07302
3445.86046	0.07299
3444.57469	0.07309
3443.28892	0.07326
3442.00315	0.07339
3440.71738	0.07346
3439.43161	0.07357
3438.14584	0.07375
3436.86007	0.07386
3435.57431	0.07379
3434.28854	0.07360
3433.00277	0.07357
3431.71700	0.07388
3430.43123	0.07441
3429.14546	0.07489
3427.85969	0.07517
3426.57392	0.07531
3425.28815	0.07544
3424.00239	0.07550
3422.71662	0.07542
3421.43085	0.07527
3420.14508	0.07524
3418.85931	0.07541
3417.57354	0.07563
3416.28777	0.07568
3415.00200	0.07547
3413.71624	0.07513
3412.43047	0.07495
3411.14470	0.07503
3409.85893	0.07529
3408.57316	0.07554
3407.28739	0.07568
3406.00162	0.07573
3404.71585	0.07575
3403.43008	0.07592
3402.14432	0.07631
3400.85855	0.07684
3399.57278	0.07719
3398.28701	0.07721
3397.00124	0.07698
3395.71547	0.07671
3394.42970	0.07646
3393.14393	0.07607
3391.85817	0.07551
3390.57240	0.07515
3389.28663	0.07535
3388.00086	0.07602
3386.71509	0.07671
3385.42932	0.07715
3384.14355	0.07741
3382.85778	0.07764
3381.57201	0.07784
3380.28625	0.07797
3379.00048	0.07812
3377.71471	0.07826
3376.42894	0.07816
3375.14317	0.07769
3373.85740	0.07713
3372.57163	0.07697
3371.28586	0.07743
3370.00010	0.07813
3368.71433	0.07843
3367.42856	0.07805
3366.14279	0.07728
3364.85702	0.07663
3363.57125	0.07632
3362.28548	0.07630
3360.99971	0.07645
3359.71394	0.07679
3358.42818	0.07732
3357.14241	0.07789
3355.85664	0.07825
3354.57087	0.07829
3353.28510	0.07816
3351.99933	0.07809
3350.71356	0.07822
3349.42779	0.07850
3348.14202	0.07876
3346.85626	0.07875
3345.57049	0.07840
3344.28472	0.07787
3342.99895	0.07747
3341.71318	0.07739
3340.42741	0.07749
3339.14164	0.07752
3337.85587	0.07734
3336.57011	0.07708
3335.28434	0.07691
3333.99857	0.07687
3332.71280	0.07687
3331.42703	0.07686
3330.14126	0.07687
3328.85549	0.07694
3327.56972	0.07709
3326.28395	0.07726
3324.99819	0.07736
3323.71242	0.07728
3322.42665	0.07704
3321.14088	0.07686
3319.85511	0.07704
3318.56934	0.07756
3317.28357	0.07808
3315.99780	0.07824
3314.71204	0.07802
3313.42627	0.07770
3312.14050	0.07748
3310.85473	0.07730
3309.56896	0.07702
3308.28319	0.07665
3306.99742	0.07639
3305.71165	0.07631
3304.42588	0.07627
3303.14012	0.07611
3301.85435	0.07585
3300.56858	0.07567
3299.28281	0.07566
3297.99704	0.07584
3296.71127	0.07611
3295.42550	0.07640
3294.13973	0.07661
3292.85397	0.07671
3291.56820	0.07675
3290.28243	0.07685
3288.99666	0.07702
3287.71089	0.07713
3286.42512	0.07699
3285.13935	0.07663
3283.85358	0.07630
3282.56781	0.07617
3281.28205	0.07617
3279.99628	0.07609
3278.71051	0.07591
3277.42474	0.07575
3276.13897	0.07571
3274.85320	0.07578
3273.56743	0.07589
3272.28166	0.07601
3270.99590	0.07614
3269.71013	0.07622
3268.42436	0.07619
3267.13859	0.07607
3265.85282	0.07596
3264.56705	0.07594
3263.28128	0.07602
3261.99551	0.07606
3260.70974	0.07594
3259.42398	0.07565
3258.13821	0.07531
3256.85244	0.07506
3255.56667	0.07499
3254.28090	0.07506
3252.99513	0.07524
3251.70936	0.07545
3250.42359	0.07559
3249.13783	0.07560
3247.85206	0.07555
3246.56629	0.07557
3245.28052	0.07565
3243.99475	0.07562
3242.70898	0.07536
3241.42321	0.07493
3240.13744	0.07452
3238.85167	0.07425
3237.56591	0.07420
3236.28014	0.07432
3234.99437	0.07445
3233.70860	0.07447
3232.42283	0.07437
3231.13706	0.07425
3229.85129	0.07419
3228.56552	0.07423
3227.27976	0.07444
3225.99399	0.07481
3224.70822	0.07517
3223.42245	0.07530
3222.13668	0.07517
3220.85091	0.07495
3219.56514	0.07474
3218.27937	0.07449
3216.99360	0.07409
3215.70784	0.07354
3214.42207	0.07299
3213.13630	0.07266
3211.85053	0.07262
3210.56476	0.07267
3209.27899	0.07249
3207.99322	0.07195
3206.70745	0.07129
3205.42169	0.07088
3204.13592	0.07093
3202.85015	0.07137
3201.56438	0.07194
3200.27861	0.07231
3198.99284	0.07230
3197.70707	0.07203
3196.42130	0.07186
3195.13553	0.07204
3193.84977	0.07251
3192.56400	0.07296
3191.27823	0.07318
3189.99246	0.07313
3188.70669	0.07289
3187.42092	0.07254
3186.13515	0.07216
3184.84938	0.07178
3183.56362	0.07139
3182.27785	0.07105
3180.99208	0.07079
3179.70631	0.07061
3178.42054	0.07044
3177.13477	0.07028
3175.84900	0.07018
3174.56323	0.07012
3173.27746	0.07009
3171.99170	0.07010
3170.70593	0.07015
3169.42016	0.07016
3168.13439	0.07009
3166.84862	0.06996
3165.56285	0.06982
3164.27708	0.06967
3162.99131	0.06950
3161.70555	0.06934
3160.41978	0.06927
3159.13401	0.06933
3157.84824	0.06951
3156.56247	0.06969
3155.27670	0.06970
3153.99093	0.06945
3152.70516	0.06903
3151.41939	0.06866
3150.13363	0.06848
3148.84786	0.06852
3147.56209	0.06866
3146.27632	0.06880
3144.99055	0.06887
3143.70478	0.06881
3142.41901	0.06860
3141.13324	0.06822
3139.84748	0.06777
3138.56171	0.06742
3137.27594	0.06733
3135.99017	0.06750
3134.70440	0.06780
3133.41863	0.06802
3132.13286	0.06797
3130.84709	0.06759
3129.56132	0.06701
3128.27556	0.06651
3126.98979	0.06637
3125.70402	0.06667
3124.41825	0.06718
3123.13248	0.06754
3121.84671	0.06756
3120.56094	0.06731
3119.27517	0.06695
3117.98940	0.06662
3116.70364	0.06638
3115.41787	0.06625
3114.13210	0.06623
3112.84633	0.06627
3111.56056	0.06633
3110.27479	0.06631
3108.98902	0.06613
3107.70325	0.06577
3106.41749	0.06540
3105.13172	0.06523
3103.84595	0.06534
3102.56018	0.06558
3101.27441	0.06573
3099.98864	0.06570
3098.70287	0.06556
3097.41710	0.06540
3096.13133	0.06523
3094.84557	0.06504
3093.55980	0.06487
3092.27403	0.06479
3090.98826	0.06476
3089.70249	0.06466
3088.41672	0.06442
3087.13095	0.06418
3085.84518	0.06410
3084.55942	0.06425
3083.27365	0.06457
3081.98788	0.06496
3080.70211	0.06531
3079.41634	0.06546
3078.13057	0.06528
3076.84480	0.06474
3075.55903	0.06402
3074.27326	0.06340
3072.98750	0.06306
3071.70173	0.06301
3070.41596	0.06310
3069.13019	0.06314
3067.84442	0.06307
3066.55865	0.06300
3065.27288	0.06309
3063.98711	0.06335
3062.70135	0.06360
3061.41558	0.06363
3060.12981	0.06339
3058.84404	0.06307
3057.55827	0.06288
3056.27250	0.06284
3054.98673	0.06281
3053.70096	0.06265
3052.41519	0.06235
3051.12943	0.06199
3049.84366	0.06167
3048.55789	0.06142
3047.27212	0.06125
3045.98635	0.06117
3044.70058	0.06123
3043.41481	0.06140
3042.12904	0.06155
3040.84328	0.06153
3039.55751	0.06132
3038.27174	0.06104
3036.98597	0.06086
3035.70020	0.06083
3034.41443	0.06094
3033.12866	0.06112
3031.84289	0.06126
3030.55712	0.06123
3029.27136	0.06097
3027.98559	0.06058
3026.69982	0.06029
3025.41405	0.06024
3024.12828	0.06032
3022.84251	0.06034
3021.55674	0.06017
3020.27097	0.05988
3018.98521	0.05967
3017.69944	0.05963
3016.41367	0.05969
3015.12790	0.05966
3013.84213	0.05944
3012.55636	0.05905
3011.27059	0.05866
3009.98482	0.05836
3008.69905	0.05820
3007.41329	0.05816
3006.12752	0.05821
3004.84175	0.05834
3003.55598	0.05847
3002.27021	0.05854
3000.98444	0.05857
2999.69867	0.05860
2998.41290	0.05863
2997.12714	0.05859
2995.84137	0.05848
2994.55560	0.05842
2993.26983	0.05856
2991.98406	0.05890
2990.69829	0.05930
2989.41252	0.05959
2988.12675	0.05967
2986.84098	0.05946
2985.55522	0.05901
2984.26945	0.05858
2982.98368	0.05852
2981.69791	0.05900
2980.41214	0.05980
2979.12637	0.06058
2977.84060	0.06122
2976.55483	0.06185
2975.26907	0.06265
2973.98330	0.06359
2972.69753	0.06448
2971.41176	0.06514
2970.12599	0.06558
2968.84022	0.06602
2967.55445	0.06673
2966.26868	0.06781
2964.98291	0.06913
2963.69715	0.07050
2962.41138	0.07177
2961.12561	0.07291
2959.83984	0.07393
2958.55407	0.07486
2957.26830	0.07573
2955.98253	0.07661
2954.69676	0.07752
2953.41100	0.07840
2952.12523	0.07911
2950.83946	0.07953
2949.55369	0.07968
2948.26792	0.07965
2946.98215	0.07950
2945.69638	0.07914
2944.41061	0.07862
2943.12484	0.07818
2941.83908	0.07809
2940.55331	0.07847
2939.26754	0.07920
2937.98177	0.08016
2936.69600	0.08124
2935.41023	0.08230
2934.12446	0.08321
2932.83869	0.08396
2931.55293	0.08463
2930.26716	0.08530
2928.98139	0.08599
2927.69562	0.08665
2926.40985	0.08724
2925.12408	0.08782
2923.83831	0.08841
2922.55254	0.08893
2921.26677	0.08918
2919.98101	0.08897
2918.69524	0.08828
2917.40947	0.08726
2916.12370	0.08618
2914.83793	0.08525
2913.55216	0.08448
2912.26639	0.08370
2910.98062	0.08282
2909.69486	0.08189
2908.40909	0.08104
2907.12332	0.08031
2905.83755	0.07966
2904.55178	0.07912
2903.26601	0.07875
2901.98024	0.07849
2900.69447	0.07816
2899.40870	0.07762
2898.12294	0.07688
2896.83717	0.07601
2895.55140	0.07509
2894.26563	0.07423
2892.97986	0.07354
2891.69409	0.07303
2890.40832	0.07259
2889.12255	0.07213
2887.83678	0.07161
2886.55102	0.07110
2885.26525	0.07062
2883.97948	0.07019
2882.69371	0.06982
2881.40794	0.06952
2880.12217	0.06937
2878.83640	0.06948
2877.55063	0.06990
2876.26487	0.07054
2874.97910	0.07119
2873.69333	0.07166
2872.40756	0.07194
2871.12179	0.07214
2869.83602	0.07244
2868.55025	0.07289
2867.26448	0.07337
2865.97871	0.07362
2864.69295	0.07353
2863.40718	0.07325
2862.12141	0.07302
2860.83564	0.07298
2859.54987	0.07304
2858.26410	0.07306
2856.97833	0.07292
2855.69256	0.07264
2854.40680	0.07233
2853.12103	0.07215
2851.83526	0.07207
2850.54949	0.07188
2849.26372	0.07135
2847.97795	0.07046
2846.69218	0.06938
2845.40641	0.06833
2844.12064	0.06738
2842.83488	0.06653
2841.54911	0.06575
2840.26334	0.06497
2838.97757	0.06414
2837.69180	0.06324
2836.40603	0.06233
2835.12026	0.06149
2833.83449	0.06074
2832.54873	0.06008
2831.26296	0.05956
2829.97719	0.05917
2828.69142	0.05881
2827.40565	0.05837
2826.11988	0.05782
2824.83411	0.05724
2823.54834	0.05674
2822.26257	0.05629
2820.97681	0.05581
2819.69104	0.05530
2818.40527	0.05483
2817.11950	0.05450
2815.83373	0.05432
2814.54796	0.05423
2813.26219	0.05424
2811.97642	0.05441
2810.69066	0.05466
2809.40489	0.05481
2808.11912	0.05474
2806.83335	0.05455
2805.54758	0.05430
2804.26181	0.05397
2802.97604	0.05353
2801.69027	0.05313
2800.40450	0.05291
2799.11874	0.05280
2797.83297	0.05262
2796.54720	0.05228
2795.26143	0.05193
2793.97566	0.05172
2792.68989	0.05171
2791.40412	0.05176
2790.11835	0.05167
2788.83259	0.05141
2787.54682	0.05115
2786.26105	0.05108
2784.97528	0.05122
2783.68951	0.05135
2782.40374	0.05132
2781.11797	0.05115
2779.83220	0.05097
2778.54643	0.05083
2777.26067	0.05074
2775.97490	0.05069
2774.68913	0.05066
2773.40336	0.05062
2772.11759	0.05055
2770.83182	0.05042
2769.54605	0.05025
2768.26028	0.05011
2766.97452	0.05006
2765.68875	0.05009
2764.40298	0.05013
2763.11721	0.05010
2761.83144	0.04992
2760.54567	0.04964
2759.25990	0.04941
2757.97413	0.04930
2756.68836	0.04927
2755.40260	0.04918
2754.11683	0.04900
2752.83106	0.04882
2751.54529	0.04877
2750.25952	0.04877
2748.97375	0.04876
2747.68798	0.04876
2746.40221	0.04883
2745.11645	0.04896
2743.83068	0.04906
2742.54491	0.04911
2741.25914	0.04911
2739.97337	0.04901
2738.68760	0.04878
2737.40183	0.04854
2736.11606	0.04848
2734.83029	0.04860
2733.54453	0.04872
2732.25876	0.04861
2730.97299	0.04824
2729.68722	0.04782
2728.40145	0.04757
2727.11568	0.04759
2725.82991	0.04775
2724.54414	0.04784
2723.25838	0.04779
2721.97261	0.04766
2720.68684	0.04756
2719.40107	0.04753
2718.11530	0.04751
2716.82953	0.04745
2715.54376	0.04735
2714.25799	0.04724
2712.97222	0.04714
2711.68646	0.04704
2710.40069	0.04696
2709.11492	0.04691
2707.82915	0.04687
2706.54338	0.04676
2705.25761	0.04653
2703.97184	0.04626
2702.68607	0.04612
2701.40031	0.04617
2700.11454	0.04635
2698.82877	0.04655
2697.54300	0.04668
2696.25723	0.04672
2694.97146	0.04663
2693.68569	0.04644
2692.39992	0.04619
2691.11415	0.04590
2689.82839	0.04563
2688.54262	0.04544
2687.25685	0.04535
2685.97108	0.04530
2684.68531	0.04525
2683.39954	0.04524
2682.11377	0.04530
2680.82800	0.04538
2679.54224	0.04537
2678.25647	0.04521
2676.97070	0.04497
2675.68493	0.04476
2674.39916	0.04467
2673.11339	0.04466
2671.82762	0.04471
2670.54185	0.04480
2669.25608	0.04490
2667.97032	0.04498
2666.68455	0.04500
2665.39878	0.04498
2664.11301	0.04498
2662.82724	0.04505
2661.54147	0.04515
2660.25570	0.04519
2658.96993	0.04506
2657.68417	0.04475
2656.39840	0.04440
2655.11263	0.04418
2653.82686	0.04419
2652.54109	0.04439
2651.25532	0.04467
2649.96955	0.04489
2648.68378	0.04494
2647.39801	0.04477
2646.11225	0.04440
2644.82648	0.04397
2643.54071	0.04360
2642.25494	0.04336
2640.96917	0.04322
2639.68340	0.04312
2638.39763	0.04297
2637.11186	0.04275
2635.82609	0.04245
2634.54033	0.04215
2633.25456	0.04191
2631.96879	0.04174
2630.68302	0.04165
2629.39725	0.04160
2628.11148	0.04154
2626.82571	0.04137
2625.53994	0.04103
2624.25418	0.04050
2622.96841	0.03989
2621.68264	0.03944
2620.39687	0.03930
2619.11110	0.03938
2617.82533	0.03940
2616.53956	0.03922
2615.25379	0.03895
2613.96802	0.03875
2612.68226	0.03868
2611.39649	0.03868
2610.11072	0.03873
2608.82495	0.03886
2607.53918	0.03912
2606.25341	0.03943
2604.96764	0.03957
2603.68187	0.03936
2602.39611	0.03884
2601.11034	0.03823
2599.82457	0.03775
2598.53880	0.03749
2597.25303	0.03748
2595.96726	0.03764
2594.68149	0.03781
2593.39572	0.03786
2592.10995	0.03775
2590.82419	0.03756
2589.53842	0.03737
2588.25265	0.03724
2586.96688	0.03718
2585.68111	0.03723
2584.39534	0.03745
2583.10957	0.03784
2581.82380	0.03824
2580.53804	0.03836
2579.25227	0.03799
2577.96650	0.03724
2576.68073	0.03646
2575.39496	0.03600
2574.10919	0.03590
2572.82342	0.03594
2571.53765	0.03592
2570.25188	0.03584
2568.96612	0.03580
2567.68035	0.03583
2566.39458	0.03591
2565.10881	0.03597
2563.82304	0.03601
2562.53727	0.03604
2561.25150	0.03603
2559.96573	0.03593
2558.67997	0.03575
2557.39420	0.03559
2556.10843	0.03553
2554.82266	0.03561
2553.53689	0.03579
2552.25112	0.03598
2550.96535	0.03603
2549.67958	0.03593
2548.39381	0.03584
2547.10805	0.03593
2545.82228	0.03618
2544.53651	0.03646
2543.25074	0.03668
2541.96497	0.03684
2540.67920	0.03685
2539.39343	0.03659
2538.10766	0.03604
2536.82190	0.03534
2535.53613	0.03469
2534.25036	0.03431
2532.96459	0.03431
2531.67882	0.03461
2530.39305	0.03493
2529.10728	0.03501
2527.82151	0.03478
2526.53574	0.03441
2525.24998	0.03409
2523.96421	0.03394
2522.67844	0.03397
2521.39267	0.03422
2520.10690	0.03468
2518.82113	0.03524
2517.53536	0.03566
2516.24959	0.03579
2514.96383	0.03563
2513.67806	0.03527
2512.39229	0.03483
2511.10652	0.03444
2509.82075	0.03421
2508.53498	0.03415
2507.24921	0.03415
2505.96344	0.03416
2504.67767	0.03418
2503.39191	0.03422
2502.10614	0.03421
2500.82037	0.03416
2499.53460	0.03417
2498.24883	0.03430
2496.96306	0.03451
2495.67729	0.03467
2494.39152	0.03474
2493.10576	0.03476
2491.81999	0.03468
2490.53422	0.03442
2489.24845	0.03399
2487.96268	0.03354
2486.67691	0.03327
2485.39114	0.03319
2484.10537	0.03316
2482.81960	0.03307
2481.53384	0.03298
2480.24807	0.03300
2478.96230	0.03309
2477.67653	0.03307
2476.39076	0.03297
2475.10499	0.03302
2473.81922	0.03334
2472.53345	0.03369
2471.24769	0.03374
2469.96192	0.03342
2468.67615	0.03307
2467.39038	0.03297
2466.10461	0.03316
2464.81884	0.03350
2463.53307	0.03385
2462.24730	0.03410
2460.96153	0.03412
2459.67577	0.03389
2458.39000	0.03361
2457.10423	0.03351
2455.81846	0.03360
2454.53269	0.03371
2453.24692	0.03373
2451.96115	0.03370
2450.67538	0.03363
2449.38962	0.03344
2448.10385	0.03307
2446.81808	0.03263
2445.53231	0.03226
2444.24654	0.03204
2442.96077	0.03196
2441.67500	0.03200
2440.38923	0.03218
2439.10346	0.03241
2437.81770	0.03252
2436.53193	0.03238
2435.24616	0.03204
2433.96039	0.03165
2432.67462	0.03132
2431.38885	0.03121
2430.10308	0.03141
2428.81731	0.03181
2427.53155	0.03207
2426.24578	0.03197
2424.96001	0.03159
2423.67424	0.03127
2422.38847	0.03123
2421.10270	0.03143
2419.81693	0.03165
2418.53116	0.03169
2417.24539	0.03161
2415.95963	0.03159
2414.67386	0.03173
2413.38809	0.03200
2412.10232	0.03225
2410.81655	0.03243
2409.53078	0.03255
2408.24501	0.03262
2406.95924	0.03259
2405.67347	0.03243
2404.38771	0.03214
2403.10194	0.03178
2401.81617	0.03144
2400.53040	0.03113
2399.24463	0.02997
2397.95886	0.02938
2396.67309	0.02973
2395.38732	0.03059
2394.10156	0.03158
2392.81579	0.03241
2391.53002	0.03298
2390.24425	0.03334
2388.95848	0.03364
2387.67271	0.03406
2386.38694	0.03462
2385.10117	0.03516
2383.81540	0.03550
2382.52964	0.03553
2381.24387	0.03532
2379.95810	0.03487
2378.67233	0.03438
2377.38656	0.03421
2376.10079	0.03398
2374.81502	0.03376
2373.52925	0.03395
2372.24349	0.03413
2370.95772	0.03436
2369.67195	0.03378
2368.38618	0.03314
2367.10041	0.03418
2365.81464	0.03641
2364.52887	0.03755
2363.24310	0.03790
2361.95733	0.03874
2360.67157	0.03963
2359.38580	0.03893
2358.10003	0.03770
2356.81426	0.03691
2355.52849	0.03631
2354.24272	0.03629
2352.95695	0.03694
2351.67118	0.03921
2350.38542	0.04365
2349.09965	0.04606
2347.81388	0.04223
2346.52811	0.03604
2345.24234	0.03340
2343.95657	0.03457
2342.67080	0.03593
2341.38503	0.03659
2340.09926	0.03731
2338.81350	0.03792
2337.52773	0.03864
2336.24196	0.03867
2334.95619	0.03862
2333.67042	0.03901
2332.38465	0.03851
2331.09888	0.03775
2329.81311	0.03787
2328.52735	0.03792
2327.24158	0.03824
2325.95581	0.03857
2324.67004	0.03765
2323.38427	0.03611
2322.09850	0.03478
2320.81273	0.03350
2319.52696	0.03335
2318.24119	0.03430
2316.95543	0.03499
2315.66966	0.03494
2314.38389	0.03423
2313.09812	0.03340
2311.81235	0.03277
2310.52658	0.03224
2309.24081	0.03216
2307.95504	0.03245
2306.66928	0.03270
2305.38351	0.03309
2304.09774	0.03327
2302.81197	0.03302
2301.52620	0.03262
2300.24043	0.03239
2298.95466	0.03245
2297.66889	0.03250
2296.38312	0.03236
2295.09736	0.03196
2293.81159	0.03148
2292.52582	0.03114
2291.24005	0.03095
2289.95428	0.03087
2288.66851	0.03069
2287.38274	0.03023
2286.09697	0.02949
2284.81121	0.02873
2283.52544	0.02816
2282.23967	0.02787
2280.95390	0.02780
2279.66813	0.02777
2278.38236	0.02768
2277.09659	0.02743
2275.81082	0.02711
2274.52505	0.02684
2273.23929	0.02664
2271.95352	0.02654
2270.66775	0.02652
2269.38198	0.02648
2268.09621	0.02636
2266.81044	0.02616
2265.52467	0.02591
2264.23890	0.02573
2262.95314	0.02572
2261.66737	0.02591
2260.38160	0.02627
2259.09583	0.02667
2257.81006	0.02679
2256.52429	0.02643
2255.23852	0.02566
2253.95275	0.02485
2252.66698	0.02439
2251.38122	0.02433
2250.09545	0.02428
2248.80968	0.02394
2247.52391	0.02406
2246.23814	0.02454
2244.95237	0.02536
2243.66660	0.02608
2242.38083	0.02628
2241.09507	0.02591
2239.80930	0.02530
2238.52353	0.02489
2237.23776	0.02483
2235.95199	0.02489
2234.66622	0.02470
2233.38045	0.02410
2232.09468	0.02323
2230.80891	0.02239
2229.52315	0.02181
2228.23738	0.02156
2226.95161	0.02151
2225.66584	0.02146
2224.38007	0.02118
2223.09430	0.02047
2221.80853	0.01942
2220.52276	0.01847
2219.23700	0.01815
2217.95123	0.01861
2216.66546	0.01950
2215.37969	0.02028
2214.09392	0.02067
2212.80815	0.02074
2211.52238	0.02066
2210.23661	0.02048
2208.95084	0.02027
2207.66508	0.02017
2206.37931	0.02017
2205.09354	0.02012
2203.80777	0.02000
2202.52200	0.02019
2201.23623	0.02092
2199.95046	0.02170
2198.66469	0.02170
2197.37893	0.02064
2196.09316	0.01912
2194.80739	0.01795
2193.52162	0.01747
2192.23585	0.01748
2190.95008	0.01756
2189.66431	0.01744
2188.37854	0.01726
2187.09277	0.01727
2185.80701	0.01743
2184.52124	0.01729
2183.23547	0.01650
2181.94970	0.01527
2180.66393	0.01423
2179.37816	0.01391
2178.09239	0.01422
2176.80662	0.01464
2175.52085	0.01472
2174.23509	0.01445
2172.94932	0.01404
2171.66355	0.01362
2170.37778	0.01316
2169.09201	0.01277
2167.80624	0.01268
2166.52047	0.01307
2165.23470	0.01389
2163.94894	0.01480
2162.66317	0.01513
2161.37740	0.01424
2160.09163	0.01210
2158.80586	0.00959
2157.52009	0.00787
2156.23432	0.00747
2154.94855	0.00799
2153.66278	0.00876
2152.37702	0.00941
2151.09125	0.01009
2149.80548	0.01102
2148.51971	0.01215
2147.23394	0.01317
2145.94817	0.01394
2144.66240	0.01451
2143.37663	0.01478
2142.09087	0.01450
2140.80510	0.01378
2139.51933	0.01321
2138.23356	0.01324
2136.94779	0.01374
2135.66202	0.01433
2134.37625	0.01491
2133.09048	0.01563
2131.80471	0.01641
2130.51895	0.01696
2129.23318	0.01715
2127.94741	0.01717
2126.66164	0.01731
2125.37587	0.01750
2124.09010	0.01749
2122.80433	0.01722
2121.51856	0.01689
2120.23280	0.01678
2118.94703	0.01698
2117.66126	0.01744
2116.37549	0.01815
2115.08972	0.01896
2113.80395	0.01961
2112.51818	0.01982
2111.23241	0.01953
2109.94664	0.01884
2108.66088	0.01794
2107.37511	0.01712
2106.08934	0.01664
2104.80357	0.01660
2103.51780	0.01685
2102.23203	0.01716
2100.94626	0.01741
2099.66049	0.01719
2098.37473	0.01695
2097.08896	0.01657
2095.80319	0.01599
2094.51742	0.01558
2093.23165	0.01576
2091.94588	0.01665
2090.66011	0.01783
2089.37434	0.01869
2088.08857	0.01884
2086.80281	0.01846
2085.51704	0.01796
2084.23127	0.01762
2082.94550	0.01735
2081.65973	0.01696
2080.37396	0.01636
2079.08819	0.01563
2077.80242	0.01491
2076.51666	0.01435
2075.23089	0.01400
2073.94512	0.01386
2072.65935	0.01388
2071.37358	0.01393
2070.08781	0.01384
2068.80204	0.01349
2067.51627	0.01298
2066.23050	0.01256
2064.94474	0.01241
2063.65897	0.01245
2062.37320	0.01252
2061.08743	0.01257
2059.80166	0.01265
2058.51589	0.01259
2057.23012	0.01212
2055.94435	0.01122
2054.65859	0.01018
2053.37282	0.00947
2052.08705	0.00938
2050.80128	0.00983
2049.51551	0.01038
2048.22974	0.01050
2046.94397	0.01006
2045.65820	0.00941
2044.37243	0.00901
2043.08667	0.00901
2041.80090	0.00932
2040.51513	0.00968
2039.22936	0.00983
2037.94359	0.00956
2036.65782	0.00888
2035.37205	0.00810
2034.08628	0.00757
2032.80052	0.00738
2031.51475	0.00734
2030.22898	0.00736
2028.94321	0.00755
2027.65744	0.00797
2026.37167	0.00828
2025.08590	0.00801
2023.80013	0.00715
2022.51436	0.00629
2021.22860	0.00600
2019.94283	0.00624
2018.65706	0.00656
2017.37129	0.00665
2016.08552	0.00667
2014.79975	0.00693
2013.51398	0.00766
2012.22821	0.00871
2010.94245	0.00965
2009.65668	0.00993
2008.37091	0.00942
2007.08514	0.00863
2005.79937	0.00828
2004.51360	0.00864
2003.22783	0.00941
2001.94206	0.01018
2000.65629	0.01087
1999.37053	0.01166
1998.08476	0.01255
1996.79899	0.01325
1995.51322	0.01347
1994.22745	0.01318
1992.94168	0.01266
1991.65591	0.01232
1990.37014	0.01237
1989.08438	0.01275
1987.79861	0.01316
1986.51284	0.01332
1985.22707	0.01320
1983.94130	0.01291
1982.65553	0.01254
1981.36976	0.01207
1980.08399	0.01149
1978.79822	0.01091
1977.51246	0.01049
1976.22669	0.01031
1974.94092	0.01031
1973.65515	0.01033
1972.36938	0.01023
1971.08361	0.01006
1969.79784	0.01007
1968.51207	0.01043
1967.22631	0.01103
1965.94054	0.01156
1964.65477	0.01183
1963.36900	0.01194
1962.08323	0.01211
1960.79746	0.01250
1959.51169	0.01309
1958.22592	0.01370
1956.94015	0.01410
1955.65439	0.01431
1954.36862	0.01456
1953.08285	0.01498
1951.79708	0.01534
1950.51131	0.01527
1949.22554	0.01480
1947.93977	0.01441
1946.65400	0.01454
1945.36823	0.01519
1944.08247	0.01590
1942.79670	0.01626
1941.51093	0.01617
1940.22516	0.01590
1938.93939	0.01578
1937.65362	0.01587
1936.36785	0.01597
1935.08208	0.01592
1933.79632	0.01587
1932.51055	0.01607
1931.22478	0.01660
1929.93901	0.01724
1928.65324	0.01763
1927.36747	0.01756
1926.08170	0.01710
1924.79593	0.01651
1923.51016	0.01609
1922.22440	0.01600
1920.93863	0.01617
1919.65286	0.01638
1918.36709	0.01647
1917.08132	0.01652
1915.79555	0.01668
1914.50978	0.01701
1913.22401	0.01731
1911.93825	0.01736
1910.65248	0.01713
1909.36671	0.01686
1908.08094	0.01683
1906.79517	0.01705
1905.50940	0.01726
1904.22363	0.01725
1902.93786	0.01706
1901.65209	0.01690
1900.36633	0.01694
1899.08056	0.01717
1897.79479	0.01749
1896.50902	0.01779
1895.22325	0.01799
1893.93748	0.01807
1892.65171	0.01801
1891.36594	0.01788
1890.08018	0.01772
1888.79441	0.01756
1887.50864	0.01747
1886.22287	0.01748
1884.93710	0.01755
1883.65133	0.01755
1882.36556	0.01739
1881.07979	0.01713
1879.79402	0.01693
1878.50826	0.01696
1877.22249	0.01724
1875.93672	0.01768
1874.65095	0.01804
1873.36518	0.01816
1872.07941	0.01801
1870.79364	0.01771
1869.50787	0.01746
1868.22211	0.01738
1866.93634	0.01749
1865.65057	0.01773
1864.36480	0.01797
1863.07903	0.01811
1861.79326	0.01808
1860.50749	0.01791
1859.22172	0.01772
1857.93595	0.01762
1856.65019	0.01764
1855.36442	0.01768
1854.07865	0.01772
1852.79288	0.01776
1851.50711	0.01782
1850.22134	0.01788
1848.93557	0.01788
1847.64980	0.01783
1846.36404	0.01774
1845.07827	0.01763
1843.79250	0.01754
1842.50673	0.01747
1841.22096	0.01746
1839.93519	0.01750
1838.64942	0.01760
1837.36365	0.01774
1836.07788	0.01794
1834.79212	0.01816
1833.50635	0.01836
1832.22058	0.01852
1830.93481	0.01865
1829.64904	0.01876
1828.36327	0.01881
1827.07750	0.01875
1825.79173	0.01863
1824.50597	0.01856
1823.22020	0.01860
1821.93443	0.01865
1820.64866	0.01861
1819.36289	0.01845
1818.07712	0.01829
1816.79135	0.01828
1815.50558	0.01846
1814.21981	0.01875
1812.93405	0.01905
1811.64828	0.01927
1810.36251	0.01935
1809.07674	0.01929
1807.79097	0.01915
1806.50520	0.01903
1805.21943	0.01901
1803.93366	0.01908
1802.64790	0.01921
1801.36213	0.01935
1800.07636	0.01945
1798.79059	0.01947
1797.50482	0.01942
1796.21905	0.01932
1794.93328	0.01924
1793.64751	0.01919
1792.36174	0.01924
1791.07598	0.01939
1789.79021	0.01953
1788.50444	0.01956
1787.21867	0.01943
1785.93290	0.01923
1784.64713	0.01909
1783.36136	0.01908
1782.07559	0.01916
1780.78983	0.01924
1779.50406	0.01928
1778.21829	0.01928
1776.93252	0.01930
1775.64675	0.01935
1774.36098	0.01942
1773.07521	0.01949
1771.78944	0.01954
1770.50367	0.01958
1769.21791	0.01962
1767.93214	0.01967
1766.64637	0.01975
1765.36060	0.01988
1764.07483	0.01999
1762.78906	0.02003
1761.50329	0.02000
1760.21752	0.01996
1758.93176	0.01996
1757.64599	0.02000
1756.36022	0.02003
1755.07445	0.02001
1753.78868	0.01994
1752.50291	0.01985
1751.21714	0.01982
1749.93137	0.01986
1748.64560	0.01994
1747.35984	0.02003
1746.07407	0.02006
1744.78830	0.02004
1743.50253	0.01997
1742.21676	0.01993
1740.93099	0.01993
1739.64522	0.01997
1738.35945	0.01999
1737.07369	0.01995
1735.78792	0.01986
1734.50215	0.01981
1733.21638	0.01988
1731.93061	0.02006
1730.64484	0.02028
1729.35907	0.02048
1728.07330	0.02065
1726.78753	0.02081
1725.50177	0.02097
1724.21600	0.02113
1722.93023	0.02124
1721.64446	0.02126
1720.35869	0.02119
1719.07292	0.02111
1717.78715	0.02115
1716.50138	0.02138
1715.21561	0.02178
1713.92985	0.02227
1712.64408	0.02275
1711.35831	0.02318
1710.07254	0.02355
1708.78677	0.02389
1707.50100	0.02422
1706.21523	0.02458
1704.92946	0.02491
1703.64370	0.02514
1702.35793	0.02525
1701.07216	0.02535
1699.78639	0.02560
1698.50062	0.02605
1697.21485	0.02663
1695.92908	0.02728
1694.64331	0.02791
1693.35754	0.02847
1692.07178	0.02890
1690.78601	0.02923
1689.50024	0.02948
1688.21447	0.02964
1686.92870	0.02971
1685.64293	0.02980
1684.35716	0.03008
1683.07139	0.03065
1681.78563	0.03140
1680.49986	0.03208
1679.21409	0.03254
1677.92832	0.03280
1676.64255	0.03297
1675.35678	0.03323
1674.07101	0.03360
1672.78524	0.03405
1671.49947	0.03451
1670.21371	0.03497
1668.92794	0.03548
1667.64217	0.03599
1666.35640	0.03648
1665.07063	0.03690
1663.78486	0.03728
1662.49909	0.03768
1661.21332	0.03809
1659.92756	0.03848
1658.64179	0.03877
1657.35602	0.03888
1656.07025	0.03882
1654.78448	0.03869
1653.49871	0.03869
1652.21294	0.03894
1650.92717	0.03936
1649.64140	0.03976
1648.35564	0.04004
1647.06987	0.04024
1645.78410	0.04043
1644.49833	0.04063
1643.21256	0.04080
1641.92679	0.04088
1640.64102	0.04084
1639.35525	0.04065
1638.06949	0.04037
1636.78372	0.04008
1635.49795	0.03993
1634.21218	0.03993
1632.92641	0.04003
1631.64064	0.04011
1630.35487	0.04009
1629.06910	0.03995
1627.78333	0.03971
1626.49757	0.03941
1625.21180	0.03915
1623.92603	0.03899
1622.64026	0.03889
1621.35449	0.03879
1620.06872	0.03860
1618.78295	0.03835
1617.49718	0.03814
1616.21142	0.03807
1614.92565	0.03813
1613.63988	0.03824
1612.35411	0.03833
1611.06834	0.03839
1609.78257	0.03847
1608.49680	0.03857
1607.21103	0.03870
1605.92526	0.03881
1604.63950	0.03891
1603.35373	0.03900
1602.06796	0.03911
1600.78219	0.03926
1599.49642	0.03944
1598.21065	0.03963
1596.92488	0.03983
1595.63911	0.04003
1594.35335	0.04024
1593.06758	0.04046
1591.78181	0.04073
1590.49604	0.04104
1589.21027	0.04140
1587.92450	0.04178
1586.63873	0.04215
1585.35296	0.04250
1584.06719	0.04282
1582.78143	0.04312
1581.49566	0.04341
1580.20989	0.04368
1578.92412	0.04397
1577.63835	0.04435
1576.35258	0.04486
1575.06681	0.04551
1573.78104	0.04617
1572.49528	0.04675
1571.20951	0.04719
1569.92374	0.04757
1568.63797	0.04796
1567.35220	0.04840
1566.06643	0.04889
1564.78066	0.04934
1563.49489	0.04968
1562.20912	0.04985
1560.92336	0.04994
1559.63759	0.05012
1558.35182	0.05052
1557.06605	0.05108
1555.78028	0.05167
1554.49451	0.05219
1553.20874	0.05264
1551.92297	0.05304
1550.63721	0.05339
1549.35144	0.05369
1548.06567	0.05388
1546.77990	0.05395
1545.49413	0.05390
1544.20836	0.05374
1542.92259	0.05351
1541.63682	0.05328
1540.35105	0.05319
1539.06529	0.05330
1537.77952	0.05353
1536.49375	0.05373
1535.20798	0.05386
1533.92221	0.05396
1532.63644	0.05413
1531.35067	0.05440
1530.06490	0.05475
1528.77914	0.05514
1527.49337	0.05559
1526.20760	0.05611
1524.92183	0.05671
1523.63606	0.05738
1522.35029	0.05817
1521.06452	0.05907
1519.77875	0.06006
1518.49298	0.06112
1517.20722	0.06224
1515.92145	0.06344
1514.63568	0.06474
1513.34991	0.06610
1512.06414	0.06748
1510.77837	0.06878
1509.49260	0.07000
1508.20683	0.07122
1506.92107	0.07259
1505.63530	0.07413
1504.34953	0.07571
1503.06376	0.07720
1501.77799	0.07851
1500.49222	0.07967
1499.20645	0.08073
1497.92068	0.08175
1496.63491	0.08277
1495.34915	0.08378
1494.06338	0.08474
1492.77761	0.08564
1491.49184	0.08651
1490.20607	0.08743
1488.92030	0.08845
1487.63453	0.08960
1486.34876	0.09087
1485.06299	0.09222
1483.77723	0.09358
1482.49146	0.09494
1481.20569	0.09627
1479.91992	0.09761
1478.63415	0.09894
1477.34838	0.10025
1476.06261	0.10153
1474.77684	0.10277
1473.49108	0.10397
1472.20531	0.10516
1470.91954	0.10632
1469.63377	0.10742
1468.34800	0.10840
1467.06223	0.10922
1465.77646	0.10989
1464.49069	0.11049
1463.20492	0.11106
1461.91916	0.11160
1460.63339	0.11210
1459.34762	0.11264
1458.06185	0.11335
1456.77608	0.11430
1455.49031	0.11537
1454.20454	0.11637
1452.91877	0.11717
1451.63301	0.11779
1450.34724	0.11831
1449.06147	0.11878
1447.77570	0.11918
1446.48993	0.11949
1445.20416	0.11968
1443.91839	0.11973
1442.63262	0.11963
1441.34685	0.11941
1440.06109	0.11915
1438.77532	0.11897
1437.48955	0.11897
1436.20378	0.11920
1434.91801	0.11960
1433.63224	0.12011
1432.34647	0.12074
1431.06070	0.12155
1429.77494	0.12261
1428.48917	0.12389
1427.20340	0.12535
1425.91763	0.12690
1424.63186	0.12847
1423.34609	0.12997
1422.06032	0.13140
1420.77455	0.13281
1419.48878	0.13423
1418.20302	0.13564
1416.91725	0.13692
1415.63148	0.13799
1414.34571	0.13883
1413.05994	0.13945
1411.77417	0.13986
1410.48840	0.14003
1409.20263	0.13990
1407.91687	0.13948
1406.63110	0.13878
1405.34533	0.13786
1404.05956	0.13671
1402.77379	0.13531
1401.48802	0.13366
1400.20225	0.13177
1398.91648	0.12970
1397.63071	0.12751
1396.34495	0.12523
1395.05918	0.12287
1393.77341	0.12045
1392.48764	0.11801
1391.20187	0.11554
1389.91610	0.11304
1388.63033	0.11054
1387.34456	0.10812
1386.05880	0.10586
1384.77303	0.10374
1383.48726	0.10167
1382.20149	0.09955
1380.91572	0.09736
1379.62995	0.09516
1378.34418	0.09295
1377.05841	0.09071
1375.77264	0.08836
1374.48688	0.08589
1373.20111	0.08332
1371.91534	0.08072
1370.62957	0.07818
1369.34380	0.07578
1368.05803	0.07354
1366.77226	0.07141
1365.48649	0.06935
1364.20073	0.06734
1362.91496	0.06538
1361.62919	0.06353
1360.34342	0.06182
1359.05765	0.06022
1357.77188	0.05872
1356.48611	0.05730
1355.20034	0.05598
1353.91457	0.05479
1352.62881	0.05373
1351.34304	0.05278
1350.05727	0.05189
1348.77150	0.05103
1347.48573	0.05018
1346.19996	0.04934
1344.91419	0.04852
1343.62842	0.04774
1342.34266	0.04700
1341.05689	0.04630
1339.77112	0.04563
1338.48535	0.04500
1337.19958	0.04440
1335.91381	0.04383
1334.62804	0.04330
1333.34227	0.04282
1332.05650	0.04237
1330.77074	0.04195
1329.48497	0.04154
1328.19920	0.04111
1326.91343	0.04068
1325.62766	0.04026
1324.34189	0.03985
1323.05612	0.03945
1321.77035	0.03904
1320.48459	0.03865
1319.19882	0.03828
1317.91305	0.03792
1316.62728	0.03754
1315.34151	0.03714
1314.05574	0.03676
1312.76997	0.03644
1311.48420	0.03621
1310.19843	0.03601
1308.91267	0.03578
1307.62690	0.03550
1306.34113	0.03520
1305.05536	0.03491
1303.76959	0.03466
1302.48382	0.03443
1301.19805	0.03423
1299.91228	0.03402
1298.62652	0.03381
1297.34075	0.03361
1296.05498	0.03340
1294.76921	0.03316
1293.48344	0.03286
1292.19767	0.03252
1290.91190	0.03220
1289.62613	0.03192
1288.34036	0.03170
1287.05460	0.03151
1285.76883	0.03134
1284.48306	0.03118
1283.19729	0.03100
1281.91152	0.03078
1280.62575	0.03052
1279.33998	0.03027
1278.05421	0.03008
1276.76845	0.02996
1275.48268	0.02984
1274.19691	0.02966
1272.91114	0.02942
1271.62537	0.02918
1270.33960	0.02899
1269.05383	0.02884
1267.76806	0.02871
1266.48229	0.02855
1265.19653	0.02837
1263.91076	0.02820
1262.62499	0.02804
1261.33922	0.02788
1260.05345	0.02769
1258.76768	0.02750
1257.48191	0.02731
1256.19614	0.02714
1254.91037	0.02699
1253.62461	0.02687
1252.33884	0.02678
1251.05307	0.02669
1249.76730	0.02659
1248.48153	0.02648
1247.19576	0.02637
1245.90999	0.02625
1244.62422	0.02608
1243.33846	0.02588
1242.05269	0.02567
1240.76692	0.02549
1239.48115	0.02537
1238.19538	0.02529
1236.90961	0.02519
1235.62384	0.02506
1234.33807	0.02491
1233.05230	0.02474
1231.76654	0.02453
1230.48077	0.02429
1229.19500	0.02403
1227.90923	0.02380
1226.62346	0.02362
1225.33769	0.02348
1224.05192	0.02333
1222.76615	0.02316
1221.48039	0.02298
1220.19462	0.02282
1218.90885	0.02267
1217.62308	0.02254
1216.33731	0.02243
1215.05154	0.02236
1213.76577	0.02231
1212.48000	0.02227
1211.19423	0.02221
1209.90847	0.02214
1208.62270	0.02207
1207.33693	0.02199
1206.05116	0.02190
1204.76539	0.02177
1203.47962	0.02163
1202.19385	0.02148
1200.90808	0.02138
1199.62232	0.02134
1198.33655	0.02124
1197.05078	0.02111
1195.76501	0.02096
1194.47924	0.02078
1193.19347	0.02058
1191.90770	0.02034
1190.62193	0.02011
1189.33616	0.01995
1188.05040	0.01986
1186.76463	0.01985
1185.47886	0.01988
1184.19309	0.01990
1182.90732	0.01989
1181.62155	0.01982
1180.33578	0.01972
1179.05001	0.01964
1177.76425	0.01960
1176.47848	0.01955
1175.19271	0.01949
1173.90694	0.01944
1172.62117	0.01947
1171.33540	0.01958
1170.04963	0.01973
1168.76386	0.01981
1167.47809	0.01978
1166.19233	0.01969
1164.90656	0.01964
1163.62079	0.01966
1162.33502	0.01971
1161.04925	0.01974
1159.76348	0.01977
1158.47771	0.01984
1157.19194	0.01992
1155.90618	0.02000
1154.62041	0.02010
1153.33464	0.02025
1152.04887	0.02043
1150.76310	0.02061
1149.47733	0.02081
1148.19156	0.02107
1146.90579	0.02143
1145.62002	0.02184
1144.33426	0.02227
1143.04849	0.02272
1141.76272	0.02326
1140.47695	0.02391
1139.19118	0.02470
1137.90541	0.02564
1136.61964	0.02674
1135.33387	0.02797
1134.04811	0.02929
1132.76234	0.03078
1131.47657	0.03253
1130.19080	0.03462
1128.90503	0.03700
1127.61926	0.03963
1126.33349	0.04247
1125.04772	0.04551
1123.76195	0.04872
1122.47619	0.05206
1121.19042	0.05551
1119.90465	0.05904
1118.61888	0.06263
1117.33311	0.06622
1116.04734	0.06980
1114.76157	0.07334
1113.47580	0.07681
1112.19004	0.08019
1110.90427	0.08347
1109.61850	0.08665
1108.33273	0.08971
1107.04696	0.09268
1105.76119	0.09560
1104.47542	0.09851
1103.18965	0.10136
1101.90388	0.10406
1100.61812	0.10660
1099.33235	0.10908
1098.04658	0.11155
1096.76081	0.11395
1095.47504	0.11618
1094.18927	0.11820
1092.90350	0.12009
1091.61773	0.12189
1090.33197	0.12364
1089.04620	0.12535
1087.76043	0.12700
1086.47466	0.12862
1085.18889	0.13023
1083.90312	0.13188
1082.61735	0.13360
1081.33158	0.13542
1080.04581	0.13741
1078.76005	0.13962
1077.47428	0.14207
1076.18851	0.14475
1074.90274	0.14758
1073.61697	0.15050
1072.33120	0.15344
1071.04543	0.15639
1069.75966	0.15942
1068.47390	0.16260
1067.18813	0.16601
1065.90236	0.16955
1064.61659	0.17310
1063.33082	0.17659
1062.04505	0.18007
1060.75928	0.18358
1059.47351	0.18708
1058.18774	0.19050
1056.90198	0.19381
1055.61621	0.19703
1054.33044	0.20021
1053.04467	0.20344
1051.75890	0.20678
1050.47313	0.21026
1049.18736	0.21384
1047.90159	0.21743
1046.61583	0.22099
1045.33006	0.22456
1044.04429	0.22820
1042.75852	0.23192
1041.47275	0.23570
1040.18698	0.23952
1038.90121	0.24338
1037.61544	0.24727
1036.32967	0.25116
1035.04391	0.25493
1033.75814	0.25852
1032.47237	0.26191
1031.18660	0.26514
1029.90083	0.26816
1028.61506	0.27091
1027.32929	0.27331
1026.04352	0.27536
1024.75775	0.27701
1023.47199	0.27820
1022.18622	0.27892
1020.90045	0.27918
1019.61468	0.27903
1018.32891	0.27847
1017.04314	0.27743
1015.75737	0.27583
1014.47160	0.27364
1013.18584	0.27086
1011.90007	0.26756
1010.61430	0.26380
1009.32853	0.25962
1008.04276	0.25500
1006.75699	0.24995
1005.47122	0.24447
1004.18545	0.23857
1002.89968	0.23222
1001.61392	0.22547
1000.32815	0.21842
999.04238	0.21122
997.75661	0.20398
996.47084	0.19668
995.18507	0.18933
993.89930	0.18200
992.61353	0.17486
991.32777	0.16802
990.04200	0.16144
988.75623	0.15503
987.47046	0.14877
986.18469	0.14282
984.89892	0.13725
983.61315	0.13203
982.32738	0.12711
981.04161	0.12249
979.75585	0.11822
978.47008	0.11428
977.18431	0.11067
975.89854	0.10740
974.61277	0.10458
973.32700	0.10224
972.04123	0.10043
970.75546	0.09918
969.46970	0.09852
968.18393	0.09845
966.89816	0.09888
965.61239	0.09973
964.32662	0.10087
963.04085	0.10204
961.75508	0.10291
960.46931	0.10319
959.18354	0.10277
957.89778	0.10168
956.61201	0.09998
955.32624	0.09777
954.04047	0.09527
952.75470	0.09272
951.46893	0.09024
950.18316	0.08783
948.89739	0.08545
947.61163	0.08310
946.32586	0.08083
945.04009	0.07865
943.75432	0.07655
942.46855	0.07453
941.18278	0.07257
939.89701	0.07071
938.61124	0.06898
937.32547	0.06741
936.03971	0.06600
934.75394	0.06476
933.46817	0.06362
932.18240	0.06249
930.89663	0.06134
929.61086	0.06021
928.32509	0.05919
927.03932	0.05829
925.75356	0.05747
924.46779	0.05668
923.18202	0.05589
921.89625	0.05511
920.61048	0.05438
919.32471	0.05373
918.03894	0.05313
916.75317	0.05252
915.46740	0.05187
914.18164	0.05121
912.89587	0.05058
911.61010	0.05003
910.32433	0.04957
909.03856	0.04920
907.75279	0.04885
906.46702	0.04848
905.18125	0.04803
903.89549	0.04754
902.60972	0.04707
901.32395	0.04666
900.03818	0.04630
898.75241	0.04596
897.46664	0.04564
896.18087	0.04534
894.89510	0.04505
893.60933	0.04472
892.32357	0.04441
891.03780	0.04424
889.75203	0.04441
888.46626	0.04511
887.18049	0.04646
885.89472	0.04846
884.60895	0.05112
883.32318	0.05440
882.03742	0.05816
880.75165	0.06204
879.46588	0.06561
878.18011	0.06863
876.89434	0.07124
875.60857	0.07371
874.32280	0.07603
873.03703	0.07777
871.75126	0.07837
870.46550	0.07763
869.17973	0.07575
867.89396	0.07314
866.60819	0.07012
865.32242	0.06690
864.03665	0.06363
862.75088	0.06047
861.46511	0.05756
860.17935	0.05502
858.89358	0.05292
857.60781	0.05126
856.32204	0.04997
855.03627	0.04892
853.75050	0.04800
852.46473	0.04715
851.17896	0.04637
849.89319	0.04566
848.60743	0.04502
847.32166	0.04447
846.03589	0.04401
844.75012	0.04362
843.46435	0.04326
842.17858	0.04289
840.89281	0.04252
839.60704	0.04214
838.32128	0.04175
837.03551	0.04140
835.74974	0.04113
834.46397	0.04094
833.17820	0.04074
831.89243	0.04046
830.60666	0.04014
829.32089	0.03990
828.03512	0.03979
826.74936	0.03975
825.46359	0.03963
824.17782	0.03938
822.89205	0.03908
821.60628	0.03885
820.32051	0.03874
819.03474	0.03875
817.74897	0.03881
816.46321	0.03885
815.17744	0.03881
813.89167	0.03870
812.60590	0.03857
811.32013	0.03848
810.03436	0.03839
808.74859	0.03828
807.46282	0.03810
806.17705	0.03790
804.89129	0.03773
803.60552	0.03765
802.31975	0.03765
801.03398	0.03766
799.74821	0.03762
798.46244	0.03753
797.17667	0.03737
795.89090	0.03717
794.60513	0.03693
793.31937	0.03669
792.03360	0.03652
790.74783	0.03645
789.46206	0.03648
788.17629	0.03657
786.89052	0.03667
785.60475	0.03673
784.31898	0.03672
783.03322	0.03664
781.74745	0.03652
780.46168	0.03639
779.17591	0.03625
777.89014	0.03608
776.60437	0.03589
775.31860	0.03572
774.03283	0.03560
772.74706	0.03552
771.46130	0.03543
770.17553	0.03534
768.88976	0.03531
767.60399	0.03545
766.31822	0.03574
765.03245	0.03603
763.74668	0.03618
762.46091	0.03615
761.17515	0.03601
759.88938	0.03584
758.60361	0.03575
757.31784	0.03581
756.03207	0.03604
754.74630	0.03631
753.46053	0.03642
752.17476	0.03629
750.88899	0.03596
749.60323	0.03562
748.31746	0.03540
747.03169	0.03534
745.74592	0.03539
744.46015	0.03544
743.17438	0.03541
741.88861	0.03526
740.60284	0.03506
739.31708	0.03489
738.03131	0.03483
736.74554	0.03486
735.45977	0.03491
734.17400	0.03492
732.88823	0.03490
731.60246	0.03484
730.31669	0.03471
729.03092	0.03448
727.74516	0.03424
726.45939	0.03413
725.17362	0.03420
723.88785	0.03464
722.60208	0.03486
721.31631	0.03473
720.03054	0.03466
718.74477	0.03488
717.45901	0.03498
716.17324	0.03499
714.88747	0.03504
713.60170	0.03513
712.31593	0.03520
711.03016	0.03521
709.74439	0.03517
708.45862	0.03511
707.17285	0.03503
705.88709	0.03494
704.60132	0.03484
703.31555	0.03473
702.02978	0.03465
700.74401	0.03460
699.45824	0.03456
698.17247	0.03448
696.88670	0.03436
695.60094	0.03423
694.31517	0.03418
693.02940	0.03423
691.74363	0.03435
690.45786	0.03447
689.17209	0.03452
687.88632	0.03449
686.60055	0.03439
685.31478	0.03427
684.02902	0.03417
682.74325	0.03411
681.45748	0.03411
680.17171	0.03413
678.88594	0.03414
677.60017	0.03411
676.31440	0.03402
675.02863	0.03396
673.74287	0.03410
672.45710	0.03466
671.17133	0.03506
669.88556	0.03344
668.59979	0.03006
667.31402	0.03110
666.02825	0.03468
664.74248	0.03517
663.45671	0.03402
662.17095	0.03314
660.88518	0.03277
659.59941	0.03268
658.31364	0.03270
657.02787	0.03267
655.74210	0.03254
654.45633	0.03235
653.17056	0.03212
651.88480	0.03194
650.59903	0.03180
649.31326	0.03171
648.02749	0.03173
646.74172	0.03176
645.45595	0.03169
644.17018	0.03158
642.88441	0.03145
641.59864	0.03134
640.31288	0.03129
639.02711	0.03131
637.74134	0.03140
636.45557	0.03152
635.16980	0.03166
633.88403	0.03181
632.59826	0.03197
631.31249	0.03207
630.02673	0.03205
628.74096	0.03225
627.45519	0.03316
626.16942	0.03355
624.88365	0.03402
623.59788	0.03529
622.31211	0.03721
621.02634	0.03919
619.74057	0.04100
618.45481	0.04302
617.16904	0.04561
615.88327	0.04895
614.59750	0.05320
613.31173	0.05855
612.02596	0.06491
610.74019	0.07177
609.45442	0.07841
608.16866	0.08439
606.88289	0.08977
605.59712	0.09468
604.31135	0.09864
603.02558	0.10093
601.73981	0.10131
600.45404	0.10021
599.16827	0.09827
597.88250	0.09585
596.59674	0.09309
595.31097	0.09016
594.02520	0.08733
592.73943	0.08494
591.45366	0.08319
590.16789	0.08211
588.88212	0.08163
587.59635	0.08169
586.31059	0.08228
585.02482	0.08345
583.73905	0.08522
582.45328	0.08753
581.16751	0.09025
579.88174	0.09322
578.59597	0.09629
577.31020	0.09929
576.02443	0.10206
574.73867	0.10447
573.45290	0.10654
572.16713	0.10843
570.88136	0.11047
569.59559	0.11310
568.30982	0.11660
567.02405	0.12089
565.73828	0.12550
564.45251	0.12975
563.16675	0.13299
561.88098	0.13469
560.59521	0.13442
559.30944	0.13199
558.02367	0.12762
556.73790	0.12195
555.45213	0.11560
554.16636	0.10905
552.88060	0.10252
551.59483	0.09619
550.30906	0.09016
549.02329	0.08456
547.73752	0.07955
546.45175	0.07521
545.16598	0.07149
543.88021	0.06820
542.59444	0.06521
541.30868	0.06253
540.02291	0.06023
538.73714	0.05832
537.45137	0.05670
536.16560	0.05519
534.87983	0.05368
533.59406	0.05210
532.30829	0.05049
531.02253	0.04892
529.73676	0.04744
528.45099	0.04611
527.16522	0.04498
525.87945	0.04405
524.59368	0.04326
523.30791	0.04255
522.02214	0.04189
520.73637	0.04124
519.45061	0.04059
518.16484	0.03994
516.87907	0.03931
515.59330	0.03868
514.30753	0.03803
513.02176	0.03734
511.73599	0.03666
510.45022	0.03604
509.16446	0.03549
507.87869	0.03500
506.59292	0.03453
505.30715	0.03408
504.02138	0.03366
502.73561	0.03328
501.44984	0.03294
500.16407	0.03258
498.87830	0.03220
497.59254	0.03179
496.30677	0.03142
495.02100	0.03111
493.73523	0.03083
492.44946	0.03057
491.16369	0.03033
489.87792	0.03011
488.59215	0.02992
487.30639	0.02976
486.02062	0.02964
484.73485	0.02956
483.44908	0.02949
482.16331	0.02944
480.87754	0.02940
479.59177	0.02937
478.30600	0.02936
477.02023	0.02940
475.73447	0.02953
474.44870	0.02976
473.16293	0.03006
471.87716	0.03033
470.59139	0.03044
469.30562	0.03032
468.01985	0.03004
466.73408	0.02971
465.44832	0.02944
464.16255	0.02924
462.87678	0.02906
461.59101	0.02880
460.30524	0.02845
459.01947	0.02804
457.73370	0.02764
456.44793	0.02727
455.16216	0.02687
453.87640	0.02640
452.59063	0.02591
451.30486	0.02548
450.01909	0.02519
448.73332	0.02503
447.44755	0.02495
446.16178	0.02487
444.87601	0.02476
443.59025	0.02461
442.30448	0.02443
441.01871	0.02426
439.73294	0.02414
438.44717	0.02405
437.16140	0.02395
435.87563	0.02380
434.58986	0.02359
433.30409	0.02337
432.01833	0.02320
430.73256	0.02310
429.44679	0.02304
428.16102	0.02298
426.87525	0.02287
425.58948	0.02266
424.30371	0.02237
423.01794	0.02202
421.73218	0.02173
420.44641	0.02157
419.16064	0.02153
417.87487	0.02153
416.58910	0.02149
415.30333	0.02140
414.01756	0.02128
412.73179	0.02114
411.44602	0.02102
410.16026	0.02092
408.87449	0.02086
407.58872	0.02085
406.30295	0.02090
405.01718	0.02099
403.73141	0.02112
402.44564	0.02128
401.15987	0.02143
399.87411	0.02156
