3997.45528	0.04789
3996.16951	0.04783
3994.88374	0.04815
3993.59798	0.04864
3992.31221	0.04890
3991.02644	0.04869
3989.74067	0.04812
3988.45490	0.04751
3987.16913	0.04719
3985.88336	0.04741
3984.59759	0.04816
3983.31183	0.04916
3982.02606	0.04991
3980.74029	0.05005
3979.45452	0.04955
3978.16875	0.04870
3976.88298	0.04784
3975.59721	0.04719
3974.31144	0.04682
3973.02567	0.04673
3971.73991	0.04684
3970.45414	0.04700
3969.16837	0.04709
3967.88260	0.04710
3966.59683	0.04720
3965.31106	0.04759
3964.02529	0.04827
3962.73952	0.04898
3961.45376	0.04930
3960.16799	0.04901
3958.88222	0.04829
3957.59645	0.04758
3956.31068	0.04727
3955.02491	0.04735
3953.73914	0.04748
3952.45337	0.04736
3951.16760	0.04708
3949.88184	0.04692
3948.59607	0.04698
3947.31030	0.04700
3946.02453	0.04672
3944.73876	0.04612
3943.45299	0.04550
3942.16722	0.04517
3940.88145	0.04524
3939.59569	0.04557
3938.30992	0.04598
3937.02415	0.04628
3935.73838	0.04640
3934.45261	0.04635
3933.16684	0.04618
3931.88107	0.04595
3930.59530	0.04573
3929.30953	0.04564
3928.02377	0.04562
3926.73800	0.04544
3925.45223	0.04490
3924.16646	0.04417
3922.88069	0.04375
3921.59492	0.04394
3920.30915	0.04451
3919.02338	0.04482
3917.73762	0.04451
3916.45185	0.04390
3915.16608	0.04374
3913.88031	0.04434
3912.59454	0.04521
3911.30877	0.04563
3910.02300	0.04551
3908.73723	0.04531
3907.45146	0.04539
3906.16570	0.04572
3904.87993	0.04613
3903.59416	0.04653
3902.30839	0.04683
3901.02262	0.04677
3899.73685	0.04615
3898.45108	0.04518
3897.16531	0.04438
3895.87955	0.04402
3894.59378	0.04395
3893.30801	0.04380
3892.02224	0.04351
3890.73647	0.04336
3889.45070	0.04356
3888.16493	0.04386
3886.87916	0.04387
3885.59339	0.04347
3884.30763	0.04295
3883.02186	0.04265
3881.73609	0.04260
3880.45032	0.04263
3879.16455	0.04263
3877.87878	0.04267
3876.59301	0.04286
3875.30724	0.04312
3874.02148	0.04330
3872.73571	0.04332
3871.44994	0.04323
3870.16417	0.04317
3868.87840	0.04319
3867.59263	0.04321
3866.30686	0.04311
3865.02109	0.04294
3863.73532	0.04289
3862.44956	0.04301
3861.16379	0.04310
3859.87802	0.04299
3858.59225	0.04283
3857.30648	0.04296
3856.02071	0.04340
3854.73494	0.04375
3853.44917	0.04366
3852.16341	0.04325
3850.87764	0.04287
3849.59187	0.04270
3848.30610	0.04276
3847.02033	0.04296
3845.73456	0.04319
3844.44879	0.04331
3843.16302	0.04325
3841.87725	0.04308
3840.59149	0.04294
3839.30572	0.04280
3838.01995	0.04256
3836.73418	0.04220
3835.44841	0.04186
3834.16264	0.04180
3832.87687	0.04222
3831.59110	0.04302
3830.30534	0.04380
3829.01957	0.04415
3827.73380	0.04399
3826.44803	0.04366
3825.16226	0.04351
3823.87649	0.04348
3822.59072	0.04321
3821.30495	0.04253
3820.01918	0.04181
3818.73342	0.04161
3817.44765	0.04203
3816.16188	0.04259
3814.87611	0.04280
3813.59034	0.04257
3812.30457	0.04210
3811.01880	0.04151
3809.73303	0.04080
3808.44726	0.04009
3807.16150	0.03970
3805.87573	0.03996
3804.58996	0.04079
3803.30419	0.04168
3802.01842	0.04212
3800.73265	0.04200
3799.44688	0.04164
3798.16111	0.04137
3796.87535	0.04134
3795.58958	0.04152
3794.30381	0.04184
3793.01804	0.04216
3791.73227	0.04231
3790.44650	0.04216
3789.16073	0.04171
3787.87496	0.04104
3786.58919	0.04032
3785.30343	0.03974
3784.01766	0.03939
3782.73189	0.03925
3781.44612	0.03918
3780.16035	0.03914
3778.87458	0.03918
3777.58881	0.03933
3776.30304	0.03953
3775.01728	0.03965
3773.73151	0.03969
3772.44574	0.03974
3771.15997	0.03986
3769.87420	0.04013
3768.58843	0.04053
3767.30266	0.04099
3766.01689	0.04143
3764.73112	0.04184
3763.44536	0.04223
3762.15959	0.04249
3760.87382	0.04240
3759.58805	0.04185
3758.30228	0.04112
3757.01651	0.04065
3755.73074	0.04069
3754.44497	0.04112
3753.15921	0.04154
3751.87344	0.04170
3750.58767	0.04166
3749.30190	0.04172
3748.01613	0.04201
3746.73036	0.04227
3745.44459	0.04208
3744.15882	0.04135
3742.87305	0.04041
3741.58729	0.03972
3740.30152	0.03951
3739.01575	0.03965
3737.72998	0.03985
3736.44421	0.03989
3735.15844	0.03977
3733.87267	0.03970
3732.58690	0.03971
3731.30114	0.03964
3730.01537	0.03935
3728.72960	0.03895
3727.44383	0.03872
3726.15806	0.03887
3724.87229	0.03939
3723.58652	0.04002
3722.30075	0.04031
3721.01498	0.04004
3719.72922	0.03948
3718.44345	0.03914
3717.15768	0.03918
3715.87191	0.03926
3714.58614	0.03898
3713.30037	0.03835
3712.01460	0.03775
3710.72883	0.03760
3709.44307	0.03800
3708.15730	0.03871
3706.87153	0.03933
3705.58576	0.03963
3704.29999	0.03960
3703.01422	0.03936
3701.72845	0.03903
3700.44268	0.03869
3699.15691	0.03836
3697.87115	0.03797
3696.58538	0.03747
3695.29961	0.03704
3694.01384	0.03705
3692.72807	0.03765
3691.44230	0.03850
3690.15653	0.03903
3688.87076	0.03905
3687.58500	0.03893
3686.29923	0.03900
3685.01346	0.03910
3683.72769	0.03882
3682.44192	0.03819
3681.15615	0.03769
3679.87038	0.03774
3678.58461	0.03822
3677.29884	0.03869
3676.01308	0.03887
3674.72731	0.03881
3673.44154	0.03865
3672.15577	0.03840
3670.87000	0.03808
3669.58423	0.03779
3668.29846	0.03762
3667.01269	0.03763
3665.72693	0.03790
3664.44116	0.03846
3663.15539	0.03923
3661.86962	0.03989
3660.58385	0.04010
3659.29808	0.03978
3658.01231	0.03922
3656.72654	0.03890
3655.44077	0.03908
3654.15501	0.03962
3652.86924	0.04012
3651.58347	0.04026
3650.29770	0.03997
3649.01193	0.03936
3647.72616	0.03866
3646.44039	0.03810
3645.15462	0.03780
3643.86886	0.03770
3642.58309	0.03769
3641.29732	0.03777
3640.01155	0.03804
3638.72578	0.03846
3637.44001	0.03875
3636.15424	0.03861
3634.86847	0.03801
3633.58270	0.03734
3632.29694	0.03702
3631.01117	0.03704
3629.72540	0.03717
3628.43963	0.03728
3627.15386	0.03748
3625.86809	0.03784
3624.58232	0.03831
3623.29655	0.03881
3622.01079	0.03925
3620.72502	0.03952
3619.43925	0.03950
3618.15348	0.03927
3616.86771	0.03897
3615.58194	0.03866
3614.29617	0.03842
3613.01040	0.03836
3611.72463	0.03849
3610.43887	0.03863
3609.15310	0.03867
3607.86733	0.03883
3606.58156	0.03938
3605.29579	0.04019
3604.01002	0.04075
3602.72425	0.04083
3601.43848	0.04060
3600.15272	0.04030
3598.86695	0.03992
3597.58118	0.03942
3596.29541	0.03903
3595.00964	0.03895
3593.72387	0.03907
3592.43810	0.03918
3591.15233	0.03923
3589.86656	0.03924
3588.58080	0.03912
3587.29503	0.03887
3586.00926	0.03877
3584.72349	0.03910
3583.43772	0.03979
3582.15195	0.04045
3580.86618	0.04077
3579.58041	0.04068
3578.29464	0.04034
3577.00888	0.04009
3575.72311	0.04016
3574.43734	0.04051
3573.15157	0.04086
3571.86580	0.04099
3570.58003	0.04100
3569.29426	0.04121
3568.00849	0.04183
3566.72273	0.04280
3565.43696	0.04375
3564.15119	0.04419
3562.86542	0.04392
3561.57965	0.04323
3560.29388	0.04273
3559.00811	0.04283
3557.72234	0.04344
3556.43657	0.04416
3555.15081	0.04470
3553.86504	0.04500
3552.57927	0.04512
3551.29350	0.04514
3550.00773	0.04505
3548.72196	0.04484
3547.43619	0.04456
3546.15042	0.04429
3544.86466	0.04405
3543.57889	0.04380
3542.29312	0.04353
3541.00735	0.04340
3539.72158	0.04356
3538.43581	0.04400
3537.15004	0.04452
3535.86427	0.04485
3534.57850	0.04493
3533.29274	0.04485
3532.00697	0.04472
3530.72120	0.04457
3529.43543	0.04447
3528.14966	0.04456
3526.86389	0.04501
3525.57812	0.04579
3524.29235	0.04656
3523.00659	0.04696
3521.72082	0.04680
3520.43505	0.04623
3519.14928	0.04554
3517.86351	0.04501
3516.57774	0.04489
3515.29197	0.04534
3514.00620	0.04627
3512.72043	0.04727
3511.43467	0.04784
3510.14890	0.04778
3508.86313	0.04726
3507.57736	0.04664
3506.29159	0.04614
3505.00582	0.04579
3503.72005	0.04560
3502.43428	0.04564
3501.14852	0.04599
3499.86275	0.04657
3498.57698	0.04715
3497.29121	0.04742
3496.00544	0.04730
3494.71967	0.04705
3493.43390	0.04708
3492.14813	0.04744
3490.86236	0.04777
3489.57660	0.04771
3488.29083	0.04736
3487.00506	0.04712
3485.71929	0.04720
3484.43352	0.04746
3483.14775	0.04769
3481.86198	0.04785
3480.57621	0.04806
3479.29045	0.04841
3478.00468	0.04892
3476.71891	0.04949
3475.43314	0.04990
3474.14737	0.05001
3472.86160	0.04985
3471.57583	0.04958
3470.29006	0.04931
3469.00429	0.04900
3467.71853	0.04863
3466.43276	0.04833
3465.14699	0.04829
3463.86122	0.04860
3462.57545	0.04918
3461.28968	0.04981
3460.00391	0.05034
3458.71814	0.05070
3457.43238	0.05085
3456.14661	0.05083
3454.86084	0.05073
3453.57507	0.05067
3452.28930	0.05069
3451.00353	0.05078
3449.71776	0.05087
3448.43199	0.05094
3447.14622	0.05094
3445.86046	0.05092
3444.57469	0.05094
3443.28892	0.05103
3442.00315	0.05113
3440.71738	0.05116
3439.43161	0.05116
3438.14584	0.05127
3436.86007	0.05150
3435.57431	0.05167
3434.28854	0.05161
3433.00277	0.05133
3431.71700	0.05100
3430.43123	0.05078
3429.14546	0.05069
3427.85969	0.05074
3426.57392	0.05091
3425.28815	0.05120
3424.00239	0.05158
3422.71662	0.05191
3421.43085	0.05209
3420.14508	0.05214
3418.85931	0.05222
3417.57354	0.05250
3416.28777	0.05296
3415.00200	0.05345
3413.71624	0.05372
3412.43047	0.05367
3411.14470	0.05342
3409.85893	0.05322
3408.57316	0.05324
3407.28739	0.05345
3406.00162	0.05370
3404.71585	0.05374
3403.43008	0.05341
3402.14432	0.05277
3400.85855	0.05221
3399.57278	0.05217
3398.28701	0.05281
3397.00124	0.05379
3395.71547	0.05452
3394.42970	0.05464
3393.14393	0.05427
3391.85817	0.05377
3390.57240	0.05336
3389.28663	0.05310
3388.00086	0.05301
3386.71509	0.05314
3385.42932	0.05347
3384.14355	0.05385
3382.85778	0.05405
3381.57201	0.05402
3380.28625	0.05388
3379.00048	0.05378
3377.71471	0.05374
3376.42894	0.05378
3375.14317	0.05401
3373.85740	0.05454
3372.57163	0.05526
3371.28586	0.05585
3370.00010	0.05601
3368.71433	0.05573
3367.42856	0.05522
3366.14279	0.05481
3364.85702	0.05477
3363.57125	0.05512
3362.28548	0.05561
3360.99971	0.05589
3359.71394	0.05576
3358.42818	0.05529
3357.14241	0.05474
3355.85664	0.05438
3354.57087	0.05435
3353.28510	0.05462
3351.99933	0.05504
3350.71356	0.05538
3349.42779	0.05552
3348.14202	0.05549
3346.85626	0.05541
3345.57049	0.05538
3344.28472	0.05540
3342.99895	0.05543
3341.71318	0.05543
3340.42741	0.05542
3339.14164	0.05552
3337.85587	0.05580
3336.57011	0.05612
3335.28434	0.05618
3333.99857	0.05587
3332.71280	0.05541
3331.42703	0.05511
3330.14126	0.05502
3328.85549	0.05499
3327.56972	0.05489
3326.28395	0.05475
3324.99819	0.05469
3323.71242	0.05476
3322.42665	0.05492
3321.14088	0.05508
3319.85511	0.05523
3318.56934	0.05546
3317.28357	0.05578
3315.99780	0.05613
3314.71204	0.05638
3313.42627	0.05650
3312.14050	0.05646
3310.85473	0.05627
3309.56896	0.05599
3308.28319	0.05581
3306.99742	0.05589
3305.71165	0.05626
3304.42588	0.05673
3303.14012	0.05701
3301.85435	0.05693
3300.56858	0.05654
3299.28281	0.05604
3297.99704	0.05561
3296.71127	0.05529
3295.42550	0.05507
3294.13973	0.05494
3292.85397	0.05488
3291.56820	0.05489
3290.28243	0.05499
3288.99666	0.05521
3287.71089	0.05553
3286.42512	0.05579
3285.13935	0.05590
3283.85358	0.05584
3282.56781	0.05569
3281.28205	0.05556
3279.99628	0.05563
3278.71051	0.05602
3277.42474	0.05663
3276.13897	0.05710
3274.85320	0.05716
3273.56743	0.05675
3272.28166	0.05608
3270.99590	0.05537
3269.71013	0.05478
3268.42436	0.05441
3267.13859	0.05432
3265.85282	0.05446
3264.56705	0.05461
3263.28128	0.05464
3261.99551	0.05465
3260.70974	0.05480
3259.42398	0.05512
3258.13821	0.05550
3256.85244	0.05582
3255.56667	0.05603
3254.28090	0.05610
3252.99513	0.05594
3251.70936	0.05551
3250.42359	0.05485
3249.13783	0.05414
3247.85206	0.05355
3246.56629	0.05322
3245.28052	0.05322
3243.99475	0.05352
3242.70898	0.05392
3241.42321	0.05413
3240.13744	0.05406
3238.85167	0.05384
3237.56591	0.05371
3236.28014	0.05373
3234.99437	0.05375
3233.70860	0.05362
3232.42283	0.05343
3231.13706	0.05342
3229.85129	0.05374
3228.56552	0.05424
3227.27976	0.05460
3225.99399	0.05460
3224.70822	0.05426
3223.42245	0.05378
3222.13668	0.05335
3220.85091	0.05303
3219.56514	0.05284
3218.27937	0.05279
3216.99360	0.05295
3215.70784	0.05337
3214.42207	0.05393
3213.13630	0.05429
3211.85053	0.05418
3210.56476	0.05362
3209.27899	0.05301
3207.99322	0.05266
3206.70745	0.05257
3205.42169	0.05253
3204.13592	0.05238
3202.85015	0.05210
3201.56438	0.05176
3200.27861	0.05142
3198.99284	0.05113
3197.70707	0.05096
3196.42130	0.05095
3195.13553	0.05117
3193.84977	0.05153
3192.56400	0.05176
3191.27823	0.05165
3189.99246	0.05115
3188.70669	0.05052
3187.42092	0.05004
3186.13515	0.04982
3184.84938	0.04981
3183.56362	0.04984
3182.27785	0.04980
3180.99208	0.04967
3179.70631	0.04949
3178.42054	0.04931
3177.13477	0.04915
3175.84900	0.04903
3174.56323	0.04895
3173.27746	0.04886
3171.99170	0.04873
3170.70593	0.04859
3169.42016	0.04857
3168.13439	0.04880
3166.84862	0.04926
3165.56285	0.04973
3164.27708	0.04993
3162.99131	0.04979
3161.70555	0.04941
3160.41978	0.04902
3159.13401	0.04873
3157.84824	0.04857
3156.56247	0.04843
3155.27670	0.04822
3153.99093	0.04795
3152.70516	0.04775
3151.41939	0.04780
3150.13363	0.04804
3148.84786	0.04824
3147.56209	0.04818
3146.27632	0.04787
3144.99055	0.04748
3143.70478	0.04721
3142.41901	0.04710
3141.13324	0.04704
3139.84748	0.04692
3138.56171	0.04670
3137.27594	0.04651
3135.99017	0.04646
3134.70440	0.04659
3133.41863	0.04683
3132.13286	0.04710
3130.84709	0.04731
3129.56132	0.04737
3128.27556	0.04728
3126.98979	0.04708
3125.70402	0.04686
3124.41825	0.04668
3123.13248	0.04656
3121.84671	0.04650
3120.56094	0.04642
3119.27517	0.04625
3117.98940	0.04597
3116.70364	0.04571
3115.41787	0.04553
3114.13210	0.04543
3112.84633	0.04534
3111.56056	0.04531
3110.27479	0.04540
3108.98902	0.04561
3107.70325	0.04579
3106.41749	0.04579
3105.13172	0.04561
3103.84595	0.04536
3102.56018	0.04519
3101.27441	0.04516
3099.98864	0.04526
3098.70287	0.04539
3097.41710	0.04538
3096.13133	0.04521
3094.84557	0.04502
3093.55980	0.04501
3092.27403	0.04515
3090.98826	0.04528
3089.70249	0.04521
3088.41672	0.04495
3087.13095	0.04471
3085.84518	0.04461
3084.55942	0.04461
3083.27365	0.04453
3081.98788	0.04433
3080.70211	0.04421
3079.41634	0.04437
3078.13057	0.04476
3076.84480	0.04507
3075.55903	0.04507
3074.27326	0.04476
3072.98750	0.04434
3071.70173	0.04409
3070.41596	0.04409
3069.13019	0.04428
3067.84442	0.04449
3066.55865	0.04456
3065.27288	0.04444
3063.98711	0.04420
3062.70135	0.04397
3061.41558	0.04385
3060.12981	0.04378
3058.84404	0.04364
3057.55827	0.04342
3056.27250	0.04321
3054.98673	0.04318
3053.70096	0.04339
3052.41519	0.04382
3051.12943	0.04435
3049.84366	0.04486
3048.55789	0.04514
3047.27212	0.04502
3045.98635	0.04444
3044.70058	0.04364
3043.41481	0.04297
3042.12904	0.04265
3040.84328	0.04271
3039.55751	0.04298
3038.27174	0.04328
3036.98597	0.04346
3035.70020	0.04343
3034.41443	0.04317
3033.12866	0.04273
3031.84289	0.04220
3030.55712	0.04167
3029.27136	0.04126
3027.98559	0.04110
3026.69982	0.04124
3025.41405	0.04162
3024.12828	0.04203
3022.84251	0.04228
3021.55674	0.04224
3020.27097	0.04190
3018.98521	0.04141
3017.69944	0.04102
3016.41367	0.04098
3015.12790	0.04127
3013.84213	0.04163
3012.55636	0.04175
3011.27059	0.04154
3009.98482	0.04119
3008.69905	0.04093
3007.41329	0.04085
3006.12752	0.04092
3004.84175	0.04102
3003.55598	0.04113
3002.27021	0.04125
3000.98444	0.04139
2999.69867	0.04152
2998.41290	0.04172
2997.12714	0.04199
2995.84137	0.04232
2994.55560	0.04257
2993.26983	0.04260
2991.98406	0.04240
2990.69829	0.04215
2989.41252	0.04204
2988.12675	0.04205
2986.84098	0.04208
2985.55522	0.04205
2984.26945	0.04201
2982.98368	0.04202
2981.69791	0.04212
2980.41214	0.04232
2979.12637	0.04261
2977.84060	0.04293
2976.55483	0.04323
2975.26907	0.04350
2973.98330	0.04372
2972.69753	0.04383
2971.41176	0.04376
2970.12599	0.04354
2968.84022	0.04325
2967.55445	0.04297
2966.26868	0.04278
2964.98291	0.04274
2963.69715	0.04291
2962.41138	0.04330
2961.12561	0.04377
2959.83984	0.04409
2958.55407	0.04406
2957.26830	0.04373
2955.98253	0.04332
2954.69676	0.04302
2953.41100	0.04290
2952.12523	0.04290
2950.83946	0.04295
2949.55369	0.04303
2948.26792	0.04317
2946.98215	0.04343
2945.69638	0.04375
2944.41061	0.04402
2943.12484	0.04414
2941.83908	0.04418
2940.55331	0.04419
2939.26754	0.04416
2937.98177	0.04401
2936.69600	0.04376
2935.41023	0.04357
2934.12446	0.04355
2932.83869	0.04372
2931.55293	0.04402
2930.26716	0.04442
2928.98139	0.04487
2927.69562	0.04524
2926.40985	0.04534
2925.12408	0.04510
2923.83831	0.04462
2922.55254	0.04408
2921.26677	0.04364
2919.98101	0.04334
2918.69524	0.04313
2917.40947	0.04293
2916.12370	0.04271
2914.83793	0.04247
2913.55216	0.04225
2912.26639	0.04210
2910.98062	0.04203
2909.69486	0.04200
2908.40909	0.04192
2907.12332	0.04168
2905.83755	0.04126
2904.55178	0.04078
2903.26601	0.04044
2901.98024	0.04036
2900.69447	0.04043
2899.40870	0.04044
2898.12294	0.04027
2896.83717	0.04004
2895.55140	0.03986
2894.26563	0.03978
2892.97986	0.03973
2891.69409	0.03965
2890.40832	0.03952
2889.12255	0.03935
2887.83678	0.03927
2886.55102	0.03933
2885.26525	0.03949
2883.97948	0.03962
2882.69371	0.03970
2881.40794	0.03970
2880.12217	0.03958
2878.83640	0.03932
2877.55063	0.03908
2876.26487	0.03903
2874.97910	0.03921
2873.69333	0.03947
2872.40756	0.03967
2871.12179	0.03974
2869.83602	0.03964
2868.55025	0.03935
2867.26448	0.03898
2865.97871	0.03868
2864.69295	0.03853
2863.40718	0.03851
2862.12141	0.03858
2860.83564	0.03872
2859.54987	0.03885
2858.26410	0.03882
2856.97833	0.03849
2855.69256	0.03792
2854.40680	0.03736
2853.12103	0.03706
2851.83526	0.03709
2850.54949	0.03731
2849.26372	0.03754
2847.97795	0.03766
2846.69218	0.03760
2845.40641	0.03734
2844.12064	0.03693
2842.83488	0.03661
2841.54911	0.03655
2840.26334	0.03667
2838.97757	0.03675
2837.69180	0.03665
2836.40603	0.03638
2835.12026	0.03606
2833.83449	0.03578
2832.54873	0.03562
2831.26296	0.03560
2829.97719	0.03566
2828.69142	0.03569
2827.40565	0.03567
2826.11988	0.03567
2824.83411	0.03573
2823.54834	0.03577
2822.26257	0.03572
2820.97681	0.03557
2819.69104	0.03534
2818.40527	0.03503
2817.11950	0.03459
2815.83373	0.03413
2814.54796	0.03379
2813.26219	0.03370
2811.97642	0.03378
2810.69066	0.03391
2809.40489	0.03393
2808.11912	0.03383
2806.83335	0.03366
2805.54758	0.03345
2804.26181	0.03321
2802.97604	0.03296
2801.69027	0.03276
2800.40450	0.03264
2799.11874	0.03254
2797.83297	0.03244
2796.54720	0.03237
2795.26143	0.03237
2793.97566	0.03241
2792.68989	0.03243
2791.40412	0.03240
2790.11835	0.03234
2788.83259	0.03231
2787.54682	0.03234
2786.26105	0.03240
2784.97528	0.03245
2783.68951	0.03246
2782.40374	0.03248
2781.11797	0.03254
2779.83220	0.03263
2778.54643	0.03273
2777.26067	0.03281
2775.97490	0.03287
2774.68913	0.03287
2773.40336	0.03279
2772.11759	0.03269
2770.83182	0.03263
2769.54605	0.03262
2768.26028	0.03257
2766.97452	0.03243
2765.68875	0.03221
2764.40298	0.03201
2763.11721	0.03189
2761.83144	0.03184
2760.54567	0.03183
2759.25990	0.03184
2757.97413	0.03188
2756.68836	0.03191
2755.40260	0.03190
2754.11683	0.03180
2752.83106	0.03166
2751.54529	0.03153
2750.25952	0.03147
2748.97375	0.03145
2747.68798	0.03144
2746.40221	0.03135
2745.11645	0.03113
2743.83068	0.03084
2742.54491	0.03065
2741.25914	0.03063
2739.97337	0.03068
2738.68760	0.03065
2737.40183	0.03050
2736.11606	0.03033
2734.83029	0.03026
2733.54453	0.03033
2732.25876	0.03047
2730.97299	0.03063
2729.68722	0.03080
2728.40145	0.03097
2727.11568	0.03105
2725.82991	0.03097
2724.54414	0.03074
2723.25838	0.03050
2721.97261	0.03039
2720.68684	0.03047
2719.40107	0.03068
2718.11530	0.03091
2716.82953	0.03103
2715.54376	0.03090
2714.25799	0.03051
2712.97222	0.03000
2711.68646	0.02960
2710.40069	0.02946
2709.11492	0.02956
2707.82915	0.02975
2706.54338	0.02984
2705.25761	0.02977
2703.97184	0.02959
2702.68607	0.02943
2701.40031	0.02939
2700.11454	0.02947
2698.82877	0.02957
2697.54300	0.02963
2696.25723	0.02965
2694.97146	0.02970
2693.68569	0.02980
2692.39992	0.02988
2691.11415	0.02988
2689.82839	0.02978
2688.54262	0.02962
2687.25685	0.02942
2685.97108	0.02925
2684.68531	0.02916
2683.39954	0.02917
2682.11377	0.02924
2680.82800	0.02930
2679.54224	0.02934
2678.25647	0.02937
2676.97070	0.02936
2675.68493	0.02929
2674.39916	0.02920
2673.11339	0.02911
2671.82762	0.02901
2670.54185	0.02885
2669.25608	0.02864
2667.97032	0.02848
2666.68455	0.02849
2665.39878	0.02870
2664.11301	0.02895
2662.82724	0.02911
2661.54147	0.02917
2660.25570	0.02925
2658.96993	0.02942
2657.68417	0.02958
2656.39840	0.02963
2655.11263	0.02956
2653.82686	0.02944
2652.54109	0.02933
2651.25532	0.02925
2649.96955	0.02924
2648.68378	0.02931
2647.39801	0.02938
2646.11225	0.02934
2644.82648	0.02916
2643.54071	0.02887
2642.25494	0.02855
2640.96917	0.02828
2639.68340	0.02807
2638.39763	0.02797
2637.11186	0.02796
2635.82609	0.02799
2634.54033	0.02800
2633.25456	0.02791
2631.96879	0.02770
2630.68302	0.02743
2629.39725	0.02718
2628.11148	0.02694
2626.82571	0.02668
2625.53994	0.02646
2624.25418	0.02638
2622.96841	0.02648
2621.68264	0.02665
2620.39687	0.02678
2619.11110	0.02680
2617.82533	0.02669
2616.53956	0.02651
2615.25379	0.02630
2613.96802	0.02609
2612.68226	0.02589
2611.39649	0.02574
2610.11072	0.02567
2608.82495	0.02566
2607.53918	0.02567
2606.25341	0.02564
2604.96764	0.02559
2603.68187	0.02552
2602.39611	0.02547
2601.11034	0.02542
2599.82457	0.02530
2598.53880	0.02503
2597.25303	0.02469
2595.96726	0.02448
2594.68149	0.02455
2593.39572	0.02487
2592.10995	0.02523
2590.82419	0.02538
2589.53842	0.02519
2588.25265	0.02471
2586.96688	0.02419
2585.68111	0.02390
2584.39534	0.02401
2583.10957	0.02443
2581.82380	0.02487
2580.53804	0.02502
2579.25227	0.02488
2577.96650	0.02463
2576.68073	0.02449
2575.39496	0.02451
2574.10919	0.02461
2572.82342	0.02464
2571.53765	0.02452
2570.25188	0.02427
2568.96612	0.02396
2567.68035	0.02371
2566.39458	0.02359
2565.10881	0.02353
2563.82304	0.02335
2562.53727	0.02297
2561.25150	0.02255
2559.96573	0.02238
2558.67997	0.02257
2557.39420	0.02293
2556.10843	0.02312
2554.82266	0.02300
2553.53689	0.02268
2552.25112	0.02249
2550.96535	0.02255
2549.67958	0.02271
2548.39381	0.02277
2547.10805	0.02273
2545.82228	0.02277
2544.53651	0.02293
2543.25074	0.02307
2541.96497	0.02300
2540.67920	0.02271
2539.39343	0.02243
2538.10766	0.02235
2536.82190	0.02244
2535.53613	0.02253
2534.25036	0.02257
2532.96459	0.02270
2531.67882	0.02296
2530.39305	0.02316
2529.10728	0.02302
2527.82151	0.02257
2526.53574	0.02215
2525.24998	0.02205
2523.96421	0.02226
2522.67844	0.02256
2521.39267	0.02275
2520.10690	0.02279
2518.82113	0.02274
2517.53536	0.02256
2516.24959	0.02220
2514.96383	0.02174
2513.67806	0.02133
2512.39229	0.02108
2511.10652	0.02101
2509.82075	0.02109
2508.53498	0.02129
2507.24921	0.02154
2505.96344	0.02176
2504.67767	0.02186
2503.39191	0.02181
2502.10614	0.02166
2500.82037	0.02148
2499.53460	0.02138
2498.24883	0.02134
2496.96306	0.02131
2495.67729	0.02123
2494.39152	0.02109
2493.10576	0.02095
2491.81999	0.02101
2490.53422	0.02138
2489.24845	0.02195
2487.96268	0.02244
2486.67691	0.02261
2485.39114	0.02240
2484.10537	0.02193
2482.81960	0.02143
2481.53384	0.02113
2480.24807	0.02108
2478.96230	0.02114
2477.67653	0.02112
2476.39076	0.02100
2475.10499	0.02098
2473.81922	0.02126
2472.53345	0.02174
2471.24769	0.02208
2469.96192	0.02198
2468.67615	0.02151
2467.39038	0.02102
2466.10461	0.02083
2464.81884	0.02096
2463.53307	0.02127
2462.24730	0.02155
2460.96153	0.02165
2459.67577	0.02152
2458.39000	0.02121
2457.10423	0.02084
2455.81846	0.02048
2454.53269	0.02019
2453.24692	0.02009
2451.96115	0.02019
2450.67538	0.02036
2449.38962	0.02042
2448.10385	0.02039
2446.81808	0.02047
2445.53231	0.02072
2444.24654	0.02102
2442.96077	0.02122
2441.67500	0.02126
2440.38923	0.02114
2439.10346	0.02092
2437.81770	0.02074
2436.53193	0.02072
2435.24616	0.02086
2433.96039	0.02102
2432.67462	0.02104
2431.38885	0.02090
2430.10308	0.02066
2428.81731	0.02043
2427.53155	0.02034
2426.24578	0.02040
2424.96001	0.02054
2423.67424	0.02060
2422.38847	0.02056
2421.10270	0.02059
2419.81693	0.02076
2418.53116	0.02094
2417.24539	0.02088
2415.95963	0.02060
2414.67386	0.02033
2413.38809	0.02024
2412.10232	0.02020
2410.81655	0.02001
2409.53078	0.01967
2408.24501	0.01934
2406.95924	0.01925
2405.67347	0.01945
2404.38771	0.01982
2403.10194	0.02009
2401.81617	0.02015
2400.53040	0.02005
2399.24463	0.01998
2397.95886	0.01985
2396.67309	0.01985
2395.38732	0.01994
2394.10156	0.02003
2392.81579	0.02003
2391.53002	0.01993
2390.24425	0.01980
2388.95848	0.01970
2387.67271	0.01966
2386.38694	0.01968
2385.10117	0.01974
2383.81540	0.01979
2382.52964	0.01975
2381.24387	0.01963
2379.95810	0.01955
2378.67233	0.01962
2377.38656	0.01979
2376.10079	0.01995
2374.81502	0.01998
2373.52925	0.01987
2372.24349	0.01966
2370.95772	0.01939
2369.67195	0.01917
2368.38618	0.01912
2367.10041	0.01928
2365.81464	0.01951
2364.52887	0.01963
2363.24310	0.01953
2361.95733	0.01936
2360.67157	0.01928
2359.38580	0.01940
2358.10003	0.01961
2356.81426	0.01976
2355.52849	0.01978
2354.24272	0.01969
2352.95695	0.01960
2351.67118	0.01957
2350.38542	0.01963
2349.09965	0.01977
2347.81388	0.01993
2346.52811	0.02001
2345.24234	0.02002
2343.95657	0.02001
2342.67080	0.01999
2341.38503	0.01994
2340.09926	0.01989
2338.81350	0.01997
2337.52773	0.02024
2336.24196	0.02058
2334.95619	0.02080
2333.67042	0.02083
2332.38465	0.02066
2331.09888	0.02041
2329.81311	0.02034
2328.52735	0.02068
2327.24158	0.02131
2325.95581	0.02202
2324.67004	0.02257
2323.38427	0.02269
2322.09850	0.02244
2320.81273	0.02213
2319.52696	0.02182
2318.24119	0.02149
2316.95543	0.02110
2315.66966	0.02070
2314.38389	0.02041
2313.09812	0.02031
2311.81235	0.02029
2310.52658	0.02030
2309.24081	0.02032
2307.95504	0.02036
2306.66928	0.02039
2305.38351	0.02034
2304.09774	0.02023
2302.81197	0.02013
2301.52620	0.02009
2300.24043	0.02012
2298.95466	0.02021
2297.66889	0.02033
2296.38312	0.02040
2295.09736	0.02039
2293.81159	0.02027
2292.52582	0.02003
2291.24005	0.01968
2289.95428	0.01930
2288.66851	0.01907
2287.38274	0.01908
2286.09697	0.01929
2284.81121	0.01955
2283.52544	0.01977
2282.23967	0.01993
2280.95390	0.02001
2279.66813	0.01994
2278.38236	0.01963
2277.09659	0.01902
2275.81082	0.01826
2274.52505	0.01761
2273.23929	0.01731
2271.95352	0.01736
2270.66775	0.01755
2269.38198	0.01757
2268.09621	0.01725
2266.81044	0.01669
2265.52467	0.01609
2264.23890	0.01557
2262.95314	0.01515
2261.66737	0.01494
2260.38160	0.01515
2259.09583	0.01577
2257.81006	0.01644
2256.52429	0.01663
2255.23852	0.01613
2253.95275	0.01523
2252.66698	0.01432
2251.38122	0.01361
2250.09545	0.01325
2248.80968	0.01352
2247.52391	0.01414
2246.23814	0.01498
2244.95237	0.01545
2243.66660	0.01523
2242.38083	0.01456
2241.09507	0.01387
2239.80930	0.01339
2238.52353	0.01312
2237.23776	0.01314
2235.95199	0.01366
2234.66622	0.01472
2233.38045	0.01594
2232.09468	0.01674
2230.80891	0.01688
2229.52315	0.01654
2228.23738	0.01609
2226.95161	0.01570
2225.66584	0.01541
2224.38007	0.01521
2223.09430	0.01505
2221.80853	0.01493
2220.52276	0.01494
2219.23700	0.01510
2217.95123	0.01523
2216.66546	0.01523
2215.37969	0.01522
2214.09392	0.01536
2212.80815	0.01546
2211.52238	0.01512
2210.23661	0.01423
2208.95084	0.01325
2207.66508	0.01274
2206.37931	0.01284
2205.09354	0.01304
2203.80777	0.01277
2202.52200	0.01202
2201.23623	0.01147
2199.95046	0.01165
2198.66469	0.01221
2197.37893	0.01231
2196.09316	0.01163
2194.80739	0.01080
2193.52162	0.01070
2192.23585	0.01149
2190.95008	0.01236
2189.66431	0.01237
2188.37854	0.01146
2187.09277	0.01050
2185.80701	0.01021
2184.52124	0.01034
2183.23547	0.01012
2181.94970	0.00935
2180.66393	0.00866
2179.37816	0.00863
2178.09239	0.00921
2176.80662	0.00990
2175.52085	0.01037
2174.23509	0.01054
2172.94932	0.01045
2171.66355	0.01014
2170.37778	0.00968
2169.09201	0.00924
2167.80624	0.00910
2166.52047	0.00953
2165.23470	0.01051
2163.94894	0.01150
2162.66317	0.01186
2161.37740	0.01139
2160.09163	0.01058
2158.80586	0.01000
2157.52009	0.00970
2156.23432	0.00939
2154.94855	0.00906
2153.66278	0.00894
2152.37702	0.00916
2151.09125	0.00967
2149.80548	0.01027
2148.51971	0.01062
2147.23394	0.01036
2145.94817	0.00958
2144.66240	0.00873
2143.37663	0.00807
2142.09087	0.00741
2140.80510	0.00651
2139.51933	0.00560
2138.23356	0.00521
2136.94779	0.00563
2135.66202	0.00666
2134.37625	0.00781
2133.09048	0.00865
2131.80471	0.00906
2130.51895	0.00931
2129.23318	0.00967
2127.94741	0.01026
2126.66164	0.01104
2125.37587	0.01188
2124.09010	0.01252
2122.80433	0.01270
2121.51856	0.01239
2120.23280	0.01190
2118.94703	0.01159
2117.66126	0.01150
2116.37549	0.01137
2115.08972	0.01101
2113.80395	0.01058
2112.51818	0.01046
2111.23241	0.01081
2109.94664	0.01139
2108.66088	0.01184
2107.37511	0.01207
2106.08934	0.01224
2104.80357	0.01241
2103.51780	0.01244
2102.23203	0.01224
2100.94626	0.01197
2099.66049	0.01178
2098.37473	0.01169
2097.08896	0.01152
2095.80319	0.01123
2094.51742	0.01095
2093.23165	0.01071
2091.94588	0.01039
2090.66011	0.00987
2089.37434	0.00935
2088.08857	0.00931
2086.80281	0.01007
2085.51704	0.01135
2084.23127	0.01241
2082.94550	0.01269
2081.65973	0.01221
2080.37396	0.01148
2079.08819	0.01097
2077.80242	0.01086
2076.51666	0.01112
2075.23089	0.01163
2073.94512	0.01220
2072.65935	0.01255
2071.37358	0.01242
2070.08781	0.01181
2068.80204	0.01089
2067.51627	0.00994
2066.23050	0.00925
2064.94474	0.00907
2063.65897	0.00937
2062.37320	0.00985
2061.08743	0.01015
2059.80166	0.01019
2058.51589	0.01013
2057.23012	0.01016
2055.94435	0.01023
2054.65859	0.01014
2053.37282	0.00970
2052.08705	0.00895
2050.80128	0.00814
2049.51551	0.00750
2048.22974	0.00700
2046.94397	0.00653
2045.65820	0.00622
2044.37243	0.00638
2043.08667	0.00711
2041.80090	0.00802
2040.51513	0.00857
2039.22936	0.00852
2037.94359	0.00798
2036.65782	0.00717
2035.37205	0.00624
2034.08628	0.00544
2032.80052	0.00503
2031.51475	0.00514
2030.22898	0.00574
2028.94321	0.00670
2027.65744	0.00771
2026.37167	0.00824
2025.08590	0.00777
2023.80013	0.00639
2022.51436	0.00488
2021.22860	0.00405
2019.94283	0.00402
2018.65706	0.00434
2017.37129	0.00452
2016.08552	0.00442
2014.79975	0.00423
2013.51398	0.00413
2012.22821	0.00406
2010.94245	0.00384
2009.65668	0.00339
2008.37091	0.00291
2007.08514	0.00277
2005.79937	0.00308
2004.51360	0.00356
2003.22783	0.00387
2001.94206	0.00398
2000.65629	0.00416
1999.37053	0.00470
1998.08476	0.00569
1996.79899	0.00695
1995.51322	0.00808
1994.22745	0.00869
1992.94168	0.00871
1991.65591	0.00844
1990.37014	0.00815
1989.08438	0.00790
1987.79861	0.00765
1986.51284	0.00751
1985.22707	0.00766
1983.94130	0.00823
1982.65553	0.00921
1981.36976	0.01031
1980.08399	0.01090
1978.79822	0.01048
1977.51246	0.00926
1976.22669	0.00818
1974.94092	0.00795
1973.65515	0.00837
1972.36938	0.00872
1971.08361	0.00859
1969.79784	0.00815
1968.51207	0.00770
1967.22631	0.00725
1965.94054	0.00660
1964.65477	0.00580
1963.36900	0.00519
1962.08323	0.00513
1960.79746	0.00570
1959.51169	0.00667
1958.22592	0.00773
1956.94015	0.00865
1955.65439	0.00937
1954.36862	0.00991
1953.08285	0.01030
1951.79708	0.01053
1950.51131	0.01056
1949.22554	0.01038
1947.93977	0.01000
1946.65400	0.00955
1945.36823	0.00921
1944.08247	0.00904
1942.79670	0.00893
1941.51093	0.00880
1940.22516	0.00870
1938.93939	0.00873
1937.65362	0.00885
1936.36785	0.00899
1935.08208	0.00917
1933.79632	0.00941
1932.51055	0.00961
1931.22478	0.00957
1929.93901	0.00930
1928.65324	0.00899
1927.36747	0.00881
1926.08170	0.00878
1924.79593	0.00886
1923.51016	0.00914
1922.22440	0.00964
1920.93863	0.01018
1919.65286	0.01047
1918.36709	0.01041
1917.08132	0.01016
1915.79555	0.01002
1914.50978	0.01017
1913.22401	0.01054
1911.93825	0.01091
1910.65248	0.01105
1909.36671	0.01094
1908.08094	0.01077
1906.79517	0.01073
1905.50940	0.01077
1904.22363	0.01074
1902.93786	0.01056
1901.65209	0.01031
1900.36633	0.01009
1899.08056	0.00990
1897.79479	0.00975
1896.50902	0.00970
1895.22325	0.00980
1893.93748	0.01001
1892.65171	0.01022
1891.36594	0.01039
1890.08018	0.01051
1888.79441	0.01054
1887.50864	0.01049
1886.22287	0.01039
1884.93710	0.01033
1883.65133	0.01034
1882.36556	0.01039
1881.07979	0.01042
1879.79402	0.01040
1878.50826	0.01044
1877.22249	0.01061
1875.93672	0.01091
1874.65095	0.01124
1873.36518	0.01143
1872.07941	0.01135
1870.79364	0.01100
1869.50787	0.01052
1868.22211	0.01017
1866.93634	0.01014
1865.65057	0.01042
1864.36480	0.01081
1863.07903	0.01106
1861.79326	0.01106
1860.50749	0.01090
1859.22172	0.01077
1857.93595	0.01077
1856.65019	0.01079
1855.36442	0.01075
1854.07865	0.01067
1852.79288	0.01070
1851.50711	0.01090
1850.22134	0.01117
1848.93557	0.01136
1847.64980	0.01138
1846.36404	0.01129
1845.07827	0.01122
1843.79250	0.01118
1842.50673	0.01107
1841.22096	0.01084
1839.93519	0.01060
1838.64942	0.01047
1837.36365	0.01051
1836.07788	0.01065
1834.79212	0.01078
1833.50635	0.01088
1832.22058	0.01097
1830.93481	0.01109
1829.64904	0.01119
1828.36327	0.01123
1827.07750	0.01119
1825.79173	0.01111
1824.50597	0.01104
1823.22020	0.01095
1821.93443	0.01082
1820.64866	0.01062
1819.36289	0.01037
1818.07712	0.01017
1816.79135	0.01015
1815.50558	0.01033
1814.21981	0.01063
1812.93405	0.01089
1811.64828	0.01104
1810.36251	0.01107
1809.07674	0.01106
1807.79097	0.01105
1806.50520	0.01110
1805.21943	0.01122
1803.93366	0.01142
1802.64790	0.01163
1801.36213	0.01173
1800.07636	0.01170
1798.79059	0.01159
1797.50482	0.01153
1796.21905	0.01152
1794.93328	0.01154
1793.64751	0.01152
1792.36174	0.01148
1791.07598	0.01148
1789.79021	0.01155
1788.50444	0.01166
1787.21867	0.01171
1785.93290	0.01162
1784.64713	0.01142
1783.36136	0.01118
1782.07559	0.01102
1780.78983	0.01097
1779.50406	0.01101
1778.21829	0.01112
1776.93252	0.01130
1775.64675	0.01148
1774.36098	0.01159
1773.07521	0.01161
1771.78944	0.01158
1770.50367	0.01153
1769.21791	0.01144
1767.93214	0.01130
1766.64637	0.01118
1765.36060	0.01113
1764.07483	0.01120
1762.78906	0.01133
1761.50329	0.01143
1760.21752	0.01147
1758.93176	0.01146
1757.64599	0.01146
1756.36022	0.01149
1755.07445	0.01154
1753.78868	0.01155
1752.50291	0.01148
1751.21714	0.01132
1749.93137	0.01117
1748.64560	0.01112
1747.35984	0.01118
1746.07407	0.01130
1744.78830	0.01139
1743.50253	0.01142
1742.21676	0.01143
1740.93099	0.01148
1739.64522	0.01158
1738.35945	0.01171
1737.07369	0.01177
1735.78792	0.01172
1734.50215	0.01158
1733.21638	0.01144
1731.93061	0.01145
1730.64484	0.01160
1729.35907	0.01179
1728.07330	0.01192
1726.78753	0.01196
1725.50177	0.01194
1724.21600	0.01190
1722.93023	0.01189
1721.64446	0.01195
1720.35869	0.01211
1719.07292	0.01233
1717.78715	0.01255
1716.50138	0.01270
1715.21561	0.01283
1713.92985	0.01298
1712.64408	0.01321
1711.35831	0.01351
1710.07254	0.01385
1708.78677	0.01416
1707.50100	0.01445
1706.21523	0.01478
1704.92946	0.01523
1703.64370	0.01580
1702.35793	0.01642
1701.07216	0.01706
1699.78639	0.01774
1698.50062	0.01849
1697.21485	0.01930
1695.92908	0.02009
1694.64331	0.02087
1693.35754	0.02168
1692.07178	0.02255
1690.78601	0.02345
1689.50024	0.02433
1688.21447	0.02516
1686.92870	0.02590
1685.64293	0.02655
1684.35716	0.02717
1683.07139	0.02785
1681.78563	0.02864
1680.49986	0.02949
1679.21409	0.03032
1677.92832	0.03109
1676.64255	0.03186
1675.35678	0.03266
1674.07101	0.03346
1672.78524	0.03425
1671.49947	0.03502
1670.21371	0.03579
1668.92794	0.03658
1667.64217	0.03739
1666.35640	0.03816
1665.07063	0.03884
1663.78486	0.03945
1662.49909	0.04002
1661.21332	0.04062
1659.92756	0.04127
1658.64179	0.04194
1657.35602	0.04261
1656.07025	0.04322
1654.78448	0.04373
1653.49871	0.04412
1652.21294	0.04445
1650.92717	0.04480
1649.64140	0.04520
1648.35564	0.04559
1647.06987	0.04589
1645.78410	0.04609
1644.49833	0.04626
1643.21256	0.04644
1641.92679	0.04661
1640.64102	0.04669
1639.35525	0.04664
1638.06949	0.04645
1636.78372	0.04616
1635.49795	0.04581
1634.21218	0.04545
1632.92641	0.04506
1631.64064	0.04465
1630.35487	0.04419
1629.06910	0.04370
1627.78333	0.04316
1626.49757	0.04254
1625.21180	0.04180
1623.92603	0.04096
1622.64026	0.04010
1621.35449	0.03933
1620.06872	0.03866
1618.78295	0.03802
1617.49718	0.03732
1616.21142	0.03655
1614.92565	0.03578
1613.63988	0.03506
1612.35411	0.03439
1611.06834	0.03378
1609.78257	0.03321
1608.49680	0.03268
1607.21103	0.03218
1605.92526	0.03172
1604.63950	0.03131
1603.35373	0.03098
1602.06796	0.03073
1600.78219	0.03050
1599.49642	0.03029
1598.21065	0.03008
1596.92488	0.02990
1595.63911	0.02974
1594.35335	0.02962
1593.06758	0.02955
1591.78181	0.02952
1590.49604	0.02954
1589.21027	0.02959
1587.92450	0.02965
1586.63873	0.02971
1585.35296	0.02981
1584.06719	0.02998
1582.78143	0.03023
1581.49566	0.03054
1580.20989	0.03085
1578.92412	0.03112
1577.63835	0.03132
1576.35258	0.03148
1575.06681	0.03168
1573.78104	0.03199
1572.49528	0.03239
1571.20951	0.03279
1569.92374	0.03312
1568.63797	0.03336
1567.35220	0.03360
1566.06643	0.03390
1564.78066	0.03427
1563.49489	0.03468
1562.20912	0.03504
1560.92336	0.03532
1559.63759	0.03552
1558.35182	0.03574
1557.06605	0.03603
1555.78028	0.03637
1554.49451	0.03670
1553.20874	0.03699
1551.92297	0.03726
1550.63721	0.03752
1549.35144	0.03775
1548.06567	0.03794
1546.77990	0.03807
1545.49413	0.03816
1544.20836	0.03824
1542.92259	0.03834
1541.63682	0.03847
1540.35105	0.03860
1539.06529	0.03872
1537.77952	0.03883
1536.49375	0.03892
1535.20798	0.03900
1533.92221	0.03906
1532.63644	0.03913
1531.35067	0.03921
1530.06490	0.03931
1528.77914	0.03941
1527.49337	0.03953
1526.20760	0.03965
1524.92183	0.03979
1523.63606	0.03993
1522.35029	0.04006
1521.06452	0.04017
1519.77875	0.04026
1518.49298	0.04035
1517.20722	0.04045
1515.92145	0.04060
1514.63568	0.04081
1513.34991	0.04109
1512.06414	0.04138
1510.77837	0.04168
1509.49260	0.04196
1508.20683	0.04215
1506.92107	0.04225
1505.63530	0.04230
1504.34953	0.04238
1503.06376	0.04253
1501.77799	0.04275
1500.49222	0.04295
1499.20645	0.04309
1497.92068	0.04314
1496.63491	0.04314
1495.34915	0.04313
1494.06338	0.04311
1492.77761	0.04312
1491.49184	0.04317
1490.20607	0.04327
1488.92030	0.04344
1487.63453	0.04366
1486.34876	0.04391
1485.06299	0.04419
1483.77723	0.04451
1482.49146	0.04489
1481.20569	0.04532
1479.91992	0.04576
1478.63415	0.04618
1477.34838	0.04658
1476.06261	0.04700
1474.77684	0.04751
1473.49108	0.04809
1472.20531	0.04866
1470.91954	0.04913
1469.63377	0.04945
1468.34800	0.04968
1467.06223	0.04986
1465.77646	0.05004
1464.49069	0.05028
1463.20492	0.05059
1461.91916	0.05098
1460.63339	0.05143
1459.34762	0.05191
1458.06185	0.05240
1456.77608	0.05286
1455.49031	0.05328
1454.20454	0.05363
1452.91877	0.05391
1451.63301	0.05413
1450.34724	0.05431
1449.06147	0.05444
1447.77570	0.05453
1446.48993	0.05458
1445.20416	0.05461
1443.91839	0.05461
1442.63262	0.05458
1441.34685	0.05452
1440.06109	0.05443
1438.77532	0.05435
1437.48955	0.05429
1436.20378	0.05428
1434.91801	0.05434
1433.63224	0.05446
1432.34647	0.05463
1431.06070	0.05487
1429.77494	0.05518
1428.48917	0.05557
1427.20340	0.05601
1425.91763	0.05647
1424.63186	0.05694
1423.34609	0.05745
1422.06032	0.05796
1420.77455	0.05846
1419.48878	0.05891
1418.20302	0.05932
1416.91725	0.05970
1415.63148	0.06005
1414.34571	0.06033
1413.05994	0.06053
1411.77417	0.06065
1410.48840	0.06070
1409.20263	0.06067
1407.91687	0.06054
1406.63110	0.06028
1405.34533	0.05988
1404.05956	0.05938
1402.77379	0.05883
1401.48802	0.05827
1400.20225	0.05768
1398.91648	0.05702
1397.63071	0.05628
1396.34495	0.05545
1395.05918	0.05460
1393.77341	0.05376
1392.48764	0.05296
1391.20187	0.05216
1389.91610	0.05134
1388.63033	0.05049
1387.34456	0.04966
1386.05880	0.04885
1384.77303	0.04804
1383.48726	0.04719
1382.20149	0.04625
1380.91572	0.04524
1379.62995	0.04420
1378.34418	0.04317
1377.05841	0.04220
1375.77264	0.04130
1374.48688	0.04042
1373.20111	0.03953
1371.91534	0.03863
1370.62957	0.03773
1369.34380	0.03685
1368.05803	0.03599
1366.77226	0.03517
1365.48649	0.03440
1364.20073	0.03369
1362.91496	0.03301
1361.62919	0.03233
1360.34342	0.03165
1359.05765	0.03101
1357.77188	0.03045
1356.48611	0.03001
1355.20034	0.02966
1353.91457	0.02936
1352.62881	0.02904
1351.34304	0.02869
1350.05727	0.02831
1348.77150	0.02795
1347.48573	0.02764
1346.19996	0.02742
1344.91419	0.02726
1343.62842	0.02715
1342.34266	0.02706
1341.05689	0.02697
1339.77112	0.02686
1338.48535	0.02670
1337.19958	0.02652
1335.91381	0.02631
1334.62804	0.02610
1333.34227	0.02588
1332.05650	0.02568
1330.77074	0.02548
1329.48497	0.02529
1328.19920	0.02509
1326.91343	0.02485
1325.62766	0.02458
1324.34189	0.02431
1323.05612	0.02407
1321.77035	0.02389
1320.48459	0.02375
1319.19882	0.02363
1317.91305	0.02351
1316.62728	0.02338
1315.34151	0.02325
1314.05574	0.02312
1312.76997	0.02300
1311.48420	0.02285
1310.19843	0.02268
1308.91267	0.02248
1307.62690	0.02225
1306.34113	0.02201
1305.05536	0.02176
1303.76959	0.02153
1302.48382	0.02132
1301.19805	0.02110
1299.91228	0.02090
1298.62652	0.02074
1297.34075	0.02063
1296.05498	0.02056
1294.76921	0.02045
1293.48344	0.02031
1292.19767	0.02015
1290.91190	0.01998
1289.62613	0.01983
1288.34036	0.01972
1287.05460	0.01966
1285.76883	0.01963
1284.48306	0.01963
1283.19729	0.01963
1281.91152	0.01964
1280.62575	0.01966
1279.33998	0.01967
1278.05421	0.01966
1276.76845	0.01960
1275.48268	0.01951
1274.19691	0.01939
1272.91114	0.01926
1271.62537	0.01916
1270.33960	0.01910
1269.05383	0.01905
1267.76806	0.01901
1266.48229	0.01898
1265.19653	0.01897
1263.91076	0.01897
1262.62499	0.01896
1261.33922	0.01894
1260.05345	0.01891
1258.76768	0.01887
1257.48191	0.01882
1256.19614	0.01880
1254.91037	0.01881
1253.62461	0.01885
1252.33884	0.01888
1251.05307	0.01891
1249.76730	0.01892
1248.48153	0.01894
1247.19576	0.01898
1245.90999	0.01902
1244.62422	0.01906
1243.33846	0.01907
1242.05269	0.01905
1240.76692	0.01901
1239.48115	0.01895
1238.19538	0.01888
1236.90961	0.01880
1235.62384	0.01870
1234.33807	0.01860
1233.05230	0.01849
1231.76654	0.01836
1230.48077	0.01821
1229.19500	0.01802
1227.90923	0.01780
1226.62346	0.01753
1225.33769	0.01722
1224.05192	0.01693
1222.76615	0.01670
1221.48039	0.01653
1220.19462	0.01639
1218.90885	0.01626
1217.62308	0.01615
1216.33731	0.01605
1215.05154	0.01593
1213.76577	0.01576
1212.48000	0.01556
1211.19423	0.01537
1209.90847	0.01523
1208.62270	0.01516
1207.33693	0.01516
1206.05116	0.01522
1204.76539	0.01530
1203.47962	0.01537
1202.19385	0.01538
1200.90808	0.01533
1199.62232	0.01528
1198.33655	0.01516
1197.05078	0.01499
1195.76501	0.01479
1194.47924	0.01459
1193.19347	0.01441
1191.90770	0.01427
1190.62193	0.01417
1189.33616	0.01413
1188.05040	0.01412
1186.76463	0.01410
1185.47886	0.01406
1184.19309	0.01401
1182.90732	0.01396
1181.62155	0.01389
1180.33578	0.01382
1179.05001	0.01377
1177.76425	0.01375
1176.47848	0.01375
1175.19271	0.01376
1173.90694	0.01379
1172.62117	0.01383
1171.33540	0.01389
1170.04963	0.01393
1168.76386	0.01397
1167.47809	0.01401
1166.19233	0.01404
1164.90656	0.01406
1163.62079	0.01408
1162.33502	0.01413
1161.04925	0.01424
1159.76348	0.01438
1158.47771	0.01451
1157.19194	0.01454
1155.90618	0.01451
1154.62041	0.01454
1153.33464	0.01472
1152.04887	0.01503
1150.76310	0.01534
1149.47733	0.01559
1148.19156	0.01580
1146.90579	0.01603
1145.62002	0.01629
1144.33426	0.01657
1143.04849	0.01686
1141.76272	0.01718
1140.47695	0.01758
1139.19118	0.01809
1137.90541	0.01869
1136.61964	0.01935
1135.33387	0.02002
1134.04811	0.02071
1132.76234	0.02151
1131.47657	0.02248
1130.19080	0.02363
1128.90503	0.02490
1127.61926	0.02624
1126.33349	0.02767
1125.04772	0.02923
1123.76195	0.03090
1122.47619	0.03263
1121.19042	0.03437
1119.90465	0.03613
1118.61888	0.03795
1117.33311	0.03981
1116.04734	0.04166
1114.76157	0.04344
1113.47580	0.04514
1112.19004	0.04679
1110.90427	0.04839
1109.61850	0.04994
1108.33273	0.05148
1107.04696	0.05304
1105.76119	0.05463
1104.47542	0.05621
1103.18965	0.05773
1101.90388	0.05915
1100.61812	0.06051
1099.33235	0.06181
1098.04658	0.06309
1096.76081	0.06433
1095.47504	0.06550
1094.18927	0.06659
1092.90350	0.06763
1091.61773	0.06864
1090.33197	0.06964
1089.04620	0.07063
1087.76043	0.07158
1086.47466	0.07250
1085.18889	0.07338
1083.90312	0.07424
1082.61735	0.07517
1081.33158	0.07623
1080.04581	0.07746
1078.76005	0.07882
1077.47428	0.08023
1076.18851	0.08167
1074.90274	0.08316
1073.61697	0.08474
1072.33120	0.08639
1071.04543	0.08807
1069.75966	0.08973
1068.47390	0.09136
1067.18813	0.09300
1065.90236	0.09473
1064.61659	0.09660
1063.33082	0.09854
1062.04505	0.10048
1060.75928	0.10234
1059.47351	0.10414
1058.18774	0.10591
1056.90198	0.10769
1055.61621	0.10947
1054.33044	0.11122
1053.04467	0.11292
1051.75890	0.11456
1050.47313	0.11617
1049.18736	0.11777
1047.90159	0.11942
1046.61583	0.12114
1045.33006	0.12291
1044.04429	0.12469
1042.75852	0.12645
1041.47275	0.12816
1040.18698	0.12982
1038.90121	0.13149
1037.61544	0.13329
1036.32967	0.13531
1035.04391	0.13748
1033.75814	0.13948
1032.47237	0.14103
1031.18660	0.14209
1029.90083	0.14293
1028.61506	0.14375
1027.32929	0.14458
1026.04352	0.14533
1024.75775	0.14595
1023.47199	0.14646
1022.18622	0.14686
1020.90045	0.14704
1019.61468	0.14693
1018.32891	0.14647
1017.04314	0.14573
1015.75737	0.14477
1014.47160	0.14368
1013.18584	0.14247
1011.90007	0.14109
1010.61430	0.13952
1009.32853	0.13774
1008.04276	0.13573
1006.75699	0.13353
1005.47122	0.13117
1004.18545	0.12868
1002.89968	0.12608
1001.61392	0.12339
1000.32815	0.12063
999.04238	0.11780
997.75661	0.11494
996.47084	0.11205
995.18507	0.10915
993.89930	0.10623
992.61353	0.10325
991.32777	0.10025
990.04200	0.09734
988.75623	0.09459
987.47046	0.09199
986.18469	0.08951
984.89892	0.08712
983.61315	0.08482
982.32738	0.08257
981.04161	0.08031
979.75585	0.07801
978.47008	0.07569
977.18431	0.07346
975.89854	0.07145
974.61277	0.06975
973.32700	0.06834
972.04123	0.06716
970.75546	0.06620
969.46970	0.06544
968.18393	0.06487
966.89816	0.06450
965.61239	0.06437
964.32662	0.06447
963.04085	0.06470
961.75508	0.06487
960.46931	0.06482
959.18354	0.06447
957.89778	0.06384
956.61201	0.06301
955.32624	0.06207
954.04047	0.06102
952.75470	0.05985
951.46893	0.05860
950.18316	0.05733
948.89739	0.05614
947.61163	0.05507
946.32586	0.05408
945.04009	0.05313
943.75432	0.05215
942.46855	0.05111
941.18278	0.05007
939.89701	0.04910
938.61124	0.04822
937.32547	0.04741
936.03971	0.04658
934.75394	0.04575
933.46817	0.04497
932.18240	0.04429
930.89663	0.04367
929.61086	0.04306
928.32509	0.04247
927.03932	0.04193
925.75356	0.04142
924.46779	0.04091
923.18202	0.04040
921.89625	0.03994
920.61048	0.03950
919.32471	0.03904
918.03894	0.03853
916.75317	0.03804
915.46740	0.03761
914.18164	0.03723
912.89587	0.03685
911.61010	0.03644
910.32433	0.03603
909.03856	0.03570
907.75279	0.03546
906.46702	0.03525
905.18125	0.03496
903.89549	0.03456
902.60972	0.03413
901.32395	0.03374
900.03818	0.03341
898.75241	0.03311
897.46664	0.03283
896.18087	0.03253
894.89510	0.03220
893.60933	0.03188
892.32357	0.03162
891.03780	0.03145
889.75203	0.03136
888.46626	0.03137
887.18049	0.03151
885.89472	0.03185
884.60895	0.03249
883.32318	0.03349
882.03742	0.03477
880.75165	0.03611
879.46588	0.03726
878.18011	0.03814
876.89434	0.03886
875.60857	0.03961
874.32280	0.04044
873.03703	0.04119
871.75126	0.04162
870.46550	0.04160
869.17973	0.04119
867.89396	0.04052
866.60819	0.03970
865.32242	0.03880
864.03665	0.03787
862.75088	0.03691
861.46511	0.03597
860.17935	0.03510
858.89358	0.03430
857.60781	0.03353
856.32204	0.03278
855.03627	0.03209
853.75050	0.03153
852.46473	0.03108
851.17896	0.03070
849.89319	0.03039
848.60743	0.03015
847.32166	0.02994
846.03589	0.02973
844.75012	0.02947
843.46435	0.02917
842.17858	0.02885
840.89281	0.02856
839.60704	0.02835
838.32128	0.02823
837.03551	0.02815
835.74974	0.02806
834.46397	0.02792
833.17820	0.02775
831.89243	0.02758
830.60666	0.02743
829.32089	0.02728
828.03512	0.02711
826.74936	0.02695
825.46359	0.02685
824.17782	0.02680
822.89205	0.02677
821.60628	0.02669
820.32051	0.02656
819.03474	0.02641
817.74897	0.02628
816.46321	0.02618
815.17744	0.02612
813.89167	0.02605
812.60590	0.02598
811.32013	0.02594
810.03436	0.02597
808.74859	0.02603
807.46282	0.02605
806.17705	0.02599
804.89129	0.02587
803.60552	0.02574
802.31975	0.02565
801.03398	0.02562
799.74821	0.02562
798.46244	0.02560
797.17667	0.02555
795.89090	0.02553
794.60513	0.02554
793.31937	0.02555
792.03360	0.02552
790.74783	0.02547
789.46206	0.02547
788.17629	0.02553
786.89052	0.02560
785.60475	0.02563
784.31898	0.02561
783.03322	0.02555
781.74745	0.02543
780.46168	0.02527
779.17591	0.02514
777.89014	0.02510
776.60437	0.02514
775.31860	0.02518
774.03283	0.02521
772.74706	0.02525
771.46130	0.02535
770.17553	0.02549
768.88976	0.02557
767.60399	0.02554
766.31822	0.02545
765.03245	0.02546
763.74668	0.02560
762.46091	0.02579
761.17515	0.02589
759.88938	0.02583
758.60361	0.02570
757.31784	0.02555
756.03207	0.02542
754.74630	0.02533
753.46053	0.02534
752.17476	0.02551
750.88899	0.02575
749.60323	0.02588
748.31746	0.02583
747.03169	0.02566
745.74592	0.02548
744.46015	0.02536
743.17438	0.02531
741.88861	0.02532
740.60284	0.02541
739.31708	0.02552
738.03131	0.02554
736.74554	0.02543
735.45977	0.02531
734.17400	0.02533
732.88823	0.02551
731.60246	0.02574
730.31669	0.02591
729.03092	0.02599
727.74516	0.02600
726.45939	0.02598
725.17362	0.02598
723.88785	0.02601
722.60208	0.02613
721.31631	0.02630
720.03054	0.02645
718.74477	0.02651
717.45901	0.02648
716.17324	0.02637
714.88747	0.02621
713.60170	0.02603
712.31593	0.02589
711.03016	0.02581
709.74439	0.02583
708.45862	0.02593
707.17285	0.02602
705.88709	0.02606
704.60132	0.02605
703.31555	0.02604
702.02978	0.02606
700.74401	0.02612
699.45824	0.02619
698.17247	0.02626
696.88670	0.02633
695.60094	0.02639
694.31517	0.02642
693.02940	0.02638
691.74363	0.02628
690.45786	0.02619
689.17209	0.02617
687.88632	0.02622
686.60055	0.02626
685.31478	0.02620
684.02902	0.02604
682.74325	0.02583
681.45748	0.02570
680.17171	0.02570
678.88594	0.02578
677.60017	0.02585
676.31440	0.02587
675.02863	0.02581
673.74287	0.02570
672.45710	0.02559
671.17133	0.02553
669.88556	0.02555
668.59979	0.02562
667.31402	0.02569
666.02825	0.02570
664.74248	0.02569
663.45671	0.02567
662.17095	0.02565
660.88518	0.02559
659.59941	0.02545
658.31364	0.02523
657.02787	0.02501
655.74210	0.02484
654.45633	0.02474
653.17056	0.02468
651.88480	0.02463
650.59903	0.02460
649.31326	0.02458
648.02749	0.02459
646.74172	0.02459
645.45595	0.02458
644.17018	0.02457
642.88441	0.02456
641.59864	0.02455
640.31288	0.02451
639.02711	0.02449
637.74134	0.02450
636.45557	0.02456
635.16980	0.02466
633.88403	0.02479
632.59826	0.02499
631.31249	0.02523
630.02673	0.02545
628.74096	0.02580
627.45519	0.02622
626.16942	0.02618
624.88365	0.02580
623.59788	0.02573
622.31211	0.02668
621.02634	0.02854
619.74057	0.03038
618.45481	0.03174
617.16904	0.03319
615.88327	0.03529
614.59750	0.03763
613.31173	0.03933
612.02596	0.04025
610.74019	0.04138
609.45442	0.04379
608.16866	0.04750
606.88289	0.05156
605.59712	0.05503
604.31135	0.05746
603.02558	0.05884
601.73981	0.05943
600.45404	0.05951
599.16827	0.05915
597.88250	0.05836
596.59674	0.05720
595.31097	0.05588
594.02520	0.05464
592.73943	0.05362
591.45366	0.05285
590.16789	0.05230
588.88212	0.05196
587.59635	0.05190
586.31059	0.05225
585.02482	0.05309
583.73905	0.05439
582.45328	0.05595
581.16751	0.05754
579.88174	0.05902
578.59597	0.06039
577.31020	0.06172
576.02443	0.06306
574.73867	0.06438
573.45290	0.06565
572.16713	0.06686
570.88136	0.06810
569.59559	0.06953
568.30982	0.07129
567.02405	0.07339
565.73828	0.07565
564.45251	0.07781
563.16675	0.07957
561.88098	0.08063
560.59521	0.08079
559.30944	0.07997
558.02367	0.07823
556.73790	0.07575
555.45213	0.07282
554.16636	0.06978
552.88060	0.06690
551.59483	0.06431
550.30906	0.06200
549.02329	0.05987
547.73752	0.05784
546.45175	0.05587
545.16598	0.05400
543.88021	0.05228
542.59444	0.05077
541.30868	0.04947
540.02291	0.04832
538.73714	0.04726
537.45137	0.04625
536.16560	0.04523
534.87983	0.04420
533.59406	0.04318
532.30829	0.04223
531.02253	0.04137
529.73676	0.04056
528.45099	0.03982
527.16522	0.03917
525.87945	0.03866
524.59368	0.03824
523.30791	0.03780
522.02214	0.03727
520.73637	0.03667
519.45061	0.03608
518.16484	0.03555
516.87907	0.03506
515.59330	0.03455
514.30753	0.03404
513.02176	0.03356
511.73599	0.03318
510.45022	0.03289
509.16446	0.03262
507.87869	0.03221
506.59292	0.03159
505.30715	0.03086
504.02138	0.03019
502.73561	0.02969
501.44984	0.02937
500.16407	0.02917
498.87830	0.02903
497.59254	0.02893
496.30677	0.02879
495.02100	0.02854
493.73523	0.02820
492.44946	0.02787
491.16369	0.02765
489.87792	0.02755
488.59215	0.02750
487.30639	0.02745
486.02062	0.02739
484.73485	0.02729
483.44908	0.02714
482.16331	0.02697
480.87754	0.02689
479.59177	0.02694
478.30600	0.02712
477.02023	0.02733
475.73447	0.02753
474.44870	0.02771
473.16293	0.02788
471.87716	0.02799
470.59139	0.02798
469.30562	0.02788
468.01985	0.02772
466.73408	0.02759
465.44832	0.02750
464.16255	0.02741
462.87678	0.02726
461.59101	0.02700
460.30524	0.02665
459.01947	0.02631
457.73370	0.02603
456.44793	0.02582
455.16216	0.02560
453.87640	0.02534
452.59063	0.02503
451.30486	0.02471
450.01909	0.02441
448.73332	0.02414
447.44755	0.02391
446.16178	0.02368
444.87601	0.02343
443.59025	0.02316
442.30448	0.02295
441.01871	0.02287
439.73294	0.02289
438.44717	0.02295
437.16140	0.02294
435.87563	0.02284
434.58986	0.02269
433.30409	0.02252
432.01833	0.02235
430.73256	0.02221
429.44679	0.02210
428.16102	0.02203
426.87525	0.02195
425.58948	0.02185
424.30371	0.02171
423.01794	0.02154
421.73218	0.02136
420.44641	0.02116
419.16064	0.02096
417.87487	0.02076
416.58910	0.02057
415.30333	0.02039
414.01756	0.02022
412.73179	0.02007
411.44602	0.01996
410.16026	0.01984
408.87449	0.01967
407.58872	0.01945
406.30295	0.01924
405.01718	0.01910
403.73141	0.01905
402.44564	0.01904
401.15987	0.01905
399.87411	0.01907
