3997.45528	0.04537
3996.16951	0.04452
3994.88374	0.04377
3993.59798	0.04336
3992.31221	0.04342
3991.02644	0.04366
3989.74067	0.04373
3988.45490	0.04361
3987.16913	0.04365
3985.88336	0.04402
3984.59759	0.04452
3983.31183	0.04492
3982.02606	0.04516
3980.74029	0.04528
3979.45452	0.04522
3978.16875	0.04486
3976.88298	0.04414
3975.59721	0.04315
3974.31144	0.04214
3973.02567	0.04148
3971.73991	0.04141
3970.45414	0.04182
3969.16837	0.04238
3967.88260	0.04286
3966.59683	0.04319
3965.31106	0.04337
3964.02529	0.04346
3962.73952	0.04372
3961.45376	0.04438
3960.16799	0.04527
3958.88222	0.04582
3957.59645	0.04557
3956.31068	0.04449
3955.02491	0.04295
3953.73914	0.04144
3952.45337	0.04036
3951.16760	0.03989
3949.88184	0.03994
3948.59607	0.04036
3947.31030	0.04105
3946.02453	0.04189
3944.73876	0.04264
3943.45299	0.04306
3942.16722	0.04307
3940.88145	0.04277
3939.59569	0.04232
3938.30992	0.04199
3937.02415	0.04198
3935.73838	0.04225
3934.45261	0.04259
3933.16684	0.04292
3931.88107	0.04330
3930.59530	0.04365
3929.30953	0.04384
3928.02377	0.04385
3926.73800	0.04368
3925.45223	0.04325
3924.16646	0.04247
3922.88069	0.04166
3921.59492	0.04142
3920.30915	0.04204
3919.02338	0.04301
3917.73762	0.04354
3916.45185	0.04331
3915.16608	0.04260
3913.88031	0.04176
3912.59454	0.04088
3911.30877	0.03995
3910.02300	0.03914
3908.73723	0.03882
3907.45146	0.03915
3906.16570	0.03994
3904.87993	0.04085
3903.59416	0.04167
3902.30839	0.04230
3901.02262	0.04264
3899.73685	0.04255
3898.45108	0.04204
3897.16531	0.04131
3895.87955	0.04062
3894.59378	0.04018
3893.30801	0.04003
3892.02224	0.04008
3890.73647	0.04022
3889.45070	0.04032
3888.16493	0.04038
3886.87916	0.04056
3885.59339	0.04101
3884.30763	0.04152
3883.02186	0.04167
3881.73609	0.04128
3880.45032	0.04062
3879.16455	0.04006
3877.87878	0.03978
3876.59301	0.03971
3875.30724	0.03967
3874.02148	0.03951
3872.73571	0.03915
3871.44994	0.03874
3870.16417	0.03871
3868.87840	0.03943
3867.59263	0.04065
3866.30686	0.04181
3865.02109	0.04241
3863.73532	0.04229
3862.44956	0.04162
3861.16379	0.04087
3859.87802	0.04053
3858.59225	0.04068
3857.30648	0.04092
3856.02071	0.04081
3854.73494	0.04035
3853.44917	0.03996
3852.16341	0.03991
3850.87764	0.04009
3849.59187	0.04020
3848.30610	0.04008
3847.02033	0.03974
3845.73456	0.03940
3844.44879	0.03935
3843.16302	0.03960
3841.87725	0.03988
3840.59149	0.03989
3839.30572	0.03969
3838.01995	0.03967
3836.73418	0.04006
3835.44841	0.04064
3834.16264	0.04097
3832.87687	0.04088
3831.59110	0.04047
3830.30534	0.03986
3829.01957	0.03918
3827.73380	0.03865
3826.44803	0.03857
3825.16226	0.03899
3823.87649	0.03945
3822.59072	0.03947
3821.30495	0.03911
3820.01918	0.03880
3818.73342	0.03874
3817.44765	0.03875
3816.16188	0.03866
3814.87611	0.03856
3813.59034	0.03863
3812.30457	0.03900
3811.01880	0.03952
3809.73303	0.03965
3808.44726	0.03904
3807.16150	0.03814
3805.87573	0.03767
3804.58996	0.03771
3803.30419	0.03773
3802.01842	0.03746
3800.73265	0.03725
3799.44688	0.03741
3798.16111	0.03784
3796.87535	0.03832
3795.58958	0.03866
3794.30381	0.03875
3793.01804	0.03860
3791.73227	0.03839
3790.44650	0.03828
3789.16073	0.03824
3787.87496	0.03815
3786.58919	0.03796
3785.30343	0.03775
3784.01766	0.03756
3782.73189	0.03732
3781.44612	0.03698
3780.16035	0.03657
3778.87458	0.03627
3777.58881	0.03618
3776.30304	0.03629
3775.01728	0.03659
3773.73151	0.03711
3772.44574	0.03772
3771.15997	0.03811
3769.87420	0.03797
3768.58843	0.03726
3767.30266	0.03641
3766.01689	0.03608
3764.73112	0.03655
3763.44536	0.03744
3762.15959	0.03810
3760.87382	0.03833
3759.58805	0.03836
3758.30228	0.03833
3757.01651	0.03815
3755.73074	0.03777
3754.44497	0.03737
3753.15921	0.03730
3751.87344	0.03773
3750.58767	0.03854
3749.30190	0.03935
3748.01613	0.03973
3746.73036	0.03933
3745.44459	0.03832
3744.15882	0.03733
3742.87305	0.03677
3741.58729	0.03654
3740.30152	0.03657
3739.01575	0.03684
3737.72998	0.03722
3736.44421	0.03752
3735.15844	0.03766
3733.87267	0.03753
3732.58690	0.03718
3731.30114	0.03688
3730.01537	0.03680
3728.72960	0.03689
3727.44383	0.03700
3726.15806	0.03704
3724.87229	0.03698
3723.58652	0.03689
3722.30075	0.03692
3721.01498	0.03712
3719.72922	0.03737
3718.44345	0.03748
3717.15768	0.03745
3715.87191	0.03744
3714.58614	0.03750
3713.30037	0.03740
3712.01460	0.03675
3710.72883	0.03553
3709.44307	0.03425
3708.15730	0.03361
3706.87153	0.03387
3705.58576	0.03467
3704.29999	0.03550
3703.01422	0.03620
3701.72845	0.03680
3700.44268	0.03730
3699.15691	0.03749
3697.87115	0.03728
3696.58538	0.03692
3695.29961	0.03673
3694.01384	0.03677
3692.72807	0.03673
3691.44230	0.03617
3690.15653	0.03504
3688.87076	0.03385
3687.58500	0.03326
3686.29923	0.03338
3685.01346	0.03373
3683.72769	0.03385
3682.44192	0.03382
3681.15615	0.03397
3679.87038	0.03452
3678.58461	0.03531
3677.29884	0.03599
3676.01308	0.03644
3674.72731	0.03683
3673.44154	0.03724
3672.15577	0.03748
3670.87000	0.03739
3669.58423	0.03695
3668.29846	0.03615
3667.01269	0.03512
3665.72693	0.03416
3664.44116	0.03361
3663.15539	0.03369
3661.86962	0.03437
3660.58385	0.03544
3659.29808	0.03651
3658.01231	0.03719
3656.72654	0.03740
3655.44077	0.03737
3654.15501	0.03739
3652.86924	0.03745
3651.58347	0.03750
3650.29770	0.03763
3649.01193	0.03799
3647.72616	0.03849
3646.44039	0.03883
3645.15462	0.03893
3643.86886	0.03904
3642.58309	0.03943
3641.29732	0.04012
3640.01155	0.04095
3638.72578	0.04169
3637.44001	0.04206
3636.15424	0.04190
3634.86847	0.04134
3633.58270	0.04071
3632.29694	0.04023
3631.01117	0.03990
3629.72540	0.03980
3628.43963	0.04012
3627.15386	0.04070
3625.86809	0.04105
3624.58232	0.04095
3623.29655	0.04075
3622.01079	0.04108
3620.72502	0.04217
3619.43925	0.04364
3618.15348	0.04477
3616.86771	0.04503
3615.58194	0.04438
3614.29617	0.04326
3613.01040	0.04228
3611.72463	0.04189
3610.43887	0.04213
3609.15310	0.04284
3607.86733	0.04377
3606.58156	0.04462
3605.29579	0.04505
3604.01002	0.04498
3602.72425	0.04475
3601.43848	0.04492
3600.15272	0.04566
3598.86695	0.04651
3597.58118	0.04689
3596.29541	0.04675
3595.00964	0.04652
3593.72387	0.04650
3592.43810	0.04654
3591.15233	0.04639
3589.86656	0.04618
3588.58080	0.04633
3587.29503	0.04691
3586.00926	0.04762
3584.72349	0.04820
3583.43772	0.04868
3582.15195	0.04922
3580.86618	0.04972
3579.58041	0.04990
3578.29464	0.04968
3577.00888	0.04929
3575.72311	0.04910
3574.43734	0.04939
3573.15157	0.05018
3571.86580	0.05125
3570.58003	0.05226
3569.29426	0.05278
3568.00849	0.05261
3566.72273	0.05194
3565.43696	0.05129
3564.15119	0.05118
3562.86542	0.05165
3561.57965	0.05226
3560.29388	0.05253
3559.00811	0.05230
3557.72234	0.05184
3556.43657	0.05149
3555.15081	0.05138
3553.86504	0.05148
3552.57927	0.05167
3551.29350	0.05187
3550.00773	0.05201
3548.72196	0.05212
3547.43619	0.05243
3546.15042	0.05312
3544.86466	0.05411
3543.57889	0.05511
3542.29312	0.05593
3541.00735	0.05660
3539.72158	0.05714
3538.43581	0.05736
3537.15004	0.05704
3535.86427	0.05621
3534.57850	0.05520
3533.29274	0.05438
3532.00697	0.05395
3530.72120	0.05396
3529.43543	0.05436
3528.14966	0.05508
3526.86389	0.05594
3525.57812	0.05664
3524.29235	0.05694
3523.00659	0.05687
3521.72082	0.05667
3520.43505	0.05652
3519.14928	0.05650
3517.86351	0.05662
3516.57774	0.05689
3515.29197	0.05718
3514.00620	0.05737
3512.72043	0.05749
3511.43467	0.05769
3510.14890	0.05803
3508.86313	0.05850
3507.57736	0.05908
3506.29159	0.05971
3505.00582	0.06026
3503.72005	0.06064
3502.43428	0.06082
3501.14852	0.06085
3499.86275	0.06073
3498.57698	0.06039
3497.29121	0.05988
3496.00544	0.05946
3494.71967	0.05932
3493.43390	0.05951
3492.14813	0.06000
3490.86236	0.06080
3489.57660	0.06182
3488.29083	0.06272
3487.00506	0.06309
3485.71929	0.06284
3484.43352	0.06222
3483.14775	0.06155
3481.86198	0.06105
3480.57621	0.06087
3479.29045	0.06110
3478.00468	0.06172
3476.71891	0.06246
3475.43314	0.06296
3474.14737	0.06299
3472.86160	0.06273
3471.57583	0.06266
3470.29006	0.06319
3469.00429	0.06421
3467.71853	0.06514
3466.43276	0.06549
3465.14699	0.06521
3463.86122	0.06472
3462.57545	0.06447
3461.28968	0.06460
3460.00391	0.06497
3458.71814	0.06533
3457.43238	0.06552
3456.14661	0.06557
3454.86084	0.06559
3453.57507	0.06569
3452.28930	0.06584
3451.00353	0.06595
3449.71776	0.06595
3448.43199	0.06585
3447.14622	0.06577
3445.86046	0.06589
3444.57469	0.06628
3443.28892	0.06686
3442.00315	0.06740
3440.71738	0.06773
3439.43161	0.06780
3438.14584	0.06767
3436.86007	0.06746
3435.57431	0.06740
3434.28854	0.06769
3433.00277	0.06832
3431.71700	0.06900
3430.43123	0.06942
3429.14546	0.06950
3427.85969	0.06935
3426.57392	0.06913
3425.28815	0.06894
3424.00239	0.06880
3422.71662	0.06870
3421.43085	0.06861
3420.14508	0.06855
3418.85931	0.06859
3417.57354	0.06876
3416.28777	0.06901
3415.00200	0.06915
3413.71624	0.06901
3412.43047	0.06859
3411.14470	0.06815
3409.85893	0.06799
3408.57316	0.06815
3407.28739	0.06844
3406.00162	0.06868
3404.71585	0.06897
3403.43008	0.06946
3402.14432	0.07005
3400.85855	0.07048
3399.57278	0.07064
3398.28701	0.07068
3397.00124	0.07083
3395.71547	0.07111
3394.42970	0.07136
3393.14393	0.07157
3391.85817	0.07185
3390.57240	0.07218
3389.28663	0.07230
3388.00086	0.07197
3386.71509	0.07126
3385.42932	0.07049
3384.14355	0.06998
3382.85778	0.06982
3381.57201	0.06990
3380.28625	0.07006
3379.00048	0.07023
3377.71471	0.07046
3376.42894	0.07080
3375.14317	0.07119
3373.85740	0.07143
3372.57163	0.07136
3371.28586	0.07099
3370.00010	0.07058
3368.71433	0.07049
3367.42856	0.07093
3366.14279	0.07171
3364.85702	0.07235
3363.57125	0.07247
3362.28548	0.07207
3360.99971	0.07143
3359.71394	0.07086
3358.42818	0.07067
3357.14241	0.07100
3355.85664	0.07173
3354.57087	0.07245
3353.28510	0.07280
3351.99933	0.07269
3350.71356	0.07228
3349.42779	0.07173
3348.14202	0.07111
3346.85626	0.07053
3345.57049	0.07013
3344.28472	0.07002
3342.99895	0.07019
3341.71318	0.07063
3340.42741	0.07127
3339.14164	0.07197
3337.85587	0.07246
3336.57011	0.07249
3335.28434	0.07205
3333.99857	0.07145
3332.71280	0.07109
3331.42703	0.07110
3330.14126	0.07133
3328.85549	0.07153
3327.56972	0.07163
3326.28395	0.07170
3324.99819	0.07178
3323.71242	0.07180
3322.42665	0.07169
3321.14088	0.07148
3319.85511	0.07123
3318.56934	0.07097
3317.28357	0.07064
3315.99780	0.07027
3314.71204	0.06994
3313.42627	0.06978
3312.14050	0.06979
3310.85473	0.06986
3309.56896	0.06988
3308.28319	0.06979
3306.99742	0.06962
3305.71165	0.06940
3304.42588	0.06917
3303.14012	0.06903
3301.85435	0.06911
3300.56858	0.06942
3299.28281	0.06978
3297.99704	0.06993
3296.71127	0.06981
3295.42550	0.06960
3294.13973	0.06954
3292.85397	0.06973
3291.56820	0.06999
3290.28243	0.07008
3288.99666	0.06985
3287.71089	0.06931
3286.42512	0.06870
3285.13935	0.06835
3283.85358	0.06848
3282.56781	0.06906
3281.28205	0.06980
3279.99628	0.07036
3278.71051	0.07057
3277.42474	0.07052
3276.13897	0.07044
3274.85320	0.07041
3273.56743	0.07029
3272.28166	0.06990
3270.99590	0.06924
3269.71013	0.06848
3268.42436	0.06794
3267.13859	0.06786
3265.85282	0.06826
3264.56705	0.06896
3263.28128	0.06961
3261.99551	0.07001
3260.70974	0.07010
3259.42398	0.06996
3258.13821	0.06962
3256.85244	0.06909
3255.56667	0.06843
3254.28090	0.06788
3252.99513	0.06770
3251.70936	0.06793
3250.42359	0.06836
3249.13783	0.06866
3247.85206	0.06869
3246.56629	0.06853
3245.28052	0.06841
3243.99475	0.06850
3242.70898	0.06880
3241.42321	0.06909
3240.13744	0.06913
3238.85167	0.06883
3237.56591	0.06824
3236.28014	0.06758
3234.99437	0.06705
3233.70860	0.06674
3232.42283	0.06662
3231.13706	0.06658
3229.85129	0.06657
3228.56552	0.06664
3227.27976	0.06676
3225.99399	0.06685
3224.70822	0.06687
3223.42245	0.06683
3222.13668	0.06675
3220.85091	0.06657
3219.56514	0.06625
3218.27937	0.06590
3216.99360	0.06573
3215.70784	0.06589
3214.42207	0.06628
3213.13630	0.06667
3211.85053	0.06687
3210.56476	0.06687
3209.27899	0.06674
3207.99322	0.06647
3206.70745	0.06605
3205.42169	0.06560
3204.13592	0.06534
3202.85015	0.06543
3201.56438	0.06573
3200.27861	0.06591
3198.99284	0.06580
3197.70707	0.06558
3196.42130	0.06549
3195.13553	0.06554
3193.84977	0.06547
3192.56400	0.06513
3191.27823	0.06467
3189.99246	0.06441
3188.70669	0.06451
3187.42092	0.06484
3186.13515	0.06504
3184.84938	0.06481
3183.56362	0.06421
3182.27785	0.06364
3180.99208	0.06355
3179.70631	0.06400
3178.42054	0.06462
3177.13477	0.06491
3175.84900	0.06465
3174.56323	0.06400
3173.27746	0.06332
3171.99170	0.06287
3170.70593	0.06271
3169.42016	0.06274
3168.13439	0.06284
3166.84862	0.06293
3165.56285	0.06300
3164.27708	0.06303
3162.99131	0.06296
3161.70555	0.06268
3160.41978	0.06222
3159.13401	0.06176
3157.84824	0.06159
3156.56247	0.06183
3155.27670	0.06235
3153.99093	0.06283
3152.70516	0.06300
3151.41939	0.06280
3150.13363	0.06241
3148.84786	0.06203
3147.56209	0.06168
3146.27632	0.06127
3144.99055	0.06078
3143.70478	0.06030
3142.41901	0.05999
3141.13324	0.05998
3139.84748	0.06030
3138.56171	0.06081
3137.27594	0.06128
3135.99017	0.06150
3134.70440	0.06148
3133.41863	0.06136
3132.13286	0.06126
3130.84709	0.06124
3129.56132	0.06126
3128.27556	0.06125
3126.98979	0.06110
3125.70402	0.06081
3124.41825	0.06044
3123.13248	0.06013
3121.84671	0.05993
3120.56094	0.05981
3119.27517	0.05964
3117.98940	0.05935
3116.70364	0.05897
3115.41787	0.05860
3114.13210	0.05827
3112.84633	0.05800
3111.56056	0.05786
3110.27479	0.05799
3108.98902	0.05833
3107.70325	0.05872
3106.41749	0.05897
3105.13172	0.05900
3103.84595	0.05880
3102.56018	0.05842
3101.27441	0.05803
3099.98864	0.05781
3098.70287	0.05786
3097.41710	0.05810
3096.13133	0.05837
3094.84557	0.05852
3093.55980	0.05847
3092.27403	0.05820
3090.98826	0.05783
3089.70249	0.05747
3088.41672	0.05723
3087.13095	0.05708
3085.84518	0.05695
3084.55942	0.05679
3083.27365	0.05663
3081.98788	0.05656
3080.70211	0.05662
3079.41634	0.05669
3078.13057	0.05661
3076.84480	0.05630
3075.55903	0.05589
3074.27326	0.05561
3072.98750	0.05554
3071.70173	0.05560
3070.41596	0.05571
3069.13019	0.05584
3067.84442	0.05593
3066.55865	0.05590
3065.27288	0.05566
3063.98711	0.05533
3062.70135	0.05507
3061.41558	0.05490
3060.12981	0.05473
3058.84404	0.05449
3057.55827	0.05423
3056.27250	0.05407
3054.98673	0.05403
3053.70096	0.05414
3052.41519	0.05439
3051.12943	0.05471
3049.84366	0.05495
3048.55789	0.05494
3047.27212	0.05460
3045.98635	0.05404
3044.70058	0.05344
3043.41481	0.05305
3042.12904	0.05301
3040.84328	0.05325
3039.55751	0.05351
3038.27174	0.05357
3036.98597	0.05339
3035.70020	0.05311
3034.41443	0.05284
3033.12866	0.05263
3031.84289	0.05244
3030.55712	0.05234
3029.27136	0.05235
3027.98559	0.05243
3026.69982	0.05240
3025.41405	0.05220
3024.12828	0.05194
3022.84251	0.05176
3021.55674	0.05168
3020.27097	0.05164
3018.98521	0.05159
3017.69944	0.05155
3016.41367	0.05149
3015.12790	0.05140
3013.84213	0.05124
3012.55636	0.05104
3011.27059	0.05085
3009.98482	0.05074
3008.69905	0.05074
3007.41329	0.05079
3006.12752	0.05074
3004.84175	0.05053
3003.55598	0.05025
3002.27021	0.04999
3000.98444	0.04986
2999.69867	0.04987
2998.41290	0.05000
2997.12714	0.05023
2995.84137	0.05046
2994.55560	0.05061
2993.26983	0.05063
2991.98406	0.05050
2990.69829	0.05020
2989.41252	0.04983
2988.12675	0.04963
2986.84098	0.04980
2985.55522	0.05022
2984.26945	0.05061
2982.98368	0.05076
2981.69791	0.05080
2980.41214	0.05091
2979.12637	0.05117
2977.84060	0.05145
2976.55483	0.05159
2975.26907	0.05158
2973.98330	0.05153
2972.69753	0.05160
2971.41176	0.05186
2970.12599	0.05231
2968.84022	0.05285
2967.55445	0.05336
2966.26868	0.05378
2964.98291	0.05409
2963.69715	0.05427
2962.41138	0.05436
2961.12561	0.05436
2959.83984	0.05432
2958.55407	0.05431
2957.26830	0.05442
2955.98253	0.05469
2954.69676	0.05505
2953.41100	0.05535
2952.12523	0.05547
2950.83946	0.05539
2949.55369	0.05518
2948.26792	0.05498
2946.98215	0.05489
2945.69638	0.05489
2944.41061	0.05491
2943.12484	0.05491
2941.83908	0.05490
2940.55331	0.05492
2939.26754	0.05500
2937.98177	0.05515
2936.69600	0.05540
2935.41023	0.05569
2934.12446	0.05591
2932.83869	0.05595
2931.55293	0.05587
2930.26716	0.05582
2928.98139	0.05588
2927.69562	0.05607
2926.40985	0.05626
2925.12408	0.05633
2923.83831	0.05623
2922.55254	0.05599
2921.26677	0.05571
2919.98101	0.05542
2918.69524	0.05508
2917.40947	0.05469
2916.12370	0.05431
2914.83793	0.05397
2913.55216	0.05364
2912.26639	0.05328
2910.98062	0.05299
2909.69486	0.05283
2908.40909	0.05271
2907.12332	0.05249
2905.83755	0.05213
2904.55178	0.05176
2903.26601	0.05146
2901.98024	0.05118
2900.69447	0.05085
2899.40870	0.05047
2898.12294	0.05011
2896.83717	0.04979
2895.55140	0.04951
2894.26563	0.04931
2892.97986	0.04919
2891.69409	0.04913
2890.40832	0.04914
2889.12255	0.04919
2887.83678	0.04919
2886.55102	0.04905
2885.26525	0.04878
2883.97948	0.04852
2882.69371	0.04834
2881.40794	0.04820
2880.12217	0.04807
2878.83640	0.04798
2877.55063	0.04794
2876.26487	0.04796
2874.97910	0.04798
2873.69333	0.04802
2872.40756	0.04810
2871.12179	0.04816
2869.83602	0.04809
2868.55025	0.04780
2867.26448	0.04744
2865.97871	0.04727
2864.69295	0.04744
2863.40718	0.04776
2862.12141	0.04789
2860.83564	0.04765
2859.54987	0.04716
2858.26410	0.04674
2856.97833	0.04653
2855.69256	0.04645
2854.40680	0.04634
2853.12103	0.04615
2851.83526	0.04587
2850.54949	0.04546
2849.26372	0.04495
2847.97795	0.04443
2846.69218	0.04399
2845.40641	0.04367
2844.12064	0.04345
2842.83488	0.04328
2841.54911	0.04310
2840.26334	0.04282
2838.97757	0.04245
2837.69180	0.04210
2836.40603	0.04188
2835.12026	0.04178
2833.83449	0.04172
2832.54873	0.04157
2831.26296	0.04127
2829.97719	0.04087
2828.69142	0.04046
2827.40565	0.04011
2826.11988	0.03981
2824.83411	0.03954
2823.54834	0.03933
2822.26257	0.03912
2820.97681	0.03892
2819.69104	0.03876
2818.40527	0.03872
2817.11950	0.03882
2815.83373	0.03900
2814.54796	0.03914
2813.26219	0.03918
2811.97642	0.03915
2810.69066	0.03907
2809.40489	0.03888
2808.11912	0.03850
2806.83335	0.03798
2805.54758	0.03752
2804.26181	0.03736
2802.97604	0.03753
2801.69027	0.03784
2800.40450	0.03803
2799.11874	0.03795
2797.83297	0.03764
2796.54720	0.03725
2795.26143	0.03696
2793.97566	0.03677
2792.68989	0.03664
2791.40412	0.03656
2790.11835	0.03659
2788.83259	0.03670
2787.54682	0.03684
2786.26105	0.03694
2784.97528	0.03697
2783.68951	0.03688
2782.40374	0.03666
2781.11797	0.03641
2779.83220	0.03629
2778.54643	0.03636
2777.26067	0.03653
2775.97490	0.03666
2774.68913	0.03662
2773.40336	0.03639
2772.11759	0.03608
2770.83182	0.03586
2769.54605	0.03586
2768.26028	0.03603
2766.97452	0.03619
2765.68875	0.03621
2764.40298	0.03611
2763.11721	0.03599
2761.83144	0.03593
2760.54567	0.03588
2759.25990	0.03577
2757.97413	0.03559
2756.68836	0.03540
2755.40260	0.03531
2754.11683	0.03531
2752.83106	0.03530
2751.54529	0.03523
2750.25952	0.03509
2748.97375	0.03491
2747.68798	0.03468
2746.40221	0.03443
2745.11645	0.03426
2743.83068	0.03422
2742.54491	0.03425
2741.25914	0.03431
2739.97337	0.03444
2738.68760	0.03465
2737.40183	0.03483
2736.11606	0.03488
2734.83029	0.03480
2733.54453	0.03461
2732.25876	0.03436
2730.97299	0.03413
2729.68722	0.03400
2728.40145	0.03401
2727.11568	0.03413
2725.82991	0.03429
2724.54414	0.03442
2723.25838	0.03446
2721.97261	0.03437
2720.68684	0.03414
2719.40107	0.03383
2718.11530	0.03354
2716.82953	0.03338
2715.54376	0.03333
2714.25799	0.03333
2712.97222	0.03328
2711.68646	0.03315
2710.40069	0.03302
2709.11492	0.03302
2707.82915	0.03322
2706.54338	0.03352
2705.25761	0.03373
2703.97184	0.03375
2702.68607	0.03365
2701.40031	0.03355
2700.11454	0.03341
2698.82877	0.03317
2697.54300	0.03286
2696.25723	0.03258
2694.97146	0.03246
2693.68569	0.03249
2692.39992	0.03262
2691.11415	0.03271
2689.82839	0.03268
2688.54262	0.03254
2687.25685	0.03232
2685.97108	0.03211
2684.68531	0.03196
2683.39954	0.03191
2682.11377	0.03197
2680.82800	0.03208
2679.54224	0.03214
2678.25647	0.03207
2676.97070	0.03191
2675.68493	0.03178
2674.39916	0.03178
2673.11339	0.03188
2671.82762	0.03199
2670.54185	0.03202
2669.25608	0.03199
2667.97032	0.03197
2666.68455	0.03203
2665.39878	0.03205
2664.11301	0.03192
2662.82724	0.03166
2661.54147	0.03144
2660.25570	0.03143
2658.96993	0.03160
2657.68417	0.03180
2656.39840	0.03185
2655.11263	0.03173
2653.82686	0.03152
2652.54109	0.03135
2651.25532	0.03127
2649.96955	0.03117
2648.68378	0.03100
2647.39801	0.03082
2646.11225	0.03071
2644.82648	0.03062
2643.54071	0.03052
2642.25494	0.03042
2640.96917	0.03034
2639.68340	0.03018
2638.39763	0.02987
2637.11186	0.02953
2635.82609	0.02933
2634.54033	0.02925
2633.25456	0.02920
2631.96879	0.02911
2630.68302	0.02898
2629.39725	0.02889
2628.11148	0.02886
2626.82571	0.02888
2625.53994	0.02884
2624.25418	0.02868
2622.96841	0.02840
2621.68264	0.02806
2620.39687	0.02776
2619.11110	0.02762
2617.82533	0.02767
2616.53956	0.02783
2615.25379	0.02794
2613.96802	0.02791
2612.68226	0.02776
2611.39649	0.02756
2610.11072	0.02738
2608.82495	0.02729
2607.53918	0.02729
2606.25341	0.02735
2604.96764	0.02739
2603.68187	0.02734
2602.39611	0.02716
2601.11034	0.02694
2599.82457	0.02690
2598.53880	0.02714
2597.25303	0.02749
2595.96726	0.02765
2594.68149	0.02745
2593.39572	0.02695
2592.10995	0.02638
2590.82419	0.02592
2589.53842	0.02571
2588.25265	0.02582
2586.96688	0.02613
2585.68111	0.02643
2584.39534	0.02652
2583.10957	0.02642
2581.82380	0.02638
2580.53804	0.02656
2579.25227	0.02685
2577.96650	0.02696
2576.68073	0.02671
2575.39496	0.02626
2574.10919	0.02587
2572.82342	0.02563
2571.53765	0.02535
2570.25188	0.02492
2568.96612	0.02452
2567.68035	0.02444
2566.39458	0.02470
2565.10881	0.02499
2563.82304	0.02507
2562.53727	0.02496
2561.25150	0.02484
2559.96573	0.02479
2558.67997	0.02471
2557.39420	0.02453
2556.10843	0.02433
2554.82266	0.02435
2553.53689	0.02468
2552.25112	0.02516
2550.96535	0.02546
2549.67958	0.02543
2548.39381	0.02517
2547.10805	0.02488
2545.82228	0.02466
2544.53651	0.02451
2543.25074	0.02446
2541.96497	0.02449
2540.67920	0.02451
2539.39343	0.02438
2538.10766	0.02412
2536.82190	0.02395
2535.53613	0.02399
2534.25036	0.02408
2532.96459	0.02396
2531.67882	0.02363
2530.39305	0.02335
2529.10728	0.02336
2527.82151	0.02359
2526.53574	0.02371
2525.24998	0.02356
2523.96421	0.02326
2522.67844	0.02299
2521.39267	0.02280
2520.10690	0.02268
2518.82113	0.02271
2517.53536	0.02293
2516.24959	0.02321
2514.96383	0.02338
2513.67806	0.02348
2512.39229	0.02365
2511.10652	0.02390
2509.82075	0.02397
2508.53498	0.02362
2507.24921	0.02289
2505.96344	0.02212
2504.67767	0.02168
2503.39191	0.02175
2502.10614	0.02222
2500.82037	0.02276
2499.53460	0.02309
2498.24883	0.02317
2496.96306	0.02321
2495.67729	0.02330
2494.39152	0.02330
2493.10576	0.02310
2491.81999	0.02278
2490.53422	0.02249
2489.24845	0.02224
2487.96268	0.02193
2486.67691	0.02156
2485.39114	0.02128
2484.10537	0.02116
2482.81960	0.02119
2481.53384	0.02133
2480.24807	0.02155
2478.96230	0.02187
2477.67653	0.02223
2476.39076	0.02254
2475.10499	0.02270
2473.81922	0.02266
2472.53345	0.02243
2471.24769	0.02213
2469.96192	0.02188
2468.67615	0.02181
2467.39038	0.02192
2466.10461	0.02208
2464.81884	0.02213
2463.53307	0.02202
2462.24730	0.02182
2460.96153	0.02163
2459.67577	0.02149
2458.39000	0.02145
2457.10423	0.02144
2455.81846	0.02143
2454.53269	0.02146
2453.24692	0.02161
2451.96115	0.02179
2450.67538	0.02175
2449.38962	0.02145
2448.10385	0.02109
2446.81808	0.02090
2445.53231	0.02092
2444.24654	0.02105
2442.96077	0.02122
2441.67500	0.02132
2440.38923	0.02127
2439.10346	0.02112
2437.81770	0.02103
2436.53193	0.02107
2435.24616	0.02109
2433.96039	0.02095
2432.67462	0.02069
2431.38885	0.02048
2430.10308	0.02051
2428.81731	0.02077
2427.53155	0.02109
2426.24578	0.02120
2424.96001	0.02097
2423.67424	0.02048
2422.38847	0.02006
2421.10270	0.01997
2419.81693	0.02022
2418.53116	0.02060
2417.24539	0.02085
2415.95963	0.02082
2414.67386	0.02052
2413.38809	0.02011
2412.10232	0.01981
2410.81655	0.01981
2409.53078	0.02010
2408.24501	0.02043
2406.95924	0.02048
2405.67347	0.02018
2404.38771	0.01980
2403.10194	0.01963
2401.81617	0.01975
2400.53040	0.02001
2399.24463	0.02021
2397.95886	0.02039
2396.67309	0.02054
2395.38732	0.02066
2394.10156	0.02071
2392.81579	0.02067
2391.53002	0.02050
2390.24425	0.02025
2388.95848	0.02004
2387.67271	0.01997
2386.38694	0.02009
2385.10117	0.02029
2383.81540	0.02041
2382.52964	0.02038
2381.24387	0.02025
2379.95810	0.02014
2378.67233	0.02012
2377.38656	0.02014
2376.10079	0.02020
2374.81502	0.02030
2373.52925	0.02043
2372.24349	0.02047
2370.95772	0.02035
2369.67195	0.02017
2368.38618	0.02010
2367.10041	0.02023
2365.81464	0.02051
2364.52887	0.02082
2363.24310	0.02106
2361.95733	0.02126
2360.67157	0.02144
2359.38580	0.02157
2358.10003	0.02157
2356.81426	0.02146
2355.52849	0.02132
2354.24272	0.02119
2352.95695	0.02107
2351.67118	0.02096
2350.38542	0.02088
2349.09965	0.02090
2347.81388	0.02098
2346.52811	0.02098
2345.24234	0.02092
2343.95657	0.02090
2342.67080	0.02102
2341.38503	0.02118
2340.09926	0.02127
2338.81350	0.02127
2337.52773	0.02121
2336.24196	0.02111
2334.95619	0.02101
2333.67042	0.02096
2332.38465	0.02093
2331.09888	0.02083
2329.81311	0.02079
2328.52735	0.02108
2327.24158	0.02167
2325.95581	0.02243
2324.67004	0.02310
2323.38427	0.02333
2322.09850	0.02312
2320.81273	0.02278
2319.52696	0.02238
2318.24119	0.02194
2316.95543	0.02154
2315.66966	0.02123
2314.38389	0.02115
2313.09812	0.02127
2311.81235	0.02134
2310.52658	0.02121
2309.24081	0.02087
2307.95504	0.02044
2306.66928	0.02013
2305.38351	0.02006
2304.09774	0.02025
2302.81197	0.02057
2301.52620	0.02082
2300.24043	0.02085
2298.95466	0.02062
2297.66889	0.02018
2296.38312	0.01969
2295.09736	0.01941
2293.81159	0.01953
2292.52582	0.01998
2291.24005	0.02049
2289.95428	0.02080
2288.66851	0.02082
2287.38274	0.02056
2286.09697	0.02010
2284.81121	0.01957
2283.52544	0.01917
2282.23967	0.01898
2280.95390	0.01891
2279.66813	0.01883
2278.38236	0.01867
2277.09659	0.01840
2275.81082	0.01793
2274.52505	0.01720
2273.23929	0.01641
2271.95352	0.01597
2270.66775	0.01615
2269.38198	0.01678
2268.09621	0.01738
2266.81044	0.01763
2265.52467	0.01751
2264.23890	0.01719
2262.95314	0.01676
2261.66737	0.01627
2260.38160	0.01579
2259.09583	0.01557
2257.81006	0.01581
2256.52429	0.01648
2255.23852	0.01718
2253.95275	0.01736
2252.66698	0.01676
2251.38122	0.01570
2250.09545	0.01496
2248.80968	0.01510
2247.52391	0.01577
2246.23814	0.01633
2244.95237	0.01631
2243.66660	0.01580
2242.38083	0.01516
2241.09507	0.01464
2239.80930	0.01432
2238.52353	0.01413
2237.23776	0.01396
2235.95199	0.01370
2234.66622	0.01345
2233.38045	0.01339
2232.09468	0.01359
2230.80891	0.01385
2229.52315	0.01398
2228.23738	0.01398
2226.95161	0.01399
2225.66584	0.01405
2224.38007	0.01405
2223.09430	0.01388
2221.80853	0.01364
2220.52276	0.01353
2219.23700	0.01360
2217.95123	0.01374
2216.66546	0.01381
2215.37969	0.01363
2214.09392	0.01313
2212.80815	0.01243
2211.52238	0.01187
2210.23661	0.01178
2208.95084	0.01222
2207.66508	0.01295
2206.37931	0.01355
2205.09354	0.01374
2203.80777	0.01353
2202.52200	0.01312
2201.23623	0.01267
2199.95046	0.01227
2198.66469	0.01203
2197.37893	0.01198
2196.09316	0.01207
2194.80739	0.01218
2193.52162	0.01217
2192.23585	0.01192
2190.95008	0.01145
2189.66431	0.01099
2188.37854	0.01078
2187.09277	0.01090
2185.80701	0.01119
2184.52124	0.01135
2183.23547	0.01103
2181.94970	0.01012
2180.66393	0.00888
2179.37816	0.00772
2178.09239	0.00691
2176.80662	0.00651
2175.52085	0.00659
2174.23509	0.00714
2172.94932	0.00786
2171.66355	0.00838
2170.37778	0.00845
2169.09201	0.00809
2167.80624	0.00751
2166.52047	0.00695
2165.23470	0.00677
2163.94894	0.00720
2162.66317	0.00802
2161.37740	0.00833
2160.09163	0.00727
2158.80586	0.00505
2157.52009	0.00290
2156.23432	0.00173
2154.94855	0.00157
2153.66278	0.00213
2152.37702	0.00313
2151.09125	0.00417
2149.80548	0.00482
2148.51971	0.00507
2147.23394	0.00526
2145.94817	0.00562
2144.66240	0.00614
2143.37663	0.00678
2142.09087	0.00754
2140.80510	0.00829
2139.51933	0.00869
2138.23356	0.00855
2136.94779	0.00810
2135.66202	0.00782
2134.37625	0.00796
2133.09048	0.00840
2131.80471	0.00880
2130.51895	0.00893
2129.23318	0.00882
2127.94741	0.00873
2126.66164	0.00898
2125.37587	0.00961
2124.09010	0.01022
2122.80433	0.01038
2121.51856	0.01008
2120.23280	0.00978
2118.94703	0.00992
2117.66126	0.01042
2116.37549	0.01080
2115.08972	0.01081
2113.80395	0.01062
2112.51818	0.01057
2111.23241	0.01072
2109.94664	0.01097
2108.66088	0.01123
2107.37511	0.01137
2106.08934	0.01121
2104.80357	0.01070
2103.51780	0.01004
2102.23203	0.00952
2100.94626	0.00914
2099.66049	0.00811
2098.37473	0.00742
2097.08896	0.00711
2095.80319	0.00705
2094.51742	0.00730
2093.23165	0.00785
2091.94588	0.00851
2090.66011	0.00904
2089.37434	0.00930
2088.08857	0.00933
2086.80281	0.00921
2085.51704	0.00901
2084.23127	0.00882
2082.94550	0.00876
2081.65973	0.00890
2080.37396	0.00911
2079.08819	0.00911
2077.80242	0.00871
2076.51666	0.00802
2075.23089	0.00735
2073.94512	0.00700
2072.65935	0.00708
2071.37358	0.00750
2070.08781	0.00788
2068.80204	0.00778
2067.51627	0.00715
2066.23050	0.00633
2064.94474	0.00577
2063.65897	0.00565
2062.37320	0.00591
2061.08743	0.00649
2059.80166	0.00734
2058.51589	0.00827
2057.23012	0.00901
2055.94435	0.00938
2054.65859	0.00941
2053.37282	0.00909
2052.08705	0.00825
2050.80128	0.00683
2049.51551	0.00515
2048.22974	0.00370
2046.94397	0.00276
2045.65820	0.00218
2044.37243	0.00174
2043.08667	0.00140
2041.80090	0.00126
2040.51513	0.00134
2039.22936	0.00146
2037.94359	0.00144
2036.65782	0.00133
2035.37205	0.00140
2034.08628	0.00171
2032.80052	0.00192
2031.51475	0.00174
2030.22898	0.00135
2028.94321	0.00122
2027.65744	0.00151
2026.37167	0.00194
2025.08590	0.00216
2023.80013	0.00219
2022.51436	0.00229
2021.22860	0.00251
2019.94283	0.00248
2018.65706	0.00176
2017.37129	0.00034
2016.08552	-0.00128
2014.79975	-0.00230
2013.51398	-0.00222
2012.22821	-0.00116
2010.94245	0.00027
2009.65668	0.00163
2008.37091	0.00302
2007.08514	0.00466
2005.79937	0.00622
2004.51360	0.00693
2003.22783	0.00657
2001.94206	0.00585
2000.65629	0.00578
1999.37053	0.00677
1998.08476	0.00838
1996.79899	0.00975
1995.51322	0.01030
1994.22745	0.00996
1992.94168	0.00907
1991.65591	0.00801
1990.37014	0.00697
1989.08438	0.00602
1987.79861	0.00530
1986.51284	0.00503
1985.22707	0.00522
1983.94130	0.00562
1982.65553	0.00587
1981.36976	0.00566
1980.08399	0.00493
1978.79822	0.00393
1977.51246	0.00311
1976.22669	0.00282
1974.94092	0.00302
1973.65515	0.00350
1972.36938	0.00405
1971.08361	0.00453
1969.79784	0.00480
1968.51207	0.00481
1967.22631	0.00482
1965.94054	0.00521
1964.65477	0.00618
1963.36900	0.00744
1962.08323	0.00847
1960.79746	0.00893
1959.51169	0.00883
1958.22592	0.00834
1956.94015	0.00761
1955.65439	0.00685
1954.36862	0.00632
1953.08285	0.00619
1951.79708	0.00648
1950.51131	0.00706
1949.22554	0.00770
1947.93977	0.00805
1946.65400	0.00797
1945.36823	0.00762
1944.08247	0.00739
1942.79670	0.00751
1941.51093	0.00785
1940.22516	0.00813
1938.93939	0.00824
1937.65362	0.00829
1936.36785	0.00834
1935.08208	0.00832
1933.79632	0.00823
1932.51055	0.00835
1931.22478	0.00892
1929.93901	0.00979
1928.65324	0.01051
1927.36747	0.01070
1926.08170	0.01045
1924.79593	0.01020
1923.51016	0.01029
1922.22440	0.01063
1920.93863	0.01088
1919.65286	0.01086
1918.36709	0.01074
1917.08132	0.01067
1915.79555	0.01058
1914.50978	0.01033
1913.22401	0.00994
1911.93825	0.00960
1910.65248	0.00947
1909.36671	0.00950
1908.08094	0.00958
1906.79517	0.00967
1905.50940	0.00982
1904.22363	0.01001
1902.93786	0.01010
1901.65209	0.00997
1900.36633	0.00971
1899.08056	0.00957
1897.79479	0.00970
1896.50902	0.01001
1895.22325	0.01026
1893.93748	0.01021
1892.65171	0.00989
1891.36594	0.00955
1890.08018	0.00948
1888.79441	0.00977
1887.50864	0.01024
1886.22287	0.01065
1884.93710	0.01089
1883.65133	0.01099
1882.36556	0.01094
1881.07979	0.01077
1879.79402	0.01052
1878.50826	0.01029
1877.22249	0.01016
1875.93672	0.01017
1874.65095	0.01029
1873.36518	0.01046
1872.07941	0.01059
1870.79364	0.01066
1869.50787	0.01070
1868.22211	0.01069
1866.93634	0.01055
1865.65057	0.01025
1864.36480	0.00993
1863.07903	0.00976
1861.79326	0.00982
1860.50749	0.01006
1859.22172	0.01029
1857.93595	0.01037
1856.65019	0.01032
1855.36442	0.01027
1854.07865	0.01030
1852.79288	0.01038
1851.50711	0.01045
1850.22134	0.01047
1848.93557	0.01048
1847.64980	0.01050
1846.36404	0.01051
1845.07827	0.01054
1843.79250	0.01064
1842.50673	0.01081
1841.22096	0.01097
1839.93519	0.01104
1838.64942	0.01106
1837.36365	0.01107
1836.07788	0.01106
1834.79212	0.01100
1833.50635	0.01088
1832.22058	0.01078
1830.93481	0.01081
1829.64904	0.01099
1828.36327	0.01121
1827.07750	0.01127
1825.79173	0.01110
1824.50597	0.01079
1823.22020	0.01053
1821.93443	0.01043
1820.64866	0.01044
1819.36289	0.01049
1818.07712	0.01057
1816.79135	0.01076
1815.50558	0.01105
1814.21981	0.01136
1812.93405	0.01156
1811.64828	0.01166
1810.36251	0.01175
1809.07674	0.01188
1807.79097	0.01202
1806.50520	0.01213
1805.21943	0.01219
1803.93366	0.01218
1802.64790	0.01211
1801.36213	0.01200
1800.07636	0.01195
1798.79059	0.01197
1797.50482	0.01201
1796.21905	0.01201
1794.93328	0.01196
1793.64751	0.01197
1792.36174	0.01211
1791.07598	0.01237
1789.79021	0.01259
1788.50444	0.01266
1787.21867	0.01258
1785.93290	0.01246
1784.64713	0.01239
1783.36136	0.01240
1782.07559	0.01245
1780.78983	0.01249
1779.50406	0.01247
1778.21829	0.01238
1776.93252	0.01227
1775.64675	0.01220
1774.36098	0.01223
1773.07521	0.01236
1771.78944	0.01258
1770.50367	0.01284
1769.21791	0.01310
1767.93214	0.01335
1766.64637	0.01355
1765.36060	0.01363
1764.07483	0.01358
1762.78906	0.01353
1761.50329	0.01359
1760.21752	0.01374
1758.93176	0.01383
1757.64599	0.01375
1756.36022	0.01357
1755.07445	0.01344
1753.78868	0.01340
1752.50291	0.01343
1751.21714	0.01353
1749.93137	0.01370
1748.64560	0.01390
1747.35984	0.01410
1746.07407	0.01427
1744.78830	0.01440
1743.50253	0.01449
1742.21676	0.01457
1740.93099	0.01466
1739.64522	0.01474
1738.35945	0.01481
1737.07369	0.01481
1735.78792	0.01473
1734.50215	0.01468
1733.21638	0.01480
1731.93061	0.01506
1730.64484	0.01531
1729.35907	0.01551
1728.07330	0.01572
1726.78753	0.01594
1725.50177	0.01617
1724.21600	0.01641
1722.93023	0.01670
1721.64446	0.01701
1720.35869	0.01723
1719.07292	0.01732
1717.78715	0.01739
1716.50138	0.01755
1715.21561	0.01784
1713.92985	0.01821
1712.64408	0.01859
1711.35831	0.01892
1710.07254	0.01918
1708.78677	0.01942
1707.50100	0.01968
1706.21523	0.02003
1704.92946	0.02045
1703.64370	0.02088
1702.35793	0.02122
1701.07216	0.02156
1699.78639	0.02206
1698.50062	0.02261
1697.21485	0.02302
1695.92908	0.02335
1694.64331	0.02377
1693.35754	0.02430
1692.07178	0.02478
1690.78601	0.02520
1689.50024	0.02558
1688.21447	0.02593
1686.92870	0.02617
1685.64293	0.02637
1684.35716	0.02675
1683.07139	0.02735
1681.78563	0.02800
1680.49986	0.02853
1679.21409	0.02892
1677.92832	0.02927
1676.64255	0.02961
1675.35678	0.03001
1674.07101	0.03049
1672.78524	0.03095
1671.49947	0.03134
1670.21371	0.03167
1668.92794	0.03203
1667.64217	0.03246
1666.35640	0.03292
1665.07063	0.03332
1663.78486	0.03366
1662.49909	0.03398
1661.21332	0.03430
1659.92756	0.03461
1658.64179	0.03490
1657.35602	0.03515
1656.07025	0.03528
1654.78448	0.03526
1653.49871	0.03526
1652.21294	0.03549
1650.92717	0.03589
1649.64140	0.03625
1648.35564	0.03647
1647.06987	0.03665
1645.78410	0.03685
1644.49833	0.03705
1643.21256	0.03718
1641.92679	0.03724
1640.64102	0.03728
1639.35525	0.03731
1638.06949	0.03727
1636.78372	0.03714
1635.49795	0.03704
1634.21218	0.03708
1632.92641	0.03723
1631.64064	0.03737
1630.35487	0.03746
1629.06910	0.03751
1627.78333	0.03755
1626.49757	0.03757
1625.21180	0.03756
1623.92603	0.03755
1622.64026	0.03759
1621.35449	0.03769
1620.06872	0.03776
1618.78295	0.03775
1617.49718	0.03775
1616.21142	0.03785
1614.92565	0.03805
1613.63988	0.03820
1612.35411	0.03825
1611.06834	0.03825
1609.78257	0.03828
1608.49680	0.03836
1607.21103	0.03849
1605.92526	0.03861
1604.63950	0.03869
1603.35373	0.03875
1602.06796	0.03886
1600.78219	0.03907
1599.49642	0.03933
1598.21065	0.03959
1596.92488	0.03981
1595.63911	0.03999
1594.35335	0.04012
1593.06758	0.04020
1591.78181	0.04026
1590.49604	0.04032
1589.21027	0.04044
1587.92450	0.04061
1586.63873	0.04081
1585.35296	0.04101
1584.06719	0.04120
1582.78143	0.04138
1581.49566	0.04158
1580.20989	0.04183
1578.92412	0.04205
1577.63835	0.04221
1576.35258	0.04236
1575.06681	0.04260
1573.78104	0.04290
1572.49528	0.04315
1571.20951	0.04336
1569.92374	0.04358
1568.63797	0.04384
1567.35220	0.04406
1566.06643	0.04420
1564.78066	0.04429
1563.49489	0.04440
1562.20912	0.04448
1560.92336	0.04449
1559.63759	0.04457
1558.35182	0.04484
1557.06605	0.04525
1555.78028	0.04563
1554.49451	0.04594
1553.20874	0.04628
1551.92297	0.04663
1550.63721	0.04694
1549.35144	0.04716
1548.06567	0.04730
1546.77990	0.04735
1545.49413	0.04733
1544.20836	0.04728
1542.92259	0.04720
1541.63682	0.04710
1540.35105	0.04704
1539.06529	0.04710
1537.77952	0.04729
1536.49375	0.04747
1535.20798	0.04760
1533.92221	0.04777
1532.63644	0.04810
1531.35067	0.04856
1530.06490	0.04907
1528.77914	0.04957
1527.49337	0.05008
1526.20760	0.05066
1524.92183	0.05130
1523.63606	0.05196
1522.35029	0.05262
1521.06452	0.05338
1519.77875	0.05429
1518.49298	0.05531
1517.20722	0.05638
1515.92145	0.05751
1514.63568	0.05871
1513.34991	0.05994
1512.06414	0.06121
1510.77837	0.06251
1509.49260	0.06376
1508.20683	0.06496
1506.92107	0.06618
1505.63530	0.06751
1504.34953	0.06889
1503.06376	0.07013
1501.77799	0.07114
1500.49222	0.07198
1499.20645	0.07276
1497.92068	0.07353
1496.63491	0.07433
1495.34915	0.07517
1494.06338	0.07600
1492.77761	0.07675
1491.49184	0.07743
1490.20607	0.07815
1488.92030	0.07898
1487.63453	0.07993
1486.34876	0.08096
1485.06299	0.08203
1483.77723	0.08313
1482.49146	0.08425
1481.20569	0.08540
1479.91992	0.08660
1478.63415	0.08778
1477.34838	0.08889
1476.06261	0.08988
1474.77684	0.09071
1473.49108	0.09138
1472.20531	0.09195
1470.91954	0.09245
1469.63377	0.09286
1468.34800	0.09314
1467.06223	0.09333
1465.77646	0.09348
1464.49069	0.09365
1463.20492	0.09385
1461.91916	0.09408
1460.63339	0.09435
1459.34762	0.09461
1458.06185	0.09487
1456.77608	0.09524
1455.49031	0.09577
1454.20454	0.09640
1452.91877	0.09701
1451.63301	0.09754
1450.34724	0.09795
1449.06147	0.09824
1447.77570	0.09841
1446.48993	0.09849
1445.20416	0.09849
1443.91839	0.09837
1442.63262	0.09817
1441.34685	0.09794
1440.06109	0.09774
1438.77532	0.09757
1437.48955	0.09748
1436.20378	0.09756
1434.91801	0.09787
1433.63224	0.09841
1432.34647	0.09919
1431.06070	0.10021
1429.77494	0.10142
1428.48917	0.10279
1427.20340	0.10423
1425.91763	0.10571
1424.63186	0.10718
1423.34609	0.10859
1422.06032	0.10991
1420.77455	0.11107
1419.48878	0.11211
1418.20302	0.11304
1416.91725	0.11380
1415.63148	0.11432
1414.34571	0.11459
1413.05994	0.11462
1411.77417	0.11444
1410.48840	0.11407
1409.20263	0.11353
1407.91687	0.11279
1406.63110	0.11180
1405.34533	0.11053
1404.05956	0.10900
1402.77379	0.10725
1401.48802	0.10532
1400.20225	0.10322
1398.91648	0.10103
1397.63071	0.09882
1396.34495	0.09659
1395.05918	0.09435
1393.77341	0.09211
1392.48764	0.08990
1391.20187	0.08771
1389.91610	0.08551
1388.63033	0.08332
1387.34456	0.08115
1386.05880	0.07896
1384.77303	0.07675
1383.48726	0.07453
1382.20149	0.07233
1380.91572	0.07017
1379.62995	0.06801
1378.34418	0.06582
1377.05841	0.06360
1375.77264	0.06138
1374.48688	0.05920
1373.20111	0.05712
1371.91534	0.05515
1370.62957	0.05327
1369.34380	0.05146
1368.05803	0.04973
1366.77226	0.04810
1365.48649	0.04655
1364.20073	0.04508
1362.91496	0.04369
1361.62919	0.04239
1360.34342	0.04121
1359.05765	0.04011
1357.77188	0.03906
1356.48611	0.03805
1355.20034	0.03709
1353.91457	0.03616
1352.62881	0.03528
1351.34304	0.03446
1350.05727	0.03369
1348.77150	0.03298
1347.48573	0.03233
1346.19996	0.03173
1344.91419	0.03117
1343.62842	0.03065
1342.34266	0.03017
1341.05689	0.02971
1339.77112	0.02926
1338.48535	0.02881
1337.19958	0.02838
1335.91381	0.02798
1334.62804	0.02761
1333.34227	0.02730
1332.05650	0.02705
1330.77074	0.02683
1329.48497	0.02657
1328.19920	0.02625
1326.91343	0.02589
1325.62766	0.02554
1324.34189	0.02523
1323.05612	0.02495
1321.77035	0.02469
1320.48459	0.02446
1319.19882	0.02425
1317.91305	0.02406
1316.62728	0.02388
1315.34151	0.02368
1314.05574	0.02350
1312.76997	0.02333
1311.48420	0.02316
1310.19843	0.02296
1308.91267	0.02274
1307.62690	0.02253
1306.34113	0.02234
1305.05536	0.02217
1303.76959	0.02201
1302.48382	0.02188
1301.19805	0.02178
1299.91228	0.02172
1298.62652	0.02167
1297.34075	0.02158
1296.05498	0.02143
1294.76921	0.02121
1293.48344	0.02100
1292.19767	0.02087
1290.91190	0.02082
1289.62613	0.02079
1288.34036	0.02072
1287.05460	0.02059
1285.76883	0.02040
1284.48306	0.02019
1283.19729	0.02002
1281.91152	0.01990
1280.62575	0.01986
1279.33998	0.01986
1278.05421	0.01986
1276.76845	0.01984
1275.48268	0.01979
1274.19691	0.01971
1272.91114	0.01960
1271.62537	0.01947
1270.33960	0.01933
1269.05383	0.01922
1267.76806	0.01912
1266.48229	0.01903
1265.19653	0.01896
1263.91076	0.01891
1262.62499	0.01887
1261.33922	0.01885
1260.05345	0.01884
1258.76768	0.01882
1257.48191	0.01878
1256.19614	0.01869
1254.91037	0.01856
1253.62461	0.01839
1252.33884	0.01822
1251.05307	0.01810
1249.76730	0.01804
1248.48153	0.01802
1247.19576	0.01802
1245.90999	0.01799
1244.62422	0.01793
1243.33846	0.01784
1242.05269	0.01774
1240.76692	0.01766
1239.48115	0.01760
1238.19538	0.01755
1236.90961	0.01749
1235.62384	0.01743
1234.33807	0.01737
1233.05230	0.01732
1231.76654	0.01725
1230.48077	0.01718
1229.19500	0.01709
1227.90923	0.01700
1226.62346	0.01692
1225.33769	0.01686
1224.05192	0.01682
1222.76615	0.01682
1221.48039	0.01683
1220.19462	0.01683
1218.90885	0.01679
1217.62308	0.01669
1216.33731	0.01658
1215.05154	0.01649
1213.76577	0.01646
1212.48000	0.01647
1211.19423	0.01649
1209.90847	0.01651
1208.62270	0.01651
1207.33693	0.01649
1206.05116	0.01647
1204.76539	0.01645
1203.47962	0.01646
1202.19385	0.01649
1200.90808	0.01656
1199.62232	0.01666
1198.33655	0.01665
1197.05078	0.01665
1195.76501	0.01667
1194.47924	0.01670
1193.19347	0.01671
1191.90770	0.01674
1190.62193	0.01679
1189.33616	0.01685
1188.05040	0.01689
1186.76463	0.01689
1185.47886	0.01688
1184.19309	0.01688
1182.90732	0.01690
1181.62155	0.01693
1180.33578	0.01701
1179.05001	0.01712
1177.76425	0.01724
1176.47848	0.01734
1175.19271	0.01745
1173.90694	0.01761
1172.62117	0.01783
1171.33540	0.01802
1170.04963	0.01815
1168.76386	0.01827
1167.47809	0.01845
1166.19233	0.01872
1164.90656	0.01905
1163.62079	0.01938
1162.33502	0.01969
1161.04925	0.01998
1159.76348	0.02028
1158.47771	0.02061
1157.19194	0.02099
1155.90618	0.02144
1154.62041	0.02193
1153.33464	0.02241
1152.04887	0.02287
1150.76310	0.02338
1149.47733	0.02399
1148.19156	0.02473
1146.90579	0.02554
1145.62002	0.02640
1144.33426	0.02733
1143.04849	0.02835
1141.76272	0.02944
1140.47695	0.03059
1139.19118	0.03179
1137.90541	0.03312
1136.61964	0.03463
1135.33387	0.03633
1134.04811	0.03820
1132.76234	0.04021
1131.47657	0.04240
1130.19080	0.04481
1128.90503	0.04750
1127.61926	0.05045
1126.33349	0.05364
1125.04772	0.05704
1123.76195	0.06061
1122.47619	0.06434
1121.19042	0.06821
1119.90465	0.07213
1118.61888	0.07601
1117.33311	0.07982
1116.04734	0.08358
1114.76157	0.08734
1113.47580	0.09113
1112.19004	0.09493
1110.90427	0.09869
1109.61850	0.10231
1108.33273	0.10574
1107.04696	0.10898
1105.76119	0.11214
1104.47542	0.11528
1103.18965	0.11843
1101.90388	0.12156
1100.61812	0.12463
1099.33235	0.12761
1098.04658	0.13047
1096.76081	0.13323
1095.47504	0.13592
1094.18927	0.13853
1092.90350	0.14103
1091.61773	0.14342
1090.33197	0.14571
1089.04620	0.14790
1087.76043	0.14998
1086.47466	0.15197
1085.18889	0.15398
1083.90312	0.15616
1082.61735	0.15863
1081.33158	0.16135
1080.04581	0.16420
1078.76005	0.16708
1077.47428	0.17000
1076.18851	0.17304
1074.90274	0.17625
1073.61697	0.17962
1072.33120	0.18310
1071.04543	0.18670
1069.75966	0.19038
1068.47390	0.19418
1067.18813	0.19810
1065.90236	0.20217
1064.61659	0.20636
1063.33082	0.21064
1062.04505	0.21493
1060.75928	0.21917
1059.47351	0.22332
1058.18774	0.22741
1056.90198	0.23145
1055.61621	0.23549
1054.33044	0.23951
1053.04467	0.24350
1051.75890	0.24745
1050.47313	0.25143
1049.18736	0.25556
1047.90159	0.25990
1046.61583	0.26446
1045.33006	0.26916
1044.04429	0.27395
1042.75852	0.27882
1041.47275	0.28380
1040.18698	0.28889
1038.90121	0.29402
1037.61544	0.29909
1036.32967	0.30410
1035.04391	0.30908
1033.75814	0.31402
1032.47237	0.31879
1031.18660	0.32323
1029.90083	0.32719
1028.61506	0.33060
1027.32929	0.33345
1026.04352	0.33575
1024.75775	0.33758
1023.47199	0.33900
1022.18622	0.34002
1020.90045	0.34049
1019.61468	0.34026
1018.32891	0.33925
1017.04314	0.33750
1015.75737	0.33509
1014.47160	0.33203
1013.18584	0.32829
1011.90007	0.32384
1010.61430	0.31863
1009.32853	0.31267
1008.04276	0.30601
1006.75699	0.29870
1005.47122	0.29080
1004.18545	0.28236
1002.89968	0.27346
1001.61392	0.26418
1000.32815	0.25456
999.04238	0.24467
997.75661	0.23463
996.47084	0.22455
995.18507	0.21450
993.89930	0.20453
992.61353	0.19471
991.32777	0.18512
990.04200	0.17583
988.75623	0.16693
987.47046	0.15846
986.18469	0.15046
984.89892	0.14291
983.61315	0.13585
982.32738	0.12935
981.04161	0.12347
979.75585	0.11818
978.47008	0.11342
977.18431	0.10912
975.89854	0.10531
974.61277	0.10207
973.32700	0.09953
972.04123	0.09769
970.75546	0.09654
969.46970	0.09607
968.18393	0.09626
966.89816	0.09701
965.61239	0.09816
964.32662	0.09943
963.04085	0.10056
961.75508	0.10126
960.46931	0.10128
959.18354	0.10048
957.89778	0.09888
956.61201	0.09661
955.32624	0.09387
954.04047	0.09080
952.75470	0.08759
951.46893	0.08439
950.18316	0.08136
948.89739	0.07852
947.61163	0.07586
946.32586	0.07333
945.04009	0.07088
943.75432	0.06844
942.46855	0.06601
941.18278	0.06366
939.89701	0.06150
938.61124	0.05960
937.32547	0.05795
936.03971	0.05651
934.75394	0.05519
933.46817	0.05393
932.18240	0.05273
930.89663	0.05160
929.61086	0.05058
928.32509	0.04964
927.03932	0.04876
925.75356	0.04796
924.46779	0.04726
923.18202	0.04665
921.89625	0.04612
920.61048	0.04559
919.32471	0.04506
918.03894	0.04449
916.75317	0.04392
915.46740	0.04336
914.18164	0.04284
912.89587	0.04238
911.61010	0.04198
910.32433	0.04168
909.03856	0.04147
907.75279	0.04128
906.46702	0.04105
905.18125	0.04073
903.89549	0.04038
902.60972	0.04006
901.32395	0.03978
900.03818	0.03956
898.75241	0.03948
897.46664	0.03955
896.18087	0.03971
894.89510	0.03980
893.60933	0.03980
892.32357	0.03979
891.03780	0.03994
889.75203	0.04035
888.46626	0.04108
887.18049	0.04221
885.89472	0.04389
884.60895	0.04628
883.32318	0.04941
882.03742	0.05303
880.75165	0.05656
879.46588	0.05941
878.18011	0.06139
876.89434	0.06281
875.60857	0.06416
874.32280	0.06562
873.03703	0.06687
871.75126	0.06737
870.46550	0.06681
869.17973	0.06529
867.89396	0.06308
866.60819	0.06048
865.32242	0.05766
864.03665	0.05482
862.75088	0.05215
861.46511	0.04978
860.17935	0.04774
858.89358	0.04596
857.60781	0.04441
856.32204	0.04313
855.03627	0.04215
853.75050	0.04141
852.46473	0.04080
851.17896	0.04022
849.89319	0.03968
848.60743	0.03921
847.32166	0.03882
846.03589	0.03849
844.75012	0.03816
843.46435	0.03781
842.17858	0.03744
840.89281	0.03709
839.60704	0.03680
838.32128	0.03658
837.03551	0.03640
835.74974	0.03621
834.46397	0.03597
833.17820	0.03568
831.89243	0.03544
830.60666	0.03533
829.32089	0.03535
828.03512	0.03543
826.74936	0.03544
825.46359	0.03536
824.17782	0.03520
822.89205	0.03504
821.60628	0.03492
820.32051	0.03487
819.03474	0.03483
817.74897	0.03473
816.46321	0.03455
815.17744	0.03436
813.89167	0.03427
812.60590	0.03432
811.32013	0.03443
810.03436	0.03451
808.74859	0.03451
807.46282	0.03441
806.17705	0.03427
804.89129	0.03417
803.60552	0.03411
802.31975	0.03404
801.03398	0.03396
799.74821	0.03390
798.46244	0.03390
797.17667	0.03395
795.89090	0.03398
794.60513	0.03395
793.31937	0.03388
792.03360	0.03386
790.74783	0.03392
789.46206	0.03405
788.17629	0.03418
786.89052	0.03425
785.60475	0.03422
784.31898	0.03413
783.03322	0.03404
781.74745	0.03400
780.46168	0.03403
779.17591	0.03408
777.89014	0.03413
776.60437	0.03413
775.31860	0.03408
774.03283	0.03395
772.74706	0.03379
771.46130	0.03364
770.17553	0.03357
768.88976	0.03360
767.60399	0.03373
766.31822	0.03392
765.03245	0.03409
763.74668	0.03417
762.46091	0.03416
761.17515	0.03415
759.88938	0.03425
758.60361	0.03449
757.31784	0.03478
756.03207	0.03498
754.74630	0.03504
753.46053	0.03501
752.17476	0.03496
750.88899	0.03489
749.60323	0.03478
748.31746	0.03464
747.03169	0.03451
745.74592	0.03437
744.46015	0.03421
743.17438	0.03405
741.88861	0.03393
740.60284	0.03385
739.31708	0.03383
738.03131	0.03391
736.74554	0.03408
735.45977	0.03429
734.17400	0.03446
732.88823	0.03453
731.60246	0.03453
730.31669	0.03452
729.03092	0.03459
727.74516	0.03475
726.45939	0.03487
725.17362	0.03481
723.88785	0.03456
722.60208	0.03443
721.31631	0.03451
720.03054	0.03470
718.74477	0.03486
717.45901	0.03494
716.17324	0.03495
714.88747	0.03496
713.60170	0.03499
712.31593	0.03498
711.03016	0.03492
709.74439	0.03481
708.45862	0.03469
707.17285	0.03461
705.88709	0.03456
704.60132	0.03455
703.31555	0.03454
702.02978	0.03455
700.74401	0.03459
699.45824	0.03466
698.17247	0.03473
696.88670	0.03477
695.60094	0.03478
694.31517	0.03479
693.02940	0.03484
691.74363	0.03493
690.45786	0.03499
689.17209	0.03497
687.88632	0.03486
686.60055	0.03469
685.31478	0.03454
684.02902	0.03443
682.74325	0.03436
681.45748	0.03430
680.17171	0.03423
678.88594	0.03417
677.60017	0.03414
676.31440	0.03414
675.02863	0.03419
673.74287	0.03427
672.45710	0.03435
671.17133	0.03445
669.88556	0.03459
668.59979	0.03477
667.31402	0.03488
666.02825	0.03482
664.74248	0.03464
663.45671	0.03439
662.17095	0.03415
660.88518	0.03396
659.59941	0.03385
658.31364	0.03379
657.02787	0.03377
655.74210	0.03374
654.45633	0.03366
653.17056	0.03356
651.88480	0.03351
650.59903	0.03357
649.31326	0.03373
648.02749	0.03391
646.74172	0.03405
645.45595	0.03414
644.17018	0.03423
642.88441	0.03440
641.59864	0.03466
640.31288	0.03497
639.02711	0.03530
637.74134	0.03564
636.45557	0.03603
635.16980	0.03653
633.88403	0.03715
632.59826	0.03790
631.31249	0.03865
630.02673	0.03901
628.74096	0.03913
627.45519	0.04055
626.16942	0.04046
624.88365	0.03953
623.59788	0.03932
622.31211	0.04062
621.02634	0.04334
619.74057	0.04685
618.45481	0.05081
617.16904	0.05528
615.88327	0.06029
614.59750	0.06575
613.31173	0.07158
612.02596	0.07752
610.74019	0.08286
609.45442	0.08704
608.16866	0.09051
606.88289	0.09423
605.59712	0.09858
604.31135	0.10304
603.02558	0.10679
601.73981	0.10922
600.45404	0.11006
599.16827	0.10935
597.88250	0.10743
596.59674	0.10478
595.31097	0.10182
594.02520	0.09882
592.73943	0.09611
591.45366	0.09409
590.16789	0.09310
588.88212	0.09316
587.59635	0.09402
586.31059	0.09536
585.02482	0.09702
583.73905	0.09904
582.45328	0.10148
581.16751	0.10433
579.88174	0.10752
578.59597	0.11089
577.31020	0.11429
576.02443	0.11759
574.73867	0.12076
573.45290	0.12387
572.16713	0.12699
570.88136	0.13027
569.59559	0.13394
568.30982	0.13820
567.02405	0.14292
565.73828	0.14766
564.45251	0.15185
563.16675	0.15499
561.88098	0.15661
560.59521	0.15622
559.30944	0.15355
558.02367	0.14871
556.73790	0.14217
555.45213	0.13452
554.16636	0.12634
552.88060	0.11820
551.59483	0.11052
550.30906	0.10351
549.02329	0.09719
547.73752	0.09148
546.45175	0.08633
545.16598	0.08166
543.88021	0.07746
542.59444	0.07374
541.30868	0.07053
540.02291	0.06775
538.73714	0.06529
537.45137	0.06305
536.16560	0.06095
534.87983	0.05895
533.59406	0.05703
532.30829	0.05523
531.02253	0.05361
529.73676	0.05222
528.45099	0.05105
527.16522	0.05000
525.87945	0.04895
524.59368	0.04784
523.30791	0.04670
522.02214	0.04557
520.73637	0.04450
519.45061	0.04347
518.16484	0.04247
516.87907	0.04150
515.59330	0.04062
514.30753	0.03986
513.02176	0.03921
511.73599	0.03865
510.45022	0.03815
509.16446	0.03770
507.87869	0.03725
506.59292	0.03675
505.30715	0.03624
504.02138	0.03578
502.73561	0.03540
501.44984	0.03504
500.16407	0.03463
498.87830	0.03417
497.59254	0.03368
496.30677	0.03318
495.02100	0.03268
493.73523	0.03224
492.44946	0.03192
491.16369	0.03178
489.87792	0.03173
488.59215	0.03171
487.30639	0.03166
486.02062	0.03163
484.73485	0.03166
483.44908	0.03175
482.16331	0.03189
480.87754	0.03206
479.59177	0.03228
478.30600	0.03255
477.02023	0.03280
475.73447	0.03298
474.44870	0.03311
473.16293	0.03325
471.87716	0.03345
470.59139	0.03365
469.30562	0.03377
468.01985	0.03373
466.73408	0.03350
465.44832	0.03314
464.16255	0.03274
462.87678	0.03236
461.59101	0.03202
460.30524	0.03171
459.01947	0.03137
457.73370	0.03102
456.44793	0.03070
455.16216	0.03044
453.87640	0.03025
452.59063	0.03012
451.30486	0.03000
450.01909	0.02986
448.73332	0.02965
447.44755	0.02937
446.16178	0.02905
444.87601	0.02876
443.59025	0.02853
442.30448	0.02840
441.01871	0.02832
439.73294	0.02826
438.44717	0.02821
437.16140	0.02822
435.87563	0.02830
434.58986	0.02840
433.30409	0.02847
432.01833	0.02849
430.73256	0.02848
429.44679	0.02847
428.16102	0.02847
426.87525	0.02841
425.58948	0.02830
424.30371	0.02818
423.01794	0.02809
421.73218	0.02804
420.44641	0.02798
419.16064	0.02791
417.87487	0.02782
416.58910	0.02773
415.30333	0.02764
414.01756	0.02760
412.73179	0.02765
411.44602	0.02780
410.16026	0.02799
408.87449	0.02818
407.58872	0.02832
406.30295	0.02842
405.01718	0.02850
403.73141	0.02857
402.44564	0.02865
401.15987	0.02876
399.87411	0.02890
