3997.45528	0.07875
3996.16951	0.07872
3994.88374	0.07858
3993.59798	0.07833
3992.31221	0.07791
3991.02644	0.07720
3989.74067	0.07640
3988.45490	0.07608
3987.16913	0.07659
3985.88336	0.07756
3984.59759	0.07819
3983.31183	0.07795
3982.02606	0.07696
3980.74029	0.07576
3979.45452	0.07482
3978.16875	0.07425
3976.88298	0.07391
3975.59721	0.07377
3974.31144	0.07396
3973.02567	0.07450
3971.73991	0.07518
3970.45414	0.07572
3969.16837	0.07609
3967.88260	0.07646
3966.59683	0.07695
3965.31106	0.07752
3964.02529	0.07803
3962.73952	0.07835
3961.45376	0.07838
3960.16799	0.07816
3958.88222	0.07781
3957.59645	0.07745
3956.31068	0.07715
3955.02491	0.07697
3953.73914	0.07700
3952.45337	0.07725
3951.16760	0.07752
3949.88184	0.07756
3948.59607	0.07735
3947.31030	0.07703
3946.02453	0.07674
3944.73876	0.07656
3943.45299	0.07652
3942.16722	0.07653
3940.88145	0.07633
3939.59569	0.07576
3938.30992	0.07509
3937.02415	0.07479
3935.73838	0.07507
3934.45261	0.07577
3933.16684	0.07656
3931.88107	0.07713
3930.59530	0.07721
3929.30953	0.07678
3928.02377	0.07617
3926.73800	0.07579
3925.45223	0.07582
3924.16646	0.07608
3922.88069	0.07622
3921.59492	0.07611
3920.30915	0.07592
3919.02338	0.07581
3917.73762	0.07563
3916.45185	0.07514
3915.16608	0.07435
3913.88031	0.07363
3912.59454	0.07348
3911.30877	0.07396
3910.02300	0.07463
3908.73723	0.07503
3907.45146	0.07509
3906.16570	0.07506
3904.87993	0.07507
3903.59416	0.07491
3902.30839	0.07424
3901.02262	0.07318
3899.73685	0.07234
3898.45108	0.07232
3897.16531	0.07294
3895.87955	0.07350
3894.59378	0.07347
3893.30801	0.07309
3892.02224	0.07308
3890.73647	0.07382
3889.45070	0.07473
3888.16493	0.07485
3886.87916	0.07416
3885.59339	0.07359
3884.30763	0.07366
3883.02186	0.07400
3881.73609	0.07419
3880.45032	0.07444
3879.16455	0.07484
3877.87878	0.07497
3876.59301	0.07439
3875.30724	0.07335
3874.02148	0.07244
3872.73571	0.07188
3871.44994	0.07164
3870.16417	0.07191
3868.87840	0.07274
3867.59263	0.07343
3866.30686	0.07336
3865.02109	0.07276
3863.73532	0.07221
3862.44956	0.07183
3861.16379	0.07156
3859.87802	0.07146
3858.59225	0.07161
3857.30648	0.07164
3856.02071	0.07123
3854.73494	0.07072
3853.44917	0.07097
3852.16341	0.07209
3850.87764	0.07317
3849.59187	0.07354
3848.30610	0.07328
3847.02033	0.07261
3845.73456	0.07175
3844.44879	0.07101
3843.16302	0.07074
3841.87725	0.07089
3840.59149	0.07094
3839.30572	0.07060
3838.01995	0.07015
3836.73418	0.06997
3835.44841	0.06989
3834.16264	0.06952
3832.87687	0.06896
3831.59110	0.06884
3830.30534	0.06959
3829.01957	0.07089
3827.73380	0.07200
3826.44803	0.07239
3825.16226	0.07187
3823.87649	0.07046
3822.59072	0.06869
3821.30495	0.06755
3820.01918	0.06750
3818.73342	0.06791
3817.44765	0.06816
3816.16188	0.06862
3814.87611	0.06973
3813.59034	0.07103
3812.30457	0.07177
3811.01880	0.07177
3809.73303	0.07115
3808.44726	0.07016
3807.16150	0.06945
3805.87573	0.06950
3804.58996	0.06991
3803.30419	0.06995
3802.01842	0.06964
3800.73265	0.06946
3799.44688	0.06932
3798.16111	0.06877
3796.87535	0.06796
3795.58958	0.06740
3794.30381	0.06719
3793.01804	0.06712
3791.73227	0.06718
3790.44650	0.06744
3789.16073	0.06790
3787.87496	0.06836
3786.58919	0.06867
3785.30343	0.06870
3784.01766	0.06842
3782.73189	0.06781
3781.44612	0.06701
3780.16035	0.06640
3778.87458	0.06624
3777.58881	0.06638
3776.30304	0.06649
3775.01728	0.06648
3773.73151	0.06651
3772.44574	0.06675
3771.15997	0.06730
3769.87420	0.06817
3768.58843	0.06895
3767.30266	0.06903
3766.01689	0.06833
3764.73112	0.06742
3763.44536	0.06681
3762.15959	0.06658
3760.87382	0.06663
3759.58805	0.06681
3758.30228	0.06690
3757.01651	0.06678
3755.73074	0.06647
3754.44497	0.06611
3753.15921	0.06592
3751.87344	0.06604
3750.58767	0.06643
3749.30190	0.06699
3748.01613	0.06752
3746.73036	0.06762
3745.44459	0.06736
3744.15882	0.06752
3742.87305	0.06818
3741.58729	0.06845
3740.30152	0.06799
3739.01575	0.06731
3737.72998	0.06689
3736.44421	0.06689
3735.15844	0.06705
3733.87267	0.06693
3732.58690	0.06644
3731.30114	0.06606
3730.01537	0.06613
3728.72960	0.06639
3727.44383	0.06664
3726.15806	0.06685
3724.87229	0.06692
3723.58652	0.06666
3722.30075	0.06610
3721.01498	0.06546
3719.72922	0.06493
3718.44345	0.06452
3717.15768	0.06428
3715.87191	0.06417
3714.58614	0.06402
3713.30037	0.06375
3712.01460	0.06346
3710.72883	0.06342
3709.44307	0.06373
3708.15730	0.06417
3706.87153	0.06451
3705.58576	0.06459
3704.29999	0.06448
3703.01422	0.06445
3701.72845	0.06470
3700.44268	0.06513
3699.15691	0.06550
3697.87115	0.06568
3696.58538	0.06579
3695.29961	0.06580
3694.01384	0.06551
3692.72807	0.06490
3691.44230	0.06422
3690.15653	0.06363
3688.87076	0.06320
3687.58500	0.06309
3686.29923	0.06335
3685.01346	0.06385
3683.72769	0.06455
3682.44192	0.06533
3681.15615	0.06581
3679.87038	0.06563
3678.58461	0.06469
3677.29884	0.06335
3676.01308	0.06249
3674.72731	0.06263
3673.44154	0.06316
3672.15577	0.06317
3670.87000	0.06287
3669.58423	0.06306
3668.29846	0.06377
3667.01269	0.06436
3665.72693	0.06453
3664.44116	0.06447
3663.15539	0.06443
3661.86962	0.06447
3660.58385	0.06448
3659.29808	0.06434
3658.01231	0.06413
3656.72654	0.06425
3655.44077	0.06496
3654.15501	0.06582
3652.86924	0.06611
3651.58347	0.06569
3650.29770	0.06515
3649.01193	0.06507
3647.72616	0.06551
3646.44039	0.06616
3645.15462	0.06673
3643.86886	0.06704
3642.58309	0.06709
3641.29732	0.06698
3640.01155	0.06690
3638.72578	0.06710
3637.44001	0.06765
3636.15424	0.06835
3634.86847	0.06897
3633.58270	0.06944
3632.29694	0.06970
3631.01117	0.06961
3629.72540	0.06923
3628.43963	0.06892
3627.15386	0.06873
3625.86809	0.06843
3624.58232	0.06810
3623.29655	0.06808
3622.01079	0.06843
3620.72502	0.06914
3619.43925	0.07013
3618.15348	0.07120
3616.86771	0.07192
3615.58194	0.07207
3614.29617	0.07197
3613.01040	0.07198
3611.72463	0.07214
3610.43887	0.07223
3609.15310	0.07228
3607.86733	0.07239
3606.58156	0.07249
3605.29579	0.07244
3604.01002	0.07241
3602.72425	0.07278
3601.43848	0.07365
3600.15272	0.07470
3598.86695	0.07546
3597.58118	0.07572
3596.29541	0.07557
3595.00964	0.07539
3593.72387	0.07558
3592.43810	0.07618
3591.15233	0.07690
3589.86656	0.07732
3588.58080	0.07743
3587.29503	0.07758
3586.00926	0.07791
3584.72349	0.07813
3583.43772	0.07800
3582.15195	0.07771
3580.86618	0.07762
3579.58041	0.07787
3578.29464	0.07828
3577.00888	0.07872
3575.72311	0.07932
3574.43734	0.08018
3573.15157	0.08114
3571.86580	0.08182
3570.58003	0.08202
3569.29426	0.08192
3568.00849	0.08191
3566.72273	0.08217
3565.43696	0.08255
3564.15119	0.08287
3562.86542	0.08319
3561.57965	0.08363
3560.29388	0.08415
3559.00811	0.08454
3557.72234	0.08474
3556.43657	0.08483
3555.15081	0.08492
3553.86504	0.08503
3552.57927	0.08515
3551.29350	0.08532
3550.00773	0.08548
3548.72196	0.08551
3547.43619	0.08546
3546.15042	0.08551
3544.86466	0.08571
3543.57889	0.08597
3542.29312	0.08614
3541.00735	0.08630
3539.72158	0.08657
3538.43581	0.08700
3537.15004	0.08739
3535.86427	0.08750
3534.57850	0.08727
3533.29274	0.08689
3532.00697	0.08673
3530.72120	0.08707
3529.43543	0.08785
3528.14966	0.08870
3526.86389	0.08933
3525.57812	0.08972
3524.29235	0.09009
3523.00659	0.09055
3521.72082	0.09100
3520.43505	0.09123
3519.14928	0.09113
3517.86351	0.09086
3516.57774	0.09069
3515.29197	0.09079
3514.00620	0.09110
3512.72043	0.09141
3511.43467	0.09158
3510.14890	0.09174
3508.86313	0.09206
3507.57736	0.09253
3506.29159	0.09299
3505.00582	0.09332
3503.72005	0.09358
3502.43428	0.09393
3501.14852	0.09444
3499.86275	0.09504
3498.57698	0.09563
3497.29121	0.09609
3496.00544	0.09632
3494.71967	0.09630
3493.43390	0.09611
3492.14813	0.09594
3490.86236	0.09593
3489.57660	0.09608
3488.29083	0.09626
3487.00506	0.09635
3485.71929	0.09635
3484.43352	0.09631
3483.14775	0.09635
3481.86198	0.09659
3480.57621	0.09709
3479.29045	0.09768
3478.00468	0.09814
3476.71891	0.09837
3475.43314	0.09840
3474.14737	0.09833
3472.86160	0.09827
3471.57583	0.09828
3470.29006	0.09843
3469.00429	0.09881
3467.71853	0.09937
3466.43276	0.09989
3465.14699	0.10001
3463.86122	0.09965
3462.57545	0.09909
3461.28968	0.09880
3460.00391	0.09898
3458.71814	0.09944
3457.43238	0.09984
3456.14661	0.09993
3454.86084	0.09970
3453.57507	0.09937
3452.28930	0.09921
3451.00353	0.09939
3449.71776	0.09988
3448.43199	0.10052
3447.14622	0.10117
3445.86046	0.10172
3444.57469	0.10209
3443.28892	0.10230
3442.00315	0.10250
3440.71738	0.10276
3439.43161	0.10298
3438.14584	0.10294
3436.86007	0.10261
3435.57431	0.10231
3434.28854	0.10243
3433.00277	0.10307
3431.71700	0.10384
3430.43123	0.10432
3429.14546	0.10446
3427.85969	0.10457
3426.57392	0.10496
3425.28815	0.10560
3424.00239	0.10623
3422.71662	0.10664
3421.43085	0.10686
3420.14508	0.10711
3418.85931	0.10746
3417.57354	0.10775
3416.28777	0.10773
3415.00200	0.10733
3413.71624	0.10678
3412.43047	0.10643
3411.14470	0.10642
3409.85893	0.10657
3408.57316	0.10664
3407.28739	0.10666
3406.00162	0.10681
3404.71585	0.10716
3403.43008	0.10758
3402.14432	0.10799
3400.85855	0.10843
3399.57278	0.10890
3398.28701	0.10924
3397.00124	0.10921
3395.71547	0.10867
3394.42970	0.10777
3393.14393	0.10686
3391.85817	0.10632
3390.57240	0.10634
3389.28663	0.10687
3388.00086	0.10756
3386.71509	0.10799
3385.42932	0.10801
3384.14355	0.10786
3382.85778	0.10789
3381.57201	0.10821
3380.28625	0.10867
3379.00048	0.10907
3377.71471	0.10935
3376.42894	0.10953
3375.14317	0.10963
3373.85740	0.10974
3372.57163	0.11002
3371.28586	0.11053
3370.00010	0.11104
3368.71433	0.11120
3367.42856	0.11081
3366.14279	0.11010
3364.85702	0.10946
3363.57125	0.10914
3362.28548	0.10902
3360.99971	0.10892
3359.71394	0.10881
3358.42818	0.10878
3357.14241	0.10894
3355.85664	0.10926
3354.57087	0.10962
3353.28510	0.10993
3351.99933	0.11018
3350.71356	0.11044
3349.42779	0.11071
3348.14202	0.11095
3346.85626	0.11106
3345.57049	0.11101
3344.28472	0.11085
3342.99895	0.11069
3341.71318	0.11058
3340.42741	0.11046
3339.14164	0.11018
3337.85587	0.10976
3336.57011	0.10945
3335.28434	0.10948
3333.99857	0.10982
3332.71280	0.11015
3331.42703	0.11016
3330.14126	0.10980
3328.85549	0.10934
3327.56972	0.10912
3326.28395	0.10930
3324.99819	0.10973
3323.71242	0.11007
3322.42665	0.11016
3321.14088	0.11018
3319.85511	0.11045
3318.56934	0.11097
3317.28357	0.11141
3315.99780	0.11142
3314.71204	0.11100
3313.42627	0.11046
3312.14050	0.11003
3310.85473	0.10967
3309.56896	0.10933
3308.28319	0.10913
3306.99742	0.10924
3305.71165	0.10960
3304.42588	0.11001
3303.14012	0.11040
3301.85435	0.11080
3300.56858	0.11116
3299.28281	0.11129
3297.99704	0.11102
3296.71127	0.11044
3295.42550	0.10982
3294.13973	0.10938
3292.85397	0.10921
3291.56820	0.10932
3290.28243	0.10965
3288.99666	0.11002
3287.71089	0.11017
3286.42512	0.10987
3285.13935	0.10919
3283.85358	0.10841
3282.56781	0.10784
3281.28205	0.10763
3279.99628	0.10774
3278.71051	0.10798
3277.42474	0.10820
3276.13897	0.10844
3274.85320	0.10884
3273.56743	0.10939
3272.28166	0.10986
3270.99590	0.10999
3269.71013	0.10975
3268.42436	0.10933
3267.13859	0.10898
3265.85282	0.10890
3264.56705	0.10915
3263.28128	0.10953
3261.99551	0.10974
3260.70974	0.10957
3259.42398	0.10913
3258.13821	0.10875
3256.85244	0.10870
3255.56667	0.10893
3254.28090	0.10916
3252.99513	0.10918
3251.70936	0.10902
3250.42359	0.10884
3249.13783	0.10878
3247.85206	0.10879
3246.56629	0.10876
3245.28052	0.10864
3243.99475	0.10850
3242.70898	0.10839
3241.42321	0.10825
3240.13744	0.10789
3238.85167	0.10720
3237.56591	0.10639
3236.28014	0.10584
3234.99437	0.10580
3233.70860	0.10620
3232.42283	0.10671
3231.13706	0.10709
3229.85129	0.10730
3228.56552	0.10751
3227.27976	0.10785
3225.99399	0.10825
3224.70822	0.10845
3223.42245	0.10830
3222.13668	0.10790
3220.85091	0.10745
3219.56514	0.10702
3218.27937	0.10654
3216.99360	0.10597
3215.70784	0.10537
3214.42207	0.10486
3213.13630	0.10452
3211.85053	0.10442
3210.56476	0.10450
3209.27899	0.10461
3207.99322	0.10460
3206.70745	0.10451
3205.42169	0.10449
3204.13592	0.10457
3202.85015	0.10467
3201.56438	0.10465
3200.27861	0.10442
3198.99284	0.10396
3197.70707	0.10337
3196.42130	0.10292
3195.13553	0.10293
3193.84977	0.10355
3192.56400	0.10458
3191.27823	0.10552
3189.99246	0.10590
3188.70669	0.10558
3187.42092	0.10483
3186.13515	0.10408
3184.84938	0.10365
3183.56362	0.10357
3182.27785	0.10368
3180.99208	0.10375
3179.70631	0.10362
3178.42054	0.10325
3177.13477	0.10280
3175.84900	0.10241
3174.56323	0.10212
3173.27746	0.10184
3171.99170	0.10157
3170.70593	0.10137
3169.42016	0.10131
3168.13439	0.10138
3166.84862	0.10156
3165.56285	0.10175
3164.27708	0.10182
3162.99131	0.10173
3161.70555	0.10146
3160.41978	0.10107
3159.13401	0.10068
3157.84824	0.10037
3156.56247	0.10018
3155.27670	0.10000
3153.99093	0.09971
3152.70516	0.09933
3151.41939	0.09908
3150.13363	0.09916
3148.84786	0.09953
3147.56209	0.09997
3146.27632	0.10018
3144.99055	0.10002
3143.70478	0.09956
3142.41901	0.09904
3141.13324	0.09872
3139.84748	0.09866
3138.56171	0.09874
3137.27594	0.09879
3135.99017	0.09876
3134.70440	0.09868
3133.41863	0.09855
3132.13286	0.09831
3130.84709	0.09800
3129.56132	0.09782
3128.27556	0.09794
3126.98979	0.09828
3125.70402	0.09856
3124.41825	0.09859
3123.13248	0.09834
3121.84671	0.09787
3120.56094	0.09728
3119.27517	0.09668
3117.98940	0.09622
3116.70364	0.09596
3115.41787	0.09588
3114.13210	0.09584
3112.84633	0.09581
3111.56056	0.09580
3110.27479	0.09587
3108.98902	0.09595
3107.70325	0.09598
3106.41749	0.09593
3105.13172	0.09589
3103.84595	0.09590
3102.56018	0.09594
3101.27441	0.09591
3099.98864	0.09573
3098.70287	0.09539
3097.41710	0.09492
3096.13133	0.09436
3094.84557	0.09380
3093.55980	0.09333
3092.27403	0.09301
3090.98826	0.09287
3089.70249	0.09285
3088.41672	0.09288
3087.13095	0.09298
3085.84518	0.09322
3084.55942	0.09359
3083.27365	0.09393
3081.98788	0.09410
3080.70211	0.09403
3079.41634	0.09376
3078.13057	0.09340
3076.84480	0.09306
3075.55903	0.09280
3074.27326	0.09262
3072.98750	0.09250
3071.70173	0.09236
3070.41596	0.09213
3069.13019	0.09179
3067.84442	0.09141
3066.55865	0.09119
3065.27288	0.09130
3063.98711	0.09175
3062.70135	0.09227
3061.41558	0.09250
3060.12981	0.09226
3058.84404	0.09173
3057.55827	0.09121
3056.27250	0.09091
3054.98673	0.09087
3053.70096	0.09096
3052.41519	0.09093
3051.12943	0.09059
3049.84366	0.08995
3048.55789	0.08928
3047.27212	0.08884
3045.98635	0.08866
3044.70058	0.08863
3043.41481	0.08863
3042.12904	0.08862
3040.84328	0.08859
3039.55751	0.08852
3038.27174	0.08843
3036.98597	0.08837
3035.70020	0.08831
3034.41443	0.08825
3033.12866	0.08821
3031.84289	0.08818
3030.55712	0.08805
3029.27136	0.08773
3027.98559	0.08730
3026.69982	0.08699
3025.41405	0.08695
3024.12828	0.08708
3022.84251	0.08718
3021.55674	0.08707
3020.27097	0.08673
3018.98521	0.08624
3017.69944	0.08576
3016.41367	0.08542
3015.12790	0.08524
3013.84213	0.08513
3012.55636	0.08500
3011.27059	0.08485
3009.98482	0.08475
3008.69905	0.08472
3007.41329	0.08471
3006.12752	0.08464
3004.84175	0.08450
3003.55598	0.08437
3002.27021	0.08426
3000.98444	0.08413
2999.69867	0.08388
2998.41290	0.08355
2997.12714	0.08330
2995.84137	0.08326
2994.55560	0.08338
2993.26983	0.08356
2991.98406	0.08377
2990.69829	0.08408
2989.41252	0.08454
2988.12675	0.08503
2986.84098	0.08525
2985.55522	0.08508
2984.26945	0.08473
2982.98368	0.08462
2981.69791	0.08502
2980.41214	0.08585
2979.12637	0.08687
2977.84060	0.08790
2976.55483	0.08897
2975.26907	0.09016
2973.98330	0.09153
2972.69753	0.09303
2971.41176	0.09451
2970.12599	0.09596
2968.84022	0.09749
2967.55445	0.09918
2966.26868	0.10094
2964.98291	0.10270
2963.69715	0.10447
2962.41138	0.10632
2961.12561	0.10825
2959.83984	0.11019
2958.55407	0.11214
2957.26830	0.11412
2955.98253	0.11610
2954.69676	0.11788
2953.41100	0.11929
2952.12523	0.12022
2950.83946	0.12066
2949.55369	0.12064
2948.26792	0.12026
2946.98215	0.11965
2945.69638	0.11900
2944.41061	0.11851
2943.12484	0.11832
2941.83908	0.11849
2940.55331	0.11904
2939.26754	0.11993
2937.98177	0.12115
2936.69600	0.12264
2935.41023	0.12433
2934.12446	0.12618
2932.83869	0.12814
2931.55293	0.13010
2930.26716	0.13187
2928.98139	0.13335
2927.69562	0.13464
2926.40985	0.13579
2925.12408	0.13679
2923.83831	0.13753
2922.55254	0.13793
2921.26677	0.13789
2919.98101	0.13729
2918.69524	0.13609
2917.40947	0.13454
2916.12370	0.13300
2914.83793	0.13169
2913.55216	0.13054
2912.26639	0.12939
2910.98062	0.12820
2909.69486	0.12701
2908.40909	0.12581
2907.12332	0.12454
2905.83755	0.12323
2904.55178	0.12202
2903.26601	0.12102
2901.98024	0.12015
2900.69447	0.11924
2899.40870	0.11820
2898.12294	0.11706
2896.83717	0.11590
2895.55140	0.11470
2894.26563	0.11341
2892.97986	0.11211
2891.69409	0.11095
2890.40832	0.11000
2889.12255	0.10917
2887.83678	0.10834
2886.55102	0.10750
2885.26525	0.10668
2883.97948	0.10593
2882.69371	0.10528
2881.40794	0.10481
2880.12217	0.10457
2878.83640	0.10460
2877.55063	0.10496
2876.26487	0.10571
2874.97910	0.10673
2873.69333	0.10777
2872.40756	0.10857
2871.12179	0.10908
2869.83602	0.10950
2868.55025	0.11001
2867.26448	0.11053
2865.97871	0.11080
2864.69295	0.11067
2863.40718	0.11027
2862.12141	0.10994
2860.83564	0.10984
2859.54987	0.10995
2858.26410	0.11021
2856.97833	0.11051
2855.69256	0.11071
2854.40680	0.11068
2853.12103	0.11042
2851.83526	0.11001
2850.54949	0.10944
2849.26372	0.10859
2847.97795	0.10742
2846.69218	0.10603
2845.40641	0.10454
2844.12064	0.10302
2842.83488	0.10142
2841.54911	0.09970
2840.26334	0.09793
2838.97757	0.09621
2837.69180	0.09459
2836.40603	0.09302
2835.12026	0.09145
2833.83449	0.08990
2832.54873	0.08851
2831.26296	0.08738
2829.97719	0.08659
2828.69142	0.08608
2827.40565	0.08568
2826.11988	0.08520
2824.83411	0.08450
2823.54834	0.08359
2822.26257	0.08267
2820.97681	0.08187
2819.69104	0.08120
2818.40527	0.08060
2817.11950	0.08001
2815.83373	0.07945
2814.54796	0.07897
2813.26219	0.07862
2811.97642	0.07842
2810.69066	0.07829
2809.40489	0.07808
2808.11912	0.07777
2806.83335	0.07747
2805.54758	0.07726
2804.26181	0.07705
2802.97604	0.07676
2801.69027	0.07644
2800.40450	0.07620
2799.11874	0.07601
2797.83297	0.07580
2796.54720	0.07552
2795.26143	0.07517
2793.97566	0.07478
2792.68989	0.07434
2791.40412	0.07385
2790.11835	0.07336
2788.83259	0.07293
2787.54682	0.07265
2786.26105	0.07251
2784.97528	0.07243
2783.68951	0.07235
2782.40374	0.07227
2781.11797	0.07221
2779.83220	0.07214
2778.54643	0.07208
2777.26067	0.07200
2775.97490	0.07191
2774.68913	0.07180
2773.40336	0.07170
2772.11759	0.07164
2770.83182	0.07157
2769.54605	0.07143
2768.26028	0.07120
2766.97452	0.07098
2765.68875	0.07091
2764.40298	0.07100
2763.11721	0.07104
2761.83144	0.07085
2760.54567	0.07044
2759.25990	0.07000
2757.97413	0.06970
2756.68836	0.06952
2755.40260	0.06932
2754.11683	0.06903
2752.83106	0.06872
2751.54529	0.06845
2750.25952	0.06824
2748.97375	0.06811
2747.68798	0.06815
2746.40221	0.06838
2745.11645	0.06865
2743.83068	0.06880
2742.54491	0.06878
2741.25914	0.06872
2739.97337	0.06864
2738.68760	0.06852
2737.40183	0.06835
2736.11606	0.06825
2734.83029	0.06824
2733.54453	0.06823
2732.25876	0.06804
2730.97299	0.06766
2729.68722	0.06722
2728.40145	0.06686
2727.11568	0.06661
2725.82991	0.06643
2724.54414	0.06633
2723.25838	0.06639
2721.97261	0.06658
2720.68684	0.06674
2719.40107	0.06676
2718.11530	0.06665
2716.82953	0.06649
2715.54376	0.06630
2714.25799	0.06606
2712.97222	0.06583
2711.68646	0.06573
2710.40069	0.06580
2709.11492	0.06595
2707.82915	0.06604
2706.54338	0.06595
2705.25761	0.06569
2703.97184	0.06539
2702.68607	0.06520
2701.40031	0.06517
2700.11454	0.06521
2698.82877	0.06516
2697.54300	0.06497
2696.25723	0.06471
2694.97146	0.06450
2693.68569	0.06438
2692.39992	0.06432
2691.11415	0.06426
2689.82839	0.06415
2688.54262	0.06401
2687.25685	0.06384
2685.97108	0.06360
2684.68531	0.06328
2683.39954	0.06293
2682.11377	0.06266
2680.82800	0.06255
2679.54224	0.06255
2678.25647	0.06258
2676.97070	0.06260
2675.68493	0.06259
2674.39916	0.06254
2673.11339	0.06243
2671.82762	0.06230
2670.54185	0.06220
2669.25608	0.06216
2667.97032	0.06217
2666.68455	0.06218
2665.39878	0.06220
2664.11301	0.06225
2662.82724	0.06237
2661.54147	0.06253
2660.25570	0.06262
2658.96993	0.06253
2657.68417	0.06227
2656.39840	0.06195
2655.11263	0.06171
2653.82686	0.06158
2652.54109	0.06144
2651.25532	0.06116
2649.96955	0.06073
2648.68378	0.06029
2647.39801	0.05992
2646.11225	0.05962
2644.82648	0.05939
2643.54071	0.05931
2642.25494	0.05941
2640.96917	0.05957
2639.68340	0.05964
2638.39763	0.05956
2637.11186	0.05933
2635.82609	0.05894
2634.54033	0.05842
2633.25456	0.05786
2631.96879	0.05737
2630.68302	0.05705
2629.39725	0.05691
2628.11148	0.05688
2626.82571	0.05683
2625.53994	0.05663
2624.25418	0.05622
2622.96841	0.05567
2621.68264	0.05522
2620.39687	0.05510
2619.11110	0.05531
2617.82533	0.05558
2616.53956	0.05567
2615.25379	0.05555
2613.96802	0.05530
2612.68226	0.05495
2611.39649	0.05453
2610.11072	0.05415
2608.82495	0.05396
2607.53918	0.05396
2606.25341	0.05400
2604.96764	0.05390
2603.68187	0.05355
2602.39611	0.05304
2601.11034	0.05257
2599.82457	0.05231
2598.53880	0.05229
2597.25303	0.05243
2595.96726	0.05258
2594.68149	0.05261
2593.39572	0.05246
2592.10995	0.05212
2590.82419	0.05176
2589.53842	0.05154
2588.25265	0.05151
2586.96688	0.05150
2585.68111	0.05138
2584.39534	0.05124
2583.10957	0.05131
2581.82380	0.05159
2580.53804	0.05179
2579.25227	0.05153
2577.96650	0.05078
2576.68073	0.04992
2575.39496	0.04937
2574.10919	0.04920
2572.82342	0.04916
2571.53765	0.04908
2570.25188	0.04899
2568.96612	0.04908
2567.68035	0.04940
2566.39458	0.04987
2565.10881	0.05024
2563.82304	0.05030
2562.53727	0.04998
2561.25150	0.04946
2559.96573	0.04904
2558.67997	0.04893
2557.39420	0.04905
2556.10843	0.04919
2554.82266	0.04917
2553.53689	0.04904
2552.25112	0.04895
2550.96535	0.04897
2549.67958	0.04902
2548.39381	0.04905
2547.10805	0.04904
2545.82228	0.04905
2544.53651	0.04909
2543.25074	0.04920
2541.96497	0.04930
2540.67920	0.04923
2539.39343	0.04884
2538.10766	0.04814
2536.82190	0.04734
2535.53613	0.04669
2534.25036	0.04634
2532.96459	0.04630
2531.67882	0.04643
2530.39305	0.04656
2529.10728	0.04662
2527.82151	0.04659
2526.53574	0.04647
2525.24998	0.04627
2523.96421	0.04613
2522.67844	0.04619
2521.39267	0.04649
2520.10690	0.04692
2518.82113	0.04729
2517.53536	0.04738
2516.24959	0.04706
2514.96383	0.04647
2513.67806	0.04589
2512.39229	0.04556
2511.10652	0.04550
2509.82075	0.04561
2508.53498	0.04585
2507.24921	0.04612
2505.96344	0.04631
2504.67767	0.04638
2503.39191	0.04638
2502.10614	0.04634
2500.82037	0.04627
2499.53460	0.04622
2498.24883	0.04629
2496.96306	0.04640
2495.67729	0.04636
2494.39152	0.04609
2493.10576	0.04567
2491.81999	0.04521
2490.53422	0.04476
2489.24845	0.04440
2487.96268	0.04425
2486.67691	0.04436
2485.39114	0.04469
2484.10537	0.04511
2482.81960	0.04548
2481.53384	0.04575
2480.24807	0.04589
2478.96230	0.04587
2477.67653	0.04566
2476.39076	0.04535
2475.10499	0.04518
2473.81922	0.04534
2472.53345	0.04571
2471.24769	0.04597
2469.96192	0.04585
2468.67615	0.04535
2467.39038	0.04474
2466.10461	0.04443
2464.81884	0.04460
2463.53307	0.04505
2462.24730	0.04539
2460.96153	0.04540
2459.67577	0.04522
2458.39000	0.04519
2457.10423	0.04539
2455.81846	0.04566
2454.53269	0.04575
2453.24692	0.04558
2451.96115	0.04521
2450.67538	0.04480
2449.38962	0.04448
2448.10385	0.04431
2446.81808	0.04418
2445.53231	0.04395
2444.24654	0.04360
2442.96077	0.04325
2441.67500	0.04305
2440.38923	0.04303
2439.10346	0.04310
2437.81770	0.04317
2436.53193	0.04321
2435.24616	0.04323
2433.96039	0.04326
2432.67462	0.04323
2431.38885	0.04313
2430.10308	0.04309
2428.81731	0.04321
2427.53155	0.04339
2426.24578	0.04339
2424.96001	0.04314
2423.67424	0.04280
2422.38847	0.04264
2421.10270	0.04273
2419.81693	0.04298
2418.53116	0.04323
2417.24539	0.04341
2415.95963	0.04354
2414.67386	0.04354
2413.38809	0.04331
2412.10232	0.04281
2410.81655	0.04227
2409.53078	0.04204
2408.24501	0.04224
2406.95924	0.04267
2405.67347	0.04297
2404.38771	0.04292
2403.10194	0.04251
2401.81617	0.04196
2400.53040	0.04145
2399.24463	0.04056
2397.95886	0.04025
2396.67309	0.04064
2395.38732	0.04129
2394.10156	0.04186
2392.81579	0.04222
2391.53002	0.04242
2390.24425	0.04255
2388.95848	0.04268
2387.67271	0.04287
2386.38694	0.04315
2385.10117	0.04352
2383.81540	0.04390
2382.52964	0.04417
2381.24387	0.04425
2379.95810	0.04423
2378.67233	0.04417
2377.38656	0.04413
2376.10079	0.04433
2374.81502	0.04475
2373.52925	0.04506
2372.24349	0.04497
2370.95772	0.04424
2369.67195	0.04347
2368.38618	0.04321
2367.10041	0.04353
2365.81464	0.04452
2364.52887	0.04624
2363.24310	0.04797
2361.95733	0.04893
2360.67157	0.04918
2359.38580	0.04926
2358.10003	0.04904
2356.81426	0.04862
2355.52849	0.04840
2354.24272	0.04832
2352.95695	0.04834
2351.67118	0.04806
2350.38542	0.04706
2349.09965	0.04639
2347.81388	0.04696
2346.52811	0.04765
2345.24234	0.04732
2343.95657	0.04648
2342.67080	0.04613
2341.38503	0.04616
2340.09926	0.04612
2338.81350	0.04606
2337.52773	0.04592
2336.24196	0.04594
2334.95619	0.04592
2333.67042	0.04561
2332.38465	0.04546
2331.09888	0.04553
2329.81311	0.04579
2328.52735	0.04643
2327.24158	0.04689
2325.95581	0.04674
2324.67004	0.04613
2323.38427	0.04513
2322.09850	0.04411
2320.81273	0.04361
2319.52696	0.04341
2318.24119	0.04319
2316.95543	0.04297
2315.66966	0.04271
2314.38389	0.04237
2313.09812	0.04190
2311.81235	0.04140
2310.52658	0.04101
2309.24081	0.04081
2307.95504	0.04093
2306.66928	0.04136
2305.38351	0.04182
2304.09774	0.04204
2302.81197	0.04187
2301.52620	0.04138
2300.24043	0.04082
2298.95466	0.04051
2297.66889	0.04053
2296.38312	0.04075
2295.09736	0.04099
2293.81159	0.04113
2292.52582	0.04120
2291.24005	0.04120
2289.95428	0.04102
2288.66851	0.04046
2287.38274	0.03947
2286.09697	0.03825
2284.81121	0.03720
2283.52544	0.03664
2282.23967	0.03663
2280.95390	0.03696
2279.66813	0.03737
2278.38236	0.03769
2277.09659	0.03790
2275.81082	0.03801
2274.52505	0.03802
2273.23929	0.03792
2271.95352	0.03768
2270.66775	0.03730
2269.38198	0.03686
2268.09621	0.03644
2266.81044	0.03604
2265.52467	0.03558
2264.23890	0.03506
2262.95314	0.03463
2261.66737	0.03457
2260.38160	0.03494
2259.09583	0.03544
2257.81006	0.03562
2256.52429	0.03524
2255.23852	0.03442
2253.95275	0.03349
2252.66698	0.03266
2251.38122	0.03196
2250.09545	0.03122
2248.80968	0.03053
2247.52391	0.03068
2246.23814	0.03148
2244.95237	0.03254
2243.66660	0.03327
2242.38083	0.03331
2241.09507	0.03288
2239.80930	0.03246
2238.52353	0.03231
2237.23776	0.03225
2235.95199	0.03198
2234.66622	0.03145
2233.38045	0.03085
2232.09468	0.03029
2230.80891	0.02974
2229.52315	0.02924
2228.23738	0.02900
2226.95161	0.02904
2225.66584	0.02903
2224.38007	0.02852
2223.09430	0.02748
2221.80853	0.02631
2220.52276	0.02558
2219.23700	0.02549
2217.95123	0.02591
2216.66546	0.02661
2215.37969	0.02736
2214.09392	0.02790
2212.80815	0.02790
2211.52238	0.02724
2210.23661	0.02626
2208.95084	0.02562
2207.66508	0.02580
2206.37931	0.02665
2205.09354	0.02746
2203.80777	0.02761
2202.52200	0.02700
2201.23623	0.02593
2199.95046	0.02467
2198.66469	0.02335
2197.37893	0.02224
2196.09316	0.02181
2194.80739	0.02231
2193.52162	0.02344
2192.23585	0.02445
2190.95008	0.02483
2189.66431	0.02471
2188.37854	0.02461
2187.09277	0.02476
2185.80701	0.02484
2184.52124	0.02453
2183.23547	0.02393
2181.94970	0.02339
2180.66393	0.02306
2179.37816	0.02288
2178.09239	0.02285
2176.80662	0.02288
2175.52085	0.02265
2174.23509	0.02195
2172.94932	0.02107
2171.66355	0.02057
2170.37778	0.02068
2169.09201	0.02091
2167.80624	0.02060
2166.52047	0.01961
2165.23470	0.01851
2163.94894	0.01798
2162.66317	0.01799
2161.37740	0.01779
2160.09163	0.01678
2158.80586	0.01526
2157.52009	0.01421
2156.23432	0.01411
2154.94855	0.01457
2153.66278	0.01498
2152.37702	0.01523
2151.09125	0.01554
2149.80548	0.01610
2148.51971	0.01696
2147.23394	0.01821
2145.94817	0.01984
2144.66240	0.02152
2143.37663	0.02275
2142.09087	0.02334
2140.80510	0.02347
2139.51933	0.02340
2138.23356	0.02313
2136.94779	0.02248
2135.66202	0.02161
2134.37625	0.02103
2133.09048	0.02117
2131.80471	0.02196
2130.51895	0.02302
2129.23318	0.02405
2127.94741	0.02488
2126.66164	0.02530
2125.37587	0.02515
2124.09010	0.02465
2122.80433	0.02440
2121.51856	0.02487
2120.23280	0.02583
2118.94703	0.02657
2117.66126	0.02665
2116.37549	0.02628
2115.08972	0.02600
2113.80395	0.02603
2112.51818	0.02616
2111.23241	0.02615
2109.94664	0.02594
2108.66088	0.02566
2107.37511	0.02546
2106.08934	0.02537
2104.80357	0.02529
2103.51780	0.02504
2102.23203	0.02461
2100.94626	0.02426
2099.66049	0.02424
2098.37473	0.02458
2097.08896	0.02492
2095.80319	0.02496
2094.51742	0.02477
2093.23165	0.02461
2091.94588	0.02463
2090.66011	0.02476
2089.37434	0.02488
2088.08857	0.02495
2086.80281	0.02489
2085.51704	0.02460
2084.23127	0.02411
2082.94550	0.02365
2081.65973	0.02338
2080.37396	0.02325
2079.08819	0.02312
2077.80242	0.02293
2076.51666	0.02271
2075.23089	0.02252
2073.94512	0.02235
2072.65935	0.02204
2071.37358	0.02147
2070.08781	0.02068
2068.80204	0.01993
2067.51627	0.01957
2066.23050	0.01968
2064.94474	0.02001
2063.65897	0.02021
2062.37320	0.02013
2061.08743	0.02001
2059.80166	0.01999
2058.51589	0.01993
2057.23012	0.01952
2055.94435	0.01874
2054.65859	0.01784
2053.37282	0.01705
2052.08705	0.01645
2050.80128	0.01606
2049.51551	0.01580
2048.22974	0.01556
2046.94397	0.01520
2045.65820	0.01471
2044.37243	0.01424
2043.08667	0.01398
2041.80090	0.01403
2040.51513	0.01433
2039.22936	0.01463
2037.94359	0.01468
2036.65782	0.01443
2035.37205	0.01409
2034.08628	0.01382
2032.80052	0.01350
2031.51475	0.01294
2030.22898	0.01226
2028.94321	0.01186
2027.65744	0.01202
2026.37167	0.01261
2025.08590	0.01315
2023.80013	0.01321
2022.51436	0.01284
2021.22860	0.01251
2019.94283	0.01263
2018.65706	0.01311
2017.37129	0.01350
2016.08552	0.01356
2014.79975	0.01347
2013.51398	0.01354
2012.22821	0.01384
2010.94245	0.01414
2009.65668	0.01422
2008.37091	0.01403
2007.08514	0.01378
2005.79937	0.01374
2004.51360	0.01410
2003.22783	0.01485
2001.94206	0.01582
2000.65629	0.01677
1999.37053	0.01748
1998.08476	0.01780
1996.79899	0.01775
1995.51322	0.01753
1994.22745	0.01736
1992.94168	0.01740
1991.65591	0.01759
1990.37014	0.01778
1989.08438	0.01778
1987.79861	0.01750
1986.51284	0.01700
1985.22707	0.01650
1983.94130	0.01617
1982.65553	0.01598
1981.36976	0.01575
1980.08399	0.01534
1978.79822	0.01491
1977.51246	0.01482
1976.22669	0.01524
1974.94092	0.01591
1973.65515	0.01624
1972.36938	0.01583
1971.08361	0.01482
1969.79784	0.01382
1968.51207	0.01343
1967.22631	0.01389
1965.94054	0.01500
1964.65477	0.01636
1963.36900	0.01754
1962.08323	0.01822
1960.79746	0.01829
1959.51169	0.01793
1958.22592	0.01756
1956.94015	0.01755
1955.65439	0.01803
1954.36862	0.01876
1953.08285	0.01933
1951.79708	0.01939
1950.51131	0.01896
1949.22554	0.01838
1947.93977	0.01813
1946.65400	0.01848
1945.36823	0.01936
1944.08247	0.02053
1942.79670	0.02163
1941.51093	0.02238
1940.22516	0.02263
1938.93939	0.02243
1937.65362	0.02198
1936.36785	0.02148
1935.08208	0.02116
1933.79632	0.02125
1932.51055	0.02174
1931.22478	0.02227
1929.93901	0.02246
1928.65324	0.02229
1927.36747	0.02203
1926.08170	0.02189
1924.79593	0.02186
1923.51016	0.02191
1922.22440	0.02205
1920.93863	0.02224
1919.65286	0.02239
1918.36709	0.02251
1917.08132	0.02271
1915.79555	0.02300
1914.50978	0.02328
1913.22401	0.02341
1911.93825	0.02341
1910.65248	0.02338
1909.36671	0.02343
1908.08094	0.02359
1906.79517	0.02375
1905.50940	0.02373
1904.22363	0.02348
1902.93786	0.02312
1901.65209	0.02287
1900.36633	0.02291
1899.08056	0.02322
1897.79479	0.02364
1896.50902	0.02394
1895.22325	0.02399
1893.93748	0.02382
1892.65171	0.02363
1891.36594	0.02355
1890.08018	0.02364
1888.79441	0.02380
1887.50864	0.02391
1886.22287	0.02392
1884.93710	0.02383
1883.65133	0.02368
1882.36556	0.02346
1881.07979	0.02320
1879.79402	0.02304
1878.50826	0.02309
1877.22249	0.02332
1875.93672	0.02360
1874.65095	0.02379
1873.36518	0.02385
1872.07941	0.02375
1870.79364	0.02351
1869.50787	0.02329
1868.22211	0.02328
1866.93634	0.02348
1865.65057	0.02378
1864.36480	0.02408
1863.07903	0.02433
1861.79326	0.02451
1860.50749	0.02462
1859.22172	0.02467
1857.93595	0.02465
1856.65019	0.02456
1855.36442	0.02445
1854.07865	0.02441
1852.79288	0.02448
1851.50711	0.02462
1850.22134	0.02470
1848.93557	0.02465
1847.64980	0.02449
1846.36404	0.02426
1845.07827	0.02404
1843.79250	0.02399
1842.50673	0.02410
1841.22096	0.02421
1839.93519	0.02422
1838.64942	0.02420
1837.36365	0.02423
1836.07788	0.02428
1834.79212	0.02435
1833.50635	0.02442
1832.22058	0.02449
1830.93481	0.02456
1829.64904	0.02468
1828.36327	0.02476
1827.07750	0.02468
1825.79173	0.02451
1824.50597	0.02448
1823.22020	0.02466
1821.93443	0.02487
1820.64866	0.02489
1819.36289	0.02472
1818.07712	0.02455
1816.79135	0.02455
1815.50558	0.02474
1814.21981	0.02499
1812.93405	0.02518
1811.64828	0.02531
1810.36251	0.02543
1809.07674	0.02552
1807.79097	0.02555
1806.50520	0.02551
1805.21943	0.02547
1803.93366	0.02544
1802.64790	0.02547
1801.36213	0.02556
1800.07636	0.02566
1798.79059	0.02569
1797.50482	0.02561
1796.21905	0.02547
1794.93328	0.02533
1793.64751	0.02528
1792.36174	0.02536
1791.07598	0.02555
1789.79021	0.02571
1788.50444	0.02572
1787.21867	0.02561
1785.93290	0.02549
1784.64713	0.02543
1783.36136	0.02544
1782.07559	0.02547
1780.78983	0.02550
1779.50406	0.02559
1778.21829	0.02576
1776.93252	0.02599
1775.64675	0.02615
1774.36098	0.02618
1773.07521	0.02616
1771.78944	0.02625
1770.50367	0.02641
1769.21791	0.02650
1767.93214	0.02657
1766.64637	0.02674
1765.36060	0.02693
1764.07483	0.02694
1762.78906	0.02679
1761.50329	0.02668
1760.21752	0.02670
1758.93176	0.02677
1757.64599	0.02679
1756.36022	0.02684
1755.07445	0.02693
1753.78868	0.02695
1752.50291	0.02691
1751.21714	0.02699
1749.93137	0.02724
1748.64560	0.02750
1747.35984	0.02760
1746.07407	0.02753
1744.78830	0.02738
1743.50253	0.02726
1742.21676	0.02718
1740.93099	0.02714
1739.64522	0.02721
1738.35945	0.02740
1737.07369	0.02748
1735.78792	0.02732
1734.50215	0.02719
1733.21638	0.02741
1731.93061	0.02785
1730.64484	0.02813
1729.35907	0.02819
1728.07330	0.02825
1726.78753	0.02841
1725.50177	0.02864
1724.21600	0.02890
1722.93023	0.02915
1721.64446	0.02933
1720.35869	0.02934
1719.07292	0.02930
1717.78715	0.02951
1716.50138	0.03010
1715.21561	0.03082
1713.92985	0.03140
1712.64408	0.03179
1711.35831	0.03211
1710.07254	0.03244
1708.78677	0.03277
1707.50100	0.03309
1706.21523	0.03346
1704.92946	0.03398
1703.64370	0.03447
1702.35793	0.03468
1701.07216	0.03477
1699.78639	0.03514
1698.50062	0.03568
1697.21485	0.03598
1695.92908	0.03612
1694.64331	0.03651
1693.35754	0.03709
1692.07178	0.03752
1690.78601	0.03778
1689.50024	0.03810
1688.21447	0.03840
1686.92870	0.03844
1685.64293	0.03826
1684.35716	0.03833
1683.07139	0.03891
1681.78563	0.03967
1680.49986	0.04023
1679.21409	0.04057
1677.92832	0.04078
1676.64255	0.04098
1675.35678	0.04132
1674.07101	0.04186
1672.78524	0.04235
1671.49947	0.04259
1670.21371	0.04274
1668.92794	0.04308
1667.64217	0.04368
1666.35640	0.04431
1665.07063	0.04478
1663.78486	0.04511
1662.49909	0.04544
1661.21332	0.04582
1659.92756	0.04619
1658.64179	0.04651
1657.35602	0.04680
1656.07025	0.04689
1654.78448	0.04669
1653.49871	0.04660
1652.21294	0.04710
1650.92717	0.04795
1649.64140	0.04847
1648.35564	0.04843
1647.06987	0.04822
1645.78410	0.04821
1644.49833	0.04837
1643.21256	0.04847
1641.92679	0.04847
1640.64102	0.04852
1639.35525	0.04863
1638.06949	0.04863
1636.78372	0.04848
1635.49795	0.04841
1634.21218	0.04861
1632.92641	0.04893
1631.64064	0.04915
1630.35487	0.04922
1629.06910	0.04925
1627.78333	0.04931
1626.49757	0.04939
1625.21180	0.04943
1623.92603	0.04945
1622.64026	0.04955
1621.35449	0.04974
1620.06872	0.04982
1618.78295	0.04968
1617.49718	0.04950
1616.21142	0.04960
1614.92565	0.05000
1613.63988	0.05042
1612.35411	0.05067
1611.06834	0.05081
1609.78257	0.05097
1608.49680	0.05117
1607.21103	0.05143
1605.92526	0.05174
1604.63950	0.05206
1603.35373	0.05234
1602.06796	0.05257
1600.78219	0.05274
1599.49642	0.05288
1598.21065	0.05305
1596.92488	0.05327
1595.63911	0.05355
1594.35335	0.05386
1593.06758	0.05416
1591.78181	0.05441
1590.49604	0.05465
1589.21027	0.05494
1587.92450	0.05530
1586.63873	0.05571
1585.35296	0.05610
1584.06719	0.05643
1582.78143	0.05671
1581.49566	0.05702
1580.20989	0.05739
1578.92412	0.05775
1577.63835	0.05808
1576.35258	0.05856
1575.06681	0.05935
1573.78104	0.06020
1572.49528	0.06077
1571.20951	0.06107
1569.92374	0.06139
1568.63797	0.06190
1567.35220	0.06248
1566.06643	0.06300
1564.78066	0.06353
1563.49489	0.06411
1562.20912	0.06453
1560.92336	0.06466
1559.63759	0.06478
1558.35182	0.06526
1557.06605	0.06598
1555.78028	0.06653
1554.49451	0.06686
1553.20874	0.06717
1551.92297	0.06749
1550.63721	0.06775
1549.35144	0.06795
1548.06567	0.06813
1546.77990	0.06824
1545.49413	0.06826
1544.20836	0.06818
1542.92259	0.06796
1541.63682	0.06755
1540.35105	0.06713
1539.06529	0.06694
1537.77952	0.06698
1536.49375	0.06690
1535.20798	0.06656
1533.92221	0.06616
1532.63644	0.06599
1531.35067	0.06601
1530.06490	0.06605
1528.77914	0.06608
1527.49337	0.06622
1526.20760	0.06656
1524.92183	0.06702
1523.63606	0.06745
1522.35029	0.06786
1521.06452	0.06846
1519.77875	0.06929
1518.49298	0.07018
1517.20722	0.07104
1515.92145	0.07201
1514.63568	0.07317
1513.34991	0.07444
1512.06414	0.07579
1510.77837	0.07717
1509.49260	0.07842
1508.20683	0.07952
1506.92107	0.08072
1505.63530	0.08225
1504.34953	0.08394
1503.06376	0.08538
1501.77799	0.08646
1500.49222	0.08735
1499.20645	0.08820
1497.92068	0.08900
1496.63491	0.08979
1495.34915	0.09064
1494.06338	0.09151
1492.77761	0.09226
1491.49184	0.09294
1490.20607	0.09367
1488.92030	0.09455
1487.63453	0.09558
1486.34876	0.09674
1485.06299	0.09800
1483.77723	0.09932
1482.49146	0.10065
1481.20569	0.10204
1479.91992	0.10350
1478.63415	0.10500
1477.34838	0.10651
1476.06261	0.10799
1474.77684	0.10939
1473.49108	0.11069
1472.20531	0.11198
1470.91954	0.11330
1469.63377	0.11456
1468.34800	0.11568
1467.06223	0.11663
1465.77646	0.11748
1464.49069	0.11830
1463.20492	0.11914
1461.91916	0.11994
1460.63339	0.12064
1459.34762	0.12121
1458.06185	0.12179
1456.77608	0.12261
1455.49031	0.12367
1454.20454	0.12463
1452.91877	0.12527
1451.63301	0.12565
1450.34724	0.12590
1449.06147	0.12607
1447.77570	0.12617
1446.48993	0.12622
1445.20416	0.12617
1443.91839	0.12593
1442.63262	0.12549
1441.34685	0.12495
1440.06109	0.12436
1438.77532	0.12375
1437.48955	0.12327
1436.20378	0.12314
1434.91801	0.12337
1433.63224	0.12383
1432.34647	0.12445
1431.06070	0.12536
1429.77494	0.12663
1428.48917	0.12820
1427.20340	0.12993
1425.91763	0.13174
1424.63186	0.13363
1423.34609	0.13560
1422.06032	0.13752
1420.77455	0.13927
1419.48878	0.14095
1418.20302	0.14260
1416.91725	0.14408
1415.63148	0.14522
1414.34571	0.14604
1413.05994	0.14667
1411.77417	0.14716
1410.48840	0.14746
1409.20263	0.14746
1407.91687	0.14709
1406.63110	0.14634
1405.34533	0.14526
1404.05956	0.14392
1402.77379	0.14232
1401.48802	0.14043
1400.20225	0.13829
1398.91648	0.13603
1397.63071	0.13371
1396.34495	0.13130
1395.05918	0.12879
1393.77341	0.12624
1392.48764	0.12369
1391.20187	0.12113
1389.91610	0.11853
1388.63033	0.11599
1387.34456	0.11363
1386.05880	0.11149
1384.77303	0.10949
1383.48726	0.10748
1382.20149	0.10543
1380.91572	0.10336
1379.62995	0.10131
1378.34418	0.09926
1377.05841	0.09714
1375.77264	0.09483
1374.48688	0.09226
1373.20111	0.08950
1371.91534	0.08666
1370.62957	0.08388
1369.34380	0.08126
1368.05803	0.07885
1366.77226	0.07660
1365.48649	0.07442
1364.20073	0.07222
1362.91496	0.07004
1361.62919	0.06794
1360.34342	0.06598
1359.05765	0.06417
1357.77188	0.06251
1356.48611	0.06099
1355.20034	0.05960
1353.91457	0.05833
1352.62881	0.05719
1351.34304	0.05616
1350.05727	0.05521
1348.77150	0.05431
1347.48573	0.05340
1346.19996	0.05251
1344.91419	0.05166
1343.62842	0.05088
1342.34266	0.05017
1341.05689	0.04952
1339.77112	0.04889
1338.48535	0.04828
1337.19958	0.04767
1335.91381	0.04706
1334.62804	0.04647
1333.34227	0.04591
1332.05650	0.04537
1330.77074	0.04489
1329.48497	0.04448
1328.19920	0.04413
1326.91343	0.04381
1325.62766	0.04350
1324.34189	0.04320
1323.05612	0.04288
1321.77035	0.04256
1320.48459	0.04221
1319.19882	0.04186
1317.91305	0.04150
1316.62728	0.04115
1315.34151	0.04080
1314.05574	0.04048
1312.76997	0.04024
1311.48420	0.04005
1310.19843	0.03987
1308.91267	0.03964
1307.62690	0.03936
1306.34113	0.03902
1305.05536	0.03869
1303.76959	0.03841
1302.48382	0.03818
1301.19805	0.03796
1299.91228	0.03770
1298.62652	0.03738
1297.34075	0.03705
1296.05498	0.03678
1294.76921	0.03657
1293.48344	0.03639
1292.19767	0.03618
1290.91190	0.03593
1289.62613	0.03565
1288.34036	0.03538
1287.05460	0.03513
1285.76883	0.03491
1284.48306	0.03469
1283.19729	0.03447
1281.91152	0.03424
1280.62575	0.03401
1279.33998	0.03381
1278.05421	0.03365
1276.76845	0.03352
1275.48268	0.03337
1274.19691	0.03315
1272.91114	0.03287
1271.62537	0.03258
1270.33960	0.03233
1269.05383	0.03210
1267.76806	0.03189
1266.48229	0.03168
1265.19653	0.03147
1263.91076	0.03126
1262.62499	0.03104
1261.33922	0.03084
1260.05345	0.03067
1258.76768	0.03054
1257.48191	0.03040
1256.19614	0.03025
1254.91037	0.03008
1253.62461	0.02992
1252.33884	0.02979
1251.05307	0.02969
1249.76730	0.02959
1248.48153	0.02948
1247.19576	0.02938
1245.90999	0.02927
1244.62422	0.02911
1243.33846	0.02889
1242.05269	0.02864
1240.76692	0.02838
1239.48115	0.02818
1238.19538	0.02804
1236.90961	0.02794
1235.62384	0.02782
1234.33807	0.02765
1233.05230	0.02746
1231.76654	0.02729
1230.48077	0.02715
1229.19500	0.02701
1227.90923	0.02683
1226.62346	0.02663
1225.33769	0.02644
1224.05192	0.02627
1222.76615	0.02614
1221.48039	0.02605
1220.19462	0.02597
1218.90885	0.02586
1217.62308	0.02571
1216.33731	0.02555
1215.05154	0.02537
1213.76577	0.02521
1212.48000	0.02509
1211.19423	0.02500
1209.90847	0.02491
1208.62270	0.02481
1207.33693	0.02470
1206.05116	0.02460
1204.76539	0.02450
1203.47962	0.02439
1202.19385	0.02426
1200.90808	0.02414
1199.62232	0.02405
1198.33655	0.02396
1197.05078	0.02384
1195.76501	0.02371
1194.47924	0.02358
1193.19347	0.02345
1191.90770	0.02330
1190.62193	0.02313
1189.33616	0.02298
1188.05040	0.02287
1186.76463	0.02282
1185.47886	0.02282
1184.19309	0.02287
1182.90732	0.02293
1181.62155	0.02295
1180.33578	0.02290
1179.05001	0.02280
1177.76425	0.02270
1176.47848	0.02265
1175.19271	0.02266
1173.90694	0.02273
1172.62117	0.02282
1171.33540	0.02292
1170.04963	0.02300
1168.76386	0.02306
1167.47809	0.02309
1166.19233	0.02314
1164.90656	0.02324
1163.62079	0.02340
1162.33502	0.02358
1161.04925	0.02372
1159.76348	0.02385
1158.47771	0.02400
1157.19194	0.02418
1155.90618	0.02439
1154.62041	0.02463
1153.33464	0.02494
1152.04887	0.02528
1150.76310	0.02564
1149.47733	0.02604
1148.19156	0.02653
1146.90579	0.02712
1145.62002	0.02778
1144.33426	0.02848
1143.04849	0.02924
1141.76272	0.03008
1140.47695	0.03103
1139.19118	0.03214
1137.90541	0.03343
1136.61964	0.03492
1135.33387	0.03654
1134.04811	0.03825
1132.76234	0.04009
1131.47657	0.04220
1130.19080	0.04465
1128.90503	0.04746
1127.61926	0.05055
1126.33349	0.05389
1125.04772	0.05745
1123.76195	0.06117
1122.47619	0.06504
1121.19042	0.06901
1119.90465	0.07310
1118.61888	0.07730
1117.33311	0.08155
1116.04734	0.08579
1114.76157	0.08994
1113.47580	0.09400
1112.19004	0.09798
1110.90427	0.10186
1109.61850	0.10560
1108.33273	0.10917
1107.04696	0.11264
1105.76119	0.11603
1104.47542	0.11934
1103.18965	0.12253
1101.90388	0.12556
1100.61812	0.12843
1099.33235	0.13114
1098.04658	0.13372
1096.76081	0.13618
1095.47504	0.13853
1094.18927	0.14073
1092.90350	0.14275
1091.61773	0.14461
1090.33197	0.14635
1089.04620	0.14802
1087.76043	0.14967
1086.47466	0.15139
1085.18889	0.15322
1083.90312	0.15513
1082.61735	0.15706
1081.33158	0.15902
1080.04581	0.16112
1078.76005	0.16349
1077.47428	0.16612
1076.18851	0.16888
1074.90274	0.17167
1073.61697	0.17448
1072.33120	0.17736
1071.04543	0.18037
1069.75966	0.18351
1068.47390	0.18681
1067.18813	0.19026
1065.90236	0.19383
1064.61659	0.19744
1063.33082	0.20105
1062.04505	0.20462
1060.75928	0.20816
1059.47351	0.21173
1058.18774	0.21532
1056.90198	0.21889
1055.61621	0.22239
1054.33044	0.22582
1053.04467	0.22924
1051.75890	0.23277
1050.47313	0.23644
1049.18736	0.24022
1047.90159	0.24410
1046.61583	0.24809
1045.33006	0.25224
1044.04429	0.25655
1042.75852	0.26097
1041.47275	0.26542
1040.18698	0.26984
1038.90121	0.27429
1037.61544	0.27885
1036.32967	0.28355
1035.04391	0.28831
1033.75814	0.29294
1032.47237	0.29730
1031.18660	0.30135
1029.90083	0.30508
1028.61506	0.30850
1027.32929	0.31157
1026.04352	0.31431
1024.75775	0.31677
1023.47199	0.31892
1022.18622	0.32067
1020.90045	0.32195
1019.61468	0.32275
1018.32891	0.32309
1017.04314	0.32295
1015.75737	0.32228
1014.47160	0.32106
1013.18584	0.31934
1011.90007	0.31714
1010.61430	0.31442
1009.32853	0.31118
1008.04276	0.30741
1006.75699	0.30318
1005.47122	0.29847
1004.18545	0.29324
1002.89968	0.28748
1001.61392	0.28123
1000.32815	0.27458
999.04238	0.26763
997.75661	0.26047
996.47084	0.25317
995.18507	0.24575
993.89930	0.23815
992.61353	0.23039
991.32777	0.22256
990.04200	0.21480
988.75623	0.20722
987.47046	0.19995
986.18469	0.19302
984.89892	0.18642
983.61315	0.18007
982.32738	0.17396
981.04161	0.16818
979.75585	0.16279
978.47008	0.15779
977.18431	0.15316
975.89854	0.14893
974.61277	0.14515
973.32700	0.14189
972.04123	0.13924
970.75546	0.13733
969.46970	0.13620
968.18393	0.13578
966.89816	0.13592
965.61239	0.13650
964.32662	0.13743
963.04085	0.13849
961.75508	0.13932
960.46931	0.13958
959.18354	0.13909
957.89778	0.13781
956.61201	0.13583
955.32624	0.13330
954.04047	0.13040
952.75470	0.12732
951.46893	0.12418
950.18316	0.12105
948.89739	0.11797
947.61163	0.11495
946.32586	0.11203
945.04009	0.10919
943.75432	0.10641
942.46855	0.10369
941.18278	0.10106
939.89701	0.09858
938.61124	0.09629
937.32547	0.09421
936.03971	0.09233
934.75394	0.09059
933.46817	0.08894
932.18240	0.08734
930.89663	0.08581
929.61086	0.08434
928.32509	0.08293
927.03932	0.08160
925.75356	0.08035
924.46779	0.07919
923.18202	0.07807
921.89625	0.07693
920.61048	0.07581
919.32471	0.07475
918.03894	0.07382
916.75317	0.07302
915.46740	0.07232
914.18164	0.07164
912.89587	0.07092
911.61010	0.07016
910.32433	0.06940
909.03856	0.06868
907.75279	0.06799
906.46702	0.06733
905.18125	0.06669
903.89549	0.06606
902.60972	0.06541
901.32395	0.06474
900.03818	0.06408
898.75241	0.06354
897.46664	0.06314
896.18087	0.06287
894.89510	0.06263
893.60933	0.06238
892.32357	0.06211
891.03780	0.06190
889.75203	0.06189
888.46626	0.06217
887.18049	0.06282
885.89472	0.06400
884.60895	0.06591
883.32318	0.06869
882.03742	0.07217
880.75165	0.07582
879.46588	0.07900
878.18011	0.08142
876.89434	0.08330
875.60857	0.08511
874.32280	0.08704
873.03703	0.08882
871.75126	0.08997
870.46550	0.09017
869.17973	0.08940
867.89396	0.08779
866.60819	0.08549
865.32242	0.08273
864.03665	0.07977
862.75088	0.07689
861.46511	0.07424
860.17935	0.07187
858.89358	0.06980
857.60781	0.06808
856.32204	0.06669
855.03627	0.06553
853.75050	0.06450
852.46473	0.06352
851.17896	0.06258
849.89319	0.06168
848.60743	0.06087
847.32166	0.06022
846.03589	0.05975
844.75012	0.05938
843.46435	0.05903
842.17858	0.05864
840.89281	0.05821
839.60704	0.05773
838.32128	0.05723
837.03551	0.05675
835.74974	0.05634
834.46397	0.05602
833.17820	0.05573
831.89243	0.05543
830.60666	0.05514
829.32089	0.05486
828.03512	0.05462
826.74936	0.05440
825.46359	0.05422
824.17782	0.05410
822.89205	0.05405
821.60628	0.05404
820.32051	0.05405
819.03474	0.05402
817.74897	0.05393
816.46321	0.05381
815.17744	0.05369
813.89167	0.05362
812.60590	0.05355
811.32013	0.05343
810.03436	0.05327
808.74859	0.05308
807.46282	0.05288
806.17705	0.05271
804.89129	0.05258
803.60552	0.05250
802.31975	0.05243
801.03398	0.05231
799.74821	0.05214
798.46244	0.05193
797.17667	0.05165
795.89090	0.05131
794.60513	0.05091
793.31937	0.05056
792.03360	0.05033
790.74783	0.05026
789.46206	0.05029
788.17629	0.05036
786.89052	0.05044
785.60475	0.05050
784.31898	0.05048
783.03322	0.05037
781.74745	0.05021
780.46168	0.05003
779.17591	0.04984
777.89014	0.04964
776.60437	0.04946
775.31860	0.04933
774.03283	0.04930
772.74706	0.04935
771.46130	0.04944
770.17553	0.04949
768.88976	0.04954
767.60399	0.04961
766.31822	0.04969
765.03245	0.04971
763.74668	0.04962
762.46091	0.04951
761.17515	0.04946
759.88938	0.04952
758.60361	0.04964
757.31784	0.04974
756.03207	0.04979
754.74630	0.04981
753.46053	0.04985
752.17476	0.04994
750.88899	0.05003
749.60323	0.05005
748.31746	0.04997
747.03169	0.04984
745.74592	0.04971
744.46015	0.04959
743.17438	0.04947
741.88861	0.04929
740.60284	0.04906
739.31708	0.04881
738.03131	0.04862
736.74554	0.04850
735.45977	0.04840
734.17400	0.04829
732.88823	0.04817
731.60246	0.04806
730.31669	0.04796
729.03092	0.04785
727.74516	0.04776
726.45939	0.04771
725.17362	0.04772
723.88785	0.04779
722.60208	0.04760
721.31631	0.04725
720.03054	0.04690
718.74477	0.04663
717.45901	0.04651
716.17324	0.04650
714.88747	0.04653
713.60170	0.04653
712.31593	0.04649
711.03016	0.04641
709.74439	0.04632
708.45862	0.04623
707.17285	0.04614
705.88709	0.04606
704.60132	0.04601
703.31555	0.04596
702.02978	0.04590
700.74401	0.04581
699.45824	0.04566
698.17247	0.04546
696.88670	0.04522
695.60094	0.04496
694.31517	0.04471
693.02940	0.04449
691.74363	0.04430
690.45786	0.04417
689.17209	0.04409
687.88632	0.04401
686.60055	0.04389
685.31478	0.04369
684.02902	0.04346
682.74325	0.04327
681.45748	0.04316
680.17171	0.04313
678.88594	0.04315
677.60017	0.04318
676.31440	0.04319
675.02863	0.04313
673.74287	0.04286
672.45710	0.04218
671.17133	0.04133
669.88556	0.04132
668.59979	0.04251
667.31402	0.04284
666.02825	0.04215
664.74248	0.04212
663.45671	0.04240
662.17095	0.04233
660.88518	0.04196
659.59941	0.04156
658.31364	0.04125
657.02787	0.04100
655.74210	0.04073
654.45633	0.04041
653.17056	0.04005
651.88480	0.03972
650.59903	0.03949
649.31326	0.03941
648.02749	0.03943
646.74172	0.03950
645.45595	0.03955
644.17018	0.03957
642.88441	0.03959
641.59864	0.03966
640.31288	0.03981
639.02711	0.04004
637.74134	0.04031
636.45557	0.04059
635.16980	0.04086
633.88403	0.04116
632.59826	0.04152
631.31249	0.04197
630.02673	0.04250
628.74096	0.04315
627.45519	0.04407
626.16942	0.04526
624.88365	0.04692
623.59788	0.04904
622.31211	0.05126
621.02634	0.05346
619.74057	0.05600
618.45481	0.05912
617.16904	0.06251
615.88327	0.06574
614.59750	0.06893
613.31173	0.07255
612.02596	0.07717
610.74019	0.08318
609.45442	0.09045
608.16866	0.09815
606.88289	0.10526
605.59712	0.11128
604.31135	0.11603
603.02558	0.11933
601.73981	0.12095
600.45404	0.12078
599.16827	0.11909
597.88250	0.11641
596.59674	0.11329
595.31097	0.11005
594.02520	0.10690
592.73943	0.10411
591.45366	0.10198
590.16789	0.10060
588.88212	0.09988
587.59635	0.09969
586.31059	0.10002
585.02482	0.10097
583.73905	0.10259
582.45328	0.10483
581.16751	0.10754
579.88174	0.11055
578.59597	0.11365
577.31020	0.11661
576.02443	0.11930
574.73867	0.12175
573.45290	0.12409
572.16713	0.12648
570.88136	0.12915
569.59559	0.13233
568.30982	0.13624
567.02405	0.14086
565.73828	0.14594
564.45251	0.15099
563.16675	0.15541
561.88098	0.15850
560.59521	0.15971
559.30944	0.15871
558.02367	0.15563
556.73790	0.15090
555.45213	0.14505
554.16636	0.13851
552.88060	0.13164
551.59483	0.12473
550.30906	0.11806
549.02329	0.11182
547.73752	0.10615
546.45175	0.10112
545.16598	0.09668
543.88021	0.09276
542.59444	0.08922
541.30868	0.08593
540.02291	0.08282
538.73714	0.07999
537.45137	0.07751
536.16560	0.07536
534.87983	0.07337
533.59406	0.07137
532.30829	0.06928
531.02253	0.06718
529.73676	0.06522
528.45099	0.06347
527.16522	0.06189
525.87945	0.06041
524.59368	0.05902
523.30791	0.05774
522.02214	0.05663
520.73637	0.05566
519.45061	0.05472
518.16484	0.05374
516.87907	0.05269
515.59330	0.05163
514.30753	0.05065
513.02176	0.04979
511.73599	0.04908
510.45022	0.04848
509.16446	0.04789
507.87869	0.04726
506.59292	0.04656
505.30715	0.04579
504.02138	0.04496
502.73561	0.04413
501.44984	0.04334
500.16407	0.04257
498.87830	0.04181
497.59254	0.04116
496.30677	0.04071
495.02100	0.04048
493.73523	0.04034
492.44946	0.04011
491.16369	0.03975
489.87792	0.03932
488.59215	0.03893
487.30639	0.03864
486.02062	0.03848
484.73485	0.03839
483.44908	0.03834
482.16331	0.03832
480.87754	0.03828
479.59177	0.03825
478.30600	0.03825
477.02023	0.03835
475.73447	0.03856
474.44870	0.03882
473.16293	0.03904
471.87716	0.03916
470.59139	0.03914
469.30562	0.03895
468.01985	0.03862
466.73408	0.03821
465.44832	0.03785
464.16255	0.03758
462.87678	0.03741
461.59101	0.03723
460.30524	0.03694
459.01947	0.03656
457.73370	0.03613
456.44793	0.03567
455.16216	0.03513
453.87640	0.03453
452.59063	0.03397
451.30486	0.03356
450.01909	0.03332
448.73332	0.03320
447.44755	0.03311
446.16178	0.03302
444.87601	0.03290
443.59025	0.03276
442.30448	0.03261
441.01871	0.03250
439.73294	0.03245
438.44717	0.03245
437.16140	0.03242
435.87563	0.03231
434.58986	0.03211
433.30409	0.03187
432.01833	0.03166
430.73256	0.03152
429.44679	0.03143
428.16102	0.03133
426.87525	0.03120
425.58948	0.03098
424.30371	0.03069
423.01794	0.03038
421.73218	0.03012
420.44641	0.02994
419.16064	0.02985
417.87487	0.02981
416.58910	0.02978
415.30333	0.02971
414.01756	0.02962
412.73179	0.02949
411.44602	0.02936
410.16026	0.02923
408.87449	0.02915
407.58872	0.02913
406.30295	0.02918
405.01718	0.02926
403.73141	0.02936
402.44564	0.02945
401.15987	0.02950
399.87411	0.02951
