3997.45528	0.05363
3996.16951	0.05420
3994.88374	0.05480
3993.59798	0.05532
3992.31221	0.05569
3991.02644	0.05594
3989.74067	0.05610
3988.45490	0.05616
3987.16913	0.05613
3985.88336	0.05598
3984.59759	0.05571
3983.31183	0.05533
3982.02606	0.05499
3980.74029	0.05489
3979.45452	0.05514
3978.16875	0.05567
3976.88298	0.05631
3975.59721	0.05675
3974.31144	0.05670
3973.02567	0.05614
3971.73991	0.05541
3970.45414	0.05488
3969.16837	0.05452
3967.88260	0.05407
3966.59683	0.05352
3965.31106	0.05318
3964.02529	0.05327
3962.73952	0.05366
3961.45376	0.05407
3960.16799	0.05433
3958.88222	0.05439
3957.59645	0.05424
3956.31068	0.05395
3955.02491	0.05364
3953.73914	0.05347
3952.45337	0.05352
3951.16760	0.05371
3949.88184	0.05394
3948.59607	0.05418
3947.31030	0.05443
3946.02453	0.05465
3944.73876	0.05469
3943.45299	0.05457
3942.16722	0.05442
3940.88145	0.05438
3939.59569	0.05453
3938.30992	0.05487
3937.02415	0.05525
3935.73838	0.05532
3934.45261	0.05483
3933.16684	0.05395
3931.88107	0.05316
3930.59530	0.05278
3929.30953	0.05283
3928.02377	0.05310
3926.73800	0.05346
3925.45223	0.05397
3924.16646	0.05472
3922.88069	0.05550
3921.59492	0.05582
3920.30915	0.05535
3919.02338	0.05432
3917.73762	0.05341
3916.45185	0.05326
3915.16608	0.05388
3913.88031	0.05468
3912.59454	0.05509
3911.30877	0.05501
3910.02300	0.05466
3908.73723	0.05422
3907.45146	0.05385
3906.16570	0.05376
3904.87993	0.05418
3903.59416	0.05501
3902.30839	0.05567
3901.02262	0.05569
3899.73685	0.05519
3898.45108	0.05470
3897.16531	0.05447
3895.87955	0.05443
3894.59378	0.05440
3893.30801	0.05422
3892.02224	0.05403
3890.73647	0.05430
3889.45070	0.05505
3888.16493	0.05551
3886.87916	0.05520
3885.59339	0.05452
3884.30763	0.05393
3883.02186	0.05332
3881.73609	0.05250
3880.45032	0.05183
3879.16455	0.05159
3877.87878	0.05158
3876.59301	0.05165
3875.30724	0.05213
3874.02148	0.05327
3872.73571	0.05447
3871.44994	0.05501
3870.16417	0.05509
3868.87840	0.05536
3867.59263	0.05557
3866.30686	0.05522
3865.02109	0.05451
3863.73532	0.05395
3862.44956	0.05362
3861.16379	0.05344
3859.87802	0.05348
3858.59225	0.05377
3857.30648	0.05397
3856.02071	0.05372
3854.73494	0.05340
3853.44917	0.05393
3852.16341	0.05534
3850.87764	0.05654
3849.59187	0.05670
3848.30610	0.05603
3847.02033	0.05509
3845.73456	0.05422
3844.44879	0.05350
3843.16302	0.05299
3841.87725	0.05257
3840.59149	0.05195
3839.30572	0.05117
3838.01995	0.05081
3836.73418	0.05125
3835.44841	0.05204
3834.16264	0.05247
3832.87687	0.05248
3831.59110	0.05251
3830.30534	0.05277
3829.01957	0.05311
3827.73380	0.05335
3826.44803	0.05351
3825.16226	0.05347
3823.87649	0.05294
3822.59072	0.05218
3821.30495	0.05208
3820.01918	0.05282
3818.73342	0.05332
3817.44765	0.05276
3816.16188	0.05184
3814.87611	0.05157
3813.59034	0.05183
3812.30457	0.05217
3811.01880	0.05255
3809.73303	0.05267
3808.44726	0.05208
3807.16150	0.05109
3805.87573	0.05032
3804.58996	0.04956
3803.30419	0.04840
3802.01842	0.04761
3800.73265	0.04837
3799.44688	0.05040
3798.16111	0.05226
3796.87535	0.05319
3795.58958	0.05337
3794.30381	0.05302
3793.01804	0.05237
3791.73227	0.05186
3790.44650	0.05184
3789.16073	0.05213
3787.87496	0.05227
3786.58919	0.05198
3785.30343	0.05147
3784.01766	0.05123
3782.73189	0.05141
3781.44612	0.05161
3780.16035	0.05146
3778.87458	0.05102
3777.58881	0.05057
3776.30304	0.05031
3775.01728	0.05025
3773.73151	0.05028
3772.44574	0.05016
3771.15997	0.04981
3769.87420	0.04944
3768.58843	0.04920
3767.30266	0.04893
3766.01689	0.04862
3764.73112	0.04864
3763.44536	0.04917
3762.15959	0.05001
3760.87382	0.05079
3759.58805	0.05125
3758.30228	0.05133
3757.01651	0.05123
3755.73074	0.05113
3754.44497	0.05087
3753.15921	0.05035
3751.87344	0.04981
3750.58767	0.04966
3749.30190	0.05019
3748.01613	0.05105
3746.73036	0.05116
3745.44459	0.05028
3744.15882	0.04966
3742.87305	0.04991
3741.58729	0.05022
3740.30152	0.05002
3739.01575	0.04952
3737.72998	0.04898
3736.44421	0.04862
3735.15844	0.04857
3733.87267	0.04865
3732.58690	0.04872
3731.30114	0.04893
3730.01537	0.04919
3728.72960	0.04915
3727.44383	0.04897
3726.15806	0.04912
3724.87229	0.04955
3723.58652	0.04978
3722.30075	0.04965
3721.01498	0.04937
3719.72922	0.04915
3718.44345	0.04894
3717.15768	0.04868
3715.87191	0.04833
3714.58614	0.04789
3713.30037	0.04754
3712.01460	0.04737
3710.72883	0.04724
3709.44307	0.04690
3708.15730	0.04648
3706.87153	0.04635
3705.58576	0.04656
3704.29999	0.04683
3703.01422	0.04695
3701.72845	0.04698
3700.44268	0.04704
3699.15691	0.04694
3697.87115	0.04653
3696.58538	0.04610
3695.29961	0.04616
3694.01384	0.04676
3692.72807	0.04749
3691.44230	0.04779
3690.15653	0.04748
3688.87076	0.04717
3687.58500	0.04746
3686.29923	0.04800
3685.01346	0.04798
3683.72769	0.04735
3682.44192	0.04669
3681.15615	0.04654
3679.87038	0.04700
3678.58461	0.04764
3677.29884	0.04792
3676.01308	0.04801
3674.72731	0.04838
3673.44154	0.04871
3672.15577	0.04838
3670.87000	0.04784
3669.58423	0.04805
3668.29846	0.04892
3667.01269	0.04969
3665.72693	0.04999
3664.44116	0.04985
3663.15539	0.04938
3661.86962	0.04885
3660.58385	0.04870
3659.29808	0.04900
3658.01231	0.04933
3656.72654	0.04940
3655.44077	0.04942
3654.15501	0.04956
3652.86924	0.04968
3651.58347	0.04979
3650.29770	0.05022
3649.01193	0.05113
3647.72616	0.05216
3646.44039	0.05267
3645.15462	0.05232
3643.86886	0.05133
3642.58309	0.05036
3641.29732	0.04998
3640.01155	0.05027
3638.72578	0.05093
3637.44001	0.05155
3636.15424	0.05194
3634.86847	0.05222
3633.58270	0.05265
3632.29694	0.05321
3631.01117	0.05355
3629.72540	0.05371
3628.43963	0.05417
3627.15386	0.05499
3625.86809	0.05562
3624.58232	0.05585
3623.29655	0.05592
3622.01079	0.05596
3620.72502	0.05599
3619.43925	0.05616
3618.15348	0.05651
3616.86771	0.05675
3615.58194	0.05671
3614.29617	0.05665
3613.01040	0.05694
3611.72463	0.05750
3610.43887	0.05789
3609.15310	0.05798
3607.86733	0.05797
3606.58156	0.05802
3605.29579	0.05798
3604.01002	0.05771
3602.72425	0.05724
3601.43848	0.05687
3600.15272	0.05694
3598.86695	0.05742
3597.58118	0.05801
3596.29541	0.05852
3595.00964	0.05903
3593.72387	0.05958
3592.43810	0.05999
3591.15233	0.06016
3589.86656	0.06030
3588.58080	0.06074
3587.29503	0.06141
3586.00926	0.06184
3584.72349	0.06167
3583.43772	0.06112
3582.15195	0.06071
3580.86618	0.06074
3579.58041	0.06118
3578.29464	0.06190
3577.00888	0.06284
3575.72311	0.06387
3574.43734	0.06472
3573.15157	0.06515
3571.86580	0.06513
3570.58003	0.06494
3569.29426	0.06494
3568.00849	0.06530
3566.72273	0.06584
3565.43696	0.06620
3564.15119	0.06623
3562.86542	0.06612
3561.57965	0.06616
3560.29388	0.06645
3559.00811	0.06681
3557.72234	0.06702
3556.43657	0.06705
3555.15081	0.06715
3553.86504	0.06756
3552.57927	0.06807
3551.29350	0.06820
3550.00773	0.06776
3548.72196	0.06715
3547.43619	0.06701
3546.15042	0.06765
3544.86466	0.06879
3543.57889	0.06998
3542.29312	0.07085
3541.00735	0.07125
3539.72158	0.07122
3538.43581	0.07102
3537.15004	0.07091
3535.86427	0.07101
3534.57850	0.07120
3533.29274	0.07134
3532.00697	0.07135
3530.72120	0.07124
3529.43543	0.07116
3528.14966	0.07131
3526.86389	0.07181
3525.57812	0.07249
3524.29235	0.07315
3523.00659	0.07369
3521.72082	0.07414
3520.43505	0.07451
3519.14928	0.07473
3517.86351	0.07484
3516.57774	0.07502
3515.29197	0.07536
3514.00620	0.07578
3512.72043	0.07608
3511.43467	0.07616
3510.14890	0.07612
3508.86313	0.07604
3507.57736	0.07590
3506.29159	0.07561
3505.00582	0.07523
3503.72005	0.07501
3502.43428	0.07520
3501.14852	0.07588
3499.86275	0.07690
3498.57698	0.07790
3497.29121	0.07835
3496.00544	0.07806
3494.71967	0.07743
3493.43390	0.07720
3492.14813	0.07778
3490.86236	0.07891
3489.57660	0.08002
3488.29083	0.08074
3487.00506	0.08101
3485.71929	0.08082
3484.43352	0.08026
3483.14775	0.07959
3481.86198	0.07919
3480.57621	0.07921
3479.29045	0.07946
3478.00468	0.07975
3476.71891	0.08002
3475.43314	0.08036
3474.14737	0.08076
3472.86160	0.08103
3471.57583	0.08099
3470.29006	0.08066
3469.00429	0.08035
3467.71853	0.08036
3466.43276	0.08074
3465.14699	0.08129
3463.86122	0.08176
3462.57545	0.08211
3461.28968	0.08241
3460.00391	0.08279
3458.71814	0.08334
3457.43238	0.08402
3456.14661	0.08453
3454.86084	0.08452
3453.57507	0.08388
3452.28930	0.08304
3451.00353	0.08266
3449.71776	0.08310
3448.43199	0.08415
3447.14622	0.08528
3445.86046	0.08600
3444.57469	0.08614
3443.28892	0.08582
3442.00315	0.08539
3440.71738	0.08511
3439.43161	0.08511
3438.14584	0.08534
3436.86007	0.08560
3435.57431	0.08578
3434.28854	0.08591
3433.00277	0.08609
3431.71700	0.08635
3430.43123	0.08663
3429.14546	0.08685
3427.85969	0.08699
3426.57392	0.08704
3425.28815	0.08709
3424.00239	0.08726
3422.71662	0.08760
3421.43085	0.08801
3420.14508	0.08829
3418.85931	0.08827
3417.57354	0.08789
3416.28777	0.08725
3415.00200	0.08664
3413.71624	0.08636
3412.43047	0.08655
3411.14470	0.08716
3409.85893	0.08798
3408.57316	0.08873
3407.28739	0.08919
3406.00162	0.08928
3404.71585	0.08914
3403.43008	0.08902
3402.14432	0.08906
3400.85855	0.08929
3399.57278	0.08963
3398.28701	0.08993
3397.00124	0.09006
3395.71547	0.09000
3394.42970	0.08996
3393.14393	0.09012
3391.85817	0.09045
3390.57240	0.09069
3389.28663	0.09065
3388.00086	0.09041
3386.71509	0.09023
3385.42932	0.09034
3384.14355	0.09081
3382.85778	0.09151
3381.57201	0.09219
3380.28625	0.09261
3379.00048	0.09275
3377.71471	0.09274
3376.42894	0.09274
3375.14317	0.09271
3373.85740	0.09250
3372.57163	0.09211
3371.28586	0.09174
3370.00010	0.09165
3368.71433	0.09192
3367.42856	0.09238
3366.14279	0.09273
3364.85702	0.09278
3363.57125	0.09259
3362.28548	0.09237
3360.99971	0.09228
3359.71394	0.09234
3358.42818	0.09246
3357.14241	0.09256
3355.85664	0.09257
3354.57087	0.09254
3353.28510	0.09258
3351.99933	0.09285
3350.71356	0.09331
3349.42779	0.09376
3348.14202	0.09397
3346.85626	0.09379
3345.57049	0.09320
3344.28472	0.09232
3342.99895	0.09147
3341.71318	0.09096
3340.42741	0.09091
3339.14164	0.09117
3337.85587	0.09146
3336.57011	0.09165
3335.28434	0.09179
3333.99857	0.09203
3332.71280	0.09250
3331.42703	0.09313
3330.14126	0.09370
3328.85549	0.09399
3327.56972	0.09393
3326.28395	0.09359
3324.99819	0.09312
3323.71242	0.09263
3322.42665	0.09223
3321.14088	0.09210
3319.85511	0.09231
3318.56934	0.09273
3317.28357	0.09317
3315.99780	0.09354
3314.71204	0.09387
3313.42627	0.09420
3312.14050	0.09446
3310.85473	0.09455
3309.56896	0.09444
3308.28319	0.09413
3306.99742	0.09366
3305.71165	0.09313
3304.42588	0.09268
3303.14012	0.09244
3301.85435	0.09242
3300.56858	0.09253
3299.28281	0.09268
3297.99704	0.09287
3296.71127	0.09306
3295.42550	0.09315
3294.13973	0.09302
3292.85397	0.09272
3291.56820	0.09245
3290.28243	0.09238
3288.99666	0.09247
3287.71089	0.09250
3286.42512	0.09236
3285.13935	0.09209
3283.85358	0.09185
3282.56781	0.09163
3281.28205	0.09135
3279.99628	0.09101
3278.71051	0.09070
3277.42474	0.09053
3276.13897	0.09054
3274.85320	0.09070
3273.56743	0.09100
3272.28166	0.09135
3270.99590	0.09158
3269.71013	0.09154
3268.42436	0.09121
3267.13859	0.09078
3265.85282	0.09051
3264.56705	0.09056
3263.28128	0.09085
3261.99551	0.09114
3260.70974	0.09123
3259.42398	0.09119
3258.13821	0.09114
3256.85244	0.09111
3255.56667	0.09095
3254.28090	0.09056
3252.99513	0.09010
3251.70936	0.08990
3250.42359	0.09012
3249.13783	0.09060
3247.85206	0.09103
3246.56629	0.09121
3245.28052	0.09114
3243.99475	0.09097
3242.70898	0.09075
3241.42321	0.09048
3240.13744	0.09018
3238.85167	0.08989
3237.56591	0.08970
3236.28014	0.08967
3234.99437	0.08975
3233.70860	0.08981
3232.42283	0.08972
3231.13706	0.08943
3229.85129	0.08903
3228.56552	0.08870
3227.27976	0.08848
3225.99399	0.08834
3224.70822	0.08823
3223.42245	0.08821
3222.13668	0.08836
3220.85091	0.08864
3219.56514	0.08883
3218.27937	0.08876
3216.99360	0.08843
3215.70784	0.08804
3214.42207	0.08786
3213.13630	0.08797
3211.85053	0.08823
3210.56476	0.08841
3209.27899	0.08839
3207.99322	0.08826
3206.70745	0.08817
3205.42169	0.08822
3204.13592	0.08840
3202.85015	0.08864
3201.56438	0.08882
3200.27861	0.08879
3198.99284	0.08837
3197.70707	0.08763
3196.42130	0.08682
3195.13553	0.08620
3193.84977	0.08583
3192.56400	0.08570
3191.27823	0.08584
3189.99246	0.08635
3188.70669	0.08710
3187.42092	0.08772
3186.13515	0.08785
3184.84938	0.08750
3183.56362	0.08697
3182.27785	0.08660
3180.99208	0.08644
3179.70631	0.08630
3178.42054	0.08603
3177.13477	0.08563
3175.84900	0.08518
3174.56323	0.08478
3173.27746	0.08453
3171.99170	0.08454
3170.70593	0.08481
3169.42016	0.08515
3168.13439	0.08530
3166.84862	0.08511
3165.56285	0.08466
3164.27708	0.08408
3162.99131	0.08356
3161.70555	0.08329
3160.41978	0.08332
3159.13401	0.08348
3157.84824	0.08350
3156.56247	0.08333
3155.27670	0.08315
3153.99093	0.08310
3152.70516	0.08316
3151.41939	0.08320
3150.13363	0.08316
3148.84786	0.08300
3147.56209	0.08271
3146.27632	0.08233
3144.99055	0.08194
3143.70478	0.08163
3142.41901	0.08142
3141.13324	0.08131
3139.84748	0.08131
3138.56171	0.08148
3137.27594	0.08174
3135.99017	0.08188
3134.70440	0.08168
3133.41863	0.08118
3132.13286	0.08065
3130.84709	0.08034
3129.56132	0.08028
3128.27556	0.08034
3126.98979	0.08032
3125.70402	0.08011
3124.41825	0.07978
3123.13248	0.07957
3121.84671	0.07969
3120.56094	0.08007
3119.27517	0.08047
3117.98940	0.08068
3116.70364	0.08069
3115.41787	0.08059
3114.13210	0.08041
3112.84633	0.08013
3111.56056	0.07978
3110.27479	0.07948
3108.98902	0.07928
3107.70325	0.07915
3106.41749	0.07905
3105.13172	0.07906
3103.84595	0.07924
3102.56018	0.07949
3101.27441	0.07959
3099.98864	0.07933
3098.70287	0.07872
3097.41710	0.07803
3096.13133	0.07760
3094.84557	0.07754
3093.55980	0.07764
3092.27403	0.07762
3090.98826	0.07739
3089.70249	0.07714
3088.41672	0.07706
3087.13095	0.07715
3085.84518	0.07725
3084.55942	0.07728
3083.27365	0.07733
3081.98788	0.07748
3080.70211	0.07769
3079.41634	0.07780
3078.13057	0.07774
3076.84480	0.07760
3075.55903	0.07752
3074.27326	0.07757
3072.98750	0.07768
3071.70173	0.07776
3070.41596	0.07769
3069.13019	0.07739
3067.84442	0.07689
3066.55865	0.07634
3065.27288	0.07601
3063.98711	0.07602
3062.70135	0.07623
3061.41558	0.07642
3060.12981	0.07647
3058.84404	0.07648
3057.55827	0.07653
3056.27250	0.07653
3054.98673	0.07631
3053.70096	0.07583
3052.41519	0.07530
3051.12943	0.07495
3049.84366	0.07480
3048.55789	0.07469
3047.27212	0.07453
3045.98635	0.07437
3044.70058	0.07424
3043.41481	0.07404
3042.12904	0.07369
3040.84328	0.07327
3039.55751	0.07293
3038.27174	0.07278
3036.98597	0.07277
3035.70020	0.07278
3034.41443	0.07271
3033.12866	0.07255
3031.84289	0.07237
3030.55712	0.07223
3029.27136	0.07221
3027.98559	0.07233
3026.69982	0.07251
3025.41405	0.07260
3024.12828	0.07252
3022.84251	0.07230
3021.55674	0.07203
3020.27097	0.07175
3018.98521	0.07144
3017.69944	0.07115
3016.41367	0.07097
3015.12790	0.07098
3013.84213	0.07113
3012.55636	0.07124
3011.27059	0.07114
3009.98482	0.07083
3008.69905	0.07057
3007.41329	0.07058
3006.12752	0.07090
3004.84175	0.07128
3003.55598	0.07148
3002.27021	0.07141
3000.98444	0.07116
2999.69867	0.07080
2998.41290	0.07043
2997.12714	0.07008
2995.84137	0.06975
2994.55560	0.06948
2993.26983	0.06939
2991.98406	0.06954
2990.69829	0.06983
2989.41252	0.07008
2988.12675	0.07026
2986.84098	0.07046
2985.55522	0.07075
2984.26945	0.07113
2982.98368	0.07157
2981.69791	0.07213
2980.41214	0.07283
2979.12637	0.07352
2977.84060	0.07410
2976.55483	0.07463
2975.26907	0.07529
2973.98330	0.07622
2972.69753	0.07738
2971.41176	0.07857
2970.12599	0.07960
2968.84022	0.08043
2967.55445	0.08124
2966.26868	0.08230
2964.98291	0.08365
2963.69715	0.08515
2962.41138	0.08655
2961.12561	0.08774
2959.83984	0.08874
2958.55407	0.08966
2957.26830	0.09061
2955.98253	0.09159
2954.69676	0.09256
2953.41100	0.09344
2952.12523	0.09420
2950.83946	0.09476
2949.55369	0.09495
2948.26792	0.09474
2946.98215	0.09433
2945.69638	0.09391
2944.41061	0.09356
2943.12484	0.09325
2941.83908	0.09308
2940.55331	0.09325
2939.26754	0.09386
2937.98177	0.09476
2936.69600	0.09580
2935.41023	0.09694
2934.12446	0.09818
2932.83869	0.09947
2931.55293	0.10070
2930.26716	0.10183
2928.98139	0.10286
2927.69562	0.10379
2926.40985	0.10449
2925.12408	0.10487
2923.83831	0.10484
2922.55254	0.10447
2921.26677	0.10393
2919.98101	0.10336
2918.69524	0.10283
2917.40947	0.10228
2916.12370	0.10158
2914.83793	0.10073
2913.55216	0.09979
2912.26639	0.09890
2910.98062	0.09807
2909.69486	0.09723
2908.40909	0.09633
2907.12332	0.09542
2905.83755	0.09455
2904.55178	0.09370
2903.26601	0.09282
2901.98024	0.09190
2900.69447	0.09096
2899.40870	0.09001
2898.12294	0.08910
2896.83717	0.08833
2895.55140	0.08780
2894.26563	0.08739
2892.97986	0.08687
2891.69409	0.08605
2890.40832	0.08504
2889.12255	0.08409
2887.83678	0.08343
2886.55102	0.08303
2885.26525	0.08274
2883.97948	0.08244
2882.69371	0.08215
2881.40794	0.08196
2880.12217	0.08189
2878.83640	0.08196
2877.55063	0.08215
2876.26487	0.08241
2874.97910	0.08270
2873.69333	0.08304
2872.40756	0.08351
2871.12179	0.08419
2869.83602	0.08497
2868.55025	0.08562
2867.26448	0.08593
2865.97871	0.08588
2864.69295	0.08565
2863.40718	0.08541
2862.12141	0.08526
2860.83564	0.08519
2859.54987	0.08519
2858.26410	0.08520
2856.97833	0.08511
2855.69256	0.08483
2854.40680	0.08439
2853.12103	0.08382
2851.83526	0.08314
2850.54949	0.08237
2849.26372	0.08161
2847.97795	0.08093
2846.69218	0.08023
2845.40641	0.07935
2844.12064	0.07828
2842.83488	0.07725
2841.54911	0.07643
2840.26334	0.07576
2838.97757	0.07501
2837.69180	0.07405
2836.40603	0.07289
2835.12026	0.07163
2833.83449	0.07036
2832.54873	0.06922
2831.26296	0.06836
2829.97719	0.06779
2828.69142	0.06737
2827.40565	0.06695
2826.11988	0.06652
2824.83411	0.06616
2823.54834	0.06587
2822.26257	0.06557
2820.97681	0.06514
2819.69104	0.06460
2818.40527	0.06401
2817.11950	0.06344
2815.83373	0.06293
2814.54796	0.06254
2813.26219	0.06229
2811.97642	0.06219
2810.69066	0.06215
2809.40489	0.06205
2808.11912	0.06179
2806.83335	0.06135
2805.54758	0.06087
2804.26181	0.06060
2802.97604	0.06056
2801.69027	0.06057
2800.40450	0.06042
2799.11874	0.06016
2797.83297	0.05995
2796.54720	0.05988
2795.26143	0.05988
2793.97566	0.05982
2792.68989	0.05962
2791.40412	0.05923
2790.11835	0.05873
2788.83259	0.05830
2787.54682	0.05813
2786.26105	0.05824
2784.97528	0.05844
2783.68951	0.05855
2782.40374	0.05849
2781.11797	0.05828
2779.83220	0.05799
2778.54643	0.05769
2777.26067	0.05745
2775.97490	0.05736
2774.68913	0.05738
2773.40336	0.05744
2772.11759	0.05749
2770.83182	0.05753
2769.54605	0.05753
2768.26028	0.05740
2766.97452	0.05713
2765.68875	0.05683
2764.40298	0.05662
2763.11721	0.05652
2761.83144	0.05647
2760.54567	0.05639
2759.25990	0.05625
2757.97413	0.05608
2756.68836	0.05592
2755.40260	0.05579
2754.11683	0.05570
2752.83106	0.05563
2751.54529	0.05554
2750.25952	0.05546
2748.97375	0.05540
2747.68798	0.05535
2746.40221	0.05527
2745.11645	0.05511
2743.83068	0.05493
2742.54491	0.05485
2741.25914	0.05488
2739.97337	0.05493
2738.68760	0.05490
2737.40183	0.05482
2736.11606	0.05480
2734.83029	0.05487
2733.54453	0.05492
2732.25876	0.05485
2730.97299	0.05473
2729.68722	0.05471
2728.40145	0.05482
2727.11568	0.05489
2725.82991	0.05474
2724.54414	0.05439
2723.25838	0.05403
2721.97261	0.05373
2720.68684	0.05346
2719.40107	0.05317
2718.11530	0.05293
2716.82953	0.05279
2715.54376	0.05272
2714.25799	0.05266
2712.97222	0.05260
2711.68646	0.05258
2710.40069	0.05262
2709.11492	0.05266
2707.82915	0.05260
2706.54338	0.05242
2705.25761	0.05223
2703.97184	0.05216
2702.68607	0.05229
2701.40031	0.05253
2700.11454	0.05270
2698.82877	0.05269
2697.54300	0.05253
2696.25723	0.05232
2694.97146	0.05208
2693.68569	0.05177
2692.39992	0.05142
2691.11415	0.05114
2689.82839	0.05106
2688.54262	0.05117
2687.25685	0.05138
2685.97108	0.05155
2684.68531	0.05163
2683.39954	0.05162
2682.11377	0.05154
2680.82800	0.05140
2679.54224	0.05121
2678.25647	0.05102
2676.97070	0.05091
2675.68493	0.05091
2674.39916	0.05094
2673.11339	0.05095
2671.82762	0.05093
2670.54185	0.05088
2669.25608	0.05080
2667.97032	0.05066
2666.68455	0.05054
2665.39878	0.05053
2664.11301	0.05063
2662.82724	0.05072
2661.54147	0.05068
2660.25570	0.05055
2658.96993	0.05044
2657.68417	0.05039
2656.39840	0.05028
2655.11263	0.05002
2653.82686	0.04962
2652.54109	0.04916
2651.25532	0.04877
2649.96955	0.04851
2648.68378	0.04848
2647.39801	0.04864
2646.11225	0.04885
2644.82648	0.04892
2643.54071	0.04876
2642.25494	0.04844
2640.96917	0.04813
2639.68340	0.04794
2638.39763	0.04779
2637.11186	0.04751
2635.82609	0.04704
2634.54033	0.04652
2633.25456	0.04613
2631.96879	0.04596
2630.68302	0.04594
2629.39725	0.04593
2628.11148	0.04586
2626.82571	0.04572
2625.53994	0.04557
2624.25418	0.04544
2622.96841	0.04535
2621.68264	0.04528
2620.39687	0.04518
2619.11110	0.04507
2617.82533	0.04496
2616.53956	0.04487
2615.25379	0.04476
2613.96802	0.04456
2612.68226	0.04424
2611.39649	0.04387
2610.11072	0.04360
2608.82495	0.04347
2607.53918	0.04339
2606.25341	0.04326
2604.96764	0.04309
2603.68187	0.04295
2602.39611	0.04286
2601.11034	0.04283
2599.82457	0.04287
2598.53880	0.04299
2597.25303	0.04310
2595.96726	0.04307
2594.68149	0.04288
2593.39572	0.04261
2592.10995	0.04233
2590.82419	0.04208
2589.53842	0.04188
2588.25265	0.04176
2586.96688	0.04171
2585.68111	0.04162
2584.39534	0.04133
2583.10957	0.04077
2581.82380	0.04009
2580.53804	0.03961
2579.25227	0.03958
2577.96650	0.03999
2576.68073	0.04050
2575.39496	0.04085
2574.10919	0.04092
2572.82342	0.04074
2571.53765	0.04038
2570.25188	0.03993
2568.96612	0.03955
2567.68035	0.03931
2566.39458	0.03913
2565.10881	0.03898
2563.82304	0.03899
2562.53727	0.03927
2561.25150	0.03967
2559.96573	0.03976
2558.67997	0.03940
2557.39420	0.03887
2556.10843	0.03864
2554.82266	0.03882
2553.53689	0.03919
2552.25112	0.03942
2550.96535	0.03940
2549.67958	0.03927
2548.39381	0.03927
2547.10805	0.03946
2545.82228	0.03968
2544.53651	0.03967
2543.25074	0.03934
2541.96497	0.03888
2540.67920	0.03858
2539.39343	0.03864
2538.10766	0.03889
2536.82190	0.03900
2535.53613	0.03878
2534.25036	0.03834
2532.96459	0.03795
2531.67882	0.03777
2530.39305	0.03777
2529.10728	0.03778
2527.82151	0.03771
2526.53574	0.03767
2525.24998	0.03786
2523.96421	0.03827
2522.67844	0.03860
2521.39267	0.03859
2520.10690	0.03823
2518.82113	0.03776
2517.53536	0.03746
2516.24959	0.03743
2514.96383	0.03759
2513.67806	0.03784
2512.39229	0.03800
2511.10652	0.03792
2509.82075	0.03754
2508.53498	0.03705
2507.24921	0.03672
2505.96344	0.03669
2504.67767	0.03688
2503.39191	0.03718
2502.10614	0.03746
2500.82037	0.03755
2499.53460	0.03732
2498.24883	0.03683
2496.96306	0.03631
2495.67729	0.03601
2494.39152	0.03605
2493.10576	0.03643
2491.81999	0.03699
2490.53422	0.03745
2489.24845	0.03757
2487.96268	0.03731
2486.67691	0.03693
2485.39114	0.03667
2484.10537	0.03669
2482.81960	0.03689
2481.53384	0.03710
2480.24807	0.03718
2478.96230	0.03719
2477.67653	0.03723
2476.39076	0.03731
2475.10499	0.03723
2473.81922	0.03688
2472.53345	0.03640
2471.24769	0.03606
2469.96192	0.03591
2468.67615	0.03580
2467.39038	0.03568
2466.10461	0.03563
2464.81884	0.03566
2463.53307	0.03569
2462.24730	0.03569
2460.96153	0.03585
2459.67577	0.03627
2458.39000	0.03671
2457.10423	0.03679
2455.81846	0.03635
2454.53269	0.03572
2453.24692	0.03537
2451.96115	0.03547
2450.67538	0.03576
2449.38962	0.03596
2448.10385	0.03605
2446.81808	0.03620
2445.53231	0.03639
2444.24654	0.03647
2442.96077	0.03628
2441.67500	0.03585
2440.38923	0.03532
2439.10346	0.03480
2437.81770	0.03440
2436.53193	0.03423
2435.24616	0.03435
2433.96039	0.03470
2432.67462	0.03505
2431.38885	0.03523
2430.10308	0.03524
2428.81731	0.03515
2427.53155	0.03494
2426.24578	0.03464
2424.96001	0.03431
2423.67424	0.03407
2422.38847	0.03403
2421.10270	0.03415
2419.81693	0.03428
2418.53116	0.03425
2417.24539	0.03414
2415.95963	0.03415
2414.67386	0.03432
2413.38809	0.03444
2412.10232	0.03436
2410.81655	0.03417
2409.53078	0.03415
2408.24501	0.03441
2406.95924	0.03477
2405.67347	0.03501
2404.38771	0.03503
2403.10194	0.03494
2401.81617	0.03483
2400.53040	0.03474
2399.24463	0.03462
2397.95886	0.03458
2396.67309	0.03462
2395.38732	0.03466
2394.10156	0.03458
2392.81579	0.03438
2391.53002	0.03422
2390.24425	0.03424
2388.95848	0.03439
2387.67271	0.03453
2386.38694	0.03454
2385.10117	0.03441
2383.81540	0.03422
2382.52964	0.03403
2381.24387	0.03390
2379.95810	0.03386
2378.67233	0.03392
2377.38656	0.03404
2376.10079	0.03416
2374.81502	0.03422
2373.52925	0.03419
2372.24349	0.03407
2370.95772	0.03391
2369.67195	0.03373
2368.38618	0.03356
2367.10041	0.03341
2365.81464	0.03333
2364.52887	0.03338
2363.24310	0.03358
2361.95733	0.03389
2360.67157	0.03421
2359.38580	0.03449
2358.10003	0.03476
2356.81426	0.03504
2355.52849	0.03525
2354.24272	0.03531
2352.95695	0.03524
2351.67118	0.03514
2350.38542	0.03507
2349.09965	0.03502
2347.81388	0.03494
2346.52811	0.03489
2345.24234	0.03492
2343.95657	0.03501
2342.67080	0.03506
2341.38503	0.03497
2340.09926	0.03472
2338.81350	0.03438
2337.52773	0.03409
2336.24196	0.03395
2334.95619	0.03399
2333.67042	0.03413
2332.38465	0.03426
2331.09888	0.03432
2329.81311	0.03434
2328.52735	0.03442
2327.24158	0.03466
2325.95581	0.03501
2324.67004	0.03527
2323.38427	0.03526
2322.09850	0.03500
2320.81273	0.03468
2319.52696	0.03447
2318.24119	0.03437
2316.95543	0.03432
2315.66966	0.03422
2314.38389	0.03406
2313.09812	0.03390
2311.81235	0.03378
2310.52658	0.03369
2309.24081	0.03352
2307.95504	0.03319
2306.66928	0.03275
2305.38351	0.03235
2304.09774	0.03219
2302.81197	0.03237
2301.52620	0.03277
2300.24043	0.03304
2298.95466	0.03286
2297.66889	0.03231
2296.38312	0.03178
2295.09736	0.03163
2293.81159	0.03187
2292.52582	0.03221
2291.24005	0.03244
2289.95428	0.03246
2288.66851	0.03224
2287.38274	0.03175
2286.09697	0.03111
2284.81121	0.03055
2283.52544	0.03025
2282.23967	0.03016
2280.95390	0.03011
2279.66813	0.02993
2278.38236	0.02965
2277.09659	0.02939
2275.81082	0.02926
2274.52505	0.02925
2273.23929	0.02928
2271.95352	0.02927
2270.66775	0.02917
2269.38198	0.02892
2268.09621	0.02849
2266.81044	0.02790
2265.52467	0.02719
2264.23890	0.02645
2262.95314	0.02590
2261.66737	0.02581
2260.38160	0.02628
2259.09583	0.02704
2257.81006	0.02760
2256.52429	0.02760
2255.23852	0.02713
2253.95275	0.02656
2252.66698	0.02620
2251.38122	0.02596
2250.09545	0.02563
2248.80968	0.02520
2247.52391	0.02470
2246.23814	0.02459
2244.95237	0.02483
2243.66660	0.02510
2242.38083	0.02514
2241.09507	0.02499
2239.80930	0.02489
2238.52353	0.02490
2237.23776	0.02480
2235.95199	0.02431
2234.66622	0.02352
2233.38045	0.02290
2232.09468	0.02282
2230.80891	0.02313
2229.52315	0.02339
2228.23738	0.02335
2226.95161	0.02325
2225.66584	0.02332
2224.38007	0.02338
2223.09430	0.02306
2221.80853	0.02236
2220.52276	0.02179
2219.23700	0.02181
2217.95123	0.02233
2216.66546	0.02276
2215.37969	0.02269
2214.09392	0.02227
2212.80815	0.02187
2211.52238	0.02150
2210.23661	0.02082
2208.95084	0.01979
2207.66508	0.01887
2206.37931	0.01860
2205.09354	0.01890
2203.80777	0.01912
2202.52200	0.01880
2201.23623	0.01814
2199.95046	0.01773
2198.66469	0.01793
2197.37893	0.01855
2196.09316	0.01910
2194.80739	0.01920
2193.52162	0.01886
2192.23585	0.01838
2190.95008	0.01806
2189.66431	0.01796
2188.37854	0.01790
2187.09277	0.01776
2185.80701	0.01761
2184.52124	0.01745
2183.23547	0.01717
2181.94970	0.01683
2180.66393	0.01683
2179.37816	0.01736
2178.09239	0.01787
2176.80662	0.01759
2175.52085	0.01651
2174.23509	0.01554
2172.94932	0.01540
2171.66355	0.01570
2170.37778	0.01555
2169.09201	0.01466
2167.80624	0.01357
2166.52047	0.01297
2165.23470	0.01321
2163.94894	0.01408
2162.66317	0.01483
2161.37740	0.01447
2160.09163	0.01273
2158.80586	0.01064
2157.52009	0.00957
2156.23432	0.00980
2154.94855	0.01059
2153.66278	0.01120
2152.37702	0.01144
2151.09125	0.01146
2149.80548	0.01140
2148.51971	0.01137
2147.23394	0.01144
2145.94817	0.01166
2144.66240	0.01205
2143.37663	0.01267
2142.09087	0.01354
2140.80510	0.01456
2139.51933	0.01547
2138.23356	0.01600
2136.94779	0.01615
2135.66202	0.01614
2134.37625	0.01613
2133.09048	0.01612
2131.80471	0.01609
2130.51895	0.01613
2129.23318	0.01639
2127.94741	0.01687
2126.66164	0.01744
2125.37587	0.01800
2124.09010	0.01858
2122.80433	0.01911
2121.51856	0.01947
2120.23280	0.01957
2118.94703	0.01945
2117.66126	0.01924
2116.37549	0.01909
2115.08972	0.01906
2113.80395	0.01910
2112.51818	0.01918
2111.23241	0.01938
2109.94664	0.01973
2108.66088	0.02005
2107.37511	0.01993
2106.08934	0.01932
2104.80357	0.01865
2103.51780	0.01840
2102.23203	0.01857
2100.94626	0.01871
2099.66049	0.01946
2098.37473	0.01919
2097.08896	0.01832
2095.80319	0.01768
2094.51742	0.01748
2093.23165	0.01754
2091.94588	0.01771
2090.66011	0.01792
2089.37434	0.01818
2088.08857	0.01843
2086.80281	0.01857
2085.51704	0.01855
2084.23127	0.01842
2082.94550	0.01829
2081.65973	0.01825
2080.37396	0.01831
2079.08819	0.01838
2077.80242	0.01837
2076.51666	0.01831
2075.23089	0.01819
2073.94512	0.01804
2072.65935	0.01789
2071.37358	0.01784
2070.08781	0.01792
2068.80204	0.01795
2067.51627	0.01765
2066.23050	0.01688
2064.94474	0.01585
2063.65897	0.01497
2062.37320	0.01463
2061.08743	0.01484
2059.80166	0.01534
2058.51589	0.01573
2057.23012	0.01572
2055.94435	0.01522
2054.65859	0.01447
2053.37282	0.01391
2052.08705	0.01379
2050.80128	0.01396
2049.51551	0.01397
2048.22974	0.01352
2046.94397	0.01267
2045.65820	0.01177
2044.37243	0.01111
2043.08667	0.01066
2041.80090	0.01009
2040.51513	0.00921
2039.22936	0.00829
2037.94359	0.00787
2036.65782	0.00816
2035.37205	0.00882
2034.08628	0.00941
2032.80052	0.00980
2031.51475	0.01018
2030.22898	0.01071
2028.94321	0.01143
2027.65744	0.01219
2026.37167	0.01266
2025.08590	0.01241
2023.80013	0.01140
2022.51436	0.01023
2021.22860	0.00980
2019.94283	0.01046
2018.65706	0.01169
2017.37129	0.01258
2016.08552	0.01260
2014.79975	0.01195
2013.51398	0.01124
2012.22821	0.01100
2010.94245	0.01147
2009.65668	0.01252
2008.37091	0.01360
2007.08514	0.01400
2005.79937	0.01342
2004.51360	0.01229
2003.22783	0.01139
2001.94206	0.01109
2000.65629	0.01112
1999.37053	0.01103
1998.08476	0.01079
1996.79899	0.01080
1995.51322	0.01148
1994.22745	0.01272
1992.94168	0.01392
1991.65591	0.01440
1990.37014	0.01392
1989.08438	0.01279
1987.79861	0.01166
1986.51284	0.01109
1985.22707	0.01128
1983.94130	0.01220
1982.65553	0.01368
1981.36976	0.01550
1980.08399	0.01721
1978.79822	0.01822
1977.51246	0.01810
1976.22669	0.01704
1974.94092	0.01577
1973.65515	0.01498
1972.36938	0.01485
1971.08361	0.01503
1969.79784	0.01509
1968.51207	0.01486
1967.22631	0.01453
1965.94054	0.01437
1964.65477	0.01451
1963.36900	0.01484
1962.08323	0.01516
1960.79746	0.01540
1959.51169	0.01566
1958.22592	0.01605
1956.94015	0.01651
1955.65439	0.01694
1954.36862	0.01733
1953.08285	0.01769
1951.79708	0.01784
1950.51131	0.01754
1949.22554	0.01685
1947.93977	0.01611
1946.65400	0.01572
1945.36823	0.01579
1944.08247	0.01620
1942.79670	0.01679
1941.51093	0.01739
1940.22516	0.01776
1938.93939	0.01767
1937.65362	0.01713
1936.36785	0.01646
1935.08208	0.01610
1933.79632	0.01628
1932.51055	0.01688
1931.22478	0.01755
1929.93901	0.01798
1928.65324	0.01805
1927.36747	0.01788
1926.08170	0.01774
1924.79593	0.01786
1923.51016	0.01834
1922.22440	0.01901
1920.93863	0.01956
1919.65286	0.01977
1918.36709	0.01968
1917.08132	0.01944
1915.79555	0.01915
1914.50978	0.01888
1913.22401	0.01872
1911.93825	0.01867
1910.65248	0.01864
1909.36671	0.01859
1908.08094	0.01860
1906.79517	0.01867
1905.50940	0.01877
1904.22363	0.01883
1902.93786	0.01888
1901.65209	0.01894
1900.36633	0.01900
1899.08056	0.01905
1897.79479	0.01905
1896.50902	0.01908
1895.22325	0.01925
1893.93748	0.01958
1892.65171	0.01987
1891.36594	0.01991
1890.08018	0.01975
1888.79441	0.01957
1887.50864	0.01953
1886.22287	0.01962
1884.93710	0.01972
1883.65133	0.01978
1882.36556	0.01980
1881.07979	0.01984
1879.79402	0.01995
1878.50826	0.02007
1877.22249	0.02005
1875.93672	0.01984
1874.65095	0.01953
1873.36518	0.01931
1872.07941	0.01930
1870.79364	0.01944
1869.50787	0.01965
1868.22211	0.01990
1866.93634	0.02013
1865.65057	0.02030
1864.36480	0.02037
1863.07903	0.02032
1861.79326	0.02012
1860.50749	0.01984
1859.22172	0.01959
1857.93595	0.01947
1856.65019	0.01943
1855.36442	0.01940
1854.07865	0.01937
1852.79288	0.01938
1851.50711	0.01951
1850.22134	0.01977
1848.93557	0.02010
1847.64980	0.02032
1846.36404	0.02029
1845.07827	0.02008
1843.79250	0.01997
1842.50673	0.02005
1841.22096	0.02010
1839.93519	0.01991
1838.64942	0.01957
1837.36365	0.01928
1836.07788	0.01919
1834.79212	0.01934
1833.50635	0.01961
1832.22058	0.01981
1830.93481	0.01985
1829.64904	0.01988
1828.36327	0.02001
1827.07750	0.02021
1825.79173	0.02040
1824.50597	0.02059
1823.22020	0.02076
1821.93443	0.02087
1820.64866	0.02091
1819.36289	0.02083
1818.07712	0.02060
1816.79135	0.02032
1815.50558	0.02011
1814.21981	0.02003
1812.93405	0.01999
1811.64828	0.01994
1810.36251	0.01994
1809.07674	0.02003
1807.79097	0.02015
1806.50520	0.02024
1805.21943	0.02025
1803.93366	0.02020
1802.64790	0.02016
1801.36213	0.02018
1800.07636	0.02029
1798.79059	0.02047
1797.50482	0.02071
1796.21905	0.02094
1794.93328	0.02105
1793.64751	0.02101
1792.36174	0.02101
1791.07598	0.02116
1789.79021	0.02135
1788.50444	0.02138
1787.21867	0.02123
1785.93290	0.02102
1784.64713	0.02093
1783.36136	0.02097
1782.07559	0.02105
1780.78983	0.02108
1779.50406	0.02110
1778.21829	0.02116
1776.93252	0.02122
1775.64675	0.02118
1774.36098	0.02098
1773.07521	0.02081
1771.78944	0.02088
1770.50367	0.02108
1769.21791	0.02117
1767.93214	0.02117
1766.64637	0.02127
1765.36060	0.02144
1764.07483	0.02151
1762.78906	0.02153
1761.50329	0.02165
1760.21752	0.02185
1758.93176	0.02193
1757.64599	0.02183
1756.36022	0.02174
1755.07445	0.02175
1753.78868	0.02171
1752.50291	0.02159
1751.21714	0.02154
1749.93137	0.02165
1748.64560	0.02180
1747.35984	0.02186
1746.07407	0.02190
1744.78830	0.02198
1743.50253	0.02212
1742.21676	0.02221
1740.93099	0.02222
1739.64522	0.02229
1738.35945	0.02250
1737.07369	0.02263
1735.78792	0.02249
1734.50215	0.02233
1733.21638	0.02253
1731.93061	0.02295
1730.64484	0.02316
1729.35907	0.02312
1728.07330	0.02306
1726.78753	0.02307
1725.50177	0.02312
1724.21600	0.02325
1722.93023	0.02356
1721.64446	0.02400
1720.35869	0.02432
1719.07292	0.02444
1717.78715	0.02461
1716.50138	0.02500
1715.21561	0.02550
1713.92985	0.02586
1712.64408	0.02612
1711.35831	0.02642
1710.07254	0.02681
1708.78677	0.02724
1707.50100	0.02764
1706.21523	0.02806
1704.92946	0.02868
1703.64370	0.02937
1702.35793	0.02978
1701.07216	0.03005
1699.78639	0.03064
1698.50062	0.03143
1697.21485	0.03189
1695.92908	0.03210
1694.64331	0.03257
1693.35754	0.03323
1692.07178	0.03369
1690.78601	0.03402
1689.50024	0.03455
1688.21447	0.03525
1686.92870	0.03576
1685.64293	0.03600
1684.35716	0.03640
1683.07139	0.03717
1681.78563	0.03798
1680.49986	0.03855
1679.21409	0.03903
1677.92832	0.03955
1676.64255	0.04005
1675.35678	0.04063
1674.07101	0.04138
1672.78524	0.04211
1671.49947	0.04260
1670.21371	0.04296
1668.92794	0.04345
1667.64217	0.04415
1666.35640	0.04489
1665.07063	0.04548
1663.78486	0.04593
1662.49909	0.04640
1661.21332	0.04689
1659.92756	0.04734
1658.64179	0.04779
1657.35602	0.04828
1656.07025	0.04862
1654.78448	0.04864
1653.49871	0.04870
1652.21294	0.04929
1650.92717	0.05017
1649.64140	0.05061
1648.35564	0.05043
1647.06987	0.05018
1645.78410	0.05025
1644.49833	0.05050
1643.21256	0.05061
1641.92679	0.05047
1640.64102	0.05027
1639.35525	0.05014
1638.06949	0.04994
1636.78372	0.04963
1635.49795	0.04940
1634.21218	0.04941
1632.92641	0.04948
1631.64064	0.04937
1630.35487	0.04911
1629.06910	0.04886
1627.78333	0.04870
1626.49757	0.04858
1625.21180	0.04841
1623.92603	0.04818
1622.64026	0.04806
1621.35449	0.04806
1620.06872	0.04799
1618.78295	0.04765
1617.49718	0.04724
1616.21142	0.04713
1614.92565	0.04735
1613.63988	0.04756
1612.35411	0.04758
1611.06834	0.04753
1609.78257	0.04756
1608.49680	0.04768
1607.21103	0.04782
1605.92526	0.04797
1604.63950	0.04814
1603.35373	0.04834
1602.06796	0.04858
1600.78219	0.04882
1599.49642	0.04904
1598.21065	0.04924
1596.92488	0.04946
1595.63911	0.04974
1594.35335	0.05011
1593.06758	0.05053
1591.78181	0.05097
1590.49604	0.05143
1589.21027	0.05188
1587.92450	0.05233
1586.63873	0.05278
1585.35296	0.05325
1584.06719	0.05375
1582.78143	0.05428
1581.49566	0.05488
1580.20989	0.05552
1578.92412	0.05607
1577.63835	0.05645
1576.35258	0.05693
1575.06681	0.05778
1573.78104	0.05880
1572.49528	0.05956
1571.20951	0.06005
1569.92374	0.06055
1568.63797	0.06126
1567.35220	0.06204
1566.06643	0.06271
1564.78066	0.06336
1563.49489	0.06409
1562.20912	0.06473
1560.92336	0.06510
1559.63759	0.06547
1558.35182	0.06622
1557.06605	0.06717
1555.78028	0.06782
1554.49451	0.06811
1553.20874	0.06837
1551.92297	0.06870
1550.63721	0.06901
1549.35144	0.06935
1548.06567	0.06971
1546.77990	0.06998
1545.49413	0.07009
1544.20836	0.07007
1542.92259	0.06989
1541.63682	0.06948
1540.35105	0.06902
1539.06529	0.06887
1537.77952	0.06905
1536.49375	0.06913
1535.20798	0.06887
1533.92221	0.06854
1532.63644	0.06849
1531.35067	0.06870
1530.06490	0.06897
1528.77914	0.06924
1527.49337	0.06960
1526.20760	0.07013
1524.92183	0.07079
1523.63606	0.07143
1522.35029	0.07205
1521.06452	0.07289
1519.77875	0.07403
1518.49298	0.07521
1517.20722	0.07632
1515.92145	0.07748
1514.63568	0.07877
1513.34991	0.08010
1512.06414	0.08149
1510.77837	0.08296
1509.49260	0.08437
1508.20683	0.08565
1506.92107	0.08701
1505.63530	0.08872
1504.34953	0.09062
1503.06376	0.09226
1501.77799	0.09353
1500.49222	0.09461
1499.20645	0.09564
1497.92068	0.09660
1496.63491	0.09758
1495.34915	0.09867
1494.06338	0.09982
1492.77761	0.10081
1491.49184	0.10167
1490.20607	0.10257
1488.92030	0.10362
1487.63453	0.10477
1486.34876	0.10596
1485.06299	0.10721
1483.77723	0.10852
1482.49146	0.10989
1481.20569	0.11136
1479.91992	0.11286
1478.63415	0.11430
1477.34838	0.11563
1476.06261	0.11685
1474.77684	0.11796
1473.49108	0.11904
1472.20531	0.12023
1470.91954	0.12153
1469.63377	0.12275
1468.34800	0.12374
1467.06223	0.12451
1465.77646	0.12519
1464.49069	0.12597
1463.20492	0.12688
1461.91916	0.12784
1460.63339	0.12871
1459.34762	0.12938
1458.06185	0.12994
1456.77608	0.13068
1455.49031	0.13170
1454.20454	0.13267
1452.91877	0.13331
1451.63301	0.13366
1450.34724	0.13391
1449.06147	0.13414
1447.77570	0.13437
1446.48993	0.13462
1445.20416	0.13479
1443.91839	0.13479
1442.63262	0.13462
1441.34685	0.13438
1440.06109	0.13414
1438.77532	0.13388
1437.48955	0.13374
1436.20378	0.13392
1434.91801	0.13440
1433.63224	0.13500
1432.34647	0.13566
1431.06070	0.13652
1429.77494	0.13770
1428.48917	0.13916
1427.20340	0.14081
1425.91763	0.14256
1424.63186	0.14444
1423.34609	0.14640
1422.06032	0.14827
1420.77455	0.14991
1419.48878	0.15144
1418.20302	0.15300
1416.91725	0.15441
1415.63148	0.15544
1414.34571	0.15608
1413.05994	0.15648
1411.77417	0.15672
1410.48840	0.15675
1409.20263	0.15650
1407.91687	0.15590
1406.63110	0.15496
1405.34533	0.15376
1404.05956	0.15235
1402.77379	0.15071
1401.48802	0.14876
1400.20225	0.14652
1398.91648	0.14410
1397.63071	0.14152
1396.34495	0.13874
1395.05918	0.13583
1393.77341	0.13293
1392.48764	0.13012
1391.20187	0.12733
1389.91610	0.12451
1388.63033	0.12170
1387.34456	0.11898
1386.05880	0.11634
1384.77303	0.11371
1383.48726	0.11105
1382.20149	0.10844
1380.91572	0.10592
1379.62995	0.10345
1378.34418	0.10095
1377.05841	0.09834
1375.77264	0.09556
1374.48688	0.09264
1373.20111	0.08967
1371.91534	0.08671
1370.62957	0.08379
1369.34380	0.08099
1368.05803	0.07842
1366.77226	0.07606
1365.48649	0.07380
1364.20073	0.07156
1362.91496	0.06936
1361.62919	0.06730
1360.34342	0.06539
1359.05765	0.06360
1357.77188	0.06191
1356.48611	0.06033
1355.20034	0.05888
1353.91457	0.05754
1352.62881	0.05630
1351.34304	0.05516
1350.05727	0.05412
1348.77150	0.05317
1347.48573	0.05226
1346.19996	0.05138
1344.91419	0.05052
1343.62842	0.04970
1342.34266	0.04890
1341.05689	0.04813
1339.77112	0.04743
1338.48535	0.04682
1337.19958	0.04626
1335.91381	0.04572
1334.62804	0.04517
1333.34227	0.04461
1332.05650	0.04407
1330.77074	0.04353
1329.48497	0.04303
1328.19920	0.04257
1326.91343	0.04218
1325.62766	0.04185
1324.34189	0.04154
1323.05612	0.04123
1321.77035	0.04089
1320.48459	0.04052
1319.19882	0.04012
1317.91305	0.03972
1316.62728	0.03933
1315.34151	0.03897
1314.05574	0.03864
1312.76997	0.03833
1311.48420	0.03803
1310.19843	0.03773
1308.91267	0.03742
1307.62690	0.03711
1306.34113	0.03682
1305.05536	0.03656
1303.76959	0.03632
1302.48382	0.03606
1301.19805	0.03576
1299.91228	0.03545
1298.62652	0.03516
1297.34075	0.03492
1296.05498	0.03470
1294.76921	0.03447
1293.48344	0.03421
1292.19767	0.03393
1290.91190	0.03366
1289.62613	0.03342
1288.34036	0.03321
1287.05460	0.03300
1285.76883	0.03278
1284.48306	0.03257
1283.19729	0.03239
1281.91152	0.03222
1280.62575	0.03204
1279.33998	0.03182
1278.05421	0.03158
1276.76845	0.03137
1275.48268	0.03119
1274.19691	0.03104
1272.91114	0.03087
1271.62537	0.03069
1270.33960	0.03053
1269.05383	0.03040
1267.76806	0.03031
1266.48229	0.03022
1265.19653	0.03007
1263.91076	0.02988
1262.62499	0.02968
1261.33922	0.02950
1260.05345	0.02934
1258.76768	0.02919
1257.48191	0.02903
1256.19614	0.02887
1254.91037	0.02872
1253.62461	0.02859
1252.33884	0.02848
1251.05307	0.02836
1249.76730	0.02825
1248.48153	0.02813
1247.19576	0.02802
1245.90999	0.02790
1244.62422	0.02777
1243.33846	0.02762
1242.05269	0.02747
1240.76692	0.02733
1239.48115	0.02719
1238.19538	0.02704
1236.90961	0.02689
1235.62384	0.02674
1234.33807	0.02663
1233.05230	0.02653
1231.76654	0.02642
1230.48077	0.02625
1229.19500	0.02604
1227.90923	0.02580
1226.62346	0.02557
1225.33769	0.02535
1224.05192	0.02514
1222.76615	0.02495
1221.48039	0.02479
1220.19462	0.02466
1218.90885	0.02452
1217.62308	0.02435
1216.33731	0.02417
1215.05154	0.02403
1213.76577	0.02396
1212.48000	0.02391
1211.19423	0.02384
1209.90847	0.02372
1208.62270	0.02359
1207.33693	0.02349
1206.05116	0.02342
1204.76539	0.02335
1203.47962	0.02328
1202.19385	0.02321
1200.90808	0.02309
1199.62232	0.02290
1198.33655	0.02287
1197.05078	0.02283
1195.76501	0.02275
1194.47924	0.02264
1193.19347	0.02255
1191.90770	0.02248
1190.62193	0.02243
1189.33616	0.02234
1188.05040	0.02221
1186.76463	0.02207
1185.47886	0.02193
1184.19309	0.02184
1182.90732	0.02180
1181.62155	0.02179
1180.33578	0.02181
1179.05001	0.02185
1177.76425	0.02189
1176.47848	0.02193
1175.19271	0.02197
1173.90694	0.02200
1172.62117	0.02205
1171.33540	0.02213
1170.04963	0.02223
1168.76386	0.02235
1167.47809	0.02249
1166.19233	0.02265
1164.90656	0.02281
1163.62079	0.02297
1162.33502	0.02313
1161.04925	0.02331
1159.76348	0.02352
1158.47771	0.02379
1157.19194	0.02411
1155.90618	0.02443
1154.62041	0.02472
1153.33464	0.02501
1152.04887	0.02537
1150.76310	0.02582
1149.47733	0.02631
1148.19156	0.02679
1146.90579	0.02729
1145.62002	0.02787
1144.33426	0.02856
1143.04849	0.02934
1141.76272	0.03015
1140.47695	0.03104
1139.19118	0.03205
1137.90541	0.03324
1136.61964	0.03461
1135.33387	0.03619
1134.04811	0.03799
1132.76234	0.04002
1131.47657	0.04227
1130.19080	0.04476
1128.90503	0.04750
1127.61926	0.05049
1126.33349	0.05367
1125.04772	0.05702
1123.76195	0.06055
1122.47619	0.06425
1121.19042	0.06811
1119.90465	0.07208
1118.61888	0.07609
1117.33311	0.08012
1116.04734	0.08418
1114.76157	0.08828
1113.47580	0.09239
1112.19004	0.09646
1110.90427	0.10042
1109.61850	0.10425
1108.33273	0.10792
1107.04696	0.11147
1105.76119	0.11494
1104.47542	0.11839
1103.18965	0.12176
1101.90388	0.12497
1100.61812	0.12799
1099.33235	0.13081
1098.04658	0.13351
1096.76081	0.13613
1095.47504	0.13868
1094.18927	0.14121
1092.90350	0.14369
1091.61773	0.14607
1090.33197	0.14828
1089.04620	0.15027
1087.76043	0.15214
1086.47466	0.15403
1085.18889	0.15602
1083.90312	0.15810
1082.61735	0.16024
1081.33158	0.16245
1080.04581	0.16481
1078.76005	0.16737
1077.47428	0.17016
1076.18851	0.17313
1074.90274	0.17625
1073.61697	0.17946
1072.33120	0.18272
1071.04543	0.18600
1069.75966	0.18934
1068.47390	0.19282
1067.18813	0.19654
1065.90236	0.20047
1064.61659	0.20453
1063.33082	0.20862
1062.04505	0.21266
1060.75928	0.21661
1059.47351	0.22044
1058.18774	0.22416
1056.90198	0.22784
1055.61621	0.23156
1054.33044	0.23534
1053.04467	0.23920
1051.75890	0.24316
1050.47313	0.24723
1049.18736	0.25135
1047.90159	0.25547
1046.61583	0.25959
1045.33006	0.26383
1044.04429	0.26826
1042.75852	0.27284
1041.47275	0.27746
1040.18698	0.28212
1038.90121	0.28687
1037.61544	0.29175
1036.32967	0.29668
1035.04391	0.30154
1033.75814	0.30618
1032.47237	0.31051
1031.18660	0.31451
1029.90083	0.31825
1028.61506	0.32176
1027.32929	0.32492
1026.04352	0.32761
1024.75775	0.32978
1023.47199	0.33147
1022.18622	0.33272
1020.90045	0.33354
1019.61468	0.33389
1018.32891	0.33374
1017.04314	0.33299
1015.75737	0.33161
1014.47160	0.32961
1013.18584	0.32703
1011.90007	0.32389
1010.61430	0.32019
1009.32853	0.31595
1008.04276	0.31121
1006.75699	0.30599
1005.47122	0.30022
1004.18545	0.29386
1002.89968	0.28690
1001.61392	0.27939
1000.32815	0.27143
999.04238	0.26314
997.75661	0.25463
996.47084	0.24598
995.18507	0.23726
993.89930	0.22854
992.61353	0.21990
991.32777	0.21141
990.04200	0.20311
988.75623	0.19507
987.47046	0.18735
986.18469	0.17996
984.89892	0.17287
983.61315	0.16611
982.32738	0.15973
981.04161	0.15378
979.75585	0.14827
978.47008	0.14319
977.18431	0.13856
975.89854	0.13443
974.61277	0.13083
973.32700	0.12782
972.04123	0.12549
970.75546	0.12388
969.46970	0.12299
968.18393	0.12276
966.89816	0.12316
965.61239	0.12411
964.32662	0.12542
963.04085	0.12679
961.75508	0.12781
960.46931	0.12811
959.18354	0.12747
957.89778	0.12592
956.61201	0.12366
955.32624	0.12098
954.04047	0.11808
952.75470	0.11505
951.46893	0.11193
950.18316	0.10878
948.89739	0.10569
947.61163	0.10269
946.32586	0.09980
945.04009	0.09702
943.75432	0.09434
942.46855	0.09178
941.18278	0.08930
939.89701	0.08691
938.61124	0.08462
937.32547	0.08248
936.03971	0.08049
934.75394	0.07863
933.46817	0.07688
932.18240	0.07524
930.89663	0.07371
929.61086	0.07230
928.32509	0.07104
927.03932	0.06992
925.75356	0.06889
924.46779	0.06790
923.18202	0.06697
921.89625	0.06612
920.61048	0.06535
919.32471	0.06457
918.03894	0.06372
916.75317	0.06278
915.46740	0.06183
914.18164	0.06099
912.89587	0.06034
911.61010	0.05985
910.32433	0.05938
909.03856	0.05881
907.75279	0.05815
906.46702	0.05751
905.18125	0.05694
903.89549	0.05647
902.60972	0.05607
901.32395	0.05567
900.03818	0.05522
898.75241	0.05474
897.46664	0.05430
896.18087	0.05393
894.89510	0.05363
893.60933	0.05346
892.32357	0.05351
891.03780	0.05384
889.75203	0.05448
888.46626	0.05545
887.18049	0.05683
885.89472	0.05880
884.60895	0.06159
883.32318	0.06531
882.03742	0.06967
880.75165	0.07400
879.46588	0.07756
878.18011	0.08003
876.89434	0.08173
875.60857	0.08327
874.32280	0.08496
873.03703	0.08655
871.75126	0.08749
870.46550	0.08733
869.17973	0.08599
867.89396	0.08369
866.60819	0.08075
865.32242	0.07749
864.03665	0.07416
862.75088	0.07097
861.46511	0.06802
860.17935	0.06535
858.89358	0.06301
857.60781	0.06104
856.32204	0.05943
855.03627	0.05808
853.75050	0.05689
852.46473	0.05582
851.17896	0.05488
849.89319	0.05407
848.60743	0.05338
847.32166	0.05273
846.03589	0.05209
844.75012	0.05146
843.46435	0.05087
842.17858	0.05033
840.89281	0.04980
839.60704	0.04924
838.32128	0.04867
837.03551	0.04812
835.74974	0.04765
834.46397	0.04732
833.17820	0.04715
831.89243	0.04706
830.60666	0.04694
829.32089	0.04675
828.03512	0.04654
826.74936	0.04634
825.46359	0.04613
824.17782	0.04593
822.89205	0.04576
821.60628	0.04567
820.32051	0.04560
819.03474	0.04545
817.74897	0.04524
816.46321	0.04505
815.17744	0.04499
813.89167	0.04499
812.60590	0.04494
811.32013	0.04479
810.03436	0.04459
808.74859	0.04438
807.46282	0.04421
806.17705	0.04409
804.89129	0.04407
803.60552	0.04411
802.31975	0.04411
801.03398	0.04399
799.74821	0.04374
798.46244	0.04345
797.17667	0.04321
795.89090	0.04309
794.60513	0.04304
793.31937	0.04301
792.03360	0.04296
790.74783	0.04292
789.46206	0.04286
788.17629	0.04272
786.89052	0.04246
785.60475	0.04214
784.31898	0.04188
783.03322	0.04172
781.74745	0.04161
780.46168	0.04150
779.17591	0.04143
777.89014	0.04142
776.60437	0.04145
775.31860	0.04145
774.03283	0.04140
772.74706	0.04132
771.46130	0.04123
770.17553	0.04119
768.88976	0.04126
767.60399	0.04145
766.31822	0.04170
765.03245	0.04187
763.74668	0.04189
762.46091	0.04180
761.17515	0.04174
759.88938	0.04179
758.60361	0.04192
757.31784	0.04207
756.03207	0.04215
754.74630	0.04215
753.46053	0.04212
752.17476	0.04216
750.88899	0.04227
749.60323	0.04239
748.31746	0.04240
747.03169	0.04230
745.74592	0.04214
744.46015	0.04197
743.17438	0.04177
741.88861	0.04152
740.60284	0.04128
739.31708	0.04113
738.03131	0.04112
736.74554	0.04129
735.45977	0.04159
734.17400	0.04184
732.88823	0.04186
731.60246	0.04164
730.31669	0.04135
729.03092	0.04119
727.74516	0.04124
726.45939	0.04140
725.17362	0.04150
723.88785	0.04143
722.60208	0.04135
721.31631	0.04127
720.03054	0.04118
718.74477	0.04108
717.45901	0.04099
716.17324	0.04091
714.88747	0.04085
713.60170	0.04078
712.31593	0.04069
711.03016	0.04059
709.74439	0.04047
708.45862	0.04037
707.17285	0.04028
705.88709	0.04019
704.60132	0.04011
703.31555	0.04006
702.02978	0.04005
700.74401	0.04008
699.45824	0.04009
698.17247	0.04006
696.88670	0.04001
695.60094	0.03998
694.31517	0.03998
693.02940	0.03998
691.74363	0.03996
690.45786	0.03991
689.17209	0.03987
687.88632	0.03981
686.60055	0.03973
685.31478	0.03959
684.02902	0.03938
682.74325	0.03913
681.45748	0.03889
680.17171	0.03870
678.88594	0.03857
677.60017	0.03851
676.31440	0.03850
675.02863	0.03856
673.74287	0.03871
672.45710	0.03891
671.17133	0.03910
669.88556	0.03923
668.59979	0.03926
667.31402	0.03920
666.02825	0.03903
664.74248	0.03872
663.45671	0.03831
662.17095	0.03787
660.88518	0.03752
659.59941	0.03731
658.31364	0.03719
657.02787	0.03708
655.74210	0.03696
654.45633	0.03684
653.17056	0.03677
651.88480	0.03674
650.59903	0.03675
649.31326	0.03679
648.02749	0.03684
646.74172	0.03687
645.45595	0.03685
644.17018	0.03680
642.88441	0.03676
641.59864	0.03680
640.31288	0.03691
639.02711	0.03705
637.74134	0.03722
636.45557	0.03745
635.16980	0.03780
633.88403	0.03820
632.59826	0.03857
631.31249	0.03905
630.02673	0.04034
628.74096	0.04223
627.45519	0.04214
626.16942	0.04476
624.88365	0.04940
623.59788	0.05435
622.31211	0.05890
621.02634	0.06283
619.74057	0.06622
618.45481	0.06915
617.16904	0.07148
615.88327	0.07321
614.59750	0.07497
613.31173	0.07801
612.02596	0.08335
610.74019	0.09083
609.45442	0.09903
608.16866	0.10635
606.88289	0.11219
605.59712	0.11677
604.31135	0.12026
603.02558	0.12241
601.73981	0.12278
600.45404	0.12127
599.16827	0.11829
597.88250	0.11457
596.59674	0.11074
595.31097	0.10719
594.02520	0.10405
592.73943	0.10141
591.45366	0.09943
590.16789	0.09825
588.88212	0.09787
587.59635	0.09820
586.31059	0.09912
585.02482	0.10057
583.73905	0.10251
582.45328	0.10484
581.16751	0.10750
579.88174	0.11043
578.59597	0.11359
577.31020	0.11687
576.02443	0.12014
574.73867	0.12322
573.45290	0.12604
572.16713	0.12875
570.88136	0.13164
569.59559	0.13507
568.30982	0.13922
567.02405	0.14398
565.73828	0.14899
564.45251	0.15370
563.16675	0.15743
561.88098	0.15947
560.59521	0.15939
559.30944	0.15710
558.02367	0.15279
556.73790	0.14682
555.45213	0.13970
554.16636	0.13205
552.88060	0.12437
551.59483	0.11698
550.30906	0.11005
549.02329	0.10373
547.73752	0.09813
546.45175	0.09328
545.16598	0.08906
543.88021	0.08529
542.59444	0.08183
541.30868	0.07864
540.02291	0.07574
538.73714	0.07309
537.45137	0.07065
536.16560	0.06839
534.87983	0.06630
533.59406	0.06436
532.30829	0.06258
531.02253	0.06096
529.73676	0.05946
528.45099	0.05801
527.16522	0.05658
525.87945	0.05522
524.59368	0.05394
523.30791	0.05272
522.02214	0.05152
520.73637	0.05036
519.45061	0.04928
518.16484	0.04833
516.87907	0.04749
515.59330	0.04667
514.30753	0.04577
513.02176	0.04483
511.73599	0.04394
510.45022	0.04319
509.16446	0.04258
507.87869	0.04201
506.59292	0.04140
505.30715	0.04071
504.02138	0.03998
502.73561	0.03926
501.44984	0.03855
500.16407	0.03790
498.87830	0.03737
497.59254	0.03699
496.30677	0.03671
495.02100	0.03645
493.73523	0.03621
492.44946	0.03600
491.16369	0.03585
489.87792	0.03571
488.59215	0.03555
487.30639	0.03534
486.02062	0.03508
484.73485	0.03479
483.44908	0.03456
482.16331	0.03448
480.87754	0.03455
479.59177	0.03471
478.30600	0.03490
477.02023	0.03512
475.73447	0.03536
474.44870	0.03562
473.16293	0.03585
471.87716	0.03605
470.59139	0.03622
469.30562	0.03631
468.01985	0.03627
466.73408	0.03604
465.44832	0.03562
464.16255	0.03509
462.87678	0.03456
461.59101	0.03412
460.30524	0.03377
459.01947	0.03346
457.73370	0.03318
456.44793	0.03293
455.16216	0.03267
453.87640	0.03232
452.59063	0.03190
451.30486	0.03147
450.01909	0.03109
448.73332	0.03080
447.44755	0.03058
446.16178	0.03038
444.87601	0.03015
443.59025	0.02988
442.30448	0.02963
441.01871	0.02946
439.73294	0.02938
438.44717	0.02939
437.16140	0.02948
435.87563	0.02962
434.58986	0.02972
433.30409	0.02969
432.01833	0.02955
430.73256	0.02944
429.44679	0.02942
428.16102	0.02945
426.87525	0.02945
425.58948	0.02936
424.30371	0.02920
423.01794	0.02900
421.73218	0.02878
420.44641	0.02856
419.16064	0.02843
417.87487	0.02841
416.58910	0.02842
415.30333	0.02835
414.01756	0.02821
412.73179	0.02807
411.44602	0.02796
410.16026	0.02794
408.87449	0.02803
407.58872	0.02823
406.30295	0.02845
405.01718	0.02862
403.73141	0.02874
402.44564	0.02880
401.15987	0.02885
399.87411	0.02889
