3997.45528	0.04473
3996.16951	0.04468
3994.88374	0.04499
3993.59798	0.04570
3992.31221	0.04641
3991.02644	0.04667
3989.74067	0.04625
3988.45490	0.04539
3987.16913	0.04449
3985.88336	0.04380
3984.59759	0.04338
3983.31183	0.04334
3982.02606	0.04371
3980.74029	0.04424
3979.45452	0.04444
3978.16875	0.04414
3976.88298	0.04365
3975.59721	0.04339
3974.31144	0.04346
3973.02567	0.04358
3971.73991	0.04351
3970.45414	0.04331
3969.16837	0.04321
3967.88260	0.04338
3966.59683	0.04379
3965.31106	0.04424
3964.02529	0.04445
3962.73952	0.04428
3961.45376	0.04378
3960.16799	0.04312
3958.88222	0.04242
3957.59645	0.04176
3956.31068	0.04127
3955.02491	0.04103
3953.73914	0.04102
3952.45337	0.04122
3951.16760	0.04165
3949.88184	0.04233
3948.59607	0.04312
3947.31030	0.04374
3946.02453	0.04389
3944.73876	0.04351
3943.45299	0.04286
3942.16722	0.04237
3940.88145	0.04227
3939.59569	0.04248
3938.30992	0.04267
3937.02415	0.04254
3935.73838	0.04206
3934.45261	0.04153
3933.16684	0.04138
3931.88107	0.04184
3930.59530	0.04263
3929.30953	0.04325
3928.02377	0.04336
3926.73800	0.04305
3925.45223	0.04265
3924.16646	0.04238
3922.88069	0.04226
3921.59492	0.04224
3920.30915	0.04223
3919.02338	0.04215
3917.73762	0.04204
3916.45185	0.04195
3915.16608	0.04195
3913.88031	0.04195
3912.59454	0.04183
3911.30877	0.04157
3910.02300	0.04133
3908.73723	0.04139
3907.45146	0.04200
3906.16570	0.04311
3904.87993	0.04422
3903.59416	0.04467
3902.30839	0.04421
3901.02262	0.04321
3899.73685	0.04223
3898.45108	0.04160
3897.16531	0.04130
3895.87955	0.04113
3894.59378	0.04094
3893.30801	0.04074
3892.02224	0.04055
3890.73647	0.04030
3889.45070	0.04010
3888.16493	0.04024
3886.87916	0.04079
3885.59339	0.04130
3884.30763	0.04139
3883.02186	0.04117
3881.73609	0.04104
3880.45032	0.04109
3879.16455	0.04106
3877.87878	0.04069
3876.59301	0.04004
3875.30724	0.03942
3874.02148	0.03915
3872.73571	0.03949
3871.44994	0.04030
3870.16417	0.04099
3868.87840	0.04103
3867.59263	0.04055
3866.30686	0.04012
3865.02109	0.04004
3863.73532	0.04022
3862.44956	0.04049
3861.16379	0.04068
3859.87802	0.04057
3858.59225	0.04007
3857.30648	0.03945
3856.02071	0.03923
3854.73494	0.03962
3853.44917	0.04025
3852.16341	0.04067
3850.87764	0.04079
3849.59187	0.04067
3848.30610	0.04039
3847.02033	0.04007
3845.73456	0.03982
3844.44879	0.03958
3843.16302	0.03931
3841.87725	0.03918
3840.59149	0.03946
3839.30572	0.04007
3838.01995	0.04051
3836.73418	0.04030
3835.44841	0.03957
3834.16264	0.03882
3832.87687	0.03852
3831.59110	0.03873
3830.30534	0.03918
3829.01957	0.03953
3827.73380	0.03964
3826.44803	0.03961
3825.16226	0.03964
3823.87649	0.03993
3822.59072	0.04028
3821.30495	0.04028
3820.01918	0.03984
3818.73342	0.03949
3817.44765	0.03964
3816.16188	0.03984
3814.87611	0.03946
3813.59034	0.03860
3812.30457	0.03789
3811.01880	0.03777
3809.73303	0.03826
3808.44726	0.03902
3807.16150	0.03940
3805.87573	0.03900
3804.58996	0.03821
3803.30419	0.03783
3802.01842	0.03805
3800.73265	0.03833
3799.44688	0.03826
3798.16111	0.03801
3796.87535	0.03780
3795.58958	0.03765
3794.30381	0.03745
3793.01804	0.03711
3791.73227	0.03662
3790.44650	0.03612
3789.16073	0.03583
3787.87496	0.03587
3786.58919	0.03615
3785.30343	0.03640
3784.01766	0.03651
3782.73189	0.03664
3781.44612	0.03705
3780.16035	0.03761
3778.87458	0.03784
3777.58881	0.03742
3776.30304	0.03655
3775.01728	0.03574
3773.73151	0.03535
3772.44574	0.03549
3771.15997	0.03592
3769.87420	0.03624
3768.58843	0.03621
3767.30266	0.03594
3766.01689	0.03564
3764.73112	0.03541
3763.44536	0.03535
3762.15959	0.03562
3760.87382	0.03616
3759.58805	0.03668
3758.30228	0.03688
3757.01651	0.03663
3755.73074	0.03613
3754.44497	0.03562
3753.15921	0.03524
3751.87344	0.03503
3750.58767	0.03509
3749.30190	0.03546
3748.01613	0.03607
3746.73036	0.03689
3745.44459	0.03769
3744.15882	0.03795
3742.87305	0.03757
3741.58729	0.03705
3740.30152	0.03671
3739.01575	0.03646
3737.72998	0.03616
3736.44421	0.03571
3735.15844	0.03521
3733.87267	0.03493
3732.58690	0.03489
3731.30114	0.03474
3730.01537	0.03432
3728.72960	0.03387
3727.44383	0.03378
3726.15806	0.03411
3724.87229	0.03467
3723.58652	0.03518
3722.30075	0.03535
3721.01498	0.03511
3719.72922	0.03468
3718.44345	0.03444
3717.15768	0.03452
3715.87191	0.03476
3714.58614	0.03496
3713.30037	0.03505
3712.01460	0.03510
3710.72883	0.03515
3709.44307	0.03509
3708.15730	0.03473
3706.87153	0.03405
3705.58576	0.03335
3704.29999	0.03306
3703.01422	0.03324
3701.72845	0.03358
3700.44268	0.03380
3699.15691	0.03410
3697.87115	0.03473
3696.58538	0.03550
3695.29961	0.03603
3694.01384	0.03614
3692.72807	0.03591
3691.44230	0.03549
3690.15653	0.03490
3688.87076	0.03415
3687.58500	0.03334
3686.29923	0.03276
3685.01346	0.03268
3683.72769	0.03306
3682.44192	0.03359
3681.15615	0.03387
3679.87038	0.03356
3678.58461	0.03287
3677.29884	0.03241
3676.01308	0.03249
3674.72731	0.03280
3673.44154	0.03299
3672.15577	0.03307
3670.87000	0.03314
3669.58423	0.03317
3668.29846	0.03314
3667.01269	0.03309
3665.72693	0.03312
3664.44116	0.03340
3663.15539	0.03396
3661.86962	0.03453
3660.58385	0.03476
3659.29808	0.03464
3658.01231	0.03442
3656.72654	0.03415
3655.44077	0.03365
3654.15501	0.03287
3652.86924	0.03215
3651.58347	0.03184
3650.29770	0.03202
3649.01193	0.03244
3647.72616	0.03276
3646.44039	0.03273
3645.15462	0.03245
3643.86886	0.03226
3642.58309	0.03247
3641.29732	0.03309
3640.01155	0.03373
3638.72578	0.03395
3637.44001	0.03363
3636.15424	0.03307
3634.86847	0.03257
3633.58270	0.03219
3632.29694	0.03193
3631.01117	0.03193
3629.72540	0.03220
3628.43963	0.03230
3627.15386	0.03188
3625.86809	0.03115
3624.58232	0.03067
3623.29655	0.03076
3622.01079	0.03121
3620.72502	0.03154
3619.43925	0.03153
3618.15348	0.03147
3616.86771	0.03171
3615.58194	0.03217
3614.29617	0.03240
3613.01040	0.03206
3611.72463	0.03135
3610.43887	0.03083
3609.15310	0.03090
3607.86733	0.03151
3606.58156	0.03221
3605.29579	0.03261
3604.01002	0.03274
3602.72425	0.03288
3601.43848	0.03309
3600.15272	0.03310
3598.86695	0.03268
3597.58118	0.03198
3596.29541	0.03134
3595.00964	0.03089
3593.72387	0.03060
3592.43810	0.03038
3591.15233	0.03026
3589.86656	0.03046
3588.58080	0.03101
3587.29503	0.03172
3586.00926	0.03229
3584.72349	0.03250
3583.43772	0.03230
3582.15195	0.03178
3580.86618	0.03117
3579.58041	0.03075
3578.29464	0.03068
3577.00888	0.03090
3575.72311	0.03123
3574.43734	0.03151
3573.15157	0.03173
3571.86580	0.03202
3570.58003	0.03247
3569.29426	0.03300
3568.00849	0.03340
3566.72273	0.03345
3565.43696	0.03318
3564.15119	0.03279
3562.86542	0.03242
3561.57965	0.03204
3560.29388	0.03162
3559.00811	0.03122
3557.72234	0.03101
3556.43657	0.03101
3555.15081	0.03112
3553.86504	0.03120
3552.57927	0.03129
3551.29350	0.03150
3550.00773	0.03187
3548.72196	0.03231
3547.43619	0.03262
3546.15042	0.03264
3544.86466	0.03239
3543.57889	0.03199
3542.29312	0.03163
3541.00735	0.03138
3539.72158	0.03118
3538.43581	0.03097
3537.15004	0.03078
3535.86427	0.03065
3534.57850	0.03060
3533.29274	0.03062
3532.00697	0.03073
3530.72120	0.03096
3529.43543	0.03119
3528.14966	0.03129
3526.86389	0.03124
3525.57812	0.03104
3524.29235	0.03067
3523.00659	0.03005
3521.72082	0.02929
3520.43505	0.02872
3519.14928	0.02864
3517.86351	0.02900
3516.57774	0.02953
3515.29197	0.02996
3514.00620	0.03027
3512.72043	0.03057
3511.43467	0.03097
3510.14890	0.03142
3508.86313	0.03183
3507.57736	0.03209
3506.29159	0.03212
3505.00582	0.03182
3503.72005	0.03121
3502.43428	0.03054
3501.14852	0.03014
3499.86275	0.03017
3498.57698	0.03039
3497.29121	0.03043
3496.00544	0.03014
3494.71967	0.02973
3493.43390	0.02950
3492.14813	0.02952
3490.86236	0.02963
3489.57660	0.02975
3488.29083	0.02992
3487.00506	0.03015
3485.71929	0.03034
3484.43352	0.03040
3483.14775	0.03033
3481.86198	0.03022
3480.57621	0.03007
3479.29045	0.02988
3478.00468	0.02968
3476.71891	0.02960
3475.43314	0.02964
3474.14737	0.02971
3472.86160	0.02964
3471.57583	0.02940
3470.29006	0.02915
3469.00429	0.02908
3467.71853	0.02922
3466.43276	0.02940
3465.14699	0.02945
3463.86122	0.02932
3462.57545	0.02909
3461.28968	0.02891
3460.00391	0.02889
3458.71814	0.02904
3457.43238	0.02923
3456.14661	0.02930
3454.86084	0.02925
3453.57507	0.02928
3452.28930	0.02952
3451.00353	0.02988
3449.71776	0.03006
3448.43199	0.02983
3447.14622	0.02928
3445.86046	0.02874
3444.57469	0.02848
3443.28892	0.02844
3442.00315	0.02840
3440.71738	0.02829
3439.43161	0.02820
3438.14584	0.02818
3436.86007	0.02820
3435.57431	0.02821
3434.28854	0.02822
3433.00277	0.02826
3431.71700	0.02830
3430.43123	0.02836
3429.14546	0.02851
3427.85969	0.02883
3426.57392	0.02929
3425.28815	0.02973
3424.00239	0.03002
3422.71662	0.03010
3421.43085	0.02999
3420.14508	0.02967
3418.85931	0.02907
3417.57354	0.02817
3416.28777	0.02722
3415.00200	0.02667
3413.71624	0.02688
3412.43047	0.02779
3411.14470	0.02887
3409.85893	0.02948
3408.57316	0.02942
3407.28739	0.02913
3406.00162	0.02915
3404.71585	0.02965
3403.43008	0.03029
3402.14432	0.03067
3400.85855	0.03073
3399.57278	0.03075
3398.28701	0.03087
3397.00124	0.03091
3395.71547	0.03065
3394.42970	0.03007
3393.14393	0.02935
3391.85817	0.02880
3390.57240	0.02866
3389.28663	0.02901
3388.00086	0.02972
3386.71509	0.03050
3385.42932	0.03108
3384.14355	0.03139
3382.85778	0.03147
3381.57201	0.03138
3380.28625	0.03116
3379.00048	0.03088
3377.71471	0.03064
3376.42894	0.03056
3375.14317	0.03076
3373.85740	0.03123
3372.57163	0.03178
3371.28586	0.03206
3370.00010	0.03186
3368.71433	0.03132
3367.42856	0.03076
3366.14279	0.03041
3364.85702	0.03032
3363.57125	0.03047
3362.28548	0.03085
3360.99971	0.03140
3359.71394	0.03196
3358.42818	0.03234
3357.14241	0.03244
3355.85664	0.03229
3354.57087	0.03210
3353.28510	0.03207
3351.99933	0.03222
3350.71356	0.03240
3349.42779	0.03258
3348.14202	0.03284
3346.85626	0.03323
3345.57049	0.03360
3344.28472	0.03370
3342.99895	0.03343
3341.71318	0.03294
3340.42741	0.03257
3339.14164	0.03268
3337.85587	0.03333
3336.57011	0.03424
3335.28434	0.03503
3333.99857	0.03555
3332.71280	0.03590
3331.42703	0.03614
3330.14126	0.03623
3328.85549	0.03605
3327.56972	0.03564
3326.28395	0.03517
3324.99819	0.03486
3323.71242	0.03482
3322.42665	0.03495
3321.14088	0.03511
3319.85511	0.03522
3318.56934	0.03532
3317.28357	0.03550
3315.99780	0.03573
3314.71204	0.03586
3313.42627	0.03580
3312.14050	0.03563
3310.85473	0.03555
3309.56896	0.03569
3308.28319	0.03595
3306.99742	0.03616
3305.71165	0.03627
3304.42588	0.03639
3303.14012	0.03659
3301.85435	0.03689
3300.56858	0.03729
3299.28281	0.03770
3297.99704	0.03800
3296.71127	0.03809
3295.42550	0.03806
3294.13973	0.03804
3292.85397	0.03806
3291.56820	0.03803
3290.28243	0.03792
3288.99666	0.03780
3287.71089	0.03772
3286.42512	0.03762
3285.13935	0.03751
3283.85358	0.03755
3282.56781	0.03789
3281.28205	0.03840
3279.99628	0.03880
3278.71051	0.03893
3277.42474	0.03887
3276.13897	0.03881
3274.85320	0.03883
3273.56743	0.03888
3272.28166	0.03889
3270.99590	0.03888
3269.71013	0.03888
3268.42436	0.03887
3267.13859	0.03873
3265.85282	0.03845
3264.56705	0.03822
3263.28128	0.03822
3261.99551	0.03845
3260.70974	0.03875
3259.42398	0.03901
3258.13821	0.03927
3256.85244	0.03955
3255.56667	0.03979
3254.28090	0.03988
3252.99513	0.03973
3251.70936	0.03940
3250.42359	0.03903
3249.13783	0.03882
3247.85206	0.03882
3246.56629	0.03896
3245.28052	0.03915
3243.99475	0.03932
3242.70898	0.03946
3241.42321	0.03953
3240.13744	0.03951
3238.85167	0.03946
3237.56591	0.03942
3236.28014	0.03934
3234.99437	0.03915
3233.70860	0.03886
3232.42283	0.03849
3231.13706	0.03805
3229.85129	0.03756
3228.56552	0.03722
3227.27976	0.03731
3225.99399	0.03783
3224.70822	0.03849
3223.42245	0.03891
3222.13668	0.03895
3220.85091	0.03875
3219.56514	0.03857
3218.27937	0.03856
3216.99360	0.03872
3215.70784	0.03894
3214.42207	0.03906
3213.13630	0.03905
3211.85053	0.03903
3210.56476	0.03918
3209.27899	0.03955
3207.99322	0.04002
3206.70745	0.04046
3205.42169	0.04079
3204.13592	0.04092
3202.85015	0.04077
3201.56438	0.04037
3200.27861	0.03998
3198.99284	0.03987
3197.70707	0.04015
3196.42130	0.04065
3195.13553	0.04107
3193.84977	0.04128
3192.56400	0.04131
3191.27823	0.04127
3189.99246	0.04115
3188.70669	0.04090
3187.42092	0.04058
3186.13515	0.04029
3184.84938	0.04012
3183.56362	0.04005
3182.27785	0.04004
3180.99208	0.04009
3179.70631	0.04020
3178.42054	0.04033
3177.13477	0.04046
3175.84900	0.04052
3174.56323	0.04047
3173.27746	0.04029
3171.99170	0.03997
3170.70593	0.03952
3169.42016	0.03907
3168.13439	0.03877
3166.84862	0.03869
3165.56285	0.03876
3164.27708	0.03884
3162.99131	0.03891
3161.70555	0.03907
3160.41978	0.03937
3159.13401	0.03971
3157.84824	0.03995
3156.56247	0.04005
3155.27670	0.04011
3153.99093	0.04013
3152.70516	0.04007
3151.41939	0.03991
3150.13363	0.03976
3148.84786	0.03965
3147.56209	0.03952
3146.27632	0.03937
3144.99055	0.03935
3143.70478	0.03955
3142.41901	0.03983
3141.13324	0.03991
3139.84748	0.03965
3138.56171	0.03917
3137.27594	0.03875
3135.99017	0.03863
3134.70440	0.03884
3133.41863	0.03918
3132.13286	0.03939
3130.84709	0.03938
3129.56132	0.03925
3128.27556	0.03922
3126.98979	0.03932
3125.70402	0.03943
3124.41825	0.03944
3123.13248	0.03937
3121.84671	0.03930
3120.56094	0.03929
3119.27517	0.03932
3117.98940	0.03933
3116.70364	0.03936
3115.41787	0.03946
3114.13210	0.03968
3112.84633	0.03999
3111.56056	0.04028
3110.27479	0.04044
3108.98902	0.04045
3107.70325	0.04033
3106.41749	0.04012
3105.13172	0.03990
3103.84595	0.03973
3102.56018	0.03967
3101.27441	0.03969
3099.98864	0.03967
3098.70287	0.03960
3097.41710	0.03962
3096.13133	0.03985
3094.84557	0.04020
3093.55980	0.04034
3092.27403	0.04009
3090.98826	0.03960
3089.70249	0.03921
3088.41672	0.03909
3087.13095	0.03911
3085.84518	0.03912
3084.55942	0.03914
3083.27365	0.03930
3081.98788	0.03968
3080.70211	0.04019
3079.41634	0.04063
3078.13057	0.04085
3076.84480	0.04081
3075.55903	0.04057
3074.27326	0.04027
3072.98750	0.04006
3071.70173	0.04007
3070.41596	0.04029
3069.13019	0.04054
3067.84442	0.04067
3066.55865	0.04066
3065.27288	0.04062
3063.98711	0.04065
3062.70135	0.04075
3061.41558	0.04088
3060.12981	0.04093
3058.84404	0.04081
3057.55827	0.04052
3056.27250	0.04013
3054.98673	0.03977
3053.70096	0.03949
3052.41519	0.03925
3051.12943	0.03901
3049.84366	0.03882
3048.55789	0.03875
3047.27212	0.03886
3045.98635	0.03907
3044.70058	0.03924
3043.41481	0.03931
3042.12904	0.03937
3040.84328	0.03949
3039.55751	0.03963
3038.27174	0.03967
3036.98597	0.03959
3035.70020	0.03939
3034.41443	0.03911
3033.12866	0.03878
3031.84289	0.03845
3030.55712	0.03819
3029.27136	0.03803
3027.98559	0.03790
3026.69982	0.03782
3025.41405	0.03782
3024.12828	0.03787
3022.84251	0.03784
3021.55674	0.03761
3020.27097	0.03725
3018.98521	0.03692
3017.69944	0.03673
3016.41367	0.03666
3015.12790	0.03665
3013.84213	0.03673
3012.55636	0.03695
3011.27059	0.03725
3009.98482	0.03744
3008.69905	0.03738
3007.41329	0.03712
3006.12752	0.03685
3004.84175	0.03672
3003.55598	0.03671
3002.27021	0.03673
3000.98444	0.03674
2999.69867	0.03684
2998.41290	0.03692
2997.12714	0.03690
2995.84137	0.03667
2994.55560	0.03621
2993.26983	0.03564
2991.98406	0.03515
2990.69829	0.03486
2989.41252	0.03483
2988.12675	0.03500
2986.84098	0.03524
2985.55522	0.03541
2984.26945	0.03539
2982.98368	0.03515
2981.69791	0.03481
2980.41214	0.03450
2979.12637	0.03420
2977.84060	0.03378
2976.55483	0.03321
2975.26907	0.03265
2973.98330	0.03224
2972.69753	0.03199
2971.41176	0.03179
2970.12599	0.03155
2968.84022	0.03120
2967.55445	0.03082
2966.26868	0.03053
2964.98291	0.03040
2963.69715	0.03031
2962.41138	0.03011
2961.12561	0.02972
2959.83984	0.02925
2958.55407	0.02885
2957.26830	0.02866
2955.98253	0.02872
2954.69676	0.02886
2953.41100	0.02889
2952.12523	0.02874
2950.83946	0.02853
2949.55369	0.02839
2948.26792	0.02831
2946.98215	0.02816
2945.69638	0.02780
2944.41061	0.02718
2943.12484	0.02628
2941.83908	0.02512
2940.55331	0.02380
2939.26754	0.02254
2937.98177	0.02156
2936.69600	0.02088
2935.41023	0.02023
2934.12446	0.01936
2932.83869	0.01827
2931.55293	0.01724
2930.26716	0.01652
2928.98139	0.01611
2927.69562	0.01580
2926.40985	0.01542
2925.12408	0.01494
2923.83831	0.01443
2922.55254	0.01402
2921.26677	0.01380
2919.98101	0.01386
2918.69524	0.01423
2917.40947	0.01494
2916.12370	0.01599
2914.83793	0.01736
2913.55216	0.01894
2912.26639	0.02052
2910.98062	0.02191
2909.69486	0.02299
2908.40909	0.02373
2907.12332	0.02425
2905.83755	0.02476
2904.55178	0.02542
2903.26601	0.02617
2901.98024	0.02680
2900.69447	0.02714
2899.40870	0.02720
2898.12294	0.02715
2896.83717	0.02712
2895.55140	0.02717
2894.26563	0.02729
2892.97986	0.02747
2891.69409	0.02772
2890.40832	0.02797
2889.12255	0.02811
2887.83678	0.02808
2886.55102	0.02792
2885.26525	0.02782
2883.97948	0.02790
2882.69371	0.02811
2881.40794	0.02831
2880.12217	0.02834
2878.83640	0.02824
2877.55063	0.02813
2876.26487	0.02809
2874.97910	0.02800
2873.69333	0.02777
2872.40756	0.02750
2871.12179	0.02739
2869.83602	0.02747
2868.55025	0.02755
2867.26448	0.02747
2865.97871	0.02721
2864.69295	0.02676
2863.40718	0.02609
2862.12141	0.02518
2860.83564	0.02414
2859.54987	0.02309
2858.26410	0.02211
2856.97833	0.02116
2855.69256	0.02026
2854.40680	0.01950
2853.12103	0.01900
2851.83526	0.01887
2850.54949	0.01921
2849.26372	0.02007
2847.97795	0.02136
2846.69218	0.02286
2845.40641	0.02437
2844.12064	0.02574
2842.83488	0.02691
2841.54911	0.02791
2840.26334	0.02878
2838.97757	0.02950
2837.69180	0.02998
2836.40603	0.03022
2835.12026	0.03035
2833.83449	0.03056
2832.54873	0.03088
2831.26296	0.03118
2829.97719	0.03127
2828.69142	0.03109
2827.40565	0.03079
2826.11988	0.03060
2824.83411	0.03067
2823.54834	0.03096
2822.26257	0.03133
2820.97681	0.03163
2819.69104	0.03178
2818.40527	0.03172
2817.11950	0.03142
2815.83373	0.03091
2814.54796	0.03039
2813.26219	0.03004
2811.97642	0.02996
2810.69066	0.03005
2809.40489	0.03024
2808.11912	0.03050
2806.83335	0.03082
2805.54758	0.03114
2804.26181	0.03135
2802.97604	0.03137
2801.69027	0.03117
2800.40450	0.03081
2799.11874	0.03039
2797.83297	0.03007
2796.54720	0.02994
2795.26143	0.02995
2793.97566	0.02999
2792.68989	0.02996
2791.40412	0.02989
2790.11835	0.02983
2788.83259	0.02982
2787.54682	0.02986
2786.26105	0.02996
2784.97528	0.03014
2783.68951	0.03037
2782.40374	0.03056
2781.11797	0.03061
2779.83220	0.03049
2778.54643	0.03030
2777.26067	0.03018
2775.97490	0.03021
2774.68913	0.03034
2773.40336	0.03048
2772.11759	0.03052
2770.83182	0.03042
2769.54605	0.03024
2768.26028	0.03007
2766.97452	0.02990
2765.68875	0.02974
2764.40298	0.02964
2763.11721	0.02965
2761.83144	0.02972
2760.54567	0.02968
2759.25990	0.02957
2757.97413	0.02954
2756.68836	0.02961
2755.40260	0.02959
2754.11683	0.02929
2752.83106	0.02887
2751.54529	0.02859
2750.25952	0.02859
2748.97375	0.02871
2747.68798	0.02877
2746.40221	0.02876
2745.11645	0.02879
2743.83068	0.02895
2742.54491	0.02919
2741.25914	0.02938
2739.97337	0.02939
2738.68760	0.02922
2737.40183	0.02894
2736.11606	0.02865
2734.83029	0.02847
2733.54453	0.02844
2732.25876	0.02848
2730.97299	0.02846
2729.68722	0.02832
2728.40145	0.02815
2727.11568	0.02812
2725.82991	0.02824
2724.54414	0.02845
2723.25838	0.02865
2721.97261	0.02881
2720.68684	0.02889
2719.40107	0.02888
2718.11530	0.02882
2716.82953	0.02873
2715.54376	0.02859
2714.25799	0.02841
2712.97222	0.02828
2711.68646	0.02824
2710.40069	0.02827
2709.11492	0.02828
2707.82915	0.02823
2706.54338	0.02816
2705.25761	0.02814
2703.97184	0.02821
2702.68607	0.02840
2701.40031	0.02860
2700.11454	0.02867
2698.82877	0.02854
2697.54300	0.02829
2696.25723	0.02808
2694.97146	0.02796
2693.68569	0.02789
2692.39992	0.02779
2691.11415	0.02764
2689.82839	0.02751
2688.54262	0.02743
2687.25685	0.02739
2685.97108	0.02732
2684.68531	0.02717
2683.39954	0.02693
2682.11377	0.02669
2680.82800	0.02656
2679.54224	0.02660
2678.25647	0.02677
2676.97070	0.02702
2675.68493	0.02726
2674.39916	0.02737
2673.11339	0.02726
2671.82762	0.02701
2670.54185	0.02675
2669.25608	0.02663
2667.97032	0.02664
2666.68455	0.02668
2665.39878	0.02666
2664.11301	0.02656
2662.82724	0.02641
2661.54147	0.02626
2660.25570	0.02620
2658.96993	0.02625
2657.68417	0.02639
2656.39840	0.02648
2655.11263	0.02647
2653.82686	0.02642
2652.54109	0.02639
2651.25532	0.02636
2649.96955	0.02626
2648.68378	0.02610
2647.39801	0.02591
2646.11225	0.02568
2644.82648	0.02543
2643.54071	0.02520
2642.25494	0.02502
2640.96917	0.02484
2639.68340	0.02466
2638.39763	0.02452
2637.11186	0.02448
2635.82609	0.02448
2634.54033	0.02444
2633.25456	0.02429
2631.96879	0.02410
2630.68302	0.02399
2629.39725	0.02403
2628.11148	0.02419
2626.82571	0.02434
2625.53994	0.02438
2624.25418	0.02432
2622.96841	0.02426
2621.68264	0.02422
2620.39687	0.02412
2619.11110	0.02391
2617.82533	0.02365
2616.53956	0.02352
2615.25379	0.02357
2613.96802	0.02370
2612.68226	0.02371
2611.39649	0.02356
2610.11072	0.02339
2608.82495	0.02338
2607.53918	0.02351
2606.25341	0.02359
2604.96764	0.02348
2603.68187	0.02323
2602.39611	0.02292
2601.11034	0.02256
2599.82457	0.02222
2598.53880	0.02204
2597.25303	0.02209
2595.96726	0.02224
2594.68149	0.02231
2593.39572	0.02230
2592.10995	0.02231
2590.82419	0.02238
2589.53842	0.02240
2588.25265	0.02221
2586.96688	0.02186
2585.68111	0.02156
2584.39534	0.02158
2583.10957	0.02197
2581.82380	0.02261
2580.53804	0.02320
2579.25227	0.02349
2577.96650	0.02337
2576.68073	0.02306
2575.39496	0.02284
2574.10919	0.02274
2572.82342	0.02254
2571.53765	0.02206
2570.25188	0.02147
2568.96612	0.02106
2567.68035	0.02094
2566.39458	0.02106
2565.10881	0.02138
2563.82304	0.02184
2562.53727	0.02222
2561.25150	0.02227
2559.96573	0.02196
2558.67997	0.02153
2557.39420	0.02128
2556.10843	0.02128
2554.82266	0.02148
2553.53689	0.02180
2552.25112	0.02214
2550.96535	0.02240
2549.67958	0.02243
2548.39381	0.02212
2547.10805	0.02155
2545.82228	0.02104
2544.53651	0.02088
2543.25074	0.02108
2541.96497	0.02134
2540.67920	0.02147
2539.39343	0.02157
2538.10766	0.02176
2536.82190	0.02193
2535.53613	0.02184
2534.25036	0.02147
2532.96459	0.02095
2531.67882	0.02041
2530.39305	0.01996
2529.10728	0.01974
2527.82151	0.01988
2526.53574	0.02033
2525.24998	0.02082
2523.96421	0.02115
2522.67844	0.02127
2521.39267	0.02130
2520.10690	0.02138
2518.82113	0.02157
2517.53536	0.02183
2516.24959	0.02198
2514.96383	0.02185
2513.67806	0.02133
2512.39229	0.02059
2511.10652	0.01990
2509.82075	0.01947
2508.53498	0.01931
2507.24921	0.01939
2505.96344	0.01960
2504.67767	0.01982
2503.39191	0.01997
2502.10614	0.02003
2500.82037	0.02002
2499.53460	0.01992
2498.24883	0.01981
2496.96306	0.01977
2495.67729	0.01978
2494.39152	0.01972
2493.10576	0.01949
2491.81999	0.01919
2490.53422	0.01905
2489.24845	0.01922
2487.96268	0.01960
2486.67691	0.01996
2485.39114	0.02013
2484.10537	0.02013
2482.81960	0.02015
2481.53384	0.02037
2480.24807	0.02075
2478.96230	0.02115
2477.67653	0.02147
2476.39076	0.02164
2475.10499	0.02159
2473.81922	0.02127
2472.53345	0.02082
2471.24769	0.02046
2469.96192	0.02028
2468.67615	0.02015
2467.39038	0.01996
2466.10461	0.01980
2464.81884	0.01979
2463.53307	0.01988
2462.24730	0.01994
2460.96153	0.01993
2459.67577	0.01995
2458.39000	0.02005
2457.10423	0.02020
2455.81846	0.02025
2454.53269	0.02011
2453.24692	0.01981
2451.96115	0.01949
2450.67538	0.01924
2449.38962	0.01904
2448.10385	0.01882
2446.81808	0.01864
2445.53231	0.01859
2444.24654	0.01874
2442.96077	0.01907
2441.67500	0.01946
2440.38923	0.01984
2439.10346	0.02016
2437.81770	0.02041
2436.53193	0.02055
2435.24616	0.02054
2433.96039	0.02040
2432.67462	0.02022
2431.38885	0.02004
2430.10308	0.01993
2428.81731	0.01986
2427.53155	0.01976
2426.24578	0.01956
2424.96001	0.01933
2423.67424	0.01920
2422.38847	0.01930
2421.10270	0.01961
2419.81693	0.02005
2418.53116	0.02038
2417.24539	0.02034
2415.95963	0.01988
2414.67386	0.01926
2413.38809	0.01888
2412.10232	0.01892
2410.81655	0.01918
2409.53078	0.01941
2408.24501	0.01954
2406.95924	0.01964
2405.67347	0.01969
2404.38771	0.01962
2403.10194	0.01946
2401.81617	0.01938
2400.53040	0.01945
2399.24463	0.01942
2397.95886	0.01956
2396.67309	0.01949
2395.38732	0.01917
2394.10156	0.01875
2392.81579	0.01837
2391.53002	0.01816
2390.24425	0.01819
2388.95848	0.01843
2387.67271	0.01876
2386.38694	0.01909
2385.10117	0.01939
2383.81540	0.01970
2382.52964	0.02004
2381.24387	0.02036
2379.95810	0.02063
2378.67233	0.02062
2377.38656	0.02039
2376.10079	0.02021
2374.81502	0.02013
2373.52925	0.01975
2372.24349	0.01927
2370.95772	0.01899
2369.67195	0.01870
2368.38618	0.01842
2367.10041	0.01828
2365.81464	0.01829
2364.52887	0.01838
2363.24310	0.01849
2361.95733	0.01868
2360.67157	0.01902
2359.38580	0.01944
2358.10003	0.01968
2356.81426	0.01969
2355.52849	0.01971
2354.24272	0.01995
2352.95695	0.02029
2351.67118	0.02015
2350.38542	0.01983
2349.09965	0.01973
2347.81388	0.01963
2346.52811	0.01942
2345.24234	0.01937
2343.95657	0.01959
2342.67080	0.02020
2341.38503	0.02005
2340.09926	0.01959
2338.81350	0.01960
2337.52773	0.01980
2336.24196	0.01943
2334.95619	0.01916
2333.67042	0.01923
2332.38465	0.01958
2331.09888	0.01909
2329.81311	0.01924
2328.52735	0.01954
2327.24158	0.01925
2325.95581	0.01896
2324.67004	0.01866
2323.38427	0.01870
2322.09850	0.01852
2320.81273	0.01839
2319.52696	0.01846
2318.24119	0.01866
2316.95543	0.01878
2315.66966	0.01887
2314.38389	0.01898
2313.09812	0.01881
2311.81235	0.01834
2310.52658	0.01783
2309.24081	0.01751
2307.95504	0.01746
2306.66928	0.01763
2305.38351	0.01781
2304.09774	0.01789
2302.81197	0.01791
2301.52620	0.01797
2300.24043	0.01810
2298.95466	0.01819
2297.66889	0.01807
2296.38312	0.01773
2295.09736	0.01732
2293.81159	0.01699
2292.52582	0.01681
2291.24005	0.01681
2289.95428	0.01696
2288.66851	0.01715
2287.38274	0.01719
2286.09697	0.01696
2284.81121	0.01650
2283.52544	0.01599
2282.23967	0.01557
2280.95390	0.01531
2279.66813	0.01515
2278.38236	0.01508
2277.09659	0.01513
2275.81082	0.01542
2274.52505	0.01595
2273.23929	0.01653
2271.95352	0.01692
2270.66775	0.01700
2269.38198	0.01692
2268.09621	0.01684
2266.81044	0.01680
2265.52467	0.01661
2264.23890	0.01618
2262.95314	0.01561
2261.66737	0.01515
2260.38160	0.01492
2259.09583	0.01472
2257.81006	0.01437
2256.52429	0.01402
2255.23852	0.01408
2253.95275	0.01477
2252.66698	0.01569
2251.38122	0.01631
2250.09545	0.01639
2248.80968	0.01601
2247.52391	0.01562
2246.23814	0.01524
2244.95237	0.01475
2243.66660	0.01428
2242.38083	0.01405
2241.09507	0.01404
2239.80930	0.01406
2238.52353	0.01408
2237.23776	0.01427
2235.95199	0.01464
2234.66622	0.01484
2233.38045	0.01439
2232.09468	0.01336
2230.80891	0.01238
2229.52315	0.01214
2228.23738	0.01273
2226.95161	0.01356
2225.66584	0.01397
2224.38007	0.01386
2223.09430	0.01362
2221.80853	0.01364
2220.52276	0.01382
2219.23700	0.01381
2217.95123	0.01345
2216.66546	0.01299
2215.37969	0.01279
2214.09392	0.01289
2212.80815	0.01292
2211.52238	0.01244
2210.23661	0.01153
2208.95084	0.01094
2207.66508	0.01132
2206.37931	0.01236
2205.09354	0.01294
2203.80777	0.01233
2202.52200	0.01100
2201.23623	0.01010
2199.95046	0.01023
2198.66469	0.01096
2197.37893	0.01140
2196.09316	0.01119
2194.80739	0.01080
2193.52162	0.01075
2192.23585	0.01095
2190.95008	0.01085
2189.66431	0.01029
2188.37854	0.00967
2187.09277	0.00944
2185.80701	0.00969
2184.52124	0.01024
2183.23547	0.01086
2181.94970	0.01131
2180.66393	0.01139
2179.37816	0.01120
2178.09239	0.01098
2176.80662	0.01088
2175.52085	0.01092
2174.23509	0.01098
2172.94932	0.01086
2171.66355	0.01033
2170.37778	0.00946
2169.09201	0.00871
2167.80624	0.00844
2166.52047	0.00860
2165.23470	0.00887
2163.94894	0.00903
2162.66317	0.00905
2161.37740	0.00893
2160.09163	0.00864
2158.80586	0.00821
2157.52009	0.00778
2156.23432	0.00754
2154.94855	0.00748
2153.66278	0.00727
2152.37702	0.00656
2151.09125	0.00559
2149.80548	0.00515
2148.51971	0.00577
2147.23394	0.00702
2145.94817	0.00799
2144.66240	0.00825
2143.37663	0.00808
2142.09087	0.00796
2140.80510	0.00812
2139.51933	0.00851
2138.23356	0.00897
2136.94779	0.00932
2135.66202	0.00950
2134.37625	0.00966
2133.09048	0.00997
2131.80471	0.01047
2130.51895	0.01101
2129.23318	0.01136
2127.94741	0.01133
2126.66164	0.01096
2125.37587	0.01058
2124.09010	0.01054
2122.80433	0.01084
2121.51856	0.01117
2120.23280	0.01133
2118.94703	0.01137
2117.66126	0.01138
2116.37549	0.01126
2115.08972	0.01100
2113.80395	0.01074
2112.51818	0.01070
2111.23241	0.01091
2109.94664	0.01123
2108.66088	0.01148
2107.37511	0.01152
2106.08934	0.01133
2104.80357	0.01100
2103.51780	0.01069
2102.23203	0.01051
2100.94626	0.01047
2099.66049	0.01093
2098.37473	0.01117
2097.08896	0.01117
2095.80319	0.01101
2094.51742	0.01077
2093.23165	0.01066
2091.94588	0.01081
2090.66011	0.01103
2089.37434	0.01097
2088.08857	0.01041
2086.80281	0.00956
2085.51704	0.00888
2084.23127	0.00877
2082.94550	0.00932
2081.65973	0.01021
2080.37396	0.01088
2079.08819	0.01102
2077.80242	0.01076
2076.51666	0.01048
2075.23089	0.01042
2073.94512	0.01046
2072.65935	0.01041
2071.37358	0.01018
2070.08781	0.00987
2068.80204	0.00961
2067.51627	0.00950
2066.23050	0.00949
2064.94474	0.00939
2063.65897	0.00906
2062.37320	0.00855
2061.08743	0.00808
2059.80166	0.00778
2058.51589	0.00769
2057.23012	0.00785
2055.94435	0.00830
2054.65859	0.00886
2053.37282	0.00908
2052.08705	0.00848
2050.80128	0.00710
2049.51551	0.00553
2048.22974	0.00463
2046.94397	0.00480
2045.65820	0.00569
2044.37243	0.00650
2043.08667	0.00671
2041.80090	0.00639
2040.51513	0.00585
2039.22936	0.00522
2037.94359	0.00440
2036.65782	0.00347
2035.37205	0.00282
2034.08628	0.00286
2032.80052	0.00362
2031.51475	0.00466
2030.22898	0.00545
2028.94321	0.00577
2027.65744	0.00574
2026.37167	0.00546
2025.08590	0.00482
2023.80013	0.00371
2022.51436	0.00247
2021.22860	0.00184
2019.94283	0.00235
2018.65706	0.00387
2017.37129	0.00567
2016.08552	0.00709
2014.79975	0.00787
2013.51398	0.00798
2012.22821	0.00753
2010.94245	0.00681
2009.65668	0.00632
2008.37091	0.00644
2007.08514	0.00710
2005.79937	0.00787
2004.51360	0.00832
2003.22783	0.00830
2001.94206	0.00795
2000.65629	0.00756
1999.37053	0.00739
1998.08476	0.00741
1996.79899	0.00747
1995.51322	0.00744
1994.22745	0.00735
1992.94168	0.00734
1991.65591	0.00771
1990.37014	0.00855
1989.08438	0.00948
1987.79861	0.00971
1986.51284	0.00884
1985.22707	0.00735
1983.94130	0.00627
1982.65553	0.00631
1981.36976	0.00753
1980.08399	0.00933
1978.79822	0.01072
1977.51246	0.01100
1976.22669	0.01024
1974.94092	0.00932
1973.65515	0.00913
1972.36938	0.00980
1971.08361	0.01079
1969.79784	0.01150
1968.51207	0.01175
1967.22631	0.01170
1965.94054	0.01148
1964.65477	0.01110
1963.36900	0.01057
1962.08323	0.01006
1960.79746	0.00979
1959.51169	0.00981
1958.22592	0.00989
1956.94015	0.00982
1955.65439	0.00959
1954.36862	0.00935
1953.08285	0.00924
1951.79708	0.00923
1950.51131	0.00931
1949.22554	0.00941
1947.93977	0.00948
1946.65400	0.00946
1945.36823	0.00940
1944.08247	0.00946
1942.79670	0.00973
1941.51093	0.01015
1940.22516	0.01057
1938.93939	0.01088
1937.65362	0.01104
1936.36785	0.01103
1935.08208	0.01089
1933.79632	0.01068
1932.51055	0.01048
1931.22478	0.01033
1929.93901	0.01021
1928.65324	0.01014
1927.36747	0.01014
1926.08170	0.01020
1924.79593	0.01028
1923.51016	0.01032
1922.22440	0.01026
1920.93863	0.01008
1919.65286	0.00990
1918.36709	0.00986
1917.08132	0.01000
1915.79555	0.01021
1914.50978	0.01039
1913.22401	0.01048
1911.93825	0.01046
1910.65248	0.01042
1909.36671	0.01044
1908.08094	0.01056
1906.79517	0.01075
1905.50940	0.01087
1904.22363	0.01080
1902.93786	0.01052
1901.65209	0.01013
1900.36633	0.00981
1899.08056	0.00975
1897.79479	0.00998
1896.50902	0.01041
1895.22325	0.01087
1893.93748	0.01124
1892.65171	0.01140
1891.36594	0.01133
1890.08018	0.01109
1888.79441	0.01082
1887.50864	0.01066
1886.22287	0.01060
1884.93710	0.01050
1883.65133	0.01025
1882.36556	0.00993
1881.07979	0.00978
1879.79402	0.00993
1878.50826	0.01032
1877.22249	0.01075
1875.93672	0.01105
1874.65095	0.01118
1873.36518	0.01117
1872.07941	0.01113
1870.79364	0.01113
1869.50787	0.01120
1868.22211	0.01127
1866.93634	0.01128
1865.65057	0.01119
1864.36480	0.01102
1863.07903	0.01082
1861.79326	0.01060
1860.50749	0.01037
1859.22172	0.01015
1857.93595	0.01002
1856.65019	0.01005
1855.36442	0.01024
1854.07865	0.01057
1852.79288	0.01095
1851.50711	0.01125
1850.22134	0.01130
1848.93557	0.01109
1847.64980	0.01077
1846.36404	0.01058
1845.07827	0.01062
1843.79250	0.01076
1842.50673	0.01084
1841.22096	0.01083
1839.93519	0.01078
1838.64942	0.01072
1837.36365	0.01072
1836.07788	0.01081
1834.79212	0.01090
1833.50635	0.01093
1832.22058	0.01091
1830.93481	0.01089
1829.64904	0.01096
1828.36327	0.01111
1827.07750	0.01134
1825.79173	0.01155
1824.50597	0.01161
1823.22020	0.01152
1821.93443	0.01136
1820.64866	0.01121
1819.36289	0.01110
1818.07712	0.01095
1816.79135	0.01079
1815.50558	0.01066
1814.21981	0.01065
1812.93405	0.01076
1811.64828	0.01089
1810.36251	0.01095
1809.07674	0.01095
1807.79097	0.01092
1806.50520	0.01085
1805.21943	0.01074
1803.93366	0.01062
1802.64790	0.01060
1801.36213	0.01069
1800.07636	0.01077
1798.79059	0.01073
1797.50482	0.01058
1796.21905	0.01043
1794.93328	0.01046
1793.64751	0.01070
1792.36174	0.01101
1791.07598	0.01121
1789.79021	0.01124
1788.50444	0.01117
1787.21867	0.01105
1785.93290	0.01089
1784.64713	0.01069
1783.36136	0.01050
1782.07559	0.01041
1780.78983	0.01042
1779.50406	0.01046
1778.21829	0.01048
1776.93252	0.01044
1775.64675	0.01039
1774.36098	0.01037
1773.07521	0.01037
1771.78944	0.01033
1770.50367	0.01029
1769.21791	0.01027
1767.93214	0.01022
1766.64637	0.01008
1765.36060	0.00988
1764.07483	0.00972
1762.78906	0.00960
1761.50329	0.00946
1760.21752	0.00929
1758.93176	0.00913
1757.64599	0.00896
1756.36022	0.00874
1755.07445	0.00846
1753.78868	0.00826
1752.50291	0.00820
1751.21714	0.00816
1749.93137	0.00798
1748.64560	0.00762
1747.35984	0.00719
1746.07407	0.00680
1744.78830	0.00656
1743.50253	0.00645
1742.21676	0.00637
1740.93099	0.00620
1739.64522	0.00585
1738.35945	0.00537
1737.07369	0.00496
1735.78792	0.00483
1734.50215	0.00484
1733.21638	0.00473
1731.93061	0.00445
1730.64484	0.00417
1729.35907	0.00407
1728.07330	0.00415
1726.78753	0.00438
1725.50177	0.00470
1724.21600	0.00502
1722.93023	0.00531
1721.64446	0.00559
1720.35869	0.00598
1719.07292	0.00653
1717.78715	0.00707
1716.50138	0.00746
1715.21561	0.00771
1713.92985	0.00796
1712.64408	0.00832
1711.35831	0.00879
1710.07254	0.00932
1708.78677	0.00989
1707.50100	0.01049
1706.21523	0.01110
1704.92946	0.01169
1703.64370	0.01236
1702.35793	0.01325
1701.07216	0.01428
1699.78639	0.01520
1698.50062	0.01601
1697.21485	0.01690
1695.92908	0.01782
1694.64331	0.01860
1693.35754	0.01923
1692.07178	0.01990
1690.78601	0.02064
1689.50024	0.02139
1688.21447	0.02217
1686.92870	0.02309
1685.64293	0.02415
1684.35716	0.02513
1683.07139	0.02585
1681.78563	0.02641
1680.49986	0.02697
1679.21409	0.02757
1677.92832	0.02820
1676.64255	0.02890
1675.35678	0.02961
1674.07101	0.03029
1672.78524	0.03098
1671.49947	0.03172
1670.21371	0.03245
1668.92794	0.03306
1667.64217	0.03353
1666.35640	0.03399
1665.07063	0.03455
1663.78486	0.03521
1662.49909	0.03590
1661.21332	0.03658
1659.92756	0.03725
1658.64179	0.03787
1657.35602	0.03846
1656.07025	0.03921
1654.78448	0.04023
1653.49871	0.04128
1652.21294	0.04192
1650.92717	0.04209
1649.64140	0.04218
1648.35564	0.04250
1647.06987	0.04298
1645.78410	0.04338
1644.49833	0.04362
1643.21256	0.04376
1641.92679	0.04389
1640.64102	0.04401
1639.35525	0.04411
1638.06949	0.04426
1636.78372	0.04447
1635.49795	0.04460
1634.21218	0.04452
1632.92641	0.04424
1631.64064	0.04384
1630.35487	0.04335
1629.06910	0.04278
1627.78333	0.04216
1626.49757	0.04151
1625.21180	0.04086
1623.92603	0.04018
1622.64026	0.03939
1621.35449	0.03850
1620.06872	0.03765
1618.78295	0.03699
1617.49718	0.03647
1616.21142	0.03585
1614.92565	0.03503
1613.63988	0.03413
1612.35411	0.03328
1611.06834	0.03252
1609.78257	0.03183
1608.49680	0.03124
1607.21103	0.03071
1605.92526	0.03021
1604.63950	0.02971
1603.35373	0.02921
1602.06796	0.02872
1600.78219	0.02832
1599.49642	0.02805
1598.21065	0.02794
1596.92488	0.02793
1595.63911	0.02797
1594.35335	0.02802
1593.06758	0.02810
1591.78181	0.02822
1590.49604	0.02838
1589.21027	0.02855
1587.92450	0.02871
1586.63873	0.02888
1585.35296	0.02910
1584.06719	0.02939
1582.78143	0.02976
1581.49566	0.03015
1580.20989	0.03055
1578.92412	0.03104
1577.63835	0.03168
1576.35258	0.03235
1575.06681	0.03288
1573.78104	0.03331
1572.49528	0.03384
1571.20951	0.03454
1569.92374	0.03527
1568.63797	0.03589
1567.35220	0.03641
1566.06643	0.03689
1564.78066	0.03734
1563.49489	0.03778
1562.20912	0.03832
1560.92336	0.03904
1559.63759	0.03979
1558.35182	0.04032
1557.06605	0.04065
1555.78028	0.04097
1554.49451	0.04136
1553.20874	0.04174
1551.92297	0.04207
1550.63721	0.04238
1549.35144	0.04263
1548.06567	0.04282
1546.77990	0.04295
1545.49413	0.04303
1544.20836	0.04312
1542.92259	0.04328
1541.63682	0.04354
1540.35105	0.04381
1539.06529	0.04384
1537.77952	0.04359
1536.49375	0.04328
1535.20798	0.04315
1533.92221	0.04318
1532.63644	0.04324
1531.35067	0.04326
1530.06490	0.04325
1528.77914	0.04322
1527.49337	0.04313
1526.20760	0.04300
1524.92183	0.04287
1523.63606	0.04287
1522.35029	0.04300
1521.06452	0.04312
1519.77875	0.04313
1518.49298	0.04308
1517.20722	0.04305
1515.92145	0.04303
1514.63568	0.04303
1513.34991	0.04310
1512.06414	0.04324
1510.77837	0.04343
1509.49260	0.04373
1508.20683	0.04419
1506.92107	0.04464
1505.63530	0.04485
1504.34953	0.04476
1503.06376	0.04457
1501.77799	0.04444
1500.49222	0.04442
1499.20645	0.04449
1497.92068	0.04461
1496.63491	0.04468
1495.34915	0.04463
1494.06338	0.04449
1492.77761	0.04440
1491.49184	0.04444
1490.20607	0.04457
1488.92030	0.04472
1487.63453	0.04489
1486.34876	0.04508
1485.06299	0.04533
1483.77723	0.04564
1482.49146	0.04602
1481.20569	0.04643
1479.91992	0.04683
1478.63415	0.04727
1477.34838	0.04775
1476.06261	0.04825
1474.77684	0.04874
1473.49108	0.04916
1472.20531	0.04943
1470.91954	0.04951
1469.63377	0.04950
1468.34800	0.04955
1467.06223	0.04976
1465.77646	0.05015
1464.49069	0.05062
1463.20492	0.05110
1461.91916	0.05158
1460.63339	0.05213
1459.34762	0.05282
1458.06185	0.05363
1456.77608	0.05435
1455.49031	0.05483
1454.20454	0.05515
1452.91877	0.05549
1451.63301	0.05591
1450.34724	0.05640
1449.06147	0.05691
1447.77570	0.05731
1446.48993	0.05754
1445.20416	0.05762
1443.91839	0.05758
1442.63262	0.05746
1441.34685	0.05724
1440.06109	0.05697
1438.77532	0.05674
1437.48955	0.05659
1436.20378	0.05644
1434.91801	0.05628
1433.63224	0.05621
1432.34647	0.05633
1431.06070	0.05663
1429.77494	0.05702
1428.48917	0.05746
1427.20340	0.05794
1425.91763	0.05850
1424.63186	0.05913
1423.34609	0.05980
1422.06032	0.06054
1420.77455	0.06138
1419.48878	0.06224
1418.20302	0.06297
1416.91725	0.06351
1415.63148	0.06392
1414.34571	0.06424
1413.05994	0.06447
1411.77417	0.06462
1410.48840	0.06468
1409.20263	0.06464
1407.91687	0.06454
1406.63110	0.06438
1405.34533	0.06411
1404.05956	0.06367
1402.77379	0.06307
1401.48802	0.06235
1400.20225	0.06155
1398.91648	0.06067
1397.63071	0.05970
1396.34495	0.05866
1395.05918	0.05759
1393.77341	0.05648
1392.48764	0.05537
1391.20187	0.05430
1389.91610	0.05326
1388.63033	0.05220
1387.34456	0.05109
1386.05880	0.04992
1384.77303	0.04871
1383.48726	0.04750
1382.20149	0.04630
1380.91572	0.04512
1379.62995	0.04395
1378.34418	0.04278
1377.05841	0.04161
1375.77264	0.04043
1374.48688	0.03924
1373.20111	0.03806
1371.91534	0.03691
1370.62957	0.03582
1369.34380	0.03478
1368.05803	0.03377
1366.77226	0.03279
1365.48649	0.03188
1364.20073	0.03106
1362.91496	0.03034
1361.62919	0.02969
1360.34342	0.02904
1359.05765	0.02843
1357.77188	0.02786
1356.48611	0.02738
1355.20034	0.02697
1353.91457	0.02658
1352.62881	0.02620
1351.34304	0.02585
1350.05727	0.02557
1348.77150	0.02536
1347.48573	0.02519
1346.19996	0.02501
1344.91419	0.02479
1343.62842	0.02457
1342.34266	0.02437
1341.05689	0.02418
1339.77112	0.02396
1338.48535	0.02370
1337.19958	0.02341
1335.91381	0.02314
1334.62804	0.02289
1333.34227	0.02266
1332.05650	0.02241
1330.77074	0.02215
1329.48497	0.02185
1328.19920	0.02154
1326.91343	0.02123
1325.62766	0.02094
1324.34189	0.02070
1323.05612	0.02052
1321.77035	0.02036
1320.48459	0.02020
1319.19882	0.02002
1317.91305	0.01982
1316.62728	0.01963
1315.34151	0.01947
1314.05574	0.01933
1312.76997	0.01919
1311.48420	0.01903
1310.19843	0.01885
1308.91267	0.01870
1307.62690	0.01856
1306.34113	0.01839
1305.05536	0.01819
1303.76959	0.01797
1302.48382	0.01777
1301.19805	0.01760
1299.91228	0.01743
1298.62652	0.01723
1297.34075	0.01700
1296.05498	0.01673
1294.76921	0.01639
1293.48344	0.01599
1292.19767	0.01559
1290.91190	0.01524
1289.62613	0.01496
1288.34036	0.01473
1287.05460	0.01449
1285.76883	0.01419
1284.48306	0.01384
1283.19729	0.01346
1281.91152	0.01312
1280.62575	0.01288
1279.33998	0.01279
1278.05421	0.01287
1276.76845	0.01308
1275.48268	0.01336
1274.19691	0.01365
1272.91114	0.01387
1271.62537	0.01402
1270.33960	0.01412
1269.05383	0.01420
1267.76806	0.01427
1266.48229	0.01435
1265.19653	0.01439
1263.91076	0.01439
1262.62499	0.01438
1261.33922	0.01442
1260.05345	0.01452
1258.76768	0.01466
1257.48191	0.01482
1256.19614	0.01494
1254.91037	0.01503
1253.62461	0.01507
1252.33884	0.01508
1251.05307	0.01508
1249.76730	0.01511
1248.48153	0.01516
1247.19576	0.01524
1245.90999	0.01533
1244.62422	0.01543
1243.33846	0.01551
1242.05269	0.01556
1240.76692	0.01559
1239.48115	0.01557
1238.19538	0.01552
1236.90961	0.01545
1235.62384	0.01537
1234.33807	0.01530
1233.05230	0.01526
1231.76654	0.01522
1230.48077	0.01515
1229.19500	0.01498
1227.90923	0.01471
1226.62346	0.01438
1225.33769	0.01404
1224.05192	0.01376
1222.76615	0.01353
1221.48039	0.01335
1220.19462	0.01318
1218.90885	0.01300
1217.62308	0.01280
1216.33731	0.01260
1215.05154	0.01242
1213.76577	0.01229
1212.48000	0.01220
1211.19423	0.01214
1209.90847	0.01211
1208.62270	0.01209
1207.33693	0.01207
1206.05116	0.01205
1204.76539	0.01202
1203.47962	0.01201
1202.19385	0.01201
1200.90808	0.01197
1199.62232	0.01181
1198.33655	0.01168
1197.05078	0.01154
1195.76501	0.01143
1194.47924	0.01134
1193.19347	0.01123
1191.90770	0.01106
1190.62193	0.01082
1189.33616	0.01060
1188.05040	0.01046
1186.76463	0.01038
1185.47886	0.01031
1184.19309	0.01021
1182.90732	0.01009
1181.62155	0.01000
1180.33578	0.00994
1179.05001	0.00991
1177.76425	0.00987
1176.47848	0.00977
1175.19271	0.00963
1173.90694	0.00951
1172.62117	0.00946
1171.33540	0.00944
1170.04963	0.00939
1168.76386	0.00924
1167.47809	0.00904
1166.19233	0.00881
1164.90656	0.00859
1163.62079	0.00840
1162.33502	0.00822
1161.04925	0.00811
1159.76348	0.00808
1158.47771	0.00819
1157.19194	0.00845
1155.90618	0.00884
1154.62041	0.00928
1153.33464	0.00969
1152.04887	0.01004
1150.76310	0.01031
1149.47733	0.01053
1148.19156	0.01072
1146.90579	0.01096
1145.62002	0.01128
1144.33426	0.01169
1143.04849	0.01214
1141.76272	0.01258
1140.47695	0.01301
1139.19118	0.01347
1137.90541	0.01396
1136.61964	0.01449
1135.33387	0.01508
1134.04811	0.01576
1132.76234	0.01655
1131.47657	0.01741
1130.19080	0.01831
1128.90503	0.01925
1127.61926	0.02029
1126.33349	0.02151
1125.04772	0.02293
1123.76195	0.02452
1122.47619	0.02622
1121.19042	0.02802
1119.90465	0.02991
1118.61888	0.03189
1117.33311	0.03392
1116.04734	0.03595
1114.76157	0.03793
1113.47580	0.03986
1112.19004	0.04178
1110.90427	0.04371
1109.61850	0.04567
1108.33273	0.04766
1107.04696	0.04966
1105.76119	0.05164
1104.47542	0.05357
1103.18965	0.05538
1101.90388	0.05708
1100.61812	0.05867
1099.33235	0.06016
1098.04658	0.06154
1096.76081	0.06286
1095.47504	0.06416
1094.18927	0.06547
1092.90350	0.06679
1091.61773	0.06808
1090.33197	0.06933
1089.04620	0.07054
1087.76043	0.07174
1086.47466	0.07292
1085.18889	0.07410
1083.90312	0.07530
1082.61735	0.07654
1081.33158	0.07781
1080.04581	0.07907
1078.76005	0.08032
1077.47428	0.08159
1076.18851	0.08293
1074.90274	0.08438
1073.61697	0.08597
1072.33120	0.08770
1071.04543	0.08951
1069.75966	0.09129
1068.47390	0.09298
1067.18813	0.09463
1065.90236	0.09632
1064.61659	0.09812
1063.33082	0.10003
1062.04505	0.10198
1060.75928	0.10398
1059.47351	0.10600
1058.18774	0.10800
1056.90198	0.10989
1055.61621	0.11162
1054.33044	0.11325
1053.04467	0.11485
1051.75890	0.11648
1050.47313	0.11812
1049.18736	0.11978
1047.90159	0.12151
1046.61583	0.12332
1045.33006	0.12518
1044.04429	0.12705
1042.75852	0.12887
1041.47275	0.13064
1040.18698	0.13236
1038.90121	0.13409
1037.61544	0.13586
1036.32967	0.13769
1035.04391	0.13952
1033.75814	0.14131
1032.47237	0.14302
1031.18660	0.14462
1029.90083	0.14611
1028.61506	0.14749
1027.32929	0.14871
1026.04352	0.14980
1024.75775	0.15076
1023.47199	0.15162
1022.18622	0.15233
1020.90045	0.15281
1019.61468	0.15304
1018.32891	0.15304
1017.04314	0.15290
1015.75737	0.15262
1014.47160	0.15218
1013.18584	0.15149
1011.90007	0.15051
1010.61430	0.14928
1009.32853	0.14787
1008.04276	0.14635
1006.75699	0.14469
1005.47122	0.14286
1004.18545	0.14084
1002.89968	0.13866
1001.61392	0.13639
1000.32815	0.13405
999.04238	0.13155
997.75661	0.12885
996.47084	0.12596
995.18507	0.12298
993.89930	0.11996
992.61353	0.11693
991.32777	0.11386
990.04200	0.11078
988.75623	0.10775
987.47046	0.10479
986.18469	0.10190
984.89892	0.09900
983.61315	0.09605
982.32738	0.09308
981.04161	0.09023
979.75585	0.08760
978.47008	0.08519
977.18431	0.08295
975.89854	0.08081
974.61277	0.07876
973.32700	0.07681
972.04123	0.07508
970.75546	0.07370
969.46970	0.07276
968.18393	0.07221
966.89816	0.07199
965.61239	0.07208
964.32662	0.07244
963.04085	0.07291
961.75508	0.07331
960.46931	0.07346
959.18354	0.07329
957.89778	0.07277
956.61201	0.07190
955.32624	0.07073
954.04047	0.06931
952.75470	0.06778
951.46893	0.06624
950.18316	0.06474
948.89739	0.06327
947.61163	0.06180
946.32586	0.06033
945.04009	0.05884
943.75432	0.05737
942.46855	0.05593
941.18278	0.05456
939.89701	0.05327
938.61124	0.05203
937.32547	0.05083
936.03971	0.04966
934.75394	0.04854
933.46817	0.04752
932.18240	0.04662
930.89663	0.04580
929.61086	0.04496
928.32509	0.04411
927.03932	0.04332
925.75356	0.04265
924.46779	0.04210
923.18202	0.04158
921.89625	0.04100
920.61048	0.04034
919.32471	0.03968
918.03894	0.03909
916.75317	0.03859
915.46740	0.03816
914.18164	0.03776
912.89587	0.03738
911.61010	0.03699
910.32433	0.03666
909.03856	0.03640
907.75279	0.03615
906.46702	0.03580
905.18125	0.03535
903.89549	0.03485
902.60972	0.03437
901.32395	0.03394
900.03818	0.03362
898.75241	0.03343
897.46664	0.03332
896.18087	0.03316
894.89510	0.03286
893.60933	0.03247
892.32357	0.03213
891.03780	0.03197
889.75203	0.03203
888.46626	0.03229
887.18049	0.03273
885.89472	0.03334
884.60895	0.03419
883.32318	0.03541
882.03742	0.03701
880.75165	0.03875
879.46588	0.04029
878.18011	0.04140
876.89434	0.04217
875.60857	0.04286
874.32280	0.04363
873.03703	0.04434
871.75126	0.04475
870.46550	0.04467
869.17973	0.04411
867.89396	0.04321
866.60819	0.04213
865.32242	0.04097
864.03665	0.03977
862.75088	0.03854
861.46511	0.03736
860.17935	0.03626
858.89358	0.03521
857.60781	0.03419
856.32204	0.03324
855.03627	0.03246
853.75050	0.03188
852.46473	0.03146
851.17896	0.03111
849.89319	0.03076
848.60743	0.03043
847.32166	0.03012
846.03589	0.02982
844.75012	0.02946
843.46435	0.02908
842.17858	0.02874
840.89281	0.02850
839.60704	0.02836
838.32128	0.02829
837.03551	0.02825
835.74974	0.02821
834.46397	0.02815
833.17820	0.02805
831.89243	0.02797
830.60666	0.02794
829.32089	0.02796
828.03512	0.02799
826.74936	0.02799
825.46359	0.02795
824.17782	0.02792
822.89205	0.02791
821.60628	0.02793
820.32051	0.02792
819.03474	0.02785
817.74897	0.02770
816.46321	0.02754
815.17744	0.02746
813.89167	0.02750
812.60590	0.02761
811.32013	0.02765
810.03436	0.02756
808.74859	0.02738
807.46282	0.02725
806.17705	0.02722
804.89129	0.02728
803.60552	0.02737
802.31975	0.02746
801.03398	0.02752
799.74821	0.02755
798.46244	0.02754
797.17667	0.02754
795.89090	0.02759
794.60513	0.02763
793.31937	0.02761
792.03360	0.02751
790.74783	0.02737
789.46206	0.02723
788.17629	0.02710
786.89052	0.02700
785.60475	0.02695
784.31898	0.02697
783.03322	0.02703
781.74745	0.02706
780.46168	0.02704
779.17591	0.02703
777.89014	0.02705
776.60437	0.02707
775.31860	0.02705
774.03283	0.02699
772.74706	0.02693
771.46130	0.02692
770.17553	0.02695
768.88976	0.02701
767.60399	0.02710
766.31822	0.02722
765.03245	0.02734
763.74668	0.02744
762.46091	0.02750
761.17515	0.02756
759.88938	0.02761
758.60361	0.02764
757.31784	0.02762
756.03207	0.02759
754.74630	0.02759
753.46053	0.02764
752.17476	0.02769
750.88899	0.02768
749.60323	0.02761
748.31746	0.02752
747.03169	0.02746
745.74592	0.02734
744.46015	0.02709
743.17438	0.02677
741.88861	0.02659
740.60284	0.02664
739.31708	0.02689
738.03131	0.02721
736.74554	0.02749
735.45977	0.02765
734.17400	0.02767
732.88823	0.02758
731.60246	0.02750
730.31669	0.02751
729.03092	0.02762
727.74516	0.02772
726.45939	0.02770
725.17362	0.02755
723.88785	0.02728
722.60208	0.02724
721.31631	0.02734
720.03054	0.02748
718.74477	0.02759
717.45901	0.02765
716.17324	0.02764
714.88747	0.02756
713.60170	0.02745
712.31593	0.02736
711.03016	0.02735
709.74439	0.02742
708.45862	0.02755
707.17285	0.02771
705.88709	0.02783
704.60132	0.02789
703.31555	0.02787
702.02978	0.02785
700.74401	0.02785
699.45824	0.02788
698.17247	0.02790
696.88670	0.02788
695.60094	0.02786
694.31517	0.02786
693.02940	0.02789
691.74363	0.02794
690.45786	0.02797
689.17209	0.02794
687.88632	0.02787
686.60055	0.02778
685.31478	0.02768
684.02902	0.02759
682.74325	0.02751
681.45748	0.02746
680.17171	0.02745
678.88594	0.02747
677.60017	0.02752
676.31440	0.02755
675.02863	0.02757
673.74287	0.02756
672.45710	0.02753
671.17133	0.02753
669.88556	0.02759
668.59979	0.02769
667.31402	0.02778
666.02825	0.02777
664.74248	0.02765
663.45671	0.02748
662.17095	0.02734
660.88518	0.02728
659.59941	0.02729
658.31364	0.02730
657.02787	0.02726
655.74210	0.02718
654.45633	0.02706
653.17056	0.02694
651.88480	0.02683
650.59903	0.02669
649.31326	0.02658
648.02749	0.02654
646.74172	0.02660
645.45595	0.02670
644.17018	0.02680
642.88441	0.02684
641.59864	0.02684
640.31288	0.02683
639.02711	0.02686
637.74134	0.02697
636.45557	0.02717
635.16980	0.02744
633.88403	0.02772
632.59826	0.02791
631.31249	0.02810
630.02673	0.02853
628.74096	0.02874
627.45519	0.02796
626.16942	0.02846
624.88365	0.03013
623.59788	0.03210
622.31211	0.03364
621.02634	0.03426
619.74057	0.03438
618.45481	0.03517
617.16904	0.03754
615.88327	0.04124
614.59750	0.04522
613.31173	0.04842
612.02596	0.05039
610.74019	0.05140
609.45442	0.05238
608.16866	0.05431
606.88289	0.05754
605.59712	0.06153
604.31135	0.06537
603.02558	0.06830
601.73981	0.06990
600.45404	0.07007
599.16827	0.06899
597.88250	0.06716
596.59674	0.06513
595.31097	0.06332
594.02520	0.06184
592.73943	0.06060
591.45366	0.05956
590.16789	0.05878
588.88212	0.05841
587.59635	0.05849
586.31059	0.05894
585.02482	0.05967
583.73905	0.06061
582.45328	0.06174
581.16751	0.06302
579.88174	0.06439
578.59597	0.06582
577.31020	0.06733
576.02443	0.06890
574.73867	0.07047
573.45290	0.07197
572.16713	0.07347
570.88136	0.07508
569.59559	0.07692
568.30982	0.07900
567.02405	0.08123
565.73828	0.08353
564.45251	0.08573
563.16675	0.08765
561.88098	0.08906
560.59521	0.08973
559.30944	0.08949
558.02367	0.08828
556.73790	0.08618
555.45213	0.08347
554.16636	0.08051
552.88060	0.07753
551.59483	0.07464
550.30906	0.07183
549.02329	0.06910
547.73752	0.06645
546.45175	0.06390
545.16598	0.06149
543.88021	0.05924
542.59444	0.05719
541.30868	0.05533
540.02291	0.05368
538.73714	0.05229
537.45137	0.05113
536.16560	0.05011
534.87983	0.04910
533.59406	0.04808
532.30829	0.04709
531.02253	0.04619
529.73676	0.04537
528.45099	0.04456
527.16522	0.04365
525.87945	0.04261
524.59368	0.04149
523.30791	0.04041
522.02214	0.03949
520.73637	0.03877
519.45061	0.03817
518.16484	0.03759
516.87907	0.03700
515.59330	0.03640
514.30753	0.03580
513.02176	0.03516
511.73599	0.03453
510.45022	0.03396
509.16446	0.03348
507.87869	0.03306
506.59292	0.03266
505.30715	0.03226
504.02138	0.03189
502.73561	0.03156
501.44984	0.03124
500.16407	0.03093
498.87830	0.03061
497.59254	0.03026
496.30677	0.02984
495.02100	0.02937
493.73523	0.02895
492.44946	0.02865
491.16369	0.02848
489.87792	0.02836
488.59215	0.02822
487.30639	0.02807
486.02062	0.02791
484.73485	0.02777
483.44908	0.02762
482.16331	0.02748
480.87754	0.02737
479.59177	0.02733
478.30600	0.02733
477.02023	0.02732
475.73447	0.02729
474.44870	0.02726
473.16293	0.02722
471.87716	0.02713
470.59139	0.02699
469.30562	0.02683
468.01985	0.02669
466.73408	0.02659
465.44832	0.02654
464.16255	0.02647
462.87678	0.02635
461.59101	0.02612
460.30524	0.02578
459.01947	0.02540
457.73370	0.02506
456.44793	0.02481
455.16216	0.02459
453.87640	0.02434
452.59063	0.02401
451.30486	0.02363
450.01909	0.02329
448.73332	0.02304
447.44755	0.02287
446.16178	0.02273
444.87601	0.02260
443.59025	0.02247
442.30448	0.02234
441.01871	0.02220
439.73294	0.02207
438.44717	0.02193
437.16140	0.02179
435.87563	0.02166
434.58986	0.02156
433.30409	0.02150
432.01833	0.02149
430.73256	0.02149
429.44679	0.02146
428.16102	0.02136
426.87525	0.02119
425.58948	0.02097
424.30371	0.02074
423.01794	0.02056
421.73218	0.02049
420.44641	0.02050
419.16064	0.02053
417.87487	0.02049
416.58910	0.02033
415.30333	0.02010
414.01756	0.01988
412.73179	0.01971
411.44602	0.01961
410.16026	0.01957
408.87449	0.01956
407.58872	0.01958
406.30295	0.01961
405.01718	0.01962
403.73141	0.01963
402.44564	0.01964
401.15987	0.01970
399.87411	0.01979
