3997.45528	0.02588
3996.16951	0.02566
3994.88374	0.02524
3993.59798	0.02478
3992.31221	0.02459
3991.02644	0.02477
3989.74067	0.02515
3988.45490	0.02544
3987.16913	0.02555
3985.88336	0.02561
3984.59759	0.02582
3983.31183	0.02624
3982.02606	0.02675
3980.74029	0.02715
3979.45452	0.02745
3978.16875	0.02773
3976.88298	0.02798
3975.59721	0.02800
3974.31144	0.02766
3973.02567	0.02704
3971.73991	0.02640
3970.45414	0.02576
3969.16837	0.02500
3967.88260	0.02412
3966.59683	0.02345
3965.31106	0.02328
3964.02529	0.02356
3962.73952	0.02399
3961.45376	0.02439
3960.16799	0.02475
3958.88222	0.02503
3957.59645	0.02503
3956.31068	0.02468
3955.02491	0.02424
3953.73914	0.02410
3952.45337	0.02444
3951.16760	0.02506
3949.88184	0.02556
3948.59607	0.02566
3947.31030	0.02544
3946.02453	0.02516
3944.73876	0.02496
3943.45299	0.02475
3942.16722	0.02446
3940.88145	0.02418
3939.59569	0.02410
3938.30992	0.02435
3937.02415	0.02487
3935.73838	0.02548
3934.45261	0.02582
3933.16684	0.02563
3931.88107	0.02491
3930.59530	0.02396
3929.30953	0.02312
3928.02377	0.02257
3926.73800	0.02241
3925.45223	0.02275
3924.16646	0.02361
3922.88069	0.02470
3921.59492	0.02552
3920.30915	0.02567
3919.02338	0.02525
3917.73762	0.02476
3916.45185	0.02470
3915.16608	0.02521
3913.88031	0.02601
3912.59454	0.02661
3911.30877	0.02664
3910.02300	0.02600
3908.73723	0.02501
3907.45146	0.02427
3906.16570	0.02420
3904.87993	0.02476
3903.59416	0.02546
3902.30839	0.02583
3901.02262	0.02580
3899.73685	0.02556
3898.45108	0.02535
3897.16531	0.02533
3895.87955	0.02554
3894.59378	0.02588
3893.30801	0.02610
3892.02224	0.02606
3890.73647	0.02595
3889.45070	0.02594
3888.16493	0.02583
3886.87916	0.02525
3885.59339	0.02424
3884.30763	0.02337
3883.02186	0.02310
3881.73609	0.02329
3880.45032	0.02349
3879.16455	0.02349
3877.87878	0.02349
3876.59301	0.02380
3875.30724	0.02453
3874.02148	0.02560
3872.73571	0.02680
3871.44994	0.02782
3870.16417	0.02832
3868.87840	0.02826
3867.59263	0.02783
3866.30686	0.02720
3865.02109	0.02641
3863.73532	0.02561
3862.44956	0.02516
3861.16379	0.02527
3859.87802	0.02573
3858.59225	0.02607
3857.30648	0.02608
3856.02071	0.02596
3854.73494	0.02603
3853.44917	0.02635
3852.16341	0.02673
3850.87764	0.02696
3849.59187	0.02691
3848.30610	0.02659
3847.02033	0.02606
3845.73456	0.02544
3844.44879	0.02480
3843.16302	0.02426
3841.87725	0.02396
3840.59149	0.02398
3839.30572	0.02420
3838.01995	0.02433
3836.73418	0.02427
3835.44841	0.02419
3834.16264	0.02437
3832.87687	0.02480
3831.59110	0.02516
3830.30534	0.02512
3829.01957	0.02473
3827.73380	0.02436
3826.44803	0.02423
3825.16226	0.02410
3823.87649	0.02365
3822.59072	0.02298
3821.30495	0.02258
3820.01918	0.02285
3818.73342	0.02367
3817.44765	0.02454
3816.16188	0.02498
3814.87611	0.02494
3813.59034	0.02475
3812.30457	0.02468
3811.01880	0.02462
3809.73303	0.02430
3808.44726	0.02378
3807.16150	0.02338
3805.87573	0.02328
3804.58996	0.02325
3803.30419	0.02297
3802.01842	0.02244
3800.73265	0.02200
3799.44688	0.02197
3798.16111	0.02239
3796.87535	0.02301
3795.58958	0.02354
3794.30381	0.02384
3793.01804	0.02391
3791.73227	0.02391
3790.44650	0.02399
3789.16073	0.02412
3787.87496	0.02415
3786.58919	0.02402
3785.30343	0.02377
3784.01766	0.02352
3782.73189	0.02332
3781.44612	0.02324
3780.16035	0.02332
3778.87458	0.02354
3777.58881	0.02372
3776.30304	0.02372
3775.01728	0.02363
3773.73151	0.02364
3772.44574	0.02375
3771.15997	0.02373
3769.87420	0.02341
3768.58843	0.02295
3767.30266	0.02267
3766.01689	0.02274
3764.73112	0.02310
3763.44536	0.02363
3762.15959	0.02428
3760.87382	0.02486
3759.58805	0.02509
3758.30228	0.02484
3757.01651	0.02426
3755.73074	0.02361
3754.44497	0.02297
3753.15921	0.02223
3751.87344	0.02148
3750.58767	0.02112
3749.30190	0.02157
3748.01613	0.02269
3746.73036	0.02371
3745.44459	0.02390
3744.15882	0.02316
3742.87305	0.02206
3741.58729	0.02122
3740.30152	0.02097
3739.01575	0.02126
3737.72998	0.02191
3736.44421	0.02260
3735.15844	0.02299
3733.87267	0.02293
3732.58690	0.02266
3731.30114	0.02257
3730.01537	0.02279
3728.72960	0.02304
3727.44383	0.02308
3726.15806	0.02294
3724.87229	0.02288
3723.58652	0.02313
3722.30075	0.02367
3721.01498	0.02431
3719.72922	0.02475
3718.44345	0.02481
3717.15768	0.02453
3715.87191	0.02421
3714.58614	0.02409
3713.30037	0.02408
3712.01460	0.02390
3710.72883	0.02344
3709.44307	0.02289
3708.15730	0.02254
3706.87153	0.02240
3705.58576	0.02234
3704.29999	0.02225
3703.01422	0.02221
3701.72845	0.02237
3700.44268	0.02263
3699.15691	0.02265
3697.87115	0.02224
3696.58538	0.02157
3695.29961	0.02105
3694.01384	0.02104
3692.72807	0.02162
3691.44230	0.02250
3690.15653	0.02323
3688.87076	0.02345
3687.58500	0.02317
3686.29923	0.02262
3685.01346	0.02210
3683.72769	0.02171
3682.44192	0.02144
3681.15615	0.02143
3679.87038	0.02182
3678.58461	0.02257
3677.29884	0.02341
3676.01308	0.02408
3674.72731	0.02445
3673.44154	0.02446
3672.15577	0.02409
3670.87000	0.02342
3669.58423	0.02268
3668.29846	0.02220
3667.01269	0.02217
3665.72693	0.02261
3664.44116	0.02322
3663.15539	0.02361
3661.86962	0.02353
3660.58385	0.02323
3659.29808	0.02326
3658.01231	0.02393
3656.72654	0.02494
3655.44077	0.02565
3654.15501	0.02572
3652.86924	0.02545
3651.58347	0.02544
3650.29770	0.02601
3649.01193	0.02690
3647.72616	0.02752
3646.44039	0.02750
3645.15462	0.02689
3643.86886	0.02602
3642.58309	0.02532
3641.29732	0.02508
3640.01155	0.02536
3638.72578	0.02597
3637.44001	0.02664
3636.15424	0.02716
3634.86847	0.02744
3633.58270	0.02743
3632.29694	0.02721
3631.01117	0.02695
3629.72540	0.02684
3628.43963	0.02694
3627.15386	0.02726
3625.86809	0.02773
3624.58232	0.02822
3623.29655	0.02855
3622.01079	0.02872
3620.72502	0.02900
3619.43925	0.02964
3618.15348	0.03048
3616.86771	0.03110
3615.58194	0.03129
3614.29617	0.03125
3613.01040	0.03133
3611.72463	0.03154
3610.43887	0.03169
3609.15310	0.03164
3607.86733	0.03150
3606.58156	0.03149
3605.29579	0.03167
3604.01002	0.03185
3602.72425	0.03185
3601.43848	0.03180
3600.15272	0.03204
3598.86695	0.03274
3597.58118	0.03363
3596.29541	0.03425
3595.00964	0.03432
3593.72387	0.03385
3592.43810	0.03318
3591.15233	0.03280
3589.86656	0.03298
3588.58080	0.03369
3587.29503	0.03460
3586.00926	0.03529
3584.72349	0.03554
3583.43772	0.03534
3582.15195	0.03478
3580.86618	0.03409
3579.58041	0.03362
3578.29464	0.03365
3577.00888	0.03412
3575.72311	0.03477
3574.43734	0.03542
3573.15157	0.03608
3571.86580	0.03680
3570.58003	0.03754
3569.29426	0.03820
3568.00849	0.03869
3566.72273	0.03891
3565.43696	0.03883
3564.15119	0.03843
3562.86542	0.03777
3561.57965	0.03693
3560.29388	0.03617
3559.00811	0.03585
3557.72234	0.03611
3556.43657	0.03676
3555.15081	0.03748
3553.86504	0.03805
3552.57927	0.03836
3551.29350	0.03831
3550.00773	0.03800
3548.72196	0.03775
3547.43619	0.03792
3546.15042	0.03860
3544.86466	0.03953
3543.57889	0.04033
3542.29312	0.04072
3541.00735	0.04073
3539.72158	0.04059
3538.43581	0.04058
3537.15004	0.04086
3535.86427	0.04138
3534.57850	0.04199
3533.29274	0.04250
3532.00697	0.04279
3530.72120	0.04285
3529.43543	0.04274
3528.14966	0.04256
3526.86389	0.04242
3525.57812	0.04249
3524.29235	0.04286
3523.00659	0.04351
3521.72082	0.04425
3520.43505	0.04484
3519.14928	0.04517
3517.86351	0.04529
3516.57774	0.04529
3515.29197	0.04522
3514.00620	0.04512
3512.72043	0.04503
3511.43467	0.04498
3510.14890	0.04493
3508.86313	0.04481
3507.57736	0.04460
3506.29159	0.04442
3505.00582	0.04449
3503.72005	0.04492
3502.43428	0.04562
3501.14852	0.04642
3499.86275	0.04715
3498.57698	0.04763
3497.29121	0.04764
3496.00544	0.04709
3494.71967	0.04631
3493.43390	0.04582
3492.14813	0.04581
3490.86236	0.04607
3489.57660	0.04626
3488.29083	0.04633
3487.00506	0.04643
3485.71929	0.04666
3484.43352	0.04692
3483.14775	0.04716
3481.86198	0.04751
3480.57621	0.04805
3479.29045	0.04864
3478.00468	0.04894
3476.71891	0.04878
3475.43314	0.04830
3474.14737	0.04789
3472.86160	0.04777
3471.57583	0.04786
3470.29006	0.04803
3469.00429	0.04831
3467.71853	0.04885
3466.43276	0.04955
3465.14699	0.05010
3463.86122	0.05026
3462.57545	0.05012
3461.28968	0.04997
3460.00391	0.04999
3458.71814	0.05018
3457.43238	0.05052
3456.14661	0.05088
3454.86084	0.05105
3453.57507	0.05089
3452.28930	0.05052
3451.00353	0.05027
3449.71776	0.05030
3448.43199	0.05048
3447.14622	0.05060
3445.86046	0.05061
3444.57469	0.05056
3443.28892	0.05046
3442.00315	0.05028
3440.71738	0.05013
3439.43161	0.05017
3438.14584	0.05036
3436.86007	0.05048
3435.57431	0.05041
3434.28854	0.05037
3433.00277	0.05068
3431.71700	0.05143
3430.43123	0.05236
3429.14546	0.05309
3427.85969	0.05339
3426.57392	0.05329
3425.28815	0.05297
3424.00239	0.05267
3422.71662	0.05256
3421.43085	0.05268
3420.14508	0.05293
3418.85931	0.05310
3417.57354	0.05299
3416.28777	0.05261
3415.00200	0.05222
3413.71624	0.05207
3412.43047	0.05229
3411.14470	0.05279
3409.85893	0.05340
3408.57316	0.05394
3407.28739	0.05418
3406.00162	0.05401
3404.71585	0.05350
3403.43008	0.05291
3402.14432	0.05261
3400.85855	0.05276
3399.57278	0.05333
3398.28701	0.05410
3397.00124	0.05485
3395.71547	0.05547
3394.42970	0.05585
3393.14393	0.05597
3391.85817	0.05588
3390.57240	0.05575
3389.28663	0.05567
3388.00086	0.05557
3386.71509	0.05532
3385.42932	0.05496
3384.14355	0.05471
3382.85778	0.05477
3381.57201	0.05506
3380.28625	0.05540
3379.00048	0.05563
3377.71471	0.05578
3376.42894	0.05590
3375.14317	0.05598
3373.85740	0.05591
3372.57163	0.05563
3371.28586	0.05531
3370.00010	0.05527
3368.71433	0.05563
3367.42856	0.05616
3366.14279	0.05639
3364.85702	0.05610
3363.57125	0.05546
3362.28548	0.05481
3360.99971	0.05441
3359.71394	0.05435
3358.42818	0.05461
3357.14241	0.05501
3355.85664	0.05531
3354.57087	0.05536
3353.28510	0.05526
3351.99933	0.05530
3350.71356	0.05561
3349.42779	0.05597
3348.14202	0.05599
3346.85626	0.05549
3345.57049	0.05471
3344.28472	0.05401
3342.99895	0.05357
3341.71318	0.05337
3340.42741	0.05334
3339.14164	0.05345
3337.85587	0.05361
3336.57011	0.05360
3335.28434	0.05335
3333.99857	0.05294
3332.71280	0.05263
3331.42703	0.05259
3330.14126	0.05280
3328.85549	0.05312
3327.56972	0.05334
3326.28395	0.05336
3324.99819	0.05323
3323.71242	0.05310
3322.42665	0.05307
3321.14088	0.05318
3319.85511	0.05343
3318.56934	0.05372
3317.28357	0.05392
3315.99780	0.05402
3314.71204	0.05412
3313.42627	0.05437
3312.14050	0.05470
3310.85473	0.05491
3309.56896	0.05479
3308.28319	0.05434
3306.99742	0.05374
3305.71165	0.05328
3304.42588	0.05307
3303.14012	0.05299
3301.85435	0.05281
3300.56858	0.05247
3299.28281	0.05216
3297.99704	0.05210
3296.71127	0.05234
3295.42550	0.05276
3294.13973	0.05311
3292.85397	0.05320
3291.56820	0.05302
3290.28243	0.05268
3288.99666	0.05236
3287.71089	0.05218
3286.42512	0.05213
3285.13935	0.05211
3283.85358	0.05200
3282.56781	0.05177
3281.28205	0.05155
3279.99628	0.05148
3278.71051	0.05161
3277.42474	0.05177
3276.13897	0.05177
3274.85320	0.05158
3273.56743	0.05134
3272.28166	0.05123
3270.99590	0.05128
3269.71013	0.05136
3268.42436	0.05124
3267.13859	0.05089
3265.85282	0.05053
3264.56705	0.05044
3263.28128	0.05077
3261.99551	0.05138
3260.70974	0.05202
3259.42398	0.05244
3258.13821	0.05254
3256.85244	0.05233
3255.56667	0.05191
3254.28090	0.05136
3252.99513	0.05081
3251.70936	0.05047
3250.42359	0.05048
3249.13783	0.05079
3247.85206	0.05120
3246.56629	0.05153
3245.28052	0.05174
3243.99475	0.05183
3242.70898	0.05177
3241.42321	0.05152
3240.13744	0.05113
3238.85167	0.05084
3237.56591	0.05084
3236.28014	0.05109
3234.99437	0.05137
3233.70860	0.05142
3232.42283	0.05118
3231.13706	0.05079
3229.85129	0.05053
3228.56552	0.05053
3227.27976	0.05070
3225.99399	0.05082
3224.70822	0.05074
3223.42245	0.05053
3222.13668	0.05033
3220.85091	0.05018
3219.56514	0.05009
3218.27937	0.05010
3216.99360	0.05024
3215.70784	0.05038
3214.42207	0.05036
3213.13630	0.05018
3211.85053	0.04999
3210.56476	0.04989
3209.27899	0.04984
3207.99322	0.04973
3206.70745	0.04956
3205.42169	0.04946
3204.13592	0.04953
3202.85015	0.04972
3201.56438	0.04983
3200.27861	0.04972
3198.99284	0.04941
3197.70707	0.04904
3196.42130	0.04876
3195.13553	0.04858
3193.84977	0.04838
3192.56400	0.04806
3191.27823	0.04770
3189.99246	0.04759
3188.70669	0.04787
3187.42092	0.04832
3186.13515	0.04858
3184.84938	0.04849
3183.56362	0.04829
3182.27785	0.04829
3180.99208	0.04853
3179.70631	0.04871
3178.42054	0.04852
3177.13477	0.04795
3175.84900	0.04731
3174.56323	0.04693
3173.27746	0.04688
3171.99170	0.04696
3170.70593	0.04694
3169.42016	0.04673
3168.13439	0.04640
3166.84862	0.04603
3165.56285	0.04570
3164.27708	0.04544
3162.99131	0.04526
3161.70555	0.04519
3160.41978	0.04529
3159.13401	0.04552
3157.84824	0.04579
3156.56247	0.04597
3155.27670	0.04601
3153.99093	0.04599
3152.70516	0.04601
3151.41939	0.04607
3150.13363	0.04606
3148.84786	0.04584
3147.56209	0.04546
3146.27632	0.04513
3144.99055	0.04501
3143.70478	0.04504
3142.41901	0.04498
3141.13324	0.04472
3139.84748	0.04437
3138.56171	0.04415
3137.27594	0.04418
3135.99017	0.04437
3134.70440	0.04450
3133.41863	0.04444
3132.13286	0.04424
3130.84709	0.04411
3129.56132	0.04414
3128.27556	0.04423
3126.98979	0.04416
3125.70402	0.04387
3124.41825	0.04351
3123.13248	0.04336
3121.84671	0.04349
3120.56094	0.04373
3119.27517	0.04389
3117.98940	0.04394
3116.70364	0.04391
3115.41787	0.04383
3114.13210	0.04358
3112.84633	0.04316
3111.56056	0.04268
3110.27479	0.04233
3108.98902	0.04216
3107.70325	0.04207
3106.41749	0.04203
3105.13172	0.04208
3103.84595	0.04228
3102.56018	0.04256
3101.27441	0.04274
3099.98864	0.04270
3098.70287	0.04247
3097.41710	0.04218
3096.13133	0.04201
3094.84557	0.04206
3093.55980	0.04226
3092.27403	0.04242
3090.98826	0.04241
3089.70249	0.04227
3088.41672	0.04217
3087.13095	0.04211
3085.84518	0.04193
3084.55942	0.04150
3083.27365	0.04097
3081.98788	0.04061
3080.70211	0.04057
3079.41634	0.04072
3078.13057	0.04092
3076.84480	0.04109
3075.55903	0.04118
3074.27326	0.04112
3072.98750	0.04089
3071.70173	0.04059
3070.41596	0.04040
3069.13019	0.04037
3067.84442	0.04038
3066.55865	0.04033
3065.27288	0.04024
3063.98711	0.04023
3062.70135	0.04037
3061.41558	0.04056
3060.12981	0.04060
3058.84404	0.04041
3057.55827	0.04007
3056.27250	0.03977
3054.98673	0.03955
3053.70096	0.03938
3052.41519	0.03922
3051.12943	0.03914
3049.84366	0.03917
3048.55789	0.03927
3047.27212	0.03932
3045.98635	0.03927
3044.70058	0.03910
3043.41481	0.03881
3042.12904	0.03843
3040.84328	0.03806
3039.55751	0.03781
3038.27174	0.03774
3036.98597	0.03778
3035.70020	0.03785
3034.41443	0.03790
3033.12866	0.03794
3031.84289	0.03792
3030.55712	0.03780
3029.27136	0.03761
3027.98559	0.03743
3026.69982	0.03727
3025.41405	0.03710
3024.12828	0.03689
3022.84251	0.03661
3021.55674	0.03624
3020.27097	0.03588
3018.98521	0.03569
3017.69944	0.03580
3016.41367	0.03618
3015.12790	0.03664
3013.84213	0.03698
3012.55636	0.03710
3011.27059	0.03702
3009.98482	0.03686
3008.69905	0.03676
3007.41329	0.03682
3006.12752	0.03701
3004.84175	0.03722
3003.55598	0.03734
3002.27021	0.03728
3000.98444	0.03704
2999.69867	0.03672
2998.41290	0.03645
2997.12714	0.03628
2995.84137	0.03614
2994.55560	0.03585
2993.26983	0.03540
2991.98406	0.03494
2990.69829	0.03469
2989.41252	0.03479
2988.12675	0.03518
2986.84098	0.03566
2985.55522	0.03603
2984.26945	0.03619
2982.98368	0.03619
2981.69791	0.03611
2980.41214	0.03608
2979.12637	0.03611
2977.84060	0.03617
2976.55483	0.03618
2975.26907	0.03617
2973.98330	0.03622
2972.69753	0.03641
2971.41176	0.03668
2970.12599	0.03688
2968.84022	0.03683
2967.55445	0.03653
2966.26868	0.03614
2964.98291	0.03586
2963.69715	0.03578
2962.41138	0.03581
2961.12561	0.03581
2959.83984	0.03571
2958.55407	0.03563
2957.26830	0.03577
2955.98253	0.03618
2954.69676	0.03668
2953.41100	0.03710
2952.12523	0.03736
2950.83946	0.03745
2949.55369	0.03741
2948.26792	0.03728
2946.98215	0.03712
2945.69638	0.03690
2944.41061	0.03654
2943.12484	0.03613
2941.83908	0.03582
2940.55331	0.03574
2939.26754	0.03586
2937.98177	0.03608
2936.69600	0.03629
2935.41023	0.03646
2934.12446	0.03658
2932.83869	0.03667
2931.55293	0.03676
2930.26716	0.03687
2928.98139	0.03700
2927.69562	0.03711
2926.40985	0.03709
2925.12408	0.03685
2923.83831	0.03639
2922.55254	0.03580
2921.26677	0.03521
2919.98101	0.03478
2918.69524	0.03463
2917.40947	0.03479
2916.12370	0.03508
2914.83793	0.03526
2913.55216	0.03520
2912.26639	0.03501
2910.98062	0.03483
2909.69486	0.03469
2908.40909	0.03456
2907.12332	0.03438
2905.83755	0.03414
2904.55178	0.03391
2903.26601	0.03383
2901.98024	0.03393
2900.69447	0.03410
2899.40870	0.03414
2898.12294	0.03399
2896.83717	0.03383
2895.55140	0.03374
2894.26563	0.03364
2892.97986	0.03337
2891.69409	0.03294
2890.40832	0.03255
2889.12255	0.03242
2887.83678	0.03259
2886.55102	0.03287
2885.26525	0.03306
2883.97948	0.03304
2882.69371	0.03286
2881.40794	0.03264
2880.12217	0.03251
2878.83640	0.03248
2877.55063	0.03253
2876.26487	0.03256
2874.97910	0.03248
2873.69333	0.03228
2872.40756	0.03212
2871.12179	0.03218
2869.83602	0.03250
2868.55025	0.03287
2867.26448	0.03303
2865.97871	0.03287
2864.69295	0.03250
2863.40718	0.03210
2862.12141	0.03182
2860.83564	0.03166
2859.54987	0.03157
2858.26410	0.03150
2856.97833	0.03144
2855.69256	0.03136
2854.40680	0.03122
2853.12103	0.03094
2851.83526	0.03050
2850.54949	0.03007
2849.26372	0.02983
2847.97795	0.02989
2846.69218	0.03010
2845.40641	0.03019
2844.12064	0.03009
2842.83488	0.02998
2841.54911	0.03005
2840.26334	0.03026
2838.97757	0.03042
2837.69180	0.03036
2836.40603	0.03012
2835.12026	0.02984
2833.83449	0.02960
2832.54873	0.02938
2831.26296	0.02917
2829.97719	0.02899
2828.69142	0.02889
2827.40565	0.02891
2826.11988	0.02901
2824.83411	0.02910
2823.54834	0.02910
2822.26257	0.02892
2820.97681	0.02859
2819.69104	0.02826
2818.40527	0.02810
2817.11950	0.02814
2815.83373	0.02819
2814.54796	0.02812
2813.26219	0.02794
2811.97642	0.02781
2810.69066	0.02785
2809.40489	0.02800
2808.11912	0.02806
2806.83335	0.02787
2805.54758	0.02746
2804.26181	0.02702
2802.97604	0.02676
2801.69027	0.02670
2800.40450	0.02677
2799.11874	0.02690
2797.83297	0.02706
2796.54720	0.02726
2795.26143	0.02747
2793.97566	0.02763
2792.68989	0.02767
2791.40412	0.02757
2790.11835	0.02739
2788.83259	0.02719
2787.54682	0.02701
2786.26105	0.02681
2784.97528	0.02658
2783.68951	0.02639
2782.40374	0.02639
2781.11797	0.02657
2779.83220	0.02677
2778.54643	0.02677
2777.26067	0.02657
2775.97490	0.02637
2774.68913	0.02631
2773.40336	0.02640
2772.11759	0.02656
2770.83182	0.02669
2769.54605	0.02665
2768.26028	0.02642
2766.97452	0.02610
2765.68875	0.02593
2764.40298	0.02602
2763.11721	0.02624
2761.83144	0.02636
2760.54567	0.02627
2759.25990	0.02604
2757.97413	0.02588
2756.68836	0.02595
2755.40260	0.02616
2754.11683	0.02631
2752.83106	0.02624
2751.54529	0.02596
2750.25952	0.02565
2748.97375	0.02547
2747.68798	0.02545
2746.40221	0.02551
2745.11645	0.02551
2743.83068	0.02541
2742.54491	0.02523
2741.25914	0.02508
2739.97337	0.02507
2738.68760	0.02522
2737.40183	0.02548
2736.11606	0.02575
2734.83029	0.02595
2733.54453	0.02602
2732.25876	0.02598
2730.97299	0.02584
2729.68722	0.02565
2728.40145	0.02544
2727.11568	0.02523
2725.82991	0.02505
2724.54414	0.02494
2723.25838	0.02487
2721.97261	0.02481
2720.68684	0.02465
2719.40107	0.02441
2718.11530	0.02422
2716.82953	0.02422
2715.54376	0.02437
2714.25799	0.02451
2712.97222	0.02456
2711.68646	0.02456
2710.40069	0.02458
2709.11492	0.02463
2707.82915	0.02459
2706.54338	0.02441
2705.25761	0.02415
2703.97184	0.02397
2702.68607	0.02402
2701.40031	0.02427
2700.11454	0.02453
2698.82877	0.02460
2697.54300	0.02448
2696.25723	0.02432
2694.97146	0.02421
2693.68569	0.02413
2692.39992	0.02398
2691.11415	0.02380
2689.82839	0.02368
2688.54262	0.02368
2687.25685	0.02380
2685.97108	0.02393
2684.68531	0.02398
2683.39954	0.02394
2682.11377	0.02385
2680.82800	0.02378
2679.54224	0.02372
2678.25647	0.02362
2676.97070	0.02349
2675.68493	0.02340
2674.39916	0.02336
2673.11339	0.02332
2671.82762	0.02326
2670.54185	0.02319
2669.25608	0.02317
2667.97032	0.02322
2666.68455	0.02331
2665.39878	0.02346
2664.11301	0.02365
2662.82724	0.02382
2661.54147	0.02386
2660.25570	0.02370
2658.96993	0.02349
2657.68417	0.02335
2656.39840	0.02332
2655.11263	0.02330
2653.82686	0.02321
2652.54109	0.02308
2651.25532	0.02300
2649.96955	0.02301
2648.68378	0.02312
2647.39801	0.02325
2646.11225	0.02332
2644.82648	0.02324
2643.54071	0.02296
2642.25494	0.02257
2640.96917	0.02227
2639.68340	0.02219
2638.39763	0.02229
2637.11186	0.02234
2635.82609	0.02221
2634.54033	0.02193
2633.25456	0.02166
2631.96879	0.02155
2630.68302	0.02162
2629.39725	0.02174
2628.11148	0.02174
2626.82571	0.02154
2625.53994	0.02126
2624.25418	0.02106
2622.96841	0.02099
2621.68264	0.02100
2620.39687	0.02101
2619.11110	0.02098
2617.82533	0.02090
2616.53956	0.02076
2615.25379	0.02064
2613.96802	0.02059
2612.68226	0.02058
2611.39649	0.02058
2610.11072	0.02054
2608.82495	0.02048
2607.53918	0.02038
2606.25341	0.02023
2604.96764	0.02010
2603.68187	0.02005
2602.39611	0.02003
2601.11034	0.01995
2599.82457	0.01982
2598.53880	0.01971
2597.25303	0.01970
2595.96726	0.01981
2594.68149	0.02002
2593.39572	0.02020
2592.10995	0.02023
2590.82419	0.02010
2589.53842	0.01991
2588.25265	0.01978
2586.96688	0.01966
2585.68111	0.01942
2584.39534	0.01899
2583.10957	0.01845
2581.82380	0.01799
2580.53804	0.01775
2579.25227	0.01783
2577.96650	0.01827
2576.68073	0.01896
2575.39496	0.01961
2574.10919	0.01986
2572.82342	0.01961
2571.53765	0.01906
2570.25188	0.01854
2568.96612	0.01823
2567.68035	0.01802
2566.39458	0.01777
2565.10881	0.01750
2563.82304	0.01744
2562.53727	0.01781
2561.25150	0.01843
2559.96573	0.01894
2558.67997	0.01907
2557.39420	0.01888
2556.10843	0.01855
2554.82266	0.01818
2553.53689	0.01780
2552.25112	0.01743
2550.96535	0.01718
2549.67958	0.01722
2548.39381	0.01760
2547.10805	0.01809
2545.82228	0.01837
2544.53651	0.01840
2543.25074	0.01836
2541.96497	0.01836
2540.67920	0.01831
2539.39343	0.01813
2538.10766	0.01796
2536.82190	0.01795
2535.53613	0.01806
2534.25036	0.01809
2532.96459	0.01799
2531.67882	0.01783
2530.39305	0.01770
2529.10728	0.01760
2527.82151	0.01747
2526.53574	0.01732
2525.24998	0.01718
2523.96421	0.01708
2522.67844	0.01696
2521.39267	0.01677
2520.10690	0.01653
2518.82113	0.01642
2517.53536	0.01655
2516.24959	0.01687
2514.96383	0.01719
2513.67806	0.01742
2512.39229	0.01759
2511.10652	0.01767
2509.82075	0.01756
2508.53498	0.01726
2507.24921	0.01696
2505.96344	0.01690
2504.67767	0.01715
2503.39191	0.01760
2502.10614	0.01807
2500.82037	0.01838
2499.53460	0.01838
2498.24883	0.01808
2496.96306	0.01760
2495.67729	0.01711
2494.39152	0.01668
2493.10576	0.01629
2491.81999	0.01595
2490.53422	0.01575
2489.24845	0.01578
2487.96268	0.01603
2486.67691	0.01639
2485.39114	0.01668
2484.10537	0.01681
2482.81960	0.01678
2481.53384	0.01669
2480.24807	0.01667
2478.96230	0.01674
2477.67653	0.01685
2476.39076	0.01699
2475.10499	0.01716
2473.81922	0.01723
2472.53345	0.01707
2471.24769	0.01670
2469.96192	0.01631
2468.67615	0.01608
2467.39038	0.01605
2466.10461	0.01616
2464.81884	0.01628
2463.53307	0.01634
2462.24730	0.01638
2460.96153	0.01655
2459.67577	0.01692
2458.39000	0.01738
2457.10423	0.01764
2455.81846	0.01752
2454.53269	0.01709
2453.24692	0.01671
2451.96115	0.01667
2450.67538	0.01699
2449.38962	0.01747
2448.10385	0.01782
2446.81808	0.01786
2445.53231	0.01755
2444.24654	0.01701
2442.96077	0.01645
2441.67500	0.01608
2440.38923	0.01601
2439.10346	0.01613
2437.81770	0.01625
2436.53193	0.01623
2435.24616	0.01612
2433.96039	0.01606
2432.67462	0.01610
2431.38885	0.01615
2430.10308	0.01610
2428.81731	0.01591
2427.53155	0.01566
2426.24578	0.01547
2424.96001	0.01540
2423.67424	0.01545
2422.38847	0.01567
2421.10270	0.01604
2419.81693	0.01638
2418.53116	0.01647
2417.24539	0.01631
2415.95963	0.01604
2414.67386	0.01578
2413.38809	0.01548
2412.10232	0.01522
2410.81655	0.01518
2409.53078	0.01541
2408.24501	0.01574
2406.95924	0.01591
2405.67347	0.01584
2404.38771	0.01566
2403.10194	0.01552
2401.81617	0.01550
2400.53040	0.01556
2399.24463	0.01560
2397.95886	0.01564
2396.67309	0.01572
2395.38732	0.01582
2394.10156	0.01588
2392.81579	0.01580
2391.53002	0.01558
2390.24425	0.01526
2388.95848	0.01500
2387.67271	0.01491
2386.38694	0.01500
2385.10117	0.01511
2383.81540	0.01512
2382.52964	0.01504
2381.24387	0.01498
2379.95810	0.01505
2378.67233	0.01524
2377.38656	0.01550
2376.10079	0.01577
2374.81502	0.01597
2373.52925	0.01610
2372.24349	0.01614
2370.95772	0.01610
2369.67195	0.01585
2368.38618	0.01545
2367.10041	0.01503
2365.81464	0.01479
2364.52887	0.01464
2363.24310	0.01460
2361.95733	0.01471
2360.67157	0.01505
2359.38580	0.01540
2358.10003	0.01569
2356.81426	0.01596
2355.52849	0.01617
2354.24272	0.01625
2352.95695	0.01621
2351.67118	0.01625
2350.38542	0.01635
2349.09965	0.01629
2347.81388	0.01607
2346.52811	0.01614
2345.24234	0.01645
2343.95657	0.01654
2342.67080	0.01627
2341.38503	0.01624
2340.09926	0.01645
2338.81350	0.01601
2337.52773	0.01505
2336.24196	0.01497
2334.95619	0.01565
2333.67042	0.01571
2332.38465	0.01529
2331.09888	0.01577
2329.81311	0.01631
2328.52735	0.01603
2327.24158	0.01653
2325.95581	0.01740
2324.67004	0.01725
2323.38427	0.01704
2322.09850	0.01713
2320.81273	0.01665
2319.52696	0.01659
2318.24119	0.01685
2316.95543	0.01665
2315.66966	0.01665
2314.38389	0.01673
2313.09812	0.01659
2311.81235	0.01659
2310.52658	0.01641
2309.24081	0.01609
2307.95504	0.01580
2306.66928	0.01546
2305.38351	0.01540
2304.09774	0.01556
2302.81197	0.01581
2301.52620	0.01609
2300.24043	0.01615
2298.95466	0.01593
2297.66889	0.01542
2296.38312	0.01485
2295.09736	0.01458
2293.81159	0.01475
2292.52582	0.01522
2291.24005	0.01568
2289.95428	0.01589
2288.66851	0.01578
2287.38274	0.01544
2286.09697	0.01504
2284.81121	0.01470
2283.52544	0.01450
2282.23967	0.01438
2280.95390	0.01427
2279.66813	0.01411
2278.38236	0.01388
2277.09659	0.01368
2275.81082	0.01364
2274.52505	0.01385
2273.23929	0.01421
2271.95352	0.01447
2270.66775	0.01443
2269.38198	0.01412
2268.09621	0.01374
2266.81044	0.01343
2265.52467	0.01317
2264.23890	0.01287
2262.95314	0.01255
2261.66737	0.01241
2260.38160	0.01255
2259.09583	0.01284
2257.81006	0.01295
2256.52429	0.01263
2255.23852	0.01200
2253.95275	0.01149
2252.66698	0.01137
2251.38122	0.01146
2250.09545	0.01149
2248.80968	0.01139
2247.52391	0.01130
2246.23814	0.01134
2244.95237	0.01139
2243.66660	0.01131
2242.38083	0.01112
2241.09507	0.01091
2239.80930	0.01079
2238.52353	0.01078
2237.23776	0.01077
2235.95199	0.01062
2234.66622	0.01034
2233.38045	0.01010
2232.09468	0.01002
2230.80891	0.01014
2229.52315	0.01037
2228.23738	0.01061
2226.95161	0.01076
2225.66584	0.01072
2224.38007	0.01049
2223.09430	0.01019
2221.80853	0.00997
2220.52276	0.00994
2219.23700	0.01019
2217.95123	0.01070
2216.66546	0.01123
2215.37969	0.01151
2214.09392	0.01157
2212.80815	0.01161
2211.52238	0.01155
2210.23661	0.01098
2208.95084	0.00988
2207.66508	0.00880
2206.37931	0.00837
2205.09354	0.00870
2203.80777	0.00930
2202.52200	0.00952
2201.23623	0.00900
2199.95046	0.00794
2198.66469	0.00695
2197.37893	0.00651
2196.09316	0.00664
2194.80739	0.00709
2193.52162	0.00770
2192.23585	0.00834
2190.95008	0.00867
2189.66431	0.00839
2188.37854	0.00774
2187.09277	0.00739
2185.80701	0.00773
2184.52124	0.00832
2183.23547	0.00842
2181.94970	0.00804
2180.66393	0.00793
2179.37816	0.00843
2178.09239	0.00890
2176.80662	0.00854
2175.52085	0.00740
2174.23509	0.00622
2172.94932	0.00551
2171.66355	0.00528
2170.37778	0.00530
2169.09201	0.00542
2167.80624	0.00557
2166.52047	0.00577
2165.23470	0.00616
2163.94894	0.00678
2162.66317	0.00727
2161.37740	0.00674
2160.09163	0.00455
2158.80586	0.00133
2157.52009	-0.00101
2156.23432	-0.00119
2154.94855	0.00027
2153.66278	0.00193
2152.37702	0.00286
2151.09125	0.00306
2149.80548	0.00283
2148.51971	0.00242
2147.23394	0.00188
2145.94817	0.00131
2144.66240	0.00093
2143.37663	0.00113
2142.09087	0.00216
2140.80510	0.00371
2139.51933	0.00497
2138.23356	0.00526
2136.94779	0.00467
2135.66202	0.00397
2134.37625	0.00391
2133.09048	0.00453
2131.80471	0.00529
2130.51895	0.00568
2129.23318	0.00568
2127.94741	0.00568
2126.66164	0.00601
2125.37587	0.00661
2124.09010	0.00706
2122.80433	0.00706
2121.51856	0.00672
2120.23280	0.00644
2118.94703	0.00650
2117.66126	0.00687
2116.37549	0.00730
2115.08972	0.00753
2113.80395	0.00748
2112.51818	0.00736
2111.23241	0.00756
2109.94664	0.00824
2108.66088	0.00909
2107.37511	0.00955
2106.08934	0.00932
2104.80357	0.00868
2103.51780	0.00807
2102.23203	0.00768
2100.94626	0.00745
2099.66049	0.00781
2098.37473	0.00769
2097.08896	0.00704
2095.80319	0.00629
2094.51742	0.00579
2093.23165	0.00568
2091.94588	0.00585
2090.66011	0.00602
2089.37434	0.00600
2088.08857	0.00581
2086.80281	0.00561
2085.51704	0.00559
2084.23127	0.00590
2082.94550	0.00646
2081.65973	0.00703
2080.37396	0.00737
2079.08819	0.00748
2077.80242	0.00753
2076.51666	0.00762
2075.23089	0.00764
2073.94512	0.00738
2072.65935	0.00677
2071.37358	0.00605
2070.08781	0.00554
2068.80204	0.00541
2067.51627	0.00555
2066.23050	0.00564
2064.94474	0.00536
2063.65897	0.00462
2062.37320	0.00366
2061.08743	0.00287
2059.80166	0.00251
2058.51589	0.00254
2057.23012	0.00280
2055.94435	0.00318
2054.65859	0.00367
2053.37282	0.00417
2052.08705	0.00443
2050.80128	0.00417
2049.51551	0.00338
2048.22974	0.00239
2046.94397	0.00162
2045.65820	0.00124
2044.37243	0.00108
2043.08667	0.00084
2041.80090	0.00033
2040.51513	-0.00031
2039.22936	-0.00084
2037.94359	-0.00111
2036.65782	-0.00117
2035.37205	-0.00114
2034.08628	-0.00102
2032.80052	-0.00070
2031.51475	-0.00019
2030.22898	0.00040
2028.94321	0.00095
2027.65744	0.00151
2026.37167	0.00221
2025.08590	0.00291
2023.80013	0.00322
2022.51436	0.00297
2021.22860	0.00253
2019.94283	0.00251
2018.65706	0.00306
2017.37129	0.00379
2016.08552	0.00416
2014.79975	0.00396
2013.51398	0.00343
2012.22821	0.00308
2010.94245	0.00328
2009.65668	0.00388
2008.37091	0.00437
2007.08514	0.00438
2005.79937	0.00400
2004.51360	0.00373
2003.22783	0.00403
2001.94206	0.00487
2000.65629	0.00573
1999.37053	0.00603
1998.08476	0.00563
1996.79899	0.00498
1995.51322	0.00463
1994.22745	0.00481
1992.94168	0.00529
1991.65591	0.00570
1990.37014	0.00575
1989.08438	0.00532
1987.79861	0.00460
1986.51284	0.00404
1985.22707	0.00412
1983.94130	0.00494
1982.65553	0.00613
1981.36976	0.00722
1980.08399	0.00798
1978.79822	0.00846
1977.51246	0.00871
1976.22669	0.00874
1974.94092	0.00860
1973.65515	0.00845
1972.36938	0.00852
1971.08361	0.00880
1969.79784	0.00898
1968.51207	0.00875
1967.22631	0.00813
1965.94054	0.00745
1964.65477	0.00700
1963.36900	0.00682
1962.08323	0.00674
1960.79746	0.00667
1959.51169	0.00660
1958.22592	0.00650
1956.94015	0.00636
1955.65439	0.00628
1954.36862	0.00650
1953.08285	0.00705
1951.79708	0.00762
1950.51131	0.00787
1949.22554	0.00781
1947.93977	0.00779
1946.65400	0.00804
1945.36823	0.00847
1944.08247	0.00884
1942.79670	0.00897
1941.51093	0.00879
1940.22516	0.00828
1938.93939	0.00750
1937.65362	0.00671
1936.36785	0.00630
1935.08208	0.00651
1933.79632	0.00722
1932.51055	0.00796
1931.22478	0.00834
1929.93901	0.00822
1928.65324	0.00780
1927.36747	0.00742
1926.08170	0.00734
1924.79593	0.00764
1923.51016	0.00810
1922.22440	0.00846
1920.93863	0.00856
1919.65286	0.00852
1918.36709	0.00853
1917.08132	0.00870
1915.79555	0.00895
1914.50978	0.00907
1913.22401	0.00896
1911.93825	0.00869
1910.65248	0.00839
1909.36671	0.00823
1908.08094	0.00824
1906.79517	0.00839
1905.50940	0.00857
1904.22363	0.00866
1902.93786	0.00868
1901.65209	0.00871
1900.36633	0.00884
1899.08056	0.00901
1897.79479	0.00913
1896.50902	0.00910
1895.22325	0.00898
1893.93748	0.00889
1892.65171	0.00883
1891.36594	0.00878
1890.08018	0.00868
1888.79441	0.00857
1887.50864	0.00856
1886.22287	0.00871
1884.93710	0.00899
1883.65133	0.00929
1882.36556	0.00952
1881.07979	0.00963
1879.79402	0.00966
1878.50826	0.00964
1877.22249	0.00956
1875.93672	0.00931
1874.65095	0.00888
1873.36518	0.00841
1872.07941	0.00810
1870.79364	0.00806
1869.50787	0.00817
1868.22211	0.00828
1866.93634	0.00838
1865.65057	0.00854
1864.36480	0.00879
1863.07903	0.00907
1861.79326	0.00926
1860.50749	0.00936
1859.22172	0.00941
1857.93595	0.00945
1856.65019	0.00945
1855.36442	0.00937
1854.07865	0.00927
1852.79288	0.00925
1851.50711	0.00936
1850.22134	0.00958
1848.93557	0.00982
1847.64980	0.00999
1846.36404	0.01004
1845.07827	0.01001
1843.79250	0.00996
1842.50673	0.00995
1841.22096	0.01000
1839.93519	0.01002
1838.64942	0.00992
1837.36365	0.00967
1836.07788	0.00935
1834.79212	0.00912
1833.50635	0.00910
1832.22058	0.00928
1830.93481	0.00952
1829.64904	0.00968
1828.36327	0.00972
1827.07750	0.00968
1825.79173	0.00963
1824.50597	0.00962
1823.22020	0.00964
1821.93443	0.00971
1820.64866	0.00980
1819.36289	0.00986
1818.07712	0.00983
1816.79135	0.00974
1815.50558	0.00968
1814.21981	0.00971
1812.93405	0.00982
1811.64828	0.00993
1810.36251	0.01001
1809.07674	0.01009
1807.79097	0.01014
1806.50520	0.01010
1805.21943	0.00994
1803.93366	0.00974
1802.64790	0.00961
1801.36213	0.00963
1800.07636	0.00977
1798.79059	0.00998
1797.50482	0.01020
1796.21905	0.01034
1794.93328	0.01037
1793.64751	0.01029
1792.36174	0.01019
1791.07598	0.01015
1789.79021	0.01018
1788.50444	0.01025
1787.21867	0.01036
1785.93290	0.01049
1784.64713	0.01065
1783.36136	0.01083
1782.07559	0.01098
1780.78983	0.01108
1779.50406	0.01113
1778.21829	0.01116
1776.93252	0.01118
1775.64675	0.01116
1774.36098	0.01110
1773.07521	0.01105
1771.78944	0.01106
1770.50367	0.01112
1769.21791	0.01122
1767.93214	0.01134
1766.64637	0.01150
1765.36060	0.01169
1764.07483	0.01184
1762.78906	0.01192
1761.50329	0.01194
1760.21752	0.01198
1758.93176	0.01204
1757.64599	0.01211
1756.36022	0.01210
1755.07445	0.01202
1753.78868	0.01191
1752.50291	0.01186
1751.21714	0.01193
1749.93137	0.01206
1748.64560	0.01219
1747.35984	0.01232
1746.07407	0.01244
1744.78830	0.01253
1743.50253	0.01258
1742.21676	0.01260
1740.93099	0.01264
1739.64522	0.01272
1738.35945	0.01284
1737.07369	0.01299
1735.78792	0.01316
1734.50215	0.01332
1733.21638	0.01343
1731.93061	0.01347
1730.64484	0.01347
1729.35907	0.01349
1728.07330	0.01355
1726.78753	0.01364
1725.50177	0.01372
1724.21600	0.01379
1722.93023	0.01385
1721.64446	0.01395
1720.35869	0.01412
1719.07292	0.01438
1717.78715	0.01470
1716.50138	0.01502
1715.21561	0.01528
1713.92985	0.01548
1712.64408	0.01563
1711.35831	0.01576
1710.07254	0.01586
1708.78677	0.01595
1707.50100	0.01603
1706.21523	0.01617
1704.92946	0.01641
1703.64370	0.01671
1702.35793	0.01702
1701.07216	0.01726
1699.78639	0.01742
1698.50062	0.01756
1697.21485	0.01771
1695.92908	0.01786
1694.64331	0.01803
1693.35754	0.01823
1692.07178	0.01847
1690.78601	0.01873
1689.50024	0.01898
1688.21447	0.01921
1686.92870	0.01942
1685.64293	0.01962
1684.35716	0.01980
1683.07139	0.01998
1681.78563	0.02018
1680.49986	0.02043
1679.21409	0.02073
1677.92832	0.02105
1676.64255	0.02137
1675.35678	0.02165
1674.07101	0.02190
1672.78524	0.02217
1671.49947	0.02248
1670.21371	0.02279
1668.92794	0.02306
1667.64217	0.02332
1666.35640	0.02362
1665.07063	0.02396
1663.78486	0.02432
1662.49909	0.02464
1661.21332	0.02491
1659.92756	0.02515
1658.64179	0.02536
1657.35602	0.02557
1656.07025	0.02581
1654.78448	0.02613
1653.49871	0.02649
1652.21294	0.02678
1650.92717	0.02697
1649.64140	0.02710
1648.35564	0.02728
1647.06987	0.02754
1645.78410	0.02782
1644.49833	0.02808
1643.21256	0.02827
1641.92679	0.02841
1640.64102	0.02854
1639.35525	0.02868
1638.06949	0.02889
1636.78372	0.02916
1635.49795	0.02944
1634.21218	0.02969
1632.92641	0.02989
1631.64064	0.03012
1630.35487	0.03041
1629.06910	0.03076
1627.78333	0.03114
1626.49757	0.03149
1625.21180	0.03179
1623.92603	0.03201
1622.64026	0.03217
1621.35449	0.03231
1620.06872	0.03250
1618.78295	0.03279
1617.49718	0.03316
1616.21142	0.03355
1614.92565	0.03390
1613.63988	0.03423
1612.35411	0.03458
1611.06834	0.03498
1609.78257	0.03540
1608.49680	0.03581
1607.21103	0.03616
1605.92526	0.03647
1604.63950	0.03677
1603.35373	0.03709
1602.06796	0.03746
1600.78219	0.03782
1599.49642	0.03814
1598.21065	0.03843
1596.92488	0.03870
1595.63911	0.03894
1594.35335	0.03914
1593.06758	0.03931
1591.78181	0.03947
1590.49604	0.03964
1589.21027	0.03981
1587.92450	0.03996
1586.63873	0.04006
1585.35296	0.04010
1584.06719	0.04009
1582.78143	0.04006
1581.49566	0.04003
1580.20989	0.04005
1578.92412	0.04012
1577.63835	0.04023
1576.35258	0.04032
1575.06681	0.04035
1573.78104	0.04032
1572.49528	0.04026
1571.20951	0.04020
1569.92374	0.04015
1568.63797	0.04011
1567.35220	0.04006
1566.06643	0.03994
1564.78066	0.03974
1563.49489	0.03952
1562.20912	0.03933
1560.92336	0.03920
1559.63759	0.03908
1558.35182	0.03890
1557.06605	0.03866
1555.78028	0.03840
1554.49451	0.03815
1553.20874	0.03790
1551.92297	0.03761
1550.63721	0.03732
1549.35144	0.03705
1548.06567	0.03684
1546.77990	0.03664
1545.49413	0.03641
1544.20836	0.03611
1542.92259	0.03575
1541.63682	0.03539
1540.35105	0.03505
1539.06529	0.03476
1537.77952	0.03451
1536.49375	0.03429
1535.20798	0.03411
1533.92221	0.03399
1532.63644	0.03395
1531.35067	0.03399
1530.06490	0.03411
1528.77914	0.03428
1527.49337	0.03449
1526.20760	0.03474
1524.92183	0.03506
1523.63606	0.03550
1522.35029	0.03607
1521.06452	0.03671
1519.77875	0.03738
1518.49298	0.03806
1517.20722	0.03878
1515.92145	0.03957
1514.63568	0.04043
1513.34991	0.04134
1512.06414	0.04229
1510.77837	0.04326
1509.49260	0.04427
1508.20683	0.04534
1506.92107	0.04645
1505.63530	0.04752
1504.34953	0.04847
1503.06376	0.04929
1501.77799	0.05006
1500.49222	0.05085
1499.20645	0.05167
1497.92068	0.05246
1496.63491	0.05315
1495.34915	0.05374
1494.06338	0.05430
1492.77761	0.05489
1491.49184	0.05553
1490.20607	0.05620
1488.92030	0.05688
1487.63453	0.05754
1486.34876	0.05820
1485.06299	0.05887
1483.77723	0.05960
1482.49146	0.06044
1481.20569	0.06138
1479.91992	0.06239
1478.63415	0.06338
1477.34838	0.06431
1476.06261	0.06515
1474.77684	0.06590
1473.49108	0.06659
1472.20531	0.06720
1470.91954	0.06772
1469.63377	0.06815
1468.34800	0.06852
1467.06223	0.06889
1465.77646	0.06924
1464.49069	0.06958
1463.20492	0.06995
1461.91916	0.07038
1460.63339	0.07094
1459.34762	0.07160
1458.06185	0.07230
1456.77608	0.07299
1455.49031	0.07359
1454.20454	0.07406
1452.91877	0.07439
1451.63301	0.07459
1450.34724	0.07473
1449.06147	0.07481
1447.77570	0.07484
1446.48993	0.07476
1445.20416	0.07455
1443.91839	0.07423
1442.63262	0.07385
1441.34685	0.07348
1440.06109	0.07319
1438.77532	0.07305
1437.48955	0.07308
1436.20378	0.07331
1434.91801	0.07372
1433.63224	0.07433
1432.34647	0.07513
1431.06070	0.07607
1429.77494	0.07711
1428.48917	0.07821
1427.20340	0.07937
1425.91763	0.08060
1424.63186	0.08187
1423.34609	0.08312
1422.06032	0.08426
1420.77455	0.08522
1419.48878	0.08600
1418.20302	0.08662
1416.91725	0.08707
1415.63148	0.08737
1414.34571	0.08750
1413.05994	0.08746
1411.77417	0.08723
1410.48840	0.08679
1409.20263	0.08608
1407.91687	0.08513
1406.63110	0.08397
1405.34533	0.08270
1404.05956	0.08136
1402.77379	0.07995
1401.48802	0.07844
1400.20225	0.07681
1398.91648	0.07505
1397.63071	0.07319
1396.34495	0.07126
1395.05918	0.06933
1393.77341	0.06744
1392.48764	0.06561
1391.20187	0.06385
1389.91610	0.06212
1388.63033	0.06041
1387.34456	0.05873
1386.05880	0.05706
1384.77303	0.05540
1383.48726	0.05375
1382.20149	0.05214
1380.91572	0.05055
1379.62995	0.04896
1378.34418	0.04733
1377.05841	0.04570
1375.77264	0.04412
1374.48688	0.04265
1373.20111	0.04128
1371.91534	0.03997
1370.62957	0.03869
1369.34380	0.03744
1368.05803	0.03626
1366.77226	0.03521
1365.48649	0.03425
1364.20073	0.03335
1362.91496	0.03250
1361.62919	0.03168
1360.34342	0.03087
1359.05765	0.03007
1357.77188	0.02929
1356.48611	0.02857
1355.20034	0.02791
1353.91457	0.02730
1352.62881	0.02673
1351.34304	0.02620
1350.05727	0.02568
1348.77150	0.02517
1347.48573	0.02465
1346.19996	0.02413
1344.91419	0.02363
1343.62842	0.02317
1342.34266	0.02273
1341.05689	0.02231
1339.77112	0.02192
1338.48535	0.02158
1337.19958	0.02131
1335.91381	0.02108
1334.62804	0.02085
1333.34227	0.02059
1332.05650	0.02031
1330.77074	0.02000
1329.48497	0.01969
1328.19920	0.01938
1326.91343	0.01909
1325.62766	0.01885
1324.34189	0.01869
1323.05612	0.01858
1321.77035	0.01846
1320.48459	0.01830
1319.19882	0.01808
1317.91305	0.01789
1316.62728	0.01774
1315.34151	0.01764
1314.05574	0.01752
1312.76997	0.01737
1311.48420	0.01720
1310.19843	0.01704
1308.91267	0.01689
1307.62690	0.01673
1306.34113	0.01657
1305.05536	0.01642
1303.76959	0.01631
1302.48382	0.01624
1301.19805	0.01619
1299.91228	0.01610
1298.62652	0.01597
1297.34075	0.01582
1296.05498	0.01570
1294.76921	0.01565
1293.48344	0.01566
1292.19767	0.01566
1290.91190	0.01559
1289.62613	0.01545
1288.34036	0.01527
1287.05460	0.01512
1285.76883	0.01503
1284.48306	0.01501
1283.19729	0.01501
1281.91152	0.01500
1280.62575	0.01496
1279.33998	0.01488
1278.05421	0.01479
1276.76845	0.01471
1275.48268	0.01464
1274.19691	0.01457
1272.91114	0.01450
1271.62537	0.01444
1270.33960	0.01441
1269.05383	0.01442
1267.76806	0.01447
1266.48229	0.01451
1265.19653	0.01450
1263.91076	0.01442
1262.62499	0.01428
1261.33922	0.01411
1260.05345	0.01396
1258.76768	0.01385
1257.48191	0.01380
1256.19614	0.01382
1254.91037	0.01389
1253.62461	0.01396
1252.33884	0.01400
1251.05307	0.01398
1249.76730	0.01392
1248.48153	0.01385
1247.19576	0.01380
1245.90999	0.01376
1244.62422	0.01372
1243.33846	0.01368
1242.05269	0.01363
1240.76692	0.01359
1239.48115	0.01360
1238.19538	0.01364
1236.90961	0.01368
1235.62384	0.01370
1234.33807	0.01369
1233.05230	0.01370
1231.76654	0.01375
1230.48077	0.01381
1229.19500	0.01387
1227.90923	0.01389
1226.62346	0.01389
1225.33769	0.01387
1224.05192	0.01385
1222.76615	0.01384
1221.48039	0.01384
1220.19462	0.01389
1218.90885	0.01396
1217.62308	0.01403
1216.33731	0.01407
1215.05154	0.01408
1213.76577	0.01411
1212.48000	0.01415
1211.19423	0.01418
1209.90847	0.01422
1208.62270	0.01429
1207.33693	0.01442
1206.05116	0.01459
1204.76539	0.01476
1203.47962	0.01490
1202.19385	0.01499
1200.90808	0.01502
1199.62232	0.01502
1198.33655	0.01518
1197.05078	0.01540
1195.76501	0.01560
1194.47924	0.01575
1193.19347	0.01584
1191.90770	0.01590
1190.62193	0.01596
1189.33616	0.01604
1188.05040	0.01615
1186.76463	0.01626
1185.47886	0.01640
1184.19309	0.01655
1182.90732	0.01673
1181.62155	0.01690
1180.33578	0.01704
1179.05001	0.01715
1177.76425	0.01725
1176.47848	0.01736
1175.19271	0.01748
1173.90694	0.01760
1172.62117	0.01772
1171.33540	0.01785
1170.04963	0.01801
1168.76386	0.01824
1167.47809	0.01850
1166.19233	0.01879
1164.90656	0.01906
1163.62079	0.01933
1162.33502	0.01960
1161.04925	0.01988
1159.76348	0.02017
1158.47771	0.02051
1157.19194	0.02091
1155.90618	0.02135
1154.62041	0.02180
1153.33464	0.02227
1152.04887	0.02280
1150.76310	0.02341
1149.47733	0.02406
1148.19156	0.02471
1146.90579	0.02538
1145.62002	0.02609
1144.33426	0.02690
1143.04849	0.02778
1141.76272	0.02869
1140.47695	0.02966
1139.19118	0.03074
1137.90541	0.03195
1136.61964	0.03330
1135.33387	0.03477
1134.04811	0.03637
1132.76234	0.03814
1131.47657	0.04011
1130.19080	0.04235
1128.90503	0.04484
1127.61926	0.04754
1126.33349	0.05036
1125.04772	0.05327
1123.76195	0.05630
1122.47619	0.05954
1121.19042	0.06299
1119.90465	0.06657
1118.61888	0.07016
1117.33311	0.07368
1116.04734	0.07717
1114.76157	0.08063
1113.47580	0.08405
1112.19004	0.08738
1110.90427	0.09064
1109.61850	0.09385
1108.33273	0.09704
1107.04696	0.10020
1105.76119	0.10331
1104.47542	0.10634
1103.18965	0.10930
1101.90388	0.11217
1100.61812	0.11494
1099.33235	0.11759
1098.04658	0.12012
1096.76081	0.12259
1095.47504	0.12501
1094.18927	0.12733
1092.90350	0.12953
1091.61773	0.13162
1090.33197	0.13364
1089.04620	0.13563
1087.76043	0.13759
1086.47466	0.13956
1085.18889	0.14157
1083.90312	0.14365
1082.61735	0.14581
1081.33158	0.14807
1080.04581	0.15048
1078.76005	0.15306
1077.47428	0.15581
1076.18851	0.15877
1074.90274	0.16197
1073.61697	0.16537
1072.33120	0.16887
1071.04543	0.17238
1069.75966	0.17591
1068.47390	0.17955
1067.18813	0.18340
1065.90236	0.18745
1064.61659	0.19165
1063.33082	0.19592
1062.04505	0.20021
1060.75928	0.20446
1059.47351	0.20859
1058.18774	0.21261
1056.90198	0.21656
1055.61621	0.22053
1054.33044	0.22456
1053.04467	0.22862
1051.75890	0.23275
1050.47313	0.23698
1049.18736	0.24137
1047.90159	0.24591
1046.61583	0.25056
1045.33006	0.25527
1044.04429	0.26004
1042.75852	0.26484
1041.47275	0.26964
1040.18698	0.27443
1038.90121	0.27921
1037.61544	0.28403
1036.32967	0.28889
1035.04391	0.29371
1033.75814	0.29833
1032.47237	0.30262
1031.18660	0.30654
1029.90083	0.31012
1028.61506	0.31336
1027.32929	0.31622
1026.04352	0.31857
1024.75775	0.32032
1023.47199	0.32137
1022.18622	0.32167
1020.90045	0.32121
1019.61468	0.32001
1018.32891	0.31804
1017.04314	0.31531
1015.75737	0.31175
1014.47160	0.30730
1013.18584	0.30196
1011.90007	0.29579
1010.61430	0.28889
1009.32853	0.28140
1008.04276	0.27345
1006.75699	0.26517
1005.47122	0.25661
1004.18545	0.24775
1002.89968	0.23857
1001.61392	0.22913
1000.32815	0.21959
999.04238	0.21009
997.75661	0.20072
996.47084	0.19152
995.18507	0.18255
993.89930	0.17386
992.61353	0.16556
991.32777	0.15770
990.04200	0.15028
988.75623	0.14324
987.47046	0.13655
986.18469	0.13020
984.89892	0.12424
983.61315	0.11867
982.32738	0.11350
981.04161	0.10869
979.75585	0.10420
978.47008	0.10002
977.18431	0.09617
975.89854	0.09273
974.61277	0.08979
973.32700	0.08745
972.04123	0.08580
970.75546	0.08486
969.46970	0.08456
968.18393	0.08477
966.89816	0.08541
965.61239	0.08637
964.32662	0.08745
963.04085	0.08835
961.75508	0.08879
960.46931	0.08857
959.18354	0.08761
957.89778	0.08598
956.61201	0.08384
955.32624	0.08136
954.04047	0.07872
952.75470	0.07606
951.46893	0.07350
950.18316	0.07109
948.89739	0.06882
947.61163	0.06665
946.32586	0.06452
945.04009	0.06245
943.75432	0.06049
942.46855	0.05867
941.18278	0.05698
939.89701	0.05536
938.61124	0.05382
937.32547	0.05240
936.03971	0.05112
934.75394	0.04999
933.46817	0.04900
932.18240	0.04811
930.89663	0.04727
929.61086	0.04638
928.32509	0.04543
927.03932	0.04450
925.75356	0.04370
924.46779	0.04306
923.18202	0.04255
921.89625	0.04210
920.61048	0.04163
919.32471	0.04111
918.03894	0.04056
916.75317	0.04004
915.46740	0.03956
914.18164	0.03914
912.89587	0.03878
911.61010	0.03846
910.32433	0.03816
909.03856	0.03781
907.75279	0.03738
906.46702	0.03684
905.18125	0.03629
903.89549	0.03586
902.60972	0.03563
901.32395	0.03553
900.03818	0.03542
898.75241	0.03525
897.46664	0.03505
896.18087	0.03488
894.89510	0.03476
893.60933	0.03466
892.32357	0.03460
891.03780	0.03464
889.75203	0.03482
888.46626	0.03520
887.18049	0.03581
885.89472	0.03674
884.60895	0.03819
883.32318	0.04031
882.03742	0.04295
880.75165	0.04560
879.46588	0.04769
878.18011	0.04908
876.89434	0.05011
875.60857	0.05125
874.32280	0.05259
873.03703	0.05373
871.75126	0.05419
870.46550	0.05375
869.17973	0.05257
867.89396	0.05092
866.60819	0.04898
865.32242	0.04683
864.03665	0.04460
862.75088	0.04251
861.46511	0.04071
860.17935	0.03924
858.89358	0.03802
857.60781	0.03695
856.32204	0.03596
855.03627	0.03504
853.75050	0.03424
852.46473	0.03360
851.17896	0.03315
849.89319	0.03286
848.60743	0.03265
847.32166	0.03243
846.03589	0.03214
844.75012	0.03185
843.46435	0.03160
842.17858	0.03138
840.89281	0.03116
839.60704	0.03093
838.32128	0.03074
837.03551	0.03059
835.74974	0.03046
834.46397	0.03032
833.17820	0.03019
831.89243	0.03008
830.60666	0.02999
829.32089	0.02991
828.03512	0.02983
826.74936	0.02978
825.46359	0.02975
824.17782	0.02970
822.89205	0.02960
821.60628	0.02948
820.32051	0.02937
819.03474	0.02924
817.74897	0.02911
816.46321	0.02905
815.17744	0.02916
813.89167	0.02938
812.60590	0.02955
811.32013	0.02955
810.03436	0.02942
808.74859	0.02931
807.46282	0.02930
806.17705	0.02937
804.89129	0.02946
803.60552	0.02952
802.31975	0.02955
801.03398	0.02955
799.74821	0.02953
798.46244	0.02952
797.17667	0.02950
795.89090	0.02948
794.60513	0.02950
793.31937	0.02955
792.03360	0.02962
790.74783	0.02969
789.46206	0.02977
788.17629	0.02987
786.89052	0.02991
785.60475	0.02985
784.31898	0.02971
783.03322	0.02956
781.74745	0.02949
780.46168	0.02953
779.17591	0.02966
777.89014	0.02982
776.60437	0.02998
775.31860	0.03012
774.03283	0.03020
772.74706	0.03017
771.46130	0.03000
770.17553	0.02977
768.88976	0.02959
767.60399	0.02950
766.31822	0.02954
765.03245	0.02971
763.74668	0.02996
762.46091	0.03018
761.17515	0.03030
759.88938	0.03034
758.60361	0.03030
757.31784	0.03020
756.03207	0.03006
754.74630	0.02998
753.46053	0.03002
752.17476	0.03020
750.88899	0.03044
749.60323	0.03058
748.31746	0.03056
747.03169	0.03040
745.74592	0.03023
744.46015	0.03007
743.17438	0.02991
741.88861	0.02972
740.60284	0.02954
739.31708	0.02945
738.03131	0.02948
736.74554	0.02963
735.45977	0.02981
734.17400	0.02989
732.88823	0.02980
731.60246	0.02961
730.31669	0.02948
729.03092	0.02953
727.74516	0.02972
726.45939	0.02991
725.17362	0.03003
723.88785	0.03010
722.60208	0.03014
721.31631	0.03013
720.03054	0.03007
718.74477	0.02999
717.45901	0.02996
716.17324	0.03000
714.88747	0.03008
713.60170	0.03018
712.31593	0.03025
711.03016	0.03029
709.74439	0.03029
708.45862	0.03026
707.17285	0.03021
705.88709	0.03012
704.60132	0.03002
703.31555	0.02994
702.02978	0.02994
700.74401	0.03004
699.45824	0.03020
698.17247	0.03036
696.88670	0.03047
695.60094	0.03053
694.31517	0.03056
693.02940	0.03057
691.74363	0.03060
690.45786	0.03065
689.17209	0.03075
687.88632	0.03082
686.60055	0.03082
685.31478	0.03071
684.02902	0.03054
682.74325	0.03038
681.45748	0.03025
680.17171	0.03015
678.88594	0.03009
677.60017	0.03006
676.31440	0.03008
675.02863	0.03017
673.74287	0.03033
672.45710	0.03053
671.17133	0.03076
669.88556	0.03097
668.59979	0.03105
667.31402	0.03108
666.02825	0.03116
664.74248	0.03107
663.45671	0.03090
662.17095	0.03071
660.88518	0.03054
659.59941	0.03043
658.31364	0.03040
657.02787	0.03044
655.74210	0.03051
654.45633	0.03061
653.17056	0.03073
651.88480	0.03085
650.59903	0.03096
649.31326	0.03106
648.02749	0.03117
646.74172	0.03128
645.45595	0.03140
644.17018	0.03153
642.88441	0.03167
641.59864	0.03188
640.31288	0.03220
639.02711	0.03262
637.74134	0.03306
636.45557	0.03344
635.16980	0.03373
633.88403	0.03400
632.59826	0.03430
631.31249	0.03477
630.02673	0.03580
628.74096	0.03720
627.45519	0.03750
626.16942	0.03927
624.88365	0.04208
623.59788	0.04479
622.31211	0.04683
621.02634	0.04829
619.74057	0.04993
618.45481	0.05249
617.16904	0.05579
615.88327	0.05907
614.59750	0.06201
613.31173	0.06532
612.02596	0.07019
610.74019	0.07699
609.45442	0.08469
608.16866	0.09176
606.88289	0.09744
605.59712	0.10178
604.31135	0.10498
603.02558	0.10699
601.73981	0.10757
600.45404	0.10651
599.16827	0.10392
597.88250	0.10026
596.59674	0.09624
595.31097	0.09251
594.02520	0.08946
592.73943	0.08719
591.45366	0.08564
590.16789	0.08475
588.88212	0.08460
587.59635	0.08524
586.31059	0.08662
585.02482	0.08858
583.73905	0.09098
582.45328	0.09371
581.16751	0.09674
579.88174	0.10003
578.59597	0.10352
577.31020	0.10707
576.02443	0.11051
574.73867	0.11371
573.45290	0.11669
572.16713	0.11968
570.88136	0.12294
569.59559	0.12662
568.30982	0.13068
567.02405	0.13493
565.73828	0.13911
564.45251	0.14287
563.16675	0.14562
561.88098	0.14671
560.59521	0.14563
559.30944	0.14221
558.02367	0.13670
556.73790	0.12972
555.45213	0.12201
554.16636	0.11418
552.88060	0.10664
551.59483	0.09960
550.30906	0.09322
549.02329	0.08761
547.73752	0.08277
546.45175	0.07852
545.16598	0.07471
543.88021	0.07127
542.59444	0.06826
541.30868	0.06571
540.02291	0.06350
538.73714	0.06143
537.45137	0.05933
536.16560	0.05718
534.87983	0.05510
533.59406	0.05327
532.30829	0.05176
531.02253	0.05055
529.73676	0.04952
528.45099	0.04857
527.16522	0.04762
525.87945	0.04668
524.59368	0.04574
523.30791	0.04482
522.02214	0.04391
520.73637	0.04301
519.45061	0.04217
518.16484	0.04147
516.87907	0.04090
515.59330	0.04036
514.30753	0.03975
513.02176	0.03905
511.73599	0.03829
510.45022	0.03758
509.16446	0.03699
507.87869	0.03651
506.59292	0.03608
505.30715	0.03563
504.02138	0.03520
502.73561	0.03490
501.44984	0.03474
500.16407	0.03459
498.87830	0.03436
497.59254	0.03411
496.30677	0.03394
495.02100	0.03384
493.73523	0.03371
492.44946	0.03350
491.16369	0.03324
489.87792	0.03304
488.59215	0.03295
487.30639	0.03294
486.02062	0.03292
484.73485	0.03290
483.44908	0.03296
482.16331	0.03317
480.87754	0.03349
479.59177	0.03381
478.30600	0.03407
477.02023	0.03428
475.73447	0.03448
474.44870	0.03469
473.16293	0.03489
471.87716	0.03508
470.59139	0.03526
469.30562	0.03540
468.01985	0.03546
466.73408	0.03539
465.44832	0.03523
464.16255	0.03500
462.87678	0.03469
461.59101	0.03427
460.30524	0.03377
459.01947	0.03330
457.73370	0.03292
456.44793	0.03262
455.16216	0.03232
453.87640	0.03197
452.59063	0.03156
451.30486	0.03115
450.01909	0.03082
448.73332	0.03063
447.44755	0.03053
446.16178	0.03045
444.87601	0.03031
443.59025	0.03010
442.30448	0.02988
441.01871	0.02968
439.73294	0.02950
438.44717	0.02933
437.16140	0.02917
435.87563	0.02903
434.58986	0.02892
433.30409	0.02884
432.01833	0.02882
430.73256	0.02883
429.44679	0.02884
428.16102	0.02878
426.87525	0.02863
425.58948	0.02841
424.30371	0.02819
423.01794	0.02799
421.73218	0.02780
420.44641	0.02758
419.16064	0.02735
417.87487	0.02713
416.58910	0.02691
415.30333	0.02666
414.01756	0.02639
412.73179	0.02613
411.44602	0.02595
410.16026	0.02588
408.87449	0.02590
407.58872	0.02594
406.30295	0.02593
405.01718	0.02582
403.73141	0.02570
402.44564	0.02564
401.15987	0.02573
399.87411	0.02592
