3997.45528	0.05786
3996.16951	0.05730
3994.88374	0.05673
3993.59798	0.05620
3992.31221	0.05585
3991.02644	0.05571
3989.74067	0.05563
3988.45490	0.05559
3987.16913	0.05570
3985.88336	0.05598
3984.59759	0.05628
3983.31183	0.05647
3982.02606	0.05661
3980.74029	0.05680
3979.45452	0.05700
3978.16875	0.05711
3976.88298	0.05713
3975.59721	0.05717
3974.31144	0.05727
3973.02567	0.05755
3971.73991	0.05814
3970.45414	0.05904
3969.16837	0.05992
3967.88260	0.06037
3966.59683	0.06011
3965.31106	0.05907
3964.02529	0.05747
3962.73952	0.05588
3961.45376	0.05512
3960.16799	0.05557
3958.88222	0.05687
3957.59645	0.05818
3956.31068	0.05888
3955.02491	0.05891
3953.73914	0.05864
3952.45337	0.05841
3951.16760	0.05831
3949.88184	0.05820
3948.59607	0.05793
3947.31030	0.05749
3946.02453	0.05701
3944.73876	0.05667
3943.45299	0.05653
3942.16722	0.05655
3940.88145	0.05668
3939.59569	0.05693
3938.30992	0.05729
3937.02415	0.05765
3935.73838	0.05775
3934.45261	0.05733
3933.16684	0.05640
3931.88107	0.05538
3930.59530	0.05487
3929.30953	0.05516
3928.02377	0.05600
3926.73800	0.05688
3925.45223	0.05745
3924.16646	0.05765
3922.88069	0.05759
3921.59492	0.05730
3920.30915	0.05677
3919.02338	0.05608
3917.73762	0.05553
3916.45185	0.05547
3915.16608	0.05597
3913.88031	0.05672
3912.59454	0.05742
3911.30877	0.05791
3910.02300	0.05813
3908.73723	0.05797
3907.45146	0.05738
3906.16570	0.05650
3904.87993	0.05563
3903.59416	0.05501
3902.30839	0.05470
3901.02262	0.05462
3899.73685	0.05468
3898.45108	0.05495
3897.16531	0.05543
3895.87955	0.05595
3894.59378	0.05618
3893.30801	0.05597
3892.02224	0.05564
3890.73647	0.05572
3889.45070	0.05629
3888.16493	0.05683
3886.87916	0.05681
3885.59339	0.05629
3884.30763	0.05578
3883.02186	0.05560
3881.73609	0.05562
3880.45032	0.05570
3879.16455	0.05597
3877.87878	0.05643
3876.59301	0.05679
3875.30724	0.05672
3874.02148	0.05617
3872.73571	0.05539
3871.44994	0.05456
3870.16417	0.05387
3868.87840	0.05370
3867.59263	0.05434
3866.30686	0.05548
3865.02109	0.05628
3863.73532	0.05609
3862.44956	0.05513
3861.16379	0.05428
3859.87802	0.05430
3858.59225	0.05525
3857.30648	0.05637
3856.02071	0.05664
3854.73494	0.05564
3853.44917	0.05411
3852.16341	0.05332
3850.87764	0.05389
3849.59187	0.05535
3848.30610	0.05668
3847.02033	0.05718
3845.73456	0.05679
3844.44879	0.05603
3843.16302	0.05548
3841.87725	0.05529
3840.59149	0.05510
3839.30572	0.05449
3838.01995	0.05359
3836.73418	0.05292
3835.44841	0.05285
3834.16264	0.05327
3832.87687	0.05383
3831.59110	0.05435
3830.30534	0.05480
3829.01957	0.05514
3827.73380	0.05525
3826.44803	0.05508
3825.16226	0.05476
3823.87649	0.05446
3822.59072	0.05431
3821.30495	0.05452
3820.01918	0.05515
3818.73342	0.05591
3817.44765	0.05625
3816.16188	0.05598
3814.87611	0.05538
3813.59034	0.05481
3812.30457	0.05429
3811.01880	0.05365
3809.73303	0.05279
3808.44726	0.05192
3807.16150	0.05142
3805.87573	0.05160
3804.58996	0.05225
3803.30419	0.05272
3802.01842	0.05269
3800.73265	0.05249
3799.44688	0.05265
3798.16111	0.05319
3796.87535	0.05364
3795.58958	0.05369
3794.30381	0.05339
3793.01804	0.05304
3791.73227	0.05284
3790.44650	0.05287
3789.16073	0.05314
3787.87496	0.05357
3786.58919	0.05404
3785.30343	0.05443
3784.01766	0.05464
3782.73189	0.05471
3781.44612	0.05471
3780.16035	0.05469
3778.87458	0.05464
3777.58881	0.05457
3776.30304	0.05458
3775.01728	0.05480
3773.73151	0.05512
3772.44574	0.05522
3771.15997	0.05482
3769.87420	0.05407
3768.58843	0.05339
3767.30266	0.05305
3766.01689	0.05291
3764.73112	0.05270
3763.44536	0.05233
3762.15959	0.05190
3760.87382	0.05153
3759.58805	0.05134
3758.30228	0.05143
3757.01651	0.05186
3755.73074	0.05251
3754.44497	0.05299
3753.15921	0.05297
3751.87344	0.05245
3750.58767	0.05189
3749.30190	0.05180
3748.01613	0.05220
3746.73036	0.05255
3745.44459	0.05229
3744.15882	0.05153
3742.87305	0.05101
3741.58729	0.05133
3740.30152	0.05225
3739.01575	0.05298
3737.72998	0.05303
3736.44421	0.05251
3735.15844	0.05187
3733.87267	0.05140
3732.58690	0.05116
3731.30114	0.05106
3730.01537	0.05103
3728.72960	0.05101
3727.44383	0.05083
3726.15806	0.05038
3724.87229	0.04959
3723.58652	0.04844
3722.30075	0.04713
3721.01498	0.04607
3719.72922	0.04585
3718.44345	0.04690
3717.15768	0.04892
3715.87191	0.05097
3714.58614	0.05203
3713.30037	0.05170
3712.01460	0.05057
3710.72883	0.04963
3709.44307	0.04944
3708.15730	0.04989
3706.87153	0.05014
3705.58576	0.04961
3704.29999	0.04845
3703.01422	0.04731
3701.72845	0.04677
3700.44268	0.04701
3699.15691	0.04780
3697.87115	0.04886
3696.58538	0.04991
3695.29961	0.05070
3694.01384	0.05107
3692.72807	0.05102
3691.44230	0.05042
3690.15653	0.04916
3688.87076	0.04748
3687.58500	0.04602
3686.29923	0.04540
3685.01346	0.04588
3683.72769	0.04722
3682.44192	0.04907
3681.15615	0.05106
3679.87038	0.05266
3678.58461	0.05339
3677.29884	0.05325
3676.01308	0.05273
3674.72731	0.05236
3673.44154	0.05209
3672.15577	0.05146
3670.87000	0.05032
3669.58423	0.04917
3668.29846	0.04861
3667.01269	0.04874
3665.72693	0.04918
3664.44116	0.04962
3663.15539	0.05003
3661.86962	0.05060
3660.58385	0.05134
3659.29808	0.05207
3658.01231	0.05257
3656.72654	0.05296
3655.44077	0.05362
3654.15501	0.05474
3652.86924	0.05592
3651.58347	0.05644
3650.29770	0.05594
3649.01193	0.05495
3647.72616	0.05437
3646.44039	0.05473
3645.15462	0.05574
3643.86886	0.05668
3642.58309	0.05702
3641.29732	0.05680
3640.01155	0.05650
3638.72578	0.05649
3637.44001	0.05669
3636.15424	0.05682
3634.86847	0.05678
3633.58270	0.05683
3632.29694	0.05700
3631.01117	0.05701
3629.72540	0.05664
3628.43963	0.05610
3627.15386	0.05595
3625.86809	0.05650
3624.58232	0.05760
3623.29655	0.05860
3622.01079	0.05907
3620.72502	0.05892
3619.43925	0.05857
3618.15348	0.05848
3616.86771	0.05892
3615.58194	0.05995
3614.29617	0.06149
3613.01040	0.06318
3611.72463	0.06438
3610.43887	0.06456
3609.15310	0.06381
3607.86733	0.06288
3606.58156	0.06262
3605.29579	0.06331
3604.01002	0.06452
3602.72425	0.06566
3601.43848	0.06648
3600.15272	0.06693
3598.86695	0.06688
3597.58118	0.06623
3596.29541	0.06528
3595.00964	0.06452
3593.72387	0.06430
3592.43810	0.06458
3591.15233	0.06478
3589.86656	0.06460
3588.58080	0.06443
3587.29503	0.06476
3586.00926	0.06560
3584.72349	0.06651
3583.43772	0.06708
3582.15195	0.06740
3580.86618	0.06784
3579.58041	0.06856
3578.29464	0.06943
3577.00888	0.07022
3575.72311	0.07074
3574.43734	0.07098
3573.15157	0.07119
3571.86580	0.07165
3570.58003	0.07232
3569.29426	0.07277
3568.00849	0.07265
3566.72273	0.07216
3565.43696	0.07188
3564.15119	0.07225
3562.86542	0.07323
3561.57965	0.07436
3560.29388	0.07517
3559.00811	0.07547
3557.72234	0.07545
3556.43657	0.07543
3555.15081	0.07562
3553.86504	0.07594
3552.57927	0.07622
3551.29350	0.07648
3550.00773	0.07686
3548.72196	0.07745
3547.43619	0.07802
3546.15042	0.07819
3544.86466	0.07781
3543.57889	0.07711
3542.29312	0.07659
3541.00735	0.07669
3539.72158	0.07750
3538.43581	0.07876
3537.15004	0.08002
3535.86427	0.08087
3534.57850	0.08109
3533.29274	0.08070
3532.00697	0.08002
3530.72120	0.07951
3529.43543	0.07956
3528.14966	0.08023
3526.86389	0.08125
3525.57812	0.08224
3524.29235	0.08298
3523.00659	0.08340
3521.72082	0.08351
3520.43505	0.08338
3519.14928	0.08319
3517.86351	0.08316
3516.57774	0.08360
3515.29197	0.08461
3514.00620	0.08592
3512.72043	0.08694
3511.43467	0.08724
3510.14890	0.08688
3508.86313	0.08630
3507.57736	0.08594
3506.29159	0.08601
3505.00582	0.08658
3503.72005	0.08747
3502.43428	0.08838
3501.14852	0.08899
3499.86275	0.08925
3498.57698	0.08927
3497.29121	0.08921
3496.00544	0.08923
3494.71967	0.08943
3493.43390	0.08973
3492.14813	0.08988
3490.86236	0.08972
3489.57660	0.08937
3488.29083	0.08925
3487.00506	0.08966
3485.71929	0.09050
3484.43352	0.09139
3483.14775	0.09199
3481.86198	0.09219
3480.57621	0.09213
3479.29045	0.09198
3478.00468	0.09180
3476.71891	0.09162
3475.43314	0.09149
3474.14737	0.09155
3472.86160	0.09191
3471.57583	0.09263
3470.29006	0.09360
3469.00429	0.09458
3467.71853	0.09521
3466.43276	0.09523
3465.14699	0.09472
3463.86122	0.09412
3462.57545	0.09390
3461.28968	0.09409
3460.00391	0.09434
3458.71814	0.09438
3457.43238	0.09426
3456.14661	0.09433
3454.86084	0.09480
3453.57507	0.09561
3452.28930	0.09653
3451.00353	0.09724
3449.71776	0.09752
3448.43199	0.09729
3447.14622	0.09672
3445.86046	0.09621
3444.57469	0.09613
3443.28892	0.09662
3442.00315	0.09755
3440.71738	0.09861
3439.43161	0.09945
3438.14584	0.09985
3436.86007	0.09980
3435.57431	0.09946
3434.28854	0.09908
3433.00277	0.09885
3431.71700	0.09887
3430.43123	0.09919
3429.14546	0.09975
3427.85969	0.10045
3426.57392	0.10108
3425.28815	0.10149
3424.00239	0.10168
3422.71662	0.10180
3421.43085	0.10200
3420.14508	0.10242
3418.85931	0.10306
3417.57354	0.10370
3416.28777	0.10399
3415.00200	0.10379
3413.71624	0.10336
3412.43047	0.10316
3411.14470	0.10343
3409.85893	0.10396
3408.57316	0.10442
3407.28739	0.10468
3406.00162	0.10482
3404.71585	0.10494
3403.43008	0.10498
3402.14432	0.10490
3400.85855	0.10476
3399.57278	0.10462
3398.28701	0.10443
3397.00124	0.10415
3395.71547	0.10389
3394.42970	0.10378
3393.14393	0.10386
3391.85817	0.10410
3390.57240	0.10444
3389.28663	0.10485
3388.00086	0.10529
3386.71509	0.10563
3385.42932	0.10574
3384.14355	0.10554
3382.85778	0.10514
3381.57201	0.10477
3380.28625	0.10472
3379.00048	0.10505
3377.71471	0.10553
3376.42894	0.10586
3375.14317	0.10593
3373.85740	0.10587
3372.57163	0.10590
3371.28586	0.10608
3370.00010	0.10630
3368.71433	0.10640
3367.42856	0.10628
3366.14279	0.10595
3364.85702	0.10557
3363.57125	0.10532
3362.28548	0.10530
3360.99971	0.10547
3359.71394	0.10568
3358.42818	0.10590
3357.14241	0.10624
3355.85664	0.10678
3354.57087	0.10750
3353.28510	0.10817
3351.99933	0.10856
3350.71356	0.10858
3349.42779	0.10830
3348.14202	0.10794
3346.85626	0.10758
3345.57049	0.10722
3344.28472	0.10683
3342.99895	0.10652
3341.71318	0.10648
3340.42741	0.10668
3339.14164	0.10690
3337.85587	0.10691
3336.57011	0.10675
3335.28434	0.10661
3333.99857	0.10669
3332.71280	0.10692
3331.42703	0.10707
3330.14126	0.10688
3328.85549	0.10634
3327.56972	0.10580
3326.28395	0.10563
3324.99819	0.10594
3323.71242	0.10649
3322.42665	0.10699
3321.14088	0.10736
3319.85511	0.10768
3318.56934	0.10798
3317.28357	0.10814
3315.99780	0.10806
3314.71204	0.10779
3313.42627	0.10758
3312.14050	0.10760
3310.85473	0.10779
3309.56896	0.10787
3308.28319	0.10758
3306.99742	0.10693
3305.71165	0.10615
3304.42588	0.10553
3303.14012	0.10515
3301.85435	0.10500
3300.56858	0.10511
3299.28281	0.10547
3297.99704	0.10590
3296.71127	0.10611
3295.42550	0.10608
3294.13973	0.10598
3292.85397	0.10593
3291.56820	0.10589
3290.28243	0.10584
3288.99666	0.10584
3287.71089	0.10589
3286.42512	0.10593
3285.13935	0.10589
3283.85358	0.10582
3282.56781	0.10573
3281.28205	0.10553
3279.99628	0.10518
3278.71051	0.10485
3277.42474	0.10477
3276.13897	0.10504
3274.85320	0.10551
3273.56743	0.10592
3272.28166	0.10615
3270.99590	0.10621
3269.71013	0.10614
3268.42436	0.10589
3267.13859	0.10556
3265.85282	0.10535
3264.56705	0.10536
3263.28128	0.10549
3261.99551	0.10551
3260.70974	0.10535
3259.42398	0.10513
3258.13821	0.10499
3256.85244	0.10493
3255.56667	0.10486
3254.28090	0.10469
3252.99513	0.10448
3251.70936	0.10432
3250.42359	0.10419
3249.13783	0.10400
3247.85206	0.10377
3246.56629	0.10366
3245.28052	0.10377
3243.99475	0.10399
3242.70898	0.10410
3241.42321	0.10399
3240.13744	0.10375
3238.85167	0.10347
3237.56591	0.10323
3236.28014	0.10311
3234.99437	0.10319
3233.70860	0.10341
3232.42283	0.10354
3231.13706	0.10336
3229.85129	0.10289
3228.56552	0.10246
3227.27976	0.10240
3225.99399	0.10271
3224.70822	0.10308
3223.42245	0.10318
3222.13668	0.10291
3220.85091	0.10248
3219.56514	0.10212
3218.27937	0.10188
3216.99360	0.10171
3215.70784	0.10162
3214.42207	0.10168
3213.13630	0.10186
3211.85053	0.10204
3210.56476	0.10209
3209.27899	0.10197
3207.99322	0.10172
3206.70745	0.10142
3205.42169	0.10117
3204.13592	0.10098
3202.85015	0.10070
3201.56438	0.10026
3200.27861	0.09976
3198.99284	0.09940
3197.70707	0.09925
3196.42130	0.09920
3195.13553	0.09915
3193.84977	0.09906
3192.56400	0.09901
3191.27823	0.09905
3189.99246	0.09921
3188.70669	0.09939
3187.42092	0.09947
3186.13515	0.09934
3184.84938	0.09899
3183.56362	0.09856
3182.27785	0.09829
3180.99208	0.09835
3179.70631	0.09862
3178.42054	0.09883
3177.13477	0.09877
3175.84900	0.09846
3174.56323	0.09806
3173.27746	0.09773
3171.99170	0.09758
3170.70593	0.09761
3169.42016	0.09776
3168.13439	0.09792
3166.84862	0.09810
3165.56285	0.09836
3164.27708	0.09864
3162.99131	0.09870
3161.70555	0.09830
3160.41978	0.09751
3159.13401	0.09665
3157.84824	0.09604
3156.56247	0.09576
3155.27670	0.09564
3153.99093	0.09551
3152.70516	0.09535
3151.41939	0.09525
3150.13363	0.09526
3148.84786	0.09535
3147.56209	0.09544
3146.27632	0.09548
3144.99055	0.09545
3143.70478	0.09535
3142.41901	0.09521
3141.13324	0.09504
3139.84748	0.09480
3138.56171	0.09443
3137.27594	0.09392
3135.99017	0.09342
3134.70440	0.09313
3133.41863	0.09301
3132.13286	0.09285
3130.84709	0.09255
3129.56132	0.09232
3128.27556	0.09243
3126.98979	0.09289
3125.70402	0.09342
3124.41825	0.09370
3123.13248	0.09370
3121.84671	0.09357
3120.56094	0.09345
3119.27517	0.09330
3117.98940	0.09301
3116.70364	0.09254
3115.41787	0.09197
3114.13210	0.09149
3112.84633	0.09122
3111.56056	0.09122
3110.27479	0.09141
3108.98902	0.09162
3107.70325	0.09167
3106.41749	0.09145
3105.13172	0.09102
3103.84595	0.09053
3102.56018	0.09013
3101.27441	0.08988
3099.98864	0.08982
3098.70287	0.08996
3097.41710	0.09016
3096.13133	0.09022
3094.84557	0.09001
3093.55980	0.08966
3092.27403	0.08937
3090.98826	0.08925
3089.70249	0.08925
3088.41672	0.08930
3087.13095	0.08937
3085.84518	0.08939
3084.55942	0.08933
3083.27365	0.08921
3081.98788	0.08909
3080.70211	0.08896
3079.41634	0.08873
3078.13057	0.08837
3076.84480	0.08798
3075.55903	0.08772
3074.27326	0.08769
3072.98750	0.08779
3071.70173	0.08785
3070.41596	0.08775
3069.13019	0.08747
3067.84442	0.08711
3066.55865	0.08677
3065.27288	0.08653
3063.98711	0.08639
3062.70135	0.08632
3061.41558	0.08628
3060.12981	0.08621
3058.84404	0.08608
3057.55827	0.08586
3056.27250	0.08554
3054.98673	0.08515
3053.70096	0.08477
3052.41519	0.08447
3051.12943	0.08432
3049.84366	0.08428
3048.55789	0.08425
3047.27212	0.08414
3045.98635	0.08396
3044.70058	0.08379
3043.41481	0.08366
3042.12904	0.08351
3040.84328	0.08330
3039.55751	0.08305
3038.27174	0.08286
3036.98597	0.08279
3035.70020	0.08286
3034.41443	0.08300
3033.12866	0.08314
3031.84289	0.08325
3030.55712	0.08332
3029.27136	0.08332
3027.98559	0.08317
3026.69982	0.08286
3025.41405	0.08245
3024.12828	0.08201
3022.84251	0.08166
3021.55674	0.08150
3020.27097	0.08155
3018.98521	0.08172
3017.69944	0.08186
3016.41367	0.08186
3015.12790	0.08175
3013.84213	0.08158
3012.55636	0.08143
3011.27059	0.08130
3009.98482	0.08120
3008.69905	0.08110
3007.41329	0.08102
3006.12752	0.08095
3004.84175	0.08078
3003.55598	0.08040
3002.27021	0.07984
3000.98444	0.07929
2999.69867	0.07897
2998.41290	0.07887
2997.12714	0.07886
2995.84137	0.07890
2994.55560	0.07901
2993.26983	0.07921
2991.98406	0.07939
2990.69829	0.07944
2989.41252	0.07935
2988.12675	0.07927
2986.84098	0.07939
2985.55522	0.07982
2984.26945	0.08044
2982.98368	0.08106
2981.69791	0.08162
2980.41214	0.08214
2979.12637	0.08269
2977.84060	0.08333
2976.55483	0.08416
2975.26907	0.08515
2973.98330	0.08615
2972.69753	0.08713
2971.41176	0.08821
2970.12599	0.08948
2968.84022	0.09086
2967.55445	0.09223
2966.26868	0.09361
2964.98291	0.09509
2963.69715	0.09662
2962.41138	0.09813
2961.12561	0.09954
2959.83984	0.10084
2958.55407	0.10203
2957.26830	0.10314
2955.98253	0.10410
2954.69676	0.10481
2953.41100	0.10521
2952.12523	0.10540
2950.83946	0.10563
2949.55369	0.10601
2948.26792	0.10644
2946.98215	0.10670
2945.69638	0.10663
2944.41061	0.10626
2943.12484	0.10582
2941.83908	0.10565
2940.55331	0.10593
2939.26754	0.10663
2937.98177	0.10760
2936.69600	0.10873
2935.41023	0.10997
2934.12446	0.11136
2932.83869	0.11288
2931.55293	0.11445
2930.26716	0.11593
2928.98139	0.11721
2927.69562	0.11831
2926.40985	0.11930
2925.12408	0.12023
2923.83831	0.12100
2922.55254	0.12145
2921.26677	0.12148
2919.98101	0.12112
2918.69524	0.12040
2917.40947	0.11937
2916.12370	0.11809
2914.83793	0.11664
2913.55216	0.11515
2912.26639	0.11373
2910.98062	0.11254
2909.69486	0.11162
2908.40909	0.11088
2907.12332	0.11021
2905.83755	0.10950
2904.55178	0.10865
2903.26601	0.10761
2901.98024	0.10648
2900.69447	0.10538
2899.40870	0.10439
2898.12294	0.10344
2896.83717	0.10248
2895.55140	0.10156
2894.26563	0.10067
2892.97986	0.09979
2891.69409	0.09886
2890.40832	0.09795
2889.12255	0.09721
2887.83678	0.09668
2886.55102	0.09629
2885.26525	0.09585
2883.97948	0.09531
2882.69371	0.09472
2881.40794	0.09423
2880.12217	0.09400
2878.83640	0.09412
2877.55063	0.09458
2876.26487	0.09529
2874.97910	0.09601
2873.69333	0.09657
2872.40756	0.09695
2871.12179	0.09727
2869.83602	0.09757
2868.55025	0.09777
2867.26448	0.09781
2865.97871	0.09774
2864.69295	0.09774
2863.40718	0.09796
2862.12141	0.09841
2860.83564	0.09900
2859.54987	0.09950
2858.26410	0.09976
2856.97833	0.09975
2855.69256	0.09956
2854.40680	0.09927
2853.12103	0.09892
2851.83526	0.09847
2850.54949	0.09780
2849.26372	0.09683
2847.97795	0.09558
2846.69218	0.09417
2845.40641	0.09273
2844.12064	0.09130
2842.83488	0.08997
2841.54911	0.08882
2840.26334	0.08786
2838.97757	0.08693
2837.69180	0.08582
2836.40603	0.08447
2835.12026	0.08304
2833.83449	0.08172
2832.54873	0.08060
2831.26296	0.07967
2829.97719	0.07886
2828.69142	0.07822
2827.40565	0.07778
2826.11988	0.07746
2824.83411	0.07709
2823.54834	0.07658
2822.26257	0.07604
2820.97681	0.07559
2819.69104	0.07521
2818.40527	0.07477
2817.11950	0.07429
2815.83373	0.07389
2814.54796	0.07363
2813.26219	0.07335
2811.97642	0.07295
2810.69066	0.07247
2809.40489	0.07208
2808.11912	0.07186
2806.83335	0.07176
2805.54758	0.07172
2804.26181	0.07172
2802.97604	0.07169
2801.69027	0.07157
2800.40450	0.07127
2799.11874	0.07084
2797.83297	0.07037
2796.54720	0.06996
2795.26143	0.06968
2793.97566	0.06948
2792.68989	0.06928
2791.40412	0.06902
2790.11835	0.06875
2788.83259	0.06855
2787.54682	0.06842
2786.26105	0.06834
2784.97528	0.06829
2783.68951	0.06833
2782.40374	0.06844
2781.11797	0.06847
2779.83220	0.06828
2778.54643	0.06782
2777.26067	0.06719
2775.97490	0.06660
2774.68913	0.06625
2773.40336	0.06622
2772.11759	0.06637
2770.83182	0.06645
2769.54605	0.06632
2768.26028	0.06605
2766.97452	0.06589
2765.68875	0.06601
2764.40298	0.06631
2763.11721	0.06649
2761.83144	0.06631
2760.54567	0.06580
2759.25990	0.06525
2757.97413	0.06496
2756.68836	0.06499
2755.40260	0.06515
2754.11683	0.06518
2752.83106	0.06499
2751.54529	0.06469
2750.25952	0.06446
2748.97375	0.06438
2747.68798	0.06436
2746.40221	0.06429
2745.11645	0.06414
2743.83068	0.06401
2742.54491	0.06396
2741.25914	0.06390
2739.97337	0.06374
2738.68760	0.06353
2737.40183	0.06341
2736.11606	0.06340
2734.83029	0.06340
2733.54453	0.06332
2732.25876	0.06314
2730.97299	0.06290
2729.68722	0.06268
2728.40145	0.06258
2727.11568	0.06263
2725.82991	0.06273
2724.54414	0.06275
2723.25838	0.06265
2721.97261	0.06252
2720.68684	0.06249
2719.40107	0.06257
2718.11530	0.06264
2716.82953	0.06259
2715.54376	0.06236
2714.25799	0.06205
2712.97222	0.06176
2711.68646	0.06155
2710.40069	0.06141
2709.11492	0.06127
2707.82915	0.06110
2706.54338	0.06095
2705.25761	0.06090
2703.97184	0.06092
2702.68607	0.06091
2701.40031	0.06079
2700.11454	0.06059
2698.82877	0.06036
2697.54300	0.06013
2696.25723	0.05997
2694.97146	0.05990
2693.68569	0.05992
2692.39992	0.05995
2691.11415	0.05993
2689.82839	0.05989
2688.54262	0.05983
2687.25685	0.05973
2685.97108	0.05955
2684.68531	0.05933
2683.39954	0.05914
2682.11377	0.05898
2680.82800	0.05884
2679.54224	0.05871
2678.25647	0.05860
2676.97070	0.05852
2675.68493	0.05851
2674.39916	0.05857
2673.11339	0.05870
2671.82762	0.05889
2670.54185	0.05910
2669.25608	0.05928
2667.97032	0.05929
2666.68455	0.05909
2665.39878	0.05877
2664.11301	0.05858
2662.82724	0.05867
2661.54147	0.05904
2660.25570	0.05949
2658.96993	0.05977
2657.68417	0.05976
2656.39840	0.05951
2655.11263	0.05918
2653.82686	0.05889
2652.54109	0.05866
2651.25532	0.05842
2649.96955	0.05817
2648.68378	0.05799
2647.39801	0.05793
2646.11225	0.05788
2644.82648	0.05766
2643.54071	0.05721
2642.25494	0.05663
2640.96917	0.05615
2639.68340	0.05593
2638.39763	0.05589
2637.11186	0.05578
2635.82609	0.05541
2634.54033	0.05488
2633.25456	0.05438
2631.96879	0.05410
2630.68302	0.05402
2629.39725	0.05404
2628.11148	0.05403
2626.82571	0.05391
2625.53994	0.05370
2624.25418	0.05344
2622.96841	0.05319
2621.68264	0.05294
2620.39687	0.05272
2619.11110	0.05256
2617.82533	0.05242
2616.53956	0.05228
2615.25379	0.05217
2613.96802	0.05213
2612.68226	0.05211
2611.39649	0.05203
2610.11072	0.05189
2608.82495	0.05170
2607.53918	0.05143
2606.25341	0.05105
2604.96764	0.05066
2603.68187	0.05037
2602.39611	0.05022
2601.11034	0.05017
2599.82457	0.05020
2598.53880	0.05025
2597.25303	0.05021
2595.96726	0.05008
2594.68149	0.04991
2593.39572	0.04975
2592.10995	0.04958
2590.82419	0.04935
2589.53842	0.04912
2588.25265	0.04900
2586.96688	0.04902
2585.68111	0.04908
2584.39534	0.04911
2583.10957	0.04913
2581.82380	0.04910
2580.53804	0.04887
2579.25227	0.04833
2577.96650	0.04768
2576.68073	0.04731
2575.39496	0.04739
2574.10919	0.04770
2572.82342	0.04791
2571.53765	0.04783
2570.25188	0.04749
2568.96612	0.04712
2567.68035	0.04697
2566.39458	0.04707
2565.10881	0.04720
2563.82304	0.04712
2562.53727	0.04687
2561.25150	0.04668
2559.96573	0.04662
2558.67997	0.04657
2557.39420	0.04645
2556.10843	0.04635
2554.82266	0.04637
2553.53689	0.04649
2552.25112	0.04659
2550.96535	0.04654
2549.67958	0.04629
2548.39381	0.04588
2547.10805	0.04545
2545.82228	0.04514
2544.53651	0.04496
2543.25074	0.04485
2541.96497	0.04472
2540.67920	0.04459
2539.39343	0.04453
2538.10766	0.04447
2536.82190	0.04431
2535.53613	0.04400
2534.25036	0.04368
2532.96459	0.04358
2531.67882	0.04366
2530.39305	0.04373
2529.10728	0.04365
2527.82151	0.04353
2526.53574	0.04353
2525.24998	0.04372
2523.96421	0.04406
2522.67844	0.04449
2521.39267	0.04483
2520.10690	0.04484
2518.82113	0.04451
2517.53536	0.04413
2516.24959	0.04404
2514.96383	0.04422
2513.67806	0.04434
2512.39229	0.04416
2511.10652	0.04387
2509.82075	0.04381
2508.53498	0.04404
2507.24921	0.04424
2505.96344	0.04413
2504.67767	0.04381
2503.39191	0.04353
2502.10614	0.04330
2500.82037	0.04296
2499.53460	0.04251
2498.24883	0.04223
2496.96306	0.04228
2495.67729	0.04248
2494.39152	0.04260
2493.10576	0.04263
2491.81999	0.04269
2490.53422	0.04281
2489.24845	0.04285
2487.96268	0.04271
2486.67691	0.04245
2485.39114	0.04224
2484.10537	0.04218
2482.81960	0.04221
2481.53384	0.04217
2480.24807	0.04191
2478.96230	0.04152
2477.67653	0.04126
2476.39076	0.04135
2475.10499	0.04168
2473.81922	0.04195
2472.53345	0.04198
2471.24769	0.04189
2469.96192	0.04196
2468.67615	0.04230
2467.39038	0.04277
2466.10461	0.04316
2464.81884	0.04331
2463.53307	0.04314
2462.24730	0.04266
2460.96153	0.04209
2459.67577	0.04169
2458.39000	0.04163
2457.10423	0.04188
2455.81846	0.04223
2454.53269	0.04242
2453.24692	0.04241
2451.96115	0.04232
2450.67538	0.04231
2449.38962	0.04232
2448.10385	0.04214
2446.81808	0.04171
2445.53231	0.04124
2444.24654	0.04100
2442.96077	0.04102
2441.67500	0.04108
2440.38923	0.04100
2439.10346	0.04083
2437.81770	0.04076
2436.53193	0.04081
2435.24616	0.04082
2433.96039	0.04067
2432.67462	0.04041
2431.38885	0.04021
2430.10308	0.04017
2428.81731	0.04023
2427.53155	0.04032
2426.24578	0.04041
2424.96001	0.04050
2423.67424	0.04059
2422.38847	0.04062
2421.10270	0.04054
2419.81693	0.04037
2418.53116	0.04011
2417.24539	0.03981
2415.95963	0.03948
2414.67386	0.03918
2413.38809	0.03896
2412.10232	0.03885
2410.81655	0.03888
2409.53078	0.03906
2408.24501	0.03934
2406.95924	0.03964
2405.67347	0.03988
2404.38771	0.04002
2403.10194	0.04006
2401.81617	0.04002
2400.53040	0.03995
2399.24463	0.03988
2397.95886	0.03989
2396.67309	0.03992
2395.38732	0.03989
2394.10156	0.03974
2392.81579	0.03957
2391.53002	0.03950
2390.24425	0.03962
2388.95848	0.03997
2387.67271	0.04054
2386.38694	0.04126
2385.10117	0.04201
2383.81540	0.04264
2382.52964	0.04302
2381.24387	0.04320
2379.95810	0.04324
2378.67233	0.04326
2377.38656	0.04335
2376.10079	0.04330
2374.81502	0.04301
2373.52925	0.04257
2372.24349	0.04196
2370.95772	0.04142
2369.67195	0.04076
2368.38618	0.04007
2367.10041	0.03954
2365.81464	0.03873
2364.52887	0.03702
2363.24310	0.03496
2361.95733	0.03340
2360.67157	0.03229
2359.38580	0.03087
2358.10003	0.02918
2356.81426	0.02748
2355.52849	0.02592
2354.24272	0.02520
2352.95695	0.02604
2351.67118	0.02916
2350.38542	0.03443
2349.09965	0.03948
2347.81388	0.04177
2346.52811	0.04158
2345.24234	0.04054
2343.95657	0.03939
2342.67080	0.03823
2341.38503	0.03756
2340.09926	0.03734
2338.81350	0.03684
2337.52773	0.03591
2336.24196	0.03476
2334.95619	0.03419
2333.67042	0.03459
2332.38465	0.03521
2331.09888	0.03577
2329.81311	0.03638
2328.52735	0.03691
2327.24158	0.03769
2325.95581	0.03856
2324.67004	0.03882
2323.38427	0.03841
2322.09850	0.03759
2320.81273	0.03661
2319.52696	0.03607
2318.24119	0.03614
2316.95543	0.03650
2315.66966	0.03687
2314.38389	0.03711
2313.09812	0.03726
2311.81235	0.03725
2310.52658	0.03712
2309.24081	0.03707
2307.95504	0.03717
2306.66928	0.03734
2305.38351	0.03760
2304.09774	0.03777
2302.81197	0.03770
2301.52620	0.03740
2300.24043	0.03706
2298.95466	0.03685
2297.66889	0.03681
2296.38312	0.03692
2295.09736	0.03715
2293.81159	0.03746
2292.52582	0.03774
2291.24005	0.03783
2289.95428	0.03766
2288.66851	0.03730
2287.38274	0.03691
2286.09697	0.03663
2284.81121	0.03653
2283.52544	0.03651
2282.23967	0.03642
2280.95390	0.03610
2279.66813	0.03554
2278.38236	0.03491
2277.09659	0.03441
2275.81082	0.03414
2274.52505	0.03399
2273.23929	0.03378
2271.95352	0.03348
2270.66775	0.03315
2269.38198	0.03290
2268.09621	0.03268
2266.81044	0.03239
2265.52467	0.03203
2264.23890	0.03174
2262.95314	0.03164
2261.66737	0.03164
2260.38160	0.03159
2259.09583	0.03137
2257.81006	0.03096
2256.52429	0.03048
2255.23852	0.03015
2253.95275	0.03018
2252.66698	0.03054
2251.38122	0.03104
2250.09545	0.03144
2248.80968	0.03159
2247.52391	0.03160
2246.23814	0.03155
2244.95237	0.03159
2243.66660	0.03179
2242.38083	0.03204
2241.09507	0.03209
2239.80930	0.03170
2238.52353	0.03080
2237.23776	0.02962
2235.95199	0.02858
2234.66622	0.02800
2233.38045	0.02790
2232.09468	0.02803
2230.80891	0.02808
2229.52315	0.02777
2228.23738	0.02713
2226.95161	0.02656
2225.66584	0.02652
2224.38007	0.02692
2223.09430	0.02709
2221.80853	0.02650
2220.52276	0.02547
2219.23700	0.02489
2217.95123	0.02519
2216.66546	0.02585
2215.37969	0.02600
2214.09392	0.02540
2212.80815	0.02454
2211.52238	0.02396
2210.23661	0.02376
2208.95084	0.02369
2207.66508	0.02350
2206.37931	0.02315
2205.09354	0.02277
2203.80777	0.02255
2202.52200	0.02264
2201.23623	0.02296
2199.95046	0.02333
2198.66469	0.02358
2197.37893	0.02371
2196.09316	0.02389
2194.80739	0.02419
2193.52162	0.02455
2192.23585	0.02472
2190.95008	0.02435
2189.66431	0.02327
2188.37854	0.02171
2187.09277	0.02028
2185.80701	0.01937
2184.52124	0.01884
2183.23547	0.01842
2181.94970	0.01830
2180.66393	0.01881
2179.37816	0.01970
2178.09239	0.02026
2176.80662	0.02001
2175.52085	0.01923
2174.23509	0.01854
2172.94932	0.01827
2171.66355	0.01822
2170.37778	0.01797
2169.09201	0.01716
2167.80624	0.01577
2166.52047	0.01410
2165.23470	0.01271
2163.94894	0.01202
2162.66317	0.01207
2161.37740	0.01240
2160.09163	0.01234
2158.80586	0.01155
2157.52009	0.01035
2156.23432	0.00955
2154.94855	0.00978
2153.66278	0.01109
2152.37702	0.01301
2151.09125	0.01492
2149.80548	0.01643
2148.51971	0.01738
2147.23394	0.01777
2145.94817	0.01776
2144.66240	0.01763
2143.37663	0.01777
2142.09087	0.01842
2140.80510	0.01953
2139.51933	0.02061
2138.23356	0.02107
2136.94779	0.02070
2135.66202	0.01987
2134.37625	0.01922
2133.09048	0.01911
2131.80471	0.01952
2130.51895	0.02024
2129.23318	0.02100
2127.94741	0.02146
2126.66164	0.02134
2125.37587	0.02076
2124.09010	0.02022
2122.80433	0.02021
2121.51856	0.02089
2120.23280	0.02207
2118.94703	0.02330
2117.66126	0.02414
2116.37549	0.02445
2115.08972	0.02458
2113.80395	0.02486
2112.51818	0.02514
2111.23241	0.02496
2109.94664	0.02433
2108.66088	0.02380
2107.37511	0.02379
2106.08934	0.02409
2104.80357	0.02422
2103.51780	0.02399
2102.23203	0.02361
2100.94626	0.02332
2099.66049	0.02301
2098.37473	0.02254
2097.08896	0.02194
2095.80319	0.02150
2094.51742	0.02154
2093.23165	0.02205
2091.94588	0.02262
2090.66011	0.02281
2089.37434	0.02265
2088.08857	0.02258
2086.80281	0.02296
2085.51704	0.02363
2084.23127	0.02415
2082.94550	0.02421
2081.65973	0.02391
2080.37396	0.02347
2079.08819	0.02300
2077.80242	0.02250
2076.51666	0.02192
2075.23089	0.02132
2073.94512	0.02080
2072.65935	0.02044
2071.37358	0.02020
2070.08781	0.02007
2068.80204	0.02016
2067.51627	0.02047
2066.23050	0.02073
2064.94474	0.02052
2063.65897	0.01975
2062.37320	0.01874
2061.08743	0.01797
2059.80166	0.01771
2058.51589	0.01789
2057.23012	0.01821
2055.94435	0.01842
2054.65859	0.01862
2053.37282	0.01904
2052.08705	0.01958
2050.80128	0.01980
2049.51551	0.01939
2048.22974	0.01850
2046.94397	0.01750
2045.65820	0.01656
2044.37243	0.01575
2043.08667	0.01524
2041.80090	0.01518
2040.51513	0.01546
2039.22936	0.01572
2037.94359	0.01567
2036.65782	0.01529
2035.37205	0.01478
2034.08628	0.01415
2032.80052	0.01314
2031.51475	0.01152
2030.22898	0.00957
2028.94321	0.00794
2027.65744	0.00714
2026.37167	0.00732
2025.08590	0.00832
2023.80013	0.00986
2022.51436	0.01151
2021.22860	0.01281
2019.94283	0.01357
2018.65706	0.01401
2017.37129	0.01440
2016.08552	0.01454
2014.79975	0.01405
2013.51398	0.01294
2012.22821	0.01180
2010.94245	0.01109
2009.65668	0.01069
2008.37091	0.01037
2007.08514	0.01040
2005.79937	0.01121
2004.51360	0.01263
2003.22783	0.01393
2001.94206	0.01459
2000.65629	0.01469
1999.37053	0.01466
1998.08476	0.01486
1996.79899	0.01546
1995.51322	0.01633
1994.22745	0.01715
1992.94168	0.01756
1991.65591	0.01742
1990.37014	0.01695
1989.08438	0.01656
1987.79861	0.01651
1986.51284	0.01667
1985.22707	0.01670
1983.94130	0.01644
1982.65553	0.01612
1981.36976	0.01592
1980.08399	0.01562
1978.79822	0.01486
1977.51246	0.01372
1976.22669	0.01284
1974.94092	0.01281
1973.65515	0.01367
1972.36938	0.01504
1971.08361	0.01638
1969.79784	0.01728
1968.51207	0.01763
1967.22631	0.01761
1965.94054	0.01744
1964.65477	0.01718
1963.36900	0.01682
1962.08323	0.01657
1960.79746	0.01666
1959.51169	0.01696
1958.22592	0.01700
1956.94015	0.01656
1955.65439	0.01603
1954.36862	0.01603
1953.08285	0.01678
1951.79708	0.01797
1950.51131	0.01905
1949.22554	0.01963
1947.93977	0.01958
1946.65400	0.01911
1945.36823	0.01860
1944.08247	0.01845
1942.79670	0.01874
1941.51093	0.01932
1940.22516	0.01987
1938.93939	0.02022
1937.65362	0.02029
1936.36785	0.02013
1935.08208	0.01984
1933.79632	0.01956
1932.51055	0.01942
1931.22478	0.01945
1929.93901	0.01951
1928.65324	0.01949
1927.36747	0.01937
1926.08170	0.01927
1924.79593	0.01933
1923.51016	0.01964
1922.22440	0.02015
1920.93863	0.02066
1919.65286	0.02092
1918.36709	0.02084
1917.08132	0.02060
1915.79555	0.02052
1914.50978	0.02074
1913.22401	0.02108
1911.93825	0.02122
1910.65248	0.02100
1909.36671	0.02055
1908.08094	0.02023
1906.79517	0.02032
1905.50940	0.02079
1904.22363	0.02141
1902.93786	0.02197
1901.65209	0.02245
1900.36633	0.02291
1899.08056	0.02328
1897.79479	0.02339
1896.50902	0.02318
1895.22325	0.02277
1893.93748	0.02240
1892.65171	0.02223
1891.36594	0.02228
1890.08018	0.02243
1888.79441	0.02258
1887.50864	0.02266
1886.22287	0.02269
1884.93710	0.02268
1883.65133	0.02263
1882.36556	0.02253
1881.07979	0.02242
1879.79402	0.02238
1878.50826	0.02241
1877.22249	0.02243
1875.93672	0.02239
1874.65095	0.02235
1873.36518	0.02246
1872.07941	0.02276
1870.79364	0.02316
1869.50787	0.02341
1868.22211	0.02337
1866.93634	0.02309
1865.65057	0.02276
1864.36480	0.02254
1863.07903	0.02246
1861.79326	0.02248
1860.50749	0.02257
1859.22172	0.02269
1857.93595	0.02286
1856.65019	0.02305
1855.36442	0.02320
1854.07865	0.02324
1852.79288	0.02313
1851.50711	0.02290
1850.22134	0.02271
1848.93557	0.02268
1847.64980	0.02283
1846.36404	0.02300
1845.07827	0.02307
1843.79250	0.02303
1842.50673	0.02300
1841.22096	0.02304
1839.93519	0.02311
1838.64942	0.02317
1837.36365	0.02319
1836.07788	0.02316
1834.79212	0.02311
1833.50635	0.02307
1832.22058	0.02306
1830.93481	0.02305
1829.64904	0.02302
1828.36327	0.02298
1827.07750	0.02299
1825.79173	0.02304
1824.50597	0.02311
1823.22020	0.02316
1821.93443	0.02313
1820.64866	0.02298
1819.36289	0.02269
1818.07712	0.02241
1816.79135	0.02233
1815.50558	0.02258
1814.21981	0.02308
1812.93405	0.02357
1811.64828	0.02386
1810.36251	0.02389
1809.07674	0.02377
1807.79097	0.02366
1806.50520	0.02366
1805.21943	0.02375
1803.93366	0.02385
1802.64790	0.02389
1801.36213	0.02387
1800.07636	0.02378
1798.79059	0.02370
1797.50482	0.02372
1796.21905	0.02388
1794.93328	0.02410
1793.64751	0.02428
1792.36174	0.02439
1791.07598	0.02445
1789.79021	0.02449
1788.50444	0.02449
1787.21867	0.02443
1785.93290	0.02433
1784.64713	0.02422
1783.36136	0.02416
1782.07559	0.02419
1780.78983	0.02432
1779.50406	0.02452
1778.21829	0.02476
1776.93252	0.02504
1775.64675	0.02529
1774.36098	0.02540
1773.07521	0.02530
1771.78944	0.02511
1770.50367	0.02500
1769.21791	0.02507
1767.93214	0.02529
1766.64637	0.02556
1765.36060	0.02584
1764.07483	0.02607
1762.78906	0.02623
1761.50329	0.02634
1760.21752	0.02644
1758.93176	0.02651
1757.64599	0.02653
1756.36022	0.02652
1755.07445	0.02651
1753.78868	0.02652
1752.50291	0.02649
1751.21714	0.02637
1749.93137	0.02621
1748.64560	0.02614
1747.35984	0.02626
1746.07407	0.02656
1744.78830	0.02693
1743.50253	0.02724
1742.21676	0.02740
1740.93099	0.02746
1739.64522	0.02751
1738.35945	0.02765
1737.07369	0.02784
1735.78792	0.02798
1734.50215	0.02796
1733.21638	0.02786
1731.93061	0.02786
1730.64484	0.02803
1729.35907	0.02832
1728.07330	0.02866
1726.78753	0.02899
1725.50177	0.02930
1724.21600	0.02959
1722.93023	0.02990
1721.64446	0.03024
1720.35869	0.03060
1719.07292	0.03088
1717.78715	0.03106
1716.50138	0.03124
1715.21561	0.03162
1713.92985	0.03224
1712.64408	0.03298
1711.35831	0.03365
1710.07254	0.03418
1708.78677	0.03460
1707.50100	0.03499
1706.21523	0.03544
1704.92946	0.03600
1703.64370	0.03661
1702.35793	0.03715
1701.07216	0.03752
1699.78639	0.03777
1698.50062	0.03800
1697.21485	0.03826
1695.92908	0.03854
1694.64331	0.03888
1693.35754	0.03935
1692.07178	0.03994
1690.78601	0.04054
1689.50024	0.04108
1688.21447	0.04152
1686.92870	0.04183
1685.64293	0.04197
1684.35716	0.04202
1683.07139	0.04216
1681.78563	0.04252
1680.49986	0.04310
1679.21409	0.04374
1677.92832	0.04431
1676.64255	0.04476
1675.35678	0.04514
1674.07101	0.04555
1672.78524	0.04603
1671.49947	0.04651
1670.21371	0.04691
1668.92794	0.04725
1667.64217	0.04766
1666.35640	0.04815
1665.07063	0.04865
1663.78486	0.04907
1662.49909	0.04942
1661.21332	0.04978
1659.92756	0.05024
1658.64179	0.05079
1657.35602	0.05137
1656.07025	0.05178
1654.78448	0.05185
1653.49871	0.05163
1652.21294	0.05141
1650.92717	0.05149
1649.64140	0.05189
1648.35564	0.05233
1647.06987	0.05257
1645.78410	0.05263
1644.49833	0.05267
1643.21256	0.05283
1641.92679	0.05312
1640.64102	0.05343
1639.35525	0.05368
1638.06949	0.05382
1636.78372	0.05383
1635.49795	0.05378
1634.21218	0.05378
1632.92641	0.05394
1631.64064	0.05426
1630.35487	0.05463
1629.06910	0.05496
1627.78333	0.05519
1626.49757	0.05531
1625.21180	0.05534
1623.92603	0.05537
1622.64026	0.05547
1621.35449	0.05569
1620.06872	0.05598
1618.78295	0.05618
1617.49718	0.05620
1616.21142	0.05613
1614.92565	0.05610
1613.63988	0.05623
1612.35411	0.05650
1611.06834	0.05685
1609.78257	0.05721
1608.49680	0.05755
1607.21103	0.05785
1605.92526	0.05811
1604.63950	0.05833
1603.35373	0.05852
1602.06796	0.05870
1600.78219	0.05889
1599.49642	0.05912
1598.21065	0.05937
1596.92488	0.05959
1595.63911	0.05975
1594.35335	0.05985
1593.06758	0.05994
1591.78181	0.06008
1590.49604	0.06029
1589.21027	0.06055
1587.92450	0.06082
1586.63873	0.06108
1585.35296	0.06130
1584.06719	0.06150
1582.78143	0.06171
1581.49566	0.06196
1580.20989	0.06225
1578.92412	0.06251
1577.63835	0.06267
1576.35258	0.06275
1575.06681	0.06287
1573.78104	0.06316
1572.49528	0.06360
1571.20951	0.06409
1569.92374	0.06452
1568.63797	0.06484
1567.35220	0.06507
1566.06643	0.06529
1564.78066	0.06558
1563.49489	0.06600
1562.20912	0.06647
1560.92336	0.06681
1559.63759	0.06694
1558.35182	0.06696
1557.06605	0.06707
1555.78028	0.06731
1554.49451	0.06764
1553.20874	0.06796
1551.92297	0.06825
1550.63721	0.06847
1549.35144	0.06861
1548.06567	0.06870
1546.77990	0.06878
1545.49413	0.06887
1544.20836	0.06892
1542.92259	0.06886
1541.63682	0.06861
1540.35105	0.06824
1539.06529	0.06791
1537.77952	0.06778
1536.49375	0.06784
1535.20798	0.06796
1533.92221	0.06804
1532.63644	0.06810
1531.35067	0.06823
1530.06490	0.06850
1528.77914	0.06886
1527.49337	0.06925
1526.20760	0.06967
1524.92183	0.07016
1523.63606	0.07072
1522.35029	0.07133
1521.06452	0.07200
1519.77875	0.07275
1518.49298	0.07364
1517.20722	0.07468
1515.92145	0.07582
1514.63568	0.07706
1513.34991	0.07840
1512.06414	0.07982
1510.77837	0.08130
1509.49260	0.08275
1508.20683	0.08408
1506.92107	0.08528
1505.63530	0.08643
1504.34953	0.08765
1503.06376	0.08900
1501.77799	0.09039
1500.49222	0.09170
1499.20645	0.09284
1497.92068	0.09379
1496.63491	0.09465
1495.34915	0.09550
1494.06338	0.09644
1492.77761	0.09745
1491.49184	0.09849
1490.20607	0.09952
1488.92030	0.10053
1487.63453	0.10155
1486.34876	0.10266
1485.06299	0.10389
1483.77723	0.10524
1482.49146	0.10669
1481.20569	0.10816
1479.91992	0.10961
1478.63415	0.11101
1477.34838	0.11234
1476.06261	0.11361
1474.77684	0.11482
1473.49108	0.11601
1472.20531	0.11720
1470.91954	0.11843
1469.63377	0.11965
1468.34800	0.12079
1467.06223	0.12177
1465.77646	0.12255
1464.49069	0.12320
1463.20492	0.12385
1461.91916	0.12458
1460.63339	0.12537
1459.34762	0.12613
1458.06185	0.12678
1456.77608	0.12732
1455.49031	0.12780
1454.20454	0.12829
1452.91877	0.12879
1451.63301	0.12923
1450.34724	0.12953
1449.06147	0.12967
1447.77570	0.12968
1446.48993	0.12959
1445.20416	0.12945
1443.91839	0.12929
1442.63262	0.12914
1441.34685	0.12904
1440.06109	0.12898
1438.77532	0.12891
1437.48955	0.12883
1436.20378	0.12879
1434.91801	0.12893
1433.63224	0.12936
1432.34647	0.13009
1431.06070	0.13107
1429.77494	0.13226
1428.48917	0.13359
1427.20340	0.13502
1425.91763	0.13649
1424.63186	0.13794
1423.34609	0.13937
1422.06032	0.14074
1420.77455	0.14203
1419.48878	0.14319
1418.20302	0.14421
1416.91725	0.14509
1415.63148	0.14582
1414.34571	0.14634
1413.05994	0.14661
1411.77417	0.14663
1410.48840	0.14642
1409.20263	0.14602
1407.91687	0.14543
1406.63110	0.14461
1405.34533	0.14357
1404.05956	0.14231
1402.77379	0.14088
1401.48802	0.13926
1400.20225	0.13748
1398.91648	0.13556
1397.63071	0.13357
1396.34495	0.13154
1395.05918	0.12947
1393.77341	0.12735
1392.48764	0.12520
1391.20187	0.12305
1389.91610	0.12090
1388.63033	0.11876
1387.34456	0.11669
1386.05880	0.11473
1384.77303	0.11292
1383.48726	0.11126
1382.20149	0.10971
1380.91572	0.10821
1379.62995	0.10670
1378.34418	0.10509
1377.05841	0.10330
1375.77264	0.10128
1374.48688	0.09903
1373.20111	0.09664
1371.91534	0.09422
1370.62957	0.09186
1369.34380	0.08963
1368.05803	0.08756
1366.77226	0.08561
1365.48649	0.08370
1364.20073	0.08178
1362.91496	0.07985
1361.62919	0.07799
1360.34342	0.07628
1359.05765	0.07471
1357.77188	0.07324
1356.48611	0.07185
1355.20034	0.07054
1353.91457	0.06934
1352.62881	0.06821
1351.34304	0.06715
1350.05727	0.06612
1348.77150	0.06512
1347.48573	0.06412
1346.19996	0.06315
1344.91419	0.06224
1343.62842	0.06139
1342.34266	0.06061
1341.05689	0.05985
1339.77112	0.05911
1338.48535	0.05839
1337.19958	0.05774
1335.91381	0.05716
1334.62804	0.05662
1333.34227	0.05606
1332.05650	0.05548
1330.77074	0.05490
1329.48497	0.05435
1328.19920	0.05382
1326.91343	0.05329
1325.62766	0.05276
1324.34189	0.05225
1323.05612	0.05179
1321.77035	0.05136
1320.48459	0.05096
1319.19882	0.05058
1317.91305	0.05020
1316.62728	0.04982
1315.34151	0.04944
1314.05574	0.04909
1312.76997	0.04881
1311.48420	0.04856
1310.19843	0.04831
1308.91267	0.04802
1307.62690	0.04767
1306.34113	0.04729
1305.05536	0.04690
1303.76959	0.04653
1302.48382	0.04620
1301.19805	0.04590
1299.91228	0.04562
1298.62652	0.04533
1297.34075	0.04505
1296.05498	0.04476
1294.76921	0.04447
1293.48344	0.04417
1292.19767	0.04389
1290.91190	0.04364
1289.62613	0.04341
1288.34036	0.04321
1287.05460	0.04303
1285.76883	0.04284
1284.48306	0.04267
1283.19729	0.04249
1281.91152	0.04230
1280.62575	0.04205
1279.33998	0.04173
1278.05421	0.04137
1276.76845	0.04101
1275.48268	0.04070
1274.19691	0.04044
1272.91114	0.04023
1271.62537	0.04009
1270.33960	0.03996
1269.05383	0.03982
1267.76806	0.03961
1266.48229	0.03934
1265.19653	0.03905
1263.91076	0.03878
1262.62499	0.03854
1261.33922	0.03833
1260.05345	0.03812
1258.76768	0.03789
1257.48191	0.03765
1256.19614	0.03743
1254.91037	0.03727
1253.62461	0.03715
1252.33884	0.03706
1251.05307	0.03696
1249.76730	0.03684
1248.48153	0.03669
1247.19576	0.03649
1245.90999	0.03623
1244.62422	0.03595
1243.33846	0.03570
1242.05269	0.03551
1240.76692	0.03538
1239.48115	0.03526
1238.19538	0.03513
1236.90961	0.03500
1235.62384	0.03485
1234.33807	0.03469
1233.05230	0.03451
1231.76654	0.03432
1230.48077	0.03415
1229.19500	0.03400
1227.90923	0.03389
1226.62346	0.03379
1225.33769	0.03370
1224.05192	0.03359
1222.76615	0.03347
1221.48039	0.03335
1220.19462	0.03324
1218.90885	0.03309
1217.62308	0.03289
1216.33731	0.03266
1215.05154	0.03246
1213.76577	0.03234
1212.48000	0.03229
1211.19423	0.03227
1209.90847	0.03220
1208.62270	0.03207
1207.33693	0.03194
1206.05116	0.03182
1204.76539	0.03172
1203.47962	0.03161
1202.19385	0.03149
1200.90808	0.03138
1199.62232	0.03129
1198.33655	0.03124
1197.05078	0.03121
1195.76501	0.03116
1194.47924	0.03109
1193.19347	0.03100
1191.90770	0.03094
1190.62193	0.03088
1189.33616	0.03082
1188.05040	0.03076
1186.76463	0.03070
1185.47886	0.03061
1184.19309	0.03047
1182.90732	0.03033
1181.62155	0.03024
1180.33578	0.03025
1179.05001	0.03032
1177.76425	0.03039
1176.47848	0.03041
1175.19271	0.03039
1173.90694	0.03037
1172.62117	0.03039
1171.33540	0.03046
1170.04963	0.03058
1168.76386	0.03073
1167.47809	0.03093
1166.19233	0.03117
1164.90656	0.03141
1163.62079	0.03161
1162.33502	0.03177
1161.04925	0.03193
1159.76348	0.03210
1158.47771	0.03229
1157.19194	0.03250
1155.90618	0.03271
1154.62041	0.03294
1153.33464	0.03324
1152.04887	0.03363
1150.76310	0.03405
1149.47733	0.03447
1148.19156	0.03488
1146.90579	0.03531
1145.62002	0.03585
1144.33426	0.03652
1143.04849	0.03732
1141.76272	0.03820
1140.47695	0.03916
1139.19118	0.04023
1137.90541	0.04142
1136.61964	0.04274
1135.33387	0.04418
1134.04811	0.04574
1132.76234	0.04747
1131.47657	0.04942
1130.19080	0.05162
1128.90503	0.05408
1127.61926	0.05680
1126.33349	0.05978
1125.04772	0.06302
1123.76195	0.06645
1122.47619	0.07004
1121.19042	0.07374
1119.90465	0.07752
1118.61888	0.08130
1117.33311	0.08507
1116.04734	0.08881
1114.76157	0.09252
1113.47580	0.09613
1112.19004	0.09960
1110.90427	0.10292
1109.61850	0.10614
1108.33273	0.10928
1107.04696	0.11236
1105.76119	0.11535
1104.47542	0.11820
1103.18965	0.12085
1101.90388	0.12331
1100.61812	0.12564
1099.33235	0.12790
1098.04658	0.13008
1096.76081	0.13215
1095.47504	0.13410
1094.18927	0.13593
1092.90350	0.13766
1091.61773	0.13931
1090.33197	0.14090
1089.04620	0.14246
1087.76043	0.14402
1086.47466	0.14555
1085.18889	0.14706
1083.90312	0.14857
1082.61735	0.15019
1081.33158	0.15201
1080.04581	0.15401
1078.76005	0.15612
1077.47428	0.15826
1076.18851	0.16043
1074.90274	0.16271
1073.61697	0.16517
1072.33120	0.16787
1071.04543	0.17075
1069.75966	0.17369
1068.47390	0.17655
1067.18813	0.17932
1065.90236	0.18210
1064.61659	0.18499
1063.33082	0.18802
1062.04505	0.19118
1060.75928	0.19442
1059.47351	0.19770
1058.18774	0.20094
1056.90198	0.20409
1055.61621	0.20715
1054.33044	0.21018
1053.04467	0.21328
1051.75890	0.21649
1050.47313	0.21983
1049.18736	0.22324
1047.90159	0.22673
1046.61583	0.23034
1045.33006	0.23412
1044.04429	0.23804
1042.75852	0.24203
1041.47275	0.24602
1040.18698	0.25003
1038.90121	0.25409
1037.61544	0.25825
1036.32967	0.26246
1035.04391	0.26657
1033.75814	0.27044
1032.47237	0.27399
1031.18660	0.27722
1029.90083	0.28013
1028.61506	0.28271
1027.32929	0.28497
1026.04352	0.28691
1024.75775	0.28853
1023.47199	0.28978
1022.18622	0.29061
1020.90045	0.29100
1019.61468	0.29098
1018.32891	0.29059
1017.04314	0.28979
1015.75737	0.28845
1014.47160	0.28649
1013.18584	0.28395
1011.90007	0.28099
1010.61430	0.27774
1009.32853	0.27415
1008.04276	0.27008
1006.75699	0.26550
1005.47122	0.26052
1004.18545	0.25522
1002.89968	0.24962
1001.61392	0.24371
1000.32815	0.23752
999.04238	0.23115
997.75661	0.22467
996.47084	0.21809
995.18507	0.21142
993.89930	0.20472
992.61353	0.19809
991.32777	0.19161
990.04200	0.18533
988.75623	0.17927
987.47046	0.17347
986.18469	0.16789
984.89892	0.16250
983.61315	0.15732
982.32738	0.15240
981.04161	0.14776
979.75585	0.14339
978.47008	0.13930
977.18431	0.13555
975.89854	0.13222
974.61277	0.12935
973.32700	0.12688
972.04123	0.12480
970.75546	0.12317
969.46970	0.12212
968.18393	0.12171
966.89816	0.12186
965.61239	0.12243
964.32662	0.12324
963.04085	0.12403
961.75508	0.12449
960.46931	0.12440
959.18354	0.12363
957.89778	0.12220
956.61201	0.12024
955.32624	0.11789
954.04047	0.11532
952.75470	0.11267
951.46893	0.11005
950.18316	0.10754
948.89739	0.10512
947.61163	0.10276
946.32586	0.10046
945.04009	0.09819
943.75432	0.09593
942.46855	0.09372
941.18278	0.09162
939.89701	0.08971
938.61124	0.08798
937.32547	0.08637
936.03971	0.08484
934.75394	0.08341
933.46817	0.08211
932.18240	0.08090
930.89663	0.07972
929.61086	0.07855
928.32509	0.07739
927.03932	0.07627
925.75356	0.07519
924.46779	0.07417
923.18202	0.07329
921.89625	0.07254
920.61048	0.07187
919.32471	0.07120
918.03894	0.07051
916.75317	0.06983
915.46740	0.06915
914.18164	0.06847
912.89587	0.06779
911.61010	0.06714
910.32433	0.06647
909.03856	0.06577
907.75279	0.06504
906.46702	0.06437
905.18125	0.06384
903.89549	0.06343
902.60972	0.06307
901.32395	0.06271
900.03818	0.06237
898.75241	0.06206
897.46664	0.06175
896.18087	0.06138
894.89510	0.06101
893.60933	0.06075
892.32357	0.06073
891.03780	0.06108
889.75203	0.06191
888.46626	0.06326
887.18049	0.06510
885.89472	0.06741
884.60895	0.07024
883.32318	0.07362
882.03742	0.07738
880.75165	0.08103
879.46588	0.08403
878.18011	0.08615
876.89434	0.08765
875.60857	0.08892
874.32280	0.09007
873.03703	0.09080
871.75126	0.09068
870.46550	0.08956
869.17973	0.08766
867.89396	0.08523
866.60819	0.08244
865.32242	0.07939
864.03665	0.07631
862.75088	0.07349
861.46511	0.07113
860.17935	0.06920
858.89358	0.06754
857.60781	0.06599
856.32204	0.06454
855.03627	0.06330
853.75050	0.06233
852.46473	0.06155
851.17896	0.06086
849.89319	0.06017
848.60743	0.05951
847.32166	0.05891
846.03589	0.05837
844.75012	0.05784
843.46435	0.05731
842.17858	0.05681
840.89281	0.05637
839.60704	0.05600
838.32128	0.05571
837.03551	0.05547
835.74974	0.05526
834.46397	0.05503
833.17820	0.05477
831.89243	0.05452
830.60666	0.05433
829.32089	0.05418
828.03512	0.05402
826.74936	0.05380
825.46359	0.05351
824.17782	0.05322
822.89205	0.05301
821.60628	0.05291
820.32051	0.05291
819.03474	0.05295
817.74897	0.05297
816.46321	0.05289
815.17744	0.05273
813.89167	0.05255
812.60590	0.05240
811.32013	0.05233
810.03436	0.05231
808.74859	0.05230
807.46282	0.05226
806.17705	0.05216
804.89129	0.05207
803.60552	0.05202
802.31975	0.05202
801.03398	0.05205
799.74821	0.05207
798.46244	0.05201
797.17667	0.05186
795.89090	0.05164
794.60513	0.05146
793.31937	0.05138
792.03360	0.05134
790.74783	0.05124
789.46206	0.05106
788.17629	0.05088
786.89052	0.05077
785.60475	0.05070
784.31898	0.05060
783.03322	0.05048
781.74745	0.05039
780.46168	0.05036
779.17591	0.05031
777.89014	0.05014
776.60437	0.04989
775.31860	0.04970
774.03283	0.04968
772.74706	0.04977
771.46130	0.04985
770.17553	0.04986
768.88976	0.04978
767.60399	0.04963
766.31822	0.04947
765.03245	0.04938
763.74668	0.04940
762.46091	0.04948
761.17515	0.04955
759.88938	0.04962
758.60361	0.04968
757.31784	0.04973
756.03207	0.04976
754.74630	0.04979
753.46053	0.04979
752.17476	0.04972
750.88899	0.04957
749.60323	0.04941
748.31746	0.04933
747.03169	0.04937
745.74592	0.04947
744.46015	0.04955
743.17438	0.04954
741.88861	0.04939
740.60284	0.04913
739.31708	0.04889
738.03131	0.04881
736.74554	0.04892
735.45977	0.04915
734.17400	0.04938
732.88823	0.04958
731.60246	0.04978
730.31669	0.04997
729.03092	0.05013
727.74516	0.05023
726.45939	0.05025
725.17362	0.05018
723.88785	0.05008
722.60208	0.04991
721.31631	0.04964
720.03054	0.04935
718.74477	0.04913
717.45901	0.04891
716.17324	0.04870
714.88747	0.04850
713.60170	0.04829
712.31593	0.04807
711.03016	0.04785
709.74439	0.04763
708.45862	0.04744
707.17285	0.04727
705.88709	0.04713
704.60132	0.04704
703.31555	0.04700
702.02978	0.04700
700.74401	0.04701
699.45824	0.04699
698.17247	0.04691
696.88670	0.04677
695.60094	0.04659
694.31517	0.04640
693.02940	0.04621
691.74363	0.04602
690.45786	0.04584
689.17209	0.04566
687.88632	0.04548
686.60055	0.04530
685.31478	0.04513
684.02902	0.04498
682.74325	0.04484
681.45748	0.04470
680.17171	0.04456
678.88594	0.04442
677.60017	0.04427
676.31440	0.04414
675.02863	0.04411
673.74287	0.04429
672.45710	0.04481
671.17133	0.04535
669.88556	0.04501
668.59979	0.04366
667.31402	0.04348
666.02825	0.04421
664.74248	0.04411
663.45671	0.04355
662.17095	0.04312
660.88518	0.04285
659.59941	0.04263
658.31364	0.04242
657.02787	0.04224
655.74210	0.04210
654.45633	0.04200
653.17056	0.04190
651.88480	0.04177
650.59903	0.04161
649.31326	0.04143
648.02749	0.04130
646.74172	0.04120
645.45595	0.04112
644.17018	0.04109
642.88441	0.04112
641.59864	0.04122
640.31288	0.04138
639.02711	0.04158
637.74134	0.04180
636.45557	0.04201
635.16980	0.04224
633.88403	0.04253
632.59826	0.04292
631.31249	0.04348
630.02673	0.04420
628.74096	0.04509
627.45519	0.04613
626.16942	0.04710
624.88365	0.04780
623.59788	0.04843
622.31211	0.04975
621.02634	0.05243
619.74057	0.05635
618.45481	0.06087
617.16904	0.06550
615.88327	0.06965
614.59750	0.07265
613.31173	0.07433
612.02596	0.07576
610.74019	0.07867
609.45442	0.08383
608.16866	0.09020
606.88289	0.09619
605.59712	0.10119
604.31135	0.10523
603.02558	0.10805
601.73981	0.10923
600.45404	0.10875
599.16827	0.10710
597.88250	0.10482
596.59674	0.10224
595.31097	0.09952
594.02520	0.09681
592.73943	0.09432
591.45366	0.09225
590.16789	0.09085
588.88212	0.09025
587.59635	0.09043
586.31059	0.09126
585.02482	0.09260
583.73905	0.09441
582.45328	0.09658
581.16751	0.09896
579.88174	0.10139
578.59597	0.10381
577.31020	0.10614
576.02443	0.10836
574.73867	0.11045
573.45290	0.11240
572.16713	0.11428
570.88136	0.11629
569.59559	0.11881
568.30982	0.12218
567.02405	0.12637
565.73828	0.13095
564.45251	0.13524
563.16675	0.13864
561.88098	0.14070
560.59521	0.14111
559.30944	0.13969
558.02367	0.13657
556.73790	0.13215
555.45213	0.12690
554.16636	0.12121
552.88060	0.11538
551.59483	0.10971
550.30906	0.10445
549.02329	0.09968
547.73752	0.09538
546.45175	0.09145
545.16598	0.08783
543.88021	0.08453
542.59444	0.08159
541.30868	0.07904
540.02291	0.07684
538.73714	0.07484
537.45137	0.07291
536.16560	0.07107
534.87983	0.06940
533.59406	0.06794
532.30829	0.06662
531.02253	0.06530
529.73676	0.06395
528.45099	0.06259
527.16522	0.06129
525.87945	0.06012
524.59368	0.05908
523.30791	0.05814
522.02214	0.05723
520.73637	0.05634
519.45061	0.05550
518.16484	0.05471
516.87907	0.05395
515.59330	0.05316
514.30753	0.05235
513.02176	0.05158
511.73599	0.05090
510.45022	0.05030
509.16446	0.04975
507.87869	0.04923
506.59292	0.04869
505.30715	0.04812
504.02138	0.04748
502.73561	0.04680
501.44984	0.04615
500.16407	0.04560
498.87830	0.04519
497.59254	0.04487
496.30677	0.04452
495.02100	0.04411
493.73523	0.04369
492.44946	0.04342
491.16369	0.04332
489.87792	0.04324
488.59215	0.04301
487.30639	0.04263
486.02062	0.04222
484.73485	0.04193
483.44908	0.04184
482.16331	0.04195
480.87754	0.04221
479.59177	0.04253
478.30600	0.04281
477.02023	0.04301
475.73447	0.04317
474.44870	0.04332
473.16293	0.04348
471.87716	0.04364
470.59139	0.04377
469.30562	0.04386
468.01985	0.04387
466.73408	0.04378
465.44832	0.04354
464.16255	0.04317
462.87678	0.04268
461.59101	0.04216
460.30524	0.04172
459.01947	0.04143
457.73370	0.04127
456.44793	0.04115
455.16216	0.04097
453.87640	0.04070
452.59063	0.04037
451.30486	0.04005
450.01909	0.03977
448.73332	0.03952
447.44755	0.03927
446.16178	0.03901
444.87601	0.03878
443.59025	0.03862
442.30448	0.03856
441.01871	0.03857
439.73294	0.03858
438.44717	0.03856
437.16140	0.03852
435.87563	0.03851
434.58986	0.03859
433.30409	0.03876
432.01833	0.03896
430.73256	0.03911
429.44679	0.03917
428.16102	0.03917
426.87525	0.03918
425.58948	0.03924
424.30371	0.03933
423.01794	0.03940
421.73218	0.03942
420.44641	0.03939
419.16064	0.03935
417.87487	0.03933
416.58910	0.03934
415.30333	0.03935
414.01756	0.03931
412.73179	0.03923
411.44602	0.03917
410.16026	0.03919
408.87449	0.03930
407.58872	0.03945
406.30295	0.03960
405.01718	0.03973
403.73141	0.03985
402.44564	0.04000
401.15987	0.04018
399.87411	0.04034
