3997.45528	0.04544
3996.16951	0.04554
3994.88374	0.04560
3993.59798	0.04547
3992.31221	0.04516
3991.02644	0.04487
3989.74067	0.04482
3988.45490	0.04522
3987.16913	0.04615
3985.88336	0.04747
3984.59759	0.04877
3983.31183	0.04955
3982.02606	0.04946
3980.74029	0.04856
3979.45452	0.04725
3978.16875	0.04604
3976.88298	0.04533
3975.59721	0.04520
3974.31144	0.04551
3973.02567	0.04592
3971.73991	0.04603
3970.45414	0.04568
3969.16837	0.04501
3967.88260	0.04432
3966.59683	0.04389
3965.31106	0.04381
3964.02529	0.04401
3962.73952	0.04431
3961.45376	0.04460
3960.16799	0.04477
3958.88222	0.04469
3957.59645	0.04425
3956.31068	0.04365
3955.02491	0.04322
3953.73914	0.04309
3952.45337	0.04318
3951.16760	0.04347
3949.88184	0.04404
3948.59607	0.04480
3947.31030	0.04548
3946.02453	0.04601
3944.73876	0.04652
3943.45299	0.04705
3942.16722	0.04735
3940.88145	0.04717
3939.59569	0.04653
3938.30992	0.04564
3937.02415	0.04477
3935.73838	0.04416
3934.45261	0.04393
3933.16684	0.04397
3931.88107	0.04399
3930.59530	0.04376
3929.30953	0.04337
3928.02377	0.04303
3926.73800	0.04287
3925.45223	0.04282
3924.16646	0.04285
3922.88069	0.04309
3921.59492	0.04368
3920.30915	0.04457
3919.02338	0.04542
3917.73762	0.04574
3916.45185	0.04529
3915.16608	0.04435
3913.88031	0.04344
3912.59454	0.04295
3911.30877	0.04292
3910.02300	0.04314
3908.73723	0.04336
3907.45146	0.04344
3906.16570	0.04331
3904.87993	0.04301
3903.59416	0.04265
3902.30839	0.04245
3901.02262	0.04261
3899.73685	0.04316
3898.45108	0.04394
3897.16531	0.04464
3895.87955	0.04496
3894.59378	0.04478
3893.30801	0.04417
3892.02224	0.04341
3890.73647	0.04287
3889.45070	0.04276
3888.16493	0.04305
3886.87916	0.04355
3885.59339	0.04414
3884.30763	0.04477
3883.02186	0.04532
3881.73609	0.04555
3880.45032	0.04527
3879.16455	0.04454
3877.87878	0.04369
3876.59301	0.04314
3875.30724	0.04310
3874.02148	0.04347
3872.73571	0.04387
3871.44994	0.04395
3870.16417	0.04369
3868.87840	0.04340
3867.59263	0.04341
3866.30686	0.04381
3865.02109	0.04434
3863.73532	0.04468
3862.44956	0.04472
3861.16379	0.04466
3859.87802	0.04467
3858.59225	0.04466
3857.30648	0.04440
3856.02071	0.04382
3854.73494	0.04308
3853.44917	0.04237
3852.16341	0.04179
3850.87764	0.04145
3849.59187	0.04145
3848.30610	0.04172
3847.02033	0.04198
3845.73456	0.04204
3844.44879	0.04203
3843.16302	0.04218
3841.87725	0.04250
3840.59149	0.04281
3839.30572	0.04288
3838.01995	0.04263
3836.73418	0.04209
3835.44841	0.04142
3834.16264	0.04096
3832.87687	0.04093
3831.59110	0.04131
3830.30534	0.04184
3829.01957	0.04234
3827.73380	0.04287
3826.44803	0.04348
3825.16226	0.04399
3823.87649	0.04406
3822.59072	0.04349
3821.30495	0.04252
3820.01918	0.04167
3818.73342	0.04130
3817.44765	0.04138
3816.16188	0.04160
3814.87611	0.04170
3813.59034	0.04161
3812.30457	0.04150
3811.01880	0.04159
3809.73303	0.04198
3808.44726	0.04246
3807.16150	0.04261
3805.87573	0.04225
3804.58996	0.04173
3803.30419	0.04162
3802.01842	0.04204
3800.73265	0.04256
3799.44688	0.04270
3798.16111	0.04246
3796.87535	0.04218
3795.58958	0.04212
3794.30381	0.04231
3793.01804	0.04262
3791.73227	0.04286
3790.44650	0.04287
3789.16073	0.04258
3787.87496	0.04210
3786.58919	0.04155
3785.30343	0.04093
3784.01766	0.04026
3782.73189	0.03975
3781.44612	0.03968
3780.16035	0.04002
3778.87458	0.04031
3777.58881	0.04009
3776.30304	0.03946
3775.01728	0.03893
3773.73151	0.03889
3772.44574	0.03930
3771.15997	0.03981
3769.87420	0.04007
3768.58843	0.03995
3767.30266	0.03961
3766.01689	0.03940
3764.73112	0.03960
3763.44536	0.04011
3762.15959	0.04060
3760.87382	0.04080
3759.58805	0.04076
3758.30228	0.04059
3757.01651	0.04035
3755.73074	0.04017
3754.44497	0.04032
3753.15921	0.04096
3751.87344	0.04177
3750.58767	0.04217
3749.30190	0.04186
3748.01613	0.04112
3746.73036	0.04049
3745.44459	0.04022
3744.15882	0.04017
3742.87305	0.04011
3741.58729	0.03985
3740.30152	0.03938
3739.01575	0.03885
3737.72998	0.03847
3736.44421	0.03839
3735.15844	0.03862
3733.87267	0.03905
3732.58690	0.03952
3731.30114	0.03989
3730.01537	0.04008
3728.72960	0.04002
3727.44383	0.03971
3726.15806	0.03922
3724.87229	0.03871
3723.58652	0.03826
3722.30075	0.03785
3721.01498	0.03757
3719.72922	0.03776
3718.44345	0.03866
3717.15768	0.03991
3715.87191	0.04079
3714.58614	0.04084
3713.30037	0.04023
3712.01460	0.03945
3710.72883	0.03884
3709.44307	0.03841
3708.15730	0.03810
3706.87153	0.03794
3705.58576	0.03800
3704.29999	0.03834
3703.01422	0.03880
3701.72845	0.03911
3700.44268	0.03899
3699.15691	0.03837
3697.87115	0.03746
3696.58538	0.03661
3695.29961	0.03619
3694.01384	0.03627
3692.72807	0.03664
3691.44230	0.03703
3690.15653	0.03731
3688.87076	0.03744
3687.58500	0.03742
3686.29923	0.03735
3685.01346	0.03731
3683.72769	0.03728
3682.44192	0.03722
3681.15615	0.03719
3679.87038	0.03735
3678.58461	0.03768
3677.29884	0.03790
3676.01308	0.03780
3674.72731	0.03757
3673.44154	0.03760
3672.15577	0.03800
3670.87000	0.03851
3669.58423	0.03873
3668.29846	0.03860
3667.01269	0.03848
3665.72693	0.03873
3664.44116	0.03937
3663.15539	0.04012
3661.86962	0.04065
3660.58385	0.04085
3659.29808	0.04070
3658.01231	0.04024
3656.72654	0.03962
3655.44077	0.03910
3654.15501	0.03891
3652.86924	0.03918
3651.58347	0.03986
3650.29770	0.04065
3649.01193	0.04120
3647.72616	0.04142
3646.44039	0.04154
3645.15462	0.04183
3643.86886	0.04218
3642.58309	0.04230
3641.29732	0.04215
3640.01155	0.04203
3638.72578	0.04223
3637.44001	0.04269
3636.15424	0.04308
3634.86847	0.04314
3633.58270	0.04300
3632.29694	0.04299
3631.01117	0.04333
3629.72540	0.04386
3628.43963	0.04419
3627.15386	0.04412
3625.86809	0.04384
3624.58232	0.04376
3623.29655	0.04404
3622.01079	0.04445
3620.72502	0.04462
3619.43925	0.04441
3618.15348	0.04407
3616.86771	0.04406
3615.58194	0.04461
3614.29617	0.04562
3613.01040	0.04674
3611.72463	0.04765
3610.43887	0.04814
3609.15310	0.04814
3607.86733	0.04776
3606.58156	0.04717
3605.29579	0.04652
3604.01002	0.04584
3602.72425	0.04514
3601.43848	0.04463
3600.15272	0.04466
3598.86695	0.04545
3597.58118	0.04684
3596.29541	0.04833
3595.00964	0.04945
3593.72387	0.05007
3592.43810	0.05029
3591.15233	0.05031
3589.86656	0.05033
3588.58080	0.05044
3587.29503	0.05059
3586.00926	0.05060
3584.72349	0.05044
3583.43772	0.05038
3582.15195	0.05084
3580.86618	0.05193
3579.58041	0.05320
3578.29464	0.05398
3577.00888	0.05410
3575.72311	0.05401
3574.43734	0.05420
3573.15157	0.05468
3571.86580	0.05515
3570.58003	0.05536
3569.29426	0.05533
3568.00849	0.05514
3566.72273	0.05483
3565.43696	0.05450
3564.15119	0.05428
3562.86542	0.05424
3561.57965	0.05425
3560.29388	0.05413
3559.00811	0.05383
3557.72234	0.05356
3556.43657	0.05356
3555.15081	0.05393
3553.86504	0.05451
3552.57927	0.05505
3551.29350	0.05537
3550.00773	0.05549
3548.72196	0.05564
3547.43619	0.05599
3546.15042	0.05646
3544.86466	0.05682
3543.57889	0.05701
3542.29312	0.05725
3541.00735	0.05775
3539.72158	0.05845
3538.43581	0.05912
3537.15004	0.05958
3535.86427	0.05983
3534.57850	0.05989
3533.29274	0.05975
3532.00697	0.05946
3530.72120	0.05926
3529.43543	0.05937
3528.14966	0.05978
3526.86389	0.06030
3525.57812	0.06073
3524.29235	0.06098
3523.00659	0.06095
3521.72082	0.06065
3520.43505	0.06028
3519.14928	0.06013
3517.86351	0.06039
3516.57774	0.06095
3515.29197	0.06157
3514.00620	0.06205
3512.72043	0.06233
3511.43467	0.06245
3510.14890	0.06248
3508.86313	0.06250
3507.57736	0.06254
3506.29159	0.06260
3505.00582	0.06268
3503.72005	0.06279
3502.43428	0.06295
3501.14852	0.06304
3499.86275	0.06290
3498.57698	0.06259
3497.29121	0.06240
3496.00544	0.06253
3494.71967	0.06289
3493.43390	0.06317
3492.14813	0.06326
3490.86236	0.06339
3489.57660	0.06380
3488.29083	0.06444
3487.00506	0.06495
3485.71929	0.06512
3484.43352	0.06514
3483.14775	0.06539
3481.86198	0.06595
3480.57621	0.06654
3479.29045	0.06678
3478.00468	0.06654
3476.71891	0.06600
3475.43314	0.06553
3474.14737	0.06541
3472.86160	0.06567
3471.57583	0.06610
3470.29006	0.06653
3469.00429	0.06689
3467.71853	0.06709
3466.43276	0.06705
3465.14699	0.06683
3463.86122	0.06665
3462.57545	0.06673
3461.28968	0.06706
3460.00391	0.06745
3458.71814	0.06767
3457.43238	0.06766
3456.14661	0.06755
3454.86084	0.06755
3453.57507	0.06770
3452.28930	0.06786
3451.00353	0.06795
3449.71776	0.06806
3448.43199	0.06833
3447.14622	0.06871
3445.86046	0.06896
3444.57469	0.06889
3443.28892	0.06859
3442.00315	0.06831
3440.71738	0.06825
3439.43161	0.06838
3438.14584	0.06860
3436.86007	0.06888
3435.57431	0.06920
3434.28854	0.06955
3433.00277	0.06991
3431.71700	0.07027
3430.43123	0.07058
3429.14546	0.07079
3427.85969	0.07084
3426.57392	0.07072
3425.28815	0.07045
3424.00239	0.07011
3422.71662	0.06989
3421.43085	0.06995
3420.14508	0.07030
3418.85931	0.07081
3417.57354	0.07130
3416.28777	0.07158
3415.00200	0.07153
3413.71624	0.07123
3412.43047	0.07089
3411.14470	0.07068
3409.85893	0.07058
3408.57316	0.07048
3407.28739	0.07031
3406.00162	0.07011
3404.71585	0.06998
3403.43008	0.07001
3402.14432	0.07024
3400.85855	0.07061
3399.57278	0.07095
3398.28701	0.07113
3397.00124	0.07120
3395.71547	0.07132
3394.42970	0.07155
3393.14393	0.07178
3391.85817	0.07183
3390.57240	0.07164
3389.28663	0.07136
3388.00086	0.07121
3386.71509	0.07129
3385.42932	0.07156
3384.14355	0.07192
3382.85778	0.07233
3381.57201	0.07272
3380.28625	0.07302
3379.00048	0.07313
3377.71471	0.07298
3376.42894	0.07261
3375.14317	0.07220
3373.85740	0.07196
3372.57163	0.07196
3371.28586	0.07210
3370.00010	0.07228
3368.71433	0.07245
3367.42856	0.07256
3366.14279	0.07254
3364.85702	0.07237
3363.57125	0.07205
3362.28548	0.07159
3360.99971	0.07113
3359.71394	0.07089
3358.42818	0.07105
3357.14241	0.07147
3355.85664	0.07189
3354.57087	0.07212
3353.28510	0.07217
3351.99933	0.07211
3350.71356	0.07202
3349.42779	0.07194
3348.14202	0.07194
3346.85626	0.07200
3345.57049	0.07210
3344.28472	0.07220
3342.99895	0.07233
3341.71318	0.07249
3340.42741	0.07264
3339.14164	0.07267
3337.85587	0.07250
3336.57011	0.07216
3335.28434	0.07176
3333.99857	0.07150
3332.71280	0.07155
3331.42703	0.07196
3330.14126	0.07244
3328.85549	0.07257
3327.56972	0.07213
3326.28395	0.07133
3324.99819	0.07063
3323.71242	0.07032
3322.42665	0.07039
3321.14088	0.07052
3319.85511	0.07040
3318.56934	0.06994
3317.28357	0.06931
3315.99780	0.06880
3314.71204	0.06859
3313.42627	0.06865
3312.14050	0.06887
3310.85473	0.06919
3309.56896	0.06967
3308.28319	0.07025
3306.99742	0.07076
3305.71165	0.07099
3304.42588	0.07085
3303.14012	0.07036
3301.85435	0.06960
3300.56858	0.06878
3299.28281	0.06821
3297.99704	0.06811
3296.71127	0.06844
3295.42550	0.06895
3294.13973	0.06946
3292.85397	0.06985
3291.56820	0.07004
3290.28243	0.06998
3288.99666	0.06969
3287.71089	0.06931
3286.42512	0.06899
3285.13935	0.06877
3283.85358	0.06860
3282.56781	0.06843
3281.28205	0.06833
3279.99628	0.06842
3278.71051	0.06871
3277.42474	0.06907
3276.13897	0.06926
3274.85320	0.06919
3273.56743	0.06888
3272.28166	0.06842
3270.99590	0.06786
3269.71013	0.06730
3268.42436	0.06686
3267.13859	0.06667
3265.85282	0.06674
3264.56705	0.06703
3263.28128	0.06736
3261.99551	0.06750
3260.70974	0.06745
3259.42398	0.06739
3258.13821	0.06755
3256.85244	0.06784
3255.56667	0.06806
3254.28090	0.06808
3252.99513	0.06795
3251.70936	0.06783
3250.42359	0.06777
3249.13783	0.06773
3247.85206	0.06760
3246.56629	0.06733
3245.28052	0.06695
3243.99475	0.06658
3242.70898	0.06636
3241.42321	0.06631
3240.13744	0.06632
3238.85167	0.06624
3237.56591	0.06599
3236.28014	0.06558
3234.99437	0.06506
3233.70860	0.06452
3232.42283	0.06408
3231.13706	0.06387
3229.85129	0.06399
3228.56552	0.06435
3227.27976	0.06477
3225.99399	0.06512
3224.70822	0.06540
3223.42245	0.06559
3222.13668	0.06560
3220.85091	0.06541
3219.56514	0.06517
3218.27937	0.06510
3216.99360	0.06517
3215.70784	0.06516
3214.42207	0.06494
3213.13630	0.06461
3211.85053	0.06434
3210.56476	0.06421
3209.27899	0.06421
3207.99322	0.06429
3206.70745	0.06440
3205.42169	0.06450
3204.13592	0.06453
3202.85015	0.06445
3201.56438	0.06424
3200.27861	0.06395
3198.99284	0.06365
3197.70707	0.06343
3196.42130	0.06327
3195.13553	0.06309
3193.84977	0.06279
3192.56400	0.06249
3191.27823	0.06242
3189.99246	0.06261
3188.70669	0.06282
3187.42092	0.06282
3186.13515	0.06265
3184.84938	0.06253
3183.56362	0.06257
3182.27785	0.06269
3180.99208	0.06272
3179.70631	0.06255
3178.42054	0.06224
3177.13477	0.06194
3175.84900	0.06181
3174.56323	0.06180
3173.27746	0.06171
3171.99170	0.06140
3170.70593	0.06096
3169.42016	0.06066
3168.13439	0.06067
3166.84862	0.06093
3165.56285	0.06110
3164.27708	0.06096
3162.99131	0.06055
3161.70555	0.06017
3160.41978	0.06003
3159.13401	0.06012
3157.84824	0.06031
3156.56247	0.06049
3155.27670	0.06067
3153.99093	0.06084
3152.70516	0.06093
3151.41939	0.06089
3150.13363	0.06078
3148.84786	0.06074
3147.56209	0.06077
3146.27632	0.06069
3144.99055	0.06038
3143.70478	0.05992
3142.41901	0.05953
3141.13324	0.05930
3139.84748	0.05917
3138.56171	0.05901
3137.27594	0.05887
3135.99017	0.05885
3134.70440	0.05902
3133.41863	0.05928
3132.13286	0.05944
3130.84709	0.05941
3129.56132	0.05920
3128.27556	0.05886
3126.98979	0.05841
3125.70402	0.05790
3124.41825	0.05745
3123.13248	0.05716
3121.84671	0.05699
3120.56094	0.05685
3119.27517	0.05672
3117.98940	0.05664
3116.70364	0.05661
3115.41787	0.05650
3114.13210	0.05627
3112.84633	0.05597
3111.56056	0.05576
3110.27479	0.05576
3108.98902	0.05595
3107.70325	0.05617
3106.41749	0.05621
3105.13172	0.05605
3103.84595	0.05585
3102.56018	0.05578
3101.27441	0.05580
3099.98864	0.05574
3098.70287	0.05551
3097.41710	0.05524
3096.13133	0.05510
3094.84557	0.05517
3093.55980	0.05537
3092.27403	0.05554
3090.98826	0.05562
3089.70249	0.05564
3088.41672	0.05574
3087.13095	0.05598
3085.84518	0.05631
3084.55942	0.05651
3083.27365	0.05636
3081.98788	0.05587
3080.70211	0.05527
3079.41634	0.05481
3078.13057	0.05461
3076.84480	0.05458
3075.55903	0.05457
3074.27326	0.05454
3072.98750	0.05452
3071.70173	0.05459
3070.41596	0.05481
3069.13019	0.05521
3067.84442	0.05567
3066.55865	0.05587
3065.27288	0.05558
3063.98711	0.05493
3062.70135	0.05432
3061.41558	0.05403
3060.12981	0.05394
3058.84404	0.05379
3057.55827	0.05350
3056.27250	0.05321
3054.98673	0.05313
3053.70096	0.05332
3052.41519	0.05365
3051.12943	0.05393
3049.84366	0.05394
3048.55789	0.05363
3047.27212	0.05313
3045.98635	0.05263
3044.70058	0.05223
3043.41481	0.05192
3042.12904	0.05175
3040.84328	0.05174
3039.55751	0.05190
3038.27174	0.05214
3036.98597	0.05232
3035.70020	0.05233
3034.41443	0.05214
3033.12866	0.05181
3031.84289	0.05149
3030.55712	0.05132
3029.27136	0.05137
3027.98559	0.05159
3026.69982	0.05177
3025.41405	0.05171
3024.12828	0.05141
3022.84251	0.05107
3021.55674	0.05086
3020.27097	0.05084
3018.98521	0.05099
3017.69944	0.05121
3016.41367	0.05137
3015.12790	0.05129
3013.84213	0.05089
3012.55636	0.05027
3011.27059	0.04972
3009.98482	0.04948
3008.69905	0.04959
3007.41329	0.04980
3006.12752	0.04986
3004.84175	0.04975
3003.55598	0.04961
3002.27021	0.04959
3000.98444	0.04966
2999.69867	0.04976
2998.41290	0.04985
2997.12714	0.04994
2995.84137	0.05009
2994.55560	0.05021
2993.26983	0.05018
2991.98406	0.04994
2990.69829	0.04963
2989.41252	0.04950
2988.12675	0.04969
2986.84098	0.05015
2985.55522	0.05070
2984.26945	0.05110
2982.98368	0.05124
2981.69791	0.05134
2980.41214	0.05173
2979.12637	0.05247
2977.84060	0.05328
2976.55483	0.05391
2975.26907	0.05439
2973.98330	0.05494
2972.69753	0.05565
2971.41176	0.05644
2970.12599	0.05722
2968.84022	0.05805
2967.55445	0.05901
2966.26868	0.06008
2964.98291	0.06109
2963.69715	0.06187
2962.41138	0.06246
2961.12561	0.06312
2959.83984	0.06400
2958.55407	0.06499
2957.26830	0.06579
2955.98253	0.06624
2954.69676	0.06636
2953.41100	0.06634
2952.12523	0.06628
2950.83946	0.06618
2949.55369	0.06598
2948.26792	0.06572
2946.98215	0.06554
2945.69638	0.06562
2944.41061	0.06590
2943.12484	0.06611
2941.83908	0.06604
2940.55331	0.06580
2939.26754	0.06570
2937.98177	0.06599
2936.69600	0.06664
2935.41023	0.06751
2934.12446	0.06837
2932.83869	0.06903
2931.55293	0.06935
2930.26716	0.06939
2928.98139	0.06944
2927.69562	0.06970
2926.40985	0.07010
2925.12408	0.07038
2923.83831	0.07044
2922.55254	0.07037
2921.26677	0.07024
2919.98101	0.06994
2918.69524	0.06939
2917.40947	0.06863
2916.12370	0.06784
2914.83793	0.06707
2913.55216	0.06631
2912.26639	0.06557
2910.98062	0.06489
2909.69486	0.06422
2908.40909	0.06352
2907.12332	0.06283
2905.83755	0.06223
2904.55178	0.06177
2903.26601	0.06146
2901.98024	0.06121
2900.69447	0.06093
2899.40870	0.06050
2898.12294	0.05986
2896.83717	0.05907
2895.55140	0.05828
2894.26563	0.05767
2892.97986	0.05732
2891.69409	0.05717
2890.40832	0.05708
2889.12255	0.05686
2887.83678	0.05646
2886.55102	0.05589
2885.26525	0.05531
2883.97948	0.05483
2882.69371	0.05449
2881.40794	0.05429
2880.12217	0.05426
2878.83640	0.05447
2877.55063	0.05492
2876.26487	0.05543
2874.97910	0.05582
2873.69333	0.05604
2872.40756	0.05616
2871.12179	0.05634
2869.83602	0.05665
2868.55025	0.05699
2867.26448	0.05718
2865.97871	0.05719
2864.69295	0.05705
2863.40718	0.05680
2862.12141	0.05640
2860.83564	0.05588
2859.54987	0.05540
2858.26410	0.05512
2856.97833	0.05505
2855.69256	0.05508
2854.40680	0.05503
2853.12103	0.05485
2851.83526	0.05456
2850.54949	0.05421
2849.26372	0.05378
2847.97795	0.05328
2846.69218	0.05274
2845.40641	0.05216
2844.12064	0.05150
2842.83488	0.05069
2841.54911	0.04973
2840.26334	0.04870
2838.97757	0.04775
2837.69180	0.04705
2836.40603	0.04666
2835.12026	0.04646
2833.83449	0.04621
2832.54873	0.04567
2831.26296	0.04486
2829.97719	0.04399
2828.69142	0.04330
2827.40565	0.04290
2826.11988	0.04275
2824.83411	0.04270
2823.54834	0.04259
2822.26257	0.04238
2820.97681	0.04213
2819.69104	0.04190
2818.40527	0.04173
2817.11950	0.04160
2815.83373	0.04150
2814.54796	0.04140
2813.26219	0.04128
2811.97642	0.04115
2810.69066	0.04102
2809.40489	0.04089
2808.11912	0.04078
2806.83335	0.04071
2805.54758	0.04067
2804.26181	0.04063
2802.97604	0.04053
2801.69027	0.04037
2800.40450	0.04016
2799.11874	0.03995
2797.83297	0.03979
2796.54720	0.03972
2795.26143	0.03968
2793.97566	0.03960
2792.68989	0.03951
2791.40412	0.03947
2790.11835	0.03945
2788.83259	0.03930
2787.54682	0.03899
2786.26105	0.03867
2784.97528	0.03851
2783.68951	0.03851
2782.40374	0.03851
2781.11797	0.03836
2779.83220	0.03807
2778.54643	0.03786
2777.26067	0.03786
2775.97490	0.03804
2774.68913	0.03824
2773.40336	0.03837
2772.11759	0.03844
2770.83182	0.03851
2769.54605	0.03853
2768.26028	0.03849
2766.97452	0.03840
2765.68875	0.03832
2764.40298	0.03827
2763.11721	0.03828
2761.83144	0.03830
2760.54567	0.03821
2759.25990	0.03796
2757.97413	0.03761
2756.68836	0.03730
2755.40260	0.03710
2754.11683	0.03700
2752.83106	0.03698
2751.54529	0.03702
2750.25952	0.03711
2748.97375	0.03719
2747.68798	0.03722
2746.40221	0.03719
2745.11645	0.03710
2743.83068	0.03700
2742.54491	0.03694
2741.25914	0.03690
2739.97337	0.03689
2738.68760	0.03687
2737.40183	0.03679
2736.11606	0.03666
2734.83029	0.03654
2733.54453	0.03654
2732.25876	0.03669
2730.97299	0.03684
2729.68722	0.03679
2728.40145	0.03646
2727.11568	0.03599
2725.82991	0.03556
2724.54414	0.03533
2723.25838	0.03533
2721.97261	0.03548
2720.68684	0.03568
2719.40107	0.03588
2718.11530	0.03607
2716.82953	0.03623
2715.54376	0.03631
2714.25799	0.03628
2712.97222	0.03615
2711.68646	0.03596
2710.40069	0.03576
2709.11492	0.03558
2707.82915	0.03544
2706.54338	0.03531
2705.25761	0.03512
2703.97184	0.03490
2702.68607	0.03474
2701.40031	0.03473
2700.11454	0.03487
2698.82877	0.03510
2697.54300	0.03530
2696.25723	0.03539
2694.97146	0.03534
2693.68569	0.03520
2692.39992	0.03505
2691.11415	0.03493
2689.82839	0.03486
2688.54262	0.03477
2687.25685	0.03466
2685.97108	0.03455
2684.68531	0.03453
2683.39954	0.03456
2682.11377	0.03456
2680.82800	0.03448
2679.54224	0.03439
2678.25647	0.03437
2676.97070	0.03438
2675.68493	0.03432
2674.39916	0.03411
2673.11339	0.03382
2671.82762	0.03356
2670.54185	0.03346
2669.25608	0.03353
2667.97032	0.03365
2666.68455	0.03369
2665.39878	0.03362
2664.11301	0.03349
2662.82724	0.03335
2661.54147	0.03323
2660.25570	0.03313
2658.96993	0.03304
2657.68417	0.03300
2656.39840	0.03304
2655.11263	0.03312
2653.82686	0.03320
2652.54109	0.03322
2651.25532	0.03319
2649.96955	0.03312
2648.68378	0.03302
2647.39801	0.03288
2646.11225	0.03273
2644.82648	0.03263
2643.54071	0.03260
2642.25494	0.03263
2640.96917	0.03265
2639.68340	0.03260
2638.39763	0.03246
2637.11186	0.03227
2635.82609	0.03205
2634.54033	0.03179
2633.25456	0.03146
2631.96879	0.03109
2630.68302	0.03074
2629.39725	0.03047
2628.11148	0.03034
2626.82571	0.03041
2625.53994	0.03068
2624.25418	0.03100
2622.96841	0.03117
2621.68264	0.03114
2620.39687	0.03099
2619.11110	0.03081
2617.82533	0.03054
2616.53956	0.03013
2615.25379	0.02963
2613.96802	0.02920
2612.68226	0.02897
2611.39649	0.02898
2610.11072	0.02916
2608.82495	0.02939
2607.53918	0.02958
2606.25341	0.02970
2604.96764	0.02969
2603.68187	0.02951
2602.39611	0.02925
2601.11034	0.02905
2599.82457	0.02893
2598.53880	0.02882
2597.25303	0.02865
2595.96726	0.02852
2594.68149	0.02856
2593.39572	0.02875
2592.10995	0.02881
2590.82419	0.02856
2589.53842	0.02807
2588.25265	0.02763
2586.96688	0.02740
2585.68111	0.02739
2584.39534	0.02755
2583.10957	0.02786
2581.82380	0.02822
2580.53804	0.02840
2579.25227	0.02832
2577.96650	0.02812
2576.68073	0.02799
2575.39496	0.02795
2574.10919	0.02791
2572.82342	0.02777
2571.53765	0.02750
2570.25188	0.02713
2568.96612	0.02676
2567.68035	0.02651
2566.39458	0.02640
2565.10881	0.02638
2563.82304	0.02638
2562.53727	0.02637
2561.25150	0.02639
2559.96573	0.02645
2558.67997	0.02653
2557.39420	0.02661
2556.10843	0.02674
2554.82266	0.02690
2553.53689	0.02694
2552.25112	0.02677
2550.96535	0.02647
2549.67958	0.02623
2548.39381	0.02612
2547.10805	0.02613
2545.82228	0.02623
2544.53651	0.02640
2543.25074	0.02663
2541.96497	0.02684
2540.67920	0.02694
2539.39343	0.02685
2538.10766	0.02661
2536.82190	0.02638
2535.53613	0.02627
2534.25036	0.02621
2532.96459	0.02603
2531.67882	0.02565
2530.39305	0.02522
2529.10728	0.02494
2527.82151	0.02490
2526.53574	0.02506
2525.24998	0.02533
2523.96421	0.02572
2522.67844	0.02619
2521.39267	0.02654
2520.10690	0.02653
2518.82113	0.02615
2517.53536	0.02559
2516.24959	0.02508
2514.96383	0.02470
2513.67806	0.02448
2512.39229	0.02441
2511.10652	0.02447
2509.82075	0.02455
2508.53498	0.02464
2507.24921	0.02482
2505.96344	0.02507
2504.67767	0.02526
2503.39191	0.02524
2502.10614	0.02508
2500.82037	0.02501
2499.53460	0.02514
2498.24883	0.02540
2496.96306	0.02559
2495.67729	0.02556
2494.39152	0.02525
2493.10576	0.02469
2491.81999	0.02405
2490.53422	0.02351
2489.24845	0.02323
2487.96268	0.02333
2486.67691	0.02382
2485.39114	0.02452
2484.10537	0.02513
2482.81960	0.02542
2481.53384	0.02529
2480.24807	0.02482
2478.96230	0.02430
2477.67653	0.02397
2476.39076	0.02396
2475.10499	0.02416
2473.81922	0.02446
2472.53345	0.02472
2471.24769	0.02484
2469.96192	0.02477
2468.67615	0.02459
2467.39038	0.02443
2466.10461	0.02441
2464.81884	0.02452
2463.53307	0.02467
2462.24730	0.02480
2460.96153	0.02495
2459.67577	0.02515
2458.39000	0.02527
2457.10423	0.02514
2455.81846	0.02476
2454.53269	0.02432
2453.24692	0.02394
2451.96115	0.02363
2450.67538	0.02341
2449.38962	0.02337
2448.10385	0.02355
2446.81808	0.02388
2445.53231	0.02422
2444.24654	0.02450
2442.96077	0.02464
2441.67500	0.02460
2440.38923	0.02436
2439.10346	0.02392
2437.81770	0.02337
2436.53193	0.02292
2435.24616	0.02277
2433.96039	0.02291
2432.67462	0.02316
2431.38885	0.02336
2430.10308	0.02347
2428.81731	0.02346
2427.53155	0.02325
2426.24578	0.02284
2424.96001	0.02231
2423.67424	0.02184
2422.38847	0.02157
2421.10270	0.02153
2419.81693	0.02169
2418.53116	0.02197
2417.24539	0.02233
2415.95963	0.02265
2414.67386	0.02280
2413.38809	0.02271
2412.10232	0.02253
2410.81655	0.02242
2409.53078	0.02241
2408.24501	0.02235
2406.95924	0.02220
2405.67347	0.02204
2404.38771	0.02195
2403.10194	0.02192
2401.81617	0.02190
2400.53040	0.02189
2399.24463	0.02186
2397.95886	0.02181
2396.67309	0.02175
2395.38732	0.02172
2394.10156	0.02177
2392.81579	0.02190
2391.53002	0.02208
2390.24425	0.02230
2388.95848	0.02250
2387.67271	0.02262
2386.38694	0.02265
2385.10117	0.02264
2383.81540	0.02266
2382.52964	0.02269
2381.24387	0.02264
2379.95810	0.02261
2378.67233	0.02257
2377.38656	0.02269
2376.10079	0.02303
2374.81502	0.02332
2373.52925	0.02308
2372.24349	0.02237
2370.95772	0.02170
2369.67195	0.02133
2368.38618	0.02128
2367.10041	0.02143
2365.81464	0.02174
2364.52887	0.02201
2363.24310	0.02212
2361.95733	0.02202
2360.67157	0.02176
2359.38580	0.02159
2358.10003	0.02160
2356.81426	0.02181
2355.52849	0.02222
2354.24272	0.02275
2352.95695	0.02314
2351.67118	0.02303
2350.38542	0.02273
2349.09965	0.02267
2347.81388	0.02269
2346.52811	0.02256
2345.24234	0.02254
2343.95657	0.02284
2342.67080	0.02350
2341.38503	0.02335
2340.09926	0.02266
2338.81350	0.02272
2337.52773	0.02331
2336.24196	0.02310
2334.95619	0.02263
2333.67042	0.02279
2332.38465	0.02341
2331.09888	0.02294
2329.81311	0.02277
2328.52735	0.02307
2327.24158	0.02310
2325.95581	0.02334
2324.67004	0.02387
2323.38427	0.02440
2322.09850	0.02416
2320.81273	0.02368
2319.52696	0.02317
2318.24119	0.02284
2316.95543	0.02273
2315.66966	0.02272
2314.38389	0.02284
2313.09812	0.02285
2311.81235	0.02263
2310.52658	0.02242
2309.24081	0.02230
2307.95504	0.02212
2306.66928	0.02188
2305.38351	0.02154
2304.09774	0.02133
2302.81197	0.02138
2301.52620	0.02163
2300.24043	0.02192
2298.95466	0.02210
2297.66889	0.02217
2296.38312	0.02210
2295.09736	0.02184
2293.81159	0.02138
2292.52582	0.02090
2291.24005	0.02073
2289.95428	0.02104
2288.66851	0.02171
2287.38274	0.02237
2286.09697	0.02264
2284.81121	0.02238
2283.52544	0.02180
2282.23967	0.02123
2280.95390	0.02083
2279.66813	0.02057
2278.38236	0.02036
2277.09659	0.02018
2275.81082	0.02008
2274.52505	0.02007
2273.23929	0.02004
2271.95352	0.01985
2270.66775	0.01944
2269.38198	0.01896
2268.09621	0.01864
2266.81044	0.01862
2265.52467	0.01884
2264.23890	0.01904
2262.95314	0.01897
2261.66737	0.01848
2260.38160	0.01766
2259.09583	0.01683
2257.81006	0.01635
2256.52429	0.01635
2255.23852	0.01658
2253.95275	0.01674
2252.66698	0.01677
2251.38122	0.01685
2250.09545	0.01706
2248.80968	0.01727
2247.52391	0.01721
2246.23814	0.01701
2244.95237	0.01680
2243.66660	0.01657
2242.38083	0.01616
2241.09507	0.01557
2239.80930	0.01507
2238.52353	0.01506
2237.23776	0.01562
2235.95199	0.01633
2234.66622	0.01666
2233.38045	0.01641
2232.09468	0.01587
2230.80891	0.01545
2229.52315	0.01523
2228.23738	0.01490
2226.95161	0.01417
2225.66584	0.01327
2224.38007	0.01280
2223.09430	0.01308
2221.80853	0.01384
2220.52276	0.01447
2219.23700	0.01454
2217.95123	0.01408
2216.66546	0.01346
2215.37969	0.01304
2214.09392	0.01287
2212.80815	0.01277
2211.52238	0.01267
2210.23661	0.01269
2208.95084	0.01290
2207.66508	0.01313
2206.37931	0.01309
2205.09354	0.01269
2203.80777	0.01208
2202.52200	0.01162
2201.23623	0.01158
2199.95046	0.01200
2198.66469	0.01256
2197.37893	0.01288
2196.09316	0.01287
2194.80739	0.01279
2193.52162	0.01279
2192.23585	0.01277
2190.95008	0.01247
2189.66431	0.01190
2188.37854	0.01131
2187.09277	0.01094
2185.80701	0.01071
2184.52124	0.01029
2183.23547	0.00941
2181.94970	0.00823
2180.66393	0.00741
2179.37816	0.00747
2178.09239	0.00816
2176.80662	0.00867
2175.52085	0.00850
2174.23509	0.00800
2172.94932	0.00782
2171.66355	0.00804
2170.37778	0.00824
2169.09201	0.00817
2167.80624	0.00806
2166.52047	0.00827
2165.23470	0.00883
2163.94894	0.00953
2162.66317	0.01007
2161.37740	0.00995
2160.09163	0.00873
2158.80586	0.00683
2157.52009	0.00541
2156.23432	0.00522
2154.94855	0.00592
2153.66278	0.00678
2152.37702	0.00738
2151.09125	0.00754
2149.80548	0.00730
2148.51971	0.00702
2147.23394	0.00714
2145.94817	0.00757
2144.66240	0.00788
2143.37663	0.00776
2142.09087	0.00736
2140.80510	0.00698
2139.51933	0.00693
2138.23356	0.00737
2136.94779	0.00825
2135.66202	0.00912
2134.37625	0.00942
2133.09048	0.00893
2131.80471	0.00803
2130.51895	0.00745
2129.23318	0.00771
2127.94741	0.00875
2126.66164	0.01003
2125.37587	0.01103
2124.09010	0.01158
2122.80433	0.01182
2121.51856	0.01196
2120.23280	0.01214
2118.94703	0.01232
2117.66126	0.01242
2116.37549	0.01241
2115.08972	0.01232
2113.80395	0.01218
2112.51818	0.01191
2111.23241	0.01141
2109.94664	0.01065
2108.66088	0.00968
2107.37511	0.00878
2106.08934	0.00837
2104.80357	0.00872
2103.51780	0.00973
2102.23203	0.01093
2100.94626	0.01175
2099.66049	0.01232
2098.37473	0.01197
2097.08896	0.01118
2095.80319	0.01051
2094.51742	0.01010
2093.23165	0.00980
2091.94588	0.00962
2090.66011	0.00975
2089.37434	0.01032
2088.08857	0.01109
2086.80281	0.01153
2085.51704	0.01124
2084.23127	0.01040
2082.94550	0.00956
2081.65973	0.00916
2080.37396	0.00922
2079.08819	0.00953
2077.80242	0.00990
2076.51666	0.01021
2075.23089	0.01038
2073.94512	0.01034
2072.65935	0.01005
2071.37358	0.00949
2070.08781	0.00865
2068.80204	0.00765
2067.51627	0.00671
2066.23050	0.00608
2064.94474	0.00589
2063.65897	0.00608
2062.37320	0.00639
2061.08743	0.00662
2059.80166	0.00673
2058.51589	0.00678
2057.23012	0.00684
2055.94435	0.00701
2054.65859	0.00737
2053.37282	0.00779
2052.08705	0.00796
2050.80128	0.00762
2049.51551	0.00690
2048.22974	0.00615
2046.94397	0.00560
2045.65820	0.00514
2044.37243	0.00456
2043.08667	0.00378
2041.80090	0.00294
2040.51513	0.00230
2039.22936	0.00209
2037.94359	0.00235
2036.65782	0.00291
2035.37205	0.00348
2034.08628	0.00383
2032.80052	0.00385
2031.51475	0.00368
2030.22898	0.00372
2028.94321	0.00433
2027.65744	0.00537
2026.37167	0.00615
2025.08590	0.00603
2023.80013	0.00521
2022.51436	0.00453
2021.22860	0.00456
2019.94283	0.00490
2018.65706	0.00486
2017.37129	0.00431
2016.08552	0.00382
2014.79975	0.00386
2013.51398	0.00430
2012.22821	0.00454
2010.94245	0.00404
2009.65668	0.00286
2008.37091	0.00183
2007.08514	0.00197
2005.79937	0.00342
2004.51360	0.00523
2003.22783	0.00632
2001.94206	0.00647
2000.65629	0.00624
1999.37053	0.00634
1998.08476	0.00706
1996.79899	0.00818
1995.51322	0.00910
1994.22745	0.00936
1992.94168	0.00899
1991.65591	0.00842
1990.37014	0.00807
1989.08438	0.00802
1987.79861	0.00810
1986.51284	0.00811
1985.22707	0.00810
1983.94130	0.00829
1982.65553	0.00881
1981.36976	0.00954
1980.08399	0.01014
1978.79822	0.01041
1977.51246	0.01030
1976.22669	0.00990
1974.94092	0.00935
1973.65515	0.00884
1972.36938	0.00854
1971.08361	0.00842
1969.79784	0.00835
1968.51207	0.00817
1967.22631	0.00790
1965.94054	0.00764
1964.65477	0.00749
1963.36900	0.00749
1962.08323	0.00763
1960.79746	0.00790
1959.51169	0.00827
1958.22592	0.00872
1956.94015	0.00911
1955.65439	0.00921
1954.36862	0.00893
1953.08285	0.00851
1951.79708	0.00827
1950.51131	0.00842
1949.22554	0.00892
1947.93977	0.00968
1946.65400	0.01054
1945.36823	0.01124
1944.08247	0.01161
1942.79670	0.01176
1941.51093	0.01188
1940.22516	0.01192
1938.93939	0.01174
1937.65362	0.01137
1936.36785	0.01108
1935.08208	0.01103
1933.79632	0.01109
1932.51055	0.01111
1931.22478	0.01115
1929.93901	0.01134
1928.65324	0.01157
1927.36747	0.01171
1926.08170	0.01176
1924.79593	0.01186
1923.51016	0.01201
1922.22440	0.01201
1920.93863	0.01178
1919.65286	0.01150
1918.36709	0.01148
1917.08132	0.01182
1915.79555	0.01234
1914.50978	0.01273
1913.22401	0.01282
1911.93825	0.01265
1910.65248	0.01242
1909.36671	0.01224
1908.08094	0.01211
1906.79517	0.01204
1905.50940	0.01210
1904.22363	0.01239
1902.93786	0.01285
1901.65209	0.01327
1900.36633	0.01349
1899.08056	0.01347
1897.79479	0.01330
1896.50902	0.01307
1895.22325	0.01284
1893.93748	0.01264
1892.65171	0.01250
1891.36594	0.01244
1890.08018	0.01241
1888.79441	0.01235
1887.50864	0.01222
1886.22287	0.01209
1884.93710	0.01202
1883.65133	0.01200
1882.36556	0.01198
1881.07979	0.01195
1879.79402	0.01199
1878.50826	0.01211
1877.22249	0.01226
1875.93672	0.01238
1874.65095	0.01241
1873.36518	0.01236
1872.07941	0.01220
1870.79364	0.01195
1869.50787	0.01175
1868.22211	0.01171
1866.93634	0.01188
1865.65057	0.01214
1864.36480	0.01233
1863.07903	0.01237
1861.79326	0.01229
1860.50749	0.01221
1859.22172	0.01220
1857.93595	0.01229
1856.65019	0.01246
1855.36442	0.01261
1854.07865	0.01264
1852.79288	0.01253
1851.50711	0.01237
1850.22134	0.01231
1848.93557	0.01240
1847.64980	0.01258
1846.36404	0.01274
1845.07827	0.01280
1843.79250	0.01281
1842.50673	0.01280
1841.22096	0.01279
1839.93519	0.01272
1838.64942	0.01257
1837.36365	0.01238
1836.07788	0.01223
1834.79212	0.01223
1833.50635	0.01239
1832.22058	0.01262
1830.93481	0.01282
1829.64904	0.01295
1828.36327	0.01305
1827.07750	0.01317
1825.79173	0.01330
1824.50597	0.01342
1823.22020	0.01351
1821.93443	0.01355
1820.64866	0.01351
1819.36289	0.01338
1818.07712	0.01316
1816.79135	0.01291
1815.50558	0.01272
1814.21981	0.01263
1812.93405	0.01265
1811.64828	0.01275
1810.36251	0.01292
1809.07674	0.01312
1807.79097	0.01330
1806.50520	0.01341
1805.21943	0.01345
1803.93366	0.01342
1802.64790	0.01338
1801.36213	0.01340
1800.07636	0.01354
1798.79059	0.01375
1797.50482	0.01394
1796.21905	0.01405
1794.93328	0.01406
1793.64751	0.01400
1792.36174	0.01391
1791.07598	0.01385
1789.79021	0.01384
1788.50444	0.01387
1787.21867	0.01391
1785.93290	0.01398
1784.64713	0.01409
1783.36136	0.01426
1782.07559	0.01442
1780.78983	0.01448
1779.50406	0.01444
1778.21829	0.01435
1776.93252	0.01432
1775.64675	0.01441
1774.36098	0.01459
1773.07521	0.01481
1771.78944	0.01499
1770.50367	0.01505
1769.21791	0.01498
1767.93214	0.01484
1766.64637	0.01473
1765.36060	0.01471
1764.07483	0.01480
1762.78906	0.01499
1761.50329	0.01521
1760.21752	0.01537
1758.93176	0.01544
1757.64599	0.01543
1756.36022	0.01539
1755.07445	0.01537
1753.78868	0.01537
1752.50291	0.01539
1751.21714	0.01541
1749.93137	0.01544
1748.64560	0.01549
1747.35984	0.01556
1746.07407	0.01566
1744.78830	0.01578
1743.50253	0.01590
1742.21676	0.01600
1740.93099	0.01611
1739.64522	0.01627
1738.35945	0.01646
1737.07369	0.01665
1735.78792	0.01681
1734.50215	0.01694
1733.21638	0.01708
1731.93061	0.01725
1730.64484	0.01740
1729.35907	0.01750
1728.07330	0.01751
1726.78753	0.01748
1725.50177	0.01746
1724.21600	0.01754
1722.93023	0.01778
1721.64446	0.01814
1720.35869	0.01856
1719.07292	0.01898
1717.78715	0.01935
1716.50138	0.01969
1715.21561	0.02005
1713.92985	0.02041
1712.64408	0.02077
1711.35831	0.02112
1710.07254	0.02147
1708.78677	0.02185
1707.50100	0.02226
1706.21523	0.02263
1704.92946	0.02292
1703.64370	0.02315
1702.35793	0.02339
1701.07216	0.02370
1699.78639	0.02408
1698.50062	0.02445
1697.21485	0.02476
1695.92908	0.02498
1694.64331	0.02516
1693.35754	0.02532
1692.07178	0.02546
1690.78601	0.02557
1689.50024	0.02567
1688.21447	0.02580
1686.92870	0.02602
1685.64293	0.02630
1684.35716	0.02658
1683.07139	0.02682
1681.78563	0.02704
1680.49986	0.02726
1679.21409	0.02751
1677.92832	0.02779
1676.64255	0.02805
1675.35678	0.02828
1674.07101	0.02849
1672.78524	0.02872
1671.49947	0.02896
1670.21371	0.02921
1668.92794	0.02942
1667.64217	0.02962
1666.35640	0.02983
1665.07063	0.03006
1663.78486	0.03029
1662.49909	0.03052
1661.21332	0.03075
1659.92756	0.03100
1658.64179	0.03124
1657.35602	0.03149
1656.07025	0.03177
1654.78448	0.03209
1653.49871	0.03238
1652.21294	0.03258
1650.92717	0.03268
1649.64140	0.03273
1648.35564	0.03282
1647.06987	0.03294
1645.78410	0.03306
1644.49833	0.03313
1643.21256	0.03316
1641.92679	0.03318
1640.64102	0.03324
1639.35525	0.03333
1638.06949	0.03346
1636.78372	0.03357
1635.49795	0.03361
1634.21218	0.03359
1632.92641	0.03357
1631.64064	0.03362
1630.35487	0.03375
1629.06910	0.03395
1627.78333	0.03420
1626.49757	0.03447
1625.21180	0.03472
1623.92603	0.03488
1622.64026	0.03496
1621.35449	0.03503
1620.06872	0.03518
1618.78295	0.03544
1617.49718	0.03578
1616.21142	0.03609
1614.92565	0.03633
1613.63988	0.03651
1612.35411	0.03667
1611.06834	0.03687
1609.78257	0.03710
1608.49680	0.03736
1607.21103	0.03768
1605.92526	0.03806
1604.63950	0.03847
1603.35373	0.03886
1602.06796	0.03920
1600.78219	0.03951
1599.49642	0.03980
1598.21065	0.04010
1596.92488	0.04040
1595.63911	0.04070
1594.35335	0.04099
1593.06758	0.04129
1591.78181	0.04157
1590.49604	0.04185
1589.21027	0.04214
1587.92450	0.04245
1586.63873	0.04278
1585.35296	0.04312
1584.06719	0.04346
1582.78143	0.04383
1581.49566	0.04426
1580.20989	0.04473
1578.92412	0.04521
1577.63835	0.04562
1576.35258	0.04597
1575.06681	0.04629
1573.78104	0.04666
1572.49528	0.04710
1571.20951	0.04756
1569.92374	0.04798
1568.63797	0.04833
1567.35220	0.04865
1566.06643	0.04897
1564.78066	0.04931
1563.49489	0.04966
1562.20912	0.05006
1560.92336	0.05050
1559.63759	0.05092
1558.35182	0.05125
1557.06605	0.05149
1555.78028	0.05171
1554.49451	0.05198
1553.20874	0.05231
1551.92297	0.05263
1550.63721	0.05285
1549.35144	0.05295
1548.06567	0.05296
1546.77990	0.05295
1545.49413	0.05296
1544.20836	0.05300
1542.92259	0.05305
1541.63682	0.05309
1540.35105	0.05309
1539.06529	0.05304
1537.77952	0.05298
1536.49375	0.05301
1535.20798	0.05320
1533.92221	0.05356
1532.63644	0.05403
1531.35067	0.05455
1530.06490	0.05516
1528.77914	0.05589
1527.49337	0.05675
1526.20760	0.05772
1524.92183	0.05877
1523.63606	0.05991
1522.35029	0.06116
1521.06452	0.06251
1519.77875	0.06391
1518.49298	0.06534
1517.20722	0.06682
1515.92145	0.06837
1514.63568	0.07001
1513.34991	0.07174
1512.06414	0.07359
1510.77837	0.07557
1509.49260	0.07766
1508.20683	0.07980
1506.92107	0.08187
1505.63530	0.08378
1504.34953	0.08554
1503.06376	0.08721
1501.77799	0.08885
1500.49222	0.09045
1499.20645	0.09196
1497.92068	0.09337
1496.63491	0.09470
1495.34915	0.09599
1494.06338	0.09728
1492.77761	0.09859
1491.49184	0.09992
1490.20607	0.10128
1488.92030	0.10266
1487.63453	0.10410
1486.34876	0.10566
1485.06299	0.10735
1483.77723	0.10914
1482.49146	0.11095
1481.20569	0.11271
1479.91992	0.11443
1478.63415	0.11613
1477.34838	0.11776
1476.06261	0.11926
1474.77684	0.12060
1473.49108	0.12179
1472.20531	0.12289
1470.91954	0.12389
1469.63377	0.12473
1468.34800	0.12539
1467.06223	0.12587
1465.77646	0.12623
1464.49069	0.12652
1463.20492	0.12684
1461.91916	0.12731
1460.63339	0.12797
1459.34762	0.12881
1458.06185	0.12974
1456.77608	0.13065
1455.49031	0.13145
1454.20454	0.13217
1452.91877	0.13283
1451.63301	0.13342
1450.34724	0.13392
1449.06147	0.13430
1447.77570	0.13456
1446.48993	0.13471
1445.20416	0.13473
1443.91839	0.13460
1442.63262	0.13432
1441.34685	0.13395
1440.06109	0.13359
1438.77532	0.13335
1437.48955	0.13332
1436.20378	0.13357
1434.91801	0.13412
1433.63224	0.13498
1432.34647	0.13614
1431.06070	0.13758
1429.77494	0.13924
1428.48917	0.14110
1427.20340	0.14310
1425.91763	0.14519
1424.63186	0.14730
1423.34609	0.14941
1422.06032	0.15149
1420.77455	0.15348
1419.48878	0.15530
1418.20302	0.15686
1416.91725	0.15809
1415.63148	0.15896
1414.34571	0.15950
1413.05994	0.15973
1411.77417	0.15967
1410.48840	0.15933
1409.20263	0.15868
1407.91687	0.15769
1406.63110	0.15634
1405.34533	0.15464
1404.05956	0.15261
1402.77379	0.15030
1401.48802	0.14773
1400.20225	0.14492
1398.91648	0.14191
1397.63071	0.13876
1396.34495	0.13555
1395.05918	0.13231
1393.77341	0.12901
1392.48764	0.12566
1391.20187	0.12226
1389.91610	0.11888
1388.63033	0.11558
1387.34456	0.11235
1386.05880	0.10916
1384.77303	0.10598
1383.48726	0.10279
1382.20149	0.09960
1380.91572	0.09640
1379.62995	0.09317
1378.34418	0.08994
1377.05841	0.08674
1375.77264	0.08354
1374.48688	0.08031
1373.20111	0.07703
1371.91534	0.07376
1370.62957	0.07062
1369.34380	0.06771
1368.05803	0.06508
1366.77226	0.06270
1365.48649	0.06051
1364.20073	0.05843
1362.91496	0.05645
1361.62919	0.05454
1360.34342	0.05273
1359.05765	0.05105
1357.77188	0.04951
1356.48611	0.04811
1355.20034	0.04677
1353.91457	0.04548
1352.62881	0.04424
1351.34304	0.04308
1350.05727	0.04203
1348.77150	0.04107
1347.48573	0.04019
1346.19996	0.03937
1344.91419	0.03856
1343.62842	0.03776
1342.34266	0.03697
1341.05689	0.03625
1339.77112	0.03562
1338.48535	0.03508
1337.19958	0.03457
1335.91381	0.03408
1334.62804	0.03360
1333.34227	0.03314
1332.05650	0.03272
1330.77074	0.03232
1329.48497	0.03193
1328.19920	0.03157
1326.91343	0.03124
1325.62766	0.03094
1324.34189	0.03068
1323.05612	0.03042
1321.77035	0.03015
1320.48459	0.02988
1319.19882	0.02964
1317.91305	0.02941
1316.62728	0.02916
1315.34151	0.02886
1314.05574	0.02852
1312.76997	0.02818
1311.48420	0.02785
1310.19843	0.02756
1308.91267	0.02732
1307.62690	0.02712
1306.34113	0.02696
1305.05536	0.02682
1303.76959	0.02667
1302.48382	0.02650
1301.19805	0.02628
1299.91228	0.02603
1298.62652	0.02577
1297.34075	0.02551
1296.05498	0.02531
1294.76921	0.02517
1293.48344	0.02507
1292.19767	0.02499
1290.91190	0.02488
1289.62613	0.02474
1288.34036	0.02457
1287.05460	0.02437
1285.76883	0.02417
1284.48306	0.02396
1283.19729	0.02376
1281.91152	0.02358
1280.62575	0.02341
1279.33998	0.02327
1278.05421	0.02316
1276.76845	0.02308
1275.48268	0.02301
1274.19691	0.02291
1272.91114	0.02278
1271.62537	0.02263
1270.33960	0.02248
1269.05383	0.02233
1267.76806	0.02216
1266.48229	0.02197
1265.19653	0.02178
1263.91076	0.02164
1262.62499	0.02155
1261.33922	0.02148
1260.05345	0.02138
1258.76768	0.02124
1257.48191	0.02109
1256.19614	0.02098
1254.91037	0.02092
1253.62461	0.02089
1252.33884	0.02086
1251.05307	0.02079
1249.76730	0.02068
1248.48153	0.02056
1247.19576	0.02047
1245.90999	0.02042
1244.62422	0.02039
1243.33846	0.02033
1242.05269	0.02023
1240.76692	0.02010
1239.48115	0.01997
1238.19538	0.01985
1236.90961	0.01974
1235.62384	0.01964
1234.33807	0.01957
1233.05230	0.01952
1231.76654	0.01945
1230.48077	0.01937
1229.19500	0.01928
1227.90923	0.01918
1226.62346	0.01910
1225.33769	0.01902
1224.05192	0.01897
1222.76615	0.01895
1221.48039	0.01897
1220.19462	0.01900
1218.90885	0.01899
1217.62308	0.01895
1216.33731	0.01888
1215.05154	0.01883
1213.76577	0.01881
1212.48000	0.01878
1211.19423	0.01874
1209.90847	0.01870
1208.62270	0.01869
1207.33693	0.01871
1206.05116	0.01871
1204.76539	0.01869
1203.47962	0.01869
1202.19385	0.01873
1200.90808	0.01876
1199.62232	0.01876
1198.33655	0.01881
1197.05078	0.01885
1195.76501	0.01887
1194.47924	0.01884
1193.19347	0.01878
1191.90770	0.01871
1190.62193	0.01865
1189.33616	0.01859
1188.05040	0.01851
1186.76463	0.01845
1185.47886	0.01847
1184.19309	0.01860
1182.90732	0.01874
1181.62155	0.01880
1180.33578	0.01877
1179.05001	0.01874
1177.76425	0.01879
1176.47848	0.01892
1175.19271	0.01905
1173.90694	0.01914
1172.62117	0.01919
1171.33540	0.01923
1170.04963	0.01930
1168.76386	0.01941
1167.47809	0.01958
1166.19233	0.01976
1164.90656	0.01991
1163.62079	0.02003
1162.33502	0.02015
1161.04925	0.02032
1159.76348	0.02056
1158.47771	0.02085
1157.19194	0.02115
1155.90618	0.02144
1154.62041	0.02172
1153.33464	0.02202
1152.04887	0.02235
1150.76310	0.02273
1149.47733	0.02315
1148.19156	0.02363
1146.90579	0.02417
1145.62002	0.02483
1144.33426	0.02563
1143.04849	0.02655
1141.76272	0.02754
1140.47695	0.02860
1139.19118	0.02979
1137.90541	0.03117
1136.61964	0.03275
1135.33387	0.03455
1134.04811	0.03659
1132.76234	0.03892
1131.47657	0.04153
1130.19080	0.04441
1128.90503	0.04752
1127.61926	0.05083
1126.33349	0.05437
1125.04772	0.05815
1123.76195	0.06218
1122.47619	0.06639
1121.19042	0.07073
1119.90465	0.07512
1118.61888	0.07955
1117.33311	0.08398
1116.04734	0.08839
1114.76157	0.09273
1113.47580	0.09701
1112.19004	0.10120
1110.90427	0.10530
1109.61850	0.10931
1108.33273	0.11328
1107.04696	0.11723
1105.76119	0.12111
1104.47542	0.12484
1103.18965	0.12840
1101.90388	0.13184
1100.61812	0.13526
1099.33235	0.13870
1098.04658	0.14212
1096.76081	0.14540
1095.47504	0.14850
1094.18927	0.15143
1092.90350	0.15426
1091.61773	0.15700
1090.33197	0.15969
1089.04620	0.16230
1087.76043	0.16483
1086.47466	0.16724
1085.18889	0.16956
1083.90312	0.17192
1082.61735	0.17446
1081.33158	0.17728
1080.04581	0.18034
1078.76005	0.18358
1077.47428	0.18697
1076.18851	0.19058
1074.90274	0.19447
1073.61697	0.19865
1072.33120	0.20308
1071.04543	0.20764
1069.75966	0.21225
1068.47390	0.21686
1067.18813	0.22151
1065.90236	0.22625
1064.61659	0.23111
1063.33082	0.23608
1062.04505	0.24114
1060.75928	0.24627
1059.47351	0.25142
1058.18774	0.25651
1056.90198	0.26150
1055.61621	0.26639
1054.33044	0.27122
1053.04467	0.27609
1051.75890	0.28109
1050.47313	0.28626
1049.18736	0.29157
1047.90159	0.29699
1046.61583	0.30245
1045.33006	0.30798
1044.04429	0.31358
1042.75852	0.31924
1041.47275	0.32491
1040.18698	0.33060
1038.90121	0.33638
1037.61544	0.34228
1036.32967	0.34823
1035.04391	0.35416
1033.75814	0.36000
1032.47237	0.36568
1031.18660	0.37101
1029.90083	0.37586
1028.61506	0.38019
1027.32929	0.38409
1026.04352	0.38758
1024.75775	0.39058
1023.47199	0.39300
1022.18622	0.39478
1020.90045	0.39587
1019.61468	0.39616
1018.32891	0.39550
1017.04314	0.39382
1015.75737	0.39112
1014.47160	0.38745
1013.18584	0.38287
1011.90007	0.37737
1010.61430	0.37096
1009.32853	0.36362
1008.04276	0.35536
1006.75699	0.34620
1005.47122	0.33620
1004.18545	0.32548
1002.89968	0.31418
1001.61392	0.30245
1000.32815	0.29041
999.04238	0.27820
997.75661	0.26595
996.47084	0.25372
995.18507	0.24155
993.89930	0.22951
992.61353	0.21778
991.32777	0.20656
990.04200	0.19592
988.75623	0.18583
987.47046	0.17621
986.18469	0.16707
984.89892	0.15854
983.61315	0.15074
982.32738	0.14368
981.04161	0.13717
979.75585	0.13110
978.47008	0.12545
977.18431	0.12038
975.89854	0.11606
974.61277	0.11258
973.32700	0.10989
972.04123	0.10798
970.75546	0.10687
969.46970	0.10667
968.18393	0.10739
966.89816	0.10891
965.61239	0.11097
964.32662	0.11315
963.04085	0.11504
961.75508	0.11626
960.46931	0.11655
959.18354	0.11576
957.89778	0.11390
956.61201	0.11111
955.32624	0.10765
954.04047	0.10383
952.75470	0.09993
951.46893	0.09611
950.18316	0.09241
948.89739	0.08881
947.61163	0.08532
946.32586	0.08196
945.04009	0.07873
943.75432	0.07563
942.46855	0.07269
941.18278	0.06995
939.89701	0.06742
938.61124	0.06510
937.32547	0.06300
936.03971	0.06108
934.75394	0.05929
933.46817	0.05761
932.18240	0.05606
930.89663	0.05467
929.61086	0.05345
928.32509	0.05237
927.03932	0.05139
925.75356	0.05046
924.46779	0.04957
923.18202	0.04875
921.89625	0.04799
920.61048	0.04731
919.32471	0.04668
918.03894	0.04607
916.75317	0.04547
915.46740	0.04486
914.18164	0.04426
912.89587	0.04368
911.61010	0.04317
910.32433	0.04276
909.03856	0.04240
907.75279	0.04202
906.46702	0.04160
905.18125	0.04115
903.89549	0.04074
902.60972	0.04040
901.32395	0.04014
900.03818	0.03992
898.75241	0.03970
897.46664	0.03953
896.18087	0.03945
894.89510	0.03946
893.60933	0.03950
892.32357	0.03957
891.03780	0.03974
889.75203	0.04019
888.46626	0.04109
887.18049	0.04264
885.89472	0.04509
884.60895	0.04867
883.32318	0.05335
882.03742	0.05869
880.75165	0.06390
879.46588	0.06829
878.18011	0.07171
876.89434	0.07458
875.60857	0.07739
874.32280	0.08021
873.03703	0.08253
871.75126	0.08362
870.46550	0.08304
869.17973	0.08079
867.89396	0.07721
866.60819	0.07274
865.32242	0.06785
864.03665	0.06299
862.75088	0.05850
861.46511	0.05455
860.17935	0.05119
858.89358	0.04841
857.60781	0.04621
856.32204	0.04452
855.03627	0.04322
853.75050	0.04213
852.46473	0.04115
851.17896	0.04029
849.89319	0.03958
848.60743	0.03903
847.32166	0.03859
846.03589	0.03820
844.75012	0.03784
843.46435	0.03750
842.17858	0.03715
840.89281	0.03679
839.60704	0.03642
838.32128	0.03601
837.03551	0.03556
835.74974	0.03515
834.46397	0.03485
833.17820	0.03467
831.89243	0.03455
830.60666	0.03440
829.32089	0.03418
828.03512	0.03393
826.74936	0.03371
825.46359	0.03351
824.17782	0.03333
822.89205	0.03317
821.60628	0.03302
820.32051	0.03291
819.03474	0.03290
817.74897	0.03299
816.46321	0.03310
815.17744	0.03310
813.89167	0.03294
812.60590	0.03269
811.32013	0.03246
810.03436	0.03231
808.74859	0.03226
807.46282	0.03225
806.17705	0.03224
804.89129	0.03217
803.60552	0.03206
802.31975	0.03194
801.03398	0.03185
799.74821	0.03177
798.46244	0.03170
797.17667	0.03163
795.89090	0.03158
794.60513	0.03152
793.31937	0.03143
792.03360	0.03130
790.74783	0.03122
789.46206	0.03123
788.17629	0.03130
786.89052	0.03133
785.60475	0.03128
784.31898	0.03117
783.03322	0.03109
781.74745	0.03105
780.46168	0.03104
779.17591	0.03103
777.89014	0.03100
776.60437	0.03095
775.31860	0.03090
774.03283	0.03087
772.74706	0.03086
771.46130	0.03085
770.17553	0.03080
768.88976	0.03070
767.60399	0.03054
766.31822	0.03040
765.03245	0.03035
763.74668	0.03043
762.46091	0.03060
761.17515	0.03078
759.88938	0.03095
758.60361	0.03110
757.31784	0.03119
756.03207	0.03121
754.74630	0.03119
753.46053	0.03121
752.17476	0.03129
750.88899	0.03139
749.60323	0.03140
748.31746	0.03128
747.03169	0.03110
745.74592	0.03096
744.46015	0.03092
743.17438	0.03092
741.88861	0.03086
740.60284	0.03071
739.31708	0.03054
738.03131	0.03040
736.74554	0.03032
735.45977	0.03026
734.17400	0.03022
732.88823	0.03026
731.60246	0.03042
730.31669	0.03064
729.03092	0.03085
727.74516	0.03101
726.45939	0.03115
725.17362	0.03129
723.88785	0.03140
722.60208	0.03151
721.31631	0.03162
720.03054	0.03174
718.74477	0.03187
717.45901	0.03199
716.17324	0.03206
714.88747	0.03204
713.60170	0.03190
712.31593	0.03168
711.03016	0.03146
709.74439	0.03130
708.45862	0.03119
707.17285	0.03109
705.88709	0.03098
704.60132	0.03086
703.31555	0.03077
702.02978	0.03071
700.74401	0.03069
699.45824	0.03073
698.17247	0.03082
696.88670	0.03097
695.60094	0.03113
694.31517	0.03128
693.02940	0.03136
691.74363	0.03137
690.45786	0.03134
689.17209	0.03129
687.88632	0.03122
686.60055	0.03111
685.31478	0.03096
684.02902	0.03077
682.74325	0.03059
681.45748	0.03046
680.17171	0.03043
678.88594	0.03048
677.60017	0.03055
676.31440	0.03057
675.02863	0.03058
673.74287	0.03063
672.45710	0.03078
671.17133	0.03105
669.88556	0.03134
668.59979	0.03157
667.31402	0.03171
666.02825	0.03168
664.74248	0.03153
663.45671	0.03132
662.17095	0.03107
660.88518	0.03080
659.59941	0.03054
658.31364	0.03031
657.02787	0.03016
655.74210	0.03012
654.45633	0.03017
653.17056	0.03027
651.88480	0.03040
650.59903	0.03054
649.31326	0.03066
648.02749	0.03076
646.74172	0.03082
645.45595	0.03087
644.17018	0.03096
642.88441	0.03112
641.59864	0.03134
640.31288	0.03158
639.02711	0.03185
637.74134	0.03216
636.45557	0.03252
635.16980	0.03295
633.88403	0.03342
632.59826	0.03390
631.31249	0.03444
630.02673	0.03541
628.74096	0.03669
627.45519	0.03705
626.16942	0.03876
624.88365	0.04172
623.59788	0.04533
622.31211	0.04927
621.02634	0.05310
619.74057	0.05671
618.45481	0.06046
617.16904	0.06441
615.88327	0.06819
614.59750	0.07178
613.31173	0.07622
612.02596	0.08285
610.74019	0.09189
609.45442	0.10177
608.16866	0.11048
606.88289	0.11725
605.59712	0.12251
604.31135	0.12667
603.02558	0.12947
601.73981	0.13030
600.45404	0.12892
599.16827	0.12570
597.88250	0.12133
596.59674	0.11651
595.31097	0.11179
594.02520	0.10761
592.73943	0.10426
591.45366	0.10189
590.16789	0.10049
588.88212	0.09998
587.59635	0.10032
586.31059	0.10149
585.02482	0.10350
583.73905	0.10629
582.45328	0.10970
581.16751	0.11349
579.88174	0.11745
578.59597	0.12140
577.31020	0.12522
576.02443	0.12883
574.73867	0.13224
573.45290	0.13562
572.16713	0.13919
570.88136	0.14320
569.59559	0.14785
568.30982	0.15322
567.02405	0.15919
565.73828	0.16527
564.45251	0.17059
563.16675	0.17418
561.88098	0.17528
560.59521	0.17355
559.30944	0.16909
558.02367	0.16229
556.73790	0.15368
555.45213	0.14396
554.16636	0.13384
552.88060	0.12393
551.59483	0.11461
550.30906	0.10604
549.02329	0.09830
547.73752	0.09142
546.45175	0.08542
545.16598	0.08025
543.88021	0.07580
542.59444	0.07190
541.30868	0.06842
540.02291	0.06533
538.73714	0.06261
537.45137	0.06023
536.16560	0.05810
534.87983	0.05610
533.59406	0.05419
532.30829	0.05237
531.02253	0.05067
529.73676	0.04905
528.45099	0.04754
527.16522	0.04619
525.87945	0.04506
524.59368	0.04413
523.30791	0.04327
522.02214	0.04237
520.73637	0.04139
519.45061	0.04039
518.16484	0.03944
516.87907	0.03857
515.59330	0.03779
514.30753	0.03707
513.02176	0.03638
511.73599	0.03572
510.45022	0.03512
509.16446	0.03462
507.87869	0.03419
506.59292	0.03379
505.30715	0.03337
504.02138	0.03293
502.73561	0.03249
501.44984	0.03204
500.16407	0.03157
498.87830	0.03110
497.59254	0.03067
496.30677	0.03032
495.02100	0.03003
493.73523	0.02976
492.44946	0.02951
491.16369	0.02931
489.87792	0.02917
488.59215	0.02905
487.30639	0.02895
486.02062	0.02892
484.73485	0.02900
483.44908	0.02917
482.16331	0.02936
480.87754	0.02953
479.59177	0.02970
478.30600	0.02991
477.02023	0.03013
475.73447	0.03035
474.44870	0.03057
473.16293	0.03084
471.87716	0.03116
470.59139	0.03144
469.30562	0.03157
468.01985	0.03147
466.73408	0.03120
465.44832	0.03079
464.16255	0.03030
462.87678	0.02979
461.59101	0.02932
460.30524	0.02893
459.01947	0.02856
457.73370	0.02816
456.44793	0.02771
455.16216	0.02725
453.87640	0.02684
452.59063	0.02651
451.30486	0.02626
450.01909	0.02604
448.73332	0.02584
447.44755	0.02565
446.16178	0.02548
444.87601	0.02531
443.59025	0.02515
442.30448	0.02501
441.01871	0.02488
439.73294	0.02477
438.44717	0.02465
437.16140	0.02455
435.87563	0.02447
434.58986	0.02441
433.30409	0.02435
432.01833	0.02427
430.73256	0.02416
429.44679	0.02405
428.16102	0.02394
426.87525	0.02383
425.58948	0.02371
424.30371	0.02358
423.01794	0.02342
421.73218	0.02325
420.44641	0.02305
419.16064	0.02287
417.87487	0.02272
416.58910	0.02262
415.30333	0.02253
414.01756	0.02244
412.73179	0.02236
411.44602	0.02233
410.16026	0.02238
408.87449	0.02249
407.58872	0.02264
406.30295	0.02275
405.01718	0.02282
403.73141	0.02291
402.44564	0.02312
401.15987	0.02344
399.87411	0.02380
