3997.45528	0.03238
3996.16951	0.03196
3994.88374	0.03149
3993.59798	0.03122
3992.31221	0.03142
3991.02644	0.03195
3989.74067	0.03238
3988.45490	0.03238
3987.16913	0.03200
3985.88336	0.03157
3984.59759	0.03138
3983.31183	0.03150
3982.02606	0.03176
3980.74029	0.03202
3979.45452	0.03227
3978.16875	0.03257
3976.88298	0.03284
3975.59721	0.03293
3974.31144	0.03278
3973.02567	0.03248
3971.73991	0.03217
3970.45414	0.03185
3969.16837	0.03144
3967.88260	0.03098
3966.59683	0.03075
3965.31106	0.03101
3964.02529	0.03170
3962.73952	0.03254
3961.45376	0.03329
3960.16799	0.03381
3958.88222	0.03401
3957.59645	0.03386
3956.31068	0.03352
3955.02491	0.03331
3953.73914	0.03343
3952.45337	0.03375
3951.16760	0.03393
3949.88184	0.03380
3948.59607	0.03350
3947.31030	0.03328
3946.02453	0.03321
3944.73876	0.03325
3943.45299	0.03341
3942.16722	0.03377
3940.88145	0.03410
3939.59569	0.03402
3938.30992	0.03354
3937.02415	0.03312
3935.73838	0.03311
3934.45261	0.03337
3933.16684	0.03359
3931.88107	0.03370
3930.59530	0.03385
3929.30953	0.03414
3928.02377	0.03447
3926.73800	0.03466
3925.45223	0.03467
3924.16646	0.03458
3922.88069	0.03445
3921.59492	0.03424
3920.30915	0.03395
3919.02338	0.03363
3917.73762	0.03335
3916.45185	0.03324
3915.16608	0.03333
3913.88031	0.03349
3912.59454	0.03355
3911.30877	0.03341
3910.02300	0.03312
3908.73723	0.03279
3907.45146	0.03261
3906.16570	0.03266
3904.87993	0.03301
3903.59416	0.03364
3902.30839	0.03432
3901.02262	0.03475
3899.73685	0.03487
3898.45108	0.03482
3897.16531	0.03467
3895.87955	0.03442
3894.59378	0.03400
3893.30801	0.03333
3892.02224	0.03262
3890.73647	0.03242
3889.45070	0.03285
3888.16493	0.03324
3886.87916	0.03304
3885.59339	0.03257
3884.30763	0.03230
3883.02186	0.03221
3881.73609	0.03215
3880.45032	0.03233
3879.16455	0.03297
3877.87878	0.03373
3876.59301	0.03423
3875.30724	0.03457
3874.02148	0.03517
3872.73571	0.03595
3871.44994	0.03646
3870.16417	0.03669
3868.87840	0.03691
3867.59263	0.03687
3866.30686	0.03631
3865.02109	0.03561
3863.73532	0.03521
3862.44956	0.03503
3861.16379	0.03487
3859.87802	0.03479
3858.59225	0.03485
3857.30648	0.03482
3856.02071	0.03447
3854.73494	0.03418
3853.44917	0.03470
3852.16341	0.03590
3850.87764	0.03660
3849.59187	0.03616
3848.30610	0.03506
3847.02033	0.03402
3845.73456	0.03340
3844.44879	0.03318
3843.16302	0.03328
3841.87725	0.03357
3840.59149	0.03368
3839.30572	0.03335
3838.01995	0.03284
3836.73418	0.03262
3835.44841	0.03272
3834.16264	0.03292
3832.87687	0.03314
3831.59110	0.03337
3830.30534	0.03349
3829.01957	0.03343
3827.73380	0.03340
3826.44803	0.03364
3825.16226	0.03394
3823.87649	0.03375
3822.59072	0.03312
3821.30495	0.03292
3820.01918	0.03355
3818.73342	0.03420
3817.44765	0.03415
3816.16188	0.03400
3814.87611	0.03441
3813.59034	0.03489
3812.30457	0.03472
3811.01880	0.03406
3809.73303	0.03326
3808.44726	0.03251
3807.16150	0.03219
3805.87573	0.03252
3804.58996	0.03283
3803.30419	0.03238
3802.01842	0.03163
3800.73265	0.03155
3799.44688	0.03212
3798.16111	0.03262
3796.87535	0.03283
3795.58958	0.03290
3794.30381	0.03252
3793.01804	0.03155
3791.73227	0.03054
3790.44650	0.03025
3789.16073	0.03078
3787.87496	0.03156
3786.58919	0.03201
3785.30343	0.03203
3784.01766	0.03194
3782.73189	0.03199
3781.44612	0.03220
3780.16035	0.03249
3778.87458	0.03280
3777.58881	0.03289
3776.30304	0.03259
3775.01728	0.03209
3773.73151	0.03177
3772.44574	0.03167
3771.15997	0.03153
3769.87420	0.03128
3768.58843	0.03095
3767.30266	0.03049
3766.01689	0.03000
3764.73112	0.02982
3763.44536	0.03020
3762.15959	0.03108
3760.87382	0.03220
3759.58805	0.03314
3758.30228	0.03343
3757.01651	0.03309
3755.73074	0.03254
3754.44497	0.03215
3753.15921	0.03197
3751.87344	0.03190
3750.58767	0.03178
3749.30190	0.03184
3748.01613	0.03223
3746.73036	0.03224
3745.44459	0.03151
3744.15882	0.03094
3742.87305	0.03097
3741.58729	0.03088
3740.30152	0.03035
3739.01575	0.02981
3737.72998	0.02966
3736.44421	0.03002
3735.15844	0.03070
3733.87267	0.03112
3732.58690	0.03108
3731.30114	0.03109
3730.01537	0.03149
3728.72960	0.03204
3727.44383	0.03243
3726.15806	0.03270
3724.87229	0.03280
3723.58652	0.03264
3722.30075	0.03232
3721.01498	0.03195
3719.72922	0.03150
3718.44345	0.03097
3717.15768	0.03056
3715.87191	0.03048
3714.58614	0.03060
3713.30037	0.03064
3712.01460	0.03041
3710.72883	0.02991
3709.44307	0.02935
3708.15730	0.02911
3706.87153	0.02931
3705.58576	0.02964
3704.29999	0.02980
3703.01422	0.02989
3701.72845	0.03022
3700.44268	0.03083
3699.15691	0.03140
3697.87115	0.03169
3696.58538	0.03188
3695.29961	0.03226
3694.01384	0.03280
3692.72807	0.03327
3691.44230	0.03334
3690.15653	0.03281
3688.87076	0.03205
3687.58500	0.03158
3686.29923	0.03131
3685.01346	0.03077
3683.72769	0.02990
3682.44192	0.02917
3681.15615	0.02907
3679.87038	0.02974
3678.58461	0.03067
3677.29884	0.03106
3676.01308	0.03093
3674.72731	0.03096
3673.44154	0.03127
3672.15577	0.03142
3670.87000	0.03151
3669.58423	0.03191
3668.29846	0.03240
3667.01269	0.03258
3665.72693	0.03265
3664.44116	0.03289
3663.15539	0.03315
3661.86962	0.03313
3660.58385	0.03288
3659.29808	0.03261
3658.01231	0.03244
3656.72654	0.03251
3655.44077	0.03293
3654.15501	0.03343
3652.86924	0.03361
3651.58347	0.03366
3650.29770	0.03415
3649.01193	0.03521
3647.72616	0.03623
3646.44039	0.03650
3645.15462	0.03588
3643.86886	0.03489
3642.58309	0.03418
3641.29732	0.03409
3640.01155	0.03452
3638.72578	0.03515
3637.44001	0.03564
3636.15424	0.03572
3634.86847	0.03545
3633.58270	0.03519
3632.29694	0.03519
3631.01117	0.03542
3629.72540	0.03596
3628.43963	0.03698
3627.15386	0.03811
3625.86809	0.03871
3624.58232	0.03878
3623.29655	0.03872
3622.01079	0.03864
3620.72502	0.03849
3619.43925	0.03854
3618.15348	0.03901
3616.86771	0.03965
3615.58194	0.04004
3614.29617	0.04012
3613.01040	0.04018
3611.72463	0.04030
3610.43887	0.04038
3609.15310	0.04053
3607.86733	0.04104
3606.58156	0.04182
3605.29579	0.04237
3604.01002	0.04230
3602.72425	0.04167
3601.43848	0.04107
3600.15272	0.04106
3598.86695	0.04171
3597.58118	0.04248
3596.29541	0.04300
3595.00964	0.04329
3593.72387	0.04360
3592.43810	0.04391
3591.15233	0.04405
3589.86656	0.04406
3588.58080	0.04423
3587.29503	0.04472
3586.00926	0.04523
3584.72349	0.04543
3583.43772	0.04536
3582.15195	0.04532
3580.86618	0.04555
3579.58041	0.04603
3578.29464	0.04657
3577.00888	0.04705
3575.72311	0.04746
3574.43734	0.04789
3573.15157	0.04837
3571.86580	0.04887
3570.58003	0.04935
3569.29426	0.04974
3568.00849	0.05007
3566.72273	0.05029
3565.43696	0.05028
3564.15119	0.04998
3562.86542	0.04950
3561.57965	0.04919
3560.29388	0.04936
3559.00811	0.05004
3557.72234	0.05092
3556.43657	0.05159
3555.15081	0.05184
3553.86504	0.05176
3552.57927	0.05155
3551.29350	0.05130
3550.00773	0.05101
3548.72196	0.05079
3547.43619	0.05092
3546.15042	0.05164
3544.86466	0.05293
3543.57889	0.05434
3542.29312	0.05533
3541.00735	0.05563
3539.72158	0.05548
3538.43581	0.05541
3537.15004	0.05569
3535.86427	0.05619
3534.57850	0.05663
3533.29274	0.05694
3532.00697	0.05723
3530.72120	0.05749
3529.43543	0.05753
3528.14966	0.05722
3526.86389	0.05673
3525.57812	0.05635
3524.29235	0.05629
3523.00659	0.05660
3521.72082	0.05719
3520.43505	0.05791
3519.14928	0.05860
3517.86351	0.05913
3516.57774	0.05944
3515.29197	0.05957
3514.00620	0.05965
3512.72043	0.05979
3511.43467	0.06000
3510.14890	0.06023
3508.86313	0.06039
3507.57736	0.06027
3506.29159	0.05983
3505.00582	0.05937
3503.72005	0.05947
3502.43428	0.06038
3501.14852	0.06175
3499.86275	0.06290
3498.57698	0.06333
3497.29121	0.06306
3496.00544	0.06248
3494.71967	0.06216
3493.43390	0.06241
3492.14813	0.06310
3490.86236	0.06378
3489.57660	0.06409
3488.29083	0.06413
3487.00506	0.06418
3485.71929	0.06427
3484.43352	0.06417
3483.14775	0.06376
3481.86198	0.06329
3480.57621	0.06315
3479.29045	0.06346
3478.00468	0.06407
3476.71891	0.06473
3475.43314	0.06526
3474.14737	0.06552
3472.86160	0.06544
3471.57583	0.06509
3470.29006	0.06470
3469.00429	0.06454
3467.71853	0.06482
3466.43276	0.06545
3465.14699	0.06609
3463.86122	0.06644
3462.57545	0.06647
3461.28968	0.06641
3460.00391	0.06649
3458.71814	0.06692
3457.43238	0.06769
3456.14661	0.06852
3454.86084	0.06898
3453.57507	0.06884
3452.28930	0.06837
3451.00353	0.06810
3449.71776	0.06831
3448.43199	0.06886
3447.14622	0.06935
3445.86046	0.06954
3444.57469	0.06947
3443.28892	0.06933
3442.00315	0.06924
3440.71738	0.06909
3439.43161	0.06878
3438.14584	0.06842
3436.86007	0.06829
3435.57431	0.06865
3434.28854	0.06942
3433.00277	0.07032
3431.71700	0.07100
3430.43123	0.07133
3429.14546	0.07135
3427.85969	0.07125
3426.57392	0.07120
3425.28815	0.07123
3424.00239	0.07126
3422.71662	0.07122
3421.43085	0.07119
3420.14508	0.07134
3418.85931	0.07172
3417.57354	0.07218
3416.28777	0.07249
3415.00200	0.07255
3413.71624	0.07246
3412.43047	0.07246
3411.14470	0.07274
3409.85893	0.07330
3408.57316	0.07387
3407.28739	0.07420
3406.00162	0.07421
3404.71585	0.07417
3403.43008	0.07435
3402.14432	0.07477
3400.85855	0.07513
3399.57278	0.07519
3398.28701	0.07501
3397.00124	0.07482
3395.71547	0.07480
3394.42970	0.07491
3393.14393	0.07499
3391.85817	0.07489
3390.57240	0.07462
3389.28663	0.07432
3388.00086	0.07415
3386.71509	0.07420
3385.42932	0.07451
3384.14355	0.07502
3382.85778	0.07557
3381.57201	0.07592
3380.28625	0.07592
3379.00048	0.07567
3377.71471	0.07545
3376.42894	0.07551
3375.14317	0.07584
3373.85740	0.07619
3372.57163	0.07636
3371.28586	0.07636
3370.00010	0.07638
3368.71433	0.07653
3367.42856	0.07679
3366.14279	0.07708
3364.85702	0.07723
3363.57125	0.07707
3362.28548	0.07658
3360.99971	0.07596
3359.71394	0.07557
3358.42818	0.07561
3357.14241	0.07602
3355.85664	0.07657
3354.57087	0.07708
3353.28510	0.07750
3351.99933	0.07785
3350.71356	0.07808
3349.42779	0.07813
3348.14202	0.07795
3346.85626	0.07757
3345.57049	0.07704
3344.28472	0.07647
3342.99895	0.07606
3341.71318	0.07599
3340.42741	0.07630
3339.14164	0.07679
3337.85587	0.07714
3336.57011	0.07709
3335.28434	0.07667
3333.99857	0.07613
3332.71280	0.07585
3331.42703	0.07605
3330.14126	0.07668
3328.85549	0.07743
3327.56972	0.07799
3326.28395	0.07823
3324.99819	0.07822
3323.71242	0.07808
3322.42665	0.07786
3321.14088	0.07769
3319.85511	0.07768
3318.56934	0.07781
3317.28357	0.07795
3315.99780	0.07805
3314.71204	0.07831
3313.42627	0.07895
3312.14050	0.07986
3310.85473	0.08058
3309.56896	0.08066
3308.28319	0.08001
3306.99742	0.07892
3305.71165	0.07784
3304.42588	0.07714
3303.14012	0.07693
3301.85435	0.07697
3300.56858	0.07692
3299.28281	0.07666
3297.99704	0.07636
3296.71127	0.07630
3295.42550	0.07652
3294.13973	0.07684
3292.85397	0.07704
3291.56820	0.07704
3290.28243	0.07694
3288.99666	0.07684
3287.71089	0.07677
3286.42512	0.07677
3285.13935	0.07684
3283.85358	0.07691
3282.56781	0.07684
3281.28205	0.07660
3279.99628	0.07632
3278.71051	0.07610
3277.42474	0.07591
3276.13897	0.07566
3274.85320	0.07542
3273.56743	0.07531
3272.28166	0.07534
3270.99590	0.07540
3269.71013	0.07535
3268.42436	0.07514
3267.13859	0.07483
3265.85282	0.07460
3264.56705	0.07465
3263.28128	0.07507
3261.99551	0.07572
3260.70974	0.07637
3259.42398	0.07682
3258.13821	0.07699
3256.85244	0.07682
3255.56667	0.07633
3254.28090	0.07567
3252.99513	0.07512
3251.70936	0.07494
3250.42359	0.07519
3249.13783	0.07563
3247.85206	0.07590
3246.56629	0.07577
3245.28052	0.07535
3243.99475	0.07502
3242.70898	0.07502
3241.42321	0.07531
3240.13744	0.07560
3238.85167	0.07562
3237.56591	0.07530
3236.28014	0.07471
3234.99437	0.07409
3233.70860	0.07370
3232.42283	0.07369
3231.13706	0.07395
3229.85129	0.07424
3228.56552	0.07435
3227.27976	0.07431
3225.99399	0.07427
3224.70822	0.07440
3223.42245	0.07470
3222.13668	0.07493
3220.85091	0.07487
3219.56514	0.07449
3218.27937	0.07403
3216.99360	0.07370
3215.70784	0.07358
3214.42207	0.07356
3213.13630	0.07349
3211.85053	0.07327
3210.56476	0.07297
3209.27899	0.07278
3207.99322	0.07287
3206.70745	0.07314
3205.42169	0.07334
3204.13592	0.07335
3202.85015	0.07329
3201.56438	0.07329
3200.27861	0.07326
3198.99284	0.07302
3197.70707	0.07258
3196.42130	0.07209
3195.13553	0.07173
3193.84977	0.07145
3192.56400	0.07111
3191.27823	0.07067
3189.99246	0.07037
3188.70669	0.07052
3187.42092	0.07111
3186.13515	0.07179
3184.84938	0.07213
3183.56362	0.07197
3182.27785	0.07152
3180.99208	0.07110
3179.70631	0.07090
3178.42054	0.07080
3177.13477	0.07058
3175.84900	0.07020
3174.56323	0.06983
3173.27746	0.06965
3171.99170	0.06968
3170.70593	0.06977
3169.42016	0.06972
3168.13439	0.06944
3166.84862	0.06901
3165.56285	0.06862
3164.27708	0.06844
3162.99131	0.06845
3161.70555	0.06856
3160.41978	0.06864
3159.13401	0.06867
3157.84824	0.06869
3156.56247	0.06870
3155.27670	0.06871
3153.99093	0.06866
3152.70516	0.06854
3151.41939	0.06834
3150.13363	0.06809
3148.84786	0.06783
3147.56209	0.06767
3146.27632	0.06770
3144.99055	0.06789
3143.70478	0.06807
3142.41901	0.06805
3141.13324	0.06770
3139.84748	0.06714
3138.56171	0.06664
3137.27594	0.06641
3135.99017	0.06650
3134.70440	0.06678
3133.41863	0.06704
3132.13286	0.06715
3130.84709	0.06712
3129.56132	0.06709
3128.27556	0.06714
3126.98979	0.06718
3125.70402	0.06702
3124.41825	0.06664
3123.13248	0.06620
3121.84671	0.06587
3120.56094	0.06568
3119.27517	0.06562
3117.98940	0.06569
3116.70364	0.06589
3115.41787	0.06611
3114.13210	0.06621
3112.84633	0.06609
3111.56056	0.06587
3110.27479	0.06563
3108.98902	0.06538
3107.70325	0.06509
3106.41749	0.06482
3105.13172	0.06466
3103.84595	0.06463
3102.56018	0.06466
3101.27441	0.06470
3099.98864	0.06477
3098.70287	0.06480
3097.41710	0.06472
3096.13133	0.06451
3094.84557	0.06424
3093.55980	0.06398
3092.27403	0.06376
3090.98826	0.06365
3089.70249	0.06378
3088.41672	0.06416
3087.13095	0.06455
3085.84518	0.06461
3084.55942	0.06431
3083.27365	0.06398
3081.98788	0.06394
3080.70211	0.06416
3079.41634	0.06435
3078.13057	0.06425
3076.84480	0.06398
3075.55903	0.06374
3074.27326	0.06363
3072.98750	0.06354
3071.70173	0.06336
3070.41596	0.06309
3069.13019	0.06282
3067.84442	0.06259
3066.55865	0.06243
3065.27288	0.06241
3063.98711	0.06260
3062.70135	0.06289
3061.41558	0.06303
3060.12981	0.06288
3058.84404	0.06256
3057.55827	0.06234
3056.27250	0.06231
3054.98673	0.06234
3053.70096	0.06231
3052.41519	0.06222
3051.12943	0.06222
3049.84366	0.06230
3048.55789	0.06230
3047.27212	0.06210
3045.98635	0.06182
3044.70058	0.06162
3043.41481	0.06152
3042.12904	0.06138
3040.84328	0.06110
3039.55751	0.06075
3038.27174	0.06050
3036.98597	0.06038
3035.70020	0.06032
3034.41443	0.06020
3033.12866	0.05999
3031.84289	0.05973
3030.55712	0.05946
3029.27136	0.05923
3027.98559	0.05916
3026.69982	0.05932
3025.41405	0.05961
3024.12828	0.05978
3022.84251	0.05965
3021.55674	0.05928
3020.27097	0.05889
3018.98521	0.05869
3017.69944	0.05871
3016.41367	0.05887
3015.12790	0.05909
3013.84213	0.05931
3012.55636	0.05939
3011.27059	0.05920
3009.98482	0.05872
3008.69905	0.05819
3007.41329	0.05793
3006.12752	0.05808
3004.84175	0.05848
3003.55598	0.05887
3002.27021	0.05900
3000.98444	0.05881
2999.69867	0.05840
2998.41290	0.05801
2997.12714	0.05776
2995.84137	0.05764
2994.55560	0.05752
2993.26983	0.05731
2991.98406	0.05713
2990.69829	0.05716
2989.41252	0.05745
2988.12675	0.05781
2986.84098	0.05802
2985.55522	0.05804
2984.26945	0.05803
2982.98368	0.05814
2981.69791	0.05841
2980.41214	0.05875
2979.12637	0.05899
2977.84060	0.05909
2976.55483	0.05912
2975.26907	0.05925
2973.98330	0.05960
2972.69753	0.06018
2971.41176	0.06086
2970.12599	0.06148
2968.84022	0.06194
2967.55445	0.06236
2966.26868	0.06290
2964.98291	0.06357
2963.69715	0.06422
2962.41138	0.06473
2961.12561	0.06510
2959.83984	0.06542
2958.55407	0.06581
2957.26830	0.06633
2955.98253	0.06691
2954.69676	0.06737
2953.41100	0.06760
2952.12523	0.06765
2950.83946	0.06768
2949.55369	0.06773
2948.26792	0.06776
2946.98215	0.06768
2945.69638	0.06750
2944.41061	0.06730
2943.12484	0.06715
2941.83908	0.06714
2940.55331	0.06727
2939.26754	0.06749
2937.98177	0.06770
2936.69600	0.06786
2935.41023	0.06804
2934.12446	0.06842
2932.83869	0.06905
2931.55293	0.06982
2930.26716	0.07047
2928.98139	0.07086
2927.69562	0.07102
2926.40985	0.07104
2925.12408	0.07093
2923.83831	0.07061
2922.55254	0.07007
2921.26677	0.06941
2919.98101	0.06882
2918.69524	0.06845
2917.40947	0.06829
2916.12370	0.06813
2914.83793	0.06777
2913.55216	0.06724
2912.26639	0.06675
2910.98062	0.06639
2909.69486	0.06611
2908.40909	0.06586
2907.12332	0.06565
2905.83755	0.06547
2904.55178	0.06522
2903.26601	0.06481
2901.98024	0.06426
2900.69447	0.06366
2899.40870	0.06310
2898.12294	0.06262
2896.83717	0.06223
2895.55140	0.06189
2894.26563	0.06152
2892.97986	0.06108
2891.69409	0.06058
2890.40832	0.06014
2889.12255	0.05989
2887.83678	0.05993
2886.55102	0.06012
2885.26525	0.06024
2883.97948	0.06015
2882.69371	0.05992
2881.40794	0.05972
2880.12217	0.05965
2878.83640	0.05973
2877.55063	0.05994
2876.26487	0.06015
2874.97910	0.06023
2873.69333	0.06013
2872.40756	0.06005
2871.12179	0.06026
2869.83602	0.06085
2868.55025	0.06152
2867.26448	0.06189
2865.97871	0.06178
2864.69295	0.06137
2863.40718	0.06089
2862.12141	0.06048
2860.83564	0.06012
2859.54987	0.05980
2858.26410	0.05957
2856.97833	0.05941
2855.69256	0.05923
2854.40680	0.05890
2853.12103	0.05840
2851.83526	0.05782
2850.54949	0.05736
2849.26372	0.05714
2847.97795	0.05711
2846.69218	0.05709
2845.40641	0.05690
2844.12064	0.05655
2842.83488	0.05616
2841.54911	0.05579
2840.26334	0.05542
2838.97757	0.05499
2837.69180	0.05447
2836.40603	0.05382
2835.12026	0.05306
2833.83449	0.05226
2832.54873	0.05160
2831.26296	0.05120
2829.97719	0.05108
2828.69142	0.05112
2827.40565	0.05122
2826.11988	0.05127
2824.83411	0.05123
2823.54834	0.05102
2822.26257	0.05064
2820.97681	0.05018
2819.69104	0.04978
2818.40527	0.04951
2817.11950	0.04934
2815.83373	0.04914
2814.54796	0.04887
2813.26219	0.04858
2811.97642	0.04840
2810.69066	0.04837
2809.40489	0.04844
2808.11912	0.04852
2806.83335	0.04851
2805.54758	0.04835
2804.26181	0.04809
2802.97604	0.04786
2801.69027	0.04773
2800.40450	0.04770
2799.11874	0.04768
2797.83297	0.04764
2796.54720	0.04765
2795.26143	0.04773
2793.97566	0.04786
2792.68989	0.04793
2791.40412	0.04778
2790.11835	0.04742
2788.83259	0.04699
2787.54682	0.04669
2786.26105	0.04655
2784.97528	0.04643
2783.68951	0.04622
2782.40374	0.04604
2781.11797	0.04605
2779.83220	0.04624
2778.54643	0.04642
2777.26067	0.04642
2775.97490	0.04621
2774.68913	0.04591
2773.40336	0.04567
2772.11759	0.04560
2770.83182	0.04572
2769.54605	0.04588
2768.26028	0.04592
2766.97452	0.04577
2765.68875	0.04557
2764.40298	0.04551
2763.11721	0.04566
2761.83144	0.04592
2760.54567	0.04604
2759.25990	0.04588
2757.97413	0.04550
2756.68836	0.04511
2755.40260	0.04492
2754.11683	0.04492
2752.83106	0.04494
2751.54529	0.04483
2750.25952	0.04465
2748.97375	0.04457
2747.68798	0.04468
2746.40221	0.04490
2745.11645	0.04506
2743.83068	0.04508
2742.54491	0.04495
2741.25914	0.04474
2739.97337	0.04452
2738.68760	0.04430
2737.40183	0.04413
2736.11606	0.04403
2734.83029	0.04404
2733.54453	0.04406
2732.25876	0.04402
2730.97299	0.04392
2729.68722	0.04387
2728.40145	0.04386
2727.11568	0.04375
2725.82991	0.04342
2724.54414	0.04302
2723.25838	0.04276
2721.97261	0.04272
2720.68684	0.04274
2719.40107	0.04272
2718.11530	0.04265
2716.82953	0.04258
2715.54376	0.04251
2714.25799	0.04241
2712.97222	0.04232
2711.68646	0.04229
2710.40069	0.04232
2709.11492	0.04235
2707.82915	0.04236
2706.54338	0.04237
2705.25761	0.04238
2703.97184	0.04239
2702.68607	0.04240
2701.40031	0.04245
2700.11454	0.04255
2698.82877	0.04262
2697.54300	0.04257
2696.25723	0.04242
2694.97146	0.04223
2693.68569	0.04206
2692.39992	0.04188
2691.11415	0.04165
2689.82839	0.04145
2688.54262	0.04135
2687.25685	0.04141
2685.97108	0.04157
2684.68531	0.04169
2683.39954	0.04167
2682.11377	0.04152
2680.82800	0.04132
2679.54224	0.04115
2678.25647	0.04099
2676.97070	0.04082
2675.68493	0.04070
2674.39916	0.04069
2673.11339	0.04082
2671.82762	0.04098
2670.54185	0.04102
2669.25608	0.04087
2667.97032	0.04065
2666.68455	0.04055
2665.39878	0.04067
2664.11301	0.04089
2662.82724	0.04106
2661.54147	0.04108
2660.25570	0.04103
2658.96993	0.04099
2657.68417	0.04098
2656.39840	0.04091
2655.11263	0.04072
2653.82686	0.04040
2652.54109	0.03999
2651.25532	0.03958
2649.96955	0.03927
2648.68378	0.03913
2647.39801	0.03911
2646.11225	0.03907
2644.82648	0.03894
2643.54071	0.03871
2642.25494	0.03849
2640.96917	0.03836
2639.68340	0.03838
2638.39763	0.03846
2637.11186	0.03843
2635.82609	0.03821
2634.54033	0.03791
2633.25456	0.03765
2631.96879	0.03744
2630.68302	0.03721
2629.39725	0.03693
2628.11148	0.03665
2626.82571	0.03648
2625.53994	0.03640
2624.25418	0.03636
2622.96841	0.03630
2621.68264	0.03626
2620.39687	0.03627
2619.11110	0.03633
2617.82533	0.03636
2616.53956	0.03624
2615.25379	0.03591
2613.96802	0.03538
2612.68226	0.03481
2611.39649	0.03440
2610.11072	0.03422
2608.82495	0.03420
2607.53918	0.03430
2606.25341	0.03454
2604.96764	0.03489
2603.68187	0.03515
2602.39611	0.03513
2601.11034	0.03486
2599.82457	0.03456
2598.53880	0.03436
2597.25303	0.03424
2595.96726	0.03411
2594.68149	0.03402
2593.39572	0.03400
2592.10995	0.03403
2590.82419	0.03404
2589.53842	0.03394
2588.25265	0.03364
2586.96688	0.03314
2585.68111	0.03260
2584.39534	0.03220
2583.10957	0.03195
2581.82380	0.03176
2580.53804	0.03166
2579.25227	0.03183
2577.96650	0.03230
2576.68073	0.03283
2575.39496	0.03308
2574.10919	0.03293
2572.82342	0.03257
2571.53765	0.03226
2570.25188	0.03208
2568.96612	0.03193
2567.68035	0.03177
2566.39458	0.03164
2565.10881	0.03163
2563.82304	0.03174
2562.53727	0.03194
2561.25150	0.03205
2559.96573	0.03191
2558.67997	0.03154
2557.39420	0.03121
2556.10843	0.03113
2554.82266	0.03125
2553.53689	0.03141
2552.25112	0.03148
2550.96535	0.03141
2549.67958	0.03126
2548.39381	0.03114
2547.10805	0.03117
2545.82228	0.03134
2544.53651	0.03156
2543.25074	0.03177
2541.96497	0.03192
2540.67920	0.03203
2539.39343	0.03205
2538.10766	0.03191
2536.82190	0.03157
2535.53613	0.03114
2534.25036	0.03085
2532.96459	0.03080
2531.67882	0.03084
2530.39305	0.03066
2529.10728	0.03010
2527.82151	0.02944
2526.53574	0.02912
2525.24998	0.02939
2523.96421	0.02999
2522.67844	0.03047
2521.39267	0.03055
2520.10690	0.03032
2518.82113	0.03007
2517.53536	0.03006
2516.24959	0.03029
2514.96383	0.03052
2513.67806	0.03059
2512.39229	0.03051
2511.10652	0.03038
2509.82075	0.03023
2508.53498	0.03011
2507.24921	0.03011
2505.96344	0.03021
2504.67767	0.03037
2503.39191	0.03053
2502.10614	0.03061
2500.82037	0.03052
2499.53460	0.03024
2498.24883	0.02990
2496.96306	0.02962
2495.67729	0.02937
2494.39152	0.02911
2493.10576	0.02892
2491.81999	0.02888
2490.53422	0.02896
2489.24845	0.02909
2487.96268	0.02924
2486.67691	0.02937
2485.39114	0.02944
2484.10537	0.02941
2482.81960	0.02930
2481.53384	0.02913
2480.24807	0.02890
2478.96230	0.02868
2477.67653	0.02855
2476.39076	0.02853
2475.10499	0.02850
2473.81922	0.02838
2472.53345	0.02825
2471.24769	0.02821
2469.96192	0.02825
2468.67615	0.02832
2467.39038	0.02846
2466.10461	0.02873
2464.81884	0.02907
2463.53307	0.02932
2462.24730	0.02940
2460.96153	0.02947
2459.67577	0.02976
2458.39000	0.03024
2457.10423	0.03056
2455.81846	0.03041
2454.53269	0.02984
2453.24692	0.02923
2451.96115	0.02886
2450.67538	0.02871
2449.38962	0.02866
2448.10385	0.02865
2446.81808	0.02861
2445.53231	0.02848
2444.24654	0.02834
2442.96077	0.02832
2441.67500	0.02845
2440.38923	0.02854
2439.10346	0.02840
2437.81770	0.02808
2436.53193	0.02778
2435.24616	0.02768
2433.96039	0.02779
2432.67462	0.02804
2431.38885	0.02833
2430.10308	0.02851
2428.81731	0.02844
2427.53155	0.02809
2426.24578	0.02765
2424.96001	0.02732
2423.67424	0.02721
2422.38847	0.02734
2421.10270	0.02763
2419.81693	0.02791
2418.53116	0.02804
2417.24539	0.02801
2415.95963	0.02794
2414.67386	0.02788
2413.38809	0.02778
2412.10232	0.02764
2410.81655	0.02753
2409.53078	0.02750
2408.24501	0.02750
2406.95924	0.02752
2405.67347	0.02758
2404.38771	0.02770
2403.10194	0.02785
2401.81617	0.02797
2400.53040	0.02802
2399.24463	0.02794
2397.95886	0.02787
2396.67309	0.02789
2395.38732	0.02799
2394.10156	0.02805
2392.81579	0.02797
2391.53002	0.02774
2390.24425	0.02745
2388.95848	0.02723
2387.67271	0.02720
2386.38694	0.02734
2385.10117	0.02751
2383.81540	0.02756
2382.52964	0.02749
2381.24387	0.02739
2379.95810	0.02744
2378.67233	0.02746
2377.38656	0.02753
2376.10079	0.02775
2374.81502	0.02794
2373.52925	0.02752
2372.24349	0.02675
2370.95772	0.02622
2369.67195	0.02601
2368.38618	0.02589
2367.10041	0.02564
2365.81464	0.02542
2364.52887	0.02531
2363.24310	0.02531
2361.95733	0.02531
2360.67157	0.02518
2359.38580	0.02513
2358.10003	0.02532
2356.81426	0.02588
2355.52849	0.02681
2354.24272	0.02790
2352.95695	0.02870
2351.67118	0.02867
2350.38542	0.02835
2349.09965	0.02831
2347.81388	0.02828
2346.52811	0.02795
2345.24234	0.02781
2343.95657	0.02819
2342.67080	0.02904
2341.38503	0.02859
2340.09926	0.02725
2338.81350	0.02691
2337.52773	0.02745
2336.24196	0.02709
2334.95619	0.02655
2333.67042	0.02690
2332.38465	0.02786
2331.09888	0.02733
2329.81311	0.02729
2328.52735	0.02787
2327.24158	0.02779
2325.95581	0.02774
2324.67004	0.02804
2323.38427	0.02854
2322.09850	0.02830
2320.81273	0.02798
2319.52696	0.02760
2318.24119	0.02725
2316.95543	0.02702
2315.66966	0.02688
2314.38389	0.02699
2313.09812	0.02713
2311.81235	0.02710
2310.52658	0.02701
2309.24081	0.02675
2307.95504	0.02622
2306.66928	0.02575
2305.38351	0.02558
2304.09774	0.02580
2302.81197	0.02623
2301.52620	0.02655
2300.24043	0.02667
2298.95466	0.02653
2297.66889	0.02622
2296.38312	0.02592
2295.09736	0.02583
2293.81159	0.02605
2292.52582	0.02644
2291.24005	0.02675
2289.95428	0.02674
2288.66851	0.02633
2287.38274	0.02567
2286.09697	0.02507
2284.81121	0.02485
2283.52544	0.02499
2282.23967	0.02523
2280.95390	0.02534
2279.66813	0.02522
2278.38236	0.02495
2277.09659	0.02456
2275.81082	0.02406
2274.52505	0.02359
2273.23929	0.02338
2271.95352	0.02347
2270.66775	0.02367
2269.38198	0.02364
2268.09621	0.02320
2266.81044	0.02244
2265.52467	0.02162
2264.23890	0.02103
2262.95314	0.02088
2261.66737	0.02123
2260.38160	0.02190
2259.09583	0.02248
2257.81006	0.02260
2256.52429	0.02216
2255.23852	0.02137
2253.95275	0.02053
2252.66698	0.01981
2251.38122	0.01928
2250.09545	0.01909
2248.80968	0.01934
2247.52391	0.01983
2246.23814	0.02026
2244.95237	0.02030
2243.66660	0.01992
2242.38083	0.01938
2241.09507	0.01903
2239.80930	0.01900
2238.52353	0.01902
2237.23776	0.01869
2235.95199	0.01791
2234.66622	0.01713
2233.38045	0.01699
2232.09468	0.01761
2230.80891	0.01847
2229.52315	0.01895
2228.23738	0.01908
2226.95161	0.01923
2225.66584	0.01952
2224.38007	0.01957
2223.09430	0.01900
2221.80853	0.01795
2220.52276	0.01706
2219.23700	0.01685
2217.95123	0.01734
2216.66546	0.01801
2215.37969	0.01831
2214.09392	0.01818
2212.80815	0.01792
2211.52238	0.01770
2210.23661	0.01735
2208.95084	0.01678
2207.66508	0.01621
2206.37931	0.01592
2205.09354	0.01591
2203.80777	0.01573
2202.52200	0.01500
2201.23623	0.01375
2199.95046	0.01252
2198.66469	0.01203
2197.37893	0.01257
2196.09316	0.01374
2194.80739	0.01477
2193.52162	0.01523
2192.23585	0.01522
2190.95008	0.01500
2189.66431	0.01465
2188.37854	0.01423
2187.09277	0.01397
2185.80701	0.01405
2184.52124	0.01426
2183.23547	0.01411
2181.94970	0.01343
2180.66393	0.01263
2179.37816	0.01225
2178.09239	0.01231
2176.80662	0.01247
2175.52085	0.01245
2174.23509	0.01232
2172.94932	0.01221
2171.66355	0.01205
2170.37778	0.01174
2169.09201	0.01125
2167.80624	0.01065
2166.52047	0.01011
2165.23470	0.00989
2163.94894	0.00995
2162.66317	0.00966
2161.37740	0.00835
2160.09163	0.00610
2158.80586	0.00398
2157.52009	0.00318
2156.23432	0.00400
2154.94855	0.00575
2153.66278	0.00751
2152.37702	0.00869
2151.09125	0.00921
2149.80548	0.00931
2148.51971	0.00930
2147.23394	0.00939
2145.94817	0.00961
2144.66240	0.00984
2143.37663	0.01001
2142.09087	0.01020
2140.80510	0.01048
2139.51933	0.01081
2138.23356	0.01112
2136.94779	0.01139
2135.66202	0.01160
2134.37625	0.01173
2133.09048	0.01181
2131.80471	0.01196
2130.51895	0.01221
2129.23318	0.01248
2127.94741	0.01269
2126.66164	0.01288
2125.37587	0.01316
2124.09010	0.01356
2122.80433	0.01393
2121.51856	0.01413
2120.23280	0.01418
2118.94703	0.01425
2117.66126	0.01447
2116.37549	0.01477
2115.08972	0.01499
2113.80395	0.01497
2112.51818	0.01474
2111.23241	0.01452
2109.94664	0.01450
2108.66088	0.01467
2107.37511	0.01486
2106.08934	0.01498
2104.80357	0.01504
2103.51780	0.01501
2102.23203	0.01472
2100.94626	0.01422
2099.66049	0.01605
2098.37473	0.01676
2097.08896	0.01649
2095.80319	0.01601
2094.51742	0.01538
2093.23165	0.01460
2091.94588	0.01392
2090.66011	0.01353
2089.37434	0.01340
2088.08857	0.01340
2086.80281	0.01347
2085.51704	0.01363
2084.23127	0.01385
2082.94550	0.01404
2081.65973	0.01408
2080.37396	0.01402
2079.08819	0.01398
2077.80242	0.01402
2076.51666	0.01414
2075.23089	0.01433
2073.94512	0.01466
2072.65935	0.01517
2071.37358	0.01577
2070.08781	0.01617
2068.80204	0.01612
2067.51627	0.01557
2066.23050	0.01462
2064.94474	0.01342
2063.65897	0.01218
2062.37320	0.01120
2061.08743	0.01067
2059.80166	0.01053
2058.51589	0.01050
2057.23012	0.01033
2055.94435	0.01005
2054.65859	0.00999
2053.37282	0.01060
2052.08705	0.01191
2050.80128	0.01344
2049.51551	0.01448
2048.22974	0.01460
2046.94397	0.01391
2045.65820	0.01270
2044.37243	0.01131
2043.08667	0.00991
2041.80090	0.00859
2040.51513	0.00748
2039.22936	0.00682
2037.94359	0.00690
2036.65782	0.00773
2035.37205	0.00890
2034.08628	0.00980
2032.80052	0.00992
2031.51475	0.00926
2030.22898	0.00834
2028.94321	0.00779
2027.65744	0.00790
2026.37167	0.00847
2025.08590	0.00902
2023.80013	0.00914
2022.51436	0.00872
2021.22860	0.00806
2019.94283	0.00767
2018.65706	0.00788
2017.37129	0.00853
2016.08552	0.00914
2014.79975	0.00937
2013.51398	0.00937
2012.22821	0.00958
2010.94245	0.01026
2009.65668	0.01122
2008.37091	0.01199
2007.08514	0.01214
2005.79937	0.01164
2004.51360	0.01085
2003.22783	0.01026
2001.94206	0.01005
2000.65629	0.01011
1999.37053	0.01019
1998.08476	0.01018
1996.79899	0.01007
1995.51322	0.00986
1994.22745	0.00951
1992.94168	0.00904
1991.65591	0.00863
1990.37014	0.00860
1989.08438	0.00906
1987.79861	0.00977
1986.51284	0.01038
1985.22707	0.01091
1983.94130	0.01185
1982.65553	0.01367
1981.36976	0.01630
1980.08399	0.01903
1978.79822	0.02094
1977.51246	0.02141
1976.22669	0.02043
1974.94092	0.01859
1973.65515	0.01668
1972.36938	0.01529
1971.08361	0.01459
1969.79784	0.01435
1968.51207	0.01421
1967.22631	0.01399
1965.94054	0.01368
1964.65477	0.01338
1963.36900	0.01317
1962.08323	0.01323
1960.79746	0.01367
1959.51169	0.01433
1958.22592	0.01480
1956.94015	0.01480
1955.65439	0.01443
1954.36862	0.01400
1953.08285	0.01366
1951.79708	0.01342
1950.51131	0.01329
1949.22554	0.01336
1947.93977	0.01369
1946.65400	0.01424
1945.36823	0.01487
1944.08247	0.01548
1942.79670	0.01597
1941.51093	0.01628
1940.22516	0.01631
1938.93939	0.01596
1937.65362	0.01542
1936.36785	0.01510
1935.08208	0.01536
1933.79632	0.01615
1932.51055	0.01699
1931.22478	0.01742
1929.93901	0.01727
1928.65324	0.01674
1927.36747	0.01613
1926.08170	0.01566
1924.79593	0.01539
1923.51016	0.01536
1922.22440	0.01559
1920.93863	0.01598
1919.65286	0.01635
1918.36709	0.01661
1917.08132	0.01681
1915.79555	0.01697
1914.50978	0.01708
1913.22401	0.01712
1911.93825	0.01713
1910.65248	0.01713
1909.36671	0.01712
1908.08094	0.01704
1906.79517	0.01686
1905.50940	0.01660
1904.22363	0.01643
1902.93786	0.01646
1901.65209	0.01673
1900.36633	0.01713
1899.08056	0.01744
1897.79479	0.01753
1896.50902	0.01743
1895.22325	0.01733
1893.93748	0.01734
1892.65171	0.01740
1891.36594	0.01736
1890.08018	0.01721
1888.79441	0.01703
1887.50864	0.01688
1886.22287	0.01680
1884.93710	0.01683
1883.65133	0.01695
1882.36556	0.01710
1881.07979	0.01720
1879.79402	0.01720
1878.50826	0.01710
1877.22249	0.01694
1875.93672	0.01678
1874.65095	0.01667
1873.36518	0.01661
1872.07941	0.01658
1870.79364	0.01658
1869.50787	0.01666
1868.22211	0.01682
1866.93634	0.01694
1865.65057	0.01695
1864.36480	0.01694
1863.07903	0.01699
1861.79326	0.01709
1860.50749	0.01718
1859.22172	0.01720
1857.93595	0.01716
1856.65019	0.01706
1855.36442	0.01693
1854.07865	0.01681
1852.79288	0.01677
1851.50711	0.01685
1850.22134	0.01702
1848.93557	0.01722
1847.64980	0.01737
1846.36404	0.01739
1845.07827	0.01733
1843.79250	0.01736
1842.50673	0.01748
1841.22096	0.01751
1839.93519	0.01733
1838.64942	0.01702
1837.36365	0.01670
1836.07788	0.01643
1834.79212	0.01632
1833.50635	0.01645
1832.22058	0.01674
1830.93481	0.01706
1829.64904	0.01734
1828.36327	0.01757
1827.07750	0.01773
1825.79173	0.01787
1824.50597	0.01808
1823.22020	0.01837
1821.93443	0.01864
1820.64866	0.01878
1819.36289	0.01869
1818.07712	0.01829
1816.79135	0.01769
1815.50558	0.01712
1814.21981	0.01677
1812.93405	0.01666
1811.64828	0.01674
1810.36251	0.01689
1809.07674	0.01703
1807.79097	0.01709
1806.50520	0.01708
1805.21943	0.01704
1803.93366	0.01702
1802.64790	0.01703
1801.36213	0.01713
1800.07636	0.01735
1798.79059	0.01766
1797.50482	0.01800
1796.21905	0.01830
1794.93328	0.01843
1793.64751	0.01837
1792.36174	0.01829
1791.07598	0.01833
1789.79021	0.01843
1788.50444	0.01841
1787.21867	0.01826
1785.93290	0.01810
1784.64713	0.01807
1783.36136	0.01820
1782.07559	0.01840
1780.78983	0.01852
1779.50406	0.01852
1778.21829	0.01843
1776.93252	0.01829
1775.64675	0.01811
1774.36098	0.01788
1773.07521	0.01771
1771.78944	0.01781
1770.50367	0.01806
1769.21791	0.01820
1767.93214	0.01823
1766.64637	0.01831
1765.36060	0.01843
1764.07483	0.01848
1762.78906	0.01845
1761.50329	0.01848
1760.21752	0.01857
1758.93176	0.01858
1757.64599	0.01850
1756.36022	0.01848
1755.07445	0.01861
1753.78868	0.01870
1752.50291	0.01870
1751.21714	0.01872
1749.93137	0.01886
1748.64560	0.01895
1747.35984	0.01890
1746.07407	0.01878
1744.78830	0.01875
1743.50253	0.01883
1742.21676	0.01892
1740.93099	0.01892
1739.64522	0.01893
1738.35945	0.01910
1737.07369	0.01931
1735.78792	0.01934
1734.50215	0.01938
1733.21638	0.01966
1731.93061	0.02003
1730.64484	0.02013
1729.35907	0.01995
1728.07330	0.01973
1726.78753	0.01962
1725.50177	0.01960
1724.21600	0.01973
1722.93023	0.02006
1721.64446	0.02053
1720.35869	0.02091
1719.07292	0.02110
1717.78715	0.02126
1716.50138	0.02153
1715.21561	0.02182
1713.92985	0.02200
1712.64408	0.02212
1711.35831	0.02233
1710.07254	0.02266
1708.78677	0.02309
1707.50100	0.02352
1706.21523	0.02401
1704.92946	0.02470
1703.64370	0.02548
1702.35793	0.02600
1701.07216	0.02634
1699.78639	0.02694
1698.50062	0.02768
1697.21485	0.02810
1695.92908	0.02830
1694.64331	0.02875
1693.35754	0.02940
1692.07178	0.02989
1690.78601	0.03032
1689.50024	0.03099
1688.21447	0.03186
1686.92870	0.03259
1685.64293	0.03305
1684.35716	0.03358
1683.07139	0.03439
1681.78563	0.03518
1680.49986	0.03577
1679.21409	0.03634
1677.92832	0.03698
1676.64255	0.03759
1675.35678	0.03823
1674.07101	0.03898
1672.78524	0.03973
1671.49947	0.04029
1670.21371	0.04075
1668.92794	0.04128
1667.64217	0.04193
1666.35640	0.04258
1665.07063	0.04311
1663.78486	0.04358
1662.49909	0.04407
1661.21332	0.04458
1659.92756	0.04504
1658.64179	0.04551
1657.35602	0.04609
1656.07025	0.04661
1654.78448	0.04680
1653.49871	0.04690
1652.21294	0.04735
1650.92717	0.04796
1649.64140	0.04816
1648.35564	0.04791
1647.06987	0.04768
1645.78410	0.04775
1644.49833	0.04798
1643.21256	0.04808
1641.92679	0.04799
1640.64102	0.04790
1639.35525	0.04791
1638.06949	0.04789
1636.78372	0.04775
1635.49795	0.04761
1634.21218	0.04756
1632.92641	0.04745
1631.64064	0.04715
1630.35487	0.04679
1629.06910	0.04653
1627.78333	0.04638
1626.49757	0.04626
1625.21180	0.04602
1623.92603	0.04570
1622.64026	0.04547
1621.35449	0.04539
1620.06872	0.04530
1618.78295	0.04501
1617.49718	0.04467
1616.21142	0.04456
1614.92565	0.04469
1613.63988	0.04477
1612.35411	0.04469
1611.06834	0.04459
1609.78257	0.04459
1608.49680	0.04463
1607.21103	0.04465
1605.92526	0.04466
1604.63950	0.04471
1603.35373	0.04487
1602.06796	0.04510
1600.78219	0.04533
1599.49642	0.04549
1598.21065	0.04560
1596.92488	0.04570
1595.63911	0.04582
1594.35335	0.04597
1593.06758	0.04613
1591.78181	0.04632
1590.49604	0.04653
1589.21027	0.04674
1587.92450	0.04692
1586.63873	0.04704
1585.35296	0.04713
1584.06719	0.04723
1582.78143	0.04737
1581.49566	0.04762
1580.20989	0.04796
1578.92412	0.04827
1577.63835	0.04841
1576.35258	0.04859
1575.06681	0.04906
1573.78104	0.04965
1572.49528	0.05001
1571.20951	0.05011
1569.92374	0.05022
1568.63797	0.05052
1567.35220	0.05086
1566.06643	0.05111
1564.78066	0.05140
1563.49489	0.05183
1562.20912	0.05224
1560.92336	0.05243
1559.63759	0.05253
1558.35182	0.05285
1557.06605	0.05324
1555.78028	0.05335
1554.49451	0.05322
1553.20874	0.05317
1551.92297	0.05327
1550.63721	0.05340
1549.35144	0.05355
1548.06567	0.05373
1546.77990	0.05385
1545.49413	0.05388
1544.20836	0.05388
1542.92259	0.05380
1541.63682	0.05352
1540.35105	0.05314
1539.06529	0.05297
1537.77952	0.05307
1536.49375	0.05313
1535.20798	0.05296
1533.92221	0.05276
1532.63644	0.05278
1531.35067	0.05300
1530.06490	0.05324
1528.77914	0.05349
1527.49337	0.05380
1526.20760	0.05424
1524.92183	0.05480
1523.63606	0.05537
1522.35029	0.05592
1521.06452	0.05665
1519.77875	0.05758
1518.49298	0.05847
1517.20722	0.05927
1515.92145	0.06012
1514.63568	0.06110
1513.34991	0.06211
1512.06414	0.06320
1510.77837	0.06443
1509.49260	0.06569
1508.20683	0.06685
1506.92107	0.06801
1505.63530	0.06935
1504.34953	0.07076
1503.06376	0.07190
1501.77799	0.07277
1500.49222	0.07359
1499.20645	0.07445
1497.92068	0.07528
1496.63491	0.07605
1495.34915	0.07682
1494.06338	0.07756
1492.77761	0.07814
1491.49184	0.07864
1490.20607	0.07925
1488.92030	0.08005
1487.63453	0.08097
1486.34876	0.08195
1485.06299	0.08297
1483.77723	0.08402
1482.49146	0.08513
1481.20569	0.08633
1479.91992	0.08763
1478.63415	0.08893
1477.34838	0.09017
1476.06261	0.09133
1474.77684	0.09240
1473.49108	0.09338
1472.20531	0.09437
1470.91954	0.09536
1469.63377	0.09620
1468.34800	0.09677
1467.06223	0.09715
1465.77646	0.09747
1464.49069	0.09791
1463.20492	0.09853
1461.91916	0.09931
1460.63339	0.10016
1459.34762	0.10094
1458.06185	0.10166
1456.77608	0.10248
1455.49031	0.10344
1454.20454	0.10424
1452.91877	0.10469
1451.63301	0.10489
1450.34724	0.10502
1449.06147	0.10508
1447.77570	0.10504
1446.48993	0.10486
1445.20416	0.10452
1443.91839	0.10403
1442.63262	0.10348
1441.34685	0.10298
1440.06109	0.10252
1438.77532	0.10204
1437.48955	0.10164
1436.20378	0.10154
1434.91801	0.10176
1433.63224	0.10215
1432.34647	0.10264
1431.06070	0.10336
1429.77494	0.10441
1428.48917	0.10573
1427.20340	0.10723
1425.91763	0.10883
1424.63186	0.11051
1423.34609	0.11225
1422.06032	0.11388
1420.77455	0.11529
1419.48878	0.11656
1418.20302	0.11780
1416.91725	0.11886
1415.63148	0.11957
1414.34571	0.11995
1413.05994	0.12010
1411.77417	0.12008
1410.48840	0.11987
1409.20263	0.11942
1407.91687	0.11868
1406.63110	0.11763
1405.34533	0.11633
1404.05956	0.11485
1402.77379	0.11321
1401.48802	0.11136
1400.20225	0.10933
1398.91648	0.10719
1397.63071	0.10499
1396.34495	0.10264
1395.05918	0.10017
1393.77341	0.09769
1392.48764	0.09531
1391.20187	0.09300
1389.91610	0.09072
1388.63033	0.08844
1387.34456	0.08620
1386.05880	0.08401
1384.77303	0.08181
1383.48726	0.07957
1382.20149	0.07736
1380.91572	0.07523
1379.62995	0.07318
1378.34418	0.07113
1377.05841	0.06904
1375.77264	0.06687
1374.48688	0.06467
1373.20111	0.06250
1371.91534	0.06040
1370.62957	0.05836
1369.34380	0.05640
1368.05803	0.05462
1366.77226	0.05301
1365.48649	0.05151
1364.20073	0.05006
1362.91496	0.04866
1361.62919	0.04737
1360.34342	0.04618
1359.05765	0.04507
1357.77188	0.04403
1356.48611	0.04310
1355.20034	0.04227
1353.91457	0.04150
1352.62881	0.04073
1351.34304	0.03997
1350.05727	0.03924
1348.77150	0.03855
1347.48573	0.03790
1346.19996	0.03727
1344.91419	0.03667
1343.62842	0.03611
1342.34266	0.03559
1341.05689	0.03512
1339.77112	0.03473
1338.48535	0.03439
1337.19958	0.03408
1335.91381	0.03373
1334.62804	0.03337
1333.34227	0.03300
1332.05650	0.03263
1330.77074	0.03225
1329.48497	0.03186
1328.19920	0.03147
1326.91343	0.03109
1325.62766	0.03075
1324.34189	0.03043
1323.05612	0.03014
1321.77035	0.02984
1320.48459	0.02955
1319.19882	0.02927
1317.91305	0.02902
1316.62728	0.02880
1315.34151	0.02857
1314.05574	0.02835
1312.76997	0.02813
1311.48420	0.02792
1310.19843	0.02772
1308.91267	0.02754
1307.62690	0.02738
1306.34113	0.02723
1305.05536	0.02709
1303.76959	0.02695
1302.48382	0.02678
1301.19805	0.02657
1299.91228	0.02634
1298.62652	0.02612
1297.34075	0.02594
1296.05498	0.02580
1294.76921	0.02568
1293.48344	0.02555
1292.19767	0.02539
1290.91190	0.02520
1289.62613	0.02501
1288.34036	0.02486
1287.05460	0.02477
1285.76883	0.02471
1284.48306	0.02464
1283.19729	0.02455
1281.91152	0.02443
1280.62575	0.02426
1279.33998	0.02407
1278.05421	0.02390
1276.76845	0.02376
1275.48268	0.02361
1274.19691	0.02347
1272.91114	0.02336
1271.62537	0.02328
1270.33960	0.02323
1269.05383	0.02317
1267.76806	0.02310
1266.48229	0.02302
1265.19653	0.02297
1263.91076	0.02293
1262.62499	0.02289
1261.33922	0.02283
1260.05345	0.02274
1258.76768	0.02264
1257.48191	0.02255
1256.19614	0.02249
1254.91037	0.02247
1253.62461	0.02249
1252.33884	0.02252
1251.05307	0.02254
1249.76730	0.02251
1248.48153	0.02244
1247.19576	0.02234
1245.90999	0.02223
1244.62422	0.02212
1243.33846	0.02199
1242.05269	0.02188
1240.76692	0.02181
1239.48115	0.02177
1238.19538	0.02174
1236.90961	0.02169
1235.62384	0.02160
1234.33807	0.02149
1233.05230	0.02138
1231.76654	0.02128
1230.48077	0.02116
1229.19500	0.02102
1227.90923	0.02087
1226.62346	0.02074
1225.33769	0.02062
1224.05192	0.02048
1222.76615	0.02032
1221.48039	0.02016
1220.19462	0.02002
1218.90885	0.01990
1217.62308	0.01978
1216.33731	0.01965
1215.05154	0.01955
1213.76577	0.01950
1212.48000	0.01951
1211.19423	0.01955
1209.90847	0.01958
1208.62270	0.01961
1207.33693	0.01965
1206.05116	0.01969
1204.76539	0.01975
1203.47962	0.01985
1202.19385	0.01997
1200.90808	0.01992
1199.62232	0.01962
1198.33655	0.01960
1197.05078	0.01952
1195.76501	0.01937
1194.47924	0.01922
1193.19347	0.01909
1191.90770	0.01902
1190.62193	0.01900
1189.33616	0.01902
1188.05040	0.01906
1186.76463	0.01906
1185.47886	0.01902
1184.19309	0.01894
1182.90732	0.01890
1181.62155	0.01892
1180.33578	0.01900
1179.05001	0.01912
1177.76425	0.01922
1176.47848	0.01928
1175.19271	0.01932
1173.90694	0.01936
1172.62117	0.01946
1171.33540	0.01962
1170.04963	0.01984
1168.76386	0.02004
1167.47809	0.02022
1166.19233	0.02039
1164.90656	0.02057
1163.62079	0.02077
1162.33502	0.02097
1161.04925	0.02117
1159.76348	0.02143
1158.47771	0.02176
1157.19194	0.02215
1155.90618	0.02252
1154.62041	0.02284
1153.33464	0.02315
1152.04887	0.02351
1150.76310	0.02399
1149.47733	0.02456
1148.19156	0.02517
1146.90579	0.02580
1145.62002	0.02645
1144.33426	0.02716
1143.04849	0.02795
1141.76272	0.02879
1140.47695	0.02971
1139.19118	0.03073
1137.90541	0.03192
1136.61964	0.03329
1135.33387	0.03488
1134.04811	0.03665
1132.76234	0.03858
1131.47657	0.04067
1130.19080	0.04293
1128.90503	0.04539
1127.61926	0.04804
1126.33349	0.05090
1125.04772	0.05397
1123.76195	0.05724
1122.47619	0.06069
1121.19042	0.06427
1119.90465	0.06794
1118.61888	0.07170
1117.33311	0.07554
1116.04734	0.07947
1114.76157	0.08347
1113.47580	0.08746
1112.19004	0.09135
1110.90427	0.09514
1109.61850	0.09883
1108.33273	0.10248
1107.04696	0.10611
1105.76119	0.10972
1104.47542	0.11328
1103.18965	0.11676
1101.90388	0.12014
1100.61812	0.12342
1099.33235	0.12655
1098.04658	0.12957
1096.76081	0.13249
1095.47504	0.13534
1094.18927	0.13813
1092.90350	0.14082
1091.61773	0.14338
1090.33197	0.14578
1089.04620	0.14801
1087.76043	0.15008
1086.47466	0.15209
1085.18889	0.15415
1083.90312	0.15633
1082.61735	0.15863
1081.33158	0.16105
1080.04581	0.16364
1078.76005	0.16648
1077.47428	0.16958
1076.18851	0.17287
1074.90274	0.17627
1073.61697	0.17975
1072.33120	0.18330
1071.04543	0.18691
1069.75966	0.19061
1068.47390	0.19446
1067.18813	0.19854
1065.90236	0.20287
1064.61659	0.20736
1063.33082	0.21186
1062.04505	0.21629
1060.75928	0.22060
1059.47351	0.22483
1058.18774	0.22899
1056.90198	0.23313
1055.61621	0.23729
1054.33044	0.24148
1053.04467	0.24570
1051.75890	0.24994
1050.47313	0.25422
1049.18736	0.25861
1047.90159	0.26317
1046.61583	0.26788
1045.33006	0.27268
1044.04429	0.27749
1042.75852	0.28235
1041.47275	0.28733
1040.18698	0.29247
1038.90121	0.29775
1037.61544	0.30309
1036.32967	0.30842
1035.04391	0.31365
1033.75814	0.31870
1032.47237	0.32348
1031.18660	0.32792
1029.90083	0.33202
1028.61506	0.33577
1027.32929	0.33914
1026.04352	0.34203
1024.75775	0.34442
1023.47199	0.34634
1022.18622	0.34786
1020.90045	0.34894
1019.61468	0.34941
1018.32891	0.34917
1017.04314	0.34818
1015.75737	0.34646
1014.47160	0.34400
1013.18584	0.34078
1011.90007	0.33679
1010.61430	0.33208
1009.32853	0.32667
1008.04276	0.32063
1006.75699	0.31398
1005.47122	0.30675
1004.18545	0.29896
1002.89968	0.29065
1001.61392	0.28191
1000.32815	0.27282
999.04238	0.26347
997.75661	0.25399
996.47084	0.24450
995.18507	0.23508
993.89930	0.22574
992.61353	0.21650
991.32777	0.20743
990.04200	0.19860
988.75623	0.19011
987.47046	0.18198
986.18469	0.17424
984.89892	0.16692
983.61315	0.16002
982.32738	0.15355
981.04161	0.14746
979.75585	0.14170
978.47008	0.13635
977.18431	0.13152
975.89854	0.12725
974.61277	0.12357
973.32700	0.12050
972.04123	0.11810
970.75546	0.11638
969.46970	0.11536
968.18393	0.11508
966.89816	0.11556
965.61239	0.11666
964.32662	0.11808
963.04085	0.11942
961.75508	0.12035
960.46931	0.12059
959.18354	0.11994
957.89778	0.11833
956.61201	0.11592
955.32624	0.11295
954.04047	0.10968
952.75470	0.10631
951.46893	0.10300
950.18316	0.09982
948.89739	0.09680
947.61163	0.09391
946.32586	0.09111
945.04009	0.08840
943.75432	0.08575
942.46855	0.08315
941.18278	0.08061
939.89701	0.07817
938.61124	0.07591
937.32547	0.07389
936.03971	0.07208
934.75394	0.07044
933.46817	0.06895
932.18240	0.06757
930.89663	0.06624
929.61086	0.06491
928.32509	0.06364
927.03932	0.06250
925.75356	0.06150
924.46779	0.06060
923.18202	0.05975
921.89625	0.05895
920.61048	0.05817
919.32471	0.05737
918.03894	0.05657
916.75317	0.05579
915.46740	0.05506
914.18164	0.05441
912.89587	0.05387
911.61010	0.05341
910.32433	0.05294
909.03856	0.05238
907.75279	0.05171
906.46702	0.05102
905.18125	0.05043
903.89549	0.05000
902.60972	0.04972
901.32395	0.04948
900.03818	0.04920
898.75241	0.04889
897.46664	0.04857
896.18087	0.04827
894.89510	0.04802
893.60933	0.04782
892.32357	0.04770
891.03780	0.04768
889.75203	0.04779
888.46626	0.04810
887.18049	0.04873
885.89472	0.04991
884.60895	0.05192
883.32318	0.05485
882.03742	0.05842
880.75165	0.06196
879.46588	0.06477
878.18011	0.06667
876.89434	0.06805
875.60857	0.06948
874.32280	0.07115
873.03703	0.07270
871.75126	0.07360
870.46550	0.07354
869.17973	0.07251
867.89396	0.07069
866.60819	0.06829
865.32242	0.06554
864.03665	0.06270
862.75088	0.05998
861.46511	0.05753
860.17935	0.05540
858.89358	0.05360
857.60781	0.05209
856.32204	0.05082
855.03627	0.04971
853.75050	0.04871
852.46473	0.04780
851.17896	0.04702
849.89319	0.04637
848.60743	0.04583
847.32166	0.04534
846.03589	0.04483
844.75012	0.04432
843.46435	0.04386
842.17858	0.04350
840.89281	0.04322
839.60704	0.04296
838.32128	0.04266
837.03551	0.04230
835.74974	0.04192
834.46397	0.04161
833.17820	0.04141
831.89243	0.04128
830.60666	0.04112
829.32089	0.04088
828.03512	0.04062
826.74936	0.04040
825.46359	0.04024
824.17782	0.04012
822.89205	0.04004
821.60628	0.04001
820.32051	0.03997
819.03474	0.03984
817.74897	0.03962
816.46321	0.03944
815.17744	0.03939
813.89167	0.03947
812.60590	0.03956
811.32013	0.03956
810.03436	0.03946
808.74859	0.03932
807.46282	0.03922
806.17705	0.03917
804.89129	0.03915
803.60552	0.03910
802.31975	0.03899
801.03398	0.03885
799.74821	0.03871
798.46244	0.03861
797.17667	0.03855
795.89090	0.03850
794.60513	0.03841
793.31937	0.03826
792.03360	0.03809
790.74783	0.03800
789.46206	0.03803
788.17629	0.03811
786.89052	0.03809
785.60475	0.03793
784.31898	0.03773
783.03322	0.03761
781.74745	0.03761
780.46168	0.03768
779.17591	0.03778
777.89014	0.03785
776.60437	0.03786
775.31860	0.03783
774.03283	0.03778
772.74706	0.03773
771.46130	0.03768
770.17553	0.03764
768.88976	0.03764
767.60399	0.03768
766.31822	0.03773
765.03245	0.03779
763.74668	0.03784
762.46091	0.03788
761.17515	0.03792
759.88938	0.03797
758.60361	0.03804
757.31784	0.03807
756.03207	0.03806
754.74630	0.03804
753.46053	0.03806
752.17476	0.03813
750.88899	0.03822
749.60323	0.03828
748.31746	0.03824
747.03169	0.03812
745.74592	0.03797
744.46015	0.03779
743.17438	0.03757
741.88861	0.03729
740.60284	0.03700
739.31708	0.03681
738.03131	0.03676
736.74554	0.03689
735.45977	0.03713
734.17400	0.03736
732.88823	0.03742
731.60246	0.03728
730.31669	0.03706
729.03092	0.03687
727.74516	0.03677
726.45939	0.03675
725.17362	0.03683
723.88785	0.03693
722.60208	0.03705
721.31631	0.03712
720.03054	0.03711
718.74477	0.03708
717.45901	0.03709
716.17324	0.03714
714.88747	0.03722
713.60170	0.03731
712.31593	0.03739
711.03016	0.03742
709.74439	0.03741
708.45862	0.03738
707.17285	0.03733
705.88709	0.03727
704.60132	0.03719
703.31555	0.03710
702.02978	0.03705
700.74401	0.03705
699.45824	0.03709
698.17247	0.03715
696.88670	0.03718
695.60094	0.03717
694.31517	0.03713
693.02940	0.03708
691.74363	0.03707
690.45786	0.03712
689.17209	0.03717
687.88632	0.03717
686.60055	0.03711
685.31478	0.03696
684.02902	0.03676
682.74325	0.03653
681.45748	0.03636
680.17171	0.03628
678.88594	0.03628
677.60017	0.03631
676.31440	0.03631
675.02863	0.03633
673.74287	0.03641
672.45710	0.03655
671.17133	0.03671
669.88556	0.03683
668.59979	0.03693
667.31402	0.03702
666.02825	0.03702
664.74248	0.03688
663.45671	0.03659
662.17095	0.03626
660.88518	0.03604
659.59941	0.03598
658.31364	0.03601
657.02787	0.03604
655.74210	0.03604
654.45633	0.03602
653.17056	0.03597
651.88480	0.03591
650.59903	0.03585
649.31326	0.03581
648.02749	0.03580
646.74172	0.03580
645.45595	0.03581
644.17018	0.03584
642.88441	0.03592
641.59864	0.03604
640.31288	0.03621
639.02711	0.03641
637.74134	0.03660
636.45557	0.03682
635.16980	0.03711
633.88403	0.03744
632.59826	0.03774
631.31249	0.03830
630.02673	0.04060
628.74096	0.04401
627.45519	0.04298
626.16942	0.04732
624.88365	0.05555
623.59788	0.06396
622.31211	0.07079
621.02634	0.07499
619.74057	0.07632
618.45481	0.07556
617.16904	0.07398
615.88327	0.07278
614.59750	0.07315
613.31173	0.07620
612.02596	0.08240
610.74019	0.09108
609.45442	0.10071
608.16866	0.10985
606.88289	0.11769
605.59712	0.12385
604.31135	0.12799
603.02558	0.12973
601.73981	0.12896
600.45404	0.12619
599.16827	0.12232
597.88250	0.11817
596.59674	0.11415
595.31097	0.11033
594.02520	0.10674
592.73943	0.10362
591.45366	0.10125
590.16789	0.09978
588.88212	0.09921
587.59635	0.09941
586.31059	0.10028
585.02482	0.10173
583.73905	0.10374
582.45328	0.10632
581.16751	0.10946
579.88174	0.11304
578.59597	0.11683
577.31020	0.12062
576.02443	0.12430
574.73867	0.12795
573.45290	0.13167
572.16713	0.13557
570.88136	0.13966
569.59559	0.14397
568.30982	0.14856
567.02405	0.15345
565.73828	0.15846
564.45251	0.16311
563.16675	0.16663
561.88098	0.16825
560.59521	0.16749
559.30944	0.16435
558.02367	0.15916
556.73790	0.15246
555.45213	0.14484
554.16636	0.13689
552.88060	0.12906
551.59483	0.12157
550.30906	0.11455
549.02329	0.10808
547.73752	0.10227
546.45175	0.09715
545.16598	0.09260
543.88021	0.08842
542.59444	0.08451
541.30868	0.08087
540.02291	0.07760
538.73714	0.07473
537.45137	0.07215
536.16560	0.06974
534.87983	0.06748
533.59406	0.06538
532.30829	0.06345
531.02253	0.06165
529.73676	0.05992
528.45099	0.05827
527.16522	0.05673
525.87945	0.05533
524.59368	0.05412
523.30791	0.05303
522.02214	0.05196
520.73637	0.05083
519.45061	0.04963
518.16484	0.04844
516.87907	0.04734
515.59330	0.04633
514.30753	0.04538
513.02176	0.04451
511.73599	0.04374
510.45022	0.04309
509.16446	0.04252
507.87869	0.04198
506.59292	0.04138
505.30715	0.04067
504.02138	0.03990
502.73561	0.03917
501.44984	0.03853
500.16407	0.03791
498.87830	0.03729
497.59254	0.03674
496.30677	0.03630
495.02100	0.03596
493.73523	0.03568
492.44946	0.03547
491.16369	0.03536
489.87792	0.03536
488.59215	0.03535
487.30639	0.03525
486.02062	0.03504
484.73485	0.03480
483.44908	0.03463
482.16331	0.03453
480.87754	0.03444
479.59177	0.03434
478.30600	0.03428
477.02023	0.03437
475.73447	0.03466
474.44870	0.03510
473.16293	0.03555
471.87716	0.03590
470.59139	0.03606
469.30562	0.03603
468.01985	0.03587
466.73408	0.03561
465.44832	0.03530
464.16255	0.03492
462.87678	0.03445
461.59101	0.03387
460.30524	0.03320
459.01947	0.03255
457.73370	0.03204
456.44793	0.03169
455.16216	0.03141
453.87640	0.03111
452.59063	0.03078
451.30486	0.03047
450.01909	0.03018
448.73332	0.02991
447.44755	0.02965
446.16178	0.02940
444.87601	0.02913
443.59025	0.02885
442.30448	0.02859
441.01871	0.02835
439.73294	0.02811
438.44717	0.02788
437.16140	0.02771
435.87563	0.02763
434.58986	0.02762
433.30409	0.02763
432.01833	0.02762
430.73256	0.02761
429.44679	0.02758
428.16102	0.02748
426.87525	0.02727
425.58948	0.02699
424.30371	0.02671
423.01794	0.02650
421.73218	0.02633
420.44641	0.02616
419.16064	0.02599
417.87487	0.02586
416.58910	0.02572
415.30333	0.02555
414.01756	0.02537
412.73179	0.02524
411.44602	0.02520
410.16026	0.02525
408.87449	0.02535
407.58872	0.02544
406.30295	0.02550
405.01718	0.02553
403.73141	0.02555
402.44564	0.02556
401.15987	0.02556
399.87411	0.02557
