3997.45528	0.04194
3996.16951	0.04138
3994.88374	0.04085
3993.59798	0.04036
3992.31221	0.04016
3991.02644	0.04053
3989.74067	0.04154
3988.45490	0.04278
3987.16913	0.04359
3985.88336	0.04345
3984.59759	0.04236
3983.31183	0.04085
3982.02606	0.03971
3980.74029	0.03945
3979.45452	0.04007
3978.16875	0.04106
3976.88298	0.04193
3975.59721	0.04255
3974.31144	0.04302
3973.02567	0.04340
3971.73991	0.04361
3970.45414	0.04365
3969.16837	0.04361
3967.88260	0.04353
3966.59683	0.04336
3965.31106	0.04300
3964.02529	0.04247
3962.73952	0.04188
3961.45376	0.04128
3960.16799	0.04062
3958.88222	0.03992
3957.59645	0.03933
3956.31068	0.03913
3955.02491	0.03945
3953.73914	0.04020
3952.45337	0.04109
3951.16760	0.04177
3949.88184	0.04195
3948.59607	0.04161
3947.31030	0.04105
3946.02453	0.04059
3944.73876	0.04032
3943.45299	0.04012
3942.16722	0.03995
3940.88145	0.03989
3939.59569	0.04004
3938.30992	0.04039
3937.02415	0.04089
3935.73838	0.04147
3934.45261	0.04199
3933.16684	0.04226
3931.88107	0.04215
3930.59530	0.04178
3929.30953	0.04150
3928.02377	0.04160
3926.73800	0.04196
3925.45223	0.04212
3924.16646	0.04179
3922.88069	0.04113
3921.59492	0.04058
3920.30915	0.04042
3919.02338	0.04063
3917.73762	0.04099
3916.45185	0.04126
3915.16608	0.04128
3913.88031	0.04109
3912.59454	0.04071
3911.30877	0.04021
3910.02300	0.03970
3908.73723	0.03947
3907.45146	0.03971
3906.16570	0.04029
3904.87993	0.04088
3903.59416	0.04130
3902.30839	0.04160
3901.02262	0.04190
3899.73685	0.04222
3898.45108	0.04240
3897.16531	0.04228
3895.87955	0.04185
3894.59378	0.04127
3893.30801	0.04073
3892.02224	0.04034
3890.73647	0.04003
3889.45070	0.03970
3888.16493	0.03926
3886.87916	0.03890
3885.59339	0.03894
3884.30763	0.03949
3883.02186	0.04026
3881.73609	0.04077
3880.45032	0.04091
3879.16455	0.04093
3877.87878	0.04102
3876.59301	0.04106
3875.30724	0.04090
3874.02148	0.04058
3872.73571	0.04016
3871.44994	0.03967
3870.16417	0.03922
3868.87840	0.03908
3867.59263	0.03951
3866.30686	0.04042
3865.02109	0.04139
3863.73532	0.04189
3862.44956	0.04163
3861.16379	0.04079
3859.87802	0.03987
3858.59225	0.03934
3857.30648	0.03927
3856.02071	0.03935
3854.73494	0.03921
3853.44917	0.03882
3852.16341	0.03856
3850.87764	0.03881
3849.59187	0.03955
3848.30610	0.04035
3847.02033	0.04075
3845.73456	0.04060
3844.44879	0.04014
3843.16302	0.03965
3841.87725	0.03917
3840.59149	0.03849
3839.30572	0.03752
3838.01995	0.03660
3836.73418	0.03627
3835.44841	0.03672
3834.16264	0.03759
3832.87687	0.03826
3831.59110	0.03846
3830.30534	0.03833
3829.01957	0.03818
3827.73380	0.03819
3826.44803	0.03834
3825.16226	0.03857
3823.87649	0.03884
3822.59072	0.03916
3821.30495	0.03957
3820.01918	0.03994
3818.73342	0.04000
3817.44765	0.03950
3816.16188	0.03861
3814.87611	0.03787
3813.59034	0.03777
3812.30457	0.03830
3811.01880	0.03904
3809.73303	0.03951
3808.44726	0.03945
3807.16150	0.03897
3805.87573	0.03845
3804.58996	0.03827
3803.30419	0.03840
3802.01842	0.03850
3800.73265	0.03835
3799.44688	0.03811
3798.16111	0.03814
3796.87535	0.03856
3795.58958	0.03918
3794.30381	0.03962
3793.01804	0.03952
3791.73227	0.03877
3790.44650	0.03769
3789.16073	0.03692
3787.87496	0.03698
3786.58919	0.03772
3785.30343	0.03859
3784.01766	0.03917
3782.73189	0.03945
3781.44612	0.03956
3780.16035	0.03942
3778.87458	0.03888
3777.58881	0.03803
3776.30304	0.03726
3775.01728	0.03698
3773.73151	0.03731
3772.44574	0.03801
3771.15997	0.03865
3769.87420	0.03893
3768.58843	0.03884
3767.30266	0.03851
3766.01689	0.03796
3764.73112	0.03731
3763.44536	0.03687
3762.15959	0.03688
3760.87382	0.03716
3759.58805	0.03727
3758.30228	0.03705
3757.01651	0.03684
3755.73074	0.03684
3754.44497	0.03680
3753.15921	0.03640
3751.87344	0.03585
3750.58767	0.03574
3749.30190	0.03634
3748.01613	0.03713
3746.73036	0.03731
3745.44459	0.03663
3744.15882	0.03570
3742.87305	0.03533
3741.58729	0.03582
3740.30152	0.03671
3739.01575	0.03730
3737.72998	0.03732
3736.44421	0.03710
3735.15844	0.03722
3733.87267	0.03785
3732.58690	0.03848
3731.30114	0.03843
3730.01537	0.03756
3728.72960	0.03629
3727.44383	0.03522
3726.15806	0.03468
3724.87229	0.03466
3723.58652	0.03490
3722.30075	0.03499
3721.01498	0.03469
3719.72922	0.03424
3718.44345	0.03410
3717.15768	0.03450
3715.87191	0.03516
3714.58614	0.03561
3713.30037	0.03556
3712.01460	0.03517
3710.72883	0.03494
3709.44307	0.03527
3708.15730	0.03609
3706.87153	0.03682
3705.58576	0.03690
3704.29999	0.03640
3703.01422	0.03588
3701.72845	0.03573
3700.44268	0.03577
3699.15691	0.03569
3697.87115	0.03551
3696.58538	0.03562
3695.29961	0.03623
3694.01384	0.03707
3692.72807	0.03764
3691.44230	0.03772
3690.15653	0.03743
3688.87076	0.03696
3687.58500	0.03643
3686.29923	0.03599
3685.01346	0.03579
3683.72769	0.03594
3682.44192	0.03641
3681.15615	0.03699
3679.87038	0.03732
3678.58461	0.03716
3677.29884	0.03663
3676.01308	0.03620
3674.72731	0.03628
3673.44154	0.03689
3672.15577	0.03765
3670.87000	0.03814
3669.58423	0.03810
3668.29846	0.03751
3667.01269	0.03659
3665.72693	0.03579
3664.44116	0.03548
3663.15539	0.03570
3661.86962	0.03621
3660.58385	0.03674
3659.29808	0.03713
3658.01231	0.03720
3656.72654	0.03693
3655.44077	0.03656
3654.15501	0.03650
3652.86924	0.03693
3651.58347	0.03755
3650.29770	0.03784
3649.01193	0.03760
3647.72616	0.03713
3646.44039	0.03696
3645.15462	0.03730
3643.86886	0.03788
3642.58309	0.03833
3641.29732	0.03856
3640.01155	0.03875
3638.72578	0.03903
3637.44001	0.03933
3636.15424	0.03950
3634.86847	0.03943
3633.58270	0.03914
3632.29694	0.03877
3631.01117	0.03854
3629.72540	0.03861
3628.43963	0.03893
3627.15386	0.03933
3625.86809	0.03972
3624.58232	0.04010
3623.29655	0.04046
3622.01079	0.04076
3620.72502	0.04110
3619.43925	0.04153
3618.15348	0.04189
3616.86771	0.04182
3615.58194	0.04123
3614.29617	0.04059
3613.01040	0.04047
3611.72463	0.04099
3610.43887	0.04174
3609.15310	0.04224
3607.86733	0.04241
3606.58156	0.04244
3605.29579	0.04259
3604.01002	0.04296
3602.72425	0.04344
3601.43848	0.04384
3600.15272	0.04391
3598.86695	0.04359
3597.58118	0.04294
3596.29541	0.04229
3595.00964	0.04211
3593.72387	0.04269
3592.43810	0.04380
3591.15233	0.04484
3589.86656	0.04542
3588.58080	0.04546
3587.29503	0.04519
3586.00926	0.04485
3584.72349	0.04460
3583.43772	0.04453
3582.15195	0.04462
3580.86618	0.04482
3579.58041	0.04511
3578.29464	0.04545
3577.00888	0.04577
3575.72311	0.04597
3574.43734	0.04611
3573.15157	0.04632
3571.86580	0.04668
3570.58003	0.04709
3569.29426	0.04738
3568.00849	0.04757
3566.72273	0.04771
3565.43696	0.04782
3564.15119	0.04779
3562.86542	0.04763
3561.57965	0.04755
3560.29388	0.04778
3559.00811	0.04827
3557.72234	0.04870
3556.43657	0.04876
3555.15081	0.04840
3553.86504	0.04783
3552.57927	0.04737
3551.29350	0.04719
3550.00773	0.04723
3548.72196	0.04737
3547.43619	0.04771
3546.15042	0.04846
3544.86466	0.04959
3543.57889	0.05066
3542.29312	0.05124
3541.00735	0.05134
3539.72158	0.05130
3538.43581	0.05137
3537.15004	0.05141
3535.86427	0.05129
3534.57850	0.05110
3533.29274	0.05110
3532.00697	0.05135
3530.72120	0.05157
3529.43543	0.05159
3528.14966	0.05154
3526.86389	0.05168
3525.57812	0.05202
3524.29235	0.05230
3523.00659	0.05235
3521.72082	0.05220
3520.43505	0.05197
3519.14928	0.05167
3517.86351	0.05129
3516.57774	0.05097
3515.29197	0.05103
3514.00620	0.05167
3512.72043	0.05272
3511.43467	0.05375
3510.14890	0.05432
3508.86313	0.05426
3507.57736	0.05377
3506.29159	0.05328
3505.00582	0.05315
3503.72005	0.05347
3502.43428	0.05396
3501.14852	0.05429
3499.86275	0.05436
3498.57698	0.05428
3497.29121	0.05421
3496.00544	0.05421
3494.71967	0.05433
3493.43390	0.05453
3492.14813	0.05471
3490.86236	0.05476
3489.57660	0.05467
3488.29083	0.05456
3487.00506	0.05445
3485.71929	0.05429
3484.43352	0.05404
3483.14775	0.05382
3481.86198	0.05380
3480.57621	0.05404
3479.29045	0.05443
3478.00468	0.05482
3476.71891	0.05515
3475.43314	0.05554
3474.14737	0.05607
3472.86160	0.05668
3471.57583	0.05718
3470.29006	0.05744
3469.00429	0.05759
3467.71853	0.05790
3466.43276	0.05845
3465.14699	0.05893
3463.86122	0.05884
3462.57545	0.05807
3461.28968	0.05711
3460.00391	0.05665
3458.71814	0.05691
3457.43238	0.05748
3456.14661	0.05782
3454.86084	0.05775
3453.57507	0.05751
3452.28930	0.05745
3451.00353	0.05777
3449.71776	0.05837
3448.43199	0.05900
3447.14622	0.05944
3445.86046	0.05956
3444.57469	0.05935
3443.28892	0.05895
3442.00315	0.05855
3440.71738	0.05834
3439.43161	0.05839
3438.14584	0.05862
3436.86007	0.05887
3435.57431	0.05903
3434.28854	0.05911
3433.00277	0.05919
3431.71700	0.05928
3430.43123	0.05932
3429.14546	0.05923
3427.85969	0.05913
3426.57392	0.05918
3425.28815	0.05943
3424.00239	0.05972
3422.71662	0.05984
3421.43085	0.05978
3420.14508	0.05968
3418.85931	0.05968
3417.57354	0.05978
3416.28777	0.05983
3415.00200	0.05972
3413.71624	0.05949
3412.43047	0.05927
3411.14470	0.05916
3409.85893	0.05915
3408.57316	0.05920
3407.28739	0.05937
3406.00162	0.05971
3404.71585	0.06018
3403.43008	0.06061
3402.14432	0.06092
3400.85855	0.06116
3399.57278	0.06134
3398.28701	0.06153
3397.00124	0.06170
3395.71547	0.06174
3394.42970	0.06162
3393.14393	0.06140
3391.85817	0.06114
3390.57240	0.06091
3389.28663	0.06071
3388.00086	0.06057
3386.71509	0.06052
3385.42932	0.06060
3384.14355	0.06090
3382.85778	0.06142
3381.57201	0.06208
3380.28625	0.06266
3379.00048	0.06298
3377.71471	0.06298
3376.42894	0.06272
3375.14317	0.06235
3373.85740	0.06201
3372.57163	0.06182
3371.28586	0.06186
3370.00010	0.06206
3368.71433	0.06225
3367.42856	0.06235
3366.14279	0.06231
3364.85702	0.06216
3363.57125	0.06188
3362.28548	0.06154
3360.99971	0.06122
3359.71394	0.06095
3358.42818	0.06075
3357.14241	0.06071
3355.85664	0.06095
3354.57087	0.06143
3353.28510	0.06194
3351.99933	0.06225
3350.71356	0.06231
3349.42779	0.06222
3348.14202	0.06212
3346.85626	0.06216
3345.57049	0.06237
3344.28472	0.06267
3342.99895	0.06292
3341.71318	0.06300
3340.42741	0.06282
3339.14164	0.06241
3337.85587	0.06193
3336.57011	0.06158
3335.28434	0.06149
3333.99857	0.06155
3332.71280	0.06159
3331.42703	0.06156
3330.14126	0.06152
3328.85549	0.06143
3327.56972	0.06117
3326.28395	0.06075
3324.99819	0.06048
3323.71242	0.06062
3322.42665	0.06105
3321.14088	0.06139
3319.85511	0.06131
3318.56934	0.06092
3317.28357	0.06057
3315.99780	0.06054
3314.71204	0.06072
3313.42627	0.06073
3312.14050	0.06038
3310.85473	0.05992
3309.56896	0.05971
3308.28319	0.05985
3306.99742	0.06014
3305.71165	0.06036
3304.42588	0.06040
3303.14012	0.06031
3301.85435	0.06012
3300.56858	0.05992
3299.28281	0.05973
3297.99704	0.05956
3296.71127	0.05941
3295.42550	0.05934
3294.13973	0.05944
3292.85397	0.05971
3291.56820	0.06002
3290.28243	0.06015
3288.99666	0.06012
3287.71089	0.06018
3286.42512	0.06051
3285.13935	0.06095
3283.85358	0.06123
3282.56781	0.06117
3281.28205	0.06089
3279.99628	0.06058
3278.71051	0.06043
3277.42474	0.06053
3276.13897	0.06081
3274.85320	0.06107
3273.56743	0.06114
3272.28166	0.06097
3270.99590	0.06068
3269.71013	0.06040
3268.42436	0.06013
3267.13859	0.05978
3265.85282	0.05929
3264.56705	0.05888
3263.28128	0.05878
3261.99551	0.05900
3260.70974	0.05924
3259.42398	0.05924
3258.13821	0.05904
3256.85244	0.05889
3255.56667	0.05891
3254.28090	0.05904
3252.99513	0.05914
3251.70936	0.05919
3250.42359	0.05922
3249.13783	0.05928
3247.85206	0.05937
3246.56629	0.05944
3245.28052	0.05943
3243.99475	0.05929
3242.70898	0.05899
3241.42321	0.05858
3240.13744	0.05818
3238.85167	0.05793
3237.56591	0.05791
3236.28014	0.05811
3234.99437	0.05836
3233.70860	0.05842
3232.42283	0.05821
3231.13706	0.05791
3229.85129	0.05779
3228.56552	0.05793
3227.27976	0.05813
3225.99399	0.05816
3224.70822	0.05792
3223.42245	0.05754
3222.13668	0.05724
3220.85091	0.05713
3219.56514	0.05718
3218.27937	0.05721
3216.99360	0.05717
3215.70784	0.05709
3214.42207	0.05703
3213.13630	0.05691
3211.85053	0.05670
3210.56476	0.05653
3209.27899	0.05658
3207.99322	0.05687
3206.70745	0.05723
3205.42169	0.05752
3204.13592	0.05771
3202.85015	0.05779
3201.56438	0.05782
3200.27861	0.05785
3198.99284	0.05789
3197.70707	0.05786
3196.42130	0.05764
3195.13553	0.05723
3193.84977	0.05672
3192.56400	0.05621
3191.27823	0.05574
3189.99246	0.05536
3188.70669	0.05520
3187.42092	0.05533
3186.13515	0.05559
3184.84938	0.05572
3183.56362	0.05563
3182.27785	0.05554
3180.99208	0.05570
3179.70631	0.05611
3178.42054	0.05648
3177.13477	0.05646
3175.84900	0.05599
3174.56323	0.05535
3173.27746	0.05500
3171.99170	0.05512
3170.70593	0.05547
3169.42016	0.05562
3168.13439	0.05538
3166.84862	0.05486
3165.56285	0.05437
3164.27708	0.05412
3162.99131	0.05416
3161.70555	0.05437
3160.41978	0.05461
3159.13401	0.05478
3157.84824	0.05483
3156.56247	0.05475
3155.27670	0.05450
3153.99093	0.05415
3152.70516	0.05385
3151.41939	0.05375
3150.13363	0.05385
3148.84786	0.05399
3147.56209	0.05400
3146.27632	0.05381
3144.99055	0.05344
3143.70478	0.05303
3142.41901	0.05273
3141.13324	0.05256
3139.84748	0.05250
3138.56171	0.05247
3137.27594	0.05244
3135.99017	0.05244
3134.70440	0.05249
3133.41863	0.05259
3132.13286	0.05273
3130.84709	0.05289
3129.56132	0.05304
3128.27556	0.05312
3126.98979	0.05306
3125.70402	0.05281
3124.41825	0.05242
3123.13248	0.05207
3121.84671	0.05191
3120.56094	0.05199
3119.27517	0.05220
3117.98940	0.05239
3116.70364	0.05246
3115.41787	0.05235
3114.13210	0.05209
3112.84633	0.05179
3111.56056	0.05152
3110.27479	0.05122
3108.98902	0.05084
3107.70325	0.05045
3106.41749	0.05029
3105.13172	0.05048
3103.84595	0.05088
3102.56018	0.05120
3101.27441	0.05129
3099.98864	0.05123
3098.70287	0.05115
3097.41710	0.05111
3096.13133	0.05107
3094.84557	0.05104
3093.55980	0.05106
3092.27403	0.05111
3090.98826	0.05113
3089.70249	0.05104
3088.41672	0.05079
3087.13095	0.05036
3085.84518	0.04987
3084.55942	0.04956
3083.27365	0.04964
3081.98788	0.05007
3080.70211	0.05052
3079.41634	0.05063
3078.13057	0.05029
3076.84480	0.04972
3075.55903	0.04923
3074.27326	0.04901
3072.98750	0.04901
3071.70173	0.04907
3070.41596	0.04908
3069.13019	0.04903
3067.84442	0.04903
3066.55865	0.04914
3065.27288	0.04929
3063.98711	0.04933
3062.70135	0.04922
3061.41558	0.04905
3060.12981	0.04896
3058.84404	0.04896
3057.55827	0.04886
3056.27250	0.04856
3054.98673	0.04822
3053.70096	0.04810
3052.41519	0.04824
3051.12943	0.04841
3049.84366	0.04841
3048.55789	0.04821
3047.27212	0.04796
3045.98635	0.04777
3044.70058	0.04769
3043.41481	0.04766
3042.12904	0.04761
3040.84328	0.04747
3039.55751	0.04726
3038.27174	0.04708
3036.98597	0.04698
3035.70020	0.04686
3034.41443	0.04665
3033.12866	0.04637
3031.84289	0.04615
3030.55712	0.04610
3029.27136	0.04618
3027.98559	0.04631
3026.69982	0.04643
3025.41405	0.04649
3024.12828	0.04646
3022.84251	0.04632
3021.55674	0.04617
3020.27097	0.04612
3018.98521	0.04615
3017.69944	0.04612
3016.41367	0.04594
3015.12790	0.04569
3013.84213	0.04558
3012.55636	0.04573
3011.27059	0.04605
3009.98482	0.04631
3008.69905	0.04629
3007.41329	0.04596
3006.12752	0.04546
3004.84175	0.04502
3003.55598	0.04478
3002.27021	0.04476
3000.98444	0.04486
2999.69867	0.04496
2998.41290	0.04516
2997.12714	0.04538
2995.84137	0.04554
2994.55560	0.04558
2993.26983	0.04556
2991.98406	0.04555
2990.69829	0.04557
2989.41252	0.04559
2988.12675	0.04556
2986.84098	0.04551
2985.55522	0.04557
2984.26945	0.04580
2982.98368	0.04619
2981.69791	0.04663
2980.41214	0.04701
2979.12637	0.04722
2977.84060	0.04725
2976.55483	0.04719
2975.26907	0.04723
2973.98330	0.04755
2972.69753	0.04824
2971.41176	0.04921
2970.12599	0.05021
2968.84022	0.05107
2967.55445	0.05179
2966.26868	0.05260
2964.98291	0.05361
2963.69715	0.05470
2962.41138	0.05563
2961.12561	0.05631
2959.83984	0.05688
2958.55407	0.05752
2957.26830	0.05820
2955.98253	0.05874
2954.69676	0.05904
2953.41100	0.05919
2952.12523	0.05940
2950.83946	0.05969
2949.55369	0.05987
2948.26792	0.05982
2946.98215	0.05971
2945.69638	0.05973
2944.41061	0.05989
2943.12484	0.06004
2941.83908	0.06007
2940.55331	0.06009
2939.26754	0.06024
2937.98177	0.06055
2936.69600	0.06097
2935.41023	0.06150
2934.12446	0.06218
2932.83869	0.06309
2931.55293	0.06410
2930.26716	0.06494
2928.98139	0.06541
2927.69562	0.06556
2926.40985	0.06567
2925.12408	0.06597
2923.83831	0.06642
2922.55254	0.06678
2921.26677	0.06678
2919.98101	0.06637
2918.69524	0.06567
2917.40947	0.06493
2916.12370	0.06430
2914.83793	0.06383
2913.55216	0.06344
2912.26639	0.06303
2910.98062	0.06251
2909.69486	0.06193
2908.40909	0.06127
2907.12332	0.06051
2905.83755	0.05972
2904.55178	0.05901
2903.26601	0.05845
2901.98024	0.05793
2900.69447	0.05738
2899.40870	0.05688
2898.12294	0.05651
2896.83717	0.05619
2895.55140	0.05580
2894.26563	0.05539
2892.97986	0.05507
2891.69409	0.05484
2890.40832	0.05462
2889.12255	0.05435
2887.83678	0.05401
2886.55102	0.05359
2885.26525	0.05317
2883.97948	0.05283
2882.69371	0.05258
2881.40794	0.05237
2880.12217	0.05224
2878.83640	0.05226
2877.55063	0.05244
2876.26487	0.05265
2874.97910	0.05284
2873.69333	0.05307
2872.40756	0.05340
2871.12179	0.05377
2869.83602	0.05404
2868.55025	0.05412
2867.26448	0.05404
2865.97871	0.05389
2864.69295	0.05377
2863.40718	0.05373
2862.12141	0.05376
2860.83564	0.05380
2859.54987	0.05380
2858.26410	0.05379
2856.97833	0.05382
2855.69256	0.05394
2854.40680	0.05414
2853.12103	0.05430
2851.83526	0.05423
2850.54949	0.05383
2849.26372	0.05312
2847.97795	0.05228
2846.69218	0.05149
2845.40641	0.05086
2844.12064	0.05041
2842.83488	0.05006
2841.54911	0.04964
2840.26334	0.04904
2838.97757	0.04831
2837.69180	0.04757
2836.40603	0.04690
2835.12026	0.04631
2833.83449	0.04579
2832.54873	0.04533
2831.26296	0.04484
2829.97719	0.04430
2828.69142	0.04373
2827.40565	0.04317
2826.11988	0.04269
2824.83411	0.04238
2823.54834	0.04226
2822.26257	0.04227
2820.97681	0.04230
2819.69104	0.04225
2818.40527	0.04207
2817.11950	0.04173
2815.83373	0.04127
2814.54796	0.04078
2813.26219	0.04038
2811.97642	0.04012
2810.69066	0.04004
2809.40489	0.04015
2808.11912	0.04034
2806.83335	0.04047
2805.54758	0.04039
2804.26181	0.04009
2802.97604	0.03971
2801.69027	0.03936
2800.40450	0.03912
2799.11874	0.03898
2797.83297	0.03891
2796.54720	0.03890
2795.26143	0.03892
2793.97566	0.03890
2792.68989	0.03875
2791.40412	0.03848
2790.11835	0.03822
2788.83259	0.03808
2787.54682	0.03804
2786.26105	0.03798
2784.97528	0.03785
2783.68951	0.03772
2782.40374	0.03771
2781.11797	0.03781
2779.83220	0.03790
2778.54643	0.03788
2777.26067	0.03782
2775.97490	0.03778
2774.68913	0.03773
2773.40336	0.03761
2772.11759	0.03743
2770.83182	0.03729
2769.54605	0.03724
2768.26028	0.03720
2766.97452	0.03706
2765.68875	0.03680
2764.40298	0.03656
2763.11721	0.03651
2761.83144	0.03667
2760.54567	0.03689
2759.25990	0.03699
2757.97413	0.03690
2756.68836	0.03671
2755.40260	0.03652
2754.11683	0.03633
2752.83106	0.03615
2751.54529	0.03601
2750.25952	0.03598
2748.97375	0.03606
2747.68798	0.03615
2746.40221	0.03616
2745.11645	0.03614
2743.83068	0.03617
2742.54491	0.03627
2741.25914	0.03641
2739.97337	0.03652
2738.68760	0.03652
2737.40183	0.03639
2736.11606	0.03618
2734.83029	0.03605
2733.54453	0.03605
2732.25876	0.03610
2730.97299	0.03610
2729.68722	0.03607
2728.40145	0.03602
2727.11568	0.03592
2725.82991	0.03571
2724.54414	0.03545
2723.25838	0.03527
2721.97261	0.03523
2720.68684	0.03523
2719.40107	0.03516
2718.11530	0.03497
2716.82953	0.03474
2715.54376	0.03461
2714.25799	0.03465
2712.97222	0.03477
2711.68646	0.03479
2710.40069	0.03460
2709.11492	0.03429
2707.82915	0.03409
2706.54338	0.03411
2705.25761	0.03431
2703.97184	0.03452
2702.68607	0.03465
2701.40031	0.03467
2700.11454	0.03464
2698.82877	0.03458
2697.54300	0.03455
2696.25723	0.03454
2694.97146	0.03457
2693.68569	0.03459
2692.39992	0.03457
2691.11415	0.03453
2689.82839	0.03447
2688.54262	0.03434
2687.25685	0.03408
2685.97108	0.03377
2684.68531	0.03351
2683.39954	0.03338
2682.11377	0.03339
2680.82800	0.03351
2679.54224	0.03368
2678.25647	0.03383
2676.97070	0.03391
2675.68493	0.03391
2674.39916	0.03389
2673.11339	0.03387
2671.82762	0.03382
2670.54185	0.03367
2669.25608	0.03339
2667.97032	0.03308
2666.68455	0.03283
2665.39878	0.03275
2664.11301	0.03281
2662.82724	0.03300
2661.54147	0.03326
2660.25570	0.03356
2658.96993	0.03378
2657.68417	0.03380
2656.39840	0.03356
2655.11263	0.03323
2653.82686	0.03305
2652.54109	0.03312
2651.25532	0.03328
2649.96955	0.03333
2648.68378	0.03324
2647.39801	0.03307
2646.11225	0.03292
2644.82648	0.03283
2643.54071	0.03275
2642.25494	0.03260
2640.96917	0.03236
2639.68340	0.03208
2638.39763	0.03180
2637.11186	0.03155
2635.82609	0.03137
2634.54033	0.03133
2633.25456	0.03144
2631.96879	0.03159
2630.68302	0.03166
2629.39725	0.03154
2628.11148	0.03124
2626.82571	0.03085
2625.53994	0.03049
2624.25418	0.03029
2622.96841	0.03030
2621.68264	0.03043
2620.39687	0.03054
2619.11110	0.03052
2617.82533	0.03042
2616.53956	0.03037
2615.25379	0.03043
2613.96802	0.03055
2612.68226	0.03051
2611.39649	0.03024
2610.11072	0.02987
2608.82495	0.02970
2607.53918	0.02977
2606.25341	0.02990
2604.96764	0.02988
2603.68187	0.02972
2602.39611	0.02959
2601.11034	0.02956
2599.82457	0.02953
2598.53880	0.02936
2597.25303	0.02909
2595.96726	0.02888
2594.68149	0.02882
2593.39572	0.02875
2592.10995	0.02851
2590.82419	0.02819
2589.53842	0.02801
2588.25265	0.02803
2586.96688	0.02813
2585.68111	0.02822
2584.39534	0.02827
2583.10957	0.02826
2581.82380	0.02817
2580.53804	0.02800
2579.25227	0.02787
2577.96650	0.02789
2576.68073	0.02809
2575.39496	0.02835
2574.10919	0.02849
2572.82342	0.02839
2571.53765	0.02808
2570.25188	0.02767
2568.96612	0.02727
2567.68035	0.02690
2566.39458	0.02660
2565.10881	0.02645
2563.82304	0.02647
2562.53727	0.02655
2561.25150	0.02652
2559.96573	0.02633
2558.67997	0.02607
2557.39420	0.02586
2556.10843	0.02569
2554.82266	0.02554
2553.53689	0.02540
2552.25112	0.02526
2550.96535	0.02510
2549.67958	0.02499
2548.39381	0.02501
2547.10805	0.02517
2545.82228	0.02542
2544.53651	0.02569
2543.25074	0.02592
2541.96497	0.02605
2540.67920	0.02613
2539.39343	0.02624
2538.10766	0.02637
2536.82190	0.02640
2535.53613	0.02623
2534.25036	0.02599
2532.96459	0.02581
2531.67882	0.02568
2530.39305	0.02553
2529.10728	0.02538
2527.82151	0.02528
2526.53574	0.02519
2525.24998	0.02508
2523.96421	0.02500
2522.67844	0.02506
2521.39267	0.02510
2520.10690	0.02489
2518.82113	0.02439
2517.53536	0.02393
2516.24959	0.02382
2514.96383	0.02405
2513.67806	0.02429
2512.39229	0.02433
2511.10652	0.02420
2509.82075	0.02403
2508.53498	0.02383
2507.24921	0.02354
2505.96344	0.02326
2504.67767	0.02322
2503.39191	0.02351
2502.10614	0.02391
2500.82037	0.02412
2499.53460	0.02407
2498.24883	0.02398
2496.96306	0.02412
2495.67729	0.02443
2494.39152	0.02466
2493.10576	0.02465
2491.81999	0.02443
2490.53422	0.02418
2489.24845	0.02403
2487.96268	0.02397
2486.67691	0.02395
2485.39114	0.02391
2484.10537	0.02388
2482.81960	0.02391
2481.53384	0.02397
2480.24807	0.02394
2478.96230	0.02377
2477.67653	0.02357
2476.39076	0.02350
2475.10499	0.02361
2473.81922	0.02374
2472.53345	0.02371
2471.24769	0.02353
2469.96192	0.02342
2468.67615	0.02355
2467.39038	0.02384
2466.10461	0.02408
2464.81884	0.02417
2463.53307	0.02416
2462.24730	0.02409
2460.96153	0.02394
2459.67577	0.02373
2458.39000	0.02352
2457.10423	0.02331
2455.81846	0.02311
2454.53269	0.02300
2453.24692	0.02305
2451.96115	0.02322
2450.67538	0.02337
2449.38962	0.02336
2448.10385	0.02317
2446.81808	0.02290
2445.53231	0.02270
2444.24654	0.02261
2442.96077	0.02258
2441.67500	0.02255
2440.38923	0.02262
2439.10346	0.02280
2437.81770	0.02289
2436.53193	0.02270
2435.24616	0.02232
2433.96039	0.02207
2432.67462	0.02216
2431.38885	0.02246
2430.10308	0.02271
2428.81731	0.02277
2427.53155	0.02268
2426.24578	0.02256
2424.96001	0.02249
2423.67424	0.02245
2422.38847	0.02242
2421.10270	0.02229
2419.81693	0.02202
2418.53116	0.02172
2417.24539	0.02153
2415.95963	0.02154
2414.67386	0.02172
2413.38809	0.02198
2412.10232	0.02220
2410.81655	0.02226
2409.53078	0.02215
2408.24501	0.02201
2406.95924	0.02194
2405.67347	0.02194
2404.38771	0.02195
2403.10194	0.02201
2401.81617	0.02207
2400.53040	0.02196
2399.24463	0.02174
2397.95886	0.02130
2396.67309	0.02109
2395.38732	0.02121
2394.10156	0.02155
2392.81579	0.02196
2391.53002	0.02226
2390.24425	0.02232
2388.95848	0.02214
2387.67271	0.02185
2386.38694	0.02161
2385.10117	0.02147
2383.81540	0.02142
2382.52964	0.02149
2381.24387	0.02173
2379.95810	0.02214
2378.67233	0.02245
2377.38656	0.02265
2376.10079	0.02292
2374.81502	0.02315
2373.52925	0.02282
2372.24349	0.02204
2370.95772	0.02140
2369.67195	0.02115
2368.38618	0.02118
2367.10041	0.02126
2365.81464	0.02146
2364.52887	0.02165
2363.24310	0.02176
2361.95733	0.02176
2360.67157	0.02158
2359.38580	0.02146
2358.10003	0.02152
2356.81426	0.02180
2355.52849	0.02235
2354.24272	0.02315
2352.95695	0.02387
2351.67118	0.02388
2350.38542	0.02352
2349.09965	0.02334
2347.81388	0.02320
2346.52811	0.02284
2345.24234	0.02277
2343.95657	0.02337
2342.67080	0.02450
2341.38503	0.02430
2340.09926	0.02312
2338.81350	0.02305
2337.52773	0.02397
2336.24196	0.02382
2334.95619	0.02321
2333.67042	0.02345
2332.38465	0.02420
2331.09888	0.02330
2329.81311	0.02306
2328.52735	0.02400
2327.24158	0.02461
2325.95581	0.02525
2324.67004	0.02606
2323.38427	0.02670
2322.09850	0.02629
2320.81273	0.02575
2319.52696	0.02512
2318.24119	0.02449
2316.95543	0.02401
2315.66966	0.02359
2314.38389	0.02347
2313.09812	0.02349
2311.81235	0.02337
2310.52658	0.02327
2309.24081	0.02311
2307.95504	0.02282
2306.66928	0.02266
2305.38351	0.02265
2304.09774	0.02271
2302.81197	0.02259
2301.52620	0.02223
2300.24043	0.02185
2298.95466	0.02165
2297.66889	0.02166
2296.38312	0.02178
2295.09736	0.02199
2293.81159	0.02227
2292.52582	0.02255
2291.24005	0.02274
2289.95428	0.02277
2288.66851	0.02266
2287.38274	0.02247
2286.09697	0.02227
2284.81121	0.02212
2283.52544	0.02205
2282.23967	0.02200
2280.95390	0.02185
2279.66813	0.02160
2278.38236	0.02139
2277.09659	0.02132
2275.81082	0.02132
2274.52505	0.02128
2273.23929	0.02121
2271.95352	0.02114
2270.66775	0.02102
2269.38198	0.02071
2268.09621	0.02013
2266.81044	0.01941
2265.52467	0.01873
2264.23890	0.01822
2262.95314	0.01784
2261.66737	0.01750
2260.38160	0.01729
2259.09583	0.01732
2257.81006	0.01757
2256.52429	0.01787
2255.23852	0.01803
2253.95275	0.01798
2252.66698	0.01777
2251.38122	0.01742
2250.09545	0.01702
2248.80968	0.01681
2247.52391	0.01646
2246.23814	0.01623
2244.95237	0.01628
2243.66660	0.01664
2242.38083	0.01703
2241.09507	0.01714
2239.80930	0.01690
2238.52353	0.01657
2237.23776	0.01644
2235.95199	0.01654
2234.66622	0.01665
2233.38045	0.01658
2232.09468	0.01627
2230.80891	0.01570
2229.52315	0.01473
2228.23738	0.01344
2226.95161	0.01238
2225.66584	0.01221
2224.38007	0.01291
2223.09430	0.01370
2221.80853	0.01402
2220.52276	0.01417
2219.23700	0.01473
2217.95123	0.01563
2216.66546	0.01616
2215.37969	0.01581
2214.09392	0.01469
2212.80815	0.01338
2211.52238	0.01247
2210.23661	0.01217
2208.95084	0.01222
2207.66508	0.01212
2206.37931	0.01164
2205.09354	0.01107
2203.80777	0.01094
2202.52200	0.01160
2201.23623	0.01275
2199.95046	0.01368
2198.66469	0.01382
2197.37893	0.01321
2196.09316	0.01231
2194.80739	0.01146
2193.52162	0.01075
2192.23585	0.01032
2190.95008	0.01045
2189.66431	0.01116
2188.37854	0.01206
2187.09277	0.01262
2185.80701	0.01259
2184.52124	0.01211
2183.23547	0.01150
2181.94970	0.01099
2180.66393	0.01055
2179.37816	0.01002
2178.09239	0.00944
2176.80662	0.00909
2175.52085	0.00911
2174.23509	0.00926
2172.94932	0.00923
2171.66355	0.00906
2170.37778	0.00910
2169.09201	0.00952
2167.80624	0.01017
2166.52047	0.01082
2165.23470	0.01125
2163.94894	0.01120
2162.66317	0.01035
2161.37740	0.00857
2160.09163	0.00611
2158.80586	0.00371
2157.52009	0.00216
2156.23432	0.00182
2154.94855	0.00230
2153.66278	0.00292
2152.37702	0.00329
2151.09125	0.00352
2149.80548	0.00399
2148.51971	0.00491
2147.23394	0.00613
2145.94817	0.00723
2144.66240	0.00786
2143.37663	0.00796
2142.09087	0.00774
2140.80510	0.00756
2139.51933	0.00775
2138.23356	0.00844
2136.94779	0.00944
2135.66202	0.01035
2134.37625	0.01088
2133.09048	0.01096
2131.80471	0.01070
2130.51895	0.01018
2129.23318	0.00945
2127.94741	0.00876
2126.66164	0.00853
2125.37587	0.00900
2124.09010	0.00999
2122.80433	0.01112
2121.51856	0.01211
2120.23280	0.01291
2118.94703	0.01347
2117.66126	0.01368
2116.37549	0.01351
2115.08972	0.01304
2113.80395	0.01247
2112.51818	0.01213
2111.23241	0.01232
2109.94664	0.01290
2108.66088	0.01332
2107.37511	0.01308
2106.08934	0.01231
2104.80357	0.01155
2103.51780	0.01114
2102.23203	0.01106
2100.94626	0.01107
2099.66049	0.01013
2098.37473	0.00938
2097.08896	0.00880
2095.80319	0.00844
2094.51742	0.00859
2093.23165	0.00922
2091.94588	0.00994
2090.66011	0.01037
2089.37434	0.01052
2088.08857	0.01063
2086.80281	0.01086
2085.51704	0.01117
2084.23127	0.01145
2082.94550	0.01167
2081.65973	0.01177
2080.37396	0.01161
2079.08819	0.01116
2077.80242	0.01070
2076.51666	0.01062
2075.23089	0.01098
2073.94512	0.01143
2072.65935	0.01161
2071.37358	0.01149
2070.08781	0.01118
2068.80204	0.01066
2067.51627	0.00985
2066.23050	0.00893
2064.94474	0.00833
2063.65897	0.00834
2062.37320	0.00876
2061.08743	0.00915
2059.80166	0.00926
2058.51589	0.00925
2057.23012	0.00938
2055.94435	0.00971
2054.65859	0.01004
2053.37282	0.01008
2052.08705	0.00953
2050.80128	0.00829
2049.51551	0.00663
2048.22974	0.00528
2046.94397	0.00489
2045.65820	0.00548
2044.37243	0.00641
2043.08667	0.00690
2041.80090	0.00666
2040.51513	0.00587
2039.22936	0.00484
2037.94359	0.00381
2036.65782	0.00302
2035.37205	0.00263
2034.08628	0.00261
2032.80052	0.00273
2031.51475	0.00283
2030.22898	0.00300
2028.94321	0.00332
2027.65744	0.00380
2026.37167	0.00430
2025.08590	0.00451
2023.80013	0.00404
2022.51436	0.00291
2021.22860	0.00178
2019.94283	0.00143
2018.65706	0.00199
2017.37129	0.00290
2016.08552	0.00355
2014.79975	0.00373
2013.51398	0.00358
2012.22821	0.00331
2010.94245	0.00301
2009.65668	0.00260
2008.37091	0.00204
2007.08514	0.00161
2005.79937	0.00173
2004.51360	0.00252
2003.22783	0.00374
2001.94206	0.00508
2000.65629	0.00639
1999.37053	0.00753
1998.08476	0.00831
1996.79899	0.00871
1995.51322	0.00892
1994.22745	0.00910
1992.94168	0.00927
1991.65591	0.00932
1990.37014	0.00922
1989.08438	0.00904
1987.79861	0.00895
1986.51284	0.00908
1985.22707	0.00938
1983.94130	0.00968
1982.65553	0.00973
1981.36976	0.00934
1980.08399	0.00831
1978.79822	0.00673
1977.51246	0.00506
1976.22669	0.00385
1974.94092	0.00319
1973.65515	0.00284
1972.36938	0.00270
1971.08361	0.00295
1969.79784	0.00368
1968.51207	0.00464
1967.22631	0.00546
1965.94054	0.00596
1964.65477	0.00619
1963.36900	0.00621
1962.08323	0.00604
1960.79746	0.00581
1959.51169	0.00587
1958.22592	0.00650
1956.94015	0.00758
1955.65439	0.00861
1954.36862	0.00925
1953.08285	0.00952
1951.79708	0.00965
1950.51131	0.00975
1949.22554	0.00977
1947.93977	0.00969
1946.65400	0.00970
1945.36823	0.00998
1944.08247	0.01044
1942.79670	0.01077
1941.51093	0.01078
1940.22516	0.01060
1938.93939	0.01050
1937.65362	0.01065
1936.36785	0.01090
1935.08208	0.01105
1933.79632	0.01096
1932.51055	0.01069
1931.22478	0.01041
1929.93901	0.01026
1928.65324	0.01027
1927.36747	0.01043
1926.08170	0.01063
1924.79593	0.01078
1923.51016	0.01086
1922.22440	0.01089
1920.93863	0.01090
1919.65286	0.01083
1918.36709	0.01065
1917.08132	0.01048
1915.79555	0.01050
1914.50978	0.01075
1913.22401	0.01110
1911.93825	0.01134
1910.65248	0.01140
1909.36671	0.01127
1908.08094	0.01106
1906.79517	0.01094
1905.50940	0.01097
1904.22363	0.01112
1902.93786	0.01119
1901.65209	0.01108
1900.36633	0.01085
1899.08056	0.01069
1897.79479	0.01074
1896.50902	0.01098
1895.22325	0.01127
1893.93748	0.01146
1892.65171	0.01150
1891.36594	0.01138
1890.08018	0.01113
1888.79441	0.01081
1887.50864	0.01055
1886.22287	0.01048
1884.93710	0.01059
1883.65133	0.01071
1882.36556	0.01075
1881.07979	0.01078
1879.79402	0.01088
1878.50826	0.01105
1877.22249	0.01121
1875.93672	0.01128
1874.65095	0.01128
1873.36518	0.01127
1872.07941	0.01129
1870.79364	0.01139
1869.50787	0.01158
1868.22211	0.01184
1866.93634	0.01209
1865.65057	0.01225
1864.36480	0.01223
1863.07903	0.01201
1861.79326	0.01172
1860.50749	0.01152
1859.22172	0.01151
1857.93595	0.01166
1856.65019	0.01185
1855.36442	0.01206
1854.07865	0.01226
1852.79288	0.01240
1851.50711	0.01247
1850.22134	0.01248
1848.93557	0.01244
1847.64980	0.01231
1846.36404	0.01211
1845.07827	0.01198
1843.79250	0.01201
1842.50673	0.01214
1841.22096	0.01226
1839.93519	0.01229
1838.64942	0.01229
1837.36365	0.01231
1836.07788	0.01236
1834.79212	0.01240
1833.50635	0.01244
1832.22058	0.01250
1830.93481	0.01258
1829.64904	0.01264
1828.36327	0.01265
1827.07750	0.01260
1825.79173	0.01251
1824.50597	0.01239
1823.22020	0.01224
1821.93443	0.01201
1820.64866	0.01172
1819.36289	0.01147
1818.07712	0.01141
1816.79135	0.01160
1815.50558	0.01200
1814.21981	0.01245
1812.93405	0.01281
1811.64828	0.01304
1810.36251	0.01318
1809.07674	0.01329
1807.79097	0.01339
1806.50520	0.01346
1805.21943	0.01345
1803.93366	0.01341
1802.64790	0.01339
1801.36213	0.01344
1800.07636	0.01356
1798.79059	0.01370
1797.50482	0.01381
1796.21905	0.01383
1794.93328	0.01374
1793.64751	0.01357
1792.36174	0.01343
1791.07598	0.01340
1789.79021	0.01351
1788.50444	0.01369
1787.21867	0.01387
1785.93290	0.01398
1784.64713	0.01405
1783.36136	0.01406
1782.07559	0.01402
1780.78983	0.01392
1779.50406	0.01381
1778.21829	0.01373
1776.93252	0.01371
1775.64675	0.01372
1774.36098	0.01374
1773.07521	0.01380
1771.78944	0.01396
1770.50367	0.01422
1769.21791	0.01449
1767.93214	0.01466
1766.64637	0.01471
1765.36060	0.01471
1764.07483	0.01473
1762.78906	0.01479
1761.50329	0.01490
1760.21752	0.01498
1758.93176	0.01495
1757.64599	0.01482
1756.36022	0.01470
1755.07445	0.01472
1753.78868	0.01486
1752.50291	0.01500
1751.21714	0.01508
1749.93137	0.01511
1748.64560	0.01518
1747.35984	0.01530
1746.07407	0.01542
1744.78830	0.01549
1743.50253	0.01547
1742.21676	0.01542
1740.93099	0.01543
1739.64522	0.01554
1738.35945	0.01573
1737.07369	0.01586
1735.78792	0.01584
1734.50215	0.01572
1733.21638	0.01567
1731.93061	0.01583
1730.64484	0.01616
1729.35907	0.01651
1728.07330	0.01677
1726.78753	0.01696
1725.50177	0.01711
1724.21600	0.01726
1722.93023	0.01743
1721.64446	0.01761
1720.35869	0.01778
1719.07292	0.01789
1717.78715	0.01798
1716.50138	0.01813
1715.21561	0.01841
1713.92985	0.01881
1712.64408	0.01925
1711.35831	0.01966
1710.07254	0.01998
1708.78677	0.02022
1707.50100	0.02041
1706.21523	0.02058
1704.92946	0.02075
1703.64370	0.02089
1702.35793	0.02099
1701.07216	0.02111
1699.78639	0.02133
1698.50062	0.02164
1697.21485	0.02194
1695.92908	0.02217
1694.64331	0.02239
1693.35754	0.02269
1692.07178	0.02306
1690.78601	0.02339
1689.50024	0.02360
1688.21447	0.02365
1686.92870	0.02357
1685.64293	0.02344
1684.35716	0.02341
1683.07139	0.02356
1681.78563	0.02390
1680.49986	0.02433
1679.21409	0.02472
1677.92832	0.02496
1676.64255	0.02504
1675.35678	0.02506
1674.07101	0.02512
1672.78524	0.02526
1671.49947	0.02547
1670.21371	0.02571
1668.92794	0.02596
1667.64217	0.02626
1666.35640	0.02658
1665.07063	0.02687
1663.78486	0.02708
1662.49909	0.02723
1661.21332	0.02741
1659.92756	0.02766
1658.64179	0.02796
1657.35602	0.02819
1656.07025	0.02822
1654.78448	0.02803
1653.49871	0.02777
1652.21294	0.02771
1650.92717	0.02792
1649.64140	0.02829
1648.35564	0.02859
1647.06987	0.02876
1645.78410	0.02885
1644.49833	0.02895
1643.21256	0.02908
1641.92679	0.02923
1640.64102	0.02935
1639.35525	0.02942
1638.06949	0.02940
1636.78372	0.02932
1635.49795	0.02928
1634.21218	0.02941
1632.92641	0.02971
1631.64064	0.03008
1630.35487	0.03041
1629.06910	0.03062
1627.78333	0.03072
1626.49757	0.03076
1625.21180	0.03074
1623.92603	0.03071
1622.64026	0.03072
1621.35449	0.03081
1620.06872	0.03095
1618.78295	0.03105
1617.49718	0.03109
1616.21142	0.03111
1614.92565	0.03122
1613.63988	0.03143
1612.35411	0.03172
1611.06834	0.03202
1609.78257	0.03227
1608.49680	0.03248
1607.21103	0.03266
1605.92526	0.03281
1604.63950	0.03295
1603.35373	0.03309
1602.06796	0.03323
1600.78219	0.03339
1599.49642	0.03353
1598.21065	0.03367
1596.92488	0.03379
1595.63911	0.03391
1594.35335	0.03400
1593.06758	0.03408
1591.78181	0.03416
1590.49604	0.03426
1589.21027	0.03438
1587.92450	0.03450
1586.63873	0.03460
1585.35296	0.03468
1584.06719	0.03476
1582.78143	0.03484
1581.49566	0.03495
1580.20989	0.03504
1578.92412	0.03510
1577.63835	0.03512
1576.35258	0.03518
1575.06681	0.03533
1573.78104	0.03555
1572.49528	0.03578
1571.20951	0.03595
1569.92374	0.03609
1568.63797	0.03627
1567.35220	0.03649
1566.06643	0.03673
1564.78066	0.03694
1563.49489	0.03706
1562.20912	0.03706
1560.92336	0.03697
1559.63759	0.03689
1558.35182	0.03695
1557.06605	0.03718
1555.78028	0.03750
1554.49451	0.03780
1553.20874	0.03803
1551.92297	0.03819
1550.63721	0.03833
1549.35144	0.03845
1548.06567	0.03855
1546.77990	0.03860
1545.49413	0.03860
1544.20836	0.03855
1542.92259	0.03845
1541.63682	0.03832
1540.35105	0.03820
1539.06529	0.03819
1537.77952	0.03831
1536.49375	0.03851
1535.20798	0.03873
1533.92221	0.03891
1532.63644	0.03910
1531.35067	0.03931
1530.06490	0.03953
1528.77914	0.03974
1527.49337	0.03993
1526.20760	0.04016
1524.92183	0.04045
1523.63606	0.04080
1522.35029	0.04123
1521.06452	0.04176
1519.77875	0.04242
1518.49298	0.04318
1517.20722	0.04398
1515.92145	0.04478
1514.63568	0.04558
1513.34991	0.04641
1512.06414	0.04729
1510.77837	0.04815
1509.49260	0.04893
1508.20683	0.04959
1506.92107	0.05022
1505.63530	0.05097
1504.34953	0.05187
1503.06376	0.05285
1501.77799	0.05373
1500.49222	0.05442
1499.20645	0.05493
1497.92068	0.05536
1496.63491	0.05583
1495.34915	0.05640
1494.06338	0.05705
1492.77761	0.05770
1491.49184	0.05833
1490.20607	0.05895
1488.92030	0.05960
1487.63453	0.06029
1486.34876	0.06102
1485.06299	0.06179
1483.77723	0.06260
1482.49146	0.06342
1481.20569	0.06420
1479.91992	0.06490
1478.63415	0.06553
1477.34838	0.06613
1476.06261	0.06674
1474.77684	0.06737
1473.49108	0.06805
1472.20531	0.06880
1470.91954	0.06961
1469.63377	0.07042
1468.34800	0.07115
1467.06223	0.07175
1465.77646	0.07223
1464.49069	0.07260
1463.20492	0.07293
1461.91916	0.07326
1460.63339	0.07360
1459.34762	0.07396
1458.06185	0.07434
1456.77608	0.07476
1455.49031	0.07521
1454.20454	0.07563
1452.91877	0.07594
1451.63301	0.07614
1450.34724	0.07629
1449.06147	0.07646
1447.77570	0.07663
1446.48993	0.07675
1445.20416	0.07678
1443.91839	0.07672
1442.63262	0.07660
1441.34685	0.07641
1440.06109	0.07617
1438.77532	0.07592
1437.48955	0.07576
1436.20378	0.07578
1434.91801	0.07600
1433.63224	0.07637
1432.34647	0.07686
1431.06070	0.07744
1429.77494	0.07812
1428.48917	0.07887
1427.20340	0.07968
1425.91763	0.08050
1424.63186	0.08134
1423.34609	0.08216
1422.06032	0.08288
1420.77455	0.08349
1419.48878	0.08399
1418.20302	0.08442
1416.91725	0.08477
1415.63148	0.08502
1414.34571	0.08511
1413.05994	0.08504
1411.77417	0.08482
1410.48840	0.08450
1409.20263	0.08405
1407.91687	0.08345
1406.63110	0.08266
1405.34533	0.08170
1404.05956	0.08063
1402.77379	0.07951
1401.48802	0.07832
1400.20225	0.07706
1398.91648	0.07571
1397.63071	0.07428
1396.34495	0.07280
1395.05918	0.07132
1393.77341	0.06989
1392.48764	0.06851
1391.20187	0.06718
1389.91610	0.06589
1388.63033	0.06467
1387.34456	0.06353
1386.05880	0.06245
1384.77303	0.06141
1383.48726	0.06035
1382.20149	0.05929
1380.91572	0.05825
1379.62995	0.05725
1378.34418	0.05624
1377.05841	0.05514
1375.77264	0.05391
1374.48688	0.05255
1373.20111	0.05112
1371.91534	0.04969
1370.62957	0.04834
1369.34380	0.04707
1368.05803	0.04588
1366.77226	0.04474
1365.48649	0.04362
1364.20073	0.04252
1362.91496	0.04147
1361.62919	0.04048
1360.34342	0.03957
1359.05765	0.03872
1357.77188	0.03795
1356.48611	0.03723
1355.20034	0.03657
1353.91457	0.03595
1352.62881	0.03538
1351.34304	0.03483
1350.05727	0.03430
1348.77150	0.03378
1347.48573	0.03329
1346.19996	0.03286
1344.91419	0.03248
1343.62842	0.03212
1342.34266	0.03177
1341.05689	0.03139
1339.77112	0.03097
1338.48535	0.03053
1337.19958	0.03012
1335.91381	0.02977
1334.62804	0.02950
1333.34227	0.02927
1332.05650	0.02906
1330.77074	0.02884
1329.48497	0.02861
1328.19920	0.02832
1326.91343	0.02798
1325.62766	0.02766
1324.34189	0.02742
1323.05612	0.02728
1321.77035	0.02721
1320.48459	0.02717
1319.19882	0.02709
1317.91305	0.02694
1316.62728	0.02675
1315.34151	0.02655
1314.05574	0.02636
1312.76997	0.02617
1311.48420	0.02598
1310.19843	0.02577
1308.91267	0.02555
1307.62690	0.02535
1306.34113	0.02517
1305.05536	0.02503
1303.76959	0.02494
1302.48382	0.02487
1301.19805	0.02479
1299.91228	0.02471
1298.62652	0.02461
1297.34075	0.02448
1296.05498	0.02433
1294.76921	0.02416
1293.48344	0.02400
1292.19767	0.02386
1290.91190	0.02373
1289.62613	0.02359
1288.34036	0.02343
1287.05460	0.02328
1285.76883	0.02317
1284.48306	0.02311
1283.19729	0.02306
1281.91152	0.02298
1280.62575	0.02283
1279.33998	0.02263
1278.05421	0.02243
1276.76845	0.02227
1275.48268	0.02218
1274.19691	0.02214
1272.91114	0.02213
1271.62537	0.02212
1270.33960	0.02207
1269.05383	0.02199
1267.76806	0.02190
1266.48229	0.02184
1265.19653	0.02181
1263.91076	0.02179
1262.62499	0.02173
1261.33922	0.02164
1260.05345	0.02151
1258.76768	0.02138
1257.48191	0.02128
1256.19614	0.02123
1254.91037	0.02122
1253.62461	0.02119
1252.33884	0.02115
1251.05307	0.02111
1249.76730	0.02110
1248.48153	0.02111
1247.19576	0.02112
1245.90999	0.02111
1244.62422	0.02107
1243.33846	0.02103
1242.05269	0.02098
1240.76692	0.02095
1239.48115	0.02093
1238.19538	0.02088
1236.90961	0.02083
1235.62384	0.02079
1234.33807	0.02078
1233.05230	0.02079
1231.76654	0.02078
1230.48077	0.02072
1229.19500	0.02063
1227.90923	0.02056
1226.62346	0.02056
1225.33769	0.02063
1224.05192	0.02070
1222.76615	0.02073
1221.48039	0.02073
1220.19462	0.02072
1218.90885	0.02072
1217.62308	0.02069
1216.33731	0.02063
1215.05154	0.02057
1213.76577	0.02055
1212.48000	0.02057
1211.19423	0.02061
1209.90847	0.02061
1208.62270	0.02056
1207.33693	0.02047
1206.05116	0.02038
1204.76539	0.02032
1203.47962	0.02030
1202.19385	0.02030
1200.90808	0.02034
1199.62232	0.02049
1198.33655	0.02051
1197.05078	0.02056
1195.76501	0.02059
1194.47924	0.02059
1193.19347	0.02057
1191.90770	0.02057
1190.62193	0.02061
1189.33616	0.02065
1188.05040	0.02068
1186.76463	0.02068
1185.47886	0.02065
1184.19309	0.02064
1182.90732	0.02066
1181.62155	0.02071
1180.33578	0.02075
1179.05001	0.02079
1177.76425	0.02086
1176.47848	0.02094
1175.19271	0.02104
1173.90694	0.02116
1172.62117	0.02132
1171.33540	0.02150
1170.04963	0.02166
1168.76386	0.02179
1167.47809	0.02192
1166.19233	0.02208
1164.90656	0.02225
1163.62079	0.02239
1162.33502	0.02248
1161.04925	0.02252
1159.76348	0.02255
1158.47771	0.02261
1157.19194	0.02273
1155.90618	0.02294
1154.62041	0.02324
1153.33464	0.02360
1152.04887	0.02395
1150.76310	0.02425
1149.47733	0.02453
1148.19156	0.02484
1146.90579	0.02524
1145.62002	0.02575
1144.33426	0.02632
1143.04849	0.02692
1141.76272	0.02755
1140.47695	0.02821
1139.19118	0.02891
1137.90541	0.02968
1136.61964	0.03057
1135.33387	0.03162
1134.04811	0.03281
1132.76234	0.03407
1131.47657	0.03544
1130.19080	0.03698
1128.90503	0.03876
1127.61926	0.04075
1126.33349	0.04290
1125.04772	0.04516
1123.76195	0.04749
1122.47619	0.04987
1121.19042	0.05232
1119.90465	0.05485
1118.61888	0.05741
1117.33311	0.05994
1116.04734	0.06236
1114.76157	0.06469
1113.47580	0.06696
1112.19004	0.06918
1110.90427	0.07134
1109.61850	0.07340
1108.33273	0.07538
1107.04696	0.07733
1105.76119	0.07928
1104.47542	0.08119
1103.18965	0.08300
1101.90388	0.08468
1100.61812	0.08623
1099.33235	0.08770
1098.04658	0.08912
1096.76081	0.09054
1095.47504	0.09193
1094.18927	0.09323
1092.90350	0.09444
1091.61773	0.09557
1090.33197	0.09664
1089.04620	0.09766
1087.76043	0.09864
1086.47466	0.09966
1085.18889	0.10078
1083.90312	0.10203
1082.61735	0.10335
1081.33158	0.10472
1080.04581	0.10615
1078.76005	0.10764
1077.47428	0.10922
1076.18851	0.11089
1074.90274	0.11269
1073.61697	0.11461
1072.33120	0.11660
1071.04543	0.11857
1069.75966	0.12048
1068.47390	0.12235
1067.18813	0.12428
1065.90236	0.12636
1064.61659	0.12857
1063.33082	0.13083
1062.04505	0.13303
1060.75928	0.13517
1059.47351	0.13729
1058.18774	0.13939
1056.90198	0.14144
1055.61621	0.14342
1054.33044	0.14538
1053.04467	0.14738
1051.75890	0.14945
1050.47313	0.15160
1049.18736	0.15386
1047.90159	0.15628
1046.61583	0.15889
1045.33006	0.16159
1044.04429	0.16426
1042.75852	0.16680
1041.47275	0.16925
1040.18698	0.17169
1038.90121	0.17415
1037.61544	0.17660
1036.32967	0.17900
1035.04391	0.18131
1033.75814	0.18349
1032.47237	0.18550
1031.18660	0.18726
1029.90083	0.18872
1028.61506	0.18987
1027.32929	0.19075
1026.04352	0.19138
1024.75775	0.19178
1023.47199	0.19194
1022.18622	0.19186
1020.90045	0.19147
1019.61468	0.19072
1018.32891	0.18960
1017.04314	0.18810
1015.75737	0.18627
1014.47160	0.18415
1013.18584	0.18181
1011.90007	0.17925
1010.61430	0.17646
1009.32853	0.17341
1008.04276	0.17007
1006.75699	0.16643
1005.47122	0.16246
1004.18545	0.15819
1002.89968	0.15366
1001.61392	0.14895
1000.32815	0.14414
999.04238	0.13927
997.75661	0.13436
996.47084	0.12945
995.18507	0.12461
993.89930	0.11990
992.61353	0.11536
991.32777	0.11096
990.04200	0.10670
988.75623	0.10259
987.47046	0.09868
986.18469	0.09500
984.89892	0.09156
983.61315	0.08832
982.32738	0.08531
981.04161	0.08255
979.75585	0.08009
978.47008	0.07789
977.18431	0.07588
975.89854	0.07401
974.61277	0.07232
973.32700	0.07087
972.04123	0.06972
970.75546	0.06887
969.46970	0.06833
968.18393	0.06812
966.89816	0.06821
965.61239	0.06851
964.32662	0.06889
963.04085	0.06917
961.75508	0.06918
960.46931	0.06884
959.18354	0.06818
957.89778	0.06727
956.61201	0.06615
955.32624	0.06479
954.04047	0.06321
952.75470	0.06152
951.46893	0.05983
950.18316	0.05821
948.89739	0.05668
947.61163	0.05525
946.32586	0.05392
945.04009	0.05267
943.75432	0.05149
942.46855	0.05039
941.18278	0.04939
939.89701	0.04846
938.61124	0.04755
937.32547	0.04663
936.03971	0.04574
934.75394	0.04494
933.46817	0.04424
932.18240	0.04359
930.89663	0.04294
929.61086	0.04233
928.32509	0.04180
927.03932	0.04134
925.75356	0.04087
924.46779	0.04036
923.18202	0.03986
921.89625	0.03942
920.61048	0.03908
919.32471	0.03879
918.03894	0.03850
916.75317	0.03820
915.46740	0.03791
914.18164	0.03765
912.89587	0.03739
911.61010	0.03712
910.32433	0.03687
909.03856	0.03665
907.75279	0.03642
906.46702	0.03615
905.18125	0.03584
903.89549	0.03553
902.60972	0.03519
901.32395	0.03481
900.03818	0.03441
898.75241	0.03409
897.46664	0.03386
896.18087	0.03366
894.89510	0.03349
893.60933	0.03350
892.32357	0.03379
891.03780	0.03438
889.75203	0.03513
888.46626	0.03600
887.18049	0.03700
885.89472	0.03827
884.60895	0.03995
883.32318	0.04207
882.03742	0.04447
880.75165	0.04682
879.46588	0.04873
878.18011	0.05005
876.89434	0.05088
875.60857	0.05146
874.32280	0.05196
873.03703	0.05226
871.75126	0.05207
870.46550	0.05121
869.17973	0.04973
867.89396	0.04783
866.60819	0.04575
865.32242	0.04368
864.03665	0.04178
862.75088	0.04015
861.46511	0.03878
860.17935	0.03765
858.89358	0.03668
857.60781	0.03586
856.32204	0.03514
855.03627	0.03451
853.75050	0.03398
852.46473	0.03350
851.17896	0.03307
849.89319	0.03266
848.60743	0.03229
847.32166	0.03196
846.03589	0.03166
844.75012	0.03141
843.46435	0.03122
842.17858	0.03110
840.89281	0.03101
839.60704	0.03091
838.32128	0.03082
837.03551	0.03077
835.74974	0.03078
834.46397	0.03078
833.17820	0.03072
831.89243	0.03058
830.60666	0.03043
829.32089	0.03031
828.03512	0.03027
826.74936	0.03027
825.46359	0.03027
824.17782	0.03026
822.89205	0.03024
821.60628	0.03018
820.32051	0.03005
819.03474	0.02981
817.74897	0.02954
816.46321	0.02933
815.17744	0.02928
813.89167	0.02938
812.60590	0.02959
811.32013	0.02983
810.03436	0.03002
808.74859	0.03010
807.46282	0.03008
806.17705	0.03002
804.89129	0.02999
803.60552	0.03005
802.31975	0.03020
801.03398	0.03037
799.74821	0.03045
798.46244	0.03041
797.17667	0.03034
795.89090	0.03031
794.60513	0.03032
793.31937	0.03032
792.03360	0.03027
790.74783	0.03022
789.46206	0.03018
788.17629	0.03014
786.89052	0.03010
785.60475	0.03003
784.31898	0.02994
783.03322	0.02985
781.74745	0.02978
780.46168	0.02973
779.17591	0.02967
777.89014	0.02965
776.60437	0.02969
775.31860	0.02979
774.03283	0.02987
772.74706	0.02989
771.46130	0.02985
770.17553	0.02981
768.88976	0.02979
767.60399	0.02977
766.31822	0.02974
765.03245	0.02968
763.74668	0.02965
762.46091	0.02968
761.17515	0.02980
759.88938	0.02997
758.60361	0.03012
757.31784	0.03018
756.03207	0.03018
754.74630	0.03015
753.46053	0.03014
752.17476	0.03014
750.88899	0.03013
749.60323	0.03007
748.31746	0.02996
747.03169	0.02981
745.74592	0.02969
744.46015	0.02961
743.17438	0.02960
741.88861	0.02967
740.60284	0.02978
739.31708	0.02989
738.03131	0.02988
736.74554	0.02973
735.45977	0.02950
734.17400	0.02933
732.88823	0.02928
731.60246	0.02930
730.31669	0.02927
729.03092	0.02916
727.74516	0.02903
726.45939	0.02897
725.17362	0.02901
723.88785	0.02912
722.60208	0.02916
721.31631	0.02919
720.03054	0.02923
718.74477	0.02927
717.45901	0.02929
716.17324	0.02928
714.88747	0.02923
713.60170	0.02915
712.31593	0.02905
711.03016	0.02896
709.74439	0.02888
708.45862	0.02878
707.17285	0.02868
705.88709	0.02862
704.60132	0.02861
703.31555	0.02864
702.02978	0.02863
700.74401	0.02863
699.45824	0.02866
698.17247	0.02874
696.88670	0.02883
695.60094	0.02889
694.31517	0.02891
693.02940	0.02890
691.74363	0.02887
690.45786	0.02883
689.17209	0.02875
687.88632	0.02868
686.60055	0.02861
685.31478	0.02855
684.02902	0.02848
682.74325	0.02836
681.45748	0.02822
680.17171	0.02813
678.88594	0.02810
677.60017	0.02813
676.31440	0.02816
675.02863	0.02819
673.74287	0.02823
672.45710	0.02827
671.17133	0.02833
669.88556	0.02839
668.59979	0.02846
667.31402	0.02853
666.02825	0.02849
664.74248	0.02836
663.45671	0.02821
662.17095	0.02808
660.88518	0.02799
659.59941	0.02792
658.31364	0.02786
657.02787	0.02778
655.74210	0.02773
654.45633	0.02769
653.17056	0.02768
651.88480	0.02767
650.59903	0.02767
649.31326	0.02768
648.02749	0.02768
646.74172	0.02765
645.45595	0.02761
644.17018	0.02757
642.88441	0.02758
641.59864	0.02765
640.31288	0.02780
639.02711	0.02797
637.74134	0.02811
636.45557	0.02822
635.16980	0.02841
633.88403	0.02878
632.59826	0.02933
631.31249	0.02978
630.02673	0.02958
628.74096	0.02936
627.45519	0.03109
626.16942	0.03119
624.88365	0.03004
623.59788	0.02902
622.31211	0.02914
621.02634	0.03110
619.74057	0.03447
618.45481	0.03783
617.16904	0.04019
615.88327	0.04169
614.59750	0.04294
613.31173	0.04433
612.02596	0.04599
610.74019	0.04819
609.45442	0.05127
608.16866	0.05509
606.88289	0.05875
605.59712	0.06121
604.31135	0.06214
603.02558	0.06209
601.73981	0.06183
600.45404	0.06169
599.16827	0.06144
597.88250	0.06080
596.59674	0.05978
595.31097	0.05860
594.02520	0.05752
592.73943	0.05668
591.45366	0.05615
590.16789	0.05595
588.88212	0.05611
587.59635	0.05662
586.31059	0.05744
585.02482	0.05846
583.73905	0.05964
582.45328	0.06096
581.16751	0.06240
579.88174	0.06388
578.59597	0.06534
577.31020	0.06674
576.02443	0.06812
574.73867	0.06943
573.45290	0.07063
572.16713	0.07173
570.88136	0.07286
569.59559	0.07431
568.30982	0.07628
567.02405	0.07877
565.73828	0.08151
564.45251	0.08402
563.16675	0.08583
561.88098	0.08655
560.59521	0.08594
559.30944	0.08397
558.02367	0.08082
556.73790	0.07687
555.45213	0.07259
554.16636	0.06835
552.88060	0.06436
551.59483	0.06070
550.30906	0.05741
549.02329	0.05456
547.73752	0.05225
546.45175	0.05043
545.16598	0.04895
543.88021	0.04760
542.59444	0.04633
541.30868	0.04524
540.02291	0.04435
538.73714	0.04357
537.45137	0.04281
536.16560	0.04204
534.87983	0.04131
533.59406	0.04061
532.30829	0.03990
531.02253	0.03916
529.73676	0.03840
528.45099	0.03767
527.16522	0.03706
525.87945	0.03660
524.59368	0.03628
523.30791	0.03601
522.02214	0.03568
520.73637	0.03525
519.45061	0.03477
518.16484	0.03429
516.87907	0.03384
515.59330	0.03338
514.30753	0.03293
513.02176	0.03252
511.73599	0.03217
510.45022	0.03188
509.16446	0.03165
507.87869	0.03145
506.59292	0.03125
505.30715	0.03104
504.02138	0.03081
502.73561	0.03060
501.44984	0.03043
500.16407	0.03034
498.87830	0.03032
497.59254	0.03033
496.30677	0.03033
495.02100	0.03027
493.73523	0.03021
492.44946	0.03021
491.16369	0.03032
489.87792	0.03051
488.59215	0.03072
487.30639	0.03091
486.02062	0.03111
484.73485	0.03132
483.44908	0.03158
482.16331	0.03191
480.87754	0.03236
479.59177	0.03292
478.30600	0.03355
477.02023	0.03422
475.73447	0.03490
474.44870	0.03555
473.16293	0.03608
471.87716	0.03645
470.59139	0.03661
469.30562	0.03663
468.01985	0.03659
466.73408	0.03651
465.44832	0.03639
464.16255	0.03622
462.87678	0.03604
461.59101	0.03591
460.30524	0.03576
459.01947	0.03556
457.73370	0.03530
456.44793	0.03508
455.16216	0.03493
453.87640	0.03480
452.59063	0.03464
451.30486	0.03443
450.01909	0.03422
448.73332	0.03405
447.44755	0.03389
446.16178	0.03373
444.87601	0.03354
443.59025	0.03338
442.30448	0.03327
441.01871	0.03323
439.73294	0.03322
438.44717	0.03319
437.16140	0.03312
435.87563	0.03302
434.58986	0.03292
433.30409	0.03284
432.01833	0.03280
430.73256	0.03279
429.44679	0.03280
428.16102	0.03280
426.87525	0.03278
425.58948	0.03270
424.30371	0.03259
423.01794	0.03245
421.73218	0.03228
420.44641	0.03210
419.16064	0.03192
417.87487	0.03180
416.58910	0.03172
415.30333	0.03167
414.01756	0.03160
412.73179	0.03152
411.44602	0.03145
410.16026	0.03141
408.87449	0.03141
407.58872	0.03142
406.30295	0.03141
405.01718	0.03133
403.73141	0.03125
402.44564	0.03125
401.15987	0.03142
399.87411	0.03171
