3997.45528	0.04368
3996.16951	0.04312
3994.88374	0.04254
3993.59798	0.04211
3992.31221	0.04219
3991.02644	0.04298
3989.74067	0.04430
3988.45490	0.04568
3987.16913	0.04669
3985.88336	0.04707
3984.59759	0.04686
3983.31183	0.04626
3982.02606	0.04564
3980.74029	0.04520
3979.45452	0.04497
3978.16875	0.04484
3976.88298	0.04474
3975.59721	0.04470
3974.31144	0.04479
3973.02567	0.04506
3971.73991	0.04539
3970.45414	0.04558
3969.16837	0.04557
3967.88260	0.04551
3966.59683	0.04556
3965.31106	0.04562
3964.02529	0.04543
3962.73952	0.04491
3961.45376	0.04424
3960.16799	0.04367
3958.88222	0.04332
3957.59645	0.04315
3956.31068	0.04310
3955.02491	0.04304
3953.73914	0.04291
3952.45337	0.04279
3951.16760	0.04277
3949.88184	0.04279
3948.59607	0.04269
3947.31030	0.04240
3946.02453	0.04195
3944.73876	0.04134
3943.45299	0.04075
3942.16722	0.04046
3940.88145	0.04061
3939.59569	0.04101
3938.30992	0.04142
3937.02415	0.04173
3935.73838	0.04200
3934.45261	0.04217
3933.16684	0.04213
3931.88107	0.04191
3930.59530	0.04173
3929.30953	0.04195
3928.02377	0.04268
3926.73800	0.04363
3925.45223	0.04430
3924.16646	0.04448
3922.88069	0.04427
3921.59492	0.04389
3920.30915	0.04342
3919.02338	0.04290
3917.73762	0.04229
3916.45185	0.04165
3915.16608	0.04113
3913.88031	0.04093
3912.59454	0.04112
3911.30877	0.04152
3910.02300	0.04182
3908.73723	0.04190
3907.45146	0.04183
3906.16570	0.04169
3904.87993	0.04158
3903.59416	0.04166
3902.30839	0.04199
3901.02262	0.04240
3899.73685	0.04261
3898.45108	0.04244
3897.16531	0.04197
3895.87955	0.04150
3894.59378	0.04135
3893.30801	0.04161
3892.02224	0.04204
3890.73647	0.04229
3889.45070	0.04214
3888.16493	0.04163
3886.87916	0.04110
3885.59339	0.04100
3884.30763	0.04139
3883.02186	0.04181
3881.73609	0.04189
3880.45032	0.04163
3879.16455	0.04126
3877.87878	0.04082
3876.59301	0.04037
3875.30724	0.04025
3874.02148	0.04072
3872.73571	0.04147
3871.44994	0.04188
3870.16417	0.04186
3868.87840	0.04180
3867.59263	0.04186
3866.30686	0.04180
3865.02109	0.04141
3863.73532	0.04074
3862.44956	0.04000
3861.16379	0.03946
3859.87802	0.03935
3858.59225	0.03966
3857.30648	0.04008
3856.02071	0.04016
3854.73494	0.03984
3853.44917	0.03958
3852.16341	0.03984
3850.87764	0.04051
3849.59187	0.04113
3848.30610	0.04131
3847.02033	0.04106
3845.73456	0.04060
3844.44879	0.04017
3843.16302	0.03985
3841.87725	0.03958
3840.59149	0.03933
3839.30572	0.03923
3838.01995	0.03952
3836.73418	0.04025
3835.44841	0.04109
3834.16264	0.04169
3832.87687	0.04190
3831.59110	0.04172
3830.30534	0.04120
3829.01957	0.04051
3827.73380	0.04001
3826.44803	0.04005
3825.16226	0.04064
3823.87649	0.04126
3822.59072	0.04150
3821.30495	0.04144
3820.01918	0.04141
3818.73342	0.04135
3817.44765	0.04096
3816.16188	0.04034
3814.87611	0.03996
3813.59034	0.04003
3812.30457	0.04038
3811.01880	0.04070
3809.73303	0.04066
3808.44726	0.04019
3807.16150	0.03971
3805.87573	0.03967
3804.58996	0.03989
3803.30419	0.03983
3802.01842	0.03945
3800.73265	0.03922
3799.44688	0.03939
3798.16111	0.03967
3796.87535	0.03979
3795.58958	0.03979
3794.30381	0.03982
3793.01804	0.03987
3791.73227	0.03974
3790.44650	0.03923
3789.16073	0.03842
3787.87496	0.03764
3786.58919	0.03724
3785.30343	0.03737
3784.01766	0.03796
3782.73189	0.03882
3781.44612	0.03960
3780.16035	0.03996
3778.87458	0.03984
3777.58881	0.03946
3776.30304	0.03906
3775.01728	0.03875
3773.73151	0.03856
3772.44574	0.03842
3771.15997	0.03836
3769.87420	0.03841
3768.58843	0.03855
3767.30266	0.03862
3766.01689	0.03852
3764.73112	0.03832
3763.44536	0.03817
3762.15959	0.03809
3760.87382	0.03798
3759.58805	0.03776
3758.30228	0.03755
3757.01651	0.03764
3755.73074	0.03813
3754.44497	0.03861
3753.15921	0.03852
3751.87344	0.03779
3750.58767	0.03700
3749.30190	0.03685
3748.01613	0.03734
3746.73036	0.03761
3745.44459	0.03717
3744.15882	0.03664
3742.87305	0.03690
3741.58729	0.03799
3740.30152	0.03929
3739.01575	0.04003
3737.72998	0.03983
3736.44421	0.03895
3735.15844	0.03805
3733.87267	0.03749
3732.58690	0.03729
3731.30114	0.03732
3730.01537	0.03741
3728.72960	0.03734
3727.44383	0.03704
3726.15806	0.03661
3724.87229	0.03616
3723.58652	0.03577
3722.30075	0.03551
3721.01498	0.03547
3719.72922	0.03570
3718.44345	0.03625
3717.15768	0.03707
3715.87191	0.03792
3714.58614	0.03840
3713.30037	0.03838
3712.01460	0.03825
3710.72883	0.03849
3709.44307	0.03915
3708.15730	0.03972
3706.87153	0.03961
3705.58576	0.03863
3704.29999	0.03722
3703.01422	0.03618
3701.72845	0.03598
3700.44268	0.03636
3699.15691	0.03663
3697.87115	0.03641
3696.58538	0.03596
3695.29961	0.03588
3694.01384	0.03639
3692.72807	0.03714
3691.44230	0.03763
3690.15653	0.03758
3688.87076	0.03706
3687.58500	0.03639
3686.29923	0.03578
3685.01346	0.03521
3683.72769	0.03482
3682.44192	0.03493
3681.15615	0.03572
3679.87038	0.03698
3678.58461	0.03806
3677.29884	0.03830
3676.01308	0.03775
3674.72731	0.03706
3673.44154	0.03673
3672.15577	0.03679
3670.87000	0.03720
3669.58423	0.03778
3668.29846	0.03807
3667.01269	0.03775
3665.72693	0.03710
3664.44116	0.03676
3663.15539	0.03704
3661.86962	0.03774
3660.58385	0.03832
3659.29808	0.03824
3658.01231	0.03732
3656.72654	0.03608
3655.44077	0.03544
3654.15501	0.03588
3652.86924	0.03703
3651.58347	0.03814
3650.29770	0.03884
3649.01193	0.03922
3647.72616	0.03955
3646.44039	0.03998
3645.15462	0.04042
3643.86886	0.04065
3642.58309	0.04054
3641.29732	0.04018
3640.01155	0.03986
3638.72578	0.03983
3637.44001	0.04012
3636.15424	0.04049
3634.86847	0.04075
3633.58270	0.04095
3632.29694	0.04117
3631.01117	0.04135
3629.72540	0.04138
3628.43963	0.04131
3627.15386	0.04125
3625.86809	0.04127
3624.58232	0.04144
3623.29655	0.04171
3622.01079	0.04185
3620.72502	0.04180
3619.43925	0.04185
3618.15348	0.04219
3616.86771	0.04260
3615.58194	0.04276
3614.29617	0.04279
3613.01040	0.04313
3611.72463	0.04383
3610.43887	0.04445
3609.15310	0.04465
3607.86733	0.04462
3606.58156	0.04476
3605.29579	0.04517
3604.01002	0.04567
3602.72425	0.04601
3601.43848	0.04608
3600.15272	0.04585
3598.86695	0.04535
3597.58118	0.04469
3596.29541	0.04418
3595.00964	0.04423
3593.72387	0.04498
3592.43810	0.04615
3591.15233	0.04719
3589.86656	0.04770
3588.58080	0.04756
3587.29503	0.04689
3586.00926	0.04606
3584.72349	0.04551
3583.43772	0.04544
3582.15195	0.04578
3580.86618	0.04634
3579.58041	0.04700
3578.29464	0.04776
3577.00888	0.04856
3575.72311	0.04928
3574.43734	0.04992
3573.15157	0.05071
3571.86580	0.05177
3570.58003	0.05298
3569.29426	0.05395
3568.00849	0.05438
3566.72273	0.05417
3565.43696	0.05343
3564.15119	0.05248
3562.86542	0.05180
3561.57965	0.05179
3560.29388	0.05245
3559.00811	0.05333
3557.72234	0.05389
3556.43657	0.05383
3555.15081	0.05326
3553.86504	0.05250
3552.57927	0.05195
3551.29350	0.05193
3550.00773	0.05247
3548.72196	0.05337
3547.43619	0.05435
3546.15042	0.05520
3544.86466	0.05585
3543.57889	0.05629
3542.29312	0.05657
3541.00735	0.05691
3539.72158	0.05746
3538.43581	0.05812
3537.15004	0.05856
3535.86427	0.05859
3534.57850	0.05840
3533.29274	0.05830
3532.00697	0.05831
3530.72120	0.05818
3529.43543	0.05775
3528.14966	0.05728
3526.86389	0.05717
3525.57812	0.05763
3524.29235	0.05849
3523.00659	0.05939
3521.72082	0.06003
3520.43505	0.06028
3519.14928	0.06018
3517.86351	0.05990
3516.57774	0.05965
3515.29197	0.05969
3514.00620	0.06013
3512.72043	0.06080
3511.43467	0.06129
3510.14890	0.06135
3508.86313	0.06112
3507.57736	0.06087
3506.29159	0.06077
3505.00582	0.06082
3503.72005	0.06101
3502.43428	0.06126
3501.14852	0.06143
3499.86275	0.06144
3498.57698	0.06142
3497.29121	0.06165
3496.00544	0.06227
3494.71967	0.06315
3493.43390	0.06401
3492.14813	0.06459
3490.86236	0.06474
3489.57660	0.06451
3488.29083	0.06410
3487.00506	0.06379
3485.71929	0.06371
3484.43352	0.06384
3483.14775	0.06400
3481.86198	0.06410
3480.57621	0.06415
3479.29045	0.06428
3478.00468	0.06461
3476.71891	0.06514
3475.43314	0.06578
3474.14737	0.06636
3472.86160	0.06667
3471.57583	0.06669
3470.29006	0.06667
3469.00429	0.06697
3467.71853	0.06772
3466.43276	0.06873
3465.14699	0.06946
3463.86122	0.06945
3462.57545	0.06868
3461.28968	0.06774
3460.00391	0.06730
3458.71814	0.06750
3457.43238	0.06792
3456.14661	0.06810
3454.86084	0.06796
3453.57507	0.06779
3452.28930	0.06790
3451.00353	0.06836
3449.71776	0.06892
3448.43199	0.06927
3447.14622	0.06930
3445.86046	0.06925
3444.57469	0.06940
3443.28892	0.06977
3442.00315	0.07015
3440.71738	0.07037
3439.43161	0.07045
3438.14584	0.07051
3436.86007	0.07056
3435.57431	0.07052
3434.28854	0.07036
3433.00277	0.07013
3431.71700	0.06991
3430.43123	0.06977
3429.14546	0.06975
3427.85969	0.06996
3426.57392	0.07039
3425.28815	0.07080
3424.00239	0.07096
3422.71662	0.07080
3421.43085	0.07057
3420.14508	0.07054
3418.85931	0.07084
3417.57354	0.07132
3416.28777	0.07179
3415.00200	0.07216
3413.71624	0.07243
3412.43047	0.07259
3411.14470	0.07256
3409.85893	0.07226
3408.57316	0.07177
3407.28739	0.07127
3406.00162	0.07101
3404.71585	0.07110
3403.43008	0.07149
3402.14432	0.07206
3400.85855	0.07260
3399.57278	0.07285
3398.28701	0.07284
3397.00124	0.07275
3395.71547	0.07273
3394.42970	0.07278
3393.14393	0.07283
3391.85817	0.07294
3390.57240	0.07325
3389.28663	0.07377
3388.00086	0.07431
3386.71509	0.07460
3385.42932	0.07459
3384.14355	0.07445
3382.85778	0.07439
3381.57201	0.07447
3380.28625	0.07464
3379.00048	0.07477
3377.71471	0.07473
3376.42894	0.07441
3375.14317	0.07385
3373.85740	0.07325
3372.57163	0.07294
3371.28586	0.07312
3370.00010	0.07369
3368.71433	0.07429
3367.42856	0.07458
3366.14279	0.07449
3364.85702	0.07424
3363.57125	0.07406
3362.28548	0.07404
3360.99971	0.07405
3359.71394	0.07397
3358.42818	0.07378
3357.14241	0.07369
3355.85664	0.07393
3354.57087	0.07447
3353.28510	0.07503
3351.99933	0.07531
3350.71356	0.07520
3349.42779	0.07487
3348.14202	0.07459
3346.85626	0.07457
3345.57049	0.07477
3344.28472	0.07498
3342.99895	0.07500
3341.71318	0.07484
3340.42741	0.07457
3339.14164	0.07425
3337.85587	0.07390
3336.57011	0.07363
3335.28434	0.07356
3333.99857	0.07371
3332.71280	0.07397
3331.42703	0.07422
3330.14126	0.07446
3328.85549	0.07471
3327.56972	0.07491
3326.28395	0.07494
3324.99819	0.07478
3323.71242	0.07455
3322.42665	0.07432
3321.14088	0.07409
3319.85511	0.07390
3318.56934	0.07384
3317.28357	0.07399
3315.99780	0.07424
3314.71204	0.07434
3313.42627	0.07409
3312.14050	0.07356
3310.85473	0.07310
3309.56896	0.07298
3308.28319	0.07321
3306.99742	0.07355
3305.71165	0.07376
3304.42588	0.07373
3303.14012	0.07356
3301.85435	0.07345
3300.56858	0.07358
3299.28281	0.07390
3297.99704	0.07416
3296.71127	0.07417
3295.42550	0.07396
3294.13973	0.07368
3292.85397	0.07341
3291.56820	0.07312
3290.28243	0.07282
3288.99666	0.07267
3287.71089	0.07283
3286.42512	0.07322
3285.13935	0.07353
3283.85358	0.07362
3282.56781	0.07358
3281.28205	0.07356
3279.99628	0.07359
3278.71051	0.07363
3277.42474	0.07370
3276.13897	0.07373
3274.85320	0.07357
3273.56743	0.07310
3272.28166	0.07245
3270.99590	0.07193
3269.71013	0.07180
3268.42436	0.07209
3267.13859	0.07258
3265.85282	0.07295
3264.56705	0.07306
3263.28128	0.07294
3261.99551	0.07268
3260.70974	0.07233
3259.42398	0.07186
3258.13821	0.07138
3256.85244	0.07110
3255.56667	0.07116
3254.28090	0.07149
3252.99513	0.07184
3251.70936	0.07198
3250.42359	0.07184
3249.13783	0.07153
3247.85206	0.07124
3246.56629	0.07107
3245.28052	0.07091
3243.99475	0.07060
3242.70898	0.07013
3241.42321	0.06971
3240.13744	0.06960
3238.85167	0.06983
3237.56591	0.07019
3236.28014	0.07034
3234.99437	0.07008
3233.70860	0.06946
3232.42283	0.06876
3231.13706	0.06832
3229.85129	0.06826
3228.56552	0.06844
3227.27976	0.06861
3225.99399	0.06861
3224.70822	0.06851
3223.42245	0.06848
3222.13668	0.06859
3220.85091	0.06871
3219.56514	0.06865
3218.27937	0.06845
3216.99360	0.06838
3215.70784	0.06862
3214.42207	0.06903
3213.13630	0.06922
3211.85053	0.06900
3210.56476	0.06855
3209.27899	0.06822
3207.99322	0.06809
3206.70745	0.06799
3205.42169	0.06784
3204.13592	0.06774
3202.85015	0.06782
3201.56438	0.06797
3200.27861	0.06795
3198.99284	0.06766
3197.70707	0.06726
3196.42130	0.06702
3195.13553	0.06707
3193.84977	0.06724
3192.56400	0.06723
3191.27823	0.06688
3189.99246	0.06630
3188.70669	0.06579
3187.42092	0.06559
3186.13515	0.06555
3184.84938	0.06537
3183.56362	0.06496
3182.27785	0.06461
3180.99208	0.06464
3179.70631	0.06504
3178.42054	0.06547
3177.13477	0.06555
3175.84900	0.06513
3174.56323	0.06448
3173.27746	0.06403
3171.99170	0.06402
3170.70593	0.06428
3169.42016	0.06443
3168.13439	0.06428
3166.84862	0.06396
3165.56285	0.06370
3164.27708	0.06354
3162.99131	0.06335
3161.70555	0.06304
3160.41978	0.06274
3159.13401	0.06271
3157.84824	0.06299
3156.56247	0.06332
3155.27670	0.06339
3153.99093	0.06316
3152.70516	0.06286
3151.41939	0.06272
3150.13363	0.06268
3148.84786	0.06251
3147.56209	0.06207
3146.27632	0.06151
3144.99055	0.06111
3143.70478	0.06103
3142.41901	0.06114
3141.13324	0.06120
3139.84748	0.06101
3138.56171	0.06066
3137.27594	0.06039
3135.99017	0.06039
3134.70440	0.06061
3133.41863	0.06086
3132.13286	0.06097
3130.84709	0.06094
3129.56132	0.06083
3128.27556	0.06070
3126.98979	0.06060
3125.70402	0.06053
3124.41825	0.06051
3123.13248	0.06054
3121.84671	0.06062
3120.56094	0.06071
3119.27517	0.06076
3117.98940	0.06070
3116.70364	0.06053
3115.41787	0.06023
3114.13210	0.05985
3112.84633	0.05955
3111.56056	0.05941
3110.27479	0.05937
3108.98902	0.05923
3107.70325	0.05898
3106.41749	0.05882
3105.13172	0.05896
3103.84595	0.05931
3102.56018	0.05949
3101.27441	0.05930
3099.98864	0.05893
3098.70287	0.05877
3097.41710	0.05894
3096.13133	0.05924
3094.84557	0.05943
3093.55980	0.05946
3092.27403	0.05936
3090.98826	0.05909
3089.70249	0.05860
3088.41672	0.05800
3087.13095	0.05748
3085.84518	0.05718
3084.55942	0.05705
3083.27365	0.05699
3081.98788	0.05697
3080.70211	0.05700
3079.41634	0.05712
3078.13057	0.05728
3076.84480	0.05742
3075.55903	0.05743
3074.27326	0.05720
3072.98750	0.05678
3071.70173	0.05639
3070.41596	0.05628
3069.13019	0.05646
3067.84442	0.05671
3066.55865	0.05678
3065.27288	0.05658
3063.98711	0.05624
3062.70135	0.05590
3061.41558	0.05562
3060.12981	0.05541
3058.84404	0.05518
3057.55827	0.05490
3056.27250	0.05465
3054.98673	0.05461
3053.70096	0.05491
3052.41519	0.05547
3051.12943	0.05605
3049.84366	0.05642
3048.55789	0.05649
3047.27212	0.05625
3045.98635	0.05583
3044.70058	0.05540
3043.41481	0.05506
3042.12904	0.05477
3040.84328	0.05443
3039.55751	0.05400
3038.27174	0.05357
3036.98597	0.05322
3035.70020	0.05293
3034.41443	0.05270
3033.12866	0.05260
3031.84289	0.05272
3030.55712	0.05297
3029.27136	0.05311
3027.98559	0.05300
3026.69982	0.05273
3025.41405	0.05254
3024.12828	0.05248
3022.84251	0.05244
3021.55674	0.05232
3020.27097	0.05217
3018.98521	0.05213
3017.69944	0.05222
3016.41367	0.05234
3015.12790	0.05236
3013.84213	0.05222
3012.55636	0.05201
3011.27059	0.05181
3009.98482	0.05166
3008.69905	0.05153
3007.41329	0.05138
3006.12752	0.05121
3004.84175	0.05111
3003.55598	0.05112
3002.27021	0.05119
3000.98444	0.05125
2999.69867	0.05126
2998.41290	0.05140
2997.12714	0.05162
2995.84137	0.05183
2994.55560	0.05194
2993.26983	0.05200
2991.98406	0.05208
2990.69829	0.05214
2989.41252	0.05208
2988.12675	0.05182
2986.84098	0.05145
2985.55522	0.05120
2984.26945	0.05125
2982.98368	0.05157
2981.69791	0.05198
2980.41214	0.05224
2979.12637	0.05219
2977.84060	0.05186
2976.55483	0.05147
2975.26907	0.05130
2973.98330	0.05148
2972.69753	0.05193
2971.41176	0.05245
2970.12599	0.05287
2968.84022	0.05315
2967.55445	0.05335
2966.26868	0.05362
2964.98291	0.05409
2963.69715	0.05477
2962.41138	0.05554
2961.12561	0.05623
2959.83984	0.05670
2958.55407	0.05695
2957.26830	0.05707
2955.98253	0.05712
2954.69676	0.05708
2953.41100	0.05697
2952.12523	0.05684
2950.83946	0.05681
2949.55369	0.05687
2948.26792	0.05690
2946.98215	0.05687
2945.69638	0.05679
2944.41061	0.05668
2943.12484	0.05650
2941.83908	0.05622
2940.55331	0.05591
2939.26754	0.05570
2937.98177	0.05568
2936.69600	0.05589
2935.41023	0.05631
2934.12446	0.05684
2932.83869	0.05742
2931.55293	0.05789
2930.26716	0.05812
2928.98139	0.05801
2927.69562	0.05766
2926.40985	0.05728
2925.12408	0.05703
2923.83831	0.05693
2922.55254	0.05686
2921.26677	0.05669
2919.98101	0.05641
2918.69524	0.05610
2917.40947	0.05584
2916.12370	0.05566
2914.83793	0.05550
2913.55216	0.05529
2912.26639	0.05500
2910.98062	0.05469
2909.69486	0.05442
2908.40909	0.05413
2907.12332	0.05374
2905.83755	0.05326
2904.55178	0.05280
2903.26601	0.05240
2901.98024	0.05208
2900.69447	0.05187
2899.40870	0.05181
2898.12294	0.05183
2896.83717	0.05174
2895.55140	0.05146
2894.26563	0.05115
2892.97986	0.05101
2891.69409	0.05104
2890.40832	0.05111
2889.12255	0.05110
2887.83678	0.05100
2886.55102	0.05085
2885.26525	0.05065
2883.97948	0.05041
2882.69371	0.05016
2881.40794	0.04995
2880.12217	0.04981
2878.83640	0.04979
2877.55063	0.04996
2876.26487	0.05028
2874.97910	0.05067
2873.69333	0.05097
2872.40756	0.05105
2871.12179	0.05082
2869.83602	0.05035
2868.55025	0.04983
2867.26448	0.04944
2865.97871	0.04925
2864.69295	0.04921
2863.40718	0.04924
2862.12141	0.04919
2860.83564	0.04895
2859.54987	0.04855
2858.26410	0.04810
2856.97833	0.04776
2855.69256	0.04762
2854.40680	0.04764
2853.12103	0.04772
2851.83526	0.04772
2850.54949	0.04759
2849.26372	0.04735
2847.97795	0.04704
2846.69218	0.04671
2845.40641	0.04641
2844.12064	0.04614
2842.83488	0.04590
2841.54911	0.04566
2840.26334	0.04539
2838.97757	0.04510
2837.69180	0.04476
2836.40603	0.04439
2835.12026	0.04400
2833.83449	0.04368
2832.54873	0.04345
2831.26296	0.04329
2829.97719	0.04315
2828.69142	0.04299
2827.40565	0.04278
2826.11988	0.04255
2824.83411	0.04236
2823.54834	0.04226
2822.26257	0.04224
2820.97681	0.04220
2819.69104	0.04212
2818.40527	0.04207
2817.11950	0.04209
2815.83373	0.04203
2814.54796	0.04171
2813.26219	0.04115
2811.97642	0.04063
2810.69066	0.04042
2809.40489	0.04058
2808.11912	0.04087
2806.83335	0.04099
2805.54758	0.04081
2804.26181	0.04041
2802.97604	0.03998
2801.69027	0.03965
2800.40450	0.03948
2799.11874	0.03944
2797.83297	0.03946
2796.54720	0.03949
2795.26143	0.03947
2793.97566	0.03936
2792.68989	0.03915
2791.40412	0.03883
2790.11835	0.03853
2788.83259	0.03838
2787.54682	0.03838
2786.26105	0.03837
2784.97528	0.03828
2783.68951	0.03817
2782.40374	0.03810
2781.11797	0.03809
2779.83220	0.03808
2778.54643	0.03808
2777.26067	0.03809
2775.97490	0.03811
2774.68913	0.03814
2773.40336	0.03819
2772.11759	0.03827
2770.83182	0.03834
2769.54605	0.03836
2768.26028	0.03831
2766.97452	0.03822
2765.68875	0.03814
2764.40298	0.03808
2763.11721	0.03802
2761.83144	0.03794
2760.54567	0.03782
2759.25990	0.03768
2757.97413	0.03758
2756.68836	0.03753
2755.40260	0.03749
2754.11683	0.03739
2752.83106	0.03723
2751.54529	0.03703
2750.25952	0.03689
2748.97375	0.03683
2747.68798	0.03684
2746.40221	0.03688
2745.11645	0.03696
2743.83068	0.03705
2742.54491	0.03714
2741.25914	0.03724
2739.97337	0.03732
2738.68760	0.03729
2737.40183	0.03709
2736.11606	0.03679
2734.83029	0.03657
2733.54453	0.03649
2732.25876	0.03649
2730.97299	0.03651
2729.68722	0.03652
2728.40145	0.03652
2727.11568	0.03646
2725.82991	0.03635
2724.54414	0.03625
2723.25838	0.03626
2721.97261	0.03638
2720.68684	0.03649
2719.40107	0.03647
2718.11530	0.03627
2716.82953	0.03600
2715.54376	0.03573
2714.25799	0.03553
2712.97222	0.03538
2711.68646	0.03523
2710.40069	0.03507
2709.11492	0.03494
2707.82915	0.03491
2706.54338	0.03500
2705.25761	0.03516
2703.97184	0.03529
2702.68607	0.03529
2701.40031	0.03516
2700.11454	0.03498
2698.82877	0.03482
2697.54300	0.03473
2696.25723	0.03473
2694.97146	0.03483
2693.68569	0.03496
2692.39992	0.03499
2691.11415	0.03484
2689.82839	0.03458
2688.54262	0.03438
2687.25685	0.03430
2685.97108	0.03432
2684.68531	0.03437
2683.39954	0.03444
2682.11377	0.03448
2680.82800	0.03447
2679.54224	0.03441
2678.25647	0.03429
2676.97070	0.03416
2675.68493	0.03404
2674.39916	0.03396
2673.11339	0.03393
2671.82762	0.03397
2670.54185	0.03404
2669.25608	0.03404
2667.97032	0.03393
2666.68455	0.03382
2665.39878	0.03383
2664.11301	0.03401
2662.82724	0.03427
2661.54147	0.03451
2660.25570	0.03465
2658.96993	0.03470
2657.68417	0.03464
2656.39840	0.03451
2655.11263	0.03437
2653.82686	0.03432
2652.54109	0.03438
2651.25532	0.03447
2649.96955	0.03452
2648.68378	0.03443
2647.39801	0.03422
2646.11225	0.03398
2644.82648	0.03381
2643.54071	0.03373
2642.25494	0.03359
2640.96917	0.03329
2639.68340	0.03286
2638.39763	0.03248
2637.11186	0.03230
2635.82609	0.03234
2634.54033	0.03248
2633.25456	0.03261
2631.96879	0.03266
2630.68302	0.03265
2629.39725	0.03261
2628.11148	0.03253
2626.82571	0.03235
2625.53994	0.03201
2624.25418	0.03156
2622.96841	0.03114
2621.68264	0.03088
2620.39687	0.03075
2619.11110	0.03065
2617.82533	0.03052
2616.53956	0.03044
2615.25379	0.03051
2613.96802	0.03065
2612.68226	0.03070
2611.39649	0.03058
2610.11072	0.03033
2608.82495	0.03011
2607.53918	0.03002
2606.25341	0.03009
2604.96764	0.03019
2603.68187	0.03018
2602.39611	0.03004
2601.11034	0.02990
2599.82457	0.02980
2598.53880	0.02973
2597.25303	0.02967
2595.96726	0.02971
2594.68149	0.02983
2593.39572	0.02983
2592.10995	0.02957
2590.82419	0.02917
2589.53842	0.02889
2588.25265	0.02881
2586.96688	0.02883
2585.68111	0.02888
2584.39534	0.02892
2583.10957	0.02893
2581.82380	0.02880
2580.53804	0.02847
2579.25227	0.02802
2577.96650	0.02767
2576.68073	0.02762
2575.39496	0.02785
2574.10919	0.02809
2572.82342	0.02802
2571.53765	0.02757
2570.25188	0.02708
2568.96612	0.02687
2567.68035	0.02696
2566.39458	0.02704
2565.10881	0.02691
2563.82304	0.02669
2562.53727	0.02655
2561.25150	0.02647
2559.96573	0.02628
2558.67997	0.02593
2557.39420	0.02560
2556.10843	0.02545
2554.82266	0.02554
2553.53689	0.02579
2552.25112	0.02608
2550.96535	0.02622
2549.67958	0.02610
2548.39381	0.02577
2547.10805	0.02549
2545.82228	0.02562
2544.53651	0.02619
2543.25074	0.02689
2541.96497	0.02728
2540.67920	0.02724
2539.39343	0.02701
2538.10766	0.02687
2536.82190	0.02684
2535.53613	0.02680
2534.25036	0.02666
2532.96459	0.02641
2531.67882	0.02611
2530.39305	0.02586
2529.10728	0.02579
2527.82151	0.02591
2526.53574	0.02605
2525.24998	0.02607
2523.96421	0.02596
2522.67844	0.02582
2521.39267	0.02562
2520.10690	0.02528
2518.82113	0.02481
2517.53536	0.02445
2516.24959	0.02440
2514.96383	0.02461
2513.67806	0.02488
2512.39229	0.02509
2511.10652	0.02528
2509.82075	0.02542
2508.53498	0.02539
2507.24921	0.02510
2505.96344	0.02469
2504.67767	0.02446
2503.39191	0.02457
2502.10614	0.02491
2500.82037	0.02524
2499.53460	0.02539
2498.24883	0.02539
2496.96306	0.02536
2495.67729	0.02544
2494.39152	0.02561
2493.10576	0.02580
2491.81999	0.02591
2490.53422	0.02584
2489.24845	0.02553
2487.96268	0.02498
2486.67691	0.02429
2485.39114	0.02377
2484.10537	0.02367
2482.81960	0.02399
2481.53384	0.02440
2480.24807	0.02453
2478.96230	0.02435
2477.67653	0.02409
2476.39076	0.02393
2475.10499	0.02389
2473.81922	0.02384
2472.53345	0.02377
2471.24769	0.02371
2469.96192	0.02375
2468.67615	0.02396
2467.39038	0.02434
2466.10461	0.02479
2464.81884	0.02520
2463.53307	0.02543
2462.24730	0.02540
2460.96153	0.02513
2459.67577	0.02469
2458.39000	0.02420
2457.10423	0.02379
2455.81846	0.02361
2454.53269	0.02374
2453.24692	0.02411
2451.96115	0.02444
2450.67538	0.02453
2449.38962	0.02440
2448.10385	0.02421
2446.81808	0.02409
2445.53231	0.02401
2444.24654	0.02390
2442.96077	0.02375
2441.67500	0.02360
2440.38923	0.02356
2439.10346	0.02364
2437.81770	0.02367
2436.53193	0.02353
2435.24616	0.02323
2433.96039	0.02299
2432.67462	0.02293
2431.38885	0.02301
2430.10308	0.02305
2428.81731	0.02297
2427.53155	0.02281
2426.24578	0.02269
2424.96001	0.02257
2423.67424	0.02236
2422.38847	0.02207
2421.10270	0.02187
2419.81693	0.02189
2418.53116	0.02204
2417.24539	0.02217
2415.95963	0.02227
2414.67386	0.02246
2413.38809	0.02277
2412.10232	0.02305
2410.81655	0.02315
2409.53078	0.02302
2408.24501	0.02277
2406.95924	0.02256
2405.67347	0.02247
2404.38771	0.02252
2403.10194	0.02265
2401.81617	0.02277
2400.53040	0.02274
2399.24463	0.02260
2397.95886	0.02217
2396.67309	0.02176
2395.38732	0.02151
2394.10156	0.02145
2392.81579	0.02152
2391.53002	0.02159
2390.24425	0.02159
2388.95848	0.02154
2387.67271	0.02159
2386.38694	0.02183
2385.10117	0.02222
2383.81540	0.02257
2382.52964	0.02276
2381.24387	0.02277
2379.95810	0.02269
2378.67233	0.02261
2377.38656	0.02253
2376.10079	0.02246
2374.81502	0.02242
2373.52925	0.02236
2372.24349	0.02222
2370.95772	0.02202
2369.67195	0.02192
2368.38618	0.02198
2367.10041	0.02216
2365.81464	0.02234
2364.52887	0.02255
2363.24310	0.02276
2361.95733	0.02289
2360.67157	0.02285
2359.38580	0.02285
2358.10003	0.02302
2356.81426	0.02329
2355.52849	0.02362
2354.24272	0.02395
2352.95695	0.02412
2351.67118	0.02396
2350.38542	0.02372
2349.09965	0.02376
2347.81388	0.02395
2346.52811	0.02374
2345.24234	0.02334
2343.95657	0.02354
2342.67080	0.02421
2341.38503	0.02419
2340.09926	0.02343
2338.81350	0.02343
2337.52773	0.02424
2336.24196	0.02397
2334.95619	0.02294
2333.67042	0.02315
2332.38465	0.02406
2331.09888	0.02372
2329.81311	0.02348
2328.52735	0.02475
2327.24158	0.02551
2325.95581	0.02583
2324.67004	0.02687
2323.38427	0.02711
2322.09850	0.02622
2320.81273	0.02576
2319.52696	0.02508
2318.24119	0.02434
2316.95543	0.02439
2315.66966	0.02443
2314.38389	0.02444
2313.09812	0.02465
2311.81235	0.02453
2310.52658	0.02429
2309.24081	0.02395
2307.95504	0.02346
2306.66928	0.02322
2305.38351	0.02314
2304.09774	0.02318
2302.81197	0.02320
2301.52620	0.02300
2300.24043	0.02264
2298.95466	0.02219
2297.66889	0.02179
2296.38312	0.02163
2295.09736	0.02180
2293.81159	0.02236
2292.52582	0.02305
2291.24005	0.02355
2289.95428	0.02359
2288.66851	0.02322
2287.38274	0.02271
2286.09697	0.02230
2284.81121	0.02209
2283.52544	0.02202
2282.23967	0.02202
2280.95390	0.02205
2279.66813	0.02208
2278.38236	0.02203
2277.09659	0.02185
2275.81082	0.02153
2274.52505	0.02121
2273.23929	0.02112
2271.95352	0.02124
2270.66775	0.02126
2269.38198	0.02086
2268.09621	0.02008
2266.81044	0.01932
2265.52467	0.01896
2264.23890	0.01903
2262.95314	0.01920
2261.66737	0.01918
2260.38160	0.01899
2259.09583	0.01878
2257.81006	0.01859
2256.52429	0.01827
2255.23852	0.01772
2253.95275	0.01696
2252.66698	0.01619
2251.38122	0.01558
2250.09545	0.01531
2248.80968	0.01550
2247.52391	0.01558
2246.23814	0.01559
2244.95237	0.01568
2243.66660	0.01598
2242.38083	0.01621
2241.09507	0.01588
2239.80930	0.01496
2238.52353	0.01410
2237.23776	0.01390
2235.95199	0.01437
2234.66622	0.01511
2233.38045	0.01577
2232.09468	0.01614
2230.80891	0.01596
2229.52315	0.01519
2228.23738	0.01417
2226.95161	0.01349
2225.66584	0.01360
2224.38007	0.01442
2223.09430	0.01535
2221.80853	0.01578
2220.52276	0.01566
2219.23700	0.01554
2217.95123	0.01582
2216.66546	0.01631
2215.37969	0.01626
2214.09392	0.01523
2212.80815	0.01359
2211.52238	0.01237
2210.23661	0.01219
2208.95084	0.01267
2207.66508	0.01285
2206.37931	0.01228
2205.09354	0.01137
2203.80777	0.01084
2202.52200	0.01108
2201.23623	0.01193
2199.95046	0.01286
2198.66469	0.01339
2197.37893	0.01340
2196.09316	0.01301
2194.80739	0.01239
2193.52162	0.01175
2192.23585	0.01142
2190.95008	0.01160
2189.66431	0.01215
2188.37854	0.01269
2187.09277	0.01293
2185.80701	0.01281
2184.52124	0.01228
2183.23547	0.01130
2181.94970	0.01006
2180.66393	0.00908
2179.37816	0.00889
2178.09239	0.00937
2176.80662	0.00978
2175.52085	0.00954
2174.23509	0.00890
2172.94932	0.00849
2171.66355	0.00866
2170.37778	0.00920
2169.09201	0.00964
2167.80624	0.00941
2166.52047	0.00823
2165.23470	0.00658
2163.94894	0.00557
2162.66317	0.00569
2161.37740	0.00623
2160.09163	0.00597
2158.80586	0.00462
2157.52009	0.00303
2156.23432	0.00216
2154.94855	0.00234
2153.66278	0.00342
2152.37702	0.00503
2151.09125	0.00663
2149.80548	0.00778
2148.51971	0.00837
2147.23394	0.00859
2145.94817	0.00859
2144.66240	0.00833
2143.37663	0.00773
2142.09087	0.00692
2140.80510	0.00623
2139.51933	0.00607
2138.23356	0.00659
2136.94779	0.00739
2135.66202	0.00777
2134.37625	0.00747
2133.09048	0.00697
2131.80471	0.00691
2130.51895	0.00742
2129.23318	0.00813
2127.94741	0.00867
2126.66164	0.00899
2125.37587	0.00925
2124.09010	0.00960
2122.80433	0.01011
2121.51856	0.01076
2120.23280	0.01148
2118.94703	0.01200
2117.66126	0.01206
2116.37549	0.01162
2115.08972	0.01100
2113.80395	0.01063
2112.51818	0.01081
2111.23241	0.01152
2109.94664	0.01244
2108.66088	0.01301
2107.37511	0.01283
2106.08934	0.01199
2104.80357	0.01115
2103.51780	0.01085
2102.23203	0.01105
2100.94626	0.01120
2099.66049	0.01011
2098.37473	0.00919
2097.08896	0.00863
2095.80319	0.00839
2094.51742	0.00860
2093.23165	0.00925
2091.94588	0.01007
2090.66011	0.01063
2089.37434	0.01065
2088.08857	0.01018
2086.80281	0.00966
2085.51704	0.00954
2084.23127	0.00997
2082.94550	0.01066
2081.65973	0.01110
2080.37396	0.01092
2079.08819	0.01016
2077.80242	0.00928
2076.51666	0.00872
2075.23089	0.00852
2073.94512	0.00836
2072.65935	0.00810
2071.37358	0.00790
2070.08781	0.00791
2068.80204	0.00795
2067.51627	0.00764
2066.23050	0.00686
2064.94474	0.00591
2063.65897	0.00526
2062.37320	0.00520
2061.08743	0.00559
2059.80166	0.00606
2058.51589	0.00638
2057.23012	0.00658
2055.94435	0.00689
2054.65859	0.00749
2053.37282	0.00826
2052.08705	0.00877
2050.80128	0.00848
2049.51551	0.00724
2048.22974	0.00558
2046.94397	0.00433
2045.65820	0.00388
2044.37243	0.00395
2043.08667	0.00409
2041.80090	0.00410
2040.51513	0.00406
2039.22936	0.00398
2037.94359	0.00363
2036.65782	0.00277
2035.37205	0.00154
2034.08628	0.00047
2032.80052	0.00002
2031.51475	0.00019
2030.22898	0.00069
2028.94321	0.00130
2027.65744	0.00196
2026.37167	0.00257
2025.08590	0.00296
2023.80013	0.00301
2022.51436	0.00279
2021.22860	0.00241
2019.94283	0.00206
2018.65706	0.00191
2017.37129	0.00205
2016.08552	0.00229
2014.79975	0.00232
2013.51398	0.00202
2012.22821	0.00151
2010.94245	0.00093
2009.65668	0.00038
2008.37091	-0.00001
2007.08514	-0.00010
2005.79937	0.00014
2004.51360	0.00066
2003.22783	0.00151
2001.94206	0.00278
2000.65629	0.00429
1999.37053	0.00555
1998.08476	0.00616
1996.79899	0.00626
1995.51322	0.00637
1994.22745	0.00682
1992.94168	0.00737
1991.65591	0.00757
1990.37014	0.00729
1989.08438	0.00684
1987.79861	0.00659
1986.51284	0.00660
1985.22707	0.00662
1983.94130	0.00655
1982.65553	0.00644
1981.36976	0.00625
1980.08399	0.00567
1978.79822	0.00442
1977.51246	0.00287
1976.22669	0.00181
1974.94092	0.00164
1973.65515	0.00208
1972.36938	0.00253
1971.08361	0.00281
1969.79784	0.00303
1968.51207	0.00334
1967.22631	0.00385
1965.94054	0.00463
1964.65477	0.00567
1963.36900	0.00671
1962.08323	0.00732
1960.79746	0.00737
1959.51169	0.00714
1958.22592	0.00701
1956.94015	0.00707
1955.65439	0.00719
1954.36862	0.00737
1953.08285	0.00773
1951.79708	0.00838
1950.51131	0.00918
1949.22554	0.00984
1947.93977	0.01012
1946.65400	0.01007
1945.36823	0.00993
1944.08247	0.00985
1942.79670	0.00984
1941.51093	0.00982
1940.22516	0.00975
1938.93939	0.00966
1937.65362	0.00953
1936.36785	0.00935
1935.08208	0.00908
1933.79632	0.00881
1932.51055	0.00867
1931.22478	0.00874
1929.93901	0.00895
1928.65324	0.00914
1927.36747	0.00922
1926.08170	0.00921
1924.79593	0.00920
1923.51016	0.00933
1922.22440	0.00968
1920.93863	0.01020
1919.65286	0.01064
1918.36709	0.01084
1917.08132	0.01085
1915.79555	0.01088
1914.50978	0.01101
1913.22401	0.01116
1911.93825	0.01120
1910.65248	0.01109
1909.36671	0.01085
1908.08094	0.01055
1906.79517	0.01030
1905.50940	0.01019
1904.22363	0.01024
1902.93786	0.01029
1901.65209	0.01022
1900.36633	0.01008
1899.08056	0.01006
1897.79479	0.01025
1896.50902	0.01054
1895.22325	0.01077
1893.93748	0.01090
1892.65171	0.01104
1891.36594	0.01121
1890.08018	0.01129
1888.79441	0.01115
1887.50864	0.01084
1886.22287	0.01061
1884.93710	0.01066
1883.65133	0.01097
1882.36556	0.01125
1881.07979	0.01133
1879.79402	0.01124
1878.50826	0.01115
1877.22249	0.01115
1875.93672	0.01119
1874.65095	0.01122
1873.36518	0.01122
1872.07941	0.01121
1870.79364	0.01115
1869.50787	0.01103
1868.22211	0.01091
1866.93634	0.01089
1865.65057	0.01100
1864.36480	0.01118
1863.07903	0.01132
1861.79326	0.01135
1860.50749	0.01131
1859.22172	0.01125
1857.93595	0.01121
1856.65019	0.01117
1855.36442	0.01115
1854.07865	0.01116
1852.79288	0.01123
1851.50711	0.01136
1850.22134	0.01155
1848.93557	0.01173
1847.64980	0.01184
1846.36404	0.01184
1845.07827	0.01179
1843.79250	0.01181
1842.50673	0.01189
1841.22096	0.01191
1839.93519	0.01181
1838.64942	0.01162
1837.36365	0.01145
1836.07788	0.01135
1834.79212	0.01134
1833.50635	0.01141
1832.22058	0.01150
1830.93481	0.01160
1829.64904	0.01168
1828.36327	0.01171
1827.07750	0.01164
1825.79173	0.01148
1824.50597	0.01127
1823.22020	0.01107
1821.93443	0.01087
1820.64866	0.01071
1819.36289	0.01065
1818.07712	0.01077
1816.79135	0.01107
1815.50558	0.01146
1814.21981	0.01182
1812.93405	0.01208
1811.64828	0.01226
1810.36251	0.01244
1809.07674	0.01266
1807.79097	0.01288
1806.50520	0.01301
1805.21943	0.01303
1803.93366	0.01299
1802.64790	0.01295
1801.36213	0.01290
1800.07636	0.01283
1798.79059	0.01277
1797.50482	0.01276
1796.21905	0.01279
1794.93328	0.01282
1793.64751	0.01285
1792.36174	0.01291
1791.07598	0.01303
1789.79021	0.01317
1788.50444	0.01327
1787.21867	0.01332
1785.93290	0.01335
1784.64713	0.01338
1783.36136	0.01337
1782.07559	0.01331
1780.78983	0.01319
1779.50406	0.01308
1778.21829	0.01303
1776.93252	0.01306
1775.64675	0.01314
1774.36098	0.01319
1773.07521	0.01323
1771.78944	0.01336
1770.50367	0.01359
1769.21791	0.01384
1767.93214	0.01404
1766.64637	0.01422
1765.36060	0.01440
1764.07483	0.01452
1762.78906	0.01457
1761.50329	0.01458
1760.21752	0.01456
1758.93176	0.01449
1757.64599	0.01442
1756.36022	0.01447
1755.07445	0.01464
1753.78868	0.01476
1752.50291	0.01472
1751.21714	0.01458
1749.93137	0.01446
1748.64560	0.01445
1747.35984	0.01454
1746.07407	0.01467
1744.78830	0.01478
1743.50253	0.01482
1742.21676	0.01479
1740.93099	0.01475
1739.64522	0.01479
1738.35945	0.01493
1737.07369	0.01503
1735.78792	0.01497
1734.50215	0.01485
1733.21638	0.01492
1731.93061	0.01520
1730.64484	0.01552
1729.35907	0.01574
1728.07330	0.01586
1726.78753	0.01592
1725.50177	0.01597
1724.21600	0.01608
1722.93023	0.01628
1721.64446	0.01656
1720.35869	0.01679
1719.07292	0.01694
1717.78715	0.01711
1716.50138	0.01742
1715.21561	0.01783
1713.92985	0.01826
1712.64408	0.01869
1711.35831	0.01914
1710.07254	0.01960
1708.78677	0.02001
1707.50100	0.02035
1706.21523	0.02066
1704.92946	0.02107
1703.64370	0.02156
1702.35793	0.02203
1701.07216	0.02250
1699.78639	0.02313
1698.50062	0.02387
1697.21485	0.02450
1695.92908	0.02504
1694.64331	0.02570
1693.35754	0.02649
1692.07178	0.02723
1690.78601	0.02788
1689.50024	0.02856
1688.21447	0.02928
1686.92870	0.02995
1685.64293	0.03050
1684.35716	0.03107
1683.07139	0.03180
1681.78563	0.03260
1680.49986	0.03336
1679.21409	0.03407
1677.92832	0.03472
1676.64255	0.03529
1675.35678	0.03587
1674.07101	0.03658
1672.78524	0.03736
1671.49947	0.03812
1670.21371	0.03883
1668.92794	0.03955
1667.64217	0.04031
1666.35640	0.04106
1665.07063	0.04169
1663.78486	0.04219
1662.49909	0.04265
1661.21332	0.04314
1659.92756	0.04370
1658.64179	0.04435
1657.35602	0.04500
1656.07025	0.04546
1654.78448	0.04558
1653.49871	0.04554
1652.21294	0.04569
1650.92717	0.04611
1649.64140	0.04652
1648.35564	0.04674
1647.06987	0.04680
1645.78410	0.04685
1644.49833	0.04691
1643.21256	0.04693
1641.92679	0.04689
1640.64102	0.04684
1639.35525	0.04678
1638.06949	0.04661
1636.78372	0.04630
1635.49795	0.04595
1634.21218	0.04570
1632.92641	0.04555
1631.64064	0.04538
1630.35487	0.04514
1629.06910	0.04484
1627.78333	0.04449
1626.49757	0.04411
1625.21180	0.04366
1623.92603	0.04320
1622.64026	0.04284
1621.35449	0.04262
1620.06872	0.04243
1618.78295	0.04211
1617.49718	0.04167
1616.21142	0.04126
1614.92565	0.04104
1613.63988	0.04096
1612.35411	0.04094
1611.06834	0.04092
1609.78257	0.04086
1608.49680	0.04075
1607.21103	0.04060
1605.92526	0.04047
1604.63950	0.04036
1603.35373	0.04029
1602.06796	0.04028
1600.78219	0.04035
1599.49642	0.04048
1598.21065	0.04060
1596.92488	0.04071
1595.63911	0.04080
1594.35335	0.04089
1593.06758	0.04100
1591.78181	0.04111
1590.49604	0.04122
1589.21027	0.04138
1587.92450	0.04160
1586.63873	0.04187
1585.35296	0.04214
1584.06719	0.04241
1582.78143	0.04268
1581.49566	0.04297
1580.20989	0.04326
1578.92412	0.04350
1577.63835	0.04364
1576.35258	0.04384
1575.06681	0.04425
1573.78104	0.04477
1572.49528	0.04522
1571.20951	0.04553
1569.92374	0.04582
1568.63797	0.04620
1567.35220	0.04665
1566.06643	0.04708
1564.78066	0.04745
1563.49489	0.04777
1562.20912	0.04794
1560.92336	0.04794
1559.63759	0.04792
1558.35182	0.04809
1557.06605	0.04846
1555.78028	0.04885
1554.49451	0.04916
1553.20874	0.04944
1551.92297	0.04973
1550.63721	0.05000
1549.35144	0.05025
1548.06567	0.05048
1546.77990	0.05065
1545.49413	0.05079
1544.20836	0.05092
1542.92259	0.05101
1541.63682	0.05104
1540.35105	0.05108
1539.06529	0.05127
1537.77952	0.05164
1536.49375	0.05205
1535.20798	0.05241
1533.92221	0.05279
1532.63644	0.05330
1531.35067	0.05394
1530.06490	0.05462
1528.77914	0.05531
1527.49337	0.05604
1526.20760	0.05686
1524.92183	0.05773
1523.63606	0.05863
1522.35029	0.05956
1521.06452	0.06063
1519.77875	0.06188
1518.49298	0.06318
1517.20722	0.06448
1515.92145	0.06583
1514.63568	0.06727
1513.34991	0.06881
1512.06414	0.07044
1510.77837	0.07210
1509.49260	0.07367
1508.20683	0.07506
1506.92107	0.07640
1505.63530	0.07785
1504.34953	0.07941
1503.06376	0.08090
1501.77799	0.08221
1500.49222	0.08336
1499.20645	0.08440
1497.92068	0.08535
1496.63491	0.08629
1495.34915	0.08731
1494.06338	0.08840
1492.77761	0.08949
1491.49184	0.09056
1490.20607	0.09168
1488.92030	0.09291
1487.63453	0.09424
1486.34876	0.09567
1485.06299	0.09718
1483.77723	0.09872
1482.49146	0.10024
1481.20569	0.10172
1479.91992	0.10317
1478.63415	0.10459
1477.34838	0.10597
1476.06261	0.10728
1474.77684	0.10847
1473.49108	0.10950
1472.20531	0.11042
1470.91954	0.11126
1469.63377	0.11194
1468.34800	0.11241
1467.06223	0.11263
1465.77646	0.11269
1464.49069	0.11273
1463.20492	0.11288
1461.91916	0.11319
1460.63339	0.11362
1459.34762	0.11408
1458.06185	0.11455
1456.77608	0.11511
1455.49031	0.11579
1454.20454	0.11646
1452.91877	0.11701
1451.63301	0.11745
1450.34724	0.11788
1449.06147	0.11831
1447.77570	0.11869
1446.48993	0.11896
1445.20416	0.11906
1443.91839	0.11897
1442.63262	0.11869
1441.34685	0.11830
1440.06109	0.11788
1438.77532	0.11748
1437.48955	0.11719
1436.20378	0.11712
1434.91801	0.11735
1433.63224	0.11785
1432.34647	0.11863
1431.06070	0.11970
1429.77494	0.12106
1428.48917	0.12264
1427.20340	0.12432
1425.91763	0.12604
1424.63186	0.12778
1423.34609	0.12953
1422.06032	0.13121
1420.77455	0.13274
1419.48878	0.13411
1418.20302	0.13538
1416.91725	0.13652
1415.63148	0.13745
1414.34571	0.13811
1413.05994	0.13843
1411.77417	0.13840
1410.48840	0.13803
1409.20263	0.13740
1407.91687	0.13652
1406.63110	0.13543
1405.34533	0.13410
1404.05956	0.13255
1402.77379	0.13076
1401.48802	0.12873
1400.20225	0.12646
1398.91648	0.12403
1397.63071	0.12150
1396.34495	0.11888
1395.05918	0.11620
1393.77341	0.11352
1392.48764	0.11086
1391.20187	0.10819
1389.91610	0.10551
1388.63033	0.10282
1387.34456	0.10015
1386.05880	0.09748
1384.77303	0.09479
1383.48726	0.09208
1382.20149	0.08939
1380.91572	0.08671
1379.62995	0.08402
1378.34418	0.08128
1377.05841	0.07848
1375.77264	0.07564
1374.48688	0.07283
1373.20111	0.07014
1371.91534	0.06761
1370.62957	0.06520
1369.34380	0.06289
1368.05803	0.06068
1366.77226	0.05861
1365.48649	0.05670
1364.20073	0.05489
1362.91496	0.05317
1361.62919	0.05153
1360.34342	0.05000
1359.05765	0.04860
1357.77188	0.04730
1356.48611	0.04608
1355.20034	0.04492
1353.91457	0.04381
1352.62881	0.04276
1351.34304	0.04176
1350.05727	0.04084
1348.77150	0.04001
1347.48573	0.03927
1346.19996	0.03862
1344.91419	0.03801
1343.62842	0.03745
1342.34266	0.03693
1341.05689	0.03641
1339.77112	0.03589
1338.48535	0.03534
1337.19958	0.03479
1335.91381	0.03427
1334.62804	0.03376
1333.34227	0.03327
1332.05650	0.03279
1330.77074	0.03236
1329.48497	0.03196
1328.19920	0.03158
1326.91343	0.03119
1325.62766	0.03080
1324.34189	0.03045
1323.05612	0.03016
1321.77035	0.02992
1320.48459	0.02969
1319.19882	0.02945
1317.91305	0.02917
1316.62728	0.02886
1315.34151	0.02855
1314.05574	0.02828
1312.76997	0.02804
1311.48420	0.02780
1310.19843	0.02750
1308.91267	0.02714
1307.62690	0.02679
1306.34113	0.02648
1305.05536	0.02625
1303.76959	0.02605
1302.48382	0.02583
1301.19805	0.02556
1299.91228	0.02525
1298.62652	0.02496
1297.34075	0.02476
1296.05498	0.02465
1294.76921	0.02459
1293.48344	0.02452
1292.19767	0.02440
1290.91190	0.02428
1289.62613	0.02418
1288.34036	0.02410
1287.05460	0.02403
1285.76883	0.02393
1284.48306	0.02380
1283.19729	0.02367
1281.91152	0.02353
1280.62575	0.02337
1279.33998	0.02319
1278.05421	0.02299
1276.76845	0.02283
1275.48268	0.02274
1274.19691	0.02275
1272.91114	0.02280
1271.62537	0.02283
1270.33960	0.02282
1269.05383	0.02275
1267.76806	0.02266
1266.48229	0.02257
1265.19653	0.02249
1263.91076	0.02240
1262.62499	0.02229
1261.33922	0.02218
1260.05345	0.02209
1258.76768	0.02204
1257.48191	0.02202
1256.19614	0.02203
1254.91037	0.02205
1253.62461	0.02205
1252.33884	0.02204
1251.05307	0.02201
1249.76730	0.02197
1248.48153	0.02192
1247.19576	0.02183
1245.90999	0.02172
1244.62422	0.02158
1243.33846	0.02145
1242.05269	0.02137
1240.76692	0.02134
1239.48115	0.02133
1238.19538	0.02129
1236.90961	0.02119
1235.62384	0.02107
1234.33807	0.02096
1233.05230	0.02086
1231.76654	0.02073
1230.48077	0.02053
1229.19500	0.02028
1227.90923	0.02003
1226.62346	0.01985
1225.33769	0.01974
1224.05192	0.01968
1222.76615	0.01963
1221.48039	0.01958
1220.19462	0.01952
1218.90885	0.01944
1217.62308	0.01931
1216.33731	0.01913
1215.05154	0.01895
1213.76577	0.01879
1212.48000	0.01869
1211.19423	0.01864
1209.90847	0.01863
1208.62270	0.01862
1207.33693	0.01860
1206.05116	0.01854
1204.76539	0.01846
1203.47962	0.01840
1202.19385	0.01837
1200.90808	0.01843
1199.62232	0.01860
1198.33655	0.01861
1197.05078	0.01857
1195.76501	0.01848
1194.47924	0.01836
1193.19347	0.01824
1191.90770	0.01817
1190.62193	0.01814
1189.33616	0.01812
1188.05040	0.01810
1186.76463	0.01805
1185.47886	0.01798
1184.19309	0.01792
1182.90732	0.01785
1181.62155	0.01777
1180.33578	0.01770
1179.05001	0.01765
1177.76425	0.01763
1176.47848	0.01766
1175.19271	0.01773
1173.90694	0.01788
1172.62117	0.01808
1171.33540	0.01829
1170.04963	0.01846
1168.76386	0.01859
1167.47809	0.01868
1166.19233	0.01877
1164.90656	0.01889
1163.62079	0.01905
1162.33502	0.01919
1161.04925	0.01931
1159.76348	0.01944
1158.47771	0.01963
1157.19194	0.01986
1155.90618	0.02010
1154.62041	0.02034
1153.33464	0.02056
1152.04887	0.02076
1150.76310	0.02099
1149.47733	0.02132
1148.19156	0.02184
1146.90579	0.02250
1145.62002	0.02325
1144.33426	0.02403
1143.04849	0.02487
1141.76272	0.02582
1140.47695	0.02690
1139.19118	0.02812
1137.90541	0.02948
1136.61964	0.03098
1135.33387	0.03261
1134.04811	0.03437
1132.76234	0.03631
1131.47657	0.03848
1130.19080	0.04092
1128.90503	0.04368
1127.61926	0.04676
1126.33349	0.05013
1125.04772	0.05369
1123.76195	0.05739
1122.47619	0.06119
1121.19042	0.06508
1119.90465	0.06906
1118.61888	0.07311
1117.33311	0.07720
1116.04734	0.08128
1114.76157	0.08535
1113.47580	0.08937
1112.19004	0.09336
1110.90427	0.09731
1109.61850	0.10119
1108.33273	0.10494
1107.04696	0.10855
1105.76119	0.11204
1104.47542	0.11544
1103.18965	0.11877
1101.90388	0.12208
1100.61812	0.12540
1099.33235	0.12877
1098.04658	0.13212
1096.76081	0.13533
1095.47504	0.13828
1094.18927	0.14096
1092.90350	0.14347
1091.61773	0.14592
1090.33197	0.14841
1089.04620	0.15093
1087.76043	0.15345
1086.47466	0.15592
1085.18889	0.15838
1083.90312	0.16087
1082.61735	0.16346
1081.33158	0.16618
1080.04581	0.16909
1078.76005	0.17222
1077.47428	0.17556
1076.18851	0.17910
1074.90274	0.18282
1073.61697	0.18669
1072.33120	0.19069
1071.04543	0.19481
1069.75966	0.19904
1068.47390	0.20339
1067.18813	0.20788
1065.90236	0.21256
1064.61659	0.21747
1063.33082	0.22254
1062.04505	0.22761
1060.75928	0.23253
1059.47351	0.23728
1058.18774	0.24197
1056.90198	0.24660
1055.61621	0.25117
1054.33044	0.25564
1053.04467	0.26010
1051.75890	0.26465
1050.47313	0.26933
1049.18736	0.27419
1047.90159	0.27923
1046.61583	0.28446
1045.33006	0.28978
1044.04429	0.29509
1042.75852	0.30037
1041.47275	0.30570
1040.18698	0.31116
1038.90121	0.31678
1037.61544	0.32253
1036.32967	0.32835
1035.04391	0.33415
1033.75814	0.33983
1032.47237	0.34527
1031.18660	0.35034
1029.90083	0.35490
1028.61506	0.35890
1027.32929	0.36244
1026.04352	0.36566
1024.75775	0.36859
1023.47199	0.37104
1022.18622	0.37273
1020.90045	0.37351
1019.61468	0.37335
1018.32891	0.37228
1017.04314	0.37030
1015.75737	0.36742
1014.47160	0.36363
1013.18584	0.35892
1011.90007	0.35324
1010.61430	0.34662
1009.32853	0.33910
1008.04276	0.33070
1006.75699	0.32140
1005.47122	0.31118
1004.18545	0.30012
1002.89968	0.28844
1001.61392	0.27637
1000.32815	0.26406
999.04238	0.25162
997.75661	0.23913
996.47084	0.22672
995.18507	0.21459
993.89930	0.20288
992.61353	0.19165
991.32777	0.18090
990.04200	0.17068
988.75623	0.16106
987.47046	0.15214
986.18469	0.14393
984.89892	0.13631
983.61315	0.12922
982.32738	0.12265
981.04161	0.11669
979.75585	0.11139
978.47008	0.10674
977.18431	0.10267
975.89854	0.09914
974.61277	0.09616
973.32700	0.09380
972.04123	0.09212
970.75546	0.09120
969.46970	0.09103
968.18393	0.09156
966.89816	0.09268
965.61239	0.09422
964.32662	0.09590
963.04085	0.09737
961.75508	0.09831
960.46931	0.09847
959.18354	0.09777
957.89778	0.09622
956.61201	0.09389
955.32624	0.09099
954.04047	0.08777
952.75470	0.08447
951.46893	0.08124
950.18316	0.07817
948.89739	0.07529
947.61163	0.07257
946.32586	0.06995
945.04009	0.06742
943.75432	0.06501
942.46855	0.06284
941.18278	0.06091
939.89701	0.05918
938.61124	0.05754
937.32547	0.05598
936.03971	0.05450
934.75394	0.05316
933.46817	0.05197
932.18240	0.05088
930.89663	0.04984
929.61086	0.04884
928.32509	0.04790
927.03932	0.04705
925.75356	0.04628
924.46779	0.04559
923.18202	0.04501
921.89625	0.04451
920.61048	0.04406
919.32471	0.04361
918.03894	0.04314
916.75317	0.04268
915.46740	0.04221
914.18164	0.04174
912.89587	0.04129
911.61010	0.04090
910.32433	0.04059
909.03856	0.04034
907.75279	0.04008
906.46702	0.03979
905.18125	0.03949
903.89549	0.03923
902.60972	0.03895
901.32395	0.03858
900.03818	0.03815
898.75241	0.03776
897.46664	0.03745
896.18087	0.03718
894.89510	0.03697
893.60933	0.03690
892.32357	0.03711
891.03780	0.03761
889.75203	0.03834
888.46626	0.03927
887.18049	0.04054
885.89472	0.04242
884.60895	0.04520
883.32318	0.04891
882.03742	0.05324
880.75165	0.05751
879.46588	0.06112
878.18011	0.06390
876.89434	0.06623
875.60857	0.06857
874.32280	0.07095
873.03703	0.07288
871.75126	0.07374
870.46550	0.07318
869.17973	0.07126
867.89396	0.06828
866.60819	0.06465
865.32242	0.06078
864.03665	0.05700
862.75088	0.05354
861.46511	0.05050
860.17935	0.04796
858.89358	0.04592
857.60781	0.04428
856.32204	0.04290
855.03627	0.04170
853.75050	0.04069
852.46473	0.03988
851.17896	0.03921
849.89319	0.03865
848.60743	0.03818
847.32166	0.03783
846.03589	0.03757
844.75012	0.03733
843.46435	0.03706
842.17858	0.03677
840.89281	0.03650
839.60704	0.03625
838.32128	0.03606
837.03551	0.03590
835.74974	0.03576
834.46397	0.03560
833.17820	0.03542
831.89243	0.03523
830.60666	0.03503
829.32089	0.03483
828.03512	0.03465
826.74936	0.03451
825.46359	0.03442
824.17782	0.03437
822.89205	0.03435
821.60628	0.03432
820.32051	0.03423
819.03474	0.03407
817.74897	0.03389
816.46321	0.03374
815.17744	0.03368
813.89167	0.03375
812.60590	0.03388
811.32013	0.03400
810.03436	0.03401
808.74859	0.03391
807.46282	0.03376
806.17705	0.03363
804.89129	0.03357
803.60552	0.03355
802.31975	0.03354
801.03398	0.03352
799.74821	0.03343
798.46244	0.03328
797.17667	0.03310
795.89090	0.03300
794.60513	0.03302
793.31937	0.03313
792.03360	0.03326
790.74783	0.03333
789.46206	0.03327
788.17629	0.03310
786.89052	0.03291
785.60475	0.03282
784.31898	0.03285
783.03322	0.03294
781.74745	0.03299
780.46168	0.03295
779.17591	0.03289
777.89014	0.03288
776.60437	0.03295
775.31860	0.03304
774.03283	0.03312
772.74706	0.03317
771.46130	0.03320
770.17553	0.03321
768.88976	0.03319
767.60399	0.03315
766.31822	0.03316
765.03245	0.03324
763.74668	0.03337
762.46091	0.03347
761.17515	0.03355
759.88938	0.03363
758.60361	0.03377
757.31784	0.03392
756.03207	0.03399
754.74630	0.03400
753.46053	0.03399
752.17476	0.03400
750.88899	0.03397
749.60323	0.03383
748.31746	0.03362
747.03169	0.03349
745.74592	0.03352
744.46015	0.03367
743.17438	0.03383
741.88861	0.03391
740.60284	0.03392
739.31708	0.03390
738.03131	0.03387
736.74554	0.03384
735.45977	0.03380
734.17400	0.03378
732.88823	0.03377
731.60246	0.03375
730.31669	0.03369
729.03092	0.03361
727.74516	0.03358
726.45939	0.03364
725.17362	0.03381
723.88785	0.03405
722.60208	0.03426
721.31631	0.03443
720.03054	0.03455
718.74477	0.03467
717.45901	0.03484
716.17324	0.03504
714.88747	0.03519
713.60170	0.03522
712.31593	0.03514
711.03016	0.03502
709.74439	0.03492
708.45862	0.03487
707.17285	0.03484
705.88709	0.03481
704.60132	0.03477
703.31555	0.03473
702.02978	0.03471
700.74401	0.03475
699.45824	0.03486
698.17247	0.03503
696.88670	0.03518
695.60094	0.03524
694.31517	0.03522
693.02940	0.03521
691.74363	0.03528
690.45786	0.03542
689.17209	0.03552
687.88632	0.03550
686.60055	0.03539
685.31478	0.03525
684.02902	0.03512
682.74325	0.03501
681.45748	0.03492
680.17171	0.03485
678.88594	0.03478
677.60017	0.03470
676.31440	0.03462
675.02863	0.03461
673.74287	0.03472
672.45710	0.03490
671.17133	0.03512
669.88556	0.03532
668.59979	0.03551
667.31402	0.03568
666.02825	0.03563
664.74248	0.03546
663.45671	0.03518
662.17095	0.03484
660.88518	0.03453
659.59941	0.03434
658.31364	0.03426
657.02787	0.03427
655.74210	0.03432
654.45633	0.03438
653.17056	0.03444
651.88480	0.03446
650.59903	0.03445
649.31326	0.03443
648.02749	0.03443
646.74172	0.03445
645.45595	0.03449
644.17018	0.03454
642.88441	0.03463
641.59864	0.03477
640.31288	0.03498
639.02711	0.03524
637.74134	0.03549
636.45557	0.03573
635.16980	0.03602
633.88403	0.03645
632.59826	0.03705
631.31249	0.03759
630.02673	0.03750
628.74096	0.03737
627.45519	0.03924
626.16942	0.03965
624.88365	0.03932
623.59788	0.03974
622.31211	0.04153
621.02634	0.04502
619.74057	0.04998
618.45481	0.05536
617.16904	0.05994
615.88327	0.06332
614.59750	0.06598
613.31173	0.06889
612.02596	0.07320
610.74019	0.07963
609.45442	0.08760
608.16866	0.09533
606.88289	0.10158
605.59712	0.10656
604.31135	0.11098
603.02558	0.11477
601.73981	0.11715
600.45404	0.11744
599.16827	0.11567
597.88250	0.11243
596.59674	0.10860
595.31097	0.10495
594.02520	0.10195
592.73943	0.09969
591.45366	0.09807
590.16789	0.09708
588.88212	0.09680
587.59635	0.09734
586.31059	0.09873
585.02482	0.10085
583.73905	0.10350
582.45328	0.10644
581.16751	0.10953
579.88174	0.11276
578.59597	0.11620
577.31020	0.11988
576.02443	0.12368
574.73867	0.12736
573.45290	0.13073
572.16713	0.13386
570.88136	0.13712
569.59559	0.14099
568.30982	0.14582
567.02405	0.15147
565.73828	0.15734
564.45251	0.16252
563.16675	0.16618
561.88098	0.16769
560.59521	0.16674
559.30944	0.16322
558.02367	0.15728
556.73790	0.14928
555.45213	0.13985
554.16636	0.12980
552.88060	0.11993
551.59483	0.11080
550.30906	0.10264
549.02329	0.09550
547.73752	0.08932
546.45175	0.08401
545.16598	0.07942
543.88021	0.07546
542.59444	0.07202
541.30868	0.06903
540.02291	0.06639
538.73714	0.06398
537.45137	0.06172
536.16560	0.05958
534.87983	0.05757
533.59406	0.05570
532.30829	0.05397
531.02253	0.05237
529.73676	0.05090
528.45099	0.04955
527.16522	0.04828
525.87945	0.04712
524.59368	0.04609
523.30791	0.04520
522.02214	0.04444
520.73637	0.04376
519.45061	0.04310
518.16484	0.04238
516.87907	0.04159
515.59330	0.04074
514.30753	0.03990
513.02176	0.03914
511.73599	0.03852
510.45022	0.03807
509.16446	0.03768
507.87869	0.03723
506.59292	0.03667
505.30715	0.03602
504.02138	0.03540
502.73561	0.03488
501.44984	0.03448
500.16407	0.03420
498.87830	0.03405
497.59254	0.03395
496.30677	0.03379
495.02100	0.03352
493.73523	0.03316
492.44946	0.03284
491.16369	0.03264
489.87792	0.03249
488.59215	0.03232
487.30639	0.03209
486.02062	0.03191
484.73485	0.03184
483.44908	0.03187
482.16331	0.03193
480.87754	0.03199
479.59177	0.03205
478.30600	0.03217
477.02023	0.03237
475.73447	0.03265
474.44870	0.03297
473.16293	0.03330
471.87716	0.03359
470.59139	0.03376
469.30562	0.03376
468.01985	0.03361
466.73408	0.03337
465.44832	0.03303
464.16255	0.03255
462.87678	0.03195
461.59101	0.03130
460.30524	0.03068
459.01947	0.03014
457.73370	0.02972
456.44793	0.02942
455.16216	0.02919
453.87640	0.02897
452.59063	0.02869
451.30486	0.02831
450.01909	0.02788
448.73332	0.02749
447.44755	0.02724
446.16178	0.02711
444.87601	0.02702
443.59025	0.02693
442.30448	0.02682
441.01871	0.02669
439.73294	0.02655
438.44717	0.02642
437.16140	0.02632
435.87563	0.02626
434.58986	0.02623
433.30409	0.02621
432.01833	0.02617
430.73256	0.02607
429.44679	0.02591
428.16102	0.02568
426.87525	0.02543
425.58948	0.02520
424.30371	0.02502
423.01794	0.02489
421.73218	0.02475
420.44641	0.02459
419.16064	0.02437
417.87487	0.02415
416.58910	0.02396
415.30333	0.02382
414.01756	0.02377
412.73179	0.02378
411.44602	0.02383
410.16026	0.02388
408.87449	0.02392
407.58872	0.02394
406.30295	0.02395
405.01718	0.02396
403.73141	0.02399
402.44564	0.02406
401.15987	0.02417
399.87411	0.02432
