3997.45528	0.09684
3996.16951	0.09690
3994.88374	0.09672
3993.59798	0.09633
3992.31221	0.09591
3991.02644	0.09559
3989.74067	0.09549
3988.45490	0.09570
3987.16913	0.09606
3985.88336	0.09626
3984.59759	0.09600
3983.31183	0.09517
3982.02606	0.09398
3980.74029	0.09292
3979.45452	0.09251
3978.16875	0.09279
3976.88298	0.09320
3975.59721	0.09324
3974.31144	0.09298
3973.02567	0.09290
3971.73991	0.09329
3970.45414	0.09405
3969.16837	0.09487
3967.88260	0.09550
3966.59683	0.09580
3965.31106	0.09584
3964.02529	0.09577
3962.73952	0.09566
3961.45376	0.09544
3960.16799	0.09508
3958.88222	0.09465
3957.59645	0.09418
3956.31068	0.09369
3955.02491	0.09326
3953.73914	0.09301
3952.45337	0.09293
3951.16760	0.09291
3949.88184	0.09290
3948.59607	0.09297
3947.31030	0.09317
3946.02453	0.09344
3944.73876	0.09374
3943.45299	0.09397
3942.16722	0.09408
3940.88145	0.09410
3939.59569	0.09413
3938.30992	0.09419
3937.02415	0.09422
3935.73838	0.09426
3934.45261	0.09444
3933.16684	0.09477
3931.88107	0.09499
3930.59530	0.09482
3929.30953	0.09427
3928.02377	0.09357
3926.73800	0.09292
3925.45223	0.09223
3924.16646	0.09133
3922.88069	0.09039
3921.59492	0.08986
3920.30915	0.08992
3919.02338	0.09031
3917.73762	0.09056
3916.45185	0.09041
3915.16608	0.09008
3913.88031	0.09005
3912.59454	0.09046
3911.30877	0.09094
3910.02300	0.09106
3908.73723	0.09083
3907.45146	0.09074
3906.16570	0.09116
3904.87993	0.09183
3903.59416	0.09208
3902.30839	0.09160
3901.02262	0.09072
3899.73685	0.08991
3898.45108	0.08934
3897.16531	0.08892
3895.87955	0.08847
3894.59378	0.08795
3893.30801	0.08760
3892.02224	0.08769
3890.73647	0.08804
3889.45070	0.08835
3888.16493	0.08860
3886.87916	0.08881
3885.59339	0.08876
3884.30763	0.08848
3883.02186	0.08830
3881.73609	0.08851
3880.45032	0.08890
3879.16455	0.08916
3877.87878	0.08927
3876.59301	0.08933
3875.30724	0.08921
3874.02148	0.08893
3872.73571	0.08894
3871.44994	0.08957
3870.16417	0.09028
3868.87840	0.09033
3867.59263	0.08988
3866.30686	0.08940
3865.02109	0.08885
3863.73532	0.08797
3862.44956	0.08706
3861.16379	0.08658
3859.87802	0.08657
3858.59225	0.08687
3857.30648	0.08762
3856.02071	0.08910
3854.73494	0.09083
3853.44917	0.09163
3852.16341	0.09105
3850.87764	0.08986
3849.59187	0.08885
3848.30610	0.08804
3847.02033	0.08717
3845.73456	0.08625
3844.44879	0.08547
3843.16302	0.08497
3841.87725	0.08489
3840.59149	0.08542
3839.30572	0.08627
3838.01995	0.08671
3836.73418	0.08635
3835.44841	0.08571
3834.16264	0.08545
3832.87687	0.08549
3831.59110	0.08538
3830.30534	0.08516
3829.01957	0.08521
3827.73380	0.08553
3826.44803	0.08555
3825.16226	0.08502
3823.87649	0.08444
3822.59072	0.08427
3821.30495	0.08435
3820.01918	0.08452
3818.73342	0.08511
3817.44765	0.08616
3816.16188	0.08677
3814.87611	0.08639
3813.59034	0.08563
3812.30457	0.08527
3811.01880	0.08528
3809.73303	0.08531
3808.44726	0.08524
3807.16150	0.08485
3805.87573	0.08414
3804.58996	0.08375
3803.30419	0.08421
3802.01842	0.08495
3800.73265	0.08497
3799.44688	0.08444
3798.16111	0.08433
3796.87535	0.08480
3795.58958	0.08509
3794.30381	0.08473
3793.01804	0.08398
3791.73227	0.08327
3790.44650	0.08272
3789.16073	0.08224
3787.87496	0.08181
3786.58919	0.08152
3785.30343	0.08143
3784.01766	0.08136
3782.73189	0.08119
3781.44612	0.08104
3780.16035	0.08103
3778.87458	0.08113
3777.58881	0.08130
3776.30304	0.08147
3775.01728	0.08150
3773.73151	0.08136
3772.44574	0.08137
3771.15997	0.08176
3769.87420	0.08226
3768.58843	0.08244
3767.30266	0.08217
3766.01689	0.08161
3764.73112	0.08096
3763.44536	0.08057
3762.15959	0.08077
3760.87382	0.08145
3759.58805	0.08199
3758.30228	0.08186
3757.01651	0.08113
3755.73074	0.08048
3754.44497	0.08065
3753.15921	0.08163
3751.87344	0.08263
3750.58767	0.08284
3749.30190	0.08210
3748.01613	0.08118
3746.73036	0.08125
3745.44459	0.08226
3744.15882	0.08277
3742.87305	0.08207
3741.58729	0.08117
3740.30152	0.08108
3739.01575	0.08173
3737.72998	0.08248
3736.44421	0.08281
3735.15844	0.08267
3733.87267	0.08252
3732.58690	0.08242
3731.30114	0.08191
3730.01537	0.08091
3728.72960	0.08002
3727.44383	0.07977
3726.15806	0.07999
3724.87229	0.08036
3723.58652	0.08082
3722.30075	0.08136
3721.01498	0.08192
3719.72922	0.08230
3718.44345	0.08223
3717.15768	0.08161
3715.87191	0.08065
3714.58614	0.07987
3713.30037	0.07956
3712.01460	0.07954
3710.72883	0.07950
3709.44307	0.07936
3708.15730	0.07904
3706.87153	0.07876
3705.58576	0.07881
3704.29999	0.07944
3703.01422	0.08040
3701.72845	0.08112
3700.44268	0.08122
3699.15691	0.08085
3697.87115	0.08039
3696.58538	0.08007
3695.29961	0.07985
3694.01384	0.07971
3692.72807	0.07971
3691.44230	0.07988
3690.15653	0.07998
3688.87076	0.07956
3687.58500	0.07853
3686.29923	0.07752
3685.01346	0.07726
3683.72769	0.07781
3682.44192	0.07864
3681.15615	0.07923
3679.87038	0.07925
3678.58461	0.07885
3677.29884	0.07850
3676.01308	0.07827
3674.72731	0.07785
3673.44154	0.07744
3672.15577	0.07763
3670.87000	0.07830
3669.58423	0.07873
3668.29846	0.07878
3667.01269	0.07885
3665.72693	0.07912
3664.44116	0.07929
3663.15539	0.07912
3661.86962	0.07870
3660.58385	0.07845
3659.29808	0.07867
3658.01231	0.07918
3656.72654	0.07929
3655.44077	0.07849
3654.15501	0.07720
3652.86924	0.07640
3651.58347	0.07666
3650.29770	0.07769
3649.01193	0.07897
3647.72616	0.08018
3646.44039	0.08127
3645.15462	0.08219
3643.86886	0.08273
3642.58309	0.08276
3641.29732	0.08242
3640.01155	0.08207
3638.72578	0.08197
3637.44001	0.08212
3636.15424	0.08250
3634.86847	0.08311
3633.58270	0.08391
3632.29694	0.08495
3631.01117	0.08621
3629.72540	0.08710
3628.43963	0.08693
3627.15386	0.08581
3625.86809	0.08469
3624.58232	0.08417
3623.29655	0.08428
3622.01079	0.08479
3620.72502	0.08560
3619.43925	0.08636
3618.15348	0.08679
3616.86771	0.08699
3615.58194	0.08726
3614.29617	0.08769
3613.01040	0.08805
3611.72463	0.08824
3610.43887	0.08831
3609.15310	0.08825
3607.86733	0.08802
3606.58156	0.08774
3605.29579	0.08771
3604.01002	0.08812
3602.72425	0.08891
3601.43848	0.08986
3600.15272	0.09074
3598.86695	0.09139
3597.58118	0.09177
3596.29541	0.09181
3595.00964	0.09160
3593.72387	0.09145
3592.43810	0.09167
3591.15233	0.09236
3589.86656	0.09323
3588.58080	0.09375
3587.29503	0.09367
3586.00926	0.09307
3584.72349	0.09224
3583.43772	0.09152
3582.15195	0.09110
3580.86618	0.09100
3579.58041	0.09117
3578.29464	0.09159
3577.00888	0.09233
3575.72311	0.09336
3574.43734	0.09429
3573.15157	0.09480
3571.86580	0.09505
3570.58003	0.09554
3569.29426	0.09644
3568.00849	0.09725
3566.72273	0.09733
3565.43696	0.09657
3564.15119	0.09550
3562.86542	0.09479
3561.57965	0.09478
3560.29388	0.09534
3559.00811	0.09607
3557.72234	0.09674
3556.43657	0.09734
3555.15081	0.09803
3553.86504	0.09885
3552.57927	0.09964
3551.29350	0.10022
3550.00773	0.10054
3548.72196	0.10068
3547.43619	0.10075
3546.15042	0.10072
3544.86466	0.10049
3543.57889	0.10007
3542.29312	0.09961
3541.00735	0.09933
3539.72158	0.09945
3538.43581	0.10000
3537.15004	0.10080
3535.86427	0.10157
3534.57850	0.10215
3533.29274	0.10257
3532.00697	0.10291
3530.72120	0.10324
3529.43543	0.10353
3528.14966	0.10370
3526.86389	0.10367
3525.57812	0.10350
3524.29235	0.10352
3523.00659	0.10402
3521.72082	0.10490
3520.43505	0.10564
3519.14928	0.10576
3517.86351	0.10533
3516.57774	0.10487
3515.29197	0.10479
3514.00620	0.10498
3512.72043	0.10511
3511.43467	0.10501
3510.14890	0.10478
3508.86313	0.10460
3507.57736	0.10463
3506.29159	0.10498
3505.00582	0.10567
3503.72005	0.10649
3502.43428	0.10720
3501.14852	0.10775
3499.86275	0.10826
3498.57698	0.10882
3497.29121	0.10932
3496.00544	0.10958
3494.71967	0.10956
3493.43390	0.10942
3492.14813	0.10940
3490.86236	0.10957
3489.57660	0.10985
3488.29083	0.11003
3487.00506	0.10996
3485.71929	0.10969
3484.43352	0.10948
3483.14775	0.10959
3481.86198	0.11011
3480.57621	0.11090
3479.29045	0.11170
3478.00468	0.11223
3476.71891	0.11233
3475.43314	0.11204
3474.14737	0.11162
3472.86160	0.11138
3471.57583	0.11145
3470.29006	0.11174
3469.00429	0.11206
3467.71853	0.11227
3466.43276	0.11228
3465.14699	0.11217
3463.86122	0.11217
3462.57545	0.11254
3461.28968	0.11330
3460.00391	0.11417
3458.71814	0.11478
3457.43238	0.11498
3456.14661	0.11490
3454.86084	0.11479
3453.57507	0.11486
3452.28930	0.11513
3451.00353	0.11540
3449.71776	0.11538
3448.43199	0.11501
3447.14622	0.11454
3445.86046	0.11436
3444.57469	0.11468
3443.28892	0.11537
3442.00315	0.11612
3440.71738	0.11668
3439.43161	0.11695
3438.14584	0.11697
3436.86007	0.11682
3435.57431	0.11670
3434.28854	0.11684
3433.00277	0.11731
3431.71700	0.11791
3430.43123	0.11824
3429.14546	0.11814
3427.85969	0.11788
3426.57392	0.11792
3425.28815	0.11844
3424.00239	0.11923
3422.71662	0.11991
3421.43085	0.12028
3420.14508	0.12046
3418.85931	0.12063
3417.57354	0.12078
3416.28777	0.12075
3415.00200	0.12050
3413.71624	0.12024
3412.43047	0.12013
3411.14470	0.12015
3409.85893	0.12018
3408.57316	0.12022
3407.28739	0.12032
3406.00162	0.12050
3404.71585	0.12075
3403.43008	0.12106
3402.14432	0.12143
3400.85855	0.12178
3399.57278	0.12198
3398.28701	0.12199
3397.00124	0.12191
3395.71547	0.12194
3394.42970	0.12206
3393.14393	0.12209
3391.85817	0.12198
3390.57240	0.12198
3389.28663	0.12236
3388.00086	0.12310
3386.71509	0.12393
3385.42932	0.12462
3384.14355	0.12513
3382.85778	0.12545
3381.57201	0.12545
3380.28625	0.12506
3379.00048	0.12443
3377.71471	0.12390
3376.42894	0.12363
3375.14317	0.12349
3373.85740	0.12329
3372.57163	0.12314
3371.28586	0.12328
3370.00010	0.12367
3368.71433	0.12396
3367.42856	0.12382
3366.14279	0.12331
3364.85702	0.12272
3363.57125	0.12230
3362.28548	0.12219
3360.99971	0.12240
3359.71394	0.12282
3358.42818	0.12321
3357.14241	0.12341
3355.85664	0.12340
3354.57087	0.12330
3353.28510	0.12325
3351.99933	0.12332
3350.71356	0.12353
3349.42779	0.12379
3348.14202	0.12402
3346.85626	0.12414
3345.57049	0.12415
3344.28472	0.12413
3342.99895	0.12415
3341.71318	0.12421
3340.42741	0.12424
3339.14164	0.12416
3337.85587	0.12398
3336.57011	0.12389
3335.28434	0.12410
3333.99857	0.12460
3332.71280	0.12513
3331.42703	0.12536
3330.14126	0.12522
3328.85549	0.12491
3327.56972	0.12470
3326.28395	0.12467
3324.99819	0.12472
3323.71242	0.12463
3322.42665	0.12427
3321.14088	0.12378
3319.85511	0.12346
3318.56934	0.12353
3317.28357	0.12393
3315.99780	0.12439
3314.71204	0.12467
3313.42627	0.12468
3312.14050	0.12450
3310.85473	0.12423
3309.56896	0.12401
3308.28319	0.12397
3306.99742	0.12418
3305.71165	0.12446
3304.42588	0.12455
3303.14012	0.12439
3301.85435	0.12413
3300.56858	0.12394
3299.28281	0.12374
3297.99704	0.12332
3296.71127	0.12270
3295.42550	0.12212
3294.13973	0.12187
3292.85397	0.12197
3291.56820	0.12225
3290.28243	0.12254
3288.99666	0.12280
3287.71089	0.12292
3286.42512	0.12275
3285.13935	0.12232
3283.85358	0.12187
3282.56781	0.12158
3281.28205	0.12143
3279.99628	0.12136
3278.71051	0.12142
3277.42474	0.12166
3276.13897	0.12200
3274.85320	0.12228
3273.56743	0.12235
3272.28166	0.12219
3270.99590	0.12187
3269.71013	0.12155
3268.42436	0.12132
3267.13859	0.12122
3265.85282	0.12122
3264.56705	0.12131
3263.28128	0.12147
3261.99551	0.12165
3260.70974	0.12183
3259.42398	0.12200
3258.13821	0.12212
3256.85244	0.12215
3255.56667	0.12213
3254.28090	0.12210
3252.99513	0.12207
3251.70936	0.12199
3250.42359	0.12189
3249.13783	0.12186
3247.85206	0.12198
3246.56629	0.12221
3245.28052	0.12244
3243.99475	0.12260
3242.70898	0.12260
3241.42321	0.12227
3240.13744	0.12151
3238.85167	0.12050
3237.56591	0.11967
3236.28014	0.11933
3234.99437	0.11941
3233.70860	0.11962
3232.42283	0.11971
3231.13706	0.11962
3229.85129	0.11937
3228.56552	0.11913
3227.27976	0.11915
3225.99399	0.11962
3224.70822	0.12037
3223.42245	0.12096
3222.13668	0.12103
3220.85091	0.12057
3219.56514	0.11989
3218.27937	0.11930
3216.99360	0.11885
3215.70784	0.11847
3214.42207	0.11815
3213.13630	0.11796
3211.85053	0.11794
3210.56476	0.11793
3209.27899	0.11773
3207.99322	0.11733
3206.70745	0.11700
3205.42169	0.11694
3204.13592	0.11713
3202.85015	0.11739
3201.56438	0.11764
3200.27861	0.11785
3198.99284	0.11795
3197.70707	0.11783
3196.42130	0.11754
3195.13553	0.11722
3193.84977	0.11705
3192.56400	0.11708
3191.27823	0.11719
3189.99246	0.11720
3188.70669	0.11696
3187.42092	0.11658
3186.13515	0.11632
3184.84938	0.11630
3183.56362	0.11638
3182.27785	0.11627
3180.99208	0.11592
3179.70631	0.11548
3178.42054	0.11518
3177.13477	0.11509
3175.84900	0.11514
3174.56323	0.11515
3173.27746	0.11497
3171.99170	0.11457
3170.70593	0.11401
3169.42016	0.11347
3168.13439	0.11316
3166.84862	0.11319
3165.56285	0.11346
3164.27708	0.11370
3162.99131	0.11369
3161.70555	0.11348
3160.41978	0.11325
3159.13401	0.11315
3157.84824	0.11320
3156.56247	0.11327
3155.27670	0.11319
3153.99093	0.11288
3152.70516	0.11243
3151.41939	0.11206
3150.13363	0.11189
3148.84786	0.11188
3147.56209	0.11187
3146.27632	0.11176
3144.99055	0.11155
3143.70478	0.11130
3142.41901	0.11110
3141.13324	0.11100
3139.84748	0.11103
3138.56171	0.11111
3137.27594	0.11112
3135.99017	0.11094
3134.70440	0.11063
3133.41863	0.11030
3132.13286	0.11003
3130.84709	0.10979
3129.56132	0.10958
3128.27556	0.10950
3126.98979	0.10964
3125.70402	0.10993
3124.41825	0.11011
3123.13248	0.10999
3121.84671	0.10956
3120.56094	0.10897
3119.27517	0.10842
3117.98940	0.10802
3116.70364	0.10783
3115.41787	0.10784
3114.13210	0.10795
3112.84633	0.10802
3111.56056	0.10797
3110.27479	0.10776
3108.98902	0.10748
3107.70325	0.10725
3106.41749	0.10709
3105.13172	0.10695
3103.84595	0.10676
3102.56018	0.10651
3101.27441	0.10626
3099.98864	0.10611
3098.70287	0.10608
3097.41710	0.10610
3096.13133	0.10609
3094.84557	0.10602
3093.55980	0.10593
3092.27403	0.10584
3090.98826	0.10574
3089.70249	0.10557
3088.41672	0.10543
3087.13095	0.10544
3085.84518	0.10557
3084.55942	0.10560
3083.27365	0.10534
3081.98788	0.10487
3080.70211	0.10442
3079.41634	0.10416
3078.13057	0.10402
3076.84480	0.10391
3075.55903	0.10374
3074.27326	0.10353
3072.98750	0.10326
3071.70173	0.10297
3070.41596	0.10273
3069.13019	0.10256
3067.84442	0.10247
3066.55865	0.10244
3065.27288	0.10248
3063.98711	0.10262
3062.70135	0.10282
3061.41558	0.10300
3060.12981	0.10304
3058.84404	0.10282
3057.55827	0.10236
3056.27250	0.10178
3054.98673	0.10126
3053.70096	0.10092
3052.41519	0.10076
3051.12943	0.10071
3049.84366	0.10067
3048.55789	0.10058
3047.27212	0.10046
3045.98635	0.10034
3044.70058	0.10025
3043.41481	0.10012
3042.12904	0.09985
3040.84328	0.09945
3039.55751	0.09904
3038.27174	0.09870
3036.98597	0.09844
3035.70020	0.09824
3034.41443	0.09820
3033.12866	0.09842
3031.84289	0.09877
3030.55712	0.09892
3029.27136	0.09863
3027.98559	0.09804
3026.69982	0.09749
3025.41405	0.09721
3024.12828	0.09719
3022.84251	0.09732
3021.55674	0.09748
3020.27097	0.09756
3018.98521	0.09742
3017.69944	0.09704
3016.41367	0.09654
3015.12790	0.09607
3013.84213	0.09575
3012.55636	0.09556
3011.27059	0.09545
3009.98482	0.09535
3008.69905	0.09518
3007.41329	0.09494
3006.12752	0.09469
3004.84175	0.09458
3003.55598	0.09466
3002.27021	0.09483
3000.98444	0.09490
2999.69867	0.09473
2998.41290	0.09429
2997.12714	0.09380
2995.84137	0.09353
2994.55560	0.09358
2993.26983	0.09386
2991.98406	0.09420
2990.69829	0.09455
2989.41252	0.09495
2988.12675	0.09541
2986.84098	0.09582
2985.55522	0.09606
2984.26945	0.09617
2982.98368	0.09638
2981.69791	0.09688
2980.41214	0.09772
2979.12637	0.09889
2977.84060	0.10036
2976.55483	0.10211
2975.26907	0.10402
2973.98330	0.10594
2972.69753	0.10783
2971.41176	0.10983
2970.12599	0.11211
2968.84022	0.11471
2967.55445	0.11751
2966.26868	0.12037
2964.98291	0.12321
2963.69715	0.12606
2962.41138	0.12895
2961.12561	0.13180
2959.83984	0.13457
2958.55407	0.13733
2957.26830	0.14015
2955.98253	0.14291
2954.69676	0.14533
2953.41100	0.14711
2952.12523	0.14818
2950.83946	0.14863
2949.55369	0.14862
2948.26792	0.14826
2946.98215	0.14767
2945.69638	0.14703
2944.41061	0.14659
2943.12484	0.14656
2941.83908	0.14697
2940.55331	0.14779
2939.26754	0.14903
2937.98177	0.15083
2936.69600	0.15321
2935.41023	0.15598
2934.12446	0.15888
2932.83869	0.16173
2931.55293	0.16441
2930.26716	0.16678
2928.98139	0.16883
2927.69562	0.17072
2926.40985	0.17258
2925.12408	0.17431
2923.83831	0.17571
2922.55254	0.17653
2921.26677	0.17662
2919.98101	0.17591
2918.69524	0.17451
2917.40947	0.17272
2916.12370	0.17088
2914.83793	0.16914
2913.55216	0.16739
2912.26639	0.16546
2910.98062	0.16338
2909.69486	0.16137
2908.40909	0.15954
2907.12332	0.15782
2905.83755	0.15615
2904.55178	0.15453
2903.26601	0.15298
2901.98024	0.15146
2900.69447	0.14985
2899.40870	0.14817
2898.12294	0.14650
2896.83717	0.14495
2895.55140	0.14350
2894.26563	0.14199
2892.97986	0.14031
2891.69409	0.13842
2890.40832	0.13642
2889.12255	0.13445
2887.83678	0.13269
2886.55102	0.13126
2885.26525	0.13017
2883.97948	0.12932
2882.69371	0.12860
2881.40794	0.12804
2880.12217	0.12776
2878.83640	0.12794
2877.55063	0.12867
2876.26487	0.12984
2874.97910	0.13117
2873.69333	0.13241
2872.40756	0.13348
2871.12179	0.13449
2869.83602	0.13550
2868.55025	0.13647
2867.26448	0.13725
2865.97871	0.13774
2864.69295	0.13797
2863.40718	0.13808
2862.12141	0.13821
2860.83564	0.13841
2859.54987	0.13874
2858.26410	0.13918
2856.97833	0.13963
2855.69256	0.13990
2854.40680	0.13988
2853.12103	0.13957
2851.83526	0.13897
2850.54949	0.13800
2849.26372	0.13653
2847.97795	0.13458
2846.69218	0.13230
2845.40641	0.12991
2844.12064	0.12752
2842.83488	0.12514
2841.54911	0.12273
2840.26334	0.12028
2838.97757	0.11783
2837.69180	0.11542
2836.40603	0.11307
2835.12026	0.11080
2833.83449	0.10869
2832.54873	0.10679
2831.26296	0.10512
2829.97719	0.10366
2828.69142	0.10236
2827.40565	0.10115
2826.11988	0.10000
2824.83411	0.09890
2823.54834	0.09791
2822.26257	0.09704
2820.97681	0.09625
2819.69104	0.09542
2818.40527	0.09453
2817.11950	0.09363
2815.83373	0.09282
2814.54796	0.09214
2813.26219	0.09161
2811.97642	0.09128
2810.69066	0.09108
2809.40489	0.09086
2808.11912	0.09050
2806.83335	0.09002
2805.54758	0.08953
2804.26181	0.08902
2802.97604	0.08853
2801.69027	0.08813
2800.40450	0.08788
2799.11874	0.08767
2797.83297	0.08739
2796.54720	0.08708
2795.26143	0.08685
2793.97566	0.08672
2792.68989	0.08656
2791.40412	0.08624
2790.11835	0.08568
2788.83259	0.08495
2787.54682	0.08422
2786.26105	0.08365
2784.97528	0.08336
2783.68951	0.08327
2782.40374	0.08327
2781.11797	0.08320
2779.83220	0.08295
2778.54643	0.08257
2777.26067	0.08222
2775.97490	0.08203
2774.68913	0.08196
2773.40336	0.08188
2772.11759	0.08171
2770.83182	0.08142
2769.54605	0.08105
2768.26028	0.08070
2766.97452	0.08047
2765.68875	0.08042
2764.40298	0.08047
2763.11721	0.08045
2761.83144	0.08025
2760.54567	0.07986
2759.25990	0.07943
2757.97413	0.07913
2756.68836	0.07902
2755.40260	0.07897
2754.11683	0.07883
2752.83106	0.07857
2751.54529	0.07831
2750.25952	0.07809
2748.97375	0.07789
2747.68798	0.07772
2746.40221	0.07767
2745.11645	0.07777
2743.83068	0.07791
2742.54491	0.07795
2741.25914	0.07787
2739.97337	0.07773
2738.68760	0.07760
2737.40183	0.07748
2736.11606	0.07737
2734.83029	0.07722
2733.54453	0.07704
2732.25876	0.07688
2730.97299	0.07674
2729.68722	0.07659
2728.40145	0.07642
2727.11568	0.07624
2725.82991	0.07611
2724.54414	0.07610
2723.25838	0.07622
2721.97261	0.07636
2720.68684	0.07636
2719.40107	0.07617
2718.11530	0.07588
2716.82953	0.07560
2715.54376	0.07533
2714.25799	0.07499
2712.97222	0.07459
2711.68646	0.07422
2710.40069	0.07401
2709.11492	0.07395
2707.82915	0.07392
2706.54338	0.07381
2705.25761	0.07359
2703.97184	0.07333
2702.68607	0.07315
2701.40031	0.07309
2700.11454	0.07311
2698.82877	0.07318
2697.54300	0.07326
2696.25723	0.07329
2694.97146	0.07320
2693.68569	0.07298
2692.39992	0.07268
2691.11415	0.07238
2689.82839	0.07216
2688.54262	0.07206
2687.25685	0.07205
2685.97108	0.07205
2684.68531	0.07194
2683.39954	0.07171
2682.11377	0.07140
2680.82800	0.07114
2679.54224	0.07100
2678.25647	0.07094
2676.97070	0.07087
2675.68493	0.07072
2674.39916	0.07050
2673.11339	0.07032
2671.82762	0.07027
2670.54185	0.07029
2669.25608	0.07028
2667.97032	0.07011
2666.68455	0.06982
2665.39878	0.06954
2664.11301	0.06943
2662.82724	0.06955
2661.54147	0.06983
2660.25570	0.07012
2658.96993	0.07024
2657.68417	0.07014
2656.39840	0.06989
2655.11263	0.06962
2653.82686	0.06947
2652.54109	0.06943
2651.25532	0.06940
2649.96955	0.06924
2648.68378	0.06887
2647.39801	0.06831
2646.11225	0.06768
2644.82648	0.06713
2643.54071	0.06671
2642.25494	0.06642
2640.96917	0.06618
2639.68340	0.06598
2638.39763	0.06583
2637.11186	0.06567
2635.82609	0.06542
2634.54033	0.06504
2633.25456	0.06462
2631.96879	0.06424
2630.68302	0.06394
2629.39725	0.06372
2628.11148	0.06359
2626.82571	0.06353
2625.53994	0.06344
2624.25418	0.06316
2622.96841	0.06267
2621.68264	0.06220
2620.39687	0.06204
2619.11110	0.06213
2617.82533	0.06215
2616.53956	0.06181
2615.25379	0.06119
2613.96802	0.06063
2612.68226	0.06030
2611.39649	0.06011
2610.11072	0.05991
2608.82495	0.05977
2607.53918	0.05984
2606.25341	0.06010
2604.96764	0.06035
2603.68187	0.06035
2602.39611	0.06006
2601.11034	0.05955
2599.82457	0.05892
2598.53880	0.05833
2597.25303	0.05799
2595.96726	0.05801
2594.68149	0.05830
2593.39572	0.05856
2592.10995	0.05861
2590.82419	0.05845
2589.53842	0.05824
2588.25265	0.05806
2586.96688	0.05786
2585.68111	0.05762
2584.39534	0.05746
2583.10957	0.05749
2581.82380	0.05759
2580.53804	0.05745
2579.25227	0.05691
2577.96650	0.05623
2576.68073	0.05580
2575.39496	0.05577
2574.10919	0.05593
2572.82342	0.05599
2571.53765	0.05592
2570.25188	0.05588
2568.96612	0.05602
2567.68035	0.05627
2566.39458	0.05640
2565.10881	0.05626
2563.82304	0.05587
2562.53727	0.05543
2561.25150	0.05513
2559.96573	0.05495
2558.67997	0.05479
2557.39420	0.05463
2556.10843	0.05454
2554.82266	0.05464
2553.53689	0.05497
2552.25112	0.05541
2550.96535	0.05571
2549.67958	0.05567
2548.39381	0.05532
2547.10805	0.05487
2545.82228	0.05449
2544.53651	0.05423
2543.25074	0.05408
2541.96497	0.05407
2540.67920	0.05411
2539.39343	0.05404
2538.10766	0.05371
2536.82190	0.05314
2535.53613	0.05253
2534.25036	0.05220
2532.96459	0.05233
2531.67882	0.05280
2530.39305	0.05332
2529.10728	0.05369
2527.82151	0.05385
2526.53574	0.05369
2525.24998	0.05320
2523.96421	0.05259
2522.67844	0.05224
2521.39267	0.05233
2520.10690	0.05268
2518.82113	0.05296
2517.53536	0.05300
2516.24959	0.05287
2514.96383	0.05266
2513.67806	0.05240
2512.39229	0.05205
2511.10652	0.05163
2509.82075	0.05132
2508.53498	0.05126
2507.24921	0.05139
2505.96344	0.05154
2504.67767	0.05161
2503.39191	0.05169
2502.10614	0.05178
2500.82037	0.05179
2499.53460	0.05167
2498.24883	0.05151
2496.96306	0.05144
2495.67729	0.05147
2494.39152	0.05151
2493.10576	0.05150
2491.81999	0.05137
2490.53422	0.05108
2489.24845	0.05065
2487.96268	0.05027
2486.67691	0.05017
2485.39114	0.05036
2484.10537	0.05059
2482.81960	0.05064
2481.53384	0.05058
2480.24807	0.05058
2478.96230	0.05062
2477.67653	0.05048
2476.39076	0.05017
2475.10499	0.04994
2473.81922	0.05003
2472.53345	0.05032
2471.24769	0.05054
2469.96192	0.05050
2468.67615	0.05019
2467.39038	0.04972
2466.10461	0.04929
2464.81884	0.04910
2463.53307	0.04924
2462.24730	0.04959
2460.96153	0.04992
2459.67577	0.04999
2458.39000	0.04982
2457.10423	0.04965
2455.81846	0.04969
2454.53269	0.04991
2453.24692	0.05012
2451.96115	0.05015
2450.67538	0.04995
2449.38962	0.04960
2448.10385	0.04923
2446.81808	0.04890
2445.53231	0.04863
2444.24654	0.04839
2442.96077	0.04819
2441.67500	0.04809
2440.38923	0.04812
2439.10346	0.04824
2437.81770	0.04841
2436.53193	0.04861
2435.24616	0.04881
2433.96039	0.04898
2432.67462	0.04900
2431.38885	0.04877
2430.10308	0.04835
2428.81731	0.04792
2427.53155	0.04764
2426.24578	0.04751
2424.96001	0.04746
2423.67424	0.04745
2422.38847	0.04745
2421.10270	0.04744
2419.81693	0.04740
2418.53116	0.04732
2417.24539	0.04729
2415.95963	0.04735
2414.67386	0.04746
2413.38809	0.04749
2412.10232	0.04741
2410.81655	0.04735
2409.53078	0.04747
2408.24501	0.04781
2406.95924	0.04819
2405.67347	0.04837
2404.38771	0.04819
2403.10194	0.04771
2401.81617	0.04714
2400.53040	0.04658
2399.24463	0.04374
2397.95886	0.04207
2396.67309	0.04239
2395.38732	0.04371
2394.10156	0.04525
2392.81579	0.04667
2391.53002	0.04791
2390.24425	0.04905
2388.95848	0.05020
2387.67271	0.05141
2386.38694	0.05262
2385.10117	0.05369
2383.81540	0.05443
2382.52964	0.05475
2381.24387	0.05464
2379.95810	0.05430
2378.67233	0.05379
2377.38656	0.05308
2376.10079	0.05265
2374.81502	0.05276
2373.52925	0.05330
2372.24349	0.05410
2370.95772	0.05466
2369.67195	0.05540
2368.38618	0.05639
2367.10041	0.05719
2365.81464	0.05830
2364.52887	0.06066
2363.24310	0.06336
2361.95733	0.06484
2360.67157	0.06493
2359.38580	0.06475
2358.10003	0.06452
2356.81426	0.06480
2355.52849	0.06630
2354.24272	0.06826
2352.95695	0.07011
2351.67118	0.07075
2350.38542	0.06922
2349.09965	0.06769
2347.81388	0.06808
2346.52811	0.06832
2345.24234	0.06670
2343.95657	0.06487
2342.67080	0.06483
2341.38503	0.06582
2340.09926	0.06642
2338.81350	0.06639
2337.52773	0.06574
2336.24196	0.06541
2334.95619	0.06515
2333.67042	0.06437
2332.38465	0.06395
2331.09888	0.06408
2329.81311	0.06476
2328.52735	0.06626
2327.24158	0.06715
2325.95581	0.06644
2324.67004	0.06443
2323.38427	0.06111
2322.09850	0.05730
2320.81273	0.05453
2319.52696	0.05299
2318.24119	0.05237
2316.95543	0.05248
2315.66966	0.05273
2314.38389	0.05252
2313.09812	0.05170
2311.81235	0.05074
2310.52658	0.05000
2309.24081	0.04953
2307.95504	0.04941
2306.66928	0.04955
2305.38351	0.04971
2304.09774	0.04969
2302.81197	0.04948
2301.52620	0.04919
2300.24043	0.04900
2298.95466	0.04902
2297.66889	0.04919
2296.38312	0.04931
2295.09736	0.04926
2293.81159	0.04903
2292.52582	0.04870
2291.24005	0.04831
2289.95428	0.04779
2288.66851	0.04698
2287.38274	0.04585
2286.09697	0.04452
2284.81121	0.04321
2283.52544	0.04212
2282.23967	0.04134
2280.95390	0.04085
2279.66813	0.04061
2278.38236	0.04048
2277.09659	0.04030
2275.81082	0.03993
2274.52505	0.03941
2273.23929	0.03891
2271.95352	0.03851
2270.66775	0.03826
2269.38198	0.03818
2268.09621	0.03830
2266.81044	0.03851
2265.52467	0.03867
2264.23890	0.03868
2262.95314	0.03862
2261.66737	0.03861
2260.38160	0.03869
2259.09583	0.03875
2257.81006	0.03867
2256.52429	0.03842
2255.23852	0.03805
2253.95275	0.03770
2252.66698	0.03752
2251.38122	0.03736
2250.09545	0.03656
2248.80968	0.03490
2247.52391	0.03457
2246.23814	0.03481
2244.95237	0.03536
2243.66660	0.03574
2242.38083	0.03563
2241.09507	0.03517
2239.80930	0.03472
2238.52353	0.03441
2237.23776	0.03406
2235.95199	0.03351
2234.66622	0.03280
2233.38045	0.03212
2232.09468	0.03164
2230.80891	0.03146
2229.52315	0.03151
2228.23738	0.03168
2226.95161	0.03177
2225.66584	0.03165
2224.38007	0.03124
2223.09430	0.03052
2221.80853	0.02963
2220.52276	0.02890
2219.23700	0.02873
2217.95123	0.02927
2216.66546	0.03026
2215.37969	0.03112
2214.09392	0.03138
2212.80815	0.03107
2211.52238	0.03057
2210.23661	0.03010
2208.95084	0.02964
2207.66508	0.02928
2206.37931	0.02927
2205.09354	0.02960
2203.80777	0.02990
2202.52200	0.02985
2201.23623	0.02945
2199.95046	0.02867
2198.66469	0.02743
2197.37893	0.02590
2196.09316	0.02470
2194.80739	0.02429
2193.52162	0.02454
2192.23585	0.02496
2190.95008	0.02519
2189.66431	0.02524
2188.37854	0.02535
2187.09277	0.02572
2185.80701	0.02620
2184.52124	0.02637
2183.23547	0.02595
2181.94970	0.02507
2180.66393	0.02415
2179.37816	0.02371
2178.09239	0.02408
2176.80662	0.02508
2175.52085	0.02605
2174.23509	0.02631
2172.94932	0.02569
2171.66355	0.02446
2170.37778	0.02303
2169.09201	0.02185
2167.80624	0.02125
2166.52047	0.02128
2165.23470	0.02170
2163.94894	0.02201
2162.66317	0.02174
2161.37740	0.02057
2160.09163	0.01858
2158.80586	0.01635
2157.52009	0.01471
2156.23432	0.01418
2154.94855	0.01461
2153.66278	0.01548
2152.37702	0.01646
2151.09125	0.01750
2149.80548	0.01850
2148.51971	0.01916
2147.23394	0.01938
2145.94817	0.01956
2144.66240	0.02025
2143.37663	0.02149
2142.09087	0.02268
2140.80510	0.02316
2139.51933	0.02285
2138.23356	0.02223
2136.94779	0.02182
2135.66202	0.02182
2134.37625	0.02220
2133.09048	0.02288
2131.80471	0.02368
2130.51895	0.02444
2129.23318	0.02514
2127.94741	0.02599
2126.66164	0.02701
2125.37587	0.02788
2124.09010	0.02817
2122.80433	0.02782
2121.51856	0.02720
2120.23280	0.02685
2118.94703	0.02703
2117.66126	0.02752
2116.37549	0.02788
2115.08972	0.02784
2113.80395	0.02749
2112.51818	0.02712
2111.23241	0.02707
2109.94664	0.02744
2108.66088	0.02788
2107.37511	0.02779
2106.08934	0.02698
2104.80357	0.02589
2103.51780	0.02515
2102.23203	0.02489
2100.94626	0.02497
2099.66049	0.02543
2098.37473	0.02583
2097.08896	0.02594
2095.80319	0.02568
2094.51742	0.02528
2093.23165	0.02521
2091.94588	0.02571
2090.66011	0.02654
2089.37434	0.02724
2088.08857	0.02749
2086.80281	0.02733
2085.51704	0.02696
2084.23127	0.02653
2082.94550	0.02604
2081.65973	0.02544
2080.37396	0.02481
2079.08819	0.02426
2077.80242	0.02389
2076.51666	0.02370
2075.23089	0.02364
2073.94512	0.02361
2072.65935	0.02346
2071.37358	0.02310
2070.08781	0.02263
2068.80204	0.02225
2067.51627	0.02201
2066.23050	0.02182
2064.94474	0.02170
2063.65897	0.02172
2062.37320	0.02188
2061.08743	0.02199
2059.80166	0.02177
2058.51589	0.02116
2057.23012	0.02035
2055.94435	0.01967
2054.65859	0.01939
2053.37282	0.01955
2052.08705	0.01995
2050.80128	0.02024
2049.51551	0.02015
2048.22974	0.01951
2046.94397	0.01844
2045.65820	0.01725
2044.37243	0.01627
2043.08667	0.01565
2041.80090	0.01533
2040.51513	0.01522
2039.22936	0.01530
2037.94359	0.01550
2036.65782	0.01560
2035.37205	0.01537
2034.08628	0.01488
2032.80052	0.01439
2031.51475	0.01402
2030.22898	0.01356
2028.94321	0.01289
2027.65744	0.01233
2026.37167	0.01250
2025.08590	0.01356
2023.80013	0.01492
2022.51436	0.01577
2021.22860	0.01580
2019.94283	0.01534
2018.65706	0.01488
2017.37129	0.01460
2016.08552	0.01446
2014.79975	0.01452
2013.51398	0.01489
2012.22821	0.01546
2010.94245	0.01582
2009.65668	0.01560
2008.37091	0.01490
2007.08514	0.01428
2005.79937	0.01431
2004.51360	0.01513
2003.22783	0.01643
2001.94206	0.01770
2000.65629	0.01859
1999.37053	0.01904
1998.08476	0.01922
1996.79899	0.01927
1995.51322	0.01922
1994.22745	0.01913
1992.94168	0.01900
1991.65591	0.01882
1990.37014	0.01858
1989.08438	0.01833
1987.79861	0.01817
1986.51284	0.01814
1985.22707	0.01827
1983.94130	0.01855
1982.65553	0.01887
1981.36976	0.01900
1980.08399	0.01886
1978.79822	0.01856
1977.51246	0.01828
1976.22669	0.01819
1974.94092	0.01844
1973.65515	0.01907
1972.36938	0.01973
1971.08361	0.01979
1969.79784	0.01902
1968.51207	0.01796
1967.22631	0.01752
1965.94054	0.01804
1964.65477	0.01909
1963.36900	0.01991
1962.08323	0.02011
1960.79746	0.01989
1959.51169	0.01966
1958.22592	0.01970
1956.94015	0.02006
1955.65439	0.02065
1954.36862	0.02137
1953.08285	0.02200
1951.79708	0.02224
1950.51131	0.02191
1949.22554	0.02125
1947.93977	0.02074
1946.65400	0.02076
1945.36823	0.02131
1944.08247	0.02211
1942.79670	0.02278
1941.51093	0.02309
1940.22516	0.02300
1938.93939	0.02268
1937.65362	0.02230
1936.36785	0.02198
1935.08208	0.02186
1933.79632	0.02207
1932.51055	0.02270
1931.22478	0.02358
1929.93901	0.02446
1928.65324	0.02515
1927.36747	0.02557
1926.08170	0.02570
1924.79593	0.02553
1923.51016	0.02513
1922.22440	0.02468
1920.93863	0.02449
1919.65286	0.02466
1918.36709	0.02498
1917.08132	0.02513
1915.79555	0.02506
1914.50978	0.02495
1913.22401	0.02490
1911.93825	0.02488
1910.65248	0.02487
1909.36671	0.02491
1908.08094	0.02507
1906.79517	0.02524
1905.50940	0.02527
1904.22363	0.02510
1902.93786	0.02485
1901.65209	0.02474
1900.36633	0.02484
1899.08056	0.02509
1897.79479	0.02541
1896.50902	0.02573
1895.22325	0.02601
1893.93748	0.02617
1892.65171	0.02617
1891.36594	0.02606
1890.08018	0.02592
1888.79441	0.02581
1887.50864	0.02580
1886.22287	0.02589
1884.93710	0.02598
1883.65133	0.02594
1882.36556	0.02573
1881.07979	0.02547
1879.79402	0.02532
1878.50826	0.02537
1877.22249	0.02558
1875.93672	0.02586
1874.65095	0.02610
1873.36518	0.02622
1872.07941	0.02623
1870.79364	0.02618
1869.50787	0.02611
1868.22211	0.02602
1866.93634	0.02594
1865.65057	0.02595
1864.36480	0.02607
1863.07903	0.02619
1861.79326	0.02622
1860.50749	0.02613
1859.22172	0.02601
1857.93595	0.02596
1856.65019	0.02600
1855.36442	0.02606
1854.07865	0.02606
1852.79288	0.02596
1851.50711	0.02577
1850.22134	0.02553
1848.93557	0.02531
1847.64980	0.02523
1846.36404	0.02539
1845.07827	0.02570
1843.79250	0.02589
1842.50673	0.02587
1841.22096	0.02581
1839.93519	0.02586
1838.64942	0.02601
1837.36365	0.02615
1836.07788	0.02625
1834.79212	0.02632
1833.50635	0.02639
1832.22058	0.02652
1830.93481	0.02670
1829.64904	0.02684
1828.36327	0.02687
1827.07750	0.02682
1825.79173	0.02675
1824.50597	0.02667
1823.22020	0.02665
1821.93443	0.02670
1820.64866	0.02677
1819.36289	0.02678
1818.07712	0.02675
1816.79135	0.02675
1815.50558	0.02678
1814.21981	0.02679
1812.93405	0.02679
1811.64828	0.02678
1810.36251	0.02681
1809.07674	0.02690
1807.79097	0.02703
1806.50520	0.02718
1805.21943	0.02731
1803.93366	0.02743
1802.64790	0.02756
1801.36213	0.02765
1800.07636	0.02768
1798.79059	0.02762
1797.50482	0.02751
1796.21905	0.02745
1794.93328	0.02756
1793.64751	0.02780
1792.36174	0.02797
1791.07598	0.02792
1789.79021	0.02773
1788.50444	0.02757
1787.21867	0.02751
1785.93290	0.02751
1784.64713	0.02751
1783.36136	0.02755
1782.07559	0.02765
1780.78983	0.02776
1779.50406	0.02776
1778.21829	0.02768
1776.93252	0.02768
1775.64675	0.02791
1774.36098	0.02835
1773.07521	0.02878
1771.78944	0.02895
1770.50367	0.02892
1769.21791	0.02895
1767.93214	0.02904
1766.64637	0.02908
1765.36060	0.02905
1764.07483	0.02907
1762.78906	0.02909
1761.50329	0.02900
1760.21752	0.02884
1758.93176	0.02879
1757.64599	0.02887
1756.36022	0.02891
1755.07445	0.02884
1753.78868	0.02883
1752.50291	0.02900
1751.21714	0.02925
1749.93137	0.02944
1748.64560	0.02954
1747.35984	0.02959
1746.07407	0.02955
1744.78830	0.02943
1743.50253	0.02933
1742.21676	0.02937
1740.93099	0.02953
1739.64522	0.02963
1738.35945	0.02961
1737.07369	0.02971
1735.78792	0.03014
1734.50215	0.03059
1733.21638	0.03063
1731.93061	0.03034
1730.64484	0.03014
1729.35907	0.03021
1728.07330	0.03044
1726.78753	0.03073
1725.50177	0.03102
1724.21600	0.03124
1722.93023	0.03132
1721.64446	0.03135
1720.35869	0.03161
1719.07292	0.03217
1717.78715	0.03277
1716.50138	0.03314
1715.21561	0.03332
1713.92985	0.03353
1712.64408	0.03384
1711.35831	0.03419
1710.07254	0.03455
1708.78677	0.03496
1707.50100	0.03546
1706.21523	0.03597
1704.92946	0.03633
1703.64370	0.03664
1702.35793	0.03711
1701.07216	0.03765
1699.78639	0.03791
1698.50062	0.03801
1697.21485	0.03836
1695.92908	0.03890
1694.64331	0.03921
1693.35754	0.03927
1692.07178	0.03941
1690.78601	0.03964
1689.50024	0.03978
1688.21447	0.03986
1686.92870	0.04015
1685.64293	0.04065
1684.35716	0.04098
1683.07139	0.04096
1681.78563	0.04091
1680.49986	0.04110
1679.21409	0.04147
1677.92832	0.04190
1676.64255	0.04235
1675.35678	0.04270
1674.07101	0.04288
1672.78524	0.04306
1671.49947	0.04342
1670.21371	0.04386
1668.92794	0.04419
1667.64217	0.04436
1666.35640	0.04458
1665.07063	0.04501
1663.78486	0.04556
1662.49909	0.04603
1661.21332	0.04631
1659.92756	0.04647
1658.64179	0.04657
1657.35602	0.04668
1656.07025	0.04701
1654.78448	0.04768
1653.49871	0.04829
1652.21294	0.04830
1650.92717	0.04788
1649.64140	0.04771
1648.35564	0.04806
1647.06987	0.04855
1645.78410	0.04878
1644.49833	0.04875
1643.21256	0.04871
1641.92679	0.04876
1640.64102	0.04884
1639.35525	0.04889
1638.06949	0.04904
1636.78372	0.04928
1635.49795	0.04940
1634.21218	0.04931
1632.92641	0.04920
1631.64064	0.04930
1630.35487	0.04956
1629.06910	0.04979
1627.78333	0.04989
1626.49757	0.04991
1625.21180	0.05000
1623.92603	0.05014
1622.64026	0.05019
1621.35449	0.05011
1620.06872	0.05012
1618.78295	0.05044
1617.49718	0.05090
1616.21142	0.05118
1614.92565	0.05120
1613.63988	0.05122
1612.35411	0.05143
1611.06834	0.05177
1609.78257	0.05210
1608.49680	0.05242
1607.21103	0.05274
1605.92526	0.05304
1604.63950	0.05330
1603.35373	0.05352
1602.06796	0.05369
1600.78219	0.05387
1599.49642	0.05408
1598.21065	0.05434
1596.92488	0.05466
1595.63911	0.05503
1594.35335	0.05538
1593.06758	0.05570
1591.78181	0.05598
1590.49604	0.05627
1589.21027	0.05659
1587.92450	0.05694
1586.63873	0.05730
1585.35296	0.05765
1584.06719	0.05799
1582.78143	0.05834
1581.49566	0.05868
1580.20989	0.05909
1578.92412	0.05971
1577.63835	0.06062
1576.35258	0.06156
1575.06681	0.06220
1573.78104	0.06264
1572.49528	0.06321
1571.20951	0.06401
1569.92374	0.06481
1568.63797	0.06540
1567.35220	0.06585
1566.06643	0.06629
1564.78066	0.06672
1563.49489	0.06716
1562.20912	0.06782
1560.92336	0.06881
1559.63759	0.06982
1558.35182	0.07035
1557.06605	0.07048
1555.78028	0.07067
1554.49451	0.07109
1553.20874	0.07156
1551.92297	0.07197
1550.63721	0.07232
1549.35144	0.07260
1548.06567	0.07279
1546.77990	0.07296
1545.49413	0.07308
1544.20836	0.07315
1542.92259	0.07322
1541.63682	0.07341
1540.35105	0.07357
1539.06529	0.07342
1537.77952	0.07295
1536.49375	0.07250
1535.20798	0.07235
1533.92221	0.07233
1532.63644	0.07224
1531.35067	0.07213
1530.06490	0.07217
1528.77914	0.07243
1527.49337	0.07280
1526.20760	0.07315
1524.92183	0.07355
1523.63606	0.07416
1522.35029	0.07502
1521.06452	0.07590
1519.77875	0.07669
1518.49298	0.07757
1517.20722	0.07868
1515.92145	0.07997
1514.63568	0.08136
1513.34991	0.08283
1512.06414	0.08433
1510.77837	0.08584
1509.49260	0.08754
1508.20683	0.08950
1506.92107	0.09146
1505.63530	0.09301
1504.34953	0.09414
1503.06376	0.09523
1501.77799	0.09647
1500.49222	0.09777
1499.20645	0.09901
1497.92068	0.10018
1496.63491	0.10121
1495.34915	0.10205
1494.06338	0.10279
1492.77761	0.10363
1491.49184	0.10467
1490.20607	0.10580
1488.92030	0.10695
1487.63453	0.10813
1486.34876	0.10943
1485.06299	0.11089
1483.77723	0.11251
1482.49146	0.11424
1481.20569	0.11600
1479.91992	0.11774
1478.63415	0.11948
1477.34838	0.12128
1476.06261	0.12314
1474.77684	0.12509
1473.49108	0.12703
1472.20531	0.12877
1470.91954	0.13025
1469.63377	0.13163
1468.34800	0.13311
1467.06223	0.13469
1465.77646	0.13624
1464.49069	0.13757
1463.20492	0.13865
1461.91916	0.13959
1460.63339	0.14059
1459.34762	0.14180
1458.06185	0.14314
1456.77608	0.14424
1455.49031	0.14489
1454.20454	0.14525
1452.91877	0.14557
1451.63301	0.14590
1450.34724	0.14618
1449.06147	0.14636
1447.77570	0.14637
1446.48993	0.14617
1445.20416	0.14574
1443.91839	0.14513
1442.63262	0.14430
1441.34685	0.14333
1440.06109	0.14241
1438.77532	0.14179
1437.48955	0.14153
1436.20378	0.14145
1434.91801	0.14149
1433.63224	0.14184
1432.34647	0.14267
1431.06070	0.14397
1429.77494	0.14562
1428.48917	0.14756
1427.20340	0.14972
1425.91763	0.15204
1424.63186	0.15440
1423.34609	0.15668
1422.06032	0.15891
1420.77455	0.16115
1419.48878	0.16324
1418.20302	0.16498
1416.91725	0.16635
1415.63148	0.16749
1414.34571	0.16845
1413.05994	0.16919
1411.77417	0.16964
1410.48840	0.16977
1409.20263	0.16952
1407.91687	0.16888
1406.63110	0.16786
1405.34533	0.16644
1404.05956	0.16460
1402.77379	0.16242
1401.48802	0.16002
1400.20225	0.15745
1398.91648	0.15466
1397.63071	0.15168
1396.34495	0.14860
1395.05918	0.14543
1393.77341	0.14215
1392.48764	0.13879
1391.20187	0.13552
1389.91610	0.13243
1388.63033	0.12953
1387.34456	0.12679
1386.05880	0.12422
1384.77303	0.12178
1383.48726	0.11943
1382.20149	0.11707
1380.91572	0.11472
1379.62995	0.11243
1378.34418	0.11017
1377.05841	0.10782
1375.77264	0.10521
1374.48688	0.10221
1373.20111	0.09884
1371.91534	0.09529
1370.62957	0.09182
1369.34380	0.08857
1368.05803	0.08557
1366.77226	0.08278
1365.48649	0.08015
1364.20073	0.07761
1362.91496	0.07509
1361.62919	0.07259
1360.34342	0.07020
1359.05765	0.06800
1357.77188	0.06604
1356.48611	0.06430
1355.20034	0.06275
1353.91457	0.06136
1352.62881	0.06012
1351.34304	0.05902
1350.05727	0.05800
1348.77150	0.05701
1347.48573	0.05603
1346.19996	0.05507
1344.91419	0.05416
1343.62842	0.05329
1342.34266	0.05249
1341.05689	0.05178
1339.77112	0.05114
1338.48535	0.05050
1337.19958	0.04982
1335.91381	0.04915
1334.62804	0.04853
1333.34227	0.04801
1332.05650	0.04756
1330.77074	0.04716
1329.48497	0.04678
1328.19920	0.04640
1326.91343	0.04602
1325.62766	0.04563
1324.34189	0.04526
1323.05612	0.04491
1321.77035	0.04457
1320.48459	0.04426
1319.19882	0.04400
1317.91305	0.04373
1316.62728	0.04344
1315.34151	0.04310
1314.05574	0.04276
1312.76997	0.04246
1311.48420	0.04221
1310.19843	0.04200
1308.91267	0.04177
1307.62690	0.04150
1306.34113	0.04117
1305.05536	0.04082
1303.76959	0.04050
1302.48382	0.04023
1301.19805	0.04000
1299.91228	0.03974
1298.62652	0.03943
1297.34075	0.03908
1296.05498	0.03873
1294.76921	0.03841
1293.48344	0.03810
1292.19767	0.03781
1290.91190	0.03752
1289.62613	0.03725
1288.34036	0.03698
1287.05460	0.03674
1285.76883	0.03652
1284.48306	0.03632
1283.19729	0.03608
1281.91152	0.03577
1280.62575	0.03542
1279.33998	0.03509
1278.05421	0.03484
1276.76845	0.03467
1275.48268	0.03453
1274.19691	0.03436
1272.91114	0.03416
1271.62537	0.03394
1270.33960	0.03375
1269.05383	0.03359
1267.76806	0.03340
1266.48229	0.03318
1265.19653	0.03291
1263.91076	0.03264
1262.62499	0.03239
1261.33922	0.03218
1260.05345	0.03201
1258.76768	0.03187
1257.48191	0.03172
1256.19614	0.03156
1254.91037	0.03138
1253.62461	0.03120
1252.33884	0.03102
1251.05307	0.03085
1249.76730	0.03070
1248.48153	0.03056
1247.19576	0.03043
1245.90999	0.03028
1244.62422	0.03011
1243.33846	0.02992
1242.05269	0.02973
1240.76692	0.02956
1239.48115	0.02941
1238.19538	0.02928
1236.90961	0.02914
1235.62384	0.02897
1234.33807	0.02877
1233.05230	0.02856
1231.76654	0.02834
1230.48077	0.02813
1229.19500	0.02794
1227.90923	0.02780
1226.62346	0.02768
1225.33769	0.02758
1224.05192	0.02748
1222.76615	0.02738
1221.48039	0.02726
1220.19462	0.02712
1218.90885	0.02697
1217.62308	0.02680
1216.33731	0.02665
1215.05154	0.02653
1213.76577	0.02644
1212.48000	0.02635
1211.19423	0.02625
1209.90847	0.02612
1208.62270	0.02599
1207.33693	0.02591
1206.05116	0.02589
1204.76539	0.02591
1203.47962	0.02590
1202.19385	0.02583
1200.90808	0.02569
1199.62232	0.02551
1198.33655	0.02535
1197.05078	0.02522
1195.76501	0.02512
1194.47924	0.02504
1193.19347	0.02495
1191.90770	0.02485
1190.62193	0.02476
1189.33616	0.02469
1188.05040	0.02463
1186.76463	0.02459
1185.47886	0.02456
1184.19309	0.02453
1182.90732	0.02450
1181.62155	0.02447
1180.33578	0.02448
1179.05001	0.02453
1177.76425	0.02460
1176.47848	0.02466
1175.19271	0.02473
1173.90694	0.02482
1172.62117	0.02496
1171.33540	0.02513
1170.04963	0.02530
1168.76386	0.02543
1167.47809	0.02553
1166.19233	0.02563
1164.90656	0.02578
1163.62079	0.02600
1162.33502	0.02623
1161.04925	0.02644
1159.76348	0.02664
1158.47771	0.02689
1157.19194	0.02718
1155.90618	0.02749
1154.62041	0.02782
1153.33464	0.02824
1152.04887	0.02877
1150.76310	0.02936
1149.47733	0.02996
1148.19156	0.03056
1146.90579	0.03120
1145.62002	0.03189
1144.33426	0.03265
1143.04849	0.03354
1141.76272	0.03463
1140.47695	0.03588
1139.19118	0.03724
1137.90541	0.03869
1136.61964	0.04023
1135.33387	0.04188
1134.04811	0.04369
1132.76234	0.04573
1131.47657	0.04810
1130.19080	0.05089
1128.90503	0.05407
1127.61926	0.05757
1126.33349	0.06131
1125.04772	0.06526
1123.76195	0.06941
1122.47619	0.07371
1121.19042	0.07812
1119.90465	0.08262
1118.61888	0.08722
1117.33311	0.09192
1116.04734	0.09666
1114.76157	0.10138
1113.47580	0.10602
1112.19004	0.11057
1110.90427	0.11504
1109.61850	0.11938
1108.33273	0.12355
1107.04696	0.12753
1105.76119	0.13137
1104.47542	0.13511
1103.18965	0.13875
1101.90388	0.14226
1100.61812	0.14563
1099.33235	0.14886
1098.04658	0.15195
1096.76081	0.15487
1095.47504	0.15757
1094.18927	0.16006
1092.90350	0.16239
1091.61773	0.16460
1090.33197	0.16673
1089.04620	0.16877
1087.76043	0.17075
1086.47466	0.17269
1085.18889	0.17463
1083.90312	0.17663
1082.61735	0.17878
1081.33158	0.18113
1080.04581	0.18368
1078.76005	0.18645
1077.47428	0.18942
1076.18851	0.19255
1074.90274	0.19579
1073.61697	0.19911
1072.33120	0.20251
1071.04543	0.20596
1069.75966	0.20945
1068.47390	0.21308
1067.18813	0.21693
1065.90236	0.22096
1064.61659	0.22506
1063.33082	0.22915
1062.04505	0.23319
1060.75928	0.23719
1059.47351	0.24121
1058.18774	0.24525
1056.90198	0.24931
1055.61621	0.25336
1054.33044	0.25737
1053.04467	0.26139
1051.75890	0.26551
1050.47313	0.26977
1049.18736	0.27417
1047.90159	0.27866
1046.61583	0.28324
1045.33006	0.28795
1044.04429	0.29280
1042.75852	0.29778
1041.47275	0.30281
1040.18698	0.30785
1038.90121	0.31292
1037.61544	0.31809
1036.32967	0.32334
1035.04391	0.32858
1033.75814	0.33368
1032.47237	0.33850
1031.18660	0.34297
1029.90083	0.34705
1028.61506	0.35071
1027.32929	0.35402
1026.04352	0.35704
1024.75775	0.35981
1023.47199	0.36224
1022.18622	0.36413
1020.90045	0.36537
1019.61468	0.36601
1018.32891	0.36613
1017.04314	0.36575
1015.75737	0.36482
1014.47160	0.36332
1013.18584	0.36127
1011.90007	0.35868
1010.61430	0.35557
1009.32853	0.35193
1008.04276	0.34766
1006.75699	0.34268
1005.47122	0.33700
1004.18545	0.33077
1002.89968	0.32417
1001.61392	0.31723
1000.32815	0.30988
999.04238	0.30208
997.75661	0.29389
996.47084	0.28545
995.18507	0.27683
993.89930	0.26812
992.61353	0.25941
991.32777	0.25082
990.04200	0.24244
988.75623	0.23430
987.47046	0.22643
986.18469	0.21886
984.89892	0.21157
983.61315	0.20458
982.32738	0.19791
981.04161	0.19159
979.75585	0.18561
978.47008	0.17993
977.18431	0.17464
975.89854	0.16988
974.61277	0.16581
973.32700	0.16246
972.04123	0.15986
970.75546	0.15800
969.46970	0.15687
968.18393	0.15648
966.89816	0.15681
965.61239	0.15771
964.32662	0.15893
963.04085	0.16009
961.75508	0.16081
960.46931	0.16080
959.18354	0.15993
957.89778	0.15821
956.61201	0.15574
955.32624	0.15266
954.04047	0.14915
952.75470	0.14548
951.46893	0.14183
950.18316	0.13826
948.89739	0.13478
947.61163	0.13139
946.32586	0.12813
945.04009	0.12495
943.75432	0.12180
942.46855	0.11867
941.18278	0.11562
939.89701	0.11274
938.61124	0.11008
937.32547	0.10763
936.03971	0.10538
934.75394	0.10329
933.46817	0.10135
932.18240	0.09948
930.89663	0.09764
929.61086	0.09587
928.32509	0.09419
927.03932	0.09266
925.75356	0.09123
924.46779	0.08988
923.18202	0.08857
921.89625	0.08729
920.61048	0.08606
919.32471	0.08494
918.03894	0.08397
916.75317	0.08309
915.46740	0.08222
914.18164	0.08131
912.89587	0.08041
911.61010	0.07957
910.32433	0.07875
909.03856	0.07795
907.75279	0.07715
906.46702	0.07634
905.18125	0.07552
903.89549	0.07469
902.60972	0.07390
901.32395	0.07320
900.03818	0.07258
898.75241	0.07200
897.46664	0.07147
896.18087	0.07102
894.89510	0.07066
893.60933	0.07038
892.32357	0.07019
891.03780	0.07012
889.75203	0.07023
888.46626	0.07052
887.18049	0.07113
885.89472	0.07235
884.60895	0.07455
883.32318	0.07789
882.03742	0.08201
880.75165	0.08620
879.46588	0.08974
878.18011	0.09240
876.89434	0.09455
875.60857	0.09672
874.32280	0.09907
873.03703	0.10121
871.75126	0.10256
870.46550	0.10270
869.17973	0.10162
867.89396	0.09950
866.60819	0.09660
865.32242	0.09324
864.03665	0.08980
862.75088	0.08659
861.46511	0.08375
860.17935	0.08125
858.89358	0.07902
857.60781	0.07704
856.32204	0.07530
855.03627	0.07380
853.75050	0.07247
852.46473	0.07126
851.17896	0.07013
849.89319	0.06912
848.60743	0.06821
847.32166	0.06743
846.03589	0.06676
844.75012	0.06616
843.46435	0.06559
842.17858	0.06499
840.89281	0.06436
839.60704	0.06371
838.32128	0.06310
837.03551	0.06258
835.74974	0.06216
834.46397	0.06179
833.17820	0.06141
831.89243	0.06098
830.60666	0.06053
829.32089	0.06014
828.03512	0.05985
826.74936	0.05963
825.46359	0.05942
824.17782	0.05920
822.89205	0.05898
821.60628	0.05880
820.32051	0.05869
819.03474	0.05866
817.74897	0.05870
816.46321	0.05873
815.17744	0.05867
813.89167	0.05850
812.60590	0.05825
811.32013	0.05799
810.03436	0.05775
808.74859	0.05752
807.46282	0.05728
806.17705	0.05703
804.89129	0.05682
803.60552	0.05670
802.31975	0.05663
801.03398	0.05656
799.74821	0.05647
798.46244	0.05634
797.17667	0.05613
795.89090	0.05582
794.60513	0.05541
793.31937	0.05498
792.03360	0.05465
790.74783	0.05446
789.46206	0.05438
788.17629	0.05436
786.89052	0.05435
785.60475	0.05433
784.31898	0.05427
783.03322	0.05415
781.74745	0.05397
780.46168	0.05375
779.17591	0.05351
777.89014	0.05325
776.60437	0.05302
775.31860	0.05286
774.03283	0.05280
772.74706	0.05279
771.46130	0.05276
770.17553	0.05270
768.88976	0.05269
767.60399	0.05279
766.31822	0.05297
765.03245	0.05308
763.74668	0.05303
762.46091	0.05282
761.17515	0.05255
759.88938	0.05238
758.60361	0.05241
757.31784	0.05267
756.03207	0.05305
754.74630	0.05341
753.46053	0.05366
752.17476	0.05370
750.88899	0.05353
749.60323	0.05326
748.31746	0.05306
747.03169	0.05301
745.74592	0.05300
744.46015	0.05290
743.17438	0.05270
741.88861	0.05250
740.60284	0.05226
739.31708	0.05195
738.03131	0.05163
736.74554	0.05142
735.45977	0.05133
734.17400	0.05121
732.88823	0.05099
731.60246	0.05076
730.31669	0.05066
729.03092	0.05065
727.74516	0.05064
726.45939	0.05057
725.17362	0.05053
723.88785	0.05094
722.60208	0.05061
721.31631	0.04981
720.03054	0.04905
718.74477	0.04850
717.45901	0.04827
716.17324	0.04829
714.88747	0.04844
713.60170	0.04867
712.31593	0.04889
711.03016	0.04903
709.74439	0.04908
708.45862	0.04908
707.17285	0.04905
705.88709	0.04897
704.60132	0.04884
703.31555	0.04868
702.02978	0.04852
700.74401	0.04835
699.45824	0.04813
698.17247	0.04781
696.88670	0.04739
695.60094	0.04694
694.31517	0.04656
693.02940	0.04629
691.74363	0.04609
690.45786	0.04592
689.17209	0.04574
687.88632	0.04554
686.60055	0.04533
685.31478	0.04511
684.02902	0.04491
682.74325	0.04478
681.45748	0.04476
680.17171	0.04484
678.88594	0.04501
677.60017	0.04523
676.31440	0.04544
675.02863	0.04546
673.74287	0.04480
672.45710	0.04291
671.17133	0.04032
669.88556	0.03953
668.59979	0.04175
667.31402	0.04273
666.02825	0.04176
664.74248	0.04234
663.45671	0.04374
662.17095	0.04432
660.88518	0.04407
659.59941	0.04354
658.31364	0.04303
657.02787	0.04260
655.74210	0.04220
654.45633	0.04180
653.17056	0.04145
651.88480	0.04118
650.59903	0.04100
649.31326	0.04091
648.02749	0.04087
646.74172	0.04087
645.45595	0.04093
644.17018	0.04103
642.88441	0.04118
641.59864	0.04140
640.31288	0.04166
639.02711	0.04195
637.74134	0.04226
636.45557	0.04258
635.16980	0.04293
633.88403	0.04334
632.59826	0.04388
631.31249	0.04459
630.02673	0.04548
628.74096	0.04630
627.45519	0.04683
626.16942	0.04799
624.88365	0.04994
623.59788	0.05285
622.31211	0.05673
621.02634	0.06086
619.74057	0.06434
618.45481	0.06697
617.16904	0.06909
615.88327	0.07123
614.59750	0.07402
613.31173	0.07812
612.02596	0.08380
610.74019	0.09075
609.45442	0.09831
608.16866	0.10606
606.88289	0.11394
605.59712	0.12165
604.31135	0.12818
603.02558	0.13248
601.73981	0.13416
600.45404	0.13351
599.16827	0.13111
597.88250	0.12759
596.59674	0.12358
595.31097	0.11955
594.02520	0.11581
592.73943	0.11261
591.45366	0.11017
590.16789	0.10861
588.88212	0.10791
587.59635	0.10793
586.31059	0.10859
585.02482	0.10992
583.73905	0.11195
582.45328	0.11463
581.16751	0.11775
579.88174	0.12110
578.59597	0.12451
577.31020	0.12784
576.02443	0.13096
574.73867	0.13379
573.45290	0.13640
572.16713	0.13903
570.88136	0.14208
569.59559	0.14588
568.30982	0.15053
567.02405	0.15587
565.73828	0.16152
564.45251	0.16694
563.16675	0.17146
561.88098	0.17434
560.59521	0.17505
559.30944	0.17339
558.02367	0.16954
556.73790	0.16393
555.45213	0.15709
554.16636	0.14953
552.88060	0.14172
551.59483	0.13405
550.30906	0.12681
549.02329	0.12019
547.73752	0.11430
546.45175	0.10912
545.16598	0.10450
543.88021	0.10024
542.59444	0.09622
541.30868	0.09240
540.02291	0.08884
538.73714	0.08565
537.45137	0.08289
536.16560	0.08051
534.87983	0.07831
533.59406	0.07615
532.30829	0.07399
531.02253	0.07193
529.73676	0.07004
528.45099	0.06827
527.16522	0.06652
525.87945	0.06474
524.59368	0.06305
523.30791	0.06160
522.02214	0.06045
520.73637	0.05948
519.45061	0.05852
518.16484	0.05746
516.87907	0.05626
515.59330	0.05497
514.30753	0.05368
513.02176	0.05250
511.73599	0.05149
510.45022	0.05065
509.16446	0.04990
507.87869	0.04912
506.59292	0.04826
505.30715	0.04734
504.02138	0.04647
502.73561	0.04573
501.44984	0.04509
500.16407	0.04445
498.87830	0.04379
497.59254	0.04325
496.30677	0.04290
495.02100	0.04266
493.73523	0.04235
492.44946	0.04182
491.16369	0.04114
489.87792	0.04051
488.59215	0.04011
487.30639	0.03996
486.02062	0.03995
484.73485	0.03995
483.44908	0.03991
482.16331	0.03987
480.87754	0.03989
479.59177	0.03998
478.30600	0.04013
477.02023	0.04035
475.73447	0.04065
474.44870	0.04099
473.16293	0.04129
471.87716	0.04148
470.59139	0.04151
469.30562	0.04142
468.01985	0.04120
466.73408	0.04085
465.44832	0.04040
464.16255	0.03991
462.87678	0.03946
461.59101	0.03905
460.30524	0.03866
459.01947	0.03823
457.73370	0.03769
456.44793	0.03706
455.16216	0.03641
453.87640	0.03584
452.59063	0.03537
451.30486	0.03503
450.01909	0.03481
448.73332	0.03466
447.44755	0.03453
446.16178	0.03439
444.87601	0.03427
443.59025	0.03416
442.30448	0.03407
441.01871	0.03400
439.73294	0.03398
438.44717	0.03399
437.16140	0.03395
435.87563	0.03380
434.58986	0.03358
433.30409	0.03334
432.01833	0.03315
430.73256	0.03299
429.44679	0.03281
428.16102	0.03261
426.87525	0.03240
425.58948	0.03219
424.30371	0.03198
423.01794	0.03177
421.73218	0.03165
420.44641	0.03164
419.16064	0.03164
417.87487	0.03153
416.58910	0.03133
415.30333	0.03115
414.01756	0.03103
412.73179	0.03095
411.44602	0.03088
410.16026	0.03083
408.87449	0.03080
407.58872	0.03082
406.30295	0.03087
405.01718	0.03093
403.73141	0.03098
402.44564	0.03104
401.15987	0.03112
399.87411	0.03124
