3997.45528	0.01441
3996.16951	0.01475
3994.88374	0.01497
3993.59798	0.01491
3992.31221	0.01454
3991.02644	0.01409
3989.74067	0.01388
3988.45490	0.01415
3987.16913	0.01489
3985.88336	0.01579
3984.59759	0.01643
3983.31183	0.01665
3982.02606	0.01657
3980.74029	0.01639
3979.45452	0.01613
3978.16875	0.01575
3976.88298	0.01533
3975.59721	0.01508
3974.31144	0.01515
3973.02567	0.01535
3971.73991	0.01534
3970.45414	0.01493
3969.16837	0.01430
3967.88260	0.01378
3966.59683	0.01368
3965.31106	0.01405
3964.02529	0.01470
3962.73952	0.01528
3961.45376	0.01560
3960.16799	0.01561
3958.88222	0.01540
3957.59645	0.01507
3956.31068	0.01484
3955.02491	0.01495
3953.73914	0.01538
3952.45337	0.01588
3951.16760	0.01620
3949.88184	0.01630
3948.59607	0.01622
3947.31030	0.01600
3946.02453	0.01573
3944.73876	0.01561
3943.45299	0.01582
3942.16722	0.01633
3940.88145	0.01685
3939.59569	0.01703
3938.30992	0.01665
3937.02415	0.01582
3935.73838	0.01494
3934.45261	0.01434
3933.16684	0.01405
3931.88107	0.01394
3930.59530	0.01399
3929.30953	0.01435
3928.02377	0.01506
3926.73800	0.01581
3925.45223	0.01617
3924.16646	0.01597
3922.88069	0.01546
3921.59492	0.01504
3920.30915	0.01499
3919.02338	0.01521
3917.73762	0.01540
3916.45185	0.01530
3915.16608	0.01498
3913.88031	0.01475
3912.59454	0.01484
3911.30877	0.01511
3910.02300	0.01524
3908.73723	0.01509
3907.45146	0.01482
3906.16570	0.01456
3904.87993	0.01420
3903.59416	0.01368
3902.30839	0.01324
3901.02262	0.01330
3899.73685	0.01393
3898.45108	0.01477
3897.16531	0.01536
3895.87955	0.01562
3894.59378	0.01568
3893.30801	0.01554
3892.02224	0.01509
3890.73647	0.01441
3889.45070	0.01387
3888.16493	0.01383
3886.87916	0.01427
3885.59339	0.01482
3884.30763	0.01509
3883.02186	0.01498
3881.73609	0.01475
3880.45032	0.01470
3879.16455	0.01489
3877.87878	0.01507
3876.59301	0.01497
3875.30724	0.01459
3874.02148	0.01416
3872.73571	0.01399
3871.44994	0.01421
3870.16417	0.01474
3868.87840	0.01539
3867.59263	0.01598
3866.30686	0.01636
3865.02109	0.01646
3863.73532	0.01639
3862.44956	0.01630
3861.16379	0.01617
3859.87802	0.01582
3858.59225	0.01521
3857.30648	0.01456
3856.02071	0.01414
3854.73494	0.01393
3853.44917	0.01372
3852.16341	0.01340
3850.87764	0.01310
3849.59187	0.01293
3848.30610	0.01277
3847.02033	0.01243
3845.73456	0.01202
3844.44879	0.01186
3843.16302	0.01222
3841.87725	0.01293
3840.59149	0.01353
3839.30572	0.01363
3838.01995	0.01319
3836.73418	0.01262
3835.44841	0.01240
3834.16264	0.01271
3832.87687	0.01327
3831.59110	0.01363
3830.30534	0.01363
3829.01957	0.01349
3827.73380	0.01356
3826.44803	0.01395
3825.16226	0.01437
3823.87649	0.01449
3822.59072	0.01431
3821.30495	0.01414
3820.01918	0.01419
3818.73342	0.01431
3817.44765	0.01419
3816.16188	0.01369
3814.87611	0.01304
3813.59034	0.01261
3812.30457	0.01264
3811.01880	0.01303
3809.73303	0.01346
3808.44726	0.01361
3807.16150	0.01341
3805.87573	0.01306
3804.58996	0.01290
3803.30419	0.01317
3802.01842	0.01367
3800.73265	0.01390
3799.44688	0.01355
3798.16111	0.01290
3796.87535	0.01252
3795.58958	0.01269
3794.30381	0.01326
3793.01804	0.01394
3791.73227	0.01447
3790.44650	0.01456
3789.16073	0.01404
3787.87496	0.01320
3786.58919	0.01266
3785.30343	0.01281
3784.01766	0.01336
3782.73189	0.01374
3781.44612	0.01371
3780.16035	0.01348
3778.87458	0.01337
3777.58881	0.01346
3776.30304	0.01368
3775.01728	0.01406
3773.73151	0.01458
3772.44574	0.01503
3771.15997	0.01503
3769.87420	0.01439
3768.58843	0.01330
3767.30266	0.01225
3766.01689	0.01171
3764.73112	0.01187
3763.44536	0.01269
3762.15959	0.01392
3760.87382	0.01516
3759.58805	0.01592
3758.30228	0.01594
3757.01651	0.01539
3755.73074	0.01482
3754.44497	0.01477
3753.15921	0.01534
3751.87344	0.01613
3750.58767	0.01657
3749.30190	0.01636
3748.01613	0.01566
3746.73036	0.01494
3745.44459	0.01449
3744.15882	0.01433
3742.87305	0.01426
3741.58729	0.01407
3740.30152	0.01379
3739.01575	0.01363
3737.72998	0.01382
3736.44421	0.01443
3735.15844	0.01532
3733.87267	0.01612
3732.58690	0.01642
3731.30114	0.01596
3730.01537	0.01499
3728.72960	0.01410
3727.44383	0.01368
3726.15806	0.01358
3724.87229	0.01338
3723.58652	0.01288
3722.30075	0.01233
3721.01498	0.01212
3719.72922	0.01249
3718.44345	0.01335
3717.15768	0.01428
3715.87191	0.01479
3714.58614	0.01468
3713.30037	0.01423
3712.01460	0.01390
3710.72883	0.01395
3709.44307	0.01416
3708.15730	0.01410
3706.87153	0.01359
3705.58576	0.01289
3704.29999	0.01248
3703.01422	0.01250
3701.72845	0.01258
3700.44268	0.01232
3699.15691	0.01178
3697.87115	0.01138
3696.58538	0.01144
3695.29961	0.01188
3694.01384	0.01236
3692.72807	0.01253
3691.44230	0.01236
3690.15653	0.01196
3688.87076	0.01142
3687.58500	0.01090
3686.29923	0.01071
3685.01346	0.01110
3683.72769	0.01200
3682.44192	0.01304
3681.15615	0.01383
3679.87038	0.01421
3678.58461	0.01427
3677.29884	0.01414
3676.01308	0.01389
3674.72731	0.01367
3673.44154	0.01368
3672.15577	0.01404
3670.87000	0.01459
3669.58423	0.01497
3668.29846	0.01495
3667.01269	0.01461
3665.72693	0.01422
3664.44116	0.01408
3663.15539	0.01424
3661.86962	0.01448
3660.58385	0.01449
3659.29808	0.01421
3658.01231	0.01395
3656.72654	0.01409
3655.44077	0.01461
3654.15501	0.01504
3652.86924	0.01505
3651.58347	0.01477
3650.29770	0.01458
3649.01193	0.01467
3647.72616	0.01494
3646.44039	0.01517
3645.15462	0.01524
3643.86886	0.01519
3642.58309	0.01519
3641.29732	0.01545
3640.01155	0.01597
3638.72578	0.01649
3637.44001	0.01665
3636.15424	0.01630
3634.86847	0.01567
3633.58270	0.01522
3632.29694	0.01540
3631.01117	0.01625
3629.72540	0.01727
3628.43963	0.01774
3627.15386	0.01737
3625.86809	0.01646
3624.58232	0.01556
3623.29655	0.01496
3622.01079	0.01458
3620.72502	0.01433
3619.43925	0.01425
3618.15348	0.01440
3616.86771	0.01470
3615.58194	0.01495
3614.29617	0.01512
3613.01040	0.01531
3611.72463	0.01558
3610.43887	0.01592
3609.15310	0.01626
3607.86733	0.01651
3606.58156	0.01654
3605.29579	0.01616
3604.01002	0.01539
3602.72425	0.01449
3601.43848	0.01391
3600.15272	0.01400
3598.86695	0.01483
3597.58118	0.01605
3596.29541	0.01712
3595.00964	0.01773
3593.72387	0.01788
3592.43810	0.01771
3591.15233	0.01729
3589.86656	0.01668
3588.58080	0.01592
3587.29503	0.01512
3586.00926	0.01442
3584.72349	0.01405
3583.43772	0.01418
3582.15195	0.01482
3580.86618	0.01578
3579.58041	0.01672
3578.29464	0.01743
3577.00888	0.01792
3575.72311	0.01833
3574.43734	0.01878
3573.15157	0.01914
3571.86580	0.01922
3570.58003	0.01898
3569.29426	0.01863
3568.00849	0.01836
3566.72273	0.01820
3565.43696	0.01807
3564.15119	0.01794
3562.86542	0.01786
3561.57965	0.01781
3560.29388	0.01772
3559.00811	0.01747
3557.72234	0.01708
3556.43657	0.01661
3555.15081	0.01621
3553.86504	0.01601
3552.57927	0.01602
3551.29350	0.01621
3550.00773	0.01652
3548.72196	0.01690
3547.43619	0.01720
3546.15042	0.01727
3544.86466	0.01698
3543.57889	0.01636
3542.29312	0.01570
3541.00735	0.01534
3539.72158	0.01548
3538.43581	0.01607
3537.15004	0.01690
3535.86427	0.01772
3534.57850	0.01823
3533.29274	0.01820
3532.00697	0.01769
3530.72120	0.01713
3529.43543	0.01694
3528.14966	0.01719
3526.86389	0.01761
3525.57812	0.01791
3524.29235	0.01794
3523.00659	0.01768
3521.72082	0.01723
3520.43505	0.01683
3519.14928	0.01663
3517.86351	0.01650
3516.57774	0.01621
3515.29197	0.01576
3514.00620	0.01553
3512.72043	0.01588
3511.43467	0.01669
3510.14890	0.01746
3508.86313	0.01775
3507.57736	0.01748
3506.29159	0.01694
3505.00582	0.01659
3503.72005	0.01670
3502.43428	0.01711
3501.14852	0.01744
3499.86275	0.01741
3498.57698	0.01716
3497.29121	0.01700
3496.00544	0.01707
3494.71967	0.01718
3493.43390	0.01714
3492.14813	0.01697
3490.86236	0.01679
3489.57660	0.01659
3488.29083	0.01638
3487.00506	0.01623
3485.71929	0.01631
3484.43352	0.01666
3483.14775	0.01716
3481.86198	0.01765
3480.57621	0.01799
3479.29045	0.01807
3478.00468	0.01789
3476.71891	0.01761
3475.43314	0.01753
3474.14737	0.01774
3472.86160	0.01810
3471.57583	0.01835
3470.29006	0.01843
3469.00429	0.01845
3467.71853	0.01845
3466.43276	0.01835
3465.14699	0.01811
3463.86122	0.01783
3462.57545	0.01762
3461.28968	0.01751
3460.00391	0.01737
3458.71814	0.01710
3457.43238	0.01678
3456.14661	0.01666
3454.86084	0.01690
3453.57507	0.01737
3452.28930	0.01770
3451.00353	0.01769
3449.71776	0.01745
3448.43199	0.01724
3447.14622	0.01714
3445.86046	0.01706
3444.57469	0.01692
3443.28892	0.01684
3442.00315	0.01699
3440.71738	0.01743
3439.43161	0.01803
3438.14584	0.01861
3436.86007	0.01896
3435.57431	0.01896
3434.28854	0.01867
3433.00277	0.01834
3431.71700	0.01823
3430.43123	0.01837
3429.14546	0.01850
3427.85969	0.01833
3426.57392	0.01781
3425.28815	0.01719
3424.00239	0.01687
3422.71662	0.01703
3421.43085	0.01753
3420.14508	0.01805
3418.85931	0.01843
3417.57354	0.01862
3416.28777	0.01857
3415.00200	0.01821
3413.71624	0.01770
3412.43047	0.01735
3411.14470	0.01738
3409.85893	0.01772
3408.57316	0.01815
3407.28739	0.01856
3406.00162	0.01898
3404.71585	0.01939
3403.43008	0.01964
3402.14432	0.01959
3400.85855	0.01927
3399.57278	0.01888
3398.28701	0.01863
3397.00124	0.01866
3395.71547	0.01894
3394.42970	0.01928
3393.14393	0.01940
3391.85817	0.01921
3390.57240	0.01891
3389.28663	0.01884
3388.00086	0.01906
3386.71509	0.01929
3385.42932	0.01920
3384.14355	0.01884
3382.85778	0.01852
3381.57201	0.01847
3380.28625	0.01870
3379.00048	0.01904
3377.71471	0.01930
3376.42894	0.01934
3375.14317	0.01916
3373.85740	0.01894
3372.57163	0.01879
3371.28586	0.01866
3370.00010	0.01841
3368.71433	0.01807
3367.42856	0.01782
3366.14279	0.01781
3364.85702	0.01808
3363.57125	0.01846
3362.28548	0.01868
3360.99971	0.01857
3359.71394	0.01826
3358.42818	0.01813
3357.14241	0.01837
3355.85664	0.01882
3354.57087	0.01917
3353.28510	0.01924
3351.99933	0.01907
3350.71356	0.01874
3349.42779	0.01835
3348.14202	0.01802
3346.85626	0.01783
3345.57049	0.01780
3344.28472	0.01792
3342.99895	0.01820
3341.71318	0.01860
3340.42741	0.01901
3339.14164	0.01929
3337.85587	0.01941
3336.57011	0.01952
3335.28434	0.01980
3333.99857	0.02032
3332.71280	0.02094
3331.42703	0.02141
3330.14126	0.02146
3328.85549	0.02094
3327.56972	0.02003
3326.28395	0.01913
3324.99819	0.01869
3323.71242	0.01885
3322.42665	0.01933
3321.14088	0.01968
3319.85511	0.01966
3318.56934	0.01935
3317.28357	0.01899
3315.99780	0.01875
3314.71204	0.01866
3313.42627	0.01875
3312.14050	0.01908
3310.85473	0.01961
3309.56896	0.02017
3308.28319	0.02055
3306.99742	0.02071
3305.71165	0.02077
3304.42588	0.02076
3303.14012	0.02060
3301.85435	0.02020
3300.56858	0.01967
3299.28281	0.01930
3297.99704	0.01926
3296.71127	0.01950
3295.42550	0.01983
3294.13973	0.02011
3292.85397	0.02025
3291.56820	0.02020
3290.28243	0.01992
3288.99666	0.01950
3287.71089	0.01920
3286.42512	0.01918
3285.13935	0.01942
3283.85358	0.01973
3282.56781	0.01994
3281.28205	0.02002
3279.99628	0.02006
3278.71051	0.02014
3277.42474	0.02024
3276.13897	0.02028
3274.85320	0.02017
3273.56743	0.01995
3272.28166	0.01974
3270.99590	0.01967
3269.71013	0.01977
3268.42436	0.01994
3267.13859	0.02004
3265.85282	0.02002
3264.56705	0.01998
3263.28128	0.01995
3261.99551	0.01991
3260.70974	0.01981
3259.42398	0.01974
3258.13821	0.01974
3256.85244	0.01978
3255.56667	0.01980
3254.28090	0.01980
3252.99513	0.01983
3251.70936	0.01986
3250.42359	0.01974
3249.13783	0.01947
3247.85206	0.01916
3246.56629	0.01892
3245.28052	0.01880
3243.99475	0.01880
3242.70898	0.01893
3241.42321	0.01919
3240.13744	0.01950
3238.85167	0.01973
3237.56591	0.01980
3236.28014	0.01973
3234.99437	0.01953
3233.70860	0.01916
3232.42283	0.01859
3231.13706	0.01795
3229.85129	0.01747
3228.56552	0.01729
3227.27976	0.01745
3225.99399	0.01788
3224.70822	0.01848
3223.42245	0.01900
3222.13668	0.01918
3220.85091	0.01896
3219.56514	0.01861
3218.27937	0.01847
3216.99360	0.01865
3215.70784	0.01893
3214.42207	0.01898
3213.13630	0.01869
3211.85053	0.01823
3210.56476	0.01784
3209.27899	0.01764
3207.99322	0.01759
3206.70745	0.01766
3205.42169	0.01782
3204.13592	0.01803
3202.85015	0.01815
3201.56438	0.01818
3200.27861	0.01823
3198.99284	0.01846
3197.70707	0.01884
3196.42130	0.01910
3195.13553	0.01899
3193.84977	0.01846
3192.56400	0.01773
3191.27823	0.01711
3189.99246	0.01683
3188.70669	0.01687
3187.42092	0.01713
3186.13515	0.01747
3184.84938	0.01775
3183.56362	0.01790
3182.27785	0.01788
3180.99208	0.01772
3179.70631	0.01746
3178.42054	0.01725
3177.13477	0.01724
3175.84900	0.01746
3174.56323	0.01774
3173.27746	0.01778
3171.99170	0.01749
3170.70593	0.01709
3169.42016	0.01694
3168.13439	0.01725
3166.84862	0.01787
3165.56285	0.01839
3164.27708	0.01845
3162.99131	0.01802
3161.70555	0.01742
3160.41978	0.01703
3159.13401	0.01700
3157.84824	0.01723
3156.56247	0.01752
3155.27670	0.01783
3153.99093	0.01816
3152.70516	0.01847
3151.41939	0.01856
3150.13363	0.01839
3148.84786	0.01808
3147.56209	0.01780
3146.27632	0.01759
3144.99055	0.01735
3143.70478	0.01710
3142.41901	0.01695
3141.13324	0.01697
3139.84748	0.01713
3138.56171	0.01739
3137.27594	0.01774
3135.99017	0.01817
3134.70440	0.01853
3133.41863	0.01860
3132.13286	0.01824
3130.84709	0.01761
3129.56132	0.01711
3128.27556	0.01702
3126.98979	0.01724
3125.70402	0.01737
3124.41825	0.01715
3123.13248	0.01670
3121.84671	0.01634
3120.56094	0.01626
3119.27517	0.01641
3117.98940	0.01662
3116.70364	0.01677
3115.41787	0.01676
3114.13210	0.01656
3112.84633	0.01628
3111.56056	0.01609
3110.27479	0.01611
3108.98902	0.01626
3107.70325	0.01641
3106.41749	0.01649
3105.13172	0.01656
3103.84595	0.01666
3102.56018	0.01678
3101.27441	0.01684
3099.98864	0.01676
3098.70287	0.01655
3097.41710	0.01627
3096.13133	0.01600
3094.84557	0.01587
3093.55980	0.01596
3092.27403	0.01629
3090.98826	0.01672
3089.70249	0.01707
3088.41672	0.01732
3087.13095	0.01757
3085.84518	0.01787
3084.55942	0.01809
3083.27365	0.01803
3081.98788	0.01767
3080.70211	0.01715
3079.41634	0.01670
3078.13057	0.01639
3076.84480	0.01622
3075.55903	0.01614
3074.27326	0.01615
3072.98750	0.01628
3071.70173	0.01659
3070.41596	0.01712
3069.13019	0.01781
3067.84442	0.01846
3066.55865	0.01880
3065.27288	0.01861
3063.98711	0.01795
3062.70135	0.01715
3061.41558	0.01657
3060.12981	0.01631
3058.84404	0.01629
3057.55827	0.01636
3056.27250	0.01651
3054.98673	0.01671
3053.70096	0.01691
3052.41519	0.01705
3051.12943	0.01707
3049.84366	0.01692
3048.55789	0.01659
3047.27212	0.01621
3045.98635	0.01597
3044.70058	0.01599
3043.41481	0.01619
3042.12904	0.01637
3040.84328	0.01639
3039.55751	0.01629
3038.27174	0.01620
3036.98597	0.01619
3035.70020	0.01623
3034.41443	0.01624
3033.12866	0.01619
3031.84289	0.01607
3030.55712	0.01593
3029.27136	0.01587
3027.98559	0.01601
3026.69982	0.01635
3025.41405	0.01669
3024.12828	0.01686
3022.84251	0.01679
3021.55674	0.01658
3020.27097	0.01636
3018.98521	0.01627
3017.69944	0.01634
3016.41367	0.01653
3015.12790	0.01666
3013.84213	0.01653
3012.55636	0.01614
3011.27059	0.01571
3009.98482	0.01552
3008.69905	0.01567
3007.41329	0.01602
3006.12752	0.01639
3004.84175	0.01663
3003.55598	0.01673
3002.27021	0.01673
3000.98444	0.01669
2999.69867	0.01662
2998.41290	0.01646
2997.12714	0.01614
2995.84137	0.01577
2994.55560	0.01562
2993.26983	0.01577
2991.98406	0.01597
2990.69829	0.01594
2989.41252	0.01569
2988.12675	0.01554
2986.84098	0.01573
2985.55522	0.01619
2984.26945	0.01660
2982.98368	0.01675
2981.69791	0.01670
2980.41214	0.01664
2979.12637	0.01663
2977.84060	0.01656
2976.55483	0.01640
2975.26907	0.01625
2973.98330	0.01631
2972.69753	0.01656
2971.41176	0.01677
2970.12599	0.01673
2968.84022	0.01647
2967.55445	0.01626
2966.26868	0.01635
2964.98291	0.01677
2963.69715	0.01730
2962.41138	0.01772
2961.12561	0.01798
2959.83984	0.01818
2958.55407	0.01838
2957.26830	0.01853
2955.98253	0.01856
2954.69676	0.01849
2953.41100	0.01836
2952.12523	0.01822
2950.83946	0.01806
2949.55369	0.01791
2948.26792	0.01782
2946.98215	0.01789
2945.69638	0.01814
2944.41061	0.01842
2943.12484	0.01849
2941.83908	0.01830
2940.55331	0.01805
2939.26754	0.01794
2937.98177	0.01801
2936.69600	0.01817
2935.41023	0.01830
2934.12446	0.01830
2932.83869	0.01820
2931.55293	0.01808
2930.26716	0.01805
2928.98139	0.01816
2927.69562	0.01835
2926.40985	0.01854
2925.12408	0.01862
2923.83831	0.01857
2922.55254	0.01850
2921.26677	0.01850
2919.98101	0.01859
2918.69524	0.01863
2917.40947	0.01848
2916.12370	0.01810
2914.83793	0.01766
2913.55216	0.01741
2912.26639	0.01746
2910.98062	0.01771
2909.69486	0.01795
2908.40909	0.01807
2907.12332	0.01807
2905.83755	0.01801
2904.55178	0.01795
2903.26601	0.01796
2901.98024	0.01803
2900.69447	0.01807
2899.40870	0.01802
2898.12294	0.01787
2896.83717	0.01768
2895.55140	0.01750
2894.26563	0.01737
2892.97986	0.01728
2891.69409	0.01719
2890.40832	0.01707
2889.12255	0.01694
2887.83678	0.01680
2886.55102	0.01664
2885.26525	0.01647
2883.97948	0.01630
2882.69371	0.01609
2881.40794	0.01584
2880.12217	0.01572
2878.83640	0.01583
2877.55063	0.01609
2876.26487	0.01629
2874.97910	0.01635
2873.69333	0.01636
2872.40756	0.01646
2871.12179	0.01674
2869.83602	0.01714
2868.55025	0.01749
2867.26448	0.01760
2865.97871	0.01745
2864.69295	0.01717
2863.40718	0.01682
2862.12141	0.01640
2860.83564	0.01593
2859.54987	0.01557
2858.26410	0.01544
2856.97833	0.01555
2855.69256	0.01578
2854.40680	0.01602
2853.12103	0.01623
2851.83526	0.01638
2850.54949	0.01650
2849.26372	0.01665
2847.97795	0.01691
2846.69218	0.01726
2845.40641	0.01760
2844.12064	0.01776
2842.83488	0.01762
2841.54911	0.01720
2840.26334	0.01668
2838.97757	0.01625
2837.69180	0.01600
2836.40603	0.01591
2835.12026	0.01588
2833.83449	0.01578
2832.54873	0.01557
2831.26296	0.01527
2829.97719	0.01499
2828.69142	0.01483
2827.40565	0.01480
2826.11988	0.01479
2824.83411	0.01473
2823.54834	0.01464
2822.26257	0.01458
2820.97681	0.01462
2819.69104	0.01474
2818.40527	0.01487
2817.11950	0.01489
2815.83373	0.01477
2814.54796	0.01457
2813.26219	0.01449
2811.97642	0.01459
2810.69066	0.01479
2809.40489	0.01488
2808.11912	0.01481
2806.83335	0.01472
2805.54758	0.01473
2804.26181	0.01482
2802.97604	0.01484
2801.69027	0.01472
2800.40450	0.01451
2799.11874	0.01432
2797.83297	0.01420
2796.54720	0.01415
2795.26143	0.01412
2793.97566	0.01412
2792.68989	0.01416
2791.40412	0.01426
2790.11835	0.01432
2788.83259	0.01420
2787.54682	0.01393
2786.26105	0.01365
2784.97528	0.01354
2783.68951	0.01356
2782.40374	0.01357
2781.11797	0.01352
2779.83220	0.01348
2778.54643	0.01352
2777.26067	0.01356
2775.97490	0.01352
2774.68913	0.01342
2773.40336	0.01335
2772.11759	0.01335
2770.83182	0.01344
2769.54605	0.01362
2768.26028	0.01384
2766.97452	0.01402
2765.68875	0.01408
2764.40298	0.01405
2763.11721	0.01404
2761.83144	0.01414
2760.54567	0.01427
2759.25990	0.01428
2757.97413	0.01411
2756.68836	0.01386
2755.40260	0.01365
2754.11683	0.01353
2752.83106	0.01345
2751.54529	0.01340
2750.25952	0.01340
2748.97375	0.01348
2747.68798	0.01361
2746.40221	0.01367
2745.11645	0.01362
2743.83068	0.01353
2742.54491	0.01351
2741.25914	0.01356
2739.97337	0.01365
2738.68760	0.01371
2737.40183	0.01368
2736.11606	0.01350
2734.83029	0.01325
2733.54453	0.01311
2732.25876	0.01317
2730.97299	0.01335
2729.68722	0.01348
2728.40145	0.01348
2727.11568	0.01336
2725.82991	0.01313
2724.54414	0.01284
2723.25838	0.01254
2721.97261	0.01232
2720.68684	0.01223
2719.40107	0.01230
2718.11530	0.01255
2716.82953	0.01293
2715.54376	0.01333
2714.25799	0.01359
2712.97222	0.01363
2711.68646	0.01348
2710.40069	0.01321
2709.11492	0.01290
2707.82915	0.01263
2706.54338	0.01247
2705.25761	0.01240
2703.97184	0.01241
2702.68607	0.01247
2701.40031	0.01258
2700.11454	0.01275
2698.82877	0.01295
2697.54300	0.01309
2696.25723	0.01310
2694.97146	0.01301
2693.68569	0.01290
2692.39992	0.01282
2691.11415	0.01277
2689.82839	0.01274
2688.54262	0.01270
2687.25685	0.01263
2685.97108	0.01257
2684.68531	0.01257
2683.39954	0.01263
2682.11377	0.01267
2680.82800	0.01267
2679.54224	0.01268
2678.25647	0.01280
2676.97070	0.01300
2675.68493	0.01317
2674.39916	0.01323
2673.11339	0.01315
2671.82762	0.01300
2670.54185	0.01287
2669.25608	0.01280
2667.97032	0.01276
2666.68455	0.01270
2665.39878	0.01259
2664.11301	0.01245
2662.82724	0.01235
2661.54147	0.01233
2660.25570	0.01232
2658.96993	0.01230
2657.68417	0.01233
2656.39840	0.01249
2655.11263	0.01276
2653.82686	0.01300
2652.54109	0.01310
2651.25532	0.01304
2649.96955	0.01292
2648.68378	0.01285
2647.39801	0.01286
2646.11225	0.01291
2644.82648	0.01296
2643.54071	0.01301
2642.25494	0.01306
2640.96917	0.01310
2639.68340	0.01304
2638.39763	0.01284
2637.11186	0.01257
2635.82609	0.01237
2634.54033	0.01230
2633.25456	0.01220
2631.96879	0.01192
2630.68302	0.01152
2629.39725	0.01120
2628.11148	0.01120
2626.82571	0.01159
2625.53994	0.01226
2624.25418	0.01289
2622.96841	0.01320
2621.68264	0.01310
2620.39687	0.01276
2619.11110	0.01239
2617.82533	0.01210
2616.53956	0.01185
2615.25379	0.01160
2613.96802	0.01138
2612.68226	0.01129
2611.39649	0.01143
2610.11072	0.01179
2608.82495	0.01221
2607.53918	0.01247
2606.25341	0.01245
2604.96764	0.01220
2603.68187	0.01183
2602.39611	0.01146
2601.11034	0.01122
2599.82457	0.01120
2598.53880	0.01137
2597.25303	0.01155
2595.96726	0.01165
2594.68149	0.01176
2593.39572	0.01195
2592.10995	0.01209
2590.82419	0.01196
2589.53842	0.01160
2588.25265	0.01130
2586.96688	0.01124
2585.68111	0.01139
2584.39534	0.01160
2583.10957	0.01176
2581.82380	0.01180
2580.53804	0.01173
2579.25227	0.01168
2577.96650	0.01182
2576.68073	0.01210
2575.39496	0.01232
2574.10919	0.01235
2572.82342	0.01214
2571.53765	0.01175
2570.25188	0.01126
2568.96612	0.01088
2567.68035	0.01075
2566.39458	0.01081
2565.10881	0.01091
2563.82304	0.01092
2562.53727	0.01088
2561.25150	0.01084
2559.96573	0.01082
2558.67997	0.01078
2557.39420	0.01071
2556.10843	0.01067
2554.82266	0.01068
2553.53689	0.01067
2552.25112	0.01060
2550.96535	0.01056
2549.67958	0.01066
2548.39381	0.01082
2547.10805	0.01096
2545.82228	0.01102
2544.53651	0.01106
2543.25074	0.01108
2541.96497	0.01104
2540.67920	0.01091
2539.39343	0.01068
2538.10766	0.01038
2536.82190	0.01012
2535.53613	0.01005
2534.25036	0.01017
2532.96459	0.01033
2531.67882	0.01042
2530.39305	0.01041
2529.10728	0.01032
2527.82151	0.01020
2526.53574	0.01011
2525.24998	0.01020
2523.96421	0.01058
2522.67844	0.01110
2521.39267	0.01132
2520.10690	0.01097
2518.82113	0.01027
2517.53536	0.00966
2516.24959	0.00935
2514.96383	0.00921
2513.67806	0.00912
2512.39229	0.00908
2511.10652	0.00914
2509.82075	0.00928
2508.53498	0.00948
2507.24921	0.00976
2505.96344	0.01013
2504.67767	0.01053
2503.39191	0.01088
2502.10614	0.01110
2500.82037	0.01116
2499.53460	0.01106
2498.24883	0.01087
2496.96306	0.01065
2495.67729	0.01041
2494.39152	0.01012
2493.10576	0.00980
2491.81999	0.00944
2490.53422	0.00904
2489.24845	0.00862
2487.96268	0.00837
2486.67691	0.00849
2485.39114	0.00899
2484.10537	0.00956
2482.81960	0.00992
2481.53384	0.01001
2480.24807	0.00995
2478.96230	0.00983
2477.67653	0.00973
2476.39076	0.00968
2475.10499	0.00966
2473.81922	0.00967
2472.53345	0.00965
2471.24769	0.00949
2469.96192	0.00915
2468.67615	0.00870
2467.39038	0.00838
2466.10461	0.00839
2464.81884	0.00873
2463.53307	0.00925
2462.24730	0.00974
2460.96153	0.01008
2459.67577	0.01025
2458.39000	0.01028
2457.10423	0.01024
2455.81846	0.01021
2454.53269	0.01024
2453.24692	0.01027
2451.96115	0.01014
2450.67538	0.00986
2449.38962	0.00959
2448.10385	0.00946
2446.81808	0.00947
2445.53231	0.00961
2444.24654	0.00983
2442.96077	0.00999
2441.67500	0.00999
2440.38923	0.00987
2439.10346	0.00976
2437.81770	0.00971
2436.53193	0.00972
2435.24616	0.00978
2433.96039	0.00989
2432.67462	0.00997
2431.38885	0.00991
2430.10308	0.00973
2428.81731	0.00958
2427.53155	0.00954
2426.24578	0.00952
2424.96001	0.00940
2423.67424	0.00910
2422.38847	0.00872
2421.10270	0.00836
2419.81693	0.00814
2418.53116	0.00816
2417.24539	0.00846
2415.95963	0.00890
2414.67386	0.00923
2413.38809	0.00930
2412.10232	0.00920
2410.81655	0.00906
2409.53078	0.00890
2408.24501	0.00866
2406.95924	0.00835
2405.67347	0.00811
2404.38771	0.00807
2403.10194	0.00819
2401.81617	0.00828
2400.53040	0.00824
2399.24463	0.00816
2397.95886	0.00810
2396.67309	0.00806
2395.38732	0.00808
2394.10156	0.00821
2392.81579	0.00847
2391.53002	0.00878
2390.24425	0.00900
2388.95848	0.00904
2387.67271	0.00892
2386.38694	0.00869
2385.10117	0.00850
2383.81540	0.00847
2382.52964	0.00862
2381.24387	0.00885
2379.95810	0.00904
2378.67233	0.00913
2377.38656	0.00917
2376.10079	0.00924
2374.81502	0.00930
2373.52925	0.00913
2372.24349	0.00872
2370.95772	0.00829
2369.67195	0.00805
2368.38618	0.00803
2367.10041	0.00812
2365.81464	0.00832
2364.52887	0.00851
2363.24310	0.00863
2361.95733	0.00863
2360.67157	0.00841
2359.38580	0.00823
2358.10003	0.00835
2356.81426	0.00870
2355.52849	0.00904
2354.24272	0.00925
2352.95695	0.00928
2351.67118	0.00909
2350.38542	0.00891
2349.09965	0.00894
2347.81388	0.00901
2346.52811	0.00882
2345.24234	0.00872
2343.95657	0.00923
2342.67080	0.01000
2341.38503	0.00987
2340.09926	0.00901
2338.81350	0.00896
2337.52773	0.00970
2336.24196	0.00957
2334.95619	0.00884
2333.67042	0.00902
2332.38465	0.00977
2331.09888	0.00948
2329.81311	0.00923
2328.52735	0.00978
2327.24158	0.00982
2325.95581	0.00966
2324.67004	0.01012
2323.38427	0.01045
2322.09850	0.01019
2320.81273	0.01019
2319.52696	0.01008
2318.24119	0.00981
2316.95543	0.00970
2315.66966	0.00948
2314.38389	0.00937
2313.09812	0.00954
2311.81235	0.00963
2310.52658	0.00973
2309.24081	0.00976
2307.95504	0.00958
2306.66928	0.00939
2305.38351	0.00918
2304.09774	0.00910
2302.81197	0.00914
2301.52620	0.00922
2300.24043	0.00929
2298.95466	0.00935
2297.66889	0.00938
2296.38312	0.00933
2295.09736	0.00911
2293.81159	0.00874
2292.52582	0.00832
2291.24005	0.00807
2289.95428	0.00821
2288.66851	0.00878
2287.38274	0.00960
2286.09697	0.01024
2284.81121	0.01033
2283.52544	0.00980
2282.23967	0.00899
2280.95390	0.00836
2279.66813	0.00815
2278.38236	0.00832
2277.09659	0.00866
2275.81082	0.00897
2274.52505	0.00911
2273.23929	0.00902
2271.95352	0.00875
2270.66775	0.00841
2269.38198	0.00818
2268.09621	0.00825
2266.81044	0.00874
2265.52467	0.00956
2264.23890	0.01029
2262.95314	0.01034
2261.66737	0.00945
2260.38160	0.00799
2259.09583	0.00676
2257.81006	0.00634
2256.52429	0.00668
2255.23852	0.00727
2253.95275	0.00765
2252.66698	0.00775
2251.38122	0.00776
2250.09545	0.00782
2248.80968	0.00790
2247.52391	0.00787
2246.23814	0.00771
2244.95237	0.00752
2243.66660	0.00741
2242.38083	0.00730
2241.09507	0.00706
2239.80930	0.00681
2238.52353	0.00684
2237.23776	0.00732
2235.95199	0.00815
2234.66622	0.00904
2233.38045	0.00964
2232.09468	0.00968
2230.80891	0.00914
2229.52315	0.00835
2228.23738	0.00770
2226.95161	0.00733
2225.66584	0.00716
2224.38007	0.00709
2223.09430	0.00710
2221.80853	0.00714
2220.52276	0.00706
2219.23700	0.00668
2217.95123	0.00595
2216.66546	0.00511
2215.37969	0.00464
2214.09392	0.00484
2212.80815	0.00546
2211.52238	0.00597
2210.23661	0.00609
2208.95084	0.00599
2207.66508	0.00599
2206.37931	0.00607
2205.09354	0.00595
2203.80777	0.00548
2202.52200	0.00484
2201.23623	0.00435
2199.95046	0.00418
2198.66469	0.00425
2197.37893	0.00447
2196.09316	0.00503
2194.80739	0.00607
2193.52162	0.00735
2192.23585	0.00819
2190.95008	0.00815
2189.66431	0.00743
2188.37854	0.00666
2187.09277	0.00628
2185.80701	0.00632
2184.52124	0.00652
2183.23547	0.00655
2181.94970	0.00619
2180.66393	0.00557
2179.37816	0.00504
2178.09239	0.00479
2176.80662	0.00465
2175.52085	0.00434
2174.23509	0.00389
2172.94932	0.00358
2171.66355	0.00362
2170.37778	0.00403
2169.09201	0.00477
2167.80624	0.00580
2166.52047	0.00687
2165.23470	0.00761
2163.94894	0.00769
2162.66317	0.00689
2161.37740	0.00519
2160.09163	0.00293
2158.80586	0.00097
2157.52009	0.00017
2156.23432	0.00064
2154.94855	0.00173
2153.66278	0.00263
2152.37702	0.00293
2151.09125	0.00269
2149.80548	0.00229
2148.51971	0.00205
2147.23394	0.00203
2145.94817	0.00201
2144.66240	0.00180
2143.37663	0.00147
2142.09087	0.00127
2140.80510	0.00144
2139.51933	0.00207
2138.23356	0.00310
2136.94779	0.00427
2135.66202	0.00524
2134.37625	0.00565
2133.09048	0.00531
2131.80471	0.00445
2130.51895	0.00361
2129.23318	0.00331
2127.94741	0.00365
2126.66164	0.00430
2125.37587	0.00491
2124.09010	0.00536
2122.80433	0.00577
2121.51856	0.00617
2120.23280	0.00643
2118.94703	0.00642
2117.66126	0.00615
2116.37549	0.00573
2115.08972	0.00528
2113.80395	0.00491
2112.51818	0.00471
2111.23241	0.00468
2109.94664	0.00465
2108.66088	0.00442
2107.37511	0.00406
2106.08934	0.00388
2104.80357	0.00408
2103.51780	0.00461
2102.23203	0.00526
2100.94626	0.00584
2099.66049	0.00663
2098.37473	0.00691
2097.08896	0.00673
2095.80319	0.00642
2094.51742	0.00619
2093.23165	0.00608
2091.94588	0.00600
2090.66011	0.00580
2089.37434	0.00556
2088.08857	0.00549
2086.80281	0.00563
2085.51704	0.00571
2084.23127	0.00545
2082.94550	0.00498
2081.65973	0.00468
2080.37396	0.00480
2079.08819	0.00520
2077.80242	0.00553
2076.51666	0.00555
2075.23089	0.00532
2073.94512	0.00513
2072.65935	0.00519
2071.37358	0.00534
2070.08781	0.00529
2068.80204	0.00498
2067.51627	0.00459
2066.23050	0.00428
2064.94474	0.00408
2063.65897	0.00399
2062.37320	0.00398
2061.08743	0.00405
2059.80166	0.00416
2058.51589	0.00429
2057.23012	0.00442
2055.94435	0.00454
2054.65859	0.00467
2053.37282	0.00483
2052.08705	0.00506
2050.80128	0.00528
2049.51551	0.00533
2048.22974	0.00498
2046.94397	0.00416
2045.65820	0.00298
2044.37243	0.00174
2043.08667	0.00085
2041.80090	0.00058
2040.51513	0.00089
2039.22936	0.00144
2037.94359	0.00183
2036.65782	0.00191
2035.37205	0.00177
2034.08628	0.00152
2032.80052	0.00114
2031.51475	0.00079
2030.22898	0.00084
2028.94321	0.00160
2027.65744	0.00275
2026.37167	0.00341
2025.08590	0.00305
2023.80013	0.00212
2022.51436	0.00160
2021.22860	0.00196
2019.94283	0.00271
2018.65706	0.00313
2017.37129	0.00304
2016.08552	0.00292
2014.79975	0.00316
2013.51398	0.00360
2012.22821	0.00368
2010.94245	0.00309
2009.65668	0.00206
2008.37091	0.00120
2007.08514	0.00097
2005.79937	0.00143
2004.51360	0.00223
2003.22783	0.00295
2001.94206	0.00345
2000.65629	0.00387
1999.37053	0.00441
1998.08476	0.00514
1996.79899	0.00582
1995.51322	0.00602
1994.22745	0.00556
1992.94168	0.00476
1991.65591	0.00422
1990.37014	0.00426
1989.08438	0.00460
1987.79861	0.00472
1986.51284	0.00445
1985.22707	0.00408
1983.94130	0.00394
1982.65553	0.00403
1981.36976	0.00407
1980.08399	0.00399
1978.79822	0.00405
1977.51246	0.00441
1976.22669	0.00480
1974.94092	0.00479
1973.65515	0.00444
1972.36938	0.00426
1971.08361	0.00465
1969.79784	0.00545
1968.51207	0.00609
1967.22631	0.00617
1965.94054	0.00566
1964.65477	0.00485
1963.36900	0.00409
1962.08323	0.00359
1960.79746	0.00343
1959.51169	0.00357
1958.22592	0.00383
1956.94015	0.00389
1955.65439	0.00356
1954.36862	0.00299
1953.08285	0.00257
1951.79708	0.00258
1950.51131	0.00294
1949.22554	0.00347
1947.93977	0.00415
1946.65400	0.00500
1945.36823	0.00580
1944.08247	0.00624
1942.79670	0.00625
1941.51093	0.00611
1940.22516	0.00603
1938.93939	0.00596
1937.65362	0.00573
1936.36785	0.00533
1935.08208	0.00491
1933.79632	0.00457
1932.51055	0.00438
1931.22478	0.00440
1929.93901	0.00465
1928.65324	0.00500
1927.36747	0.00525
1926.08170	0.00536
1924.79593	0.00541
1923.51016	0.00544
1922.22440	0.00544
1920.93863	0.00538
1919.65286	0.00537
1918.36709	0.00545
1917.08132	0.00559
1915.79555	0.00568
1914.50978	0.00563
1913.22401	0.00545
1911.93825	0.00523
1910.65248	0.00516
1909.36671	0.00535
1908.08094	0.00574
1906.79517	0.00609
1905.50940	0.00626
1904.22363	0.00630
1902.93786	0.00638
1901.65209	0.00649
1900.36633	0.00649
1899.08056	0.00627
1897.79479	0.00595
1896.50902	0.00575
1895.22325	0.00574
1893.93748	0.00583
1892.65171	0.00589
1891.36594	0.00589
1890.08018	0.00580
1888.79441	0.00563
1887.50864	0.00540
1886.22287	0.00521
1884.93710	0.00513
1883.65133	0.00511
1882.36556	0.00507
1881.07979	0.00508
1879.79402	0.00530
1878.50826	0.00574
1877.22249	0.00614
1875.93672	0.00626
1874.65095	0.00610
1873.36518	0.00589
1872.07941	0.00581
1870.79364	0.00584
1869.50787	0.00582
1868.22211	0.00573
1866.93634	0.00563
1865.65057	0.00562
1864.36480	0.00570
1863.07903	0.00580
1861.79326	0.00582
1860.50749	0.00573
1859.22172	0.00559
1857.93595	0.00551
1856.65019	0.00553
1855.36442	0.00556
1854.07865	0.00552
1852.79288	0.00540
1851.50711	0.00533
1850.22134	0.00538
1848.93557	0.00550
1847.64980	0.00557
1846.36404	0.00552
1845.07827	0.00538
1843.79250	0.00525
1842.50673	0.00520
1841.22096	0.00523
1839.93519	0.00527
1838.64942	0.00525
1837.36365	0.00519
1836.07788	0.00520
1834.79212	0.00538
1833.50635	0.00571
1832.22058	0.00602
1830.93481	0.00619
1829.64904	0.00618
1828.36327	0.00616
1827.07750	0.00627
1825.79173	0.00650
1824.50597	0.00671
1823.22020	0.00678
1821.93443	0.00668
1820.64866	0.00649
1819.36289	0.00626
1818.07712	0.00602
1816.79135	0.00584
1815.50558	0.00576
1814.21981	0.00578
1812.93405	0.00581
1811.64828	0.00580
1810.36251	0.00575
1809.07674	0.00569
1807.79097	0.00566
1806.50520	0.00566
1805.21943	0.00572
1803.93366	0.00581
1802.64790	0.00589
1801.36213	0.00595
1800.07636	0.00599
1798.79059	0.00605
1797.50482	0.00610
1796.21905	0.00615
1794.93328	0.00617
1793.64751	0.00615
1792.36174	0.00609
1791.07598	0.00603
1789.79021	0.00601
1788.50444	0.00603
1787.21867	0.00605
1785.93290	0.00606
1784.64713	0.00606
1783.36136	0.00609
1782.07559	0.00615
1780.78983	0.00619
1779.50406	0.00619
1778.21829	0.00615
1776.93252	0.00611
1775.64675	0.00609
1774.36098	0.00608
1773.07521	0.00606
1771.78944	0.00604
1770.50367	0.00600
1769.21791	0.00596
1767.93214	0.00591
1766.64637	0.00587
1765.36060	0.00588
1764.07483	0.00593
1762.78906	0.00601
1761.50329	0.00611
1760.21752	0.00618
1758.93176	0.00619
1757.64599	0.00615
1756.36022	0.00609
1755.07445	0.00605
1753.78868	0.00604
1752.50291	0.00606
1751.21714	0.00608
1749.93137	0.00609
1748.64560	0.00609
1747.35984	0.00611
1746.07407	0.00617
1744.78830	0.00623
1743.50253	0.00625
1742.21676	0.00620
1740.93099	0.00615
1739.64522	0.00616
1738.35945	0.00624
1737.07369	0.00634
1735.78792	0.00641
1734.50215	0.00645
1733.21638	0.00650
1731.93061	0.00656
1730.64484	0.00662
1729.35907	0.00670
1728.07330	0.00676
1726.78753	0.00677
1725.50177	0.00671
1724.21600	0.00661
1722.93023	0.00655
1721.64446	0.00659
1720.35869	0.00671
1719.07292	0.00682
1717.78715	0.00690
1716.50138	0.00694
1715.21561	0.00700
1713.92985	0.00708
1712.64408	0.00718
1711.35831	0.00727
1710.07254	0.00739
1708.78677	0.00751
1707.50100	0.00763
1706.21523	0.00773
1704.92946	0.00781
1703.64370	0.00790
1702.35793	0.00805
1701.07216	0.00824
1699.78639	0.00845
1698.50062	0.00865
1697.21485	0.00883
1695.92908	0.00896
1694.64331	0.00905
1693.35754	0.00909
1692.07178	0.00910
1690.78601	0.00910
1689.50024	0.00912
1688.21447	0.00918
1686.92870	0.00931
1685.64293	0.00950
1684.35716	0.00971
1683.07139	0.00987
1681.78563	0.00996
1680.49986	0.00999
1679.21409	0.01003
1677.92832	0.01013
1676.64255	0.01032
1675.35678	0.01054
1674.07101	0.01072
1672.78524	0.01087
1671.49947	0.01102
1670.21371	0.01119
1668.92794	0.01137
1667.64217	0.01156
1666.35640	0.01175
1665.07063	0.01196
1663.78486	0.01216
1662.49909	0.01230
1661.21332	0.01238
1659.92756	0.01243
1658.64179	0.01251
1657.35602	0.01261
1656.07025	0.01275
1654.78448	0.01288
1653.49871	0.01298
1652.21294	0.01301
1650.92717	0.01299
1649.64140	0.01300
1648.35564	0.01309
1647.06987	0.01325
1645.78410	0.01338
1644.49833	0.01340
1643.21256	0.01331
1641.92679	0.01318
1640.64102	0.01313
1639.35525	0.01321
1638.06949	0.01334
1636.78372	0.01342
1635.49795	0.01336
1634.21218	0.01318
1632.92641	0.01299
1631.64064	0.01288
1630.35487	0.01285
1629.06910	0.01284
1627.78333	0.01280
1626.49757	0.01272
1625.21180	0.01262
1623.92603	0.01252
1622.64026	0.01243
1621.35449	0.01233
1620.06872	0.01222
1618.78295	0.01213
1617.49718	0.01204
1616.21142	0.01193
1614.92565	0.01177
1613.63988	0.01162
1612.35411	0.01151
1611.06834	0.01143
1609.78257	0.01134
1608.49680	0.01124
1607.21103	0.01116
1605.92526	0.01110
1604.63950	0.01107
1603.35373	0.01103
1602.06796	0.01100
1600.78219	0.01098
1599.49642	0.01098
1598.21065	0.01097
1596.92488	0.01097
1595.63911	0.01099
1594.35335	0.01103
1593.06758	0.01108
1591.78181	0.01111
1590.49604	0.01111
1589.21027	0.01111
1587.92450	0.01111
1586.63873	0.01113
1585.35296	0.01113
1584.06719	0.01109
1582.78143	0.01104
1581.49566	0.01103
1580.20989	0.01108
1578.92412	0.01118
1577.63835	0.01127
1576.35258	0.01132
1575.06681	0.01135
1573.78104	0.01141
1572.49528	0.01152
1571.20951	0.01165
1569.92374	0.01176
1568.63797	0.01182
1567.35220	0.01188
1566.06643	0.01195
1564.78066	0.01204
1563.49489	0.01213
1562.20912	0.01223
1560.92336	0.01234
1559.63759	0.01244
1558.35182	0.01251
1557.06605	0.01251
1555.78028	0.01248
1554.49451	0.01249
1553.20874	0.01255
1551.92297	0.01264
1550.63721	0.01273
1549.35144	0.01279
1548.06567	0.01280
1546.77990	0.01278
1545.49413	0.01276
1544.20836	0.01275
1542.92259	0.01277
1541.63682	0.01280
1540.35105	0.01280
1539.06529	0.01275
1537.77952	0.01269
1536.49375	0.01267
1535.20798	0.01270
1533.92221	0.01276
1532.63644	0.01280
1531.35067	0.01281
1530.06490	0.01285
1528.77914	0.01294
1527.49337	0.01307
1526.20760	0.01320
1524.92183	0.01332
1523.63606	0.01341
1522.35029	0.01350
1521.06452	0.01358
1519.77875	0.01365
1518.49298	0.01372
1517.20722	0.01378
1515.92145	0.01384
1514.63568	0.01390
1513.34991	0.01397
1512.06414	0.01410
1510.77837	0.01430
1509.49260	0.01458
1508.20683	0.01488
1506.92107	0.01511
1505.63530	0.01524
1504.34953	0.01529
1503.06376	0.01534
1501.77799	0.01543
1500.49222	0.01553
1499.20645	0.01561
1497.92068	0.01565
1496.63491	0.01569
1495.34915	0.01577
1494.06338	0.01591
1492.77761	0.01610
1491.49184	0.01630
1490.20607	0.01645
1488.92030	0.01654
1487.63453	0.01659
1486.34876	0.01666
1485.06299	0.01676
1483.77723	0.01693
1482.49146	0.01717
1481.20569	0.01744
1479.91992	0.01772
1478.63415	0.01796
1477.34838	0.01817
1476.06261	0.01833
1474.77684	0.01846
1473.49108	0.01859
1472.20531	0.01872
1470.91954	0.01885
1469.63377	0.01897
1468.34800	0.01910
1467.06223	0.01926
1465.77646	0.01946
1464.49069	0.01965
1463.20492	0.01981
1461.91916	0.01993
1460.63339	0.02004
1459.34762	0.02020
1458.06185	0.02040
1456.77608	0.02063
1455.49031	0.02084
1454.20454	0.02105
1452.91877	0.02124
1451.63301	0.02139
1450.34724	0.02147
1449.06147	0.02147
1447.77570	0.02144
1446.48993	0.02141
1445.20416	0.02140
1443.91839	0.02137
1442.63262	0.02133
1441.34685	0.02129
1440.06109	0.02126
1438.77532	0.02125
1437.48955	0.02126
1436.20378	0.02128
1434.91801	0.02131
1433.63224	0.02137
1432.34647	0.02149
1431.06070	0.02164
1429.77494	0.02177
1428.48917	0.02187
1427.20340	0.02195
1425.91763	0.02204
1424.63186	0.02218
1423.34609	0.02239
1422.06032	0.02263
1420.77455	0.02285
1419.48878	0.02303
1418.20302	0.02317
1416.91725	0.02326
1415.63148	0.02327
1414.34571	0.02321
1413.05994	0.02314
1411.77417	0.02311
1410.48840	0.02311
1409.20263	0.02307
1407.91687	0.02296
1406.63110	0.02280
1405.34533	0.02264
1404.05956	0.02251
1402.77379	0.02237
1401.48802	0.02220
1400.20225	0.02198
1398.91648	0.02172
1397.63071	0.02145
1396.34495	0.02120
1395.05918	0.02099
1393.77341	0.02078
1392.48764	0.02054
1391.20187	0.02024
1389.91610	0.01991
1388.63033	0.01959
1387.34456	0.01930
1386.05880	0.01904
1384.77303	0.01881
1383.48726	0.01861
1382.20149	0.01842
1380.91572	0.01818
1379.62995	0.01787
1378.34418	0.01750
1377.05841	0.01716
1375.77264	0.01689
1374.48688	0.01669
1373.20111	0.01648
1371.91534	0.01616
1370.62957	0.01574
1369.34380	0.01528
1368.05803	0.01487
1366.77226	0.01456
1365.48649	0.01436
1364.20073	0.01422
1362.91496	0.01408
1361.62919	0.01391
1360.34342	0.01370
1359.05765	0.01347
1357.77188	0.01325
1356.48611	0.01304
1355.20034	0.01287
1353.91457	0.01273
1352.62881	0.01263
1351.34304	0.01251
1350.05727	0.01237
1348.77150	0.01223
1347.48573	0.01209
1346.19996	0.01194
1344.91419	0.01178
1343.62842	0.01161
1342.34266	0.01145
1341.05689	0.01134
1339.77112	0.01127
1338.48535	0.01125
1337.19958	0.01122
1335.91381	0.01116
1334.62804	0.01103
1333.34227	0.01088
1332.05650	0.01075
1330.77074	0.01065
1329.48497	0.01059
1328.19920	0.01056
1326.91343	0.01055
1325.62766	0.01056
1324.34189	0.01055
1323.05612	0.01052
1321.77035	0.01045
1320.48459	0.01035
1319.19882	0.01024
1317.91305	0.01012
1316.62728	0.01001
1315.34151	0.00991
1314.05574	0.00983
1312.76997	0.00977
1311.48420	0.00971
1310.19843	0.00965
1308.91267	0.00959
1307.62690	0.00953
1306.34113	0.00950
1305.05536	0.00947
1303.76959	0.00943
1302.48382	0.00940
1301.19805	0.00936
1299.91228	0.00931
1298.62652	0.00925
1297.34075	0.00917
1296.05498	0.00910
1294.76921	0.00906
1293.48344	0.00908
1292.19767	0.00913
1290.91190	0.00917
1289.62613	0.00918
1288.34036	0.00914
1287.05460	0.00906
1285.76883	0.00896
1284.48306	0.00887
1283.19729	0.00883
1281.91152	0.00886
1280.62575	0.00893
1279.33998	0.00899
1278.05421	0.00903
1276.76845	0.00905
1275.48268	0.00907
1274.19691	0.00908
1272.91114	0.00908
1271.62537	0.00907
1270.33960	0.00906
1269.05383	0.00906
1267.76806	0.00909
1266.48229	0.00913
1265.19653	0.00916
1263.91076	0.00918
1262.62499	0.00921
1261.33922	0.00925
1260.05345	0.00933
1258.76768	0.00945
1257.48191	0.00956
1256.19614	0.00965
1254.91037	0.00972
1253.62461	0.00980
1252.33884	0.00989
1251.05307	0.01000
1249.76730	0.01008
1248.48153	0.01015
1247.19576	0.01023
1245.90999	0.01032
1244.62422	0.01043
1243.33846	0.01052
1242.05269	0.01058
1240.76692	0.01064
1239.48115	0.01069
1238.19538	0.01073
1236.90961	0.01079
1235.62384	0.01088
1234.33807	0.01103
1233.05230	0.01121
1231.76654	0.01135
1230.48077	0.01143
1229.19500	0.01144
1227.90923	0.01144
1226.62346	0.01147
1225.33769	0.01155
1224.05192	0.01167
1222.76615	0.01181
1221.48039	0.01196
1220.19462	0.01209
1218.90885	0.01220
1217.62308	0.01229
1216.33731	0.01239
1215.05154	0.01254
1213.76577	0.01274
1212.48000	0.01297
1211.19423	0.01319
1209.90847	0.01341
1208.62270	0.01362
1207.33693	0.01384
1206.05116	0.01404
1204.76539	0.01422
1203.47962	0.01441
1202.19385	0.01465
1200.90808	0.01489
1199.62232	0.01508
1198.33655	0.01530
1197.05078	0.01549
1195.76501	0.01567
1194.47924	0.01588
1193.19347	0.01612
1191.90770	0.01638
1190.62193	0.01663
1189.33616	0.01685
1188.05040	0.01703
1186.76463	0.01720
1185.47886	0.01745
1184.19309	0.01780
1182.90732	0.01818
1181.62155	0.01851
1180.33578	0.01875
1179.05001	0.01896
1177.76425	0.01923
1176.47848	0.01960
1175.19271	0.02006
1173.90694	0.02054
1172.62117	0.02099
1171.33540	0.02138
1170.04963	0.02174
1168.76386	0.02212
1167.47809	0.02255
1166.19233	0.02298
1164.90656	0.02333
1163.62079	0.02356
1162.33502	0.02370
1161.04925	0.02383
1159.76348	0.02397
1158.47771	0.02412
1157.19194	0.02430
1155.90618	0.02454
1154.62041	0.02484
1153.33464	0.02516
1152.04887	0.02547
1150.76310	0.02577
1149.47733	0.02608
1148.19156	0.02641
1146.90579	0.02677
1145.62002	0.02717
1144.33426	0.02759
1143.04849	0.02800
1141.76272	0.02835
1140.47695	0.02865
1139.19118	0.02895
1137.90541	0.02930
1136.61964	0.02970
1135.33387	0.03016
1134.04811	0.03068
1132.76234	0.03125
1131.47657	0.03182
1130.19080	0.03240
1128.90503	0.03299
1127.61926	0.03360
1126.33349	0.03421
1125.04772	0.03481
1123.76195	0.03543
1122.47619	0.03612
1121.19042	0.03683
1119.90465	0.03752
1118.61888	0.03814
1117.33311	0.03868
1116.04734	0.03916
1114.76157	0.03967
1113.47580	0.04028
1112.19004	0.04097
1110.90427	0.04169
1109.61850	0.04240
1108.33273	0.04305
1107.04696	0.04364
1105.76119	0.04412
1104.47542	0.04452
1103.18965	0.04490
1101.90388	0.04536
1100.61812	0.04594
1099.33235	0.04657
1098.04658	0.04713
1096.76081	0.04751
1095.47504	0.04775
1094.18927	0.04794
1092.90350	0.04816
1091.61773	0.04846
1090.33197	0.04882
1089.04620	0.04920
1087.76043	0.04950
1086.47466	0.04970
1085.18889	0.04983
1083.90312	0.04997
1082.61735	0.05014
1081.33158	0.05030
1080.04581	0.05044
1078.76005	0.05059
1077.47428	0.05081
1076.18851	0.05110
1074.90274	0.05143
1073.61697	0.05178
1072.33120	0.05219
1071.04543	0.05268
1069.75966	0.05316
1068.47390	0.05359
1067.18813	0.05399
1065.90236	0.05444
1064.61659	0.05497
1063.33082	0.05555
1062.04505	0.05615
1060.75928	0.05677
1059.47351	0.05739
1058.18774	0.05800
1056.90198	0.05861
1055.61621	0.05923
1054.33044	0.05987
1053.04467	0.06049
1051.75890	0.06107
1050.47313	0.06165
1049.18736	0.06224
1047.90159	0.06285
1046.61583	0.06347
1045.33006	0.06407
1044.04429	0.06468
1042.75852	0.06531
1041.47275	0.06594
1040.18698	0.06652
1038.90121	0.06701
1037.61544	0.06750
1036.32967	0.06808
1035.04391	0.06873
1033.75814	0.06933
1032.47237	0.06973
1031.18660	0.06995
1029.90083	0.07008
1028.61506	0.07022
1027.32929	0.07037
1026.04352	0.07052
1024.75775	0.07066
1023.47199	0.07078
1022.18622	0.07084
1020.90045	0.07084
1019.61468	0.07076
1018.32891	0.07063
1017.04314	0.07044
1015.75737	0.07018
1014.47160	0.06985
1013.18584	0.06951
1011.90007	0.06919
1010.61430	0.06886
1009.32853	0.06848
1008.04276	0.06800
1006.75699	0.06743
1005.47122	0.06679
1004.18545	0.06612
1002.89968	0.06540
1001.61392	0.06464
1000.32815	0.06387
999.04238	0.06314
997.75661	0.06243
996.47084	0.06167
995.18507	0.06081
993.89930	0.05985
992.61353	0.05887
991.32777	0.05792
990.04200	0.05698
988.75623	0.05606
987.47046	0.05513
986.18469	0.05421
984.89892	0.05336
983.61315	0.05262
982.32738	0.05200
981.04161	0.05142
979.75585	0.05083
978.47008	0.05018
977.18431	0.04952
975.89854	0.04888
974.61277	0.04828
973.32700	0.04771
972.04123	0.04713
970.75546	0.04656
969.46970	0.04605
968.18393	0.04566
966.89816	0.04537
965.61239	0.04511
964.32662	0.04483
963.04085	0.04452
961.75508	0.04425
960.46931	0.04404
959.18354	0.04383
957.89778	0.04350
956.61201	0.04304
955.32624	0.04249
954.04047	0.04194
952.75470	0.04146
951.46893	0.04100
950.18316	0.04052
948.89739	0.03995
947.61163	0.03934
946.32586	0.03878
945.04009	0.03832
943.75432	0.03791
942.46855	0.03750
941.18278	0.03707
939.89701	0.03665
938.61124	0.03628
937.32547	0.03597
936.03971	0.03569
934.75394	0.03540
933.46817	0.03507
932.18240	0.03472
930.89663	0.03438
929.61086	0.03408
928.32509	0.03383
927.03932	0.03360
925.75356	0.03337
924.46779	0.03311
923.18202	0.03281
921.89625	0.03248
920.61048	0.03219
919.32471	0.03197
918.03894	0.03177
916.75317	0.03153
915.46740	0.03123
914.18164	0.03092
912.89587	0.03063
911.61010	0.03034
910.32433	0.03008
909.03856	0.02984
907.75279	0.02965
906.46702	0.02945
905.18125	0.02923
903.89549	0.02898
902.60972	0.02872
901.32395	0.02851
900.03818	0.02834
898.75241	0.02812
897.46664	0.02780
896.18087	0.02742
894.89510	0.02715
893.60933	0.02706
892.32357	0.02702
891.03780	0.02683
889.75203	0.02649
888.46626	0.02614
887.18049	0.02594
885.89472	0.02595
884.60895	0.02620
883.32318	0.02663
882.03742	0.02710
880.75165	0.02746
879.46588	0.02765
878.18011	0.02775
876.89434	0.02786
875.60857	0.02802
874.32280	0.02813
873.03703	0.02811
871.75126	0.02790
870.46550	0.02755
869.17973	0.02712
867.89396	0.02663
866.60819	0.02605
865.32242	0.02536
864.03665	0.02459
862.75088	0.02385
861.46511	0.02321
860.17935	0.02266
858.89358	0.02218
857.60781	0.02176
856.32204	0.02144
855.03627	0.02119
853.75050	0.02093
852.46473	0.02063
851.17896	0.02031
849.89319	0.02003
848.60743	0.01979
847.32166	0.01959
846.03589	0.01944
844.75012	0.01931
843.46435	0.01918
842.17858	0.01902
840.89281	0.01884
839.60704	0.01863
838.32128	0.01841
837.03551	0.01816
835.74974	0.01787
834.46397	0.01759
833.17820	0.01737
831.89243	0.01726
830.60666	0.01722
829.32089	0.01719
828.03512	0.01711
826.74936	0.01696
825.46359	0.01678
824.17782	0.01661
822.89205	0.01646
821.60628	0.01633
820.32051	0.01622
819.03474	0.01619
817.74897	0.01628
816.46321	0.01643
815.17744	0.01655
813.89167	0.01660
812.60590	0.01664
811.32013	0.01679
810.03436	0.01707
808.74859	0.01745
807.46282	0.01790
806.17705	0.01840
804.89129	0.01897
803.60552	0.01959
802.31975	0.02022
801.03398	0.02080
799.74821	0.02130
798.46244	0.02169
797.17667	0.02198
795.89090	0.02217
794.60513	0.02233
793.31937	0.02251
792.03360	0.02272
790.74783	0.02290
789.46206	0.02300
788.17629	0.02299
786.89052	0.02291
785.60475	0.02285
784.31898	0.02285
783.03322	0.02293
781.74745	0.02308
780.46168	0.02329
779.17591	0.02347
777.89014	0.02354
776.60437	0.02346
775.31860	0.02329
774.03283	0.02307
772.74706	0.02284
771.46130	0.02258
770.17553	0.02228
768.88976	0.02193
767.60399	0.02160
766.31822	0.02134
765.03245	0.02121
763.74668	0.02118
762.46091	0.02118
761.17515	0.02118
759.88938	0.02116
758.60361	0.02109
757.31784	0.02095
756.03207	0.02073
754.74630	0.02053
753.46053	0.02042
752.17476	0.02045
750.88899	0.02050
749.60323	0.02044
748.31746	0.02022
747.03169	0.01992
745.74592	0.01969
744.46015	0.01961
743.17438	0.01963
741.88861	0.01965
740.60284	0.01961
739.31708	0.01953
738.03131	0.01946
736.74554	0.01942
735.45977	0.01938
734.17400	0.01930
732.88823	0.01919
731.60246	0.01911
730.31669	0.01910
729.03092	0.01915
727.74516	0.01923
726.45939	0.01930
725.17362	0.01935
723.88785	0.01933
722.60208	0.01923
721.31631	0.01908
720.03054	0.01896
718.74477	0.01887
717.45901	0.01883
716.17324	0.01879
714.88747	0.01872
713.60170	0.01860
712.31593	0.01841
711.03016	0.01819
709.74439	0.01798
708.45862	0.01779
707.17285	0.01759
705.88709	0.01739
704.60132	0.01719
703.31555	0.01703
702.02978	0.01695
700.74401	0.01696
699.45824	0.01710
698.17247	0.01735
696.88670	0.01765
695.60094	0.01792
694.31517	0.01805
693.02940	0.01802
691.74363	0.01785
690.45786	0.01762
689.17209	0.01739
687.88632	0.01719
686.60055	0.01702
685.31478	0.01689
684.02902	0.01676
682.74325	0.01660
681.45748	0.01643
680.17171	0.01626
678.88594	0.01614
677.60017	0.01603
676.31440	0.01591
675.02863	0.01576
673.74287	0.01560
672.45710	0.01545
671.17133	0.01534
669.88556	0.01523
668.59979	0.01513
667.31402	0.01508
666.02825	0.01501
664.74248	0.01496
663.45671	0.01496
662.17095	0.01499
660.88518	0.01507
659.59941	0.01513
658.31364	0.01517
657.02787	0.01518
655.74210	0.01520
654.45633	0.01526
653.17056	0.01537
651.88480	0.01551
650.59903	0.01566
649.31326	0.01578
648.02749	0.01584
646.74172	0.01582
645.45595	0.01578
644.17018	0.01576
642.88441	0.01578
641.59864	0.01585
640.31288	0.01591
639.02711	0.01595
637.74134	0.01594
636.45557	0.01591
635.16980	0.01592
633.88403	0.01597
632.59826	0.01599
631.31249	0.01600
630.02673	0.01629
628.74096	0.01679
627.45519	0.01650
626.16942	0.01740
624.88365	0.01921
623.59788	0.02114
622.31211	0.02268
621.02634	0.02345
619.74057	0.02324
618.45481	0.02209
617.16904	0.02033
615.88327	0.01853
614.59750	0.01730
613.31173	0.01718
612.02596	0.01840
610.74019	0.02076
609.45442	0.02349
608.16866	0.02572
606.88289	0.02718
605.59712	0.02812
604.31135	0.02874
603.02558	0.02895
601.73981	0.02868
600.45404	0.02811
599.16827	0.02752
597.88250	0.02701
596.59674	0.02654
595.31097	0.02611
594.02520	0.02585
592.73943	0.02586
591.45366	0.02606
590.16789	0.02625
588.88212	0.02626
587.59635	0.02611
586.31059	0.02598
585.02482	0.02605
583.73905	0.02639
582.45328	0.02687
581.16751	0.02735
579.88174	0.02776
578.59597	0.02814
577.31020	0.02851
576.02443	0.02885
574.73867	0.02917
573.45290	0.02950
572.16713	0.02989
570.88136	0.03034
569.59559	0.03076
568.30982	0.03108
567.02405	0.03130
565.73828	0.03149
564.45251	0.03168
563.16675	0.03186
561.88098	0.03196
560.59521	0.03192
559.30944	0.03165
558.02367	0.03112
556.73790	0.03038
555.45213	0.02958
554.16636	0.02888
552.88060	0.02839
551.59483	0.02812
550.30906	0.02796
549.02329	0.02775
547.73752	0.02747
546.45175	0.02717
545.16598	0.02698
543.88021	0.02693
542.59444	0.02698
541.30868	0.02702
540.02291	0.02702
538.73714	0.02702
537.45137	0.02707
536.16560	0.02718
534.87983	0.02731
533.59406	0.02741
532.30829	0.02744
531.02253	0.02740
529.73676	0.02732
528.45099	0.02721
527.16522	0.02713
525.87945	0.02714
524.59368	0.02723
523.30791	0.02733
522.02214	0.02734
520.73637	0.02725
519.45061	0.02714
518.16484	0.02709
516.87907	0.02713
515.59330	0.02718
514.30753	0.02710
513.02176	0.02689
511.73599	0.02664
510.45022	0.02654
509.16446	0.02667
507.87869	0.02695
506.59292	0.02721
505.30715	0.02735
504.02138	0.02741
502.73561	0.02749
501.44984	0.02768
500.16407	0.02796
498.87830	0.02822
497.59254	0.02839
496.30677	0.02849
495.02100	0.02855
493.73523	0.02860
492.44946	0.02860
491.16369	0.02861
489.87792	0.02869
488.59215	0.02894
487.30639	0.02933
486.02062	0.02980
484.73485	0.03027
483.44908	0.03071
482.16331	0.03114
480.87754	0.03160
479.59177	0.03213
478.30600	0.03271
477.02023	0.03327
475.73447	0.03375
474.44870	0.03412
473.16293	0.03443
471.87716	0.03472
470.59139	0.03497
469.30562	0.03513
468.01985	0.03519
466.73408	0.03518
465.44832	0.03513
464.16255	0.03505
462.87678	0.03490
461.59101	0.03466
460.30524	0.03433
459.01947	0.03395
457.73370	0.03352
456.44793	0.03307
455.16216	0.03261
453.87640	0.03225
452.59063	0.03203
451.30486	0.03193
450.01909	0.03190
448.73332	0.03188
447.44755	0.03188
446.16178	0.03186
444.87601	0.03181
443.59025	0.03171
442.30448	0.03161
441.01871	0.03154
439.73294	0.03154
438.44717	0.03160
437.16140	0.03171
435.87563	0.03182
434.58986	0.03192
433.30409	0.03201
432.01833	0.03207
430.73256	0.03211
429.44679	0.03210
428.16102	0.03207
426.87525	0.03203
425.58948	0.03200
424.30371	0.03194
423.01794	0.03184
421.73218	0.03166
420.44641	0.03142
419.16064	0.03114
417.87487	0.03084
416.58910	0.03052
415.30333	0.03014
414.01756	0.02968
412.73179	0.02914
411.44602	0.02859
410.16026	0.02807
408.87449	0.02760
407.58872	0.02715
406.30295	0.02670
405.01718	0.02635
403.73141	0.02627
402.44564	0.02654
401.15987	0.02711
399.87411	0.02780
