3997.45528	0.05319
3996.16951	0.05290
3994.88374	0.05260
3993.59798	0.05246
3992.31221	0.05265
3991.02644	0.05315
3989.74067	0.05376
3988.45490	0.05432
3987.16913	0.05483
3985.88336	0.05532
3984.59759	0.05563
3983.31183	0.05553
3982.02606	0.05496
3980.74029	0.05407
3979.45452	0.05305
3978.16875	0.05212
3976.88298	0.05155
3975.59721	0.05161
3974.31144	0.05225
3973.02567	0.05301
3971.73991	0.05341
3970.45414	0.05323
3969.16837	0.05265
3967.88260	0.05212
3966.59683	0.05206
3965.31106	0.05260
3964.02529	0.05334
3962.73952	0.05361
3961.45376	0.05301
3960.16799	0.05180
3958.88222	0.05070
3957.59645	0.05023
3956.31068	0.05035
3955.02491	0.05067
3953.73914	0.05095
3952.45337	0.05118
3951.16760	0.05139
3949.88184	0.05160
3948.59607	0.05179
3947.31030	0.05199
3946.02453	0.05211
3944.73876	0.05208
3943.45299	0.05194
3942.16722	0.05186
3940.88145	0.05187
3939.59569	0.05178
3938.30992	0.05134
3937.02415	0.05054
3935.73838	0.04961
3934.45261	0.04890
3933.16684	0.04860
3931.88107	0.04866
3930.59530	0.04889
3929.30953	0.04913
3928.02377	0.04934
3926.73800	0.04950
3925.45223	0.04959
3924.16646	0.04965
3922.88069	0.04969
3921.59492	0.04972
3920.30915	0.04964
3919.02338	0.04930
3917.73762	0.04874
3916.45185	0.04832
3915.16608	0.04835
3913.88031	0.04885
3912.59454	0.04954
3911.30877	0.05010
3910.02300	0.05025
3908.73723	0.04991
3907.45146	0.04931
3906.16570	0.04877
3904.87993	0.04850
3903.59416	0.04853
3902.30839	0.04870
3901.02262	0.04885
3899.73685	0.04893
3898.45108	0.04894
3897.16531	0.04899
3895.87955	0.04916
3894.59378	0.04946
3893.30801	0.04976
3892.02224	0.04995
3890.73647	0.05009
3889.45070	0.05008
3888.16493	0.04962
3886.87916	0.04874
3885.59339	0.04789
3884.30763	0.04734
3883.02186	0.04694
3881.73609	0.04657
3880.45032	0.04642
3879.16455	0.04646
3877.87878	0.04639
3876.59301	0.04608
3875.30724	0.04595
3874.02148	0.04642
3872.73571	0.04728
3871.44994	0.04799
3870.16417	0.04836
3868.87840	0.04852
3867.59263	0.04840
3866.30686	0.04799
3865.02109	0.04764
3863.73532	0.04743
3862.44956	0.04702
3861.16379	0.04632
3859.87802	0.04589
3858.59225	0.04627
3857.30648	0.04717
3856.02071	0.04772
3854.73494	0.04762
3853.44917	0.04750
3852.16341	0.04790
3850.87764	0.04848
3849.59187	0.04867
3848.30610	0.04824
3847.02033	0.04736
3845.73456	0.04641
3844.44879	0.04579
3843.16302	0.04561
3841.87725	0.04552
3840.59149	0.04499
3839.30572	0.04399
3838.01995	0.04319
3836.73418	0.04326
3835.44841	0.04408
3834.16264	0.04509
3832.87687	0.04594
3831.59110	0.04659
3830.30534	0.04697
3829.01957	0.04688
3827.73380	0.04632
3826.44803	0.04564
3825.16226	0.04519
3823.87649	0.04498
3822.59072	0.04502
3821.30495	0.04552
3820.01918	0.04643
3818.73342	0.04706
3817.44765	0.04690
3816.16188	0.04634
3814.87611	0.04590
3813.59034	0.04550
3812.30457	0.04505
3811.01880	0.04491
3809.73303	0.04510
3808.44726	0.04523
3807.16150	0.04521
3805.87573	0.04538
3804.58996	0.04570
3803.30419	0.04579
3802.01842	0.04559
3800.73265	0.04536
3799.44688	0.04506
3798.16111	0.04454
3796.87535	0.04403
3795.58958	0.04386
3794.30381	0.04397
3793.01804	0.04412
3791.73227	0.04420
3790.44650	0.04417
3789.16073	0.04396
3787.87496	0.04360
3786.58919	0.04326
3785.30343	0.04305
3784.01766	0.04304
3782.73189	0.04321
3781.44612	0.04347
3780.16035	0.04367
3778.87458	0.04362
3777.58881	0.04317
3776.30304	0.04249
3775.01728	0.04204
3773.73151	0.04208
3772.44574	0.04241
3771.15997	0.04277
3769.87420	0.04314
3768.58843	0.04362
3767.30266	0.04428
3766.01689	0.04525
3764.73112	0.04661
3763.44536	0.04790
3762.15959	0.04840
3760.87382	0.04782
3759.58805	0.04652
3758.30228	0.04516
3757.01651	0.04432
3755.73074	0.04422
3754.44497	0.04457
3753.15921	0.04504
3751.87344	0.04547
3750.58767	0.04578
3749.30190	0.04599
3748.01613	0.04607
3746.73036	0.04568
3745.44459	0.04493
3744.15882	0.04451
3742.87305	0.04466
3741.58729	0.04481
3740.30152	0.04464
3739.01575	0.04421
3737.72998	0.04353
3736.44421	0.04276
3735.15844	0.04208
3733.87267	0.04138
3732.58690	0.04062
3731.30114	0.04030
3730.01537	0.04082
3728.72960	0.04187
3727.44383	0.04277
3726.15806	0.04304
3724.87229	0.04269
3723.58652	0.04217
3722.30075	0.04195
3721.01498	0.04210
3719.72922	0.04229
3718.44345	0.04226
3717.15768	0.04211
3715.87191	0.04214
3714.58614	0.04245
3713.30037	0.04298
3712.01460	0.04352
3710.72883	0.04372
3709.44307	0.04354
3708.15730	0.04342
3706.87153	0.04387
3705.58576	0.04485
3704.29999	0.04568
3703.01422	0.04578
3701.72845	0.04523
3700.44268	0.04455
3699.15691	0.04395
3697.87115	0.04339
3696.58538	0.04273
3695.29961	0.04202
3694.01384	0.04154
3692.72807	0.04157
3691.44230	0.04206
3690.15653	0.04253
3688.87076	0.04265
3687.58500	0.04251
3686.29923	0.04212
3685.01346	0.04145
3683.72769	0.04072
3682.44192	0.04029
3681.15615	0.04040
3679.87038	0.04112
3678.58461	0.04222
3677.29884	0.04325
3676.01308	0.04400
3674.72731	0.04442
3673.44154	0.04431
3672.15577	0.04351
3670.87000	0.04263
3669.58423	0.04237
3668.29846	0.04256
3667.01269	0.04254
3665.72693	0.04202
3664.44116	0.04119
3663.15539	0.04042
3661.86962	0.04003
3660.58385	0.04019
3659.29808	0.04073
3658.01231	0.04135
3656.72654	0.04189
3655.44077	0.04238
3654.15501	0.04278
3652.86924	0.04293
3651.58347	0.04288
3650.29770	0.04283
3649.01193	0.04283
3647.72616	0.04279
3646.44039	0.04265
3645.15462	0.04235
3643.86886	0.04191
3642.58309	0.04138
3641.29732	0.04082
3640.01155	0.04032
3638.72578	0.03999
3637.44001	0.03997
3636.15424	0.04020
3634.86847	0.04046
3633.58270	0.04053
3632.29694	0.04031
3631.01117	0.03989
3629.72540	0.03968
3628.43963	0.04007
3627.15386	0.04088
3625.86809	0.04154
3624.58232	0.04183
3623.29655	0.04192
3622.01079	0.04183
3620.72502	0.04151
3619.43925	0.04111
3618.15348	0.04097
3616.86771	0.04122
3615.58194	0.04161
3614.29617	0.04186
3613.01040	0.04191
3611.72463	0.04191
3610.43887	0.04202
3609.15310	0.04224
3607.86733	0.04233
3606.58156	0.04207
3605.29579	0.04167
3604.01002	0.04152
3602.72425	0.04174
3601.43848	0.04208
3600.15272	0.04233
3598.86695	0.04235
3597.58118	0.04216
3596.29541	0.04191
3595.00964	0.04186
3593.72387	0.04212
3592.43810	0.04271
3591.15233	0.04340
3589.86656	0.04382
3588.58080	0.04383
3587.29503	0.04364
3586.00926	0.04348
3584.72349	0.04332
3583.43772	0.04300
3582.15195	0.04256
3580.86618	0.04223
3579.58041	0.04214
3578.29464	0.04215
3577.00888	0.04216
3575.72311	0.04225
3574.43734	0.04255
3573.15157	0.04297
3571.86580	0.04322
3570.58003	0.04321
3569.29426	0.04313
3568.00849	0.04326
3566.72273	0.04357
3565.43696	0.04380
3564.15119	0.04383
3562.86542	0.04383
3561.57965	0.04389
3560.29388	0.04385
3559.00811	0.04352
3557.72234	0.04307
3556.43657	0.04285
3555.15081	0.04306
3553.86504	0.04355
3552.57927	0.04413
3551.29350	0.04471
3550.00773	0.04526
3548.72196	0.04570
3547.43619	0.04597
3546.15042	0.04603
3544.86466	0.04587
3543.57889	0.04556
3542.29312	0.04532
3541.00735	0.04532
3539.72158	0.04541
3538.43581	0.04522
3537.15004	0.04453
3535.86427	0.04357
3534.57850	0.04278
3533.29274	0.04246
3532.00697	0.04264
3530.72120	0.04313
3529.43543	0.04373
3528.14966	0.04433
3526.86389	0.04490
3525.57812	0.04535
3524.29235	0.04566
3523.00659	0.04590
3521.72082	0.04611
3520.43505	0.04620
3519.14928	0.04605
3517.86351	0.04577
3516.57774	0.04565
3515.29197	0.04579
3514.00620	0.04598
3512.72043	0.04598
3511.43467	0.04576
3510.14890	0.04555
3508.86313	0.04552
3507.57736	0.04563
3506.29159	0.04569
3505.00582	0.04556
3503.72005	0.04526
3502.43428	0.04490
3501.14852	0.04458
3499.86275	0.04445
3498.57698	0.04454
3497.29121	0.04473
3496.00544	0.04481
3494.71967	0.04465
3493.43390	0.04441
3492.14813	0.04441
3490.86236	0.04482
3489.57660	0.04550
3488.29083	0.04608
3487.00506	0.04635
3485.71929	0.04635
3484.43352	0.04623
3483.14775	0.04606
3481.86198	0.04595
3480.57621	0.04601
3479.29045	0.04629
3478.00468	0.04667
3476.71891	0.04702
3475.43314	0.04723
3474.14737	0.04724
3472.86160	0.04707
3471.57583	0.04682
3470.29006	0.04657
3469.00429	0.04640
3467.71853	0.04640
3466.43276	0.04665
3465.14699	0.04708
3463.86122	0.04745
3462.57545	0.04750
3461.28968	0.04724
3460.00391	0.04689
3458.71814	0.04674
3457.43238	0.04692
3456.14661	0.04741
3454.86084	0.04801
3453.57507	0.04846
3452.28930	0.04857
3451.00353	0.04834
3449.71776	0.04791
3448.43199	0.04753
3447.14622	0.04737
3445.86046	0.04745
3444.57469	0.04756
3443.28892	0.04749
3442.00315	0.04729
3440.71738	0.04718
3439.43161	0.04725
3438.14584	0.04731
3436.86007	0.04710
3435.57431	0.04673
3434.28854	0.04657
3433.00277	0.04686
3431.71700	0.04737
3430.43123	0.04770
3429.14546	0.04774
3427.85969	0.04771
3426.57392	0.04781
3425.28815	0.04796
3424.00239	0.04791
3422.71662	0.04755
3421.43085	0.04706
3420.14508	0.04674
3418.85931	0.04679
3417.57354	0.04716
3416.28777	0.04760
3415.00200	0.04786
3413.71624	0.04769
3412.43047	0.04708
3411.14470	0.04628
3409.85893	0.04571
3408.57316	0.04565
3407.28739	0.04613
3406.00162	0.04693
3404.71585	0.04773
3403.43008	0.04827
3402.14432	0.04847
3400.85855	0.04845
3399.57278	0.04840
3398.28701	0.04842
3397.00124	0.04864
3395.71547	0.04904
3394.42970	0.04935
3393.14393	0.04928
3391.85817	0.04879
3390.57240	0.04819
3389.28663	0.04783
3388.00086	0.04782
3386.71509	0.04792
3385.42932	0.04790
3384.14355	0.04782
3382.85778	0.04786
3381.57201	0.04808
3380.28625	0.04830
3379.00048	0.04841
3377.71471	0.04850
3376.42894	0.04868
3375.14317	0.04886
3373.85740	0.04891
3372.57163	0.04885
3371.28586	0.04885
3370.00010	0.04896
3368.71433	0.04911
3367.42856	0.04922
3366.14279	0.04924
3364.85702	0.04919
3363.57125	0.04905
3362.28548	0.04891
3360.99971	0.04890
3359.71394	0.04906
3358.42818	0.04924
3357.14241	0.04923
3355.85664	0.04898
3354.57087	0.04866
3353.28510	0.04849
3351.99933	0.04855
3350.71356	0.04874
3349.42779	0.04883
3348.14202	0.04869
3346.85626	0.04840
3345.57049	0.04820
3344.28472	0.04830
3342.99895	0.04861
3341.71318	0.04879
3340.42741	0.04855
3339.14164	0.04798
3337.85587	0.04746
3336.57011	0.04734
3335.28434	0.04767
3333.99857	0.04823
3332.71280	0.04872
3331.42703	0.04896
3330.14126	0.04895
3328.85549	0.04884
3327.56972	0.04883
3326.28395	0.04900
3324.99819	0.04924
3323.71242	0.04937
3322.42665	0.04935
3321.14088	0.04928
3319.85511	0.04937
3318.56934	0.04970
3317.28357	0.05014
3315.99780	0.05041
3314.71204	0.05035
3313.42627	0.05004
3312.14050	0.04975
3310.85473	0.04960
3309.56896	0.04946
3308.28319	0.04917
3306.99742	0.04886
3305.71165	0.04879
3304.42588	0.04903
3303.14012	0.04936
3301.85435	0.04952
3300.56858	0.04945
3299.28281	0.04933
3297.99704	0.04937
3296.71127	0.04956
3295.42550	0.04974
3294.13973	0.04972
3292.85397	0.04946
3291.56820	0.04906
3290.28243	0.04864
3288.99666	0.04832
3287.71089	0.04819
3286.42512	0.04829
3285.13935	0.04849
3283.85358	0.04861
3282.56781	0.04851
3281.28205	0.04820
3279.99628	0.04782
3278.71051	0.04750
3277.42474	0.04734
3276.13897	0.04740
3274.85320	0.04771
3273.56743	0.04823
3272.28166	0.04880
3270.99590	0.04917
3269.71013	0.04915
3268.42436	0.04877
3267.13859	0.04830
3265.85282	0.04802
3264.56705	0.04803
3263.28128	0.04827
3261.99551	0.04856
3260.70974	0.04871
3259.42398	0.04853
3258.13821	0.04802
3256.85244	0.04746
3255.56667	0.04717
3254.28090	0.04720
3252.99513	0.04735
3251.70936	0.04740
3250.42359	0.04737
3249.13783	0.04740
3247.85206	0.04757
3246.56629	0.04779
3245.28052	0.04791
3243.99475	0.04785
3242.70898	0.04768
3241.42321	0.04744
3240.13744	0.04710
3238.85167	0.04664
3237.56591	0.04620
3236.28014	0.04596
3234.99437	0.04593
3233.70860	0.04588
3232.42283	0.04566
3231.13706	0.04543
3229.85129	0.04551
3228.56552	0.04599
3227.27976	0.04658
3225.99399	0.04687
3224.70822	0.04672
3223.42245	0.04628
3222.13668	0.04580
3220.85091	0.04542
3219.56514	0.04523
3218.27937	0.04526
3216.99360	0.04548
3215.70784	0.04581
3214.42207	0.04608
3213.13630	0.04612
3211.85053	0.04587
3210.56476	0.04548
3209.27899	0.04522
3207.99322	0.04516
3206.70745	0.04513
3205.42169	0.04498
3204.13592	0.04479
3202.85015	0.04473
3201.56438	0.04483
3200.27861	0.04506
3198.99284	0.04533
3197.70707	0.04557
3196.42130	0.04565
3195.13553	0.04548
3193.84977	0.04515
3192.56400	0.04488
3191.27823	0.04477
3189.99246	0.04477
3188.70669	0.04478
3187.42092	0.04475
3186.13515	0.04472
3184.84938	0.04467
3183.56362	0.04457
3182.27785	0.04444
3180.99208	0.04433
3179.70631	0.04428
3178.42054	0.04428
3177.13477	0.04423
3175.84900	0.04408
3174.56323	0.04393
3173.27746	0.04389
3171.99170	0.04401
3170.70593	0.04412
3169.42016	0.04405
3168.13439	0.04379
3166.84862	0.04355
3165.56285	0.04360
3164.27708	0.04388
3162.99131	0.04408
3161.70555	0.04388
3160.41978	0.04335
3159.13401	0.04282
3157.84824	0.04253
3156.56247	0.04249
3155.27670	0.04256
3153.99093	0.04264
3152.70516	0.04271
3151.41939	0.04283
3150.13363	0.04298
3148.84786	0.04308
3147.56209	0.04300
3146.27632	0.04277
3144.99055	0.04251
3143.70478	0.04236
3142.41901	0.04234
3141.13324	0.04233
3139.84748	0.04220
3138.56171	0.04193
3137.27594	0.04161
3135.99017	0.04139
3134.70440	0.04131
3133.41863	0.04134
3132.13286	0.04138
3130.84709	0.04138
3129.56132	0.04135
3128.27556	0.04135
3126.98979	0.04147
3125.70402	0.04170
3124.41825	0.04190
3123.13248	0.04188
3121.84671	0.04154
3120.56094	0.04104
3119.27517	0.04069
3117.98940	0.04065
3116.70364	0.04083
3115.41787	0.04105
3114.13210	0.04113
3112.84633	0.04104
3111.56056	0.04087
3110.27479	0.04078
3108.98902	0.04081
3107.70325	0.04090
3106.41749	0.04091
3105.13172	0.04081
3103.84595	0.04072
3102.56018	0.04074
3101.27441	0.04089
3099.98864	0.04114
3098.70287	0.04147
3097.41710	0.04180
3096.13133	0.04199
3094.84557	0.04190
3093.55980	0.04157
3092.27403	0.04118
3090.98826	0.04090
3089.70249	0.04070
3088.41672	0.04045
3087.13095	0.04007
3085.84518	0.03965
3084.55942	0.03938
3083.27365	0.03938
3081.98788	0.03962
3080.70211	0.04002
3079.41634	0.04043
3078.13057	0.04066
3076.84480	0.04062
3075.55903	0.04037
3074.27326	0.04009
3072.98750	0.03988
3071.70173	0.03977
3070.41596	0.03973
3069.13019	0.03975
3067.84442	0.03986
3066.55865	0.04000
3065.27288	0.04005
3063.98711	0.03983
3062.70135	0.03930
3061.41558	0.03861
3060.12981	0.03804
3058.84404	0.03779
3057.55827	0.03791
3056.27250	0.03833
3054.98673	0.03886
3053.70096	0.03926
3052.41519	0.03934
3051.12943	0.03913
3049.84366	0.03880
3048.55789	0.03855
3047.27212	0.03847
3045.98635	0.03848
3044.70058	0.03842
3043.41481	0.03822
3042.12904	0.03796
3040.84328	0.03777
3039.55751	0.03771
3038.27174	0.03776
3036.98597	0.03785
3035.70020	0.03799
3034.41443	0.03820
3033.12866	0.03844
3031.84289	0.03863
3030.55712	0.03866
3029.27136	0.03857
3027.98559	0.03845
3026.69982	0.03837
3025.41405	0.03828
3024.12828	0.03812
3022.84251	0.03794
3021.55674	0.03782
3020.27097	0.03780
3018.98521	0.03780
3017.69944	0.03771
3016.41367	0.03742
3015.12790	0.03700
3013.84213	0.03657
3012.55636	0.03631
3011.27059	0.03628
3009.98482	0.03640
3008.69905	0.03649
3007.41329	0.03650
3006.12752	0.03654
3004.84175	0.03672
3003.55598	0.03701
3002.27021	0.03721
3000.98444	0.03719
2999.69867	0.03701
2998.41290	0.03682
2997.12714	0.03675
2995.84137	0.03670
2994.55560	0.03657
2993.26983	0.03641
2991.98406	0.03635
2990.69829	0.03645
2989.41252	0.03664
2988.12675	0.03679
2986.84098	0.03684
2985.55522	0.03680
2984.26945	0.03676
2982.98368	0.03683
2981.69791	0.03706
2980.41214	0.03742
2979.12637	0.03775
2977.84060	0.03790
2976.55483	0.03783
2975.26907	0.03769
2973.98330	0.03763
2972.69753	0.03766
2971.41176	0.03777
2970.12599	0.03799
2968.84022	0.03843
2967.55445	0.03911
2966.26868	0.03985
2964.98291	0.04041
2963.69715	0.04068
2962.41138	0.04073
2961.12561	0.04069
2959.83984	0.04069
2958.55407	0.04076
2957.26830	0.04086
2955.98253	0.04097
2954.69676	0.04113
2953.41100	0.04139
2952.12523	0.04175
2950.83946	0.04200
2949.55369	0.04192
2948.26792	0.04148
2946.98215	0.04087
2945.69638	0.04036
2944.41061	0.04007
2943.12484	0.03999
2941.83908	0.04005
2940.55331	0.04019
2939.26754	0.04037
2937.98177	0.04054
2936.69600	0.04075
2935.41023	0.04105
2934.12446	0.04138
2932.83869	0.04156
2931.55293	0.04148
2930.26716	0.04126
2928.98139	0.04117
2927.69562	0.04137
2926.40985	0.04175
2925.12408	0.04205
2923.83831	0.04209
2922.55254	0.04195
2921.26677	0.04176
2919.98101	0.04156
2918.69524	0.04131
2917.40947	0.04104
2916.12370	0.04086
2914.83793	0.04076
2913.55216	0.04063
2912.26639	0.04040
2910.98062	0.04009
2909.69486	0.03978
2908.40909	0.03948
2907.12332	0.03921
2905.83755	0.03896
2904.55178	0.03872
2903.26601	0.03851
2901.98024	0.03836
2900.69447	0.03825
2899.40870	0.03814
2898.12294	0.03805
2896.83717	0.03806
2895.55140	0.03817
2894.26563	0.03825
2892.97986	0.03813
2891.69409	0.03778
2890.40832	0.03735
2889.12255	0.03699
2887.83678	0.03673
2886.55102	0.03648
2885.26525	0.03618
2883.97948	0.03592
2882.69371	0.03586
2881.40794	0.03604
2880.12217	0.03637
2878.83640	0.03668
2877.55063	0.03692
2876.26487	0.03710
2874.97910	0.03730
2873.69333	0.03751
2872.40756	0.03771
2871.12179	0.03781
2869.83602	0.03773
2868.55025	0.03744
2867.26448	0.03705
2865.97871	0.03676
2864.69295	0.03666
2863.40718	0.03672
2862.12141	0.03688
2860.83564	0.03705
2859.54987	0.03711
2858.26410	0.03694
2856.97833	0.03656
2855.69256	0.03614
2854.40680	0.03588
2853.12103	0.03578
2851.83526	0.03565
2850.54949	0.03536
2849.26372	0.03496
2847.97795	0.03463
2846.69218	0.03442
2845.40641	0.03423
2844.12064	0.03397
2842.83488	0.03368
2841.54911	0.03346
2840.26334	0.03338
2838.97757	0.03339
2837.69180	0.03342
2836.40603	0.03343
2835.12026	0.03347
2833.83449	0.03352
2832.54873	0.03345
2831.26296	0.03316
2829.97719	0.03275
2828.69142	0.03242
2827.40565	0.03226
2826.11988	0.03222
2824.83411	0.03223
2823.54834	0.03223
2822.26257	0.03217
2820.97681	0.03202
2819.69104	0.03181
2818.40527	0.03159
2817.11950	0.03146
2815.83373	0.03141
2814.54796	0.03138
2813.26219	0.03131
2811.97642	0.03119
2810.69066	0.03106
2809.40489	0.03096
2808.11912	0.03091
2806.83335	0.03091
2805.54758	0.03089
2804.26181	0.03081
2802.97604	0.03066
2801.69027	0.03051
2800.40450	0.03038
2799.11874	0.03023
2797.83297	0.03005
2796.54720	0.02990
2795.26143	0.02987
2793.97566	0.02996
2792.68989	0.03009
2791.40412	0.03012
2790.11835	0.03002
2788.83259	0.02988
2787.54682	0.02980
2786.26105	0.02982
2784.97528	0.02987
2783.68951	0.02986
2782.40374	0.02973
2781.11797	0.02958
2779.83220	0.02955
2778.54643	0.02967
2777.26067	0.02977
2775.97490	0.02968
2774.68913	0.02943
2773.40336	0.02918
2772.11759	0.02904
2770.83182	0.02904
2769.54605	0.02914
2768.26028	0.02928
2766.97452	0.02935
2765.68875	0.02926
2764.40298	0.02902
2763.11721	0.02877
2761.83144	0.02862
2760.54567	0.02859
2759.25990	0.02866
2757.97413	0.02880
2756.68836	0.02900
2755.40260	0.02916
2754.11683	0.02921
2752.83106	0.02914
2751.54529	0.02903
2750.25952	0.02896
2748.97375	0.02888
2747.68798	0.02873
2746.40221	0.02849
2745.11645	0.02825
2743.83068	0.02812
2742.54491	0.02814
2741.25914	0.02828
2739.97337	0.02844
2738.68760	0.02848
2737.40183	0.02835
2736.11606	0.02814
2734.83029	0.02798
2733.54453	0.02791
2732.25876	0.02786
2730.97299	0.02780
2729.68722	0.02773
2728.40145	0.02773
2727.11568	0.02781
2725.82991	0.02790
2724.54414	0.02790
2723.25838	0.02782
2721.97261	0.02772
2720.68684	0.02767
2719.40107	0.02769
2718.11530	0.02773
2716.82953	0.02775
2715.54376	0.02774
2714.25799	0.02774
2712.97222	0.02776
2711.68646	0.02778
2710.40069	0.02774
2709.11492	0.02767
2707.82915	0.02769
2706.54338	0.02779
2705.25761	0.02781
2703.97184	0.02760
2702.68607	0.02724
2701.40031	0.02692
2700.11454	0.02678
2698.82877	0.02679
2697.54300	0.02686
2696.25723	0.02689
2694.97146	0.02686
2693.68569	0.02683
2692.39992	0.02680
2691.11415	0.02681
2689.82839	0.02684
2688.54262	0.02691
2687.25685	0.02700
2685.97108	0.02710
2684.68531	0.02714
2683.39954	0.02710
2682.11377	0.02697
2680.82800	0.02681
2679.54224	0.02664
2678.25647	0.02643
2676.97070	0.02620
2675.68493	0.02599
2674.39916	0.02589
2673.11339	0.02588
2671.82762	0.02592
2670.54185	0.02596
2669.25608	0.02599
2667.97032	0.02604
2666.68455	0.02610
2665.39878	0.02614
2664.11301	0.02616
2662.82724	0.02624
2661.54147	0.02642
2660.25570	0.02663
2658.96993	0.02672
2657.68417	0.02663
2656.39840	0.02640
2655.11263	0.02616
2653.82686	0.02602
2652.54109	0.02602
2651.25532	0.02607
2649.96955	0.02607
2648.68378	0.02595
2647.39801	0.02574
2646.11225	0.02554
2644.82648	0.02539
2643.54071	0.02533
2642.25494	0.02542
2640.96917	0.02561
2639.68340	0.02572
2638.39763	0.02559
2637.11186	0.02525
2635.82609	0.02490
2634.54033	0.02471
2633.25456	0.02465
2631.96879	0.02457
2630.68302	0.02443
2629.39725	0.02432
2628.11148	0.02430
2626.82571	0.02430
2625.53994	0.02423
2624.25418	0.02407
2622.96841	0.02392
2621.68264	0.02395
2620.39687	0.02420
2619.11110	0.02453
2617.82533	0.02469
2616.53956	0.02448
2615.25379	0.02394
2613.96802	0.02331
2612.68226	0.02285
2611.39649	0.02271
2610.11072	0.02286
2608.82495	0.02318
2607.53918	0.02349
2606.25341	0.02366
2604.96764	0.02359
2603.68187	0.02332
2602.39611	0.02294
2601.11034	0.02259
2599.82457	0.02232
2598.53880	0.02213
2597.25303	0.02195
2595.96726	0.02175
2594.68149	0.02160
2593.39572	0.02152
2592.10995	0.02148
2590.82419	0.02151
2589.53842	0.02169
2588.25265	0.02199
2586.96688	0.02224
2585.68111	0.02225
2584.39534	0.02201
2583.10957	0.02176
2581.82380	0.02171
2580.53804	0.02182
2579.25227	0.02185
2577.96650	0.02164
2576.68073	0.02139
2575.39496	0.02135
2574.10919	0.02152
2572.82342	0.02167
2571.53765	0.02162
2570.25188	0.02141
2568.96612	0.02119
2567.68035	0.02107
2566.39458	0.02107
2565.10881	0.02119
2563.82304	0.02139
2562.53727	0.02163
2561.25150	0.02183
2559.96573	0.02188
2558.67997	0.02174
2557.39420	0.02141
2556.10843	0.02099
2554.82266	0.02071
2553.53689	0.02073
2552.25112	0.02101
2550.96535	0.02128
2549.67958	0.02138
2548.39381	0.02139
2547.10805	0.02136
2545.82228	0.02123
2544.53651	0.02097
2543.25074	0.02075
2541.96497	0.02080
2540.67920	0.02117
2539.39343	0.02168
2538.10766	0.02208
2536.82190	0.02227
2535.53613	0.02229
2534.25036	0.02213
2532.96459	0.02177
2531.67882	0.02134
2530.39305	0.02111
2529.10728	0.02118
2527.82151	0.02135
2526.53574	0.02142
2525.24998	0.02134
2523.96421	0.02121
2522.67844	0.02107
2521.39267	0.02095
2520.10690	0.02092
2518.82113	0.02102
2517.53536	0.02111
2516.24959	0.02097
2514.96383	0.02060
2513.67806	0.02021
2512.39229	0.01997
2511.10652	0.01993
2509.82075	0.02004
2508.53498	0.02026
2507.24921	0.02049
2505.96344	0.02058
2504.67767	0.02052
2503.39191	0.02045
2502.10614	0.02040
2500.82037	0.02030
2499.53460	0.02010
2498.24883	0.01995
2496.96306	0.01998
2495.67729	0.02015
2494.39152	0.02032
2493.10576	0.02040
2491.81999	0.02033
2490.53422	0.02011
2489.24845	0.01985
2487.96268	0.01973
2486.67691	0.01986
2485.39114	0.02020
2484.10537	0.02057
2482.81960	0.02085
2481.53384	0.02096
2480.24807	0.02090
2478.96230	0.02064
2477.67653	0.02025
2476.39076	0.01989
2475.10499	0.01974
2473.81922	0.01981
2472.53345	0.01993
2471.24769	0.01985
2469.96192	0.01959
2468.67615	0.01943
2467.39038	0.01959
2466.10461	0.01998
2464.81884	0.02033
2463.53307	0.02046
2462.24730	0.02041
2460.96153	0.02025
2459.67577	0.02003
2458.39000	0.01981
2457.10423	0.01971
2455.81846	0.01976
2454.53269	0.01985
2453.24692	0.01988
2451.96115	0.01983
2450.67538	0.01975
2449.38962	0.01965
2448.10385	0.01955
2446.81808	0.01953
2445.53231	0.01962
2444.24654	0.01967
2442.96077	0.01952
2441.67500	0.01922
2440.38923	0.01899
2439.10346	0.01895
2437.81770	0.01899
2436.53193	0.01894
2435.24616	0.01886
2433.96039	0.01892
2432.67462	0.01914
2431.38885	0.01927
2430.10308	0.01910
2428.81731	0.01875
2427.53155	0.01855
2426.24578	0.01859
2424.96001	0.01866
2423.67424	0.01853
2422.38847	0.01830
2421.10270	0.01822
2419.81693	0.01838
2418.53116	0.01860
2417.24539	0.01871
2415.95963	0.01871
2414.67386	0.01870
2413.38809	0.01870
2412.10232	0.01863
2410.81655	0.01844
2409.53078	0.01819
2408.24501	0.01805
2406.95924	0.01813
2405.67347	0.01841
2404.38771	0.01874
2403.10194	0.01896
2401.81617	0.01893
2400.53040	0.01864
2399.24463	0.01817
2397.95886	0.01780
2396.67309	0.01770
2395.38732	0.01783
2394.10156	0.01794
2392.81579	0.01787
2391.53002	0.01773
2390.24425	0.01773
2388.95848	0.01794
2387.67271	0.01826
2386.38694	0.01854
2385.10117	0.01871
2383.81540	0.01877
2382.52964	0.01872
2381.24387	0.01878
2379.95810	0.01886
2378.67233	0.01936
2377.38656	0.01977
2376.10079	0.01930
2374.81502	0.01817
2373.52925	0.01911
2372.24349	0.01997
2370.95772	0.02012
2369.67195	0.02020
2368.38618	0.02046
2367.10041	0.02085
2365.81464	0.02121
2364.52887	0.02158
2363.24310	0.02194
2361.95733	0.02217
2360.67157	0.02232
2359.38580	0.02254
2358.10003	0.02266
2356.81426	0.02254
2355.52849	0.02199
2354.24272	0.02055
2352.95695	0.01851
2351.67118	0.01832
2350.38542	0.01889
2349.09965	0.01900
2347.81388	0.01936
2346.52811	0.02017
2345.24234	0.02067
2343.95657	0.01993
2342.67080	0.01830
2341.38503	0.01970
2340.09926	0.02140
2338.81350	0.02143
2337.52773	0.02067
2336.24196	0.02102
2334.95619	0.02121
2333.67042	0.01990
2332.38465	0.01787
2331.09888	0.01975
2329.81311	0.02059
2328.52735	0.02012
2327.24158	0.02032
2325.95581	0.02044
2324.67004	0.02060
2323.38427	0.02032
2322.09850	0.02033
2320.81273	0.02024
2319.52696	0.01997
2318.24119	0.01970
2316.95543	0.01967
2315.66966	0.01954
2314.38389	0.01915
2313.09812	0.01894
2311.81235	0.01869
2310.52658	0.01833
2309.24081	0.01814
2307.95504	0.01818
2306.66928	0.01842
2305.38351	0.01881
2304.09774	0.01898
2302.81197	0.01879
2301.52620	0.01840
2300.24043	0.01805
2298.95466	0.01788
2297.66889	0.01791
2296.38312	0.01804
2295.09736	0.01808
2293.81159	0.01800
2292.52582	0.01797
2291.24005	0.01794
2289.95428	0.01785
2288.66851	0.01773
2287.38274	0.01770
2286.09697	0.01784
2284.81121	0.01793
2283.52544	0.01772
2282.23967	0.01719
2280.95390	0.01664
2279.66813	0.01632
2278.38236	0.01623
2277.09659	0.01626
2275.81082	0.01641
2274.52505	0.01665
2273.23929	0.01698
2271.95352	0.01729
2270.66775	0.01739
2269.38198	0.01712
2268.09621	0.01656
2266.81044	0.01600
2265.52467	0.01571
2264.23890	0.01557
2262.95314	0.01542
2261.66737	0.01519
2260.38160	0.01495
2259.09583	0.01478
2257.81006	0.01465
2256.52429	0.01449
2255.23852	0.01430
2253.95275	0.01419
2252.66698	0.01437
2251.38122	0.01495
2250.09545	0.01580
2248.80968	0.01641
2247.52391	0.01622
2246.23814	0.01537
2244.95237	0.01454
2243.66660	0.01434
2242.38083	0.01483
2241.09507	0.01549
2239.80930	0.01569
2238.52353	0.01527
2237.23776	0.01454
2235.95199	0.01385
2234.66622	0.01335
2233.38045	0.01308
2232.09468	0.01311
2230.80891	0.01335
2229.52315	0.01335
2228.23738	0.01276
2226.95161	0.01181
2225.66584	0.01123
2224.38007	0.01156
2223.09430	0.01264
2221.80853	0.01371
2220.52276	0.01410
2219.23700	0.01392
2217.95123	0.01387
2216.66546	0.01438
2215.37969	0.01511
2214.09392	0.01544
2212.80815	0.01518
2211.52238	0.01466
2210.23661	0.01420
2208.95084	0.01382
2207.66508	0.01345
2206.37931	0.01312
2205.09354	0.01280
2203.80777	0.01239
2202.52200	0.01188
2201.23623	0.01151
2199.95046	0.01148
2198.66469	0.01168
2197.37893	0.01187
2196.09316	0.01197
2194.80739	0.01198
2193.52162	0.01182
2192.23585	0.01130
2190.95008	0.01027
2189.66431	0.00884
2188.37854	0.00745
2187.09277	0.00675
2185.80701	0.00703
2184.52124	0.00797
2183.23547	0.00891
2181.94970	0.00950
2180.66393	0.00976
2179.37816	0.00977
2178.09239	0.00959
2176.80662	0.00938
2175.52085	0.00932
2174.23509	0.00925
2172.94932	0.00876
2171.66355	0.00778
2170.37778	0.00671
2169.09201	0.00608
2167.80624	0.00597
2166.52047	0.00608
2165.23470	0.00615
2163.94894	0.00614
2162.66317	0.00603
2161.37740	0.00572
2160.09163	0.00533
2158.80586	0.00520
2157.52009	0.00553
2156.23432	0.00604
2154.94855	0.00637
2153.66278	0.00650
2152.37702	0.00656
2151.09125	0.00661
2149.80548	0.00666
2148.51971	0.00678
2147.23394	0.00712
2145.94817	0.00761
2144.66240	0.00800
2143.37663	0.00812
2142.09087	0.00803
2140.80510	0.00784
2139.51933	0.00759
2138.23356	0.00725
2136.94779	0.00686
2135.66202	0.00653
2134.37625	0.00654
2133.09048	0.00714
2131.80471	0.00828
2130.51895	0.00943
2129.23318	0.00996
2127.94741	0.00975
2126.66164	0.00927
2125.37587	0.00906
2124.09010	0.00924
2122.80433	0.00962
2121.51856	0.01002
2120.23280	0.01035
2118.94703	0.01047
2117.66126	0.01021
2116.37549	0.00963
2115.08972	0.00909
2113.80395	0.00890
2112.51818	0.00912
2111.23241	0.00952
2109.94664	0.00977
2108.66088	0.00965
2107.37511	0.00911
2106.08934	0.00834
2104.80357	0.00767
2103.51780	0.00744
2102.23203	0.00772
2100.94626	0.00838
2099.66049	0.01019
2098.37473	0.01103
2097.08896	0.01077
2095.80319	0.01009
2094.51742	0.00955
2093.23165	0.00959
2091.94588	0.01018
2090.66011	0.01088
2089.37434	0.01119
2088.08857	0.01101
2086.80281	0.01063
2085.51704	0.01039
2084.23127	0.01039
2082.94550	0.01043
2081.65973	0.01036
2080.37396	0.01012
2079.08819	0.00976
2077.80242	0.00926
2076.51666	0.00867
2075.23089	0.00816
2073.94512	0.00790
2072.65935	0.00794
2071.37358	0.00821
2070.08781	0.00869
2068.80204	0.00936
2067.51627	0.01003
2066.23050	0.01042
2064.94474	0.01042
2063.65897	0.01011
2062.37320	0.00965
2061.08743	0.00913
2059.80166	0.00864
2058.51589	0.00825
2057.23012	0.00794
2055.94435	0.00761
2054.65859	0.00727
2053.37282	0.00712
2052.08705	0.00721
2050.80128	0.00728
2049.51551	0.00702
2048.22974	0.00652
2046.94397	0.00623
2045.65820	0.00639
2044.37243	0.00679
2043.08667	0.00705
2041.80090	0.00709
2040.51513	0.00705
2039.22936	0.00708
2037.94359	0.00713
2036.65782	0.00694
2035.37205	0.00623
2034.08628	0.00512
2032.80052	0.00417
2031.51475	0.00401
2030.22898	0.00468
2028.94321	0.00561
2027.65744	0.00622
2026.37167	0.00632
2025.08590	0.00612
2023.80013	0.00576
2022.51436	0.00521
2021.22860	0.00449
2019.94283	0.00382
2018.65706	0.00346
2017.37129	0.00349
2016.08552	0.00377
2014.79975	0.00415
2013.51398	0.00457
2012.22821	0.00508
2010.94245	0.00573
2009.65668	0.00656
2008.37091	0.00757
2007.08514	0.00860
2005.79937	0.00934
2004.51360	0.00959
2003.22783	0.00933
2001.94206	0.00870
2000.65629	0.00790
1999.37053	0.00729
1998.08476	0.00728
1996.79899	0.00793
1995.51322	0.00879
1994.22745	0.00931
1992.94168	0.00930
1991.65591	0.00899
1990.37014	0.00866
1989.08438	0.00845
1987.79861	0.00844
1986.51284	0.00859
1985.22707	0.00873
1983.94130	0.00871
1982.65553	0.00873
1981.36976	0.00913
1980.08399	0.01000
1978.79822	0.01094
1977.51246	0.01147
1976.22669	0.01140
1974.94092	0.01094
1973.65515	0.01041
1972.36938	0.01000
1971.08361	0.00979
1969.79784	0.00982
1968.51207	0.01002
1967.22631	0.01017
1965.94054	0.00999
1964.65477	0.00937
1963.36900	0.00848
1962.08323	0.00762
1960.79746	0.00705
1959.51169	0.00698
1958.22592	0.00741
1956.94015	0.00808
1955.65439	0.00866
1954.36862	0.00906
1953.08285	0.00940
1951.79708	0.00981
1950.51131	0.01027
1949.22554	0.01065
1947.93977	0.01083
1946.65400	0.01077
1945.36823	0.01059
1944.08247	0.01048
1942.79670	0.01059
1941.51093	0.01083
1940.22516	0.01104
1938.93939	0.01115
1937.65362	0.01120
1936.36785	0.01121
1935.08208	0.01114
1933.79632	0.01107
1932.51055	0.01117
1931.22478	0.01157
1929.93901	0.01207
1928.65324	0.01224
1927.36747	0.01177
1926.08170	0.01074
1924.79593	0.00963
1923.51016	0.00894
1922.22440	0.00886
1920.93863	0.00928
1919.65286	0.00993
1918.36709	0.01059
1917.08132	0.01115
1915.79555	0.01153
1914.50978	0.01172
1913.22401	0.01171
1911.93825	0.01157
1910.65248	0.01144
1909.36671	0.01149
1908.08094	0.01175
1906.79517	0.01201
1905.50940	0.01206
1904.22363	0.01189
1902.93786	0.01169
1901.65209	0.01155
1900.36633	0.01143
1899.08056	0.01126
1897.79479	0.01109
1896.50902	0.01102
1895.22325	0.01109
1893.93748	0.01127
1892.65171	0.01150
1891.36594	0.01166
1890.08018	0.01166
1888.79441	0.01152
1887.50864	0.01133
1886.22287	0.01121
1884.93710	0.01118
1883.65133	0.01115
1882.36556	0.01103
1881.07979	0.01087
1879.79402	0.01081
1878.50826	0.01090
1877.22249	0.01106
1875.93672	0.01118
1874.65095	0.01129
1873.36518	0.01144
1872.07941	0.01160
1870.79364	0.01169
1869.50787	0.01169
1868.22211	0.01166
1866.93634	0.01165
1865.65057	0.01165
1864.36480	0.01164
1863.07903	0.01159
1861.79326	0.01148
1860.50749	0.01129
1859.22172	0.01107
1857.93595	0.01090
1856.65019	0.01085
1855.36442	0.01089
1854.07865	0.01094
1852.79288	0.01089
1851.50711	0.01078
1850.22134	0.01071
1848.93557	0.01080
1847.64980	0.01103
1846.36404	0.01124
1845.07827	0.01135
1843.79250	0.01143
1842.50673	0.01151
1841.22096	0.01155
1839.93519	0.01150
1838.64942	0.01139
1837.36365	0.01126
1836.07788	0.01112
1834.79212	0.01107
1833.50635	0.01121
1832.22058	0.01154
1830.93481	0.01189
1829.64904	0.01211
1828.36327	0.01215
1827.07750	0.01209
1825.79173	0.01204
1824.50597	0.01209
1823.22020	0.01219
1821.93443	0.01228
1820.64866	0.01236
1819.36289	0.01236
1818.07712	0.01220
1816.79135	0.01187
1815.50558	0.01147
1814.21981	0.01115
1812.93405	0.01096
1811.64828	0.01089
1810.36251	0.01088
1809.07674	0.01088
1807.79097	0.01092
1806.50520	0.01103
1805.21943	0.01120
1803.93366	0.01137
1802.64790	0.01147
1801.36213	0.01148
1800.07636	0.01143
1798.79059	0.01136
1797.50482	0.01133
1796.21905	0.01139
1794.93328	0.01150
1793.64751	0.01162
1792.36174	0.01174
1791.07598	0.01187
1789.79021	0.01195
1788.50444	0.01197
1787.21867	0.01196
1785.93290	0.01201
1784.64713	0.01211
1783.36136	0.01218
1782.07559	0.01215
1780.78983	0.01202
1779.50406	0.01188
1778.21829	0.01181
1776.93252	0.01184
1775.64675	0.01194
1774.36098	0.01204
1773.07521	0.01213
1771.78944	0.01224
1770.50367	0.01229
1769.21791	0.01217
1767.93214	0.01198
1766.64637	0.01188
1765.36060	0.01187
1764.07483	0.01187
1762.78906	0.01182
1761.50329	0.01180
1760.21752	0.01179
1758.93176	0.01174
1757.64599	0.01163
1756.36022	0.01158
1755.07445	0.01165
1753.78868	0.01174
1752.50291	0.01180
1751.21714	0.01184
1749.93137	0.01187
1748.64560	0.01183
1747.35984	0.01170
1746.07407	0.01159
1744.78830	0.01158
1743.50253	0.01168
1742.21676	0.01181
1740.93099	0.01189
1739.64522	0.01194
1738.35945	0.01205
1737.07369	0.01218
1735.78792	0.01221
1734.50215	0.01224
1733.21638	0.01234
1731.93061	0.01240
1730.64484	0.01228
1729.35907	0.01208
1728.07330	0.01207
1726.78753	0.01225
1725.50177	0.01250
1724.21600	0.01271
1722.93023	0.01293
1721.64446	0.01320
1720.35869	0.01346
1719.07292	0.01365
1717.78715	0.01380
1716.50138	0.01396
1715.21561	0.01405
1713.92985	0.01404
1712.64408	0.01401
1711.35831	0.01407
1710.07254	0.01424
1708.78677	0.01448
1707.50100	0.01475
1706.21523	0.01510
1704.92946	0.01564
1703.64370	0.01631
1702.35793	0.01686
1701.07216	0.01732
1699.78639	0.01794
1698.50062	0.01863
1697.21485	0.01905
1695.92908	0.01925
1694.64331	0.01953
1693.35754	0.01990
1692.07178	0.02018
1690.78601	0.02050
1689.50024	0.02109
1688.21447	0.02191
1686.92870	0.02270
1685.64293	0.02331
1684.35716	0.02388
1683.07139	0.02448
1681.78563	0.02494
1680.49986	0.02524
1679.21409	0.02561
1677.92832	0.02612
1676.64255	0.02667
1675.35678	0.02720
1674.07101	0.02777
1672.78524	0.02831
1671.49947	0.02871
1670.21371	0.02905
1668.92794	0.02944
1667.64217	0.02994
1666.35640	0.03047
1665.07063	0.03095
1663.78486	0.03139
1662.49909	0.03180
1661.21332	0.03218
1659.92756	0.03250
1658.64179	0.03291
1657.35602	0.03357
1656.07025	0.03433
1654.78448	0.03487
1653.49871	0.03517
1652.21294	0.03547
1650.92717	0.03577
1649.64140	0.03584
1648.35564	0.03569
1647.06987	0.03558
1645.78410	0.03565
1644.49833	0.03576
1643.21256	0.03573
1641.92679	0.03558
1640.64102	0.03546
1639.35525	0.03543
1638.06949	0.03539
1636.78372	0.03524
1635.49795	0.03504
1634.21218	0.03485
1632.92641	0.03459
1631.64064	0.03418
1630.35487	0.03376
1629.06910	0.03346
1627.78333	0.03331
1626.49757	0.03320
1625.21180	0.03299
1623.92603	0.03270
1622.64026	0.03247
1621.35449	0.03238
1620.06872	0.03234
1618.78295	0.03221
1617.49718	0.03201
1616.21142	0.03188
1614.92565	0.03183
1613.63988	0.03174
1612.35411	0.03158
1611.06834	0.03146
1609.78257	0.03144
1608.49680	0.03147
1607.21103	0.03152
1605.92526	0.03159
1604.63950	0.03169
1603.35373	0.03181
1602.06796	0.03192
1600.78219	0.03201
1599.49642	0.03207
1598.21065	0.03212
1596.92488	0.03219
1595.63911	0.03228
1594.35335	0.03238
1593.06758	0.03250
1591.78181	0.03262
1590.49604	0.03273
1589.21027	0.03282
1587.92450	0.03289
1586.63873	0.03297
1585.35296	0.03306
1584.06719	0.03318
1582.78143	0.03333
1581.49566	0.03358
1580.20989	0.03398
1578.92412	0.03442
1577.63835	0.03473
1576.35258	0.03495
1575.06681	0.03523
1573.78104	0.03552
1572.49528	0.03572
1571.20951	0.03584
1569.92374	0.03599
1568.63797	0.03622
1567.35220	0.03645
1566.06643	0.03667
1564.78066	0.03701
1563.49489	0.03753
1562.20912	0.03805
1560.92336	0.03837
1559.63759	0.03858
1558.35182	0.03883
1557.06605	0.03904
1555.78028	0.03898
1554.49451	0.03874
1553.20874	0.03856
1551.92297	0.03849
1550.63721	0.03843
1549.35144	0.03838
1548.06567	0.03835
1546.77990	0.03832
1545.49413	0.03829
1544.20836	0.03832
1542.92259	0.03836
1541.63682	0.03823
1540.35105	0.03788
1539.06529	0.03748
1537.77952	0.03715
1536.49375	0.03681
1535.20798	0.03639
1533.92221	0.03599
1532.63644	0.03574
1531.35067	0.03556
1530.06490	0.03536
1528.77914	0.03515
1527.49337	0.03504
1526.20760	0.03510
1524.92183	0.03528
1523.63606	0.03543
1522.35029	0.03546
1521.06452	0.03549
1519.77875	0.03560
1518.49298	0.03566
1517.20722	0.03565
1515.92145	0.03570
1514.63568	0.03587
1513.34991	0.03613
1512.06414	0.03653
1510.77837	0.03710
1509.49260	0.03773
1508.20683	0.03824
1506.92107	0.03862
1505.63530	0.03898
1504.34953	0.03931
1503.06376	0.03950
1501.77799	0.03961
1500.49222	0.03982
1499.20645	0.04015
1497.92068	0.04046
1496.63491	0.04066
1495.34915	0.04080
1494.06338	0.04090
1492.77761	0.04095
1491.49184	0.04100
1490.20607	0.04112
1488.92030	0.04133
1487.63453	0.04158
1486.34876	0.04189
1485.06299	0.04230
1483.77723	0.04277
1482.49146	0.04327
1481.20569	0.04381
1479.91992	0.04443
1478.63415	0.04517
1477.34838	0.04606
1476.06261	0.04706
1474.77684	0.04804
1473.49108	0.04888
1472.20531	0.04960
1470.91954	0.05023
1469.63377	0.05079
1468.34800	0.05128
1467.06223	0.05175
1465.77646	0.05224
1464.49069	0.05280
1463.20492	0.05345
1461.91916	0.05422
1460.63339	0.05509
1459.34762	0.05597
1458.06185	0.05678
1456.77608	0.05758
1455.49031	0.05837
1454.20454	0.05898
1452.91877	0.05931
1451.63301	0.05945
1450.34724	0.05953
1449.06147	0.05956
1447.77570	0.05951
1446.48993	0.05935
1445.20416	0.05907
1443.91839	0.05868
1442.63262	0.05823
1441.34685	0.05778
1440.06109	0.05731
1438.77532	0.05678
1437.48955	0.05628
1436.20378	0.05595
1434.91801	0.05584
1433.63224	0.05580
1432.34647	0.05581
1431.06070	0.05598
1429.77494	0.05637
1428.48917	0.05694
1427.20340	0.05760
1425.91763	0.05829
1424.63186	0.05906
1423.34609	0.05991
1422.06032	0.06076
1420.77455	0.06149
1419.48878	0.06211
1418.20302	0.06267
1416.91725	0.06310
1415.63148	0.06333
1414.34571	0.06339
1413.05994	0.06336
1411.77417	0.06324
1410.48840	0.06302
1409.20263	0.06267
1407.91687	0.06219
1406.63110	0.06155
1405.34533	0.06075
1404.05956	0.05981
1402.77379	0.05875
1401.48802	0.05757
1400.20225	0.05631
1398.91648	0.05503
1397.63071	0.05377
1396.34495	0.05249
1395.05918	0.05119
1393.77341	0.04994
1392.48764	0.04875
1391.20187	0.04758
1389.91610	0.04643
1388.63033	0.04531
1387.34456	0.04424
1386.05880	0.04320
1384.77303	0.04216
1383.48726	0.04111
1382.20149	0.04011
1380.91572	0.03918
1379.62995	0.03830
1378.34418	0.03744
1377.05841	0.03656
1375.77264	0.03562
1374.48688	0.03464
1373.20111	0.03368
1371.91534	0.03277
1370.62957	0.03189
1369.34380	0.03105
1368.05803	0.03029
1366.77226	0.02963
1365.48649	0.02905
1364.20073	0.02850
1362.91496	0.02796
1361.62919	0.02740
1360.34342	0.02683
1359.05765	0.02628
1357.77188	0.02581
1356.48611	0.02542
1355.20034	0.02510
1353.91457	0.02480
1352.62881	0.02448
1351.34304	0.02417
1350.05727	0.02390
1348.77150	0.02371
1347.48573	0.02357
1346.19996	0.02343
1344.91419	0.02326
1343.62842	0.02308
1342.34266	0.02290
1341.05689	0.02272
1339.77112	0.02251
1338.48535	0.02226
1337.19958	0.02202
1335.91381	0.02181
1334.62804	0.02161
1333.34227	0.02137
1332.05650	0.02107
1330.77074	0.02075
1329.48497	0.02048
1328.19920	0.02028
1326.91343	0.02012
1325.62766	0.02000
1324.34189	0.01990
1323.05612	0.01981
1321.77035	0.01971
1320.48459	0.01961
1319.19882	0.01950
1317.91305	0.01936
1316.62728	0.01919
1315.34151	0.01898
1314.05574	0.01875
1312.76997	0.01854
1311.48420	0.01835
1310.19843	0.01815
1308.91267	0.01795
1307.62690	0.01775
1306.34113	0.01756
1305.05536	0.01739
1303.76959	0.01726
1302.48382	0.01721
1301.19805	0.01723
1299.91228	0.01726
1298.62652	0.01723
1297.34075	0.01711
1296.05498	0.01693
1294.76921	0.01676
1293.48344	0.01664
1292.19767	0.01657
1290.91190	0.01652
1289.62613	0.01649
1288.34036	0.01649
1287.05460	0.01652
1285.76883	0.01657
1284.48306	0.01662
1283.19729	0.01664
1281.91152	0.01660
1280.62575	0.01651
1279.33998	0.01639
1278.05421	0.01626
1276.76845	0.01615
1275.48268	0.01607
1274.19691	0.01601
1272.91114	0.01593
1271.62537	0.01583
1270.33960	0.01572
1269.05383	0.01565
1267.76806	0.01559
1266.48229	0.01555
1265.19653	0.01549
1263.91076	0.01541
1262.62499	0.01534
1261.33922	0.01528
1260.05345	0.01522
1258.76768	0.01517
1257.48191	0.01512
1256.19614	0.01510
1254.91037	0.01514
1253.62461	0.01522
1252.33884	0.01530
1251.05307	0.01532
1249.76730	0.01531
1248.48153	0.01528
1247.19576	0.01528
1245.90999	0.01531
1244.62422	0.01537
1243.33846	0.01540
1242.05269	0.01539
1240.76692	0.01531
1239.48115	0.01518
1238.19538	0.01506
1236.90961	0.01499
1235.62384	0.01494
1234.33807	0.01488
1233.05230	0.01475
1231.76654	0.01458
1230.48077	0.01443
1229.19500	0.01433
1227.90923	0.01429
1226.62346	0.01428
1225.33769	0.01426
1224.05192	0.01417
1222.76615	0.01402
1221.48039	0.01381
1220.19462	0.01360
1218.90885	0.01342
1217.62308	0.01328
1216.33731	0.01316
1215.05154	0.01308
1213.76577	0.01303
1212.48000	0.01302
1211.19423	0.01303
1209.90847	0.01304
1208.62270	0.01307
1207.33693	0.01315
1206.05116	0.01324
1204.76539	0.01332
1203.47962	0.01335
1202.19385	0.01332
1200.90808	0.01318
1199.62232	0.01295
1198.33655	0.01290
1197.05078	0.01287
1195.76501	0.01285
1194.47924	0.01284
1193.19347	0.01282
1191.90770	0.01279
1190.62193	0.01273
1189.33616	0.01266
1188.05040	0.01254
1186.76463	0.01241
1185.47886	0.01231
1184.19309	0.01227
1182.90732	0.01229
1181.62155	0.01230
1180.33578	0.01227
1179.05001	0.01226
1177.76425	0.01229
1176.47848	0.01235
1175.19271	0.01243
1173.90694	0.01252
1172.62117	0.01259
1171.33540	0.01265
1170.04963	0.01269
1168.76386	0.01275
1167.47809	0.01285
1166.19233	0.01295
1164.90656	0.01304
1163.62079	0.01315
1162.33502	0.01332
1161.04925	0.01354
1159.76348	0.01376
1158.47771	0.01395
1157.19194	0.01411
1155.90618	0.01429
1154.62041	0.01447
1153.33464	0.01465
1152.04887	0.01485
1150.76310	0.01509
1149.47733	0.01540
1148.19156	0.01578
1146.90579	0.01620
1145.62002	0.01666
1144.33426	0.01717
1143.04849	0.01775
1141.76272	0.01840
1140.47695	0.01913
1139.19118	0.01993
1137.90541	0.02078
1136.61964	0.02169
1135.33387	0.02269
1134.04811	0.02383
1132.76234	0.02513
1131.47657	0.02656
1130.19080	0.02810
1128.90503	0.02980
1127.61926	0.03170
1126.33349	0.03382
1125.04772	0.03609
1123.76195	0.03847
1122.47619	0.04090
1121.19042	0.04340
1119.90465	0.04602
1118.61888	0.04880
1117.33311	0.05170
1116.04734	0.05461
1114.76157	0.05745
1113.47580	0.06022
1112.19004	0.06294
1110.90427	0.06560
1109.61850	0.06822
1108.33273	0.07081
1107.04696	0.07332
1105.76119	0.07566
1104.47542	0.07781
1103.18965	0.07983
1101.90388	0.08187
1100.61812	0.08401
1099.33235	0.08617
1098.04658	0.08821
1096.76081	0.09005
1095.47504	0.09175
1094.18927	0.09340
1092.90350	0.09504
1091.61773	0.09660
1090.33197	0.09801
1089.04620	0.09924
1087.76043	0.10039
1086.47466	0.10158
1085.18889	0.10287
1083.90312	0.10421
1082.61735	0.10560
1081.33158	0.10709
1080.04581	0.10876
1078.76005	0.11062
1077.47428	0.11267
1076.18851	0.11489
1074.90274	0.11725
1073.61697	0.11972
1072.33120	0.12226
1071.04543	0.12486
1069.75966	0.12753
1068.47390	0.13028
1067.18813	0.13310
1065.90236	0.13601
1064.61659	0.13896
1063.33082	0.14195
1062.04505	0.14498
1060.75928	0.14808
1059.47351	0.15120
1058.18774	0.15430
1056.90198	0.15729
1055.61621	0.16016
1054.33044	0.16293
1053.04467	0.16564
1051.75890	0.16839
1050.47313	0.17122
1049.18736	0.17415
1047.90159	0.17714
1046.61583	0.18017
1045.33006	0.18324
1044.04429	0.18634
1042.75852	0.18945
1041.47275	0.19255
1040.18698	0.19563
1038.90121	0.19874
1037.61544	0.20187
1036.32967	0.20500
1035.04391	0.20809
1033.75814	0.21104
1032.47237	0.21375
1031.18660	0.21614
1029.90083	0.21820
1028.61506	0.22003
1027.32929	0.22167
1026.04352	0.22307
1024.75775	0.22408
1023.47199	0.22458
1022.18622	0.22452
1020.90045	0.22395
1019.61468	0.22291
1018.32891	0.22141
1017.04314	0.21941
1015.75737	0.21687
1014.47160	0.21381
1013.18584	0.21025
1011.90007	0.20627
1010.61430	0.20193
1009.32853	0.19729
1008.04276	0.19241
1006.75699	0.18730
1005.47122	0.18199
1004.18545	0.17650
1002.89968	0.17081
1001.61392	0.16489
1000.32815	0.15876
999.04238	0.15259
997.75661	0.14655
996.47084	0.14070
995.18507	0.13503
993.89930	0.12947
992.61353	0.12401
991.32777	0.11870
990.04200	0.11359
988.75623	0.10872
987.47046	0.10411
986.18469	0.09976
984.89892	0.09565
983.61315	0.09176
982.32738	0.08804
981.04161	0.08449
979.75585	0.08118
978.47008	0.07821
977.18431	0.07560
975.89854	0.07329
974.61277	0.07122
973.32700	0.06939
972.04123	0.06790
970.75546	0.06692
969.46970	0.06650
968.18393	0.06659
966.89816	0.06709
965.61239	0.06786
964.32662	0.06874
963.04085	0.06954
961.75508	0.07010
960.46931	0.07028
959.18354	0.06999
957.89778	0.06918
956.61201	0.06791
955.32624	0.06633
954.04047	0.06460
952.75470	0.06281
951.46893	0.06101
950.18316	0.05924
948.89739	0.05753
947.61163	0.05590
946.32586	0.05435
945.04009	0.05286
943.75432	0.05136
942.46855	0.04987
941.18278	0.04844
939.89701	0.04715
938.61124	0.04600
937.32547	0.04492
936.03971	0.04385
934.75394	0.04280
933.46817	0.04185
932.18240	0.04103
930.89663	0.04028
929.61086	0.03954
928.32509	0.03881
927.03932	0.03815
925.75356	0.03761
924.46779	0.03716
923.18202	0.03671
921.89625	0.03621
920.61048	0.03569
919.32471	0.03523
918.03894	0.03480
916.75317	0.03436
915.46740	0.03394
914.18164	0.03358
912.89587	0.03330
911.61010	0.03298
910.32433	0.03254
909.03856	0.03202
907.75279	0.03157
906.46702	0.03129
905.18125	0.03112
903.89549	0.03095
902.60972	0.03072
901.32395	0.03045
900.03818	0.03023
898.75241	0.03008
897.46664	0.02998
896.18087	0.02988
894.89510	0.02977
893.60933	0.02967
892.32357	0.02963
891.03780	0.02963
889.75203	0.02964
888.46626	0.02967
887.18049	0.02983
885.89472	0.03029
884.60895	0.03120
883.32318	0.03264
882.03742	0.03446
880.75165	0.03628
879.46588	0.03775
878.18011	0.03875
876.89434	0.03946
875.60857	0.04013
874.32280	0.04088
873.03703	0.04155
871.75126	0.04182
870.46550	0.04150
869.17973	0.04062
867.89396	0.03939
866.60819	0.03798
865.32242	0.03649
864.03665	0.03500
862.75088	0.03363
861.46511	0.03248
860.17935	0.03155
858.89358	0.03082
857.60781	0.03023
856.32204	0.02974
855.03627	0.02928
853.75050	0.02884
852.46473	0.02846
851.17896	0.02815
849.89319	0.02789
848.60743	0.02761
847.32166	0.02728
846.03589	0.02695
844.75012	0.02670
843.46435	0.02656
842.17858	0.02650
840.89281	0.02643
839.60704	0.02629
838.32128	0.02603
837.03551	0.02570
835.74974	0.02539
834.46397	0.02518
833.17820	0.02510
831.89243	0.02508
830.60666	0.02503
829.32089	0.02490
828.03512	0.02471
826.74936	0.02451
825.46359	0.02438
824.17782	0.02430
822.89205	0.02426
821.60628	0.02424
820.32051	0.02426
819.03474	0.02428
817.74897	0.02429
816.46321	0.02428
815.17744	0.02426
813.89167	0.02424
812.60590	0.02420
811.32013	0.02411
810.03436	0.02399
808.74859	0.02386
807.46282	0.02376
806.17705	0.02371
804.89129	0.02368
803.60552	0.02360
802.31975	0.02348
801.03398	0.02342
799.74821	0.02345
798.46244	0.02355
797.17667	0.02362
795.89090	0.02365
794.60513	0.02368
793.31937	0.02372
792.03360	0.02378
790.74783	0.02382
789.46206	0.02385
788.17629	0.02389
786.89052	0.02391
785.60475	0.02389
784.31898	0.02385
783.03322	0.02383
781.74745	0.02386
780.46168	0.02392
779.17591	0.02398
777.89014	0.02396
776.60437	0.02384
775.31860	0.02366
774.03283	0.02350
772.74706	0.02343
771.46130	0.02348
770.17553	0.02357
768.88976	0.02366
767.60399	0.02370
766.31822	0.02371
765.03245	0.02373
763.74668	0.02375
762.46091	0.02374
761.17515	0.02367
759.88938	0.02355
758.60361	0.02347
757.31784	0.02350
756.03207	0.02366
754.74630	0.02382
753.46053	0.02389
752.17476	0.02383
750.88899	0.02369
749.60323	0.02356
748.31746	0.02352
747.03169	0.02357
745.74592	0.02364
744.46015	0.02366
743.17438	0.02360
741.88861	0.02354
740.60284	0.02349
739.31708	0.02344
738.03131	0.02336
736.74554	0.02332
735.45977	0.02338
734.17400	0.02349
732.88823	0.02355
731.60246	0.02353
730.31669	0.02351
729.03092	0.02352
727.74516	0.02353
726.45939	0.02351
725.17362	0.02347
723.88785	0.02342
722.60208	0.02339
721.31631	0.02338
720.03054	0.02340
718.74477	0.02346
717.45901	0.02356
716.17324	0.02365
714.88747	0.02367
713.60170	0.02366
712.31593	0.02365
711.03016	0.02368
709.74439	0.02373
708.45862	0.02376
707.17285	0.02372
705.88709	0.02362
704.60132	0.02349
703.31555	0.02338
702.02978	0.02334
700.74401	0.02336
699.45824	0.02342
698.17247	0.02348
696.88670	0.02354
695.60094	0.02364
694.31517	0.02371
693.02940	0.02372
691.74363	0.02364
690.45786	0.02352
689.17209	0.02354
687.88632	0.02357
686.60055	0.02356
685.31478	0.02350
684.02902	0.02342
682.74325	0.02354
681.45748	0.02364
680.17171	0.02367
678.88594	0.02362
677.60017	0.02356
676.31440	0.02367
675.02863	0.02378
673.74287	0.02386
672.45710	0.02395
671.17133	0.02407
669.88556	0.02430
668.59979	0.02459
667.31402	0.02473
666.02825	0.02476
664.74248	0.02471
663.45671	0.02457
662.17095	0.02440
660.88518	0.02422
659.59941	0.02406
658.31364	0.02399
657.02787	0.02398
655.74210	0.02401
654.45633	0.02407
653.17056	0.02413
651.88480	0.02416
650.59903	0.02422
649.31326	0.02432
648.02749	0.02440
646.74172	0.02450
645.45595	0.02464
644.17018	0.02480
642.88441	0.02495
641.59864	0.02512
640.31288	0.02528
639.02711	0.02548
637.74134	0.02577
636.45557	0.02614
635.16980	0.02649
633.88403	0.02678
632.59826	0.02696
631.31249	0.02721
630.02673	0.02824
628.74096	0.02981
627.45519	0.02925
626.16942	0.03130
624.88365	0.03499
623.59788	0.03821
622.31211	0.04050
621.02634	0.04257
619.74057	0.04508
618.45481	0.04758
617.16904	0.04907
615.88327	0.04932
614.59750	0.04935
613.31173	0.05079
612.02596	0.05468
610.74019	0.06043
609.45442	0.06626
608.16866	0.07101
606.88289	0.07501
605.59712	0.07898
604.31135	0.08278
603.02558	0.08553
601.73981	0.08647
600.45404	0.08544
599.16827	0.08283
597.88250	0.07927
596.59674	0.07541
595.31097	0.07175
594.02520	0.06859
592.73943	0.06611
591.45366	0.06441
590.16789	0.06348
588.88212	0.06324
587.59635	0.06361
586.31059	0.06454
585.02482	0.06593
583.73905	0.06763
582.45328	0.06956
581.16751	0.07169
579.88174	0.07406
578.59597	0.07663
577.31020	0.07932
576.02443	0.08208
574.73867	0.08486
573.45290	0.08767
572.16713	0.09052
570.88136	0.09350
569.59559	0.09675
568.30982	0.10034
567.02405	0.10411
565.73828	0.10773
564.45251	0.11073
563.16675	0.11273
561.88098	0.11340
560.59521	0.11251
559.30944	0.10996
558.02367	0.10590
556.73790	0.10069
555.45213	0.09481
554.16636	0.08876
552.88060	0.08286
551.59483	0.07732
550.30906	0.07219
549.02329	0.06755
547.73752	0.06352
546.45175	0.06019
545.16598	0.05750
543.88021	0.05518
542.59444	0.05295
541.30868	0.05076
540.02291	0.04869
538.73714	0.04686
537.45137	0.04522
536.16560	0.04370
534.87983	0.04226
533.59406	0.04093
532.30829	0.03977
531.02253	0.03877
529.73676	0.03790
528.45099	0.03713
527.16522	0.03638
525.87945	0.03562
524.59368	0.03482
523.30791	0.03402
522.02214	0.03327
520.73637	0.03263
519.45061	0.03207
518.16484	0.03153
516.87907	0.03093
515.59330	0.03026
514.30753	0.02957
513.02176	0.02893
511.73599	0.02837
510.45022	0.02787
509.16446	0.02740
507.87869	0.02697
506.59292	0.02655
505.30715	0.02614
504.02138	0.02575
502.73561	0.02546
501.44984	0.02526
500.16407	0.02511
498.87830	0.02488
497.59254	0.02452
496.30677	0.02411
495.02100	0.02374
493.73523	0.02349
492.44946	0.02336
491.16369	0.02329
489.87792	0.02320
488.59215	0.02307
487.30639	0.02289
486.02062	0.02275
484.73485	0.02266
483.44908	0.02259
482.16331	0.02251
480.87754	0.02245
479.59177	0.02251
478.30600	0.02274
477.02023	0.02307
475.73447	0.02337
474.44870	0.02357
473.16293	0.02366
471.87716	0.02374
470.59139	0.02385
469.30562	0.02397
468.01985	0.02399
466.73408	0.02384
465.44832	0.02350
464.16255	0.02306
462.87678	0.02263
461.59101	0.02229
460.30524	0.02204
459.01947	0.02180
457.73370	0.02154
456.44793	0.02120
455.16216	0.02078
453.87640	0.02034
452.59063	0.01998
451.30486	0.01976
450.01909	0.01961
448.73332	0.01948
447.44755	0.01932
446.16178	0.01915
444.87601	0.01902
443.59025	0.01889
442.30448	0.01875
441.01871	0.01860
439.73294	0.01845
438.44717	0.01831
437.16140	0.01817
435.87563	0.01806
434.58986	0.01799
433.30409	0.01798
432.01833	0.01803
430.73256	0.01807
429.44679	0.01806
428.16102	0.01796
426.87525	0.01782
425.58948	0.01767
424.30371	0.01754
423.01794	0.01743
421.73218	0.01732
420.44641	0.01720
419.16064	0.01710
417.87487	0.01704
416.58910	0.01700
415.30333	0.01694
414.01756	0.01684
412.73179	0.01674
411.44602	0.01664
410.16026	0.01656
408.87449	0.01654
407.58872	0.01655
406.30295	0.01658
405.01718	0.01661
403.73141	0.01666
402.44564	0.01674
401.15987	0.01686
399.87411	0.01701
