3997.45528	0.03087
3996.16951	0.03055
3994.88374	0.03030
3993.59798	0.03032
3992.31221	0.03067
3991.02644	0.03114
3989.74067	0.03137
3988.45490	0.03120
3987.16913	0.03086
3985.88336	0.03072
3984.59759	0.03102
3983.31183	0.03173
3982.02606	0.03258
3980.74029	0.03327
3979.45452	0.03358
3978.16875	0.03355
3976.88298	0.03337
3975.59721	0.03318
3974.31144	0.03297
3973.02567	0.03267
3971.73991	0.03220
3970.45414	0.03159
3969.16837	0.03101
3967.88260	0.03062
3966.59683	0.03049
3965.31106	0.03052
3964.02529	0.03052
3962.73952	0.03032
3961.45376	0.03002
3960.16799	0.02981
3958.88222	0.02972
3957.59645	0.02960
3956.31068	0.02939
3955.02491	0.02933
3953.73914	0.02959
3952.45337	0.02999
3951.16760	0.03024
3949.88184	0.03023
3948.59607	0.03017
3947.31030	0.03033
3946.02453	0.03084
3944.73876	0.03158
3943.45299	0.03225
3942.16722	0.03259
3940.88145	0.03253
3939.59569	0.03212
3938.30992	0.03146
3937.02415	0.03072
3935.73838	0.03008
3934.45261	0.02968
3933.16684	0.02949
3931.88107	0.02933
3930.59530	0.02911
3929.30953	0.02890
3928.02377	0.02885
3926.73800	0.02896
3925.45223	0.02911
3924.16646	0.02921
3922.88069	0.02935
3921.59492	0.02963
3920.30915	0.03005
3919.02338	0.03061
3917.73762	0.03127
3916.45185	0.03189
3915.16608	0.03220
3913.88031	0.03208
3912.59454	0.03164
3911.30877	0.03119
3910.02300	0.03093
3908.73723	0.03090
3907.45146	0.03090
3906.16570	0.03065
3904.87993	0.02987
3903.59416	0.02872
3902.30839	0.02775
3901.02262	0.02761
3899.73685	0.02840
3898.45108	0.02956
3897.16531	0.03047
3895.87955	0.03085
3894.59378	0.03080
3893.30801	0.03046
3892.02224	0.02997
3890.73647	0.02956
3889.45070	0.02952
3888.16493	0.02989
3886.87916	0.03047
3885.59339	0.03094
3884.30763	0.03109
3883.02186	0.03088
3881.73609	0.03038
3880.45032	0.02972
3879.16455	0.02914
3877.87878	0.02889
3876.59301	0.02902
3875.30724	0.02929
3874.02148	0.02935
3872.73571	0.02906
3871.44994	0.02863
3870.16417	0.02840
3868.87840	0.02860
3867.59263	0.02919
3866.30686	0.02993
3865.02109	0.03060
3863.73532	0.03119
3862.44956	0.03180
3861.16379	0.03238
3859.87802	0.03264
3858.59225	0.03242
3857.30648	0.03186
3856.02071	0.03122
3854.73494	0.03055
3853.44917	0.02973
3852.16341	0.02884
3850.87764	0.02823
3849.59187	0.02816
3848.30610	0.02848
3847.02033	0.02884
3845.73456	0.02900
3844.44879	0.02898
3843.16302	0.02890
3841.87725	0.02886
3840.59149	0.02883
3839.30572	0.02872
3838.01995	0.02844
3836.73418	0.02805
3835.44841	0.02780
3834.16264	0.02786
3832.87687	0.02817
3831.59110	0.02849
3830.30534	0.02869
3829.01957	0.02884
3827.73380	0.02906
3826.44803	0.02942
3825.16226	0.02982
3823.87649	0.03009
3822.59072	0.03007
3821.30495	0.02985
3820.01918	0.02963
3818.73342	0.02956
3817.44765	0.02955
3816.16188	0.02946
3814.87611	0.02926
3813.59034	0.02896
3812.30457	0.02855
3811.01880	0.02811
3809.73303	0.02781
3808.44726	0.02778
3807.16150	0.02795
3805.87573	0.02816
3804.58996	0.02843
3803.30419	0.02883
3802.01842	0.02920
3800.73265	0.02923
3799.44688	0.02878
3798.16111	0.02815
3796.87535	0.02775
3795.58958	0.02775
3794.30381	0.02813
3793.01804	0.02877
3791.73227	0.02942
3790.44650	0.02966
3789.16073	0.02922
3787.87496	0.02834
3786.58919	0.02759
3785.30343	0.02731
3784.01766	0.02745
3782.73189	0.02780
3781.44612	0.02826
3780.16035	0.02865
3778.87458	0.02869
3777.58881	0.02818
3776.30304	0.02736
3775.01728	0.02683
3773.73151	0.02703
3772.44574	0.02775
3771.15997	0.02836
3769.87420	0.02830
3768.58843	0.02751
3767.30266	0.02638
3766.01689	0.02549
3764.73112	0.02527
3763.44536	0.02582
3762.15959	0.02685
3760.87382	0.02788
3759.58805	0.02849
3758.30228	0.02841
3757.01651	0.02776
3755.73074	0.02706
3754.44497	0.02698
3753.15921	0.02779
3751.87344	0.02904
3750.58767	0.02998
3749.30190	0.03021
3748.01613	0.02986
3746.73036	0.02933
3745.44459	0.02881
3744.15882	0.02831
3742.87305	0.02781
3741.58729	0.02736
3740.30152	0.02705
3739.01575	0.02695
3737.72998	0.02710
3736.44421	0.02744
3735.15844	0.02779
3733.87267	0.02799
3732.58690	0.02803
3731.30114	0.02800
3730.01537	0.02795
3728.72960	0.02782
3727.44383	0.02753
3726.15806	0.02707
3724.87229	0.02663
3723.58652	0.02643
3722.30075	0.02655
3721.01498	0.02687
3719.72922	0.02723
3718.44345	0.02757
3717.15768	0.02786
3715.87191	0.02813
3714.58614	0.02840
3713.30037	0.02859
3712.01460	0.02857
3710.72883	0.02822
3709.44307	0.02761
3708.15730	0.02696
3706.87153	0.02653
3705.58576	0.02649
3704.29999	0.02681
3703.01422	0.02735
3701.72845	0.02787
3700.44268	0.02806
3699.15691	0.02769
3697.87115	0.02689
3696.58538	0.02605
3695.29961	0.02545
3694.01384	0.02517
3692.72807	0.02528
3691.44230	0.02569
3690.15653	0.02619
3688.87076	0.02662
3687.58500	0.02687
3686.29923	0.02693
3685.01346	0.02695
3683.72769	0.02687
3682.44192	0.02652
3681.15615	0.02604
3679.87038	0.02593
3678.58461	0.02653
3677.29884	0.02765
3676.01308	0.02873
3674.72731	0.02946
3673.44154	0.02990
3672.15577	0.03018
3670.87000	0.03030
3669.58423	0.03020
3668.29846	0.02984
3667.01269	0.02920
3665.72693	0.02839
3664.44116	0.02775
3663.15539	0.02764
3661.86962	0.02810
3660.58385	0.02875
3659.29808	0.02916
3658.01231	0.02927
3656.72654	0.02929
3655.44077	0.02938
3654.15501	0.02951
3652.86924	0.02964
3651.58347	0.02978
3650.29770	0.02992
3649.01193	0.02998
3647.72616	0.02991
3646.44039	0.02975
3645.15462	0.02963
3643.86886	0.02973
3642.58309	0.03020
3641.29732	0.03100
3640.01155	0.03179
3638.72578	0.03212
3637.44001	0.03180
3636.15424	0.03103
3634.86847	0.03030
3633.58270	0.03001
3632.29694	0.03035
3631.01117	0.03115
3629.72540	0.03193
3628.43963	0.03219
3627.15386	0.03180
3625.86809	0.03117
3624.58232	0.03092
3623.29655	0.03134
3622.01079	0.03212
3620.72502	0.03259
3619.43925	0.03232
3618.15348	0.03154
3616.86771	0.03098
3615.58194	0.03124
3614.29617	0.03227
3613.01040	0.03353
3611.72463	0.03452
3610.43887	0.03509
3609.15310	0.03534
3607.86733	0.03539
3606.58156	0.03523
3605.29579	0.03491
3604.01002	0.03447
3602.72425	0.03400
3601.43848	0.03366
3600.15272	0.03364
3598.86695	0.03406
3597.58118	0.03481
3596.29541	0.03567
3595.00964	0.03631
3593.72387	0.03655
3592.43810	0.03651
3591.15233	0.03647
3589.86656	0.03648
3588.58080	0.03656
3587.29503	0.03678
3586.00926	0.03714
3584.72349	0.03747
3583.43772	0.03777
3582.15195	0.03826
3580.86618	0.03903
3579.58041	0.03985
3578.29464	0.04034
3577.00888	0.04040
3575.72311	0.04047
3574.43734	0.04093
3573.15157	0.04172
3571.86580	0.04245
3570.58003	0.04277
3569.29426	0.04266
3568.00849	0.04235
3566.72273	0.04209
3565.43696	0.04201
3564.15119	0.04203
3562.86542	0.04189
3561.57965	0.04146
3560.29388	0.04085
3559.00811	0.04032
3557.72234	0.04001
3556.43657	0.03989
3555.15081	0.03998
3553.86504	0.04034
3552.57927	0.04098
3551.29350	0.04173
3550.00773	0.04243
3548.72196	0.04302
3547.43619	0.04355
3546.15042	0.04390
3544.86466	0.04389
3543.57889	0.04350
3542.29312	0.04301
3541.00735	0.04276
3539.72158	0.04286
3538.43581	0.04319
3537.15004	0.04365
3535.86427	0.04420
3534.57850	0.04472
3533.29274	0.04492
3532.00697	0.04472
3530.72120	0.04445
3529.43543	0.04460
3528.14966	0.04526
3526.86389	0.04610
3525.57812	0.04671
3524.29235	0.04692
3523.00659	0.04676
3521.72082	0.04629
3520.43505	0.04565
3519.14928	0.04511
3517.86351	0.04492
3516.57774	0.04514
3515.29197	0.04557
3514.00620	0.04608
3512.72043	0.04656
3511.43467	0.04684
3510.14890	0.04675
3508.86313	0.04640
3507.57736	0.04623
3506.29159	0.04661
3505.00582	0.04736
3503.72005	0.04796
3502.43428	0.04805
3501.14852	0.04774
3499.86275	0.04748
3498.57698	0.04765
3497.29121	0.04816
3496.00544	0.04864
3494.71967	0.04884
3493.43390	0.04885
3492.14813	0.04891
3490.86236	0.04898
3489.57660	0.04877
3488.29083	0.04813
3487.00506	0.04729
3485.71929	0.04674
3484.43352	0.04689
3483.14775	0.04773
3481.86198	0.04894
3480.57621	0.05015
3479.29045	0.05104
3478.00468	0.05146
3476.71891	0.05142
3475.43314	0.05115
3474.14737	0.05097
3472.86160	0.05104
3471.57583	0.05130
3470.29006	0.05153
3469.00429	0.05160
3467.71853	0.05151
3466.43276	0.05132
3465.14699	0.05109
3463.86122	0.05094
3462.57545	0.05095
3461.28968	0.05118
3460.00391	0.05156
3458.71814	0.05194
3457.43238	0.05222
3456.14661	0.05238
3454.86084	0.05249
3453.57507	0.05258
3452.28930	0.05259
3451.00353	0.05243
3449.71776	0.05223
3448.43199	0.05224
3447.14622	0.05255
3445.86046	0.05296
3444.57469	0.05324
3443.28892	0.05326
3442.00315	0.05304
3440.71738	0.05266
3439.43161	0.05229
3438.14584	0.05224
3436.86007	0.05266
3435.57431	0.05334
3434.28854	0.05388
3433.00277	0.05408
3431.71700	0.05409
3430.43123	0.05428
3429.14546	0.05487
3427.85969	0.05572
3426.57392	0.05639
3425.28815	0.05650
3424.00239	0.05600
3422.71662	0.05529
3421.43085	0.05491
3420.14508	0.05510
3418.85931	0.05566
3417.57354	0.05607
3416.28777	0.05593
3415.00200	0.05530
3413.71624	0.05461
3412.43047	0.05434
3411.14470	0.05463
3409.85893	0.05522
3408.57316	0.05571
3407.28739	0.05588
3406.00162	0.05574
3404.71585	0.05548
3403.43008	0.05529
3402.14432	0.05532
3400.85855	0.05558
3399.57278	0.05598
3398.28701	0.05640
3397.00124	0.05678
3395.71547	0.05704
3394.42970	0.05707
3393.14393	0.05687
3391.85817	0.05658
3390.57240	0.05647
3389.28663	0.05664
3388.00086	0.05698
3386.71509	0.05718
3385.42932	0.05708
3384.14355	0.05680
3382.85778	0.05661
3381.57201	0.05665
3380.28625	0.05688
3379.00048	0.05714
3377.71471	0.05732
3376.42894	0.05739
3375.14317	0.05733
3373.85740	0.05713
3372.57163	0.05677
3371.28586	0.05630
3370.00010	0.05586
3368.71433	0.05561
3367.42856	0.05566
3366.14279	0.05608
3364.85702	0.05678
3363.57125	0.05749
3362.28548	0.05789
3360.99971	0.05796
3359.71394	0.05795
3358.42818	0.05812
3357.14241	0.05845
3355.85664	0.05870
3354.57087	0.05874
3353.28510	0.05861
3351.99933	0.05847
3350.71356	0.05842
3349.42779	0.05839
3348.14202	0.05827
3346.85626	0.05808
3345.57049	0.05791
3344.28472	0.05779
3342.99895	0.05766
3341.71318	0.05754
3340.42741	0.05746
3339.14164	0.05734
3337.85587	0.05709
3336.57011	0.05669
3335.28434	0.05628
3333.99857	0.05601
3332.71280	0.05592
3331.42703	0.05599
3330.14126	0.05618
3328.85549	0.05641
3327.56972	0.05659
3326.28395	0.05669
3324.99819	0.05684
3323.71242	0.05707
3322.42665	0.05726
3321.14088	0.05718
3319.85511	0.05673
3318.56934	0.05608
3317.28357	0.05555
3315.99780	0.05535
3314.71204	0.05547
3313.42627	0.05576
3312.14050	0.05605
3310.85473	0.05639
3309.56896	0.05685
3308.28319	0.05743
3306.99742	0.05797
3305.71165	0.05831
3304.42588	0.05835
3303.14012	0.05806
3301.85435	0.05748
3300.56858	0.05679
3299.28281	0.05628
3297.99704	0.05611
3296.71127	0.05622
3295.42550	0.05641
3294.13973	0.05654
3292.85397	0.05659
3291.56820	0.05656
3290.28243	0.05643
3288.99666	0.05621
3287.71089	0.05598
3286.42512	0.05582
3285.13935	0.05577
3283.85358	0.05587
3282.56781	0.05617
3281.28205	0.05660
3279.99628	0.05703
3278.71051	0.05732
3277.42474	0.05745
3276.13897	0.05750
3274.85320	0.05755
3273.56743	0.05761
3272.28166	0.05760
3270.99590	0.05744
3269.71013	0.05707
3268.42436	0.05654
3267.13859	0.05595
3265.85282	0.05551
3264.56705	0.05537
3263.28128	0.05551
3261.99551	0.05571
3260.70974	0.05582
3259.42398	0.05588
3258.13821	0.05602
3256.85244	0.05626
3255.56667	0.05642
3254.28090	0.05638
3252.99513	0.05618
3251.70936	0.05601
3250.42359	0.05591
3249.13783	0.05581
3247.85206	0.05563
3246.56629	0.05537
3245.28052	0.05509
3243.99475	0.05483
3242.70898	0.05465
3241.42321	0.05460
3240.13744	0.05470
3238.85167	0.05482
3237.56591	0.05484
3236.28014	0.05473
3234.99437	0.05452
3233.70860	0.05430
3232.42283	0.05414
3231.13706	0.05412
3229.85129	0.05426
3228.56552	0.05450
3227.27976	0.05473
3225.99399	0.05490
3224.70822	0.05500
3223.42245	0.05500
3222.13668	0.05487
3220.85091	0.05464
3219.56514	0.05444
3218.27937	0.05441
3216.99360	0.05454
3215.70784	0.05468
3214.42207	0.05465
3213.13630	0.05436
3211.85053	0.05381
3210.56476	0.05312
3209.27899	0.05258
3207.99322	0.05243
3206.70745	0.05266
3205.42169	0.05300
3204.13592	0.05323
3202.85015	0.05332
3201.56438	0.05341
3200.27861	0.05362
3198.99284	0.05392
3197.70707	0.05424
3196.42130	0.05448
3195.13553	0.05451
3193.84977	0.05431
3192.56400	0.05397
3191.27823	0.05364
3189.99246	0.05338
3188.70669	0.05316
3187.42092	0.05302
3186.13515	0.05304
3184.84938	0.05320
3183.56362	0.05340
3182.27785	0.05355
3180.99208	0.05361
3179.70631	0.05347
3178.42054	0.05311
3177.13477	0.05270
3175.84900	0.05247
3174.56323	0.05244
3173.27746	0.05239
3171.99170	0.05211
3170.70593	0.05165
3169.42016	0.05130
3168.13439	0.05132
3166.84862	0.05174
3165.56285	0.05219
3164.27708	0.05223
3162.99131	0.05167
3161.70555	0.05084
3160.41978	0.05027
3159.13401	0.05025
3157.84824	0.05064
3156.56247	0.05111
3155.27670	0.05146
3153.99093	0.05177
3152.70516	0.05214
3151.41939	0.05260
3150.13363	0.05302
3148.84786	0.05327
3147.56209	0.05329
3146.27632	0.05307
3144.99055	0.05263
3143.70478	0.05209
3142.41901	0.05167
3141.13324	0.05149
3139.84748	0.05149
3138.56171	0.05147
3137.27594	0.05130
3135.99017	0.05106
3134.70440	0.05088
3133.41863	0.05078
3132.13286	0.05069
3130.84709	0.05057
3129.56132	0.05042
3128.27556	0.05023
3126.98979	0.04990
3125.70402	0.04947
3124.41825	0.04914
3123.13248	0.04910
3121.84671	0.04932
3120.56094	0.04957
3119.27517	0.04966
3117.98940	0.04959
3116.70364	0.04950
3115.41787	0.04946
3114.13210	0.04939
3112.84633	0.04916
3111.56056	0.04880
3110.27479	0.04851
3108.98902	0.04847
3107.70325	0.04866
3106.41749	0.04887
3105.13172	0.04887
3103.84595	0.04866
3102.56018	0.04839
3101.27441	0.04821
3099.98864	0.04811
3098.70287	0.04801
3097.41710	0.04788
3096.13133	0.04778
3094.84557	0.04776
3093.55980	0.04786
3092.27403	0.04804
3090.98826	0.04818
3089.70249	0.04819
3088.41672	0.04813
3087.13095	0.04814
3085.84518	0.04830
3084.55942	0.04853
3083.27365	0.04864
3081.98788	0.04847
3080.70211	0.04804
3079.41634	0.04753
3078.13057	0.04719
3076.84480	0.04709
3075.55903	0.04711
3074.27326	0.04705
3072.98750	0.04688
3071.70173	0.04674
3070.41596	0.04680
3069.13019	0.04710
3067.84442	0.04754
3066.55865	0.04787
3065.27288	0.04783
3063.98711	0.04739
3062.70135	0.04678
3061.41558	0.04633
3060.12981	0.04621
3058.84404	0.04632
3057.55827	0.04650
3056.27250	0.04660
3054.98673	0.04658
3053.70096	0.04649
3052.41519	0.04638
3051.12943	0.04623
3049.84366	0.04593
3048.55789	0.04544
3047.27212	0.04489
3045.98635	0.04448
3044.70058	0.04436
3043.41481	0.04449
3042.12904	0.04481
3040.84328	0.04517
3039.55751	0.04538
3038.27174	0.04534
3036.98597	0.04513
3035.70020	0.04497
3034.41443	0.04497
3033.12866	0.04511
3031.84289	0.04525
3030.55712	0.04529
3029.27136	0.04519
3027.98559	0.04502
3026.69982	0.04489
3025.41405	0.04487
3024.12828	0.04494
3022.84251	0.04503
3021.55674	0.04511
3020.27097	0.04514
3018.98521	0.04507
3017.69944	0.04490
3016.41367	0.04464
3015.12790	0.04437
3013.84213	0.04413
3012.55636	0.04390
3011.27059	0.04369
3009.98482	0.04353
3008.69905	0.04350
3007.41329	0.04361
3006.12752	0.04376
3004.84175	0.04384
3003.55598	0.04380
3002.27021	0.04368
3000.98444	0.04351
2999.69867	0.04331
2998.41290	0.04314
2997.12714	0.04308
2995.84137	0.04309
2994.55560	0.04305
2993.26983	0.04291
2991.98406	0.04273
2990.69829	0.04258
2989.41252	0.04249
2988.12675	0.04252
2986.84098	0.04276
2985.55522	0.04318
2984.26945	0.04352
2982.98368	0.04350
2981.69791	0.04316
2980.41214	0.04284
2979.12637	0.04285
2977.84060	0.04314
2976.55483	0.04347
2975.26907	0.04373
2973.98330	0.04402
2972.69753	0.04441
2971.41176	0.04482
2970.12599	0.04510
2968.84022	0.04521
2967.55445	0.04524
2966.26868	0.04531
2964.98291	0.04541
2963.69715	0.04550
2962.41138	0.04553
2961.12561	0.04559
2959.83984	0.04577
2958.55407	0.04609
2957.26830	0.04645
2955.98253	0.04676
2954.69676	0.04701
2953.41100	0.04716
2952.12523	0.04716
2950.83946	0.04699
2949.55369	0.04676
2948.26792	0.04661
2946.98215	0.04665
2945.69638	0.04677
2944.41061	0.04677
2943.12484	0.04653
2941.83908	0.04609
2940.55331	0.04565
2939.26754	0.04545
2937.98177	0.04560
2936.69600	0.04605
2935.41023	0.04656
2934.12446	0.04685
2932.83869	0.04681
2931.55293	0.04652
2930.26716	0.04614
2928.98139	0.04585
2927.69562	0.04571
2926.40985	0.04575
2925.12408	0.04586
2923.83831	0.04591
2922.55254	0.04586
2921.26677	0.04584
2919.98101	0.04589
2918.69524	0.04589
2917.40947	0.04568
2916.12370	0.04525
2914.83793	0.04475
2913.55216	0.04435
2912.26639	0.04411
2910.98062	0.04392
2909.69486	0.04366
2908.40909	0.04333
2907.12332	0.04304
2905.83755	0.04290
2904.55178	0.04294
2903.26601	0.04310
2901.98024	0.04327
2900.69447	0.04332
2899.40870	0.04320
2898.12294	0.04297
2896.83717	0.04274
2895.55140	0.04252
2894.26563	0.04228
2892.97986	0.04201
2891.69409	0.04172
2890.40832	0.04143
2889.12255	0.04118
2887.83678	0.04107
2886.55102	0.04110
2885.26525	0.04114
2883.97948	0.04105
2882.69371	0.04075
2881.40794	0.04029
2880.12217	0.03989
2878.83640	0.03979
2877.55063	0.04003
2876.26487	0.04042
2874.97910	0.04070
2873.69333	0.04074
2872.40756	0.04056
2871.12179	0.04033
2869.83602	0.04023
2868.55025	0.04025
2867.26448	0.04028
2865.97871	0.04020
2864.69295	0.04001
2863.40718	0.03971
2862.12141	0.03933
2860.83564	0.03889
2859.54987	0.03849
2858.26410	0.03825
2856.97833	0.03818
2855.69256	0.03824
2854.40680	0.03833
2853.12103	0.03838
2851.83526	0.03835
2850.54949	0.03826
2849.26372	0.03813
2847.97795	0.03800
2846.69218	0.03790
2845.40641	0.03781
2844.12064	0.03769
2842.83488	0.03747
2841.54911	0.03711
2840.26334	0.03661
2838.97757	0.03609
2837.69180	0.03575
2836.40603	0.03567
2835.12026	0.03575
2833.83449	0.03573
2832.54873	0.03542
2831.26296	0.03491
2829.97719	0.03444
2828.69142	0.03424
2827.40565	0.03430
2826.11988	0.03446
2824.83411	0.03455
2823.54834	0.03452
2822.26257	0.03441
2820.97681	0.03422
2819.69104	0.03398
2818.40527	0.03376
2817.11950	0.03366
2815.83373	0.03369
2814.54796	0.03372
2813.26219	0.03368
2811.97642	0.03360
2810.69066	0.03350
2809.40489	0.03339
2808.11912	0.03334
2806.83335	0.03339
2805.54758	0.03352
2804.26181	0.03360
2802.97604	0.03351
2801.69027	0.03329
2800.40450	0.03301
2799.11874	0.03271
2797.83297	0.03241
2796.54720	0.03218
2795.26143	0.03210
2793.97566	0.03215
2792.68989	0.03226
2791.40412	0.03235
2790.11835	0.03237
2788.83259	0.03226
2787.54682	0.03204
2786.26105	0.03183
2784.97528	0.03174
2783.68951	0.03173
2782.40374	0.03171
2781.11797	0.03158
2779.83220	0.03141
2778.54643	0.03130
2777.26067	0.03138
2775.97490	0.03158
2774.68913	0.03174
2773.40336	0.03176
2772.11759	0.03163
2770.83182	0.03143
2769.54605	0.03121
2768.26028	0.03102
2766.97452	0.03094
2765.68875	0.03097
2764.40298	0.03104
2763.11721	0.03104
2761.83144	0.03093
2760.54567	0.03074
2759.25990	0.03054
2757.97413	0.03044
2756.68836	0.03048
2755.40260	0.03058
2754.11683	0.03059
2752.83106	0.03048
2751.54529	0.03029
2750.25952	0.03011
2748.97375	0.03000
2747.68798	0.02999
2746.40221	0.03003
2745.11645	0.03006
2743.83068	0.03007
2742.54491	0.03011
2741.25914	0.03018
2739.97337	0.03021
2738.68760	0.03013
2737.40183	0.02995
2736.11606	0.02978
2734.83029	0.02975
2733.54453	0.02989
2732.25876	0.03008
2730.97299	0.03016
2729.68722	0.03005
2728.40145	0.02977
2727.11568	0.02941
2725.82991	0.02910
2724.54414	0.02890
2723.25838	0.02885
2721.97261	0.02893
2720.68684	0.02906
2719.40107	0.02913
2718.11530	0.02911
2716.82953	0.02902
2715.54376	0.02892
2714.25799	0.02887
2712.97222	0.02888
2711.68646	0.02891
2710.40069	0.02886
2709.11492	0.02871
2707.82915	0.02852
2706.54338	0.02835
2705.25761	0.02824
2703.97184	0.02821
2702.68607	0.02829
2701.40031	0.02846
2700.11454	0.02867
2698.82877	0.02890
2697.54300	0.02908
2696.25723	0.02910
2694.97146	0.02892
2693.68569	0.02862
2692.39992	0.02835
2691.11415	0.02817
2689.82839	0.02805
2688.54262	0.02794
2687.25685	0.02781
2685.97108	0.02770
2684.68531	0.02769
2683.39954	0.02780
2682.11377	0.02794
2680.82800	0.02806
2679.54224	0.02814
2678.25647	0.02822
2676.97070	0.02827
2675.68493	0.02826
2674.39916	0.02815
2673.11339	0.02793
2671.82762	0.02763
2670.54185	0.02730
2669.25608	0.02703
2667.97032	0.02691
2666.68455	0.02694
2665.39878	0.02705
2664.11301	0.02715
2662.82724	0.02718
2661.54147	0.02711
2660.25570	0.02696
2658.96993	0.02680
2657.68417	0.02670
2656.39840	0.02672
2655.11263	0.02683
2653.82686	0.02696
2652.54109	0.02702
2651.25532	0.02701
2649.96955	0.02695
2648.68378	0.02690
2647.39801	0.02687
2646.11225	0.02688
2644.82648	0.02689
2643.54071	0.02687
2642.25494	0.02680
2640.96917	0.02668
2639.68340	0.02651
2638.39763	0.02630
2637.11186	0.02605
2635.82609	0.02579
2634.54033	0.02557
2633.25456	0.02537
2631.96879	0.02518
2630.68302	0.02497
2629.39725	0.02477
2628.11148	0.02468
2626.82571	0.02478
2625.53994	0.02503
2624.25418	0.02527
2622.96841	0.02534
2621.68264	0.02526
2620.39687	0.02513
2619.11110	0.02498
2617.82533	0.02478
2616.53956	0.02453
2615.25379	0.02422
2613.96802	0.02386
2612.68226	0.02353
2611.39649	0.02338
2610.11072	0.02355
2608.82495	0.02401
2607.53918	0.02450
2606.25341	0.02476
2604.96764	0.02472
2603.68187	0.02447
2602.39611	0.02411
2601.11034	0.02369
2599.82457	0.02331
2598.53880	0.02303
2597.25303	0.02286
2595.96726	0.02275
2594.68149	0.02269
2593.39572	0.02271
2592.10995	0.02281
2590.82419	0.02291
2589.53842	0.02295
2588.25265	0.02299
2586.96688	0.02313
2585.68111	0.02340
2584.39534	0.02373
2583.10957	0.02397
2581.82380	0.02393
2580.53804	0.02358
2579.25227	0.02314
2577.96650	0.02289
2576.68073	0.02285
2575.39496	0.02278
2574.10919	0.02248
2572.82342	0.02203
2571.53765	0.02158
2570.25188	0.02121
2568.96612	0.02092
2567.68035	0.02078
2566.39458	0.02086
2565.10881	0.02116
2563.82304	0.02150
2562.53727	0.02173
2561.25150	0.02182
2559.96573	0.02184
2558.67997	0.02189
2557.39420	0.02205
2556.10843	0.02229
2554.82266	0.02243
2553.53689	0.02227
2552.25112	0.02185
2550.96535	0.02146
2549.67958	0.02133
2548.39381	0.02141
2547.10805	0.02151
2545.82228	0.02153
2544.53651	0.02150
2543.25074	0.02149
2541.96497	0.02152
2540.67920	0.02150
2539.39343	0.02131
2538.10766	0.02098
2536.82190	0.02066
2535.53613	0.02057
2534.25036	0.02071
2532.96459	0.02096
2531.67882	0.02112
2530.39305	0.02104
2529.10728	0.02076
2527.82151	0.02043
2526.53574	0.02031
2525.24998	0.02049
2523.96421	0.02088
2522.67844	0.02124
2521.39267	0.02132
2520.10690	0.02109
2518.82113	0.02069
2517.53536	0.02032
2516.24959	0.01999
2514.96383	0.01965
2513.67806	0.01929
2512.39229	0.01903
2511.10652	0.01896
2509.82075	0.01903
2508.53498	0.01914
2507.24921	0.01920
2505.96344	0.01921
2504.67767	0.01924
2503.39191	0.01934
2502.10614	0.01961
2500.82037	0.02001
2499.53460	0.02044
2498.24883	0.02075
2496.96306	0.02091
2495.67729	0.02092
2494.39152	0.02082
2493.10576	0.02058
2491.81999	0.02019
2490.53422	0.01970
2489.24845	0.01929
2487.96268	0.01914
2486.67691	0.01926
2485.39114	0.01948
2484.10537	0.01961
2482.81960	0.01956
2481.53384	0.01934
2480.24807	0.01898
2478.96230	0.01857
2477.67653	0.01828
2476.39076	0.01820
2475.10499	0.01833
2473.81922	0.01860
2472.53345	0.01893
2471.24769	0.01923
2469.96192	0.01941
2468.67615	0.01945
2467.39038	0.01942
2466.10461	0.01945
2464.81884	0.01965
2463.53307	0.01996
2462.24730	0.02024
2460.96153	0.02043
2459.67577	0.02058
2458.39000	0.02068
2457.10423	0.02065
2455.81846	0.02045
2454.53269	0.02016
2453.24692	0.01987
2451.96115	0.01955
2450.67538	0.01921
2449.38962	0.01891
2448.10385	0.01881
2446.81808	0.01897
2445.53231	0.01932
2444.24654	0.01964
2442.96077	0.01971
2441.67500	0.01948
2440.38923	0.01915
2439.10346	0.01894
2437.81770	0.01892
2436.53193	0.01901
2435.24616	0.01911
2433.96039	0.01911
2432.67462	0.01897
2431.38885	0.01874
2430.10308	0.01853
2428.81731	0.01839
2427.53155	0.01829
2426.24578	0.01815
2424.96001	0.01800
2423.67424	0.01789
2422.38847	0.01780
2421.10270	0.01769
2419.81693	0.01761
2418.53116	0.01768
2417.24539	0.01790
2415.95963	0.01807
2414.67386	0.01804
2413.38809	0.01784
2412.10232	0.01766
2410.81655	0.01762
2409.53078	0.01769
2408.24501	0.01771
2406.95924	0.01764
2405.67347	0.01758
2404.38771	0.01761
2403.10194	0.01768
2401.81617	0.01769
2400.53040	0.01763
2399.24463	0.01762
2397.95886	0.01769
2396.67309	0.01783
2395.38732	0.01803
2394.10156	0.01827
2392.81579	0.01848
2391.53002	0.01856
2390.24425	0.01845
2388.95848	0.01820
2387.67271	0.01796
2386.38694	0.01785
2385.10117	0.01788
2383.81540	0.01801
2382.52964	0.01816
2381.24387	0.01822
2379.95810	0.01816
2378.67233	0.01803
2377.38656	0.01796
2376.10079	0.01799
2374.81502	0.01798
2373.52925	0.01788
2372.24349	0.01776
2370.95772	0.01773
2369.67195	0.01766
2368.38618	0.01753
2367.10041	0.01741
2365.81464	0.01746
2364.52887	0.01753
2363.24310	0.01763
2361.95733	0.01786
2360.67157	0.01837
2359.38580	0.01878
2358.10003	0.01891
2356.81426	0.01882
2355.52849	0.01858
2354.24272	0.01828
2352.95695	0.01812
2351.67118	0.01841
2350.38542	0.01891
2349.09965	0.01905
2347.81388	0.01883
2346.52811	0.01900
2345.24234	0.01939
2343.95657	0.01911
2342.67080	0.01825
2341.38503	0.01829
2340.09926	0.01927
2338.81350	0.01913
2337.52773	0.01784
2336.24196	0.01808
2334.95619	0.01949
2333.67042	0.01932
2332.38465	0.01826
2331.09888	0.01907
2329.81311	0.01988
2328.52735	0.01884
2327.24158	0.01912
2325.95581	0.02025
2324.67004	0.01977
2323.38427	0.01943
2322.09850	0.01967
2320.81273	0.01868
2319.52696	0.01830
2318.24119	0.01856
2316.95543	0.01811
2315.66966	0.01801
2314.38389	0.01807
2313.09812	0.01775
2311.81235	0.01780
2310.52658	0.01773
2309.24081	0.01758
2307.95504	0.01758
2306.66928	0.01731
2305.38351	0.01712
2304.09774	0.01703
2302.81197	0.01699
2301.52620	0.01708
2300.24043	0.01712
2298.95466	0.01726
2297.66889	0.01745
2296.38312	0.01757
2295.09736	0.01748
2293.81159	0.01718
2292.52582	0.01693
2291.24005	0.01692
2289.95428	0.01723
2288.66851	0.01775
2287.38274	0.01825
2286.09697	0.01851
2284.81121	0.01834
2283.52544	0.01777
2282.23967	0.01701
2280.95390	0.01639
2279.66813	0.01618
2278.38236	0.01647
2277.09659	0.01705
2275.81082	0.01748
2274.52505	0.01734
2273.23929	0.01659
2271.95352	0.01562
2270.66775	0.01489
2269.38198	0.01460
2268.09621	0.01471
2266.81044	0.01510
2265.52467	0.01562
2264.23890	0.01597
2262.95314	0.01593
2261.66737	0.01551
2260.38160	0.01493
2259.09583	0.01444
2257.81006	0.01419
2256.52429	0.01421
2255.23852	0.01444
2253.95275	0.01479
2252.66698	0.01506
2251.38122	0.01508
2250.09545	0.01478
2248.80968	0.01423
2247.52391	0.01367
2246.23814	0.01332
2244.95237	0.01326
2243.66660	0.01322
2242.38083	0.01284
2241.09507	0.01208
2239.80930	0.01143
2238.52353	0.01149
2237.23776	0.01244
2235.95199	0.01381
2234.66622	0.01486
2233.38045	0.01508
2232.09468	0.01449
2230.80891	0.01351
2229.52315	0.01266
2228.23738	0.01217
2226.95161	0.01207
2225.66584	0.01231
2224.38007	0.01285
2223.09430	0.01345
2221.80853	0.01375
2220.52276	0.01366
2219.23700	0.01344
2217.95123	0.01334
2216.66546	0.01334
2215.37969	0.01324
2214.09392	0.01293
2212.80815	0.01250
2211.52238	0.01214
2210.23661	0.01198
2208.95084	0.01197
2207.66508	0.01189
2206.37931	0.01156
2205.09354	0.01101
2203.80777	0.01048
2202.52200	0.01024
2201.23623	0.01026
2199.95046	0.01030
2198.66469	0.01020
2197.37893	0.01016
2196.09316	0.01050
2194.80739	0.01122
2193.52162	0.01193
2192.23585	0.01224
2190.95008	0.01194
2189.66431	0.01100
2188.37854	0.00960
2187.09277	0.00820
2185.80701	0.00728
2184.52124	0.00698
2183.23547	0.00697
2181.94970	0.00685
2180.66393	0.00651
2179.37816	0.00622
2178.09239	0.00625
2176.80662	0.00653
2175.52085	0.00681
2174.23509	0.00686
2172.94932	0.00664
2171.66355	0.00624
2170.37778	0.00586
2169.09201	0.00581
2167.80624	0.00632
2166.52047	0.00738
2165.23470	0.00858
2163.94894	0.00928
2162.66317	0.00888
2161.37740	0.00715
2160.09163	0.00460
2158.80586	0.00238
2157.52009	0.00136
2156.23432	0.00141
2154.94855	0.00197
2153.66278	0.00284
2152.37702	0.00398
2151.09125	0.00502
2149.80548	0.00549
2148.51971	0.00545
2147.23394	0.00532
2145.94817	0.00518
2144.66240	0.00473
2143.37663	0.00396
2142.09087	0.00331
2140.80510	0.00317
2139.51933	0.00364
2138.23356	0.00477
2136.94779	0.00641
2135.66202	0.00796
2134.37625	0.00866
2133.09048	0.00824
2131.80471	0.00722
2130.51895	0.00633
2129.23318	0.00602
2127.94741	0.00634
2126.66164	0.00714
2125.37587	0.00816
2124.09010	0.00910
2122.80433	0.00973
2121.51856	0.01004
2120.23280	0.01018
2118.94703	0.01034
2117.66126	0.01056
2116.37549	0.01073
2115.08972	0.01066
2113.80395	0.01024
2112.51818	0.00960
2111.23241	0.00896
2109.94664	0.00838
2108.66088	0.00782
2107.37511	0.00734
2106.08934	0.00727
2104.80357	0.00779
2103.51780	0.00864
2102.23203	0.00929
2100.94626	0.00943
2099.66049	0.01007
2098.37473	0.00995
2097.08896	0.00937
2095.80319	0.00890
2094.51742	0.00866
2093.23165	0.00861
2091.94588	0.00866
2090.66011	0.00872
2089.37434	0.00876
2088.08857	0.00875
2086.80281	0.00864
2085.51704	0.00842
2084.23127	0.00819
2082.94550	0.00809
2081.65973	0.00817
2080.37396	0.00830
2079.08819	0.00837
2077.80242	0.00831
2076.51666	0.00807
2075.23089	0.00766
2073.94512	0.00717
2072.65935	0.00677
2071.37358	0.00650
2070.08781	0.00623
2068.80204	0.00574
2067.51627	0.00496
2066.23050	0.00417
2064.94474	0.00375
2063.65897	0.00389
2062.37320	0.00443
2061.08743	0.00503
2059.80166	0.00546
2058.51589	0.00567
2057.23012	0.00578
2055.94435	0.00590
2054.65859	0.00604
2053.37282	0.00620
2052.08705	0.00635
2050.80128	0.00647
2049.51551	0.00648
2048.22974	0.00616
2046.94397	0.00535
2045.65820	0.00422
2044.37243	0.00330
2043.08667	0.00301
2041.80090	0.00324
2040.51513	0.00348
2039.22936	0.00341
2037.94359	0.00322
2036.65782	0.00330
2035.37205	0.00372
2034.08628	0.00414
2032.80052	0.00415
2031.51475	0.00359
2030.22898	0.00282
2028.94321	0.00247
2027.65744	0.00281
2026.37167	0.00340
2025.08590	0.00356
2023.80013	0.00313
2022.51436	0.00261
2021.22860	0.00247
2019.94283	0.00269
2018.65706	0.00300
2017.37129	0.00343
2016.08552	0.00404
2014.79975	0.00461
2013.51398	0.00463
2012.22821	0.00395
2010.94245	0.00288
2009.65668	0.00198
2008.37091	0.00172
2007.08514	0.00230
2005.79937	0.00352
2004.51360	0.00491
2003.22783	0.00598
2001.94206	0.00660
2000.65629	0.00683
1999.37053	0.00677
1998.08476	0.00648
1996.79899	0.00607
1995.51322	0.00564
1994.22745	0.00531
1992.94168	0.00518
1991.65591	0.00531
1990.37014	0.00546
1989.08438	0.00531
1987.79861	0.00484
1986.51284	0.00448
1985.22707	0.00492
1983.94130	0.00644
1982.65553	0.00858
1981.36976	0.01034
1980.08399	0.01096
1978.79822	0.01059
1977.51246	0.01002
1976.22669	0.00982
1974.94092	0.00981
1973.65515	0.00940
1972.36938	0.00833
1971.08361	0.00699
1969.79784	0.00605
1968.51207	0.00591
1967.22631	0.00639
1965.94054	0.00700
1964.65477	0.00727
1963.36900	0.00720
1962.08323	0.00713
1960.79746	0.00739
1959.51169	0.00791
1958.22592	0.00837
1956.94015	0.00860
1955.65439	0.00868
1954.36862	0.00878
1953.08285	0.00888
1951.79708	0.00888
1950.51131	0.00873
1949.22554	0.00860
1947.93977	0.00869
1946.65400	0.00906
1945.36823	0.00952
1944.08247	0.00988
1942.79670	0.01015
1941.51093	0.01045
1940.22516	0.01075
1938.93939	0.01083
1937.65362	0.01058
1936.36785	0.01017
1935.08208	0.00988
1933.79632	0.00981
1932.51055	0.00984
1931.22478	0.00987
1929.93901	0.00995
1928.65324	0.01010
1927.36747	0.01025
1926.08170	0.01029
1924.79593	0.01025
1923.51016	0.01023
1922.22440	0.01027
1920.93863	0.01035
1919.65286	0.01048
1918.36709	0.01070
1917.08132	0.01097
1915.79555	0.01119
1914.50978	0.01129
1913.22401	0.01125
1911.93825	0.01114
1910.65248	0.01106
1909.36671	0.01103
1908.08094	0.01103
1906.79517	0.01103
1905.50940	0.01108
1904.22363	0.01124
1902.93786	0.01148
1901.65209	0.01164
1900.36633	0.01158
1899.08056	0.01131
1897.79479	0.01095
1896.50902	0.01067
1895.22325	0.01055
1893.93748	0.01058
1892.65171	0.01068
1891.36594	0.01074
1890.08018	0.01071
1888.79441	0.01061
1887.50864	0.01052
1886.22287	0.01048
1884.93710	0.01044
1883.65133	0.01032
1882.36556	0.01013
1881.07979	0.00999
1879.79402	0.01007
1878.50826	0.01034
1877.22249	0.01062
1875.93672	0.01076
1874.65095	0.01075
1873.36518	0.01073
1872.07941	0.01079
1870.79364	0.01089
1869.50787	0.01093
1868.22211	0.01086
1866.93634	0.01073
1865.65057	0.01058
1864.36480	0.01045
1863.07903	0.01036
1861.79326	0.01037
1860.50749	0.01050
1859.22172	0.01069
1857.93595	0.01085
1856.65019	0.01094
1855.36442	0.01094
1854.07865	0.01085
1852.79288	0.01067
1851.50711	0.01046
1850.22134	0.01030
1848.93557	0.01024
1847.64980	0.01025
1846.36404	0.01023
1845.07827	0.01017
1843.79250	0.01013
1842.50673	0.01019
1841.22096	0.01035
1839.93519	0.01052
1838.64942	0.01060
1837.36365	0.01057
1836.07788	0.01052
1834.79212	0.01056
1833.50635	0.01070
1832.22058	0.01090
1830.93481	0.01109
1829.64904	0.01126
1828.36327	0.01145
1827.07750	0.01170
1825.79173	0.01195
1824.50597	0.01212
1823.22020	0.01216
1821.93443	0.01210
1820.64866	0.01199
1819.36289	0.01186
1818.07712	0.01165
1816.79135	0.01137
1815.50558	0.01107
1814.21981	0.01085
1812.93405	0.01072
1811.64828	0.01065
1810.36251	0.01063
1809.07674	0.01067
1807.79097	0.01080
1806.50520	0.01094
1805.21943	0.01102
1803.93366	0.01102
1802.64790	0.01100
1801.36213	0.01105
1800.07636	0.01118
1798.79059	0.01134
1797.50482	0.01147
1796.21905	0.01157
1794.93328	0.01165
1793.64751	0.01169
1792.36174	0.01172
1791.07598	0.01177
1789.79021	0.01188
1788.50444	0.01200
1787.21867	0.01205
1785.93290	0.01201
1784.64713	0.01193
1783.36136	0.01189
1782.07559	0.01191
1780.78983	0.01196
1779.50406	0.01204
1778.21829	0.01215
1776.93252	0.01229
1775.64675	0.01245
1774.36098	0.01264
1773.07521	0.01280
1771.78944	0.01284
1770.50367	0.01275
1769.21791	0.01257
1767.93214	0.01245
1766.64637	0.01245
1765.36060	0.01257
1764.07483	0.01276
1762.78906	0.01294
1761.50329	0.01307
1760.21752	0.01310
1758.93176	0.01308
1757.64599	0.01307
1756.36022	0.01311
1755.07445	0.01318
1753.78868	0.01325
1752.50291	0.01328
1751.21714	0.01327
1749.93137	0.01322
1748.64560	0.01314
1747.35984	0.01307
1746.07407	0.01308
1744.78830	0.01318
1743.50253	0.01335
1742.21676	0.01352
1740.93099	0.01366
1739.64522	0.01375
1738.35945	0.01383
1737.07369	0.01392
1735.78792	0.01397
1734.50215	0.01397
1733.21638	0.01393
1731.93061	0.01389
1730.64484	0.01392
1729.35907	0.01404
1728.07330	0.01423
1726.78753	0.01443
1725.50177	0.01458
1724.21600	0.01467
1722.93023	0.01474
1721.64446	0.01487
1720.35869	0.01508
1719.07292	0.01536
1717.78715	0.01565
1716.50138	0.01590
1715.21561	0.01611
1713.92985	0.01631
1712.64408	0.01652
1711.35831	0.01674
1710.07254	0.01697
1708.78677	0.01723
1707.50100	0.01752
1706.21523	0.01782
1704.92946	0.01811
1703.64370	0.01842
1702.35793	0.01878
1701.07216	0.01914
1699.78639	0.01948
1698.50062	0.01976
1697.21485	0.02002
1695.92908	0.02026
1694.64331	0.02048
1693.35754	0.02065
1692.07178	0.02079
1690.78601	0.02097
1689.50024	0.02122
1688.21447	0.02157
1686.92870	0.02199
1685.64293	0.02241
1684.35716	0.02275
1683.07139	0.02297
1681.78563	0.02310
1680.49986	0.02327
1679.21409	0.02356
1677.92832	0.02399
1676.64255	0.02448
1675.35678	0.02492
1674.07101	0.02525
1672.78524	0.02549
1671.49947	0.02571
1670.21371	0.02597
1668.92794	0.02627
1667.64217	0.02658
1666.35640	0.02693
1665.07063	0.02731
1663.78486	0.02769
1662.49909	0.02803
1661.21332	0.02830
1659.92756	0.02853
1658.64179	0.02878
1657.35602	0.02907
1656.07025	0.02944
1654.78448	0.02983
1653.49871	0.03015
1652.21294	0.03030
1650.92717	0.03033
1649.64140	0.03036
1648.35564	0.03050
1647.06987	0.03072
1645.78410	0.03090
1644.49833	0.03095
1643.21256	0.03088
1641.92679	0.03081
1640.64102	0.03084
1639.35525	0.03102
1638.06949	0.03129
1636.78372	0.03149
1635.49795	0.03153
1634.21218	0.03143
1632.92641	0.03132
1631.64064	0.03131
1630.35487	0.03141
1629.06910	0.03155
1627.78333	0.03167
1626.49757	0.03181
1625.21180	0.03196
1623.92603	0.03210
1622.64026	0.03221
1621.35449	0.03231
1620.06872	0.03244
1618.78295	0.03265
1617.49718	0.03289
1616.21142	0.03310
1614.92565	0.03323
1613.63988	0.03331
1612.35411	0.03340
1611.06834	0.03350
1609.78257	0.03360
1608.49680	0.03372
1607.21103	0.03387
1605.92526	0.03407
1604.63950	0.03431
1603.35373	0.03455
1602.06796	0.03476
1600.78219	0.03495
1599.49642	0.03511
1598.21065	0.03527
1596.92488	0.03545
1595.63911	0.03568
1594.35335	0.03596
1593.06758	0.03624
1591.78181	0.03647
1590.49604	0.03664
1589.21027	0.03680
1587.92450	0.03698
1586.63873	0.03717
1585.35296	0.03734
1584.06719	0.03750
1582.78143	0.03769
1581.49566	0.03795
1580.20989	0.03827
1578.92412	0.03862
1577.63835	0.03892
1576.35258	0.03915
1575.06681	0.03932
1573.78104	0.03949
1572.49528	0.03970
1571.20951	0.03991
1569.92374	0.04009
1568.63797	0.04022
1567.35220	0.04035
1566.06643	0.04052
1564.78066	0.04073
1563.49489	0.04098
1562.20912	0.04128
1560.92336	0.04164
1559.63759	0.04196
1558.35182	0.04216
1557.06605	0.04220
1555.78028	0.04217
1554.49451	0.04219
1553.20874	0.04230
1551.92297	0.04245
1550.63721	0.04259
1549.35144	0.04267
1548.06567	0.04270
1546.77990	0.04272
1545.49413	0.04276
1544.20836	0.04285
1542.92259	0.04297
1541.63682	0.04308
1540.35105	0.04311
1539.06529	0.04303
1537.77952	0.04291
1536.49375	0.04285
1535.20798	0.04292
1533.92221	0.04308
1532.63644	0.04330
1531.35067	0.04357
1530.06490	0.04393
1528.77914	0.04440
1527.49337	0.04497
1526.20760	0.04561
1524.92183	0.04630
1523.63606	0.04705
1522.35029	0.04782
1521.06452	0.04857
1519.77875	0.04930
1518.49298	0.05005
1517.20722	0.05086
1515.92145	0.05177
1514.63568	0.05279
1513.34991	0.05392
1512.06414	0.05517
1510.77837	0.05653
1509.49260	0.05798
1508.20683	0.05947
1506.92107	0.06090
1505.63530	0.06215
1504.34953	0.06319
1503.06376	0.06408
1501.77799	0.06493
1500.49222	0.06579
1499.20645	0.06664
1497.92068	0.06748
1496.63491	0.06827
1495.34915	0.06900
1494.06338	0.06967
1492.77761	0.07034
1491.49184	0.07104
1490.20607	0.07175
1488.92030	0.07246
1487.63453	0.07317
1486.34876	0.07392
1485.06299	0.07473
1483.77723	0.07559
1482.49146	0.07649
1481.20569	0.07741
1479.91992	0.07839
1478.63415	0.07941
1477.34838	0.08042
1476.06261	0.08134
1474.77684	0.08209
1473.49108	0.08268
1472.20531	0.08311
1470.91954	0.08343
1469.63377	0.08368
1468.34800	0.08392
1467.06223	0.08417
1465.77646	0.08442
1464.49069	0.08465
1463.20492	0.08485
1461.91916	0.08511
1460.63339	0.08551
1459.34762	0.08606
1458.06185	0.08669
1456.77608	0.08729
1455.49031	0.08782
1454.20454	0.08831
1452.91877	0.08878
1451.63301	0.08923
1450.34724	0.08961
1449.06147	0.08989
1447.77570	0.09010
1446.48993	0.09022
1445.20416	0.09025
1443.91839	0.09017
1442.63262	0.09002
1441.34685	0.08988
1440.06109	0.08980
1438.77532	0.08975
1437.48955	0.08973
1436.20378	0.08975
1434.91801	0.08990
1433.63224	0.09029
1432.34647	0.09096
1431.06070	0.09188
1429.77494	0.09297
1428.48917	0.09418
1427.20340	0.09543
1425.91763	0.09669
1424.63186	0.09797
1423.34609	0.09928
1422.06032	0.10059
1420.77455	0.10186
1419.48878	0.10301
1418.20302	0.10397
1416.91725	0.10468
1415.63148	0.10513
1414.34571	0.10534
1413.05994	0.10539
1411.77417	0.10531
1410.48840	0.10508
1409.20263	0.10462
1407.91687	0.10390
1406.63110	0.10292
1405.34533	0.10173
1404.05956	0.10035
1402.77379	0.09879
1401.48802	0.09709
1400.20225	0.09525
1398.91648	0.09332
1397.63071	0.09134
1396.34495	0.08935
1395.05918	0.08735
1393.77341	0.08533
1392.48764	0.08325
1391.20187	0.08114
1389.91610	0.07902
1388.63033	0.07691
1387.34456	0.07482
1386.05880	0.07277
1384.77303	0.07077
1383.48726	0.06881
1382.20149	0.06684
1380.91572	0.06483
1379.62995	0.06278
1378.34418	0.06071
1377.05841	0.05863
1375.77264	0.05656
1374.48688	0.05450
1373.20111	0.05249
1371.91534	0.05056
1370.62957	0.04873
1369.34380	0.04702
1368.05803	0.04542
1366.77226	0.04392
1365.48649	0.04254
1364.20073	0.04128
1362.91496	0.04006
1361.62919	0.03885
1360.34342	0.03764
1359.05765	0.03649
1357.77188	0.03546
1356.48611	0.03454
1355.20034	0.03372
1353.91457	0.03294
1352.62881	0.03219
1351.34304	0.03142
1350.05727	0.03065
1348.77150	0.02990
1347.48573	0.02921
1346.19996	0.02860
1344.91419	0.02804
1343.62842	0.02750
1342.34266	0.02700
1341.05689	0.02653
1339.77112	0.02611
1338.48535	0.02573
1337.19958	0.02537
1335.91381	0.02502
1334.62804	0.02469
1333.34227	0.02438
1332.05650	0.02407
1330.77074	0.02375
1329.48497	0.02343
1328.19920	0.02314
1326.91343	0.02291
1325.62766	0.02276
1324.34189	0.02263
1323.05612	0.02249
1321.77035	0.02231
1320.48459	0.02209
1319.19882	0.02186
1317.91305	0.02161
1316.62728	0.02137
1315.34151	0.02115
1314.05574	0.02097
1312.76997	0.02081
1311.48420	0.02062
1310.19843	0.02041
1308.91267	0.02019
1307.62690	0.01999
1306.34113	0.01982
1305.05536	0.01966
1303.76959	0.01950
1302.48382	0.01934
1301.19805	0.01917
1299.91228	0.01899
1298.62652	0.01883
1297.34075	0.01869
1296.05498	0.01857
1294.76921	0.01846
1293.48344	0.01835
1292.19767	0.01827
1290.91190	0.01822
1289.62613	0.01815
1288.34036	0.01803
1287.05460	0.01785
1285.76883	0.01765
1284.48306	0.01749
1283.19729	0.01737
1281.91152	0.01731
1280.62575	0.01726
1279.33998	0.01721
1278.05421	0.01715
1276.76845	0.01712
1275.48268	0.01708
1274.19691	0.01701
1272.91114	0.01687
1271.62537	0.01666
1270.33960	0.01645
1269.05383	0.01630
1267.76806	0.01624
1266.48229	0.01625
1265.19653	0.01628
1263.91076	0.01627
1262.62499	0.01621
1261.33922	0.01611
1260.05345	0.01602
1258.76768	0.01595
1257.48191	0.01590
1256.19614	0.01586
1254.91037	0.01583
1253.62461	0.01583
1252.33884	0.01582
1251.05307	0.01577
1249.76730	0.01568
1248.48153	0.01556
1247.19576	0.01547
1245.90999	0.01546
1244.62422	0.01548
1243.33846	0.01548
1242.05269	0.01542
1240.76692	0.01533
1239.48115	0.01525
1238.19538	0.01521
1236.90961	0.01521
1235.62384	0.01520
1234.33807	0.01517
1233.05230	0.01513
1231.76654	0.01507
1230.48077	0.01499
1229.19500	0.01489
1227.90923	0.01477
1226.62346	0.01468
1225.33769	0.01464
1224.05192	0.01465
1222.76615	0.01469
1221.48039	0.01471
1220.19462	0.01472
1218.90885	0.01470
1217.62308	0.01466
1216.33731	0.01464
1215.05154	0.01463
1213.76577	0.01465
1212.48000	0.01467
1211.19423	0.01467
1209.90847	0.01465
1208.62270	0.01462
1207.33693	0.01459
1206.05116	0.01455
1204.76539	0.01452
1203.47962	0.01453
1202.19385	0.01458
1200.90808	0.01460
1199.62232	0.01454
1198.33655	0.01463
1197.05078	0.01472
1195.76501	0.01476
1194.47924	0.01476
1193.19347	0.01477
1191.90770	0.01479
1190.62193	0.01482
1189.33616	0.01481
1188.05040	0.01476
1186.76463	0.01468
1185.47886	0.01463
1184.19309	0.01467
1182.90732	0.01477
1181.62155	0.01487
1180.33578	0.01495
1179.05001	0.01502
1177.76425	0.01514
1176.47848	0.01529
1175.19271	0.01544
1173.90694	0.01557
1172.62117	0.01567
1171.33540	0.01576
1170.04963	0.01584
1168.76386	0.01595
1167.47809	0.01610
1166.19233	0.01630
1164.90656	0.01651
1163.62079	0.01671
1162.33502	0.01693
1161.04925	0.01719
1159.76348	0.01749
1158.47771	0.01780
1157.19194	0.01815
1155.90618	0.01853
1154.62041	0.01891
1153.33464	0.01928
1152.04887	0.01967
1150.76310	0.02012
1149.47733	0.02061
1148.19156	0.02116
1146.90579	0.02179
1145.62002	0.02255
1144.33426	0.02345
1143.04849	0.02441
1141.76272	0.02539
1140.47695	0.02638
1139.19118	0.02746
1137.90541	0.02870
1136.61964	0.03012
1135.33387	0.03168
1134.04811	0.03337
1132.76234	0.03524
1131.47657	0.03735
1130.19080	0.03970
1128.90503	0.04224
1127.61926	0.04491
1126.33349	0.04772
1125.04772	0.05071
1123.76195	0.05388
1122.47619	0.05726
1121.19042	0.06078
1119.90465	0.06438
1118.61888	0.06798
1117.33311	0.07154
1116.04734	0.07510
1114.76157	0.07869
1113.47580	0.08234
1112.19004	0.08602
1110.90427	0.08967
1109.61850	0.09325
1108.33273	0.09677
1107.04696	0.10020
1105.76119	0.10351
1104.47542	0.10669
1103.18965	0.10981
1101.90388	0.11295
1100.61812	0.11614
1099.33235	0.11933
1098.04658	0.12242
1096.76081	0.12532
1095.47504	0.12803
1094.18927	0.13058
1092.90350	0.13300
1091.61773	0.13531
1090.33197	0.13756
1089.04620	0.13977
1087.76043	0.14198
1086.47466	0.14417
1085.18889	0.14634
1083.90312	0.14854
1082.61735	0.15081
1081.33158	0.15324
1080.04581	0.15584
1078.76005	0.15860
1077.47428	0.16151
1076.18851	0.16457
1074.90274	0.16781
1073.61697	0.17125
1072.33120	0.17490
1071.04543	0.17871
1069.75966	0.18257
1068.47390	0.18638
1067.18813	0.19019
1065.90236	0.19408
1064.61659	0.19809
1063.33082	0.20218
1062.04505	0.20628
1060.75928	0.21035
1059.47351	0.21440
1058.18774	0.21842
1056.90198	0.22237
1055.61621	0.22623
1054.33044	0.22999
1053.04467	0.23367
1051.75890	0.23738
1050.47313	0.24117
1049.18736	0.24509
1047.90159	0.24911
1046.61583	0.25320
1045.33006	0.25736
1044.04429	0.26160
1042.75852	0.26593
1041.47275	0.27031
1040.18698	0.27468
1038.90121	0.27904
1037.61544	0.28346
1036.32967	0.28802
1035.04391	0.29269
1033.75814	0.29723
1032.47237	0.30141
1031.18660	0.30510
1029.90083	0.30829
1028.61506	0.31106
1027.32929	0.31345
1026.04352	0.31544
1024.75775	0.31701
1023.47199	0.31813
1022.18622	0.31874
1020.90045	0.31881
1019.61468	0.31830
1018.32891	0.31720
1017.04314	0.31550
1015.75737	0.31315
1014.47160	0.31009
1013.18584	0.30628
1011.90007	0.30176
1010.61430	0.29657
1009.32853	0.29071
1008.04276	0.28419
1006.75699	0.27704
1005.47122	0.26936
1004.18545	0.26124
1002.89968	0.25275
1001.61392	0.24392
1000.32815	0.23478
999.04238	0.22541
997.75661	0.21593
996.47084	0.20641
995.18507	0.19694
993.89930	0.18756
992.61353	0.17838
991.32777	0.16951
990.04200	0.16106
988.75623	0.15304
987.47046	0.14541
986.18469	0.13816
984.89892	0.13134
983.61315	0.12499
982.32738	0.11907
981.04161	0.11354
979.75585	0.10840
978.47008	0.10369
977.18431	0.09949
975.89854	0.09584
974.61277	0.09280
973.32700	0.09040
972.04123	0.08864
970.75546	0.08748
969.46970	0.08689
968.18393	0.08688
966.89816	0.08747
965.61239	0.08853
964.32662	0.08981
963.04085	0.09098
961.75508	0.09176
960.46931	0.09198
959.18354	0.09154
957.89778	0.09036
956.61201	0.08848
955.32624	0.08607
954.04047	0.08338
952.75470	0.08061
951.46893	0.07782
950.18316	0.07503
948.89739	0.07233
947.61163	0.06981
946.32586	0.06748
945.04009	0.06527
943.75432	0.06311
942.46855	0.06102
941.18278	0.05901
939.89701	0.05710
938.61124	0.05534
937.32547	0.05375
936.03971	0.05229
934.75394	0.05092
933.46817	0.04964
932.18240	0.04848
930.89663	0.04747
929.61086	0.04660
928.32509	0.04580
927.03932	0.04503
925.75356	0.04426
924.46779	0.04348
923.18202	0.04271
921.89625	0.04198
920.61048	0.04137
919.32471	0.04091
918.03894	0.04054
916.75317	0.04019
915.46740	0.03980
914.18164	0.03940
912.89587	0.03903
911.61010	0.03870
910.32433	0.03844
909.03856	0.03819
907.75279	0.03791
906.46702	0.03756
905.18125	0.03719
903.89549	0.03689
902.60972	0.03667
901.32395	0.03652
900.03818	0.03640
898.75241	0.03629
897.46664	0.03620
896.18087	0.03617
894.89510	0.03624
893.60933	0.03638
892.32357	0.03656
891.03780	0.03673
889.75203	0.03696
888.46626	0.03736
887.18049	0.03811
885.89472	0.03944
884.60895	0.04154
883.32318	0.04442
882.03742	0.04777
880.75165	0.05101
879.46588	0.05369
878.18011	0.05566
876.89434	0.05716
875.60857	0.05849
874.32280	0.05978
873.03703	0.06087
871.75126	0.06142
870.46550	0.06118
869.17973	0.06010
867.89396	0.05832
866.60819	0.05604
865.32242	0.05349
864.03665	0.05087
862.75088	0.04837
861.46511	0.04609
860.17935	0.04409
858.89358	0.04238
857.60781	0.04096
856.32204	0.03977
855.03627	0.03878
853.75050	0.03798
852.46473	0.03737
851.17896	0.03691
849.89319	0.03652
848.60743	0.03614
847.32166	0.03576
846.03589	0.03544
844.75012	0.03516
843.46435	0.03489
842.17858	0.03460
840.89281	0.03431
839.60704	0.03405
838.32128	0.03382
837.03551	0.03358
835.74974	0.03331
834.46397	0.03303
833.17820	0.03278
831.89243	0.03261
830.60666	0.03252
829.32089	0.03247
828.03512	0.03239
826.74936	0.03227
825.46359	0.03216
824.17782	0.03214
822.89205	0.03216
821.60628	0.03214
820.32051	0.03202
819.03474	0.03188
817.74897	0.03181
816.46321	0.03183
815.17744	0.03184
813.89167	0.03177
812.60590	0.03167
811.32013	0.03162
810.03436	0.03162
808.74859	0.03163
807.46282	0.03157
806.17705	0.03146
804.89129	0.03130
803.60552	0.03115
802.31975	0.03109
801.03398	0.03114
799.74821	0.03125
798.46244	0.03136
797.17667	0.03146
795.89090	0.03156
794.60513	0.03163
793.31937	0.03160
792.03360	0.03147
790.74783	0.03130
789.46206	0.03121
788.17629	0.03124
786.89052	0.03132
785.60475	0.03139
784.31898	0.03143
783.03322	0.03149
781.74745	0.03156
780.46168	0.03159
779.17591	0.03155
777.89014	0.03142
776.60437	0.03126
775.31860	0.03115
774.03283	0.03112
772.74706	0.03115
771.46130	0.03120
770.17553	0.03118
768.88976	0.03108
767.60399	0.03093
766.31822	0.03084
765.03245	0.03085
763.74668	0.03093
762.46091	0.03103
761.17515	0.03114
759.88938	0.03127
758.60361	0.03141
757.31784	0.03151
756.03207	0.03154
754.74630	0.03152
753.46053	0.03152
752.17476	0.03157
750.88899	0.03163
749.60323	0.03164
748.31746	0.03157
747.03169	0.03147
745.74592	0.03142
744.46015	0.03143
743.17438	0.03147
741.88861	0.03146
740.60284	0.03138
739.31708	0.03125
738.03131	0.03113
736.74554	0.03108
735.45977	0.03108
734.17400	0.03111
732.88823	0.03118
731.60246	0.03128
730.31669	0.03141
729.03092	0.03153
727.74516	0.03165
726.45939	0.03177
725.17362	0.03189
723.88785	0.03199
722.60208	0.03202
721.31631	0.03199
720.03054	0.03196
718.74477	0.03196
717.45901	0.03198
716.17324	0.03199
714.88747	0.03197
713.60170	0.03193
712.31593	0.03190
711.03016	0.03192
709.74439	0.03196
708.45862	0.03200
707.17285	0.03198
705.88709	0.03190
704.60132	0.03180
703.31555	0.03173
702.02978	0.03174
700.74401	0.03183
699.45824	0.03195
698.17247	0.03205
696.88670	0.03212
695.60094	0.03220
694.31517	0.03229
693.02940	0.03237
691.74363	0.03240
690.45786	0.03238
689.17209	0.03233
687.88632	0.03231
686.60055	0.03229
685.31478	0.03228
684.02902	0.03225
682.74325	0.03219
681.45748	0.03211
680.17171	0.03202
678.88594	0.03196
677.60017	0.03195
676.31440	0.03201
675.02863	0.03208
673.74287	0.03214
672.45710	0.03221
671.17133	0.03235
669.88556	0.03252
668.59979	0.03259
667.31402	0.03258
666.02825	0.03270
664.74248	0.03264
663.45671	0.03251
662.17095	0.03234
660.88518	0.03214
659.59941	0.03195
658.31364	0.03184
657.02787	0.03179
655.74210	0.03177
654.45633	0.03177
653.17056	0.03180
651.88480	0.03191
650.59903	0.03205
649.31326	0.03217
648.02749	0.03221
646.74172	0.03220
645.45595	0.03224
644.17018	0.03240
642.88441	0.03269
641.59864	0.03304
640.31288	0.03339
639.02711	0.03373
637.74134	0.03408
636.45557	0.03447
635.16980	0.03494
633.88403	0.03548
632.59826	0.03606
631.31249	0.03677
630.02673	0.03820
628.74096	0.04009
627.45519	0.04016
626.16942	0.04255
624.88365	0.04656
623.59788	0.05059
622.31211	0.05419
621.02634	0.05754
619.74057	0.06093
618.45481	0.06428
617.16904	0.06711
615.88327	0.06901
614.59750	0.07022
613.31173	0.07189
612.02596	0.07538
610.74019	0.08094
609.45442	0.08728
608.16866	0.09315
606.88289	0.09866
605.59712	0.10444
604.31135	0.10992
603.02558	0.11353
601.73981	0.11429
600.45404	0.11274
599.16827	0.11006
597.88250	0.10705
596.59674	0.10390
595.31097	0.10070
594.02520	0.09765
592.73943	0.09511
591.45366	0.09330
590.16789	0.09229
588.88212	0.09200
587.59635	0.09237
586.31059	0.09334
585.02482	0.09491
583.73905	0.09709
582.45328	0.09975
581.16751	0.10264
579.88174	0.10557
578.59597	0.10851
577.31020	0.11157
576.02443	0.11482
574.73867	0.11821
573.45290	0.12166
572.16713	0.12515
570.88136	0.12878
569.59559	0.13268
568.30982	0.13692
567.02405	0.14144
565.73828	0.14600
564.45251	0.15008
563.16675	0.15305
561.88098	0.15430
560.59521	0.15344
559.30944	0.15037
558.02367	0.14531
556.73790	0.13870
555.45213	0.13114
554.16636	0.12324
552.88060	0.11551
551.59483	0.10824
550.30906	0.10149
549.02329	0.09522
547.73752	0.08948
546.45175	0.08432
545.16598	0.07973
543.88021	0.07560
542.59444	0.07188
541.30868	0.06859
540.02291	0.06577
538.73714	0.06336
537.45137	0.06116
536.16560	0.05902
534.87983	0.05691
533.59406	0.05488
532.30829	0.05302
531.02253	0.05134
529.73676	0.04979
528.45099	0.04835
527.16522	0.04707
525.87945	0.04599
524.59368	0.04511
523.30791	0.04432
522.02214	0.04350
520.73637	0.04261
519.45061	0.04169
518.16484	0.04080
516.87907	0.03994
515.59330	0.03907
514.30753	0.03816
513.02176	0.03723
511.73599	0.03645
510.45022	0.03593
509.16446	0.03569
507.87869	0.03554
506.59292	0.03532
505.30715	0.03490
504.02138	0.03431
502.73561	0.03364
501.44984	0.03300
500.16407	0.03253
498.87830	0.03222
497.59254	0.03200
496.30677	0.03175
495.02100	0.03140
493.73523	0.03099
492.44946	0.03058
491.16369	0.03022
489.87792	0.02992
488.59215	0.02968
487.30639	0.02950
486.02062	0.02941
484.73485	0.02943
483.44908	0.02956
482.16331	0.02977
480.87754	0.02996
479.59177	0.03010
478.30600	0.03020
477.02023	0.03032
475.73447	0.03051
474.44870	0.03075
473.16293	0.03103
471.87716	0.03127
470.59139	0.03139
469.30562	0.03134
468.01985	0.03114
466.73408	0.03086
465.44832	0.03057
464.16255	0.03029
462.87678	0.02999
461.59101	0.02967
460.30524	0.02934
459.01947	0.02897
457.73370	0.02855
456.44793	0.02813
455.16216	0.02775
453.87640	0.02745
452.59063	0.02719
451.30486	0.02694
450.01909	0.02670
448.73332	0.02649
447.44755	0.02633
446.16178	0.02620
444.87601	0.02607
443.59025	0.02595
442.30448	0.02586
441.01871	0.02581
439.73294	0.02577
438.44717	0.02572
437.16140	0.02568
435.87563	0.02562
434.58986	0.02555
433.30409	0.02550
432.01833	0.02547
430.73256	0.02547
429.44679	0.02547
428.16102	0.02544
426.87525	0.02539
425.58948	0.02532
424.30371	0.02525
423.01794	0.02516
421.73218	0.02505
420.44641	0.02492
419.16064	0.02477
417.87487	0.02463
416.58910	0.02453
415.30333	0.02449
414.01756	0.02447
412.73179	0.02448
411.44602	0.02451
410.16026	0.02456
408.87449	0.02463
407.58872	0.02469
406.30295	0.02475
405.01718	0.02481
403.73141	0.02489
402.44564	0.02501
401.15987	0.02516
399.87411	0.02533
