3997.45528	0.04018
3996.16951	0.04037
3994.88374	0.04062
3993.59798	0.04076
3992.31221	0.04065
3991.02644	0.04032
3989.74067	0.03995
3988.45490	0.03966
3987.16913	0.03944
3985.88336	0.03926
3984.59759	0.03915
3983.31183	0.03928
3982.02606	0.03971
3980.74029	0.04035
3979.45452	0.04099
3978.16875	0.04163
3976.88298	0.04240
3975.59721	0.04329
3974.31144	0.04392
3973.02567	0.04392
3971.73991	0.04337
3970.45414	0.04278
3969.16837	0.04256
3967.88260	0.04264
3966.59683	0.04250
3965.31106	0.04167
3964.02529	0.04026
3962.73952	0.03898
3961.45376	0.03868
3960.16799	0.03954
3958.88222	0.04091
3957.59645	0.04194
3956.31068	0.04226
3955.02491	0.04221
3953.73914	0.04226
3952.45337	0.04250
3951.16760	0.04266
3949.88184	0.04251
3948.59607	0.04206
3947.31030	0.04142
3946.02453	0.04068
3944.73876	0.04002
3943.45299	0.03971
3942.16722	0.03990
3940.88145	0.04042
3939.59569	0.04103
3938.30992	0.04157
3937.02415	0.04191
3935.73838	0.04182
3934.45261	0.04122
3933.16684	0.04036
3931.88107	0.03968
3930.59530	0.03939
3929.30953	0.03944
3928.02377	0.03973
3926.73800	0.04018
3925.45223	0.04067
3924.16646	0.04107
3922.88069	0.04123
3921.59492	0.04108
3920.30915	0.04062
3919.02338	0.03983
3917.73762	0.03888
3916.45185	0.03809
3915.16608	0.03775
3913.88031	0.03788
3912.59454	0.03830
3911.30877	0.03885
3910.02300	0.03932
3908.73723	0.03939
3907.45146	0.03880
3906.16570	0.03768
3904.87993	0.03669
3903.59416	0.03641
3902.30839	0.03676
3901.02262	0.03712
3899.73685	0.03720
3898.45108	0.03722
3897.16531	0.03740
3895.87955	0.03763
3894.59378	0.03773
3893.30801	0.03781
3892.02224	0.03822
3890.73647	0.03904
3889.45070	0.03968
3888.16493	0.03940
3886.87916	0.03840
3885.59339	0.03775
3884.30763	0.03817
3883.02186	0.03932
3881.73609	0.04041
3880.45032	0.04099
3879.16455	0.04100
3877.87878	0.04053
3876.59301	0.03990
3875.30724	0.03953
3874.02148	0.03955
3872.73571	0.03954
3871.44994	0.03911
3870.16417	0.03852
3868.87840	0.03819
3867.59263	0.03806
3866.30686	0.03791
3865.02109	0.03789
3863.73532	0.03806
3862.44956	0.03813
3861.16379	0.03792
3859.87802	0.03758
3858.59225	0.03732
3857.30648	0.03701
3856.02071	0.03663
3854.73494	0.03660
3853.44917	0.03742
3852.16341	0.03874
3850.87764	0.03963
3849.59187	0.03969
3848.30610	0.03933
3847.02033	0.03902
3845.73456	0.03895
3844.44879	0.03910
3843.16302	0.03924
3841.87725	0.03893
3840.59149	0.03787
3839.30572	0.03643
3838.01995	0.03550
3836.73418	0.03564
3835.44841	0.03660
3834.16264	0.03777
3832.87687	0.03877
3831.59110	0.03941
3830.30534	0.03944
3829.01957	0.03880
3827.73380	0.03786
3826.44803	0.03717
3825.16226	0.03692
3823.87649	0.03676
3822.59072	0.03653
3821.30495	0.03664
3820.01918	0.03723
3818.73342	0.03773
3817.44765	0.03778
3816.16188	0.03796
3814.87611	0.03867
3813.59034	0.03926
3812.30457	0.03894
3811.01880	0.03778
3809.73303	0.03635
3808.44726	0.03525
3807.16150	0.03511
3805.87573	0.03597
3804.58996	0.03689
3803.30419	0.03700
3802.01842	0.03672
3800.73265	0.03711
3799.44688	0.03822
3798.16111	0.03915
3796.87535	0.03935
3795.58958	0.03905
3794.30381	0.03856
3793.01804	0.03804
3791.73227	0.03756
3790.44650	0.03712
3789.16073	0.03667
3787.87496	0.03623
3786.58919	0.03589
3785.30343	0.03571
3784.01766	0.03568
3782.73189	0.03579
3781.44612	0.03606
3780.16035	0.03664
3778.87458	0.03745
3777.58881	0.03811
3776.30304	0.03823
3775.01728	0.03794
3773.73151	0.03762
3772.44574	0.03747
3771.15997	0.03740
3769.87420	0.03733
3768.58843	0.03716
3767.30266	0.03678
3766.01689	0.03634
3764.73112	0.03607
3763.44536	0.03599
3762.15959	0.03597
3760.87382	0.03610
3759.58805	0.03658
3758.30228	0.03731
3757.01651	0.03797
3755.73074	0.03815
3754.44497	0.03769
3753.15921	0.03694
3751.87344	0.03658
3750.58767	0.03697
3749.30190	0.03780
3748.01613	0.03827
3746.73036	0.03760
3745.44459	0.03619
3744.15882	0.03541
3742.87305	0.03578
3741.58729	0.03637
3740.30152	0.03635
3739.01575	0.03587
3737.72998	0.03543
3736.44421	0.03540
3735.15844	0.03565
3733.87267	0.03575
3732.58690	0.03554
3731.30114	0.03531
3730.01537	0.03523
3728.72960	0.03513
3727.44383	0.03497
3726.15806	0.03496
3724.87229	0.03509
3723.58652	0.03501
3722.30075	0.03453
3721.01498	0.03383
3719.72922	0.03336
3718.44345	0.03355
3717.15768	0.03441
3715.87191	0.03540
3714.58614	0.03601
3713.30037	0.03623
3712.01460	0.03633
3710.72883	0.03637
3709.44307	0.03614
3708.15730	0.03561
3706.87153	0.03497
3705.58576	0.03435
3704.29999	0.03387
3703.01422	0.03366
3701.72845	0.03380
3700.44268	0.03415
3699.15691	0.03447
3697.87115	0.03477
3696.58538	0.03519
3695.29961	0.03563
3694.01384	0.03581
3692.72807	0.03566
3691.44230	0.03534
3690.15653	0.03505
3688.87076	0.03501
3687.58500	0.03540
3686.29923	0.03608
3685.01346	0.03669
3683.72769	0.03708
3682.44192	0.03734
3681.15615	0.03758
3679.87038	0.03778
3678.58461	0.03768
3677.29884	0.03729
3676.01308	0.03724
3674.72731	0.03791
3673.44154	0.03846
3672.15577	0.03778
3670.87000	0.03624
3669.58423	0.03526
3668.29846	0.03541
3667.01269	0.03612
3665.72693	0.03672
3664.44116	0.03701
3663.15539	0.03709
3661.86962	0.03703
3660.58385	0.03692
3659.29808	0.03690
3658.01231	0.03714
3656.72654	0.03785
3655.44077	0.03901
3654.15501	0.04016
3652.86924	0.04076
3651.58347	0.04070
3650.29770	0.04037
3649.01193	0.04020
3647.72616	0.04040
3646.44039	0.04093
3645.15462	0.04147
3643.86886	0.04165
3642.58309	0.04132
3641.29732	0.04081
3640.01155	0.04073
3638.72578	0.04145
3637.44001	0.04280
3636.15424	0.04423
3634.86847	0.04531
3633.58270	0.04593
3632.29694	0.04610
3631.01117	0.04585
3629.72540	0.04559
3628.43963	0.04587
3627.15386	0.04670
3625.86809	0.04762
3624.58232	0.04835
3623.29655	0.04886
3622.01079	0.04905
3620.72502	0.04888
3619.43925	0.04863
3618.15348	0.04857
3616.86771	0.04867
3615.58194	0.04885
3614.29617	0.04921
3613.01040	0.04983
3611.72463	0.05047
3610.43887	0.05083
3609.15310	0.05096
3607.86733	0.05119
3606.58156	0.05172
3605.29579	0.05252
3604.01002	0.05347
3602.72425	0.05451
3601.43848	0.05548
3600.15272	0.05623
3598.86695	0.05661
3597.58118	0.05661
3596.29541	0.05645
3595.00964	0.05644
3593.72387	0.05672
3592.43810	0.05717
3591.15233	0.05743
3589.86656	0.05742
3588.58080	0.05746
3587.29503	0.05787
3586.00926	0.05845
3584.72349	0.05887
3583.43772	0.05917
3582.15195	0.05970
3580.86618	0.06055
3579.58041	0.06144
3578.29464	0.06206
3577.00888	0.06233
3575.72311	0.06230
3574.43734	0.06203
3573.15157	0.06172
3571.86580	0.06176
3570.58003	0.06237
3569.29426	0.06336
3568.00849	0.06428
3566.72273	0.06481
3565.43696	0.06512
3564.15119	0.06563
3562.86542	0.06661
3561.57965	0.06790
3560.29388	0.06905
3559.00811	0.06971
3557.72234	0.06984
3556.43657	0.06963
3555.15081	0.06931
3553.86504	0.06901
3552.57927	0.06889
3551.29350	0.06913
3550.00773	0.06976
3548.72196	0.07054
3547.43619	0.07109
3546.15042	0.07114
3544.86466	0.07071
3543.57889	0.07016
3542.29312	0.06995
3541.00735	0.07033
3539.72158	0.07117
3538.43581	0.07213
3537.15004	0.07304
3535.86427	0.07392
3534.57850	0.07470
3533.29274	0.07519
3532.00697	0.07530
3530.72120	0.07522
3529.43543	0.07536
3528.14966	0.07595
3526.86389	0.07682
3525.57812	0.07753
3524.29235	0.07785
3523.00659	0.07791
3521.72082	0.07801
3520.43505	0.07820
3519.14928	0.07839
3517.86351	0.07853
3516.57774	0.07879
3515.29197	0.07941
3514.00620	0.08044
3512.72043	0.08164
3511.43467	0.08258
3510.14890	0.08291
3508.86313	0.08263
3507.57736	0.08209
3506.29159	0.08181
3505.00582	0.08209
3503.72005	0.08280
3502.43428	0.08353
3501.14852	0.08396
3499.86275	0.08411
3498.57698	0.08423
3497.29121	0.08457
3496.00544	0.08521
3494.71967	0.08596
3493.43390	0.08652
3492.14813	0.08665
3490.86236	0.08637
3489.57660	0.08596
3488.29083	0.08572
3487.00506	0.08572
3485.71929	0.08590
3484.43352	0.08621
3483.14775	0.08676
3481.86198	0.08749
3480.57621	0.08810
3479.29045	0.08830
3478.00468	0.08814
3476.71891	0.08802
3475.43314	0.08827
3474.14737	0.08882
3472.86160	0.08939
3471.57583	0.08985
3470.29006	0.09030
3469.00429	0.09087
3467.71853	0.09144
3466.43276	0.09175
3465.14699	0.09167
3463.86122	0.09138
3462.57545	0.09126
3461.28968	0.09141
3460.00391	0.09160
3458.71814	0.09159
3457.43238	0.09151
3456.14661	0.09170
3454.86084	0.09231
3453.57507	0.09317
3452.28930	0.09396
3451.00353	0.09451
3449.71776	0.09477
3448.43199	0.09468
3447.14622	0.09425
3445.86046	0.09369
3444.57469	0.09347
3443.28892	0.09400
3442.00315	0.09514
3440.71738	0.09623
3439.43161	0.09666
3438.14584	0.09634
3436.86007	0.09576
3435.57431	0.09542
3434.28854	0.09546
3433.00277	0.09568
3431.71700	0.09582
3430.43123	0.09584
3429.14546	0.09592
3427.85969	0.09623
3426.57392	0.09676
3425.28815	0.09734
3424.00239	0.09780
3422.71662	0.09804
3421.43085	0.09809
3420.14508	0.09810
3418.85931	0.09817
3417.57354	0.09829
3416.28777	0.09843
3415.00200	0.09857
3413.71624	0.09876
3412.43047	0.09903
3411.14470	0.09932
3409.85893	0.09949
3408.57316	0.09950
3407.28739	0.09951
3406.00162	0.09976
3404.71585	0.10027
3403.43008	0.10076
3402.14432	0.10086
3400.85855	0.10048
3399.57278	0.09981
3398.28701	0.09922
3397.00124	0.09899
3395.71547	0.09924
3394.42970	0.09993
3393.14393	0.10086
3391.85817	0.10180
3390.57240	0.10245
3389.28663	0.10262
3388.00086	0.10238
3386.71509	0.10198
3385.42932	0.10166
3384.14355	0.10145
3382.85778	0.10125
3381.57201	0.10102
3380.28625	0.10082
3379.00048	0.10075
3377.71471	0.10087
3376.42894	0.10112
3375.14317	0.10142
3373.85740	0.10169
3372.57163	0.10187
3371.28586	0.10190
3370.00010	0.10180
3368.71433	0.10165
3367.42856	0.10161
3366.14279	0.10173
3364.85702	0.10184
3363.57125	0.10169
3362.28548	0.10126
3360.99971	0.10076
3359.71394	0.10040
3358.42818	0.10028
3357.14241	0.10036
3355.85664	0.10061
3354.57087	0.10093
3353.28510	0.10116
3351.99933	0.10128
3350.71356	0.10138
3349.42779	0.10149
3348.14202	0.10145
3346.85626	0.10112
3345.57049	0.10061
3344.28472	0.10021
3342.99895	0.10013
3341.71318	0.10031
3340.42741	0.10054
3339.14164	0.10062
3337.85587	0.10050
3336.57011	0.10025
3335.28434	0.10007
3333.99857	0.10005
3332.71280	0.10008
3331.42703	0.09995
3330.14126	0.09960
3328.85549	0.09918
3327.56972	0.09892
3326.28395	0.09895
3324.99819	0.09925
3323.71242	0.09971
3322.42665	0.10022
3321.14088	0.10061
3319.85511	0.10075
3318.56934	0.10058
3317.28357	0.10014
3315.99780	0.09952
3314.71204	0.09884
3313.42627	0.09829
3312.14050	0.09809
3310.85473	0.09826
3309.56896	0.09857
3308.28319	0.09868
3306.99742	0.09848
3305.71165	0.09812
3304.42588	0.09774
3303.14012	0.09731
3301.85435	0.09681
3300.56858	0.09640
3299.28281	0.09628
3297.99704	0.09651
3296.71127	0.09687
3295.42550	0.09714
3294.13973	0.09725
3292.85397	0.09721
3291.56820	0.09708
3290.28243	0.09683
3288.99666	0.09639
3287.71089	0.09572
3286.42512	0.09497
3285.13935	0.09450
3283.85358	0.09458
3282.56781	0.09508
3281.28205	0.09552
3279.99628	0.09557
3278.71051	0.09530
3277.42474	0.09501
3276.13897	0.09492
3274.85320	0.09504
3273.56743	0.09528
3272.28166	0.09548
3270.99590	0.09558
3269.71013	0.09563
3268.42436	0.09566
3267.13859	0.09568
3265.85282	0.09562
3264.56705	0.09542
3263.28128	0.09510
3261.99551	0.09471
3260.70974	0.09437
3259.42398	0.09428
3258.13821	0.09454
3256.85244	0.09505
3255.56667	0.09544
3254.28090	0.09536
3252.99513	0.09473
3251.70936	0.09382
3250.42359	0.09307
3249.13783	0.09268
3247.85206	0.09258
3246.56629	0.09259
3245.28052	0.09268
3243.99475	0.09282
3242.70898	0.09285
3241.42321	0.09263
3240.13744	0.09218
3238.85167	0.09173
3237.56591	0.09147
3236.28014	0.09140
3234.99437	0.09142
3233.70860	0.09146
3232.42283	0.09152
3231.13706	0.09158
3229.85129	0.09161
3228.56552	0.09153
3227.27976	0.09134
3225.99399	0.09107
3224.70822	0.09073
3223.42245	0.09035
3222.13668	0.08993
3220.85091	0.08955
3219.56514	0.08928
3218.27937	0.08914
3216.99360	0.08906
3215.70784	0.08897
3214.42207	0.08886
3213.13630	0.08879
3211.85053	0.08879
3210.56476	0.08877
3209.27899	0.08856
3207.99322	0.08809
3206.70745	0.08750
3205.42169	0.08712
3204.13592	0.08714
3202.85015	0.08736
3201.56438	0.08740
3200.27861	0.08719
3198.99284	0.08699
3197.70707	0.08703
3196.42130	0.08722
3195.13553	0.08729
3193.84977	0.08708
3192.56400	0.08674
3191.27823	0.08647
3189.99246	0.08633
3188.70669	0.08621
3187.42092	0.08594
3186.13515	0.08543
3184.84938	0.08472
3183.56362	0.08401
3182.27785	0.08362
3180.99208	0.08371
3179.70631	0.08409
3178.42054	0.08434
3177.13477	0.08416
3175.84900	0.08365
3174.56323	0.08316
3173.27746	0.08293
3171.99170	0.08296
3170.70593	0.08314
3169.42016	0.08340
3168.13439	0.08372
3166.84862	0.08407
3165.56285	0.08429
3164.27708	0.08420
3162.99131	0.08366
3161.70555	0.08278
3160.41978	0.08187
3159.13401	0.08124
3157.84824	0.08103
3156.56247	0.08110
3155.27670	0.08124
3153.99093	0.08130
3152.70516	0.08122
3151.41939	0.08091
3150.13363	0.08038
3148.84786	0.07976
3147.56209	0.07928
3146.27632	0.07900
3144.99055	0.07886
3143.70478	0.07873
3142.41901	0.07857
3141.13324	0.07837
3139.84748	0.07818
3138.56171	0.07798
3137.27594	0.07777
3135.99017	0.07758
3134.70440	0.07752
3133.41863	0.07754
3132.13286	0.07748
3130.84709	0.07721
3129.56132	0.07683
3128.27556	0.07653
3126.98979	0.07635
3125.70402	0.07614
3124.41825	0.07588
3123.13248	0.07573
3121.84671	0.07582
3120.56094	0.07601
3119.27517	0.07608
3117.98940	0.07591
3116.70364	0.07555
3115.41787	0.07511
3114.13210	0.07468
3112.84633	0.07439
3111.56056	0.07429
3110.27479	0.07431
3108.98902	0.07425
3107.70325	0.07397
3106.41749	0.07354
3105.13172	0.07310
3103.84595	0.07280
3102.56018	0.07267
3101.27441	0.07271
3099.98864	0.07286
3098.70287	0.07308
3097.41710	0.07322
3096.13133	0.07320
3094.84557	0.07303
3093.55980	0.07282
3092.27403	0.07257
3090.98826	0.07224
3089.70249	0.07189
3088.41672	0.07170
3087.13095	0.07178
3085.84518	0.07200
3084.55942	0.07213
3083.27365	0.07208
3081.98788	0.07190
3080.70211	0.07166
3079.41634	0.07133
3078.13057	0.07092
3076.84480	0.07053
3075.55903	0.07027
3074.27326	0.07016
3072.98750	0.07007
3071.70173	0.06988
3070.41596	0.06961
3069.13019	0.06936
3067.84442	0.06925
3066.55865	0.06928
3065.27288	0.06937
3063.98711	0.06943
3062.70135	0.06939
3061.41558	0.06928
3060.12981	0.06913
3058.84404	0.06901
3057.55827	0.06885
3056.27250	0.06856
3054.98673	0.06807
3053.70096	0.06750
3052.41519	0.06704
3051.12943	0.06677
3049.84366	0.06661
3048.55789	0.06642
3047.27212	0.06622
3045.98635	0.06611
3044.70058	0.06613
3043.41481	0.06610
3042.12904	0.06582
3040.84328	0.06529
3039.55751	0.06474
3038.27174	0.06439
3036.98597	0.06429
3035.70020	0.06439
3034.41443	0.06458
3033.12866	0.06472
3031.84289	0.06473
3030.55712	0.06470
3029.27136	0.06472
3027.98559	0.06480
3026.69982	0.06478
3025.41405	0.06451
3024.12828	0.06401
3022.84251	0.06347
3021.55674	0.06310
3020.27097	0.06299
3018.98521	0.06304
3017.69944	0.06309
3016.41367	0.06309
3015.12790	0.06305
3013.84213	0.06298
3012.55636	0.06290
3011.27059	0.06285
3009.98482	0.06286
3008.69905	0.06290
3007.41329	0.06291
3006.12752	0.06283
3004.84175	0.06257
3003.55598	0.06212
3002.27021	0.06157
3000.98444	0.06105
2999.69867	0.06073
2998.41290	0.06074
2997.12714	0.06106
2995.84137	0.06151
2994.55560	0.06185
2993.26983	0.06191
2991.98406	0.06172
2990.69829	0.06146
2989.41252	0.06130
2988.12675	0.06135
2986.84098	0.06164
2985.55522	0.06213
2984.26945	0.06269
2982.98368	0.06318
2981.69791	0.06354
2980.41214	0.06385
2979.12637	0.06422
2977.84060	0.06476
2976.55483	0.06551
2975.26907	0.06638
2973.98330	0.06723
2972.69753	0.06799
2971.41176	0.06873
2970.12599	0.06953
2968.84022	0.07035
2967.55445	0.07112
2966.26868	0.07182
2964.98291	0.07249
2963.69715	0.07316
2962.41138	0.07388
2961.12561	0.07470
2959.83984	0.07563
2958.55407	0.07654
2957.26830	0.07726
2955.98253	0.07767
2954.69676	0.07775
2953.41100	0.07762
2952.12523	0.07747
2950.83946	0.07751
2949.55369	0.07785
2948.26792	0.07841
2946.98215	0.07887
2945.69638	0.07893
2944.41061	0.07851
2943.12484	0.07787
2941.83908	0.07742
2940.55331	0.07740
2939.26754	0.07776
2937.98177	0.07834
2936.69600	0.07900
2935.41023	0.07965
2934.12446	0.08026
2932.83869	0.08085
2931.55293	0.08151
2930.26716	0.08222
2928.98139	0.08290
2927.69562	0.08348
2926.40985	0.08395
2925.12408	0.08427
2923.83831	0.08438
2922.55254	0.08426
2921.26677	0.08398
2919.98101	0.08357
2918.69524	0.08299
2917.40947	0.08222
2916.12370	0.08129
2914.83793	0.08028
2913.55216	0.07927
2912.26639	0.07834
2910.98062	0.07762
2909.69486	0.07716
2908.40909	0.07685
2907.12332	0.07643
2905.83755	0.07575
2904.55178	0.07481
2903.26601	0.07376
2901.98024	0.07281
2900.69447	0.07209
2899.40870	0.07159
2898.12294	0.07118
2896.83717	0.07076
2895.55140	0.07028
2894.26563	0.06970
2892.97986	0.06900
2891.69409	0.06819
2890.40832	0.06740
2889.12255	0.06679
2887.83678	0.06643
2886.55102	0.06622
2885.26525	0.06598
2883.97948	0.06563
2882.69371	0.06524
2881.40794	0.06504
2880.12217	0.06518
2878.83640	0.06562
2877.55063	0.06617
2876.26487	0.06665
2874.97910	0.06698
2873.69333	0.06720
2872.40756	0.06732
2871.12179	0.06735
2869.83602	0.06732
2868.55025	0.06724
2867.26448	0.06709
2865.97871	0.06693
2864.69295	0.06686
2863.40718	0.06695
2862.12141	0.06709
2860.83564	0.06716
2859.54987	0.06720
2858.26410	0.06733
2856.97833	0.06747
2855.69256	0.06740
2854.40680	0.06705
2853.12103	0.06652
2851.83526	0.06594
2850.54949	0.06526
2849.26372	0.06440
2847.97795	0.06339
2846.69218	0.06237
2845.40641	0.06139
2844.12064	0.06037
2842.83488	0.05936
2841.54911	0.05851
2840.26334	0.05789
2838.97757	0.05737
2837.69180	0.05675
2836.40603	0.05599
2835.12026	0.05520
2833.83449	0.05450
2832.54873	0.05387
2831.26296	0.05330
2829.97719	0.05279
2828.69142	0.05235
2827.40565	0.05193
2826.11988	0.05149
2824.83411	0.05106
2823.54834	0.05069
2822.26257	0.05044
2820.97681	0.05025
2819.69104	0.05001
2818.40527	0.04963
2817.11950	0.04918
2815.83373	0.04880
2814.54796	0.04859
2813.26219	0.04855
2811.97642	0.04851
2810.69066	0.04837
2809.40489	0.04811
2808.11912	0.04782
2806.83335	0.04758
2805.54758	0.04739
2804.26181	0.04720
2802.97604	0.04696
2801.69027	0.04672
2800.40450	0.04655
2799.11874	0.04651
2797.83297	0.04652
2796.54720	0.04645
2795.26143	0.04624
2793.97566	0.04595
2792.68989	0.04567
2791.40412	0.04547
2790.11835	0.04546
2788.83259	0.04567
2787.54682	0.04597
2786.26105	0.04615
2784.97528	0.04605
2783.68951	0.04576
2782.40374	0.04546
2781.11797	0.04525
2779.83220	0.04507
2778.54643	0.04482
2777.26067	0.04452
2775.97490	0.04426
2774.68913	0.04417
2773.40336	0.04426
2772.11759	0.04441
2770.83182	0.04441
2769.54605	0.04420
2768.26028	0.04384
2766.97452	0.04356
2765.68875	0.04350
2764.40298	0.04363
2763.11721	0.04374
2761.83144	0.04360
2760.54567	0.04326
2759.25990	0.04297
2757.97413	0.04295
2756.68836	0.04317
2755.40260	0.04335
2754.11683	0.04329
2752.83106	0.04302
2751.54529	0.04274
2750.25952	0.04259
2748.97375	0.04257
2747.68798	0.04261
2746.40221	0.04265
2745.11645	0.04268
2743.83068	0.04266
2742.54491	0.04258
2741.25914	0.04239
2739.97337	0.04212
2738.68760	0.04184
2737.40183	0.04165
2736.11606	0.04159
2734.83029	0.04164
2733.54453	0.04167
2732.25876	0.04158
2730.97299	0.04135
2729.68722	0.04109
2728.40145	0.04096
2727.11568	0.04103
2725.82991	0.04117
2724.54414	0.04120
2723.25838	0.04104
2721.97261	0.04078
2720.68684	0.04057
2719.40107	0.04049
2718.11530	0.04052
2716.82953	0.04056
2715.54376	0.04057
2714.25799	0.04058
2712.97222	0.04057
2711.68646	0.04049
2710.40069	0.04032
2709.11492	0.04009
2707.82915	0.03988
2706.54338	0.03972
2705.25761	0.03961
2703.97184	0.03956
2702.68607	0.03955
2701.40031	0.03952
2700.11454	0.03943
2698.82877	0.03932
2697.54300	0.03924
2696.25723	0.03924
2694.97146	0.03924
2693.68569	0.03921
2692.39992	0.03915
2691.11415	0.03909
2689.82839	0.03901
2688.54262	0.03891
2687.25685	0.03882
2685.97108	0.03878
2684.68531	0.03879
2683.39954	0.03875
2682.11377	0.03865
2680.82800	0.03854
2679.54224	0.03848
2678.25647	0.03846
2676.97070	0.03844
2675.68493	0.03837
2674.39916	0.03821
2673.11339	0.03797
2671.82762	0.03774
2670.54185	0.03762
2669.25608	0.03762
2667.97032	0.03774
2666.68455	0.03790
2665.39878	0.03801
2664.11301	0.03797
2662.82724	0.03782
2661.54147	0.03768
2660.25570	0.03763
2658.96993	0.03765
2657.68417	0.03765
2656.39840	0.03760
2655.11263	0.03749
2653.82686	0.03738
2652.54109	0.03730
2651.25532	0.03729
2649.96955	0.03730
2648.68378	0.03725
2647.39801	0.03710
2646.11225	0.03684
2644.82648	0.03653
2643.54071	0.03614
2642.25494	0.03571
2640.96917	0.03534
2639.68340	0.03516
2638.39763	0.03513
2637.11186	0.03509
2635.82609	0.03485
2634.54033	0.03444
2633.25456	0.03410
2631.96879	0.03403
2630.68302	0.03417
2629.39725	0.03428
2628.11148	0.03420
2626.82571	0.03397
2625.53994	0.03371
2624.25418	0.03344
2622.96841	0.03314
2621.68264	0.03280
2620.39687	0.03256
2619.11110	0.03248
2617.82533	0.03248
2616.53956	0.03245
2615.25379	0.03240
2613.96802	0.03241
2612.68226	0.03249
2611.39649	0.03253
2610.11072	0.03247
2608.82495	0.03234
2607.53918	0.03224
2606.25341	0.03214
2604.96764	0.03192
2603.68187	0.03154
2602.39611	0.03110
2601.11034	0.03077
2599.82457	0.03061
2598.53880	0.03060
2597.25303	0.03063
2595.96726	0.03067
2594.68149	0.03069
2593.39572	0.03072
2592.10995	0.03085
2590.82419	0.03111
2589.53842	0.03140
2588.25265	0.03152
2586.96688	0.03143
2585.68111	0.03129
2584.39534	0.03125
2583.10957	0.03130
2581.82380	0.03119
2580.53804	0.03074
2579.25227	0.03009
2577.96650	0.02960
2576.68073	0.02959
2575.39496	0.03001
2574.10919	0.03056
2572.82342	0.03083
2571.53765	0.03059
2570.25188	0.02988
2568.96612	0.02905
2567.68035	0.02857
2566.39458	0.02861
2565.10881	0.02889
2563.82304	0.02900
2562.53727	0.02886
2561.25150	0.02872
2559.96573	0.02881
2558.67997	0.02909
2557.39420	0.02937
2556.10843	0.02950
2554.82266	0.02946
2553.53689	0.02934
2552.25112	0.02924
2550.96535	0.02913
2549.67958	0.02892
2548.39381	0.02860
2547.10805	0.02828
2545.82228	0.02803
2544.53651	0.02780
2543.25074	0.02761
2541.96497	0.02751
2540.67920	0.02758
2539.39343	0.02779
2538.10766	0.02802
2536.82190	0.02819
2535.53613	0.02820
2534.25036	0.02802
2532.96459	0.02767
2531.67882	0.02726
2530.39305	0.02699
2529.10728	0.02705
2527.82151	0.02745
2526.53574	0.02796
2525.24998	0.02830
2523.96421	0.02840
2522.67844	0.02831
2521.39267	0.02810
2520.10690	0.02779
2518.82113	0.02744
2517.53536	0.02715
2516.24959	0.02697
2514.96383	0.02686
2513.67806	0.02676
2512.39229	0.02672
2511.10652	0.02680
2509.82075	0.02701
2508.53498	0.02725
2507.24921	0.02737
2505.96344	0.02741
2504.67767	0.02754
2503.39191	0.02780
2502.10614	0.02797
2500.82037	0.02775
2499.53460	0.02720
2498.24883	0.02668
2496.96306	0.02652
2495.67729	0.02671
2494.39152	0.02701
2493.10576	0.02721
2491.81999	0.02719
2490.53422	0.02696
2489.24845	0.02670
2487.96268	0.02663
2486.67691	0.02682
2485.39114	0.02710
2484.10537	0.02724
2482.81960	0.02720
2481.53384	0.02706
2480.24807	0.02688
2478.96230	0.02667
2477.67653	0.02647
2476.39076	0.02636
2475.10499	0.02635
2473.81922	0.02634
2472.53345	0.02625
2471.24769	0.02613
2469.96192	0.02606
2468.67615	0.02605
2467.39038	0.02606
2466.10461	0.02617
2464.81884	0.02642
2463.53307	0.02671
2462.24730	0.02681
2460.96153	0.02661
2459.67577	0.02623
2458.39000	0.02594
2457.10423	0.02591
2455.81846	0.02607
2454.53269	0.02620
2453.24692	0.02618
2451.96115	0.02609
2450.67538	0.02608
2449.38962	0.02610
2448.10385	0.02594
2446.81808	0.02557
2445.53231	0.02519
2444.24654	0.02505
2442.96077	0.02518
2441.67500	0.02536
2440.38923	0.02543
2439.10346	0.02539
2437.81770	0.02526
2436.53193	0.02505
2435.24616	0.02482
2433.96039	0.02468
2432.67462	0.02469
2431.38885	0.02483
2430.10308	0.02497
2428.81731	0.02500
2427.53155	0.02492
2426.24578	0.02478
2424.96001	0.02471
2423.67424	0.02472
2422.38847	0.02477
2421.10270	0.02480
2419.81693	0.02483
2418.53116	0.02490
2417.24539	0.02497
2415.95963	0.02494
2414.67386	0.02476
2413.38809	0.02447
2412.10232	0.02420
2410.81655	0.02409
2409.53078	0.02415
2408.24501	0.02425
2406.95924	0.02418
2405.67347	0.02389
2404.38771	0.02349
2403.10194	0.02319
2401.81617	0.02313
2400.53040	0.02328
2399.24463	0.02324
2397.95886	0.02337
2396.67309	0.02369
2395.38732	0.02399
2394.10156	0.02413
2392.81579	0.02409
2391.53002	0.02393
2390.24425	0.02380
2388.95848	0.02381
2387.67271	0.02405
2386.38694	0.02443
2385.10117	0.02475
2383.81540	0.02478
2382.52964	0.02446
2381.24387	0.02393
2379.95810	0.02340
2378.67233	0.02294
2377.38656	0.02248
2376.10079	0.02190
2374.81502	0.02121
2373.52925	0.02051
2372.24349	0.01989
2370.95772	0.01935
2369.67195	0.01893
2368.38618	0.01868
2367.10041	0.01860
2365.81464	0.01861
2364.52887	0.01856
2363.24310	0.01839
2361.95733	0.01824
2360.67157	0.01837
2359.38580	0.01894
2358.10003	0.01973
2356.81426	0.02039
2355.52849	0.02087
2354.24272	0.02151
2352.95695	0.02261
2351.67118	0.02404
2350.38542	0.02525
2349.09965	0.02575
2347.81388	0.02536
2346.52811	0.02431
2345.24234	0.02312
2343.95657	0.02239
2342.67080	0.02247
2341.38503	0.02324
2340.09926	0.02418
2338.81350	0.02472
2337.52773	0.02461
2336.24196	0.02409
2334.95619	0.02360
2333.67042	0.02337
2332.38465	0.02344
2331.09888	0.02372
2329.81311	0.02422
2328.52735	0.02488
2327.24158	0.02554
2325.95581	0.02595
2324.67004	0.02595
2323.38427	0.02556
2322.09850	0.02494
2320.81273	0.02432
2319.52696	0.02387
2318.24119	0.02368
2316.95543	0.02364
2315.66966	0.02358
2314.38389	0.02332
2313.09812	0.02288
2311.81235	0.02239
2310.52658	0.02209
2309.24081	0.02209
2307.95504	0.02235
2306.66928	0.02270
2305.38351	0.02307
2304.09774	0.02348
2302.81197	0.02389
2301.52620	0.02418
2300.24043	0.02418
2298.95466	0.02385
2297.66889	0.02335
2296.38312	0.02295
2295.09736	0.02285
2293.81159	0.02307
2292.52582	0.02343
2291.24005	0.02372
2289.95428	0.02382
2288.66851	0.02369
2287.38274	0.02337
2286.09697	0.02293
2284.81121	0.02250
2283.52544	0.02217
2282.23967	0.02192
2280.95390	0.02168
2279.66813	0.02142
2278.38236	0.02126
2277.09659	0.02134
2275.81082	0.02162
2274.52505	0.02186
2273.23929	0.02172
2271.95352	0.02113
2270.66775	0.02030
2269.38198	0.01959
2268.09621	0.01924
2266.81044	0.01924
2265.52467	0.01944
2264.23890	0.01966
2262.95314	0.01977
2261.66737	0.01975
2260.38160	0.01966
2259.09583	0.01957
2257.81006	0.01943
2256.52429	0.01918
2255.23852	0.01884
2253.95275	0.01856
2252.66698	0.01855
2251.38122	0.01881
2250.09545	0.01902
2248.80968	0.01882
2247.52391	0.01828
2246.23814	0.01763
2244.95237	0.01739
2243.66660	0.01764
2242.38083	0.01798
2241.09507	0.01796
2239.80930	0.01759
2238.52353	0.01720
2237.23776	0.01709
2235.95199	0.01723
2234.66622	0.01724
2233.38045	0.01694
2232.09468	0.01663
2230.80891	0.01673
2229.52315	0.01722
2228.23738	0.01766
2226.95161	0.01774
2225.66584	0.01761
2224.38007	0.01740
2223.09430	0.01690
2221.80853	0.01586
2220.52276	0.01454
2219.23700	0.01363
2217.95123	0.01365
2216.66546	0.01439
2215.37969	0.01504
2214.09392	0.01484
2212.80815	0.01376
2211.52238	0.01254
2210.23661	0.01205
2208.95084	0.01255
2207.66508	0.01341
2206.37931	0.01392
2205.09354	0.01390
2203.80777	0.01363
2202.52200	0.01320
2201.23623	0.01244
2199.95046	0.01148
2198.66469	0.01083
2197.37893	0.01080
2196.09316	0.01113
2194.80739	0.01135
2193.52162	0.01131
2192.23585	0.01112
2190.95008	0.01076
2189.66431	0.01005
2188.37854	0.00914
2187.09277	0.00864
2185.80701	0.00892
2184.52124	0.00962
2183.23547	0.01007
2181.94970	0.01011
2180.66393	0.01009
2179.37816	0.01016
2178.09239	0.01007
2176.80662	0.00968
2175.52085	0.00915
2174.23509	0.00862
2172.94932	0.00809
2171.66355	0.00769
2170.37778	0.00761
2169.09201	0.00770
2167.80624	0.00742
2166.52047	0.00655
2165.23470	0.00559
2163.94894	0.00515
2162.66317	0.00507
2161.37740	0.00465
2160.09163	0.00360
2158.80586	0.00236
2157.52009	0.00137
2156.23432	0.00080
2154.94855	0.00090
2153.66278	0.00194
2152.37702	0.00368
2151.09125	0.00547
2149.80548	0.00695
2148.51971	0.00825
2147.23394	0.00949
2145.94817	0.01035
2144.66240	0.01043
2143.37663	0.00987
2142.09087	0.00934
2140.80510	0.00938
2139.51933	0.00985
2138.23356	0.01011
2136.94779	0.00977
2135.66202	0.00915
2134.37625	0.00893
2133.09048	0.00935
2131.80471	0.01010
2130.51895	0.01071
2129.23318	0.01104
2127.94741	0.01122
2126.66164	0.01137
2125.37587	0.01151
2124.09010	0.01168
2122.80433	0.01193
2121.51856	0.01231
2120.23280	0.01275
2118.94703	0.01308
2117.66126	0.01307
2116.37549	0.01269
2115.08972	0.01225
2113.80395	0.01206
2112.51818	0.01205
2111.23241	0.01189
2109.94664	0.01154
2108.66088	0.01138
2107.37511	0.01172
2106.08934	0.01247
2104.80357	0.01329
2103.51780	0.01392
2102.23203	0.01418
2100.94626	0.01394
2099.66049	0.01324
2098.37473	0.01206
2097.08896	0.01080
2095.80319	0.01000
2094.51742	0.00996
2093.23165	0.01052
2091.94588	0.01122
2090.66011	0.01156
2089.37434	0.01141
2088.08857	0.01106
2086.80281	0.01089
2085.51704	0.01104
2084.23127	0.01127
2082.94550	0.01130
2081.65973	0.01111
2080.37396	0.01087
2079.08819	0.01064
2077.80242	0.01038
2076.51666	0.01003
2075.23089	0.00962
2073.94512	0.00916
2072.65935	0.00855
2071.37358	0.00785
2070.08781	0.00739
2068.80204	0.00755
2067.51627	0.00837
2066.23050	0.00928
2064.94474	0.00957
2063.65897	0.00899
2062.37320	0.00797
2061.08743	0.00722
2059.80166	0.00715
2058.51589	0.00761
2057.23012	0.00813
2055.94435	0.00829
2054.65859	0.00806
2053.37282	0.00777
2052.08705	0.00768
2050.80128	0.00776
2049.51551	0.00771
2048.22974	0.00731
2046.94397	0.00653
2045.65820	0.00545
2044.37243	0.00429
2043.08667	0.00348
2041.80090	0.00340
2040.51513	0.00398
2039.22936	0.00470
2037.94359	0.00499
2036.65782	0.00484
2035.37205	0.00469
2034.08628	0.00488
2032.80052	0.00515
2031.51475	0.00485
2030.22898	0.00361
2028.94321	0.00173
2027.65744	0.00003
2026.37167	-0.00080
2025.08590	-0.00058
2023.80013	0.00042
2022.51436	0.00170
2021.22860	0.00273
2019.94283	0.00315
2018.65706	0.00303
2017.37129	0.00278
2016.08552	0.00272
2014.79975	0.00282
2013.51398	0.00298
2012.22821	0.00328
2010.94245	0.00386
2009.65668	0.00458
2008.37091	0.00506
2007.08514	0.00510
2005.79937	0.00487
2004.51360	0.00473
2003.22783	0.00493
2001.94206	0.00534
2000.65629	0.00573
1999.37053	0.00607
1998.08476	0.00662
1996.79899	0.00755
1995.51322	0.00855
1994.22745	0.00909
1992.94168	0.00895
1991.65591	0.00835
1990.37014	0.00764
1989.08438	0.00703
1987.79861	0.00672
1986.51284	0.00684
1985.22707	0.00741
1983.94130	0.00824
1982.65553	0.00912
1981.36976	0.00983
1980.08399	0.01015
1978.79822	0.00991
1977.51246	0.00922
1976.22669	0.00851
1974.94092	0.00820
1973.65515	0.00839
1972.36938	0.00881
1971.08361	0.00913
1969.79784	0.00913
1968.51207	0.00878
1967.22631	0.00830
1965.94054	0.00792
1964.65477	0.00773
1963.36900	0.00760
1962.08323	0.00751
1960.79746	0.00765
1959.51169	0.00808
1958.22592	0.00855
1956.94015	0.00875
1955.65439	0.00875
1954.36862	0.00885
1953.08285	0.00924
1951.79708	0.00981
1950.51131	0.01026
1949.22554	0.01040
1947.93977	0.01032
1946.65400	0.01035
1945.36823	0.01072
1944.08247	0.01132
1942.79670	0.01181
1941.51093	0.01192
1940.22516	0.01168
1938.93939	0.01139
1937.65362	0.01136
1936.36785	0.01166
1935.08208	0.01204
1933.79632	0.01220
1932.51055	0.01207
1931.22478	0.01178
1929.93901	0.01145
1928.65324	0.01111
1927.36747	0.01077
1926.08170	0.01050
1924.79593	0.01041
1923.51016	0.01055
1922.22440	0.01090
1920.93863	0.01133
1919.65286	0.01165
1918.36709	0.01178
1917.08132	0.01175
1915.79555	0.01169
1914.50978	0.01174
1913.22401	0.01193
1911.93825	0.01210
1910.65248	0.01205
1909.36671	0.01176
1908.08094	0.01148
1906.79517	0.01137
1905.50940	0.01145
1904.22363	0.01163
1902.93786	0.01191
1901.65209	0.01230
1900.36633	0.01270
1899.08056	0.01299
1897.79479	0.01312
1896.50902	0.01313
1895.22325	0.01307
1893.93748	0.01292
1892.65171	0.01268
1891.36594	0.01247
1890.08018	0.01247
1888.79441	0.01272
1887.50864	0.01313
1886.22287	0.01347
1884.93710	0.01362
1883.65133	0.01354
1882.36556	0.01333
1881.07979	0.01313
1879.79402	0.01304
1878.50826	0.01302
1877.22249	0.01300
1875.93672	0.01296
1874.65095	0.01296
1873.36518	0.01308
1872.07941	0.01330
1870.79364	0.01352
1869.50787	0.01363
1868.22211	0.01360
1866.93634	0.01346
1865.65057	0.01331
1864.36480	0.01330
1863.07903	0.01344
1861.79326	0.01364
1860.50749	0.01371
1859.22172	0.01360
1857.93595	0.01344
1856.65019	0.01342
1855.36442	0.01359
1854.07865	0.01380
1852.79288	0.01389
1851.50711	0.01380
1850.22134	0.01363
1848.93557	0.01352
1847.64980	0.01350
1846.36404	0.01345
1845.07827	0.01339
1843.79250	0.01343
1842.50673	0.01362
1841.22096	0.01383
1839.93519	0.01396
1838.64942	0.01401
1837.36365	0.01399
1836.07788	0.01387
1834.79212	0.01368
1833.50635	0.01351
1832.22058	0.01345
1830.93481	0.01355
1829.64904	0.01379
1828.36327	0.01406
1827.07750	0.01417
1825.79173	0.01409
1824.50597	0.01397
1823.22020	0.01392
1821.93443	0.01391
1820.64866	0.01383
1819.36289	0.01363
1818.07712	0.01338
1816.79135	0.01329
1815.50558	0.01346
1814.21981	0.01381
1812.93405	0.01414
1811.64828	0.01428
1810.36251	0.01428
1809.07674	0.01422
1807.79097	0.01422
1806.50520	0.01430
1805.21943	0.01442
1803.93366	0.01451
1802.64790	0.01455
1801.36213	0.01459
1800.07636	0.01467
1798.79059	0.01482
1797.50482	0.01503
1796.21905	0.01527
1794.93328	0.01546
1793.64751	0.01559
1792.36174	0.01571
1791.07598	0.01588
1789.79021	0.01601
1788.50444	0.01599
1787.21867	0.01584
1785.93290	0.01568
1784.64713	0.01563
1783.36136	0.01572
1782.07559	0.01586
1780.78983	0.01602
1779.50406	0.01619
1778.21829	0.01640
1776.93252	0.01663
1775.64675	0.01686
1774.36098	0.01700
1773.07521	0.01713
1771.78944	0.01737
1770.50367	0.01771
1769.21791	0.01799
1767.93214	0.01818
1766.64637	0.01831
1765.36060	0.01835
1764.07483	0.01826
1762.78906	0.01818
1761.50329	0.01831
1760.21752	0.01862
1758.93176	0.01890
1757.64599	0.01903
1756.36022	0.01911
1755.07445	0.01924
1753.78868	0.01935
1752.50291	0.01937
1751.21714	0.01939
1749.93137	0.01946
1748.64560	0.01954
1747.35984	0.01959
1746.07407	0.01967
1744.78830	0.01979
1743.50253	0.01993
1742.21676	0.02001
1740.93099	0.02006
1739.64522	0.02019
1738.35945	0.02045
1737.07369	0.02068
1735.78792	0.02074
1734.50215	0.02085
1733.21638	0.02124
1731.93061	0.02176
1730.64484	0.02208
1729.35907	0.02215
1728.07330	0.02221
1726.78753	0.02240
1725.50177	0.02268
1724.21600	0.02303
1722.93023	0.02344
1721.64446	0.02388
1720.35869	0.02424
1719.07292	0.02450
1717.78715	0.02484
1716.50138	0.02538
1715.21561	0.02602
1713.92985	0.02659
1712.64408	0.02703
1711.35831	0.02745
1710.07254	0.02789
1708.78677	0.02836
1707.50100	0.02883
1706.21523	0.02932
1704.92946	0.02993
1703.64370	0.03052
1702.35793	0.03087
1701.07216	0.03108
1699.78639	0.03151
1698.50062	0.03203
1697.21485	0.03230
1695.92908	0.03241
1694.64331	0.03276
1693.35754	0.03331
1692.07178	0.03376
1690.78601	0.03410
1689.50024	0.03453
1688.21447	0.03504
1686.92870	0.03540
1685.64293	0.03557
1684.35716	0.03586
1683.07139	0.03643
1681.78563	0.03704
1680.49986	0.03751
1679.21409	0.03790
1677.92832	0.03829
1676.64255	0.03867
1675.35678	0.03912
1674.07101	0.03971
1672.78524	0.04028
1671.49947	0.04069
1670.21371	0.04104
1668.92794	0.04154
1667.64217	0.04221
1666.35640	0.04286
1665.07063	0.04332
1663.78486	0.04367
1662.49909	0.04409
1661.21332	0.04462
1659.92756	0.04520
1658.64179	0.04578
1657.35602	0.04633
1656.07025	0.04668
1654.78448	0.04670
1653.49871	0.04671
1652.21294	0.04713
1650.92717	0.04782
1649.64140	0.04828
1648.35564	0.04836
1647.06987	0.04841
1645.78410	0.04872
1644.49833	0.04919
1643.21256	0.04960
1641.92679	0.04989
1640.64102	0.05016
1639.35525	0.05044
1638.06949	0.05066
1636.78372	0.05081
1635.49795	0.05106
1634.21218	0.05150
1632.92641	0.05201
1631.64064	0.05243
1630.35487	0.05277
1629.06910	0.05314
1627.78333	0.05360
1626.49757	0.05410
1625.21180	0.05456
1623.92603	0.05498
1622.64026	0.05547
1621.35449	0.05605
1620.06872	0.05658
1618.78295	0.05695
1617.49718	0.05725
1616.21142	0.05773
1614.92565	0.05837
1613.63988	0.05897
1612.35411	0.05947
1611.06834	0.06000
1609.78257	0.06063
1608.49680	0.06130
1607.21103	0.06193
1605.92526	0.06248
1604.63950	0.06295
1603.35373	0.06338
1602.06796	0.06378
1600.78219	0.06422
1599.49642	0.06470
1598.21065	0.06521
1596.92488	0.06567
1595.63911	0.06602
1594.35335	0.06626
1593.06758	0.06644
1591.78181	0.06661
1590.49604	0.06682
1589.21027	0.06707
1587.92450	0.06735
1586.63873	0.06761
1585.35296	0.06781
1584.06719	0.06794
1582.78143	0.06803
1581.49566	0.06817
1580.20989	0.06833
1578.92412	0.06838
1577.63835	0.06827
1576.35258	0.06819
1575.06681	0.06836
1573.78104	0.06866
1572.49528	0.06878
1571.20951	0.06867
1569.92374	0.06851
1568.63797	0.06845
1567.35220	0.06837
1566.06643	0.06821
1564.78066	0.06805
1563.49489	0.06797
1562.20912	0.06781
1560.92336	0.06744
1559.63759	0.06706
1558.35182	0.06695
1557.06605	0.06701
1555.78028	0.06689
1554.49451	0.06654
1553.20874	0.06618
1551.92297	0.06584
1550.63721	0.06544
1549.35144	0.06500
1548.06567	0.06459
1546.77990	0.06419
1545.49413	0.06378
1544.20836	0.06332
1542.92259	0.06271
1541.63682	0.06190
1540.35105	0.06104
1539.06529	0.06039
1537.77952	0.05995
1536.49375	0.05946
1535.20798	0.05879
1533.92221	0.05814
1532.63644	0.05779
1531.35067	0.05771
1530.06490	0.05769
1528.77914	0.05768
1527.49337	0.05777
1526.20760	0.05803
1524.92183	0.05844
1523.63606	0.05888
1522.35029	0.05935
1521.06452	0.06001
1519.77875	0.06090
1518.49298	0.06186
1517.20722	0.06284
1515.92145	0.06394
1514.63568	0.06521
1513.34991	0.06659
1512.06414	0.06809
1510.77837	0.06972
1509.49260	0.07135
1508.20683	0.07286
1506.92107	0.07438
1505.63530	0.07606
1504.34953	0.07780
1503.06376	0.07933
1501.77799	0.08060
1500.49222	0.08176
1499.20645	0.08288
1497.92068	0.08395
1496.63491	0.08500
1495.34915	0.08612
1494.06338	0.08726
1492.77761	0.08831
1491.49184	0.08931
1490.20607	0.09043
1488.92030	0.09172
1487.63453	0.09314
1486.34876	0.09465
1485.06299	0.09625
1483.77723	0.09798
1482.49146	0.09983
1481.20569	0.10180
1479.91992	0.10380
1478.63415	0.10574
1477.34838	0.10755
1476.06261	0.10925
1474.77684	0.11081
1473.49108	0.11225
1472.20531	0.11360
1470.91954	0.11485
1469.63377	0.11585
1468.34800	0.11652
1467.06223	0.11692
1465.77646	0.11721
1464.49069	0.11757
1463.20492	0.11806
1461.91916	0.11868
1460.63339	0.11933
1459.34762	0.11996
1458.06185	0.12057
1456.77608	0.12129
1455.49031	0.12210
1454.20454	0.12278
1452.91877	0.12315
1451.63301	0.12330
1450.34724	0.12332
1449.06147	0.12321
1447.77570	0.12291
1446.48993	0.12241
1445.20416	0.12169
1443.91839	0.12081
1442.63262	0.11988
1441.34685	0.11901
1440.06109	0.11823
1438.77532	0.11753
1437.48955	0.11706
1436.20378	0.11704
1434.91801	0.11752
1433.63224	0.11831
1432.34647	0.11933
1431.06070	0.12063
1429.77494	0.12233
1428.48917	0.12435
1427.20340	0.12657
1425.91763	0.12887
1424.63186	0.13122
1423.34609	0.13358
1422.06032	0.13581
1420.77455	0.13780
1419.48878	0.13961
1418.20302	0.14124
1416.91725	0.14255
1415.63148	0.14337
1414.34571	0.14374
1413.05994	0.14377
1411.77417	0.14352
1410.48840	0.14299
1409.20263	0.14215
1407.91687	0.14096
1406.63110	0.13942
1405.34533	0.13758
1404.05956	0.13551
1402.77379	0.13323
1401.48802	0.13071
1400.20225	0.12798
1398.91648	0.12516
1397.63071	0.12229
1396.34495	0.11936
1395.05918	0.11639
1393.77341	0.11349
1392.48764	0.11068
1391.20187	0.10792
1389.91610	0.10513
1388.63033	0.10235
1387.34456	0.09968
1386.05880	0.09718
1384.77303	0.09479
1383.48726	0.09241
1382.20149	0.09003
1380.91572	0.08765
1379.62995	0.08528
1378.34418	0.08288
1377.05841	0.08040
1375.77264	0.07781
1374.48688	0.07517
1373.20111	0.07257
1371.91534	0.07008
1370.62957	0.06773
1369.34380	0.06556
1368.05803	0.06363
1366.77226	0.06190
1365.48649	0.06025
1364.20073	0.05860
1362.91496	0.05699
1361.62919	0.05550
1360.34342	0.05414
1359.05765	0.05290
1357.77188	0.05172
1356.48611	0.05057
1355.20034	0.04944
1353.91457	0.04835
1352.62881	0.04733
1351.34304	0.04639
1350.05727	0.04552
1348.77150	0.04468
1347.48573	0.04382
1346.19996	0.04298
1344.91419	0.04220
1343.62842	0.04150
1342.34266	0.04087
1341.05689	0.04027
1339.77112	0.03971
1338.48535	0.03917
1337.19958	0.03865
1335.91381	0.03813
1334.62804	0.03762
1333.34227	0.03713
1332.05650	0.03668
1330.77074	0.03626
1329.48497	0.03583
1328.19920	0.03541
1326.91343	0.03502
1325.62766	0.03465
1324.34189	0.03429
1323.05612	0.03392
1321.77035	0.03357
1320.48459	0.03324
1319.19882	0.03295
1317.91305	0.03269
1316.62728	0.03241
1315.34151	0.03213
1314.05574	0.03184
1312.76997	0.03158
1311.48420	0.03135
1310.19843	0.03114
1308.91267	0.03093
1307.62690	0.03073
1306.34113	0.03053
1305.05536	0.03032
1303.76959	0.03009
1302.48382	0.02986
1301.19805	0.02963
1299.91228	0.02939
1298.62652	0.02917
1297.34075	0.02897
1296.05498	0.02881
1294.76921	0.02868
1293.48344	0.02858
1292.19767	0.02850
1290.91190	0.02842
1289.62613	0.02831
1288.34036	0.02817
1287.05460	0.02802
1285.76883	0.02785
1284.48306	0.02768
1283.19729	0.02753
1281.91152	0.02742
1280.62575	0.02732
1279.33998	0.02719
1278.05421	0.02703
1276.76845	0.02686
1275.48268	0.02667
1274.19691	0.02650
1272.91114	0.02638
1271.62537	0.02631
1270.33960	0.02630
1269.05383	0.02630
1267.76806	0.02626
1266.48229	0.02616
1265.19653	0.02600
1263.91076	0.02581
1262.62499	0.02565
1261.33922	0.02555
1260.05345	0.02550
1258.76768	0.02546
1257.48191	0.02541
1256.19614	0.02538
1254.91037	0.02540
1253.62461	0.02545
1252.33884	0.02549
1251.05307	0.02549
1249.76730	0.02544
1248.48153	0.02538
1247.19576	0.02530
1245.90999	0.02520
1244.62422	0.02512
1243.33846	0.02507
1242.05269	0.02507
1240.76692	0.02507
1239.48115	0.02504
1238.19538	0.02499
1236.90961	0.02497
1235.62384	0.02502
1234.33807	0.02513
1233.05230	0.02525
1231.76654	0.02536
1230.48077	0.02543
1229.19500	0.02547
1227.90923	0.02551
1226.62346	0.02557
1225.33769	0.02566
1224.05192	0.02578
1222.76615	0.02589
1221.48039	0.02595
1220.19462	0.02598
1218.90885	0.02602
1217.62308	0.02611
1216.33731	0.02627
1215.05154	0.02650
1213.76577	0.02676
1212.48000	0.02702
1211.19423	0.02725
1209.90847	0.02747
1208.62270	0.02768
1207.33693	0.02787
1206.05116	0.02802
1204.76539	0.02812
1203.47962	0.02820
1202.19385	0.02831
1200.90808	0.02847
1199.62232	0.02865
1198.33655	0.02888
1197.05078	0.02909
1195.76501	0.02928
1194.47924	0.02944
1193.19347	0.02959
1191.90770	0.02974
1190.62193	0.02987
1189.33616	0.02995
1188.05040	0.03002
1186.76463	0.03009
1185.47886	0.03020
1184.19309	0.03033
1182.90732	0.03047
1181.62155	0.03058
1180.33578	0.03064
1179.05001	0.03068
1177.76425	0.03074
1176.47848	0.03084
1175.19271	0.03096
1173.90694	0.03111
1172.62117	0.03128
1171.33540	0.03150
1170.04963	0.03176
1168.76386	0.03203
1167.47809	0.03228
1166.19233	0.03250
1164.90656	0.03274
1163.62079	0.03303
1162.33502	0.03333
1161.04925	0.03362
1159.76348	0.03394
1158.47771	0.03436
1157.19194	0.03488
1155.90618	0.03543
1154.62041	0.03593
1153.33464	0.03639
1152.04887	0.03688
1150.76310	0.03746
1149.47733	0.03812
1148.19156	0.03881
1146.90579	0.03955
1145.62002	0.04036
1144.33426	0.04124
1143.04849	0.04218
1141.76272	0.04320
1140.47695	0.04432
1139.19118	0.04561
1137.90541	0.04711
1136.61964	0.04883
1135.33387	0.05075
1134.04811	0.05283
1132.76234	0.05510
1131.47657	0.05765
1130.19080	0.06053
1128.90503	0.06377
1127.61926	0.06731
1126.33349	0.07115
1125.04772	0.07525
1123.76195	0.07959
1122.47619	0.08414
1121.19042	0.08886
1119.90465	0.09369
1118.61888	0.09855
1117.33311	0.10341
1116.04734	0.10824
1114.76157	0.11304
1113.47580	0.11780
1112.19004	0.12248
1110.90427	0.12704
1109.61850	0.13145
1108.33273	0.13569
1107.04696	0.13978
1105.76119	0.14377
1104.47542	0.14767
1103.18965	0.15152
1101.90388	0.15531
1100.61812	0.15903
1099.33235	0.16265
1098.04658	0.16613
1096.76081	0.16947
1095.47504	0.17266
1094.18927	0.17573
1092.90350	0.17863
1091.61773	0.18133
1090.33197	0.18380
1089.04620	0.18605
1087.76043	0.18819
1086.47466	0.19034
1085.18889	0.19258
1083.90312	0.19489
1082.61735	0.19728
1081.33158	0.19983
1080.04581	0.20267
1078.76005	0.20584
1077.47428	0.20929
1076.18851	0.21296
1074.90274	0.21682
1073.61697	0.22086
1072.33120	0.22514
1071.04543	0.22967
1069.75966	0.23446
1068.47390	0.23942
1067.18813	0.24449
1065.90236	0.24965
1064.61659	0.25496
1063.33082	0.26043
1062.04505	0.26599
1060.75928	0.27159
1059.47351	0.27722
1058.18774	0.28287
1056.90198	0.28850
1055.61621	0.29410
1054.33044	0.29971
1053.04467	0.30542
1051.75890	0.31128
1050.47313	0.31728
1049.18736	0.32343
1047.90159	0.32979
1046.61583	0.33647
1045.33006	0.34346
1044.04429	0.35063
1042.75852	0.35791
1041.47275	0.36532
1040.18698	0.37299
1038.90121	0.38095
1037.61544	0.38911
1036.32967	0.39740
1035.04391	0.40576
1033.75814	0.41408
1032.47237	0.42213
1031.18660	0.42967
1029.90083	0.43660
1028.61506	0.44284
1027.32929	0.44828
1026.04352	0.45286
1024.75775	0.45661
1023.47199	0.45956
1022.18622	0.46163
1020.90045	0.46265
1019.61468	0.46251
1018.32891	0.46124
1017.04314	0.45887
1015.75737	0.45530
1014.47160	0.45042
1013.18584	0.44421
1011.90007	0.43678
1010.61430	0.42819
1009.32853	0.41846
1008.04276	0.40758
1006.75699	0.39562
1005.47122	0.38274
1004.18545	0.36922
1002.89968	0.35534
1001.61392	0.34128
1000.32815	0.32712
999.04238	0.31296
997.75661	0.29885
996.47084	0.28491
995.18507	0.27129
993.89930	0.25817
992.61353	0.24572
991.32777	0.23395
990.04200	0.22278
988.75623	0.21216
987.47046	0.20213
986.18469	0.19274
984.89892	0.18400
983.61315	0.17586
982.32738	0.16829
981.04161	0.16130
979.75585	0.15489
978.47008	0.14907
977.18431	0.14383
975.89854	0.13917
974.61277	0.13517
973.32700	0.13193
972.04123	0.12957
970.75546	0.12814
969.46970	0.12773
968.18393	0.12835
966.89816	0.12990
965.61239	0.13204
964.32662	0.13429
963.04085	0.13615
961.75508	0.13720
960.46931	0.13716
959.18354	0.13589
957.89778	0.13342
956.61201	0.12989
955.32624	0.12561
954.04047	0.12102
952.75470	0.11652
951.46893	0.11232
950.18316	0.10841
948.89739	0.10473
947.61163	0.10122
946.32586	0.09786
945.04009	0.09456
943.75432	0.09131
942.46855	0.08819
941.18278	0.08532
939.89701	0.08278
938.61124	0.08051
937.32547	0.07840
936.03971	0.07640
934.75394	0.07451
933.46817	0.07278
932.18240	0.07118
930.89663	0.06967
929.61086	0.06824
928.32509	0.06692
927.03932	0.06573
925.75356	0.06467
924.46779	0.06367
923.18202	0.06269
921.89625	0.06172
920.61048	0.06082
919.32471	0.06006
918.03894	0.05944
916.75317	0.05889
915.46740	0.05829
914.18164	0.05761
912.89587	0.05690
911.61010	0.05620
910.32433	0.05556
909.03856	0.05499
907.75279	0.05450
906.46702	0.05405
905.18125	0.05361
903.89549	0.05313
902.60972	0.05260
901.32395	0.05209
900.03818	0.05168
898.75241	0.05140
897.46664	0.05121
896.18087	0.05104
894.89510	0.05087
893.60933	0.05075
892.32357	0.05072
891.03780	0.05084
889.75203	0.05114
888.46626	0.05172
887.18049	0.05272
885.89472	0.05441
884.60895	0.05706
883.32318	0.06068
882.03742	0.06482
880.75165	0.06872
879.46588	0.07172
878.18011	0.07373
876.89434	0.07534
875.60857	0.07726
874.32280	0.07962
873.03703	0.08171
871.75126	0.08261
870.46550	0.08185
869.17973	0.07965
867.89396	0.07649
866.60819	0.07279
865.32242	0.06887
864.03665	0.06510
862.75088	0.06181
861.46511	0.05915
860.17935	0.05704
858.89358	0.05533
857.60781	0.05393
856.32204	0.05273
855.03627	0.05167
853.75050	0.05072
852.46473	0.04987
851.17896	0.04915
849.89319	0.04856
848.60743	0.04813
847.32166	0.04787
846.03589	0.04770
844.75012	0.04751
843.46435	0.04722
842.17858	0.04686
840.89281	0.04647
839.60704	0.04607
838.32128	0.04568
837.03551	0.04531
835.74974	0.04501
834.46397	0.04483
833.17820	0.04477
831.89243	0.04479
830.60666	0.04484
829.32089	0.04485
828.03512	0.04477
826.74936	0.04463
825.46359	0.04445
824.17782	0.04427
822.89205	0.04409
821.60628	0.04392
820.32051	0.04379
819.03474	0.04373
817.74897	0.04375
816.46321	0.04374
815.17744	0.04366
813.89167	0.04354
812.60590	0.04348
811.32013	0.04352
810.03436	0.04359
808.74859	0.04360
807.46282	0.04356
806.17705	0.04351
804.89129	0.04351
803.60552	0.04357
802.31975	0.04368
801.03398	0.04381
799.74821	0.04389
798.46244	0.04388
797.17667	0.04379
795.89090	0.04369
794.60513	0.04363
793.31937	0.04365
792.03360	0.04367
790.74783	0.04365
789.46206	0.04357
788.17629	0.04345
786.89052	0.04336
785.60475	0.04330
784.31898	0.04327
783.03322	0.04323
781.74745	0.04320
780.46168	0.04317
779.17591	0.04312
777.89014	0.04303
776.60437	0.04295
775.31860	0.04293
774.03283	0.04302
772.74706	0.04319
771.46130	0.04335
770.17553	0.04342
768.88976	0.04337
767.60399	0.04325
766.31822	0.04316
765.03245	0.04316
763.74668	0.04324
762.46091	0.04335
761.17515	0.04347
759.88938	0.04361
758.60361	0.04377
757.31784	0.04392
756.03207	0.04402
754.74630	0.04403
753.46053	0.04395
752.17476	0.04385
750.88899	0.04376
749.60323	0.04363
748.31746	0.04344
747.03169	0.04326
745.74592	0.04319
744.46015	0.04326
743.17438	0.04339
741.88861	0.04343
740.60284	0.04333
739.31708	0.04318
738.03131	0.04307
736.74554	0.04305
735.45977	0.04308
734.17400	0.04313
732.88823	0.04317
731.60246	0.04322
730.31669	0.04327
729.03092	0.04332
727.74516	0.04339
726.45939	0.04346
725.17362	0.04352
723.88785	0.04358
722.60208	0.04355
721.31631	0.04350
720.03054	0.04354
718.74477	0.04368
717.45901	0.04385
716.17324	0.04399
714.88747	0.04407
713.60170	0.04410
712.31593	0.04408
711.03016	0.04400
709.74439	0.04387
708.45862	0.04369
707.17285	0.04352
705.88709	0.04339
704.60132	0.04332
703.31555	0.04329
702.02978	0.04330
700.74401	0.04331
699.45824	0.04328
698.17247	0.04323
696.88670	0.04317
695.60094	0.04317
694.31517	0.04324
693.02940	0.04335
691.74363	0.04344
690.45786	0.04347
689.17209	0.04341
687.88632	0.04332
686.60055	0.04322
685.31478	0.04312
684.02902	0.04304
682.74325	0.04296
681.45748	0.04292
680.17171	0.04295
678.88594	0.04304
677.60017	0.04317
676.31440	0.04332
675.02863	0.04345
673.74287	0.04355
672.45710	0.04357
671.17133	0.04350
669.88556	0.04344
668.59979	0.04356
667.31402	0.04380
666.02825	0.04400
664.74248	0.04407
663.45671	0.04401
662.17095	0.04383
660.88518	0.04362
659.59941	0.04345
658.31364	0.04338
657.02787	0.04340
655.74210	0.04350
654.45633	0.04363
653.17056	0.04375
651.88480	0.04383
650.59903	0.04388
649.31326	0.04396
648.02749	0.04411
646.74172	0.04430
645.45595	0.04452
644.17018	0.04472
642.88441	0.04493
641.59864	0.04518
640.31288	0.04548
639.02711	0.04584
637.74134	0.04624
636.45557	0.04664
635.16980	0.04705
633.88403	0.04746
632.59826	0.04795
631.31249	0.04862
630.02673	0.04956
628.74096	0.05068
627.45519	0.05185
626.16942	0.05359
624.88365	0.05570
623.59788	0.05803
622.31211	0.06081
621.02634	0.06413
619.74057	0.06757
618.45481	0.07077
617.16904	0.07400
615.88327	0.07781
614.59750	0.08221
613.31173	0.08684
612.02596	0.09174
610.74019	0.09780
609.45442	0.10571
608.16866	0.11506
606.88289	0.12477
605.59712	0.13390
604.31135	0.14147
603.02558	0.14641
601.73981	0.14816
600.45404	0.14693
599.16827	0.14348
597.88250	0.13866
596.59674	0.13326
595.31097	0.12789
594.02520	0.12297
592.73943	0.11882
591.45366	0.11568
590.16789	0.11370
588.88212	0.11292
587.59635	0.11322
586.31059	0.11439
585.02482	0.11631
583.73905	0.11902
582.45328	0.12251
581.16751	0.12662
579.88174	0.13110
578.59597	0.13577
577.31020	0.14049
576.02443	0.14508
574.73867	0.14935
573.45290	0.15330
572.16713	0.15719
570.88136	0.16151
569.59559	0.16669
568.30982	0.17287
567.02405	0.17982
565.73828	0.18701
564.45251	0.19365
563.16675	0.19886
561.88098	0.20176
560.59521	0.20165
559.30944	0.19820
558.02367	0.19161
556.73790	0.18265
555.45213	0.17227
554.16636	0.16135
552.88060	0.15053
551.59483	0.14029
550.30906	0.13099
549.02329	0.12277
547.73752	0.11559
546.45175	0.10931
545.16598	0.10373
543.88021	0.09872
542.59444	0.09421
541.30868	0.09017
540.02291	0.08660
538.73714	0.08345
537.45137	0.08065
536.16560	0.07814
534.87983	0.07585
533.59406	0.07369
532.30829	0.07160
531.02253	0.06960
529.73676	0.06776
528.45099	0.06609
527.16522	0.06458
525.87945	0.06319
524.59368	0.06191
523.30791	0.06065
522.02214	0.05937
520.73637	0.05807
519.45061	0.05689
518.16484	0.05592
516.87907	0.05509
515.59330	0.05429
514.30753	0.05344
513.02176	0.05258
511.73599	0.05177
510.45022	0.05100
509.16446	0.05024
507.87869	0.04950
506.59292	0.04885
505.30715	0.04832
504.02138	0.04782
502.73561	0.04725
501.44984	0.04659
500.16407	0.04591
498.87830	0.04536
497.59254	0.04498
496.30677	0.04470
495.02100	0.04441
493.73523	0.04408
492.44946	0.04379
491.16369	0.04360
489.87792	0.04349
488.59215	0.04337
487.30639	0.04317
486.02062	0.04292
484.73485	0.04273
483.44908	0.04272
482.16331	0.04291
480.87754	0.04323
479.59177	0.04355
478.30600	0.04382
477.02023	0.04406
475.73447	0.04435
474.44870	0.04468
473.16293	0.04498
471.87716	0.04516
470.59139	0.04522
469.30562	0.04523
468.01985	0.04525
466.73408	0.04522
465.44832	0.04503
464.16255	0.04460
462.87678	0.04396
461.59101	0.04323
460.30524	0.04254
459.01947	0.04198
457.73370	0.04155
456.44793	0.04121
455.16216	0.04084
453.87640	0.04039
452.59063	0.03990
451.30486	0.03942
450.01909	0.03899
448.73332	0.03861
447.44755	0.03824
446.16178	0.03787
444.87601	0.03749
443.59025	0.03714
442.30448	0.03684
441.01871	0.03658
439.73294	0.03634
438.44717	0.03610
437.16140	0.03590
435.87563	0.03574
434.58986	0.03560
433.30409	0.03546
432.01833	0.03530
430.73256	0.03512
429.44679	0.03490
428.16102	0.03463
426.87525	0.03431
425.58948	0.03400
424.30371	0.03375
423.01794	0.03356
421.73218	0.03338
420.44641	0.03317
419.16064	0.03297
417.87487	0.03279
416.58910	0.03260
415.30333	0.03236
414.01756	0.03211
412.73179	0.03189
411.44602	0.03167
410.16026	0.03145
408.87449	0.03126
407.58872	0.03115
406.30295	0.03119
405.01718	0.03132
403.73141	0.03144
402.44564	0.03146
401.15987	0.03139
399.87411	0.03127
