3997.45528	0.05245
3996.16951	0.05281
3994.88374	0.05315
3993.59798	0.05333
3992.31221	0.05325
3991.02644	0.05302
3989.74067	0.05288
3988.45490	0.05316
3987.16913	0.05392
3985.88336	0.05479
3984.59759	0.05507
3983.31183	0.05436
3982.02606	0.05296
3980.74029	0.05158
3979.45452	0.05078
3978.16875	0.05059
3976.88298	0.05077
3975.59721	0.05109
3974.31144	0.05141
3973.02567	0.05166
3971.73991	0.05171
3970.45414	0.05148
3969.16837	0.05106
3967.88260	0.05073
3966.59683	0.05080
3965.31106	0.05127
3964.02529	0.05176
3962.73952	0.05183
3961.45376	0.05143
3960.16799	0.05096
3958.88222	0.05089
3957.59645	0.05115
3956.31068	0.05131
3955.02491	0.05116
3953.73914	0.05100
3952.45337	0.05129
3951.16760	0.05203
3949.88184	0.05272
3948.59607	0.05288
3947.31030	0.05247
3946.02453	0.05191
3944.73876	0.05168
3943.45299	0.05195
3942.16722	0.05250
3940.88145	0.05293
3939.59569	0.05288
3938.30992	0.05225
3937.02415	0.05123
3935.73838	0.05016
3934.45261	0.04945
3933.16684	0.04931
3931.88107	0.04962
3930.59530	0.05007
3929.30953	0.05033
3928.02377	0.05022
3926.73800	0.04986
3925.45223	0.04963
3924.16646	0.04989
3922.88069	0.05055
3921.59492	0.05112
3920.30915	0.05114
3919.02338	0.05054
3917.73762	0.04979
3916.45185	0.04952
3915.16608	0.04991
3913.88031	0.05054
3912.59454	0.05101
3911.30877	0.05126
3910.02300	0.05139
3908.73723	0.05139
3907.45146	0.05113
3906.16570	0.05066
3904.87993	0.05028
3903.59416	0.05023
3902.30839	0.05045
3901.02262	0.05067
3899.73685	0.05065
3898.45108	0.05040
3897.16531	0.05010
3895.87955	0.05000
3894.59378	0.05025
3893.30801	0.05064
3892.02224	0.05086
3890.73647	0.05078
3889.45070	0.05042
3888.16493	0.04971
3886.87916	0.04885
3885.59339	0.04839
3884.30763	0.04864
3883.02186	0.04919
3881.73609	0.04945
3880.45032	0.04928
3879.16455	0.04889
3877.87878	0.04844
3876.59301	0.04799
3875.30724	0.04786
3874.02148	0.04835
3872.73571	0.04926
3871.44994	0.05003
3870.16417	0.05047
3868.87840	0.05080
3867.59263	0.05100
3866.30686	0.05094
3865.02109	0.05075
3863.73532	0.05055
3862.44956	0.05014
3861.16379	0.04949
3859.87802	0.04906
3858.59225	0.04938
3857.30648	0.05031
3856.02071	0.05100
3854.73494	0.05082
3853.44917	0.05011
3852.16341	0.04954
3850.87764	0.04920
3849.59187	0.04883
3848.30610	0.04837
3847.02033	0.04800
3845.73456	0.04796
3844.44879	0.04828
3843.16302	0.04868
3841.87725	0.04867
3840.59149	0.04784
3839.30572	0.04640
3838.01995	0.04529
3836.73418	0.04532
3835.44841	0.04635
3834.16264	0.04757
3832.87687	0.04836
3831.59110	0.04862
3830.30534	0.04850
3829.01957	0.04816
3827.73380	0.04777
3826.44803	0.04762
3825.16226	0.04775
3823.87649	0.04784
3822.59072	0.04771
3821.30495	0.04775
3820.01918	0.04834
3818.73342	0.04903
3817.44765	0.04916
3816.16188	0.04882
3814.87611	0.04842
3813.59034	0.04790
3812.30457	0.04724
3811.01880	0.04675
3809.73303	0.04658
3808.44726	0.04650
3807.16150	0.04652
3805.87573	0.04681
3804.58996	0.04707
3803.30419	0.04668
3802.01842	0.04565
3800.73265	0.04462
3799.44688	0.04392
3798.16111	0.04342
3796.87535	0.04309
3795.58958	0.04308
3794.30381	0.04332
3793.01804	0.04364
3791.73227	0.04399
3790.44650	0.04435
3789.16073	0.04466
3787.87496	0.04491
3786.58919	0.04511
3785.30343	0.04525
3784.01766	0.04536
3782.73189	0.04549
3781.44612	0.04574
3780.16035	0.04614
3778.87458	0.04646
3777.58881	0.04635
3776.30304	0.04573
3775.01728	0.04502
3773.73151	0.04466
3772.44574	0.04463
3771.15997	0.04475
3769.87420	0.04510
3768.58843	0.04573
3767.30266	0.04647
3766.01689	0.04712
3764.73112	0.04766
3763.44536	0.04802
3762.15959	0.04795
3760.87382	0.04738
3759.58805	0.04650
3758.30228	0.04567
3757.01651	0.04529
3755.73074	0.04549
3754.44497	0.04595
3753.15921	0.04624
3751.87344	0.04612
3750.58767	0.04557
3749.30190	0.04498
3748.01613	0.04477
3746.73036	0.04469
3745.44459	0.04446
3744.15882	0.04435
3742.87305	0.04447
3741.58729	0.04440
3740.30152	0.04403
3739.01575	0.04360
3737.72998	0.04324
3736.44421	0.04304
3735.15844	0.04307
3733.87267	0.04314
3732.58690	0.04320
3731.30114	0.04347
3730.01537	0.04395
3728.72960	0.04419
3727.44383	0.04391
3726.15806	0.04325
3724.87229	0.04253
3723.58652	0.04203
3722.30075	0.04207
3721.01498	0.04270
3719.72922	0.04355
3718.44345	0.04424
3717.15768	0.04469
3715.87191	0.04506
3714.58614	0.04537
3713.30037	0.04552
3712.01460	0.04547
3710.72883	0.04537
3709.44307	0.04531
3708.15730	0.04536
3706.87153	0.04550
3705.58576	0.04562
3704.29999	0.04560
3703.01422	0.04540
3701.72845	0.04514
3700.44268	0.04489
3699.15691	0.04451
3697.87115	0.04388
3696.58538	0.04307
3695.29961	0.04226
3694.01384	0.04170
3692.72807	0.04171
3691.44230	0.04211
3690.15653	0.04226
3688.87076	0.04195
3687.58500	0.04153
3686.29923	0.04121
3685.01346	0.04099
3683.72769	0.04094
3682.44192	0.04131
3681.15615	0.04233
3679.87038	0.04395
3678.58461	0.04552
3677.29884	0.04629
3676.01308	0.04620
3674.72731	0.04582
3673.44154	0.04538
3672.15577	0.04475
3670.87000	0.04426
3669.58423	0.04433
3668.29846	0.04461
3667.01269	0.04440
3665.72693	0.04357
3664.44116	0.04253
3663.15539	0.04169
3661.86962	0.04125
3660.58385	0.04131
3659.29808	0.04179
3658.01231	0.04250
3656.72654	0.04335
3655.44077	0.04435
3654.15501	0.04537
3652.86924	0.04608
3651.58347	0.04628
3650.29770	0.04606
3649.01193	0.04558
3647.72616	0.04507
3646.44039	0.04481
3645.15462	0.04487
3643.86886	0.04500
3642.58309	0.04484
3641.29732	0.04422
3640.01155	0.04343
3638.72578	0.04295
3637.44001	0.04302
3636.15424	0.04342
3634.86847	0.04386
3633.58270	0.04436
3632.29694	0.04494
3631.01117	0.04527
3629.72540	0.04513
3628.43963	0.04471
3627.15386	0.04430
3625.86809	0.04404
3624.58232	0.04407
3623.29655	0.04444
3622.01079	0.04491
3620.72502	0.04526
3619.43925	0.04558
3618.15348	0.04605
3616.86771	0.04657
3615.58194	0.04685
3614.29617	0.04672
3613.01040	0.04633
3611.72463	0.04594
3610.43887	0.04575
3609.15310	0.04580
3607.86733	0.04599
3606.58156	0.04620
3605.29579	0.04648
3604.01002	0.04696
3602.72425	0.04759
3601.43848	0.04803
3600.15272	0.04794
3598.86695	0.04726
3597.58118	0.04630
3596.29541	0.04559
3595.00964	0.04551
3593.72387	0.04605
3592.43810	0.04694
3591.15233	0.04778
3589.86656	0.04822
3588.58080	0.04814
3587.29503	0.04768
3586.00926	0.04708
3584.72349	0.04651
3583.43772	0.04613
3582.15195	0.04603
3580.86618	0.04617
3579.58041	0.04657
3578.29464	0.04718
3577.00888	0.04793
3575.72311	0.04870
3574.43734	0.04930
3573.15157	0.04954
3571.86580	0.04933
3570.58003	0.04874
3569.29426	0.04807
3568.00849	0.04767
3566.72273	0.04768
3565.43696	0.04801
3564.15119	0.04846
3562.86542	0.04899
3561.57965	0.04952
3560.29388	0.04990
3559.00811	0.04999
3557.72234	0.04985
3556.43657	0.04958
3555.15081	0.04923
3553.86504	0.04881
3552.57927	0.04847
3551.29350	0.04847
3550.00773	0.04896
3548.72196	0.04981
3547.43619	0.05059
3546.15042	0.05091
3544.86466	0.05072
3543.57889	0.05044
3542.29312	0.05056
3541.00735	0.05117
3539.72158	0.05180
3538.43581	0.05187
3537.15004	0.05124
3535.86427	0.05036
3534.57850	0.04983
3533.29274	0.04988
3532.00697	0.05031
3530.72120	0.05069
3529.43543	0.05080
3528.14966	0.05080
3526.86389	0.05096
3525.57812	0.05130
3524.29235	0.05155
3523.00659	0.05152
3521.72082	0.05138
3520.43505	0.05141
3519.14928	0.05170
3517.86351	0.05210
3516.57774	0.05248
3515.29197	0.05280
3514.00620	0.05304
3512.72043	0.05309
3511.43467	0.05293
3510.14890	0.05270
3508.86313	0.05259
3507.57736	0.05264
3506.29159	0.05262
3505.00582	0.05232
3503.72005	0.05175
3502.43428	0.05121
3501.14852	0.05103
3499.86275	0.05140
3498.57698	0.05222
3497.29121	0.05314
3496.00544	0.05380
3494.71967	0.05409
3493.43390	0.05416
3492.14813	0.05422
3490.86236	0.05445
3489.57660	0.05485
3488.29083	0.05532
3487.00506	0.05564
3485.71929	0.05560
3484.43352	0.05520
3483.14775	0.05462
3481.86198	0.05420
3480.57621	0.05411
3479.29045	0.05432
3478.00468	0.05460
3476.71891	0.05478
3475.43314	0.05487
3474.14737	0.05499
3472.86160	0.05519
3471.57583	0.05533
3470.29006	0.05526
3469.00429	0.05501
3467.71853	0.05477
3466.43276	0.05471
3465.14699	0.05476
3463.86122	0.05477
3462.57545	0.05464
3461.28968	0.05451
3460.00391	0.05458
3458.71814	0.05501
3457.43238	0.05579
3456.14661	0.05676
3454.86084	0.05763
3453.57507	0.05812
3452.28930	0.05808
3451.00353	0.05761
3449.71776	0.05693
3448.43199	0.05629
3447.14622	0.05590
3445.86046	0.05585
3444.57469	0.05602
3443.28892	0.05619
3442.00315	0.05619
3440.71738	0.05604
3439.43161	0.05587
3438.14584	0.05575
3436.86007	0.05571
3435.57431	0.05583
3434.28854	0.05619
3433.00277	0.05672
3431.71700	0.05723
3430.43123	0.05756
3429.14546	0.05769
3427.85969	0.05775
3426.57392	0.05781
3425.28815	0.05783
3424.00239	0.05769
3422.71662	0.05734
3421.43085	0.05691
3420.14508	0.05658
3418.85931	0.05651
3417.57354	0.05667
3416.28777	0.05696
3415.00200	0.05729
3413.71624	0.05759
3412.43047	0.05776
3411.14470	0.05775
3409.85893	0.05756
3408.57316	0.05731
3407.28739	0.05714
3406.00162	0.05716
3404.71585	0.05740
3403.43008	0.05773
3402.14432	0.05806
3400.85855	0.05842
3399.57278	0.05884
3398.28701	0.05921
3397.00124	0.05941
3395.71547	0.05939
3394.42970	0.05930
3393.14393	0.05929
3391.85817	0.05936
3390.57240	0.05940
3389.28663	0.05938
3388.00086	0.05939
3386.71509	0.05947
3385.42932	0.05957
3384.14355	0.05963
3382.85778	0.05964
3381.57201	0.05958
3380.28625	0.05941
3379.00048	0.05921
3377.71471	0.05911
3376.42894	0.05918
3375.14317	0.05937
3373.85740	0.05955
3372.57163	0.05968
3371.28586	0.05970
3370.00010	0.05960
3368.71433	0.05944
3367.42856	0.05933
3366.14279	0.05938
3364.85702	0.05949
3363.57125	0.05950
3362.28548	0.05938
3360.99971	0.05925
3359.71394	0.05922
3358.42818	0.05928
3357.14241	0.05940
3355.85664	0.05965
3354.57087	0.06008
3353.28510	0.06054
3351.99933	0.06079
3350.71356	0.06066
3349.42779	0.06015
3348.14202	0.05953
3346.85626	0.05915
3345.57049	0.05926
3344.28472	0.05979
3342.99895	0.06035
3341.71318	0.06047
3340.42741	0.06000
3339.14164	0.05925
3337.85587	0.05870
3336.57011	0.05855
3335.28434	0.05867
3333.99857	0.05887
3332.71280	0.05913
3331.42703	0.05951
3330.14126	0.06003
3328.85549	0.06064
3327.56972	0.06128
3326.28395	0.06192
3324.99819	0.06247
3323.71242	0.06271
3322.42665	0.06255
3321.14088	0.06219
3319.85511	0.06200
3318.56934	0.06217
3317.28357	0.06247
3315.99780	0.06253
3314.71204	0.06221
3313.42627	0.06174
3312.14050	0.06138
3310.85473	0.06118
3309.56896	0.06096
3308.28319	0.06057
3306.99742	0.06015
3305.71165	0.06001
3304.42588	0.06028
3303.14012	0.06082
3301.85435	0.06135
3300.56858	0.06174
3299.28281	0.06201
3297.99704	0.06218
3296.71127	0.06223
3295.42550	0.06212
3294.13973	0.06186
3292.85397	0.06148
3291.56820	0.06104
3290.28243	0.06055
3288.99666	0.06015
3287.71089	0.06005
3286.42512	0.06039
3285.13935	0.06102
3283.85358	0.06159
3282.56781	0.06181
3281.28205	0.06167
3279.99628	0.06133
3278.71051	0.06094
3277.42474	0.06058
3276.13897	0.06040
3274.85320	0.06049
3273.56743	0.06077
3272.28166	0.06101
3270.99590	0.06101
3269.71013	0.06075
3268.42436	0.06042
3267.13859	0.06026
3265.85282	0.06037
3264.56705	0.06063
3263.28128	0.06088
3261.99551	0.06105
3260.70974	0.06115
3259.42398	0.06117
3258.13821	0.06106
3256.85244	0.06090
3255.56667	0.06082
3254.28090	0.06089
3252.99513	0.06100
3251.70936	0.06101
3250.42359	0.06081
3249.13783	0.06035
3247.85206	0.05968
3246.56629	0.05901
3245.28052	0.05857
3243.99475	0.05840
3242.70898	0.05839
3241.42321	0.05847
3240.13744	0.05863
3238.85167	0.05883
3237.56591	0.05891
3236.28014	0.05875
3234.99437	0.05839
3233.70860	0.05802
3232.42283	0.05783
3231.13706	0.05792
3229.85129	0.05821
3228.56552	0.05856
3227.27976	0.05876
3225.99399	0.05869
3224.70822	0.05842
3223.42245	0.05816
3222.13668	0.05803
3220.85091	0.05794
3219.56514	0.05780
3218.27937	0.05764
3216.99360	0.05756
3215.70784	0.05754
3214.42207	0.05745
3213.13630	0.05726
3211.85053	0.05709
3210.56476	0.05706
3209.27899	0.05714
3207.99322	0.05718
3206.70745	0.05707
3205.42169	0.05689
3204.13592	0.05679
3202.85015	0.05674
3201.56438	0.05657
3200.27861	0.05624
3198.99284	0.05587
3197.70707	0.05561
3196.42130	0.05550
3195.13553	0.05546
3193.84977	0.05546
3192.56400	0.05552
3191.27823	0.05564
3189.99246	0.05575
3188.70669	0.05574
3187.42092	0.05559
3186.13515	0.05536
3184.84938	0.05522
3183.56362	0.05527
3182.27785	0.05549
3180.99208	0.05568
3179.70631	0.05564
3178.42054	0.05526
3177.13477	0.05462
3175.84900	0.05392
3174.56323	0.05341
3173.27746	0.05328
3171.99170	0.05356
3170.70593	0.05406
3169.42016	0.05446
3168.13439	0.05461
3166.84862	0.05460
3165.56285	0.05452
3164.27708	0.05436
3162.99131	0.05401
3161.70555	0.05340
3160.41978	0.05265
3159.13401	0.05198
3157.84824	0.05165
3156.56247	0.05181
3155.27670	0.05231
3153.99093	0.05283
3152.70516	0.05313
3151.41939	0.05319
3150.13363	0.05313
3148.84786	0.05303
3147.56209	0.05290
3146.27632	0.05276
3144.99055	0.05268
3143.70478	0.05267
3142.41901	0.05262
3141.13324	0.05246
3139.84748	0.05219
3138.56171	0.05193
3137.27594	0.05175
3135.99017	0.05158
3134.70440	0.05134
3133.41863	0.05105
3132.13286	0.05080
3130.84709	0.05068
3129.56132	0.05070
3128.27556	0.05076
3126.98979	0.05078
3125.70402	0.05073
3124.41825	0.05065
3123.13248	0.05059
3121.84671	0.05056
3120.56094	0.05058
3119.27517	0.05071
3117.98940	0.05098
3116.70364	0.05129
3115.41787	0.05147
3114.13210	0.05141
3112.84633	0.05107
3111.56056	0.05058
3110.27479	0.05017
3108.98902	0.05006
3107.70325	0.05019
3106.41749	0.05026
3105.13172	0.05004
3103.84595	0.04967
3102.56018	0.04944
3101.27441	0.04948
3099.98864	0.04966
3098.70287	0.04985
3097.41710	0.05002
3096.13133	0.05018
3094.84557	0.05023
3093.55980	0.05011
3092.27403	0.04985
3090.98826	0.04953
3089.70249	0.04924
3088.41672	0.04898
3087.13095	0.04876
3085.84518	0.04863
3084.55942	0.04864
3083.27365	0.04877
3081.98788	0.04893
3080.70211	0.04900
3079.41634	0.04893
3078.13057	0.04878
3076.84480	0.04871
3075.55903	0.04886
3074.27326	0.04919
3072.98750	0.04953
3071.70173	0.04972
3070.41596	0.04969
3069.13019	0.04947
3067.84442	0.04918
3066.55865	0.04893
3065.27288	0.04876
3063.98711	0.04862
3062.70135	0.04847
3061.41558	0.04839
3060.12981	0.04848
3058.84404	0.04870
3057.55827	0.04892
3056.27250	0.04898
3054.98673	0.04881
3053.70096	0.04842
3052.41519	0.04797
3051.12943	0.04764
3049.84366	0.04752
3048.55789	0.04756
3047.27212	0.04763
3045.98635	0.04755
3044.70058	0.04723
3043.41481	0.04678
3042.12904	0.04644
3040.84328	0.04638
3039.55751	0.04651
3038.27174	0.04661
3036.98597	0.04655
3035.70020	0.04638
3034.41443	0.04627
3033.12866	0.04627
3031.84289	0.04625
3030.55712	0.04609
3029.27136	0.04580
3027.98559	0.04557
3026.69982	0.04546
3025.41405	0.04546
3024.12828	0.04551
3022.84251	0.04566
3021.55674	0.04594
3020.27097	0.04622
3018.98521	0.04630
3017.69944	0.04610
3016.41367	0.04569
3015.12790	0.04524
3013.84213	0.04487
3012.55636	0.04460
3011.27059	0.04445
3009.98482	0.04436
3008.69905	0.04431
3007.41329	0.04431
3006.12752	0.04445
3004.84175	0.04475
3003.55598	0.04508
3002.27021	0.04518
3000.98444	0.04492
2999.69867	0.04440
2998.41290	0.04400
2997.12714	0.04394
2995.84137	0.04417
2994.55560	0.04455
2993.26983	0.04493
2991.98406	0.04520
2990.69829	0.04525
2989.41252	0.04511
2988.12675	0.04496
2986.84098	0.04495
2985.55522	0.04511
2984.26945	0.04541
2982.98368	0.04581
2981.69791	0.04629
2980.41214	0.04677
2979.12637	0.04715
2977.84060	0.04730
2976.55483	0.04726
2975.26907	0.04718
2973.98330	0.04727
2972.69753	0.04757
2971.41176	0.04806
2970.12599	0.04875
2968.84022	0.04959
2967.55445	0.05038
2966.26868	0.05093
2964.98291	0.05124
2963.69715	0.05148
2962.41138	0.05181
2961.12561	0.05226
2959.83984	0.05274
2958.55407	0.05319
2957.26830	0.05355
2955.98253	0.05379
2954.69676	0.05396
2953.41100	0.05418
2952.12523	0.05455
2950.83946	0.05501
2949.55369	0.05535
2948.26792	0.05540
2946.98215	0.05525
2945.69638	0.05510
2944.41061	0.05507
2943.12484	0.05510
2941.83908	0.05511
2940.55331	0.05515
2939.26754	0.05531
2937.98177	0.05566
2936.69600	0.05622
2935.41023	0.05692
2934.12446	0.05756
2932.83869	0.05793
2931.55293	0.05809
2930.26716	0.05829
2928.98139	0.05874
2927.69562	0.05936
2926.40985	0.05993
2925.12408	0.06030
2923.83831	0.06046
2922.55254	0.06039
2921.26677	0.06006
2919.98101	0.05953
2918.69524	0.05899
2917.40947	0.05866
2916.12370	0.05856
2914.83793	0.05851
2913.55216	0.05826
2912.26639	0.05776
2910.98062	0.05713
2909.69486	0.05651
2908.40909	0.05593
2907.12332	0.05542
2905.83755	0.05501
2904.55178	0.05474
2903.26601	0.05456
2901.98024	0.05433
2900.69447	0.05393
2899.40870	0.05345
2898.12294	0.05307
2896.83717	0.05292
2895.55140	0.05292
2894.26563	0.05288
2892.97986	0.05269
2891.69409	0.05238
2890.40832	0.05201
2889.12255	0.05157
2887.83678	0.05104
2886.55102	0.05048
2885.26525	0.04996
2883.97948	0.04953
2882.69371	0.04921
2881.40794	0.04908
2880.12217	0.04918
2878.83640	0.04946
2877.55063	0.04982
2876.26487	0.05018
2874.97910	0.05050
2873.69333	0.05078
2872.40756	0.05102
2871.12179	0.05119
2869.83602	0.05122
2868.55025	0.05117
2867.26448	0.05114
2865.97871	0.05120
2864.69295	0.05133
2863.40718	0.05144
2862.12141	0.05151
2860.83564	0.05153
2859.54987	0.05147
2858.26410	0.05133
2856.97833	0.05117
2855.69256	0.05108
2854.40680	0.05109
2853.12103	0.05114
2851.83526	0.05114
2850.54949	0.05096
2849.26372	0.05060
2847.97795	0.05012
2846.69218	0.04958
2845.40641	0.04900
2844.12064	0.04838
2842.83488	0.04780
2841.54911	0.04734
2840.26334	0.04699
2838.97757	0.04661
2837.69180	0.04610
2836.40603	0.04547
2835.12026	0.04489
2833.83449	0.04445
2832.54873	0.04413
2831.26296	0.04385
2829.97719	0.04362
2828.69142	0.04344
2827.40565	0.04332
2826.11988	0.04320
2824.83411	0.04310
2823.54834	0.04300
2822.26257	0.04284
2820.97681	0.04251
2819.69104	0.04201
2818.40527	0.04147
2817.11950	0.04107
2815.83373	0.04084
2814.54796	0.04071
2813.26219	0.04060
2811.97642	0.04054
2810.69066	0.04054
2809.40489	0.04054
2808.11912	0.04042
2806.83335	0.04023
2805.54758	0.04006
2804.26181	0.03998
2802.97604	0.03996
2801.69027	0.03991
2800.40450	0.03976
2799.11874	0.03953
2797.83297	0.03933
2796.54720	0.03926
2795.26143	0.03928
2793.97566	0.03927
2792.68989	0.03910
2791.40412	0.03875
2790.11835	0.03830
2788.83259	0.03790
2787.54682	0.03766
2786.26105	0.03765
2784.97528	0.03783
2783.68951	0.03808
2782.40374	0.03824
2781.11797	0.03825
2779.83220	0.03822
2778.54643	0.03820
2777.26067	0.03810
2775.97490	0.03782
2774.68913	0.03746
2773.40336	0.03724
2772.11759	0.03721
2770.83182	0.03723
2769.54605	0.03717
2768.26028	0.03712
2766.97452	0.03719
2765.68875	0.03731
2764.40298	0.03730
2763.11721	0.03710
2761.83144	0.03684
2760.54567	0.03672
2759.25990	0.03679
2757.97413	0.03697
2756.68836	0.03716
2755.40260	0.03727
2754.11683	0.03728
2752.83106	0.03718
2751.54529	0.03706
2750.25952	0.03704
2748.97375	0.03714
2747.68798	0.03722
2746.40221	0.03715
2745.11645	0.03692
2743.83068	0.03662
2742.54491	0.03638
2741.25914	0.03623
2739.97337	0.03615
2738.68760	0.03608
2737.40183	0.03596
2736.11606	0.03584
2734.83029	0.03582
2733.54453	0.03589
2732.25876	0.03587
2730.97299	0.03568
2729.68722	0.03539
2728.40145	0.03519
2727.11568	0.03511
2725.82991	0.03507
2724.54414	0.03499
2723.25838	0.03487
2721.97261	0.03478
2720.68684	0.03475
2719.40107	0.03479
2718.11530	0.03486
2716.82953	0.03491
2715.54376	0.03490
2714.25799	0.03487
2712.97222	0.03491
2711.68646	0.03504
2710.40069	0.03519
2709.11492	0.03527
2707.82915	0.03525
2706.54338	0.03517
2705.25761	0.03506
2703.97184	0.03493
2702.68607	0.03481
2701.40031	0.03472
2700.11454	0.03465
2698.82877	0.03453
2697.54300	0.03431
2696.25723	0.03402
2694.97146	0.03375
2693.68569	0.03358
2692.39992	0.03359
2691.11415	0.03375
2689.82839	0.03397
2688.54262	0.03415
2687.25685	0.03429
2685.97108	0.03444
2684.68531	0.03459
2683.39954	0.03466
2682.11377	0.03459
2680.82800	0.03443
2679.54224	0.03424
2678.25647	0.03407
2676.97070	0.03395
2675.68493	0.03388
2674.39916	0.03380
2673.11339	0.03364
2671.82762	0.03340
2670.54185	0.03321
2669.25608	0.03319
2667.97032	0.03330
2666.68455	0.03343
2665.39878	0.03350
2664.11301	0.03349
2662.82724	0.03347
2661.54147	0.03354
2660.25570	0.03377
2658.96993	0.03408
2657.68417	0.03423
2656.39840	0.03402
2655.11263	0.03353
2653.82686	0.03311
2652.54109	0.03305
2651.25532	0.03331
2649.96955	0.03363
2648.68378	0.03378
2647.39801	0.03377
2646.11225	0.03369
2644.82648	0.03359
2643.54071	0.03350
2642.25494	0.03342
2640.96917	0.03338
2639.68340	0.03334
2638.39763	0.03326
2637.11186	0.03316
2635.82609	0.03305
2634.54033	0.03285
2633.25456	0.03254
2631.96879	0.03222
2630.68302	0.03197
2629.39725	0.03177
2628.11148	0.03152
2626.82571	0.03123
2625.53994	0.03103
2624.25418	0.03099
2622.96841	0.03105
2621.68264	0.03113
2620.39687	0.03120
2619.11110	0.03121
2617.82533	0.03109
2616.53956	0.03077
2615.25379	0.03033
2613.96802	0.02995
2612.68226	0.02975
2611.39649	0.02966
2610.11072	0.02962
2608.82495	0.02963
2607.53918	0.02976
2606.25341	0.03001
2604.96764	0.03024
2603.68187	0.03029
2602.39611	0.03013
2601.11034	0.02983
2599.82457	0.02953
2598.53880	0.02929
2597.25303	0.02904
2595.96726	0.02873
2594.68149	0.02840
2593.39572	0.02814
2592.10995	0.02801
2590.82419	0.02806
2589.53842	0.02821
2588.25265	0.02837
2586.96688	0.02838
2585.68111	0.02823
2584.39534	0.02802
2583.10957	0.02785
2581.82380	0.02775
2580.53804	0.02769
2579.25227	0.02771
2577.96650	0.02784
2576.68073	0.02811
2575.39496	0.02842
2574.10919	0.02859
2572.82342	0.02858
2571.53765	0.02850
2570.25188	0.02842
2568.96612	0.02826
2567.68035	0.02791
2566.39458	0.02751
2565.10881	0.02734
2563.82304	0.02749
2562.53727	0.02779
2561.25150	0.02796
2559.96573	0.02795
2558.67997	0.02784
2557.39420	0.02765
2556.10843	0.02737
2554.82266	0.02708
2553.53689	0.02692
2552.25112	0.02690
2550.96535	0.02683
2549.67958	0.02663
2548.39381	0.02637
2547.10805	0.02613
2545.82228	0.02588
2544.53651	0.02558
2543.25074	0.02534
2541.96497	0.02539
2540.67920	0.02579
2539.39343	0.02645
2538.10766	0.02716
2536.82190	0.02769
2535.53613	0.02788
2534.25036	0.02771
2532.96459	0.02728
2531.67882	0.02679
2530.39305	0.02637
2529.10728	0.02603
2527.82151	0.02571
2526.53574	0.02544
2525.24998	0.02527
2523.96421	0.02521
2522.67844	0.02518
2521.39267	0.02515
2520.10690	0.02521
2518.82113	0.02546
2517.53536	0.02582
2516.24959	0.02607
2514.96383	0.02608
2513.67806	0.02589
2512.39229	0.02563
2511.10652	0.02533
2509.82075	0.02507
2508.53498	0.02497
2507.24921	0.02511
2505.96344	0.02533
2504.67767	0.02539
2503.39191	0.02522
2502.10614	0.02495
2500.82037	0.02473
2499.53460	0.02461
2498.24883	0.02462
2496.96306	0.02473
2495.67729	0.02489
2494.39152	0.02498
2493.10576	0.02489
2491.81999	0.02457
2490.53422	0.02406
2489.24845	0.02356
2487.96268	0.02339
2486.67691	0.02374
2485.39114	0.02446
2484.10537	0.02513
2482.81960	0.02548
2481.53384	0.02546
2480.24807	0.02516
2478.96230	0.02463
2477.67653	0.02399
2476.39076	0.02350
2475.10499	0.02335
2473.81922	0.02352
2472.53345	0.02376
2471.24769	0.02387
2469.96192	0.02389
2468.67615	0.02399
2467.39038	0.02418
2466.10461	0.02435
2464.81884	0.02442
2463.53307	0.02440
2462.24730	0.02432
2460.96153	0.02412
2459.67577	0.02382
2458.39000	0.02367
2457.10423	0.02393
2455.81846	0.02450
2454.53269	0.02496
2453.24692	0.02502
2451.96115	0.02479
2450.67538	0.02455
2449.38962	0.02449
2448.10385	0.02460
2446.81808	0.02471
2445.53231	0.02464
2444.24654	0.02434
2442.96077	0.02400
2441.67500	0.02389
2440.38923	0.02408
2439.10346	0.02434
2437.81770	0.02442
2436.53193	0.02424
2435.24616	0.02399
2433.96039	0.02387
2432.67462	0.02392
2431.38885	0.02399
2430.10308	0.02385
2428.81731	0.02338
2427.53155	0.02272
2426.24578	0.02217
2424.96001	0.02185
2423.67424	0.02172
2422.38847	0.02170
2421.10270	0.02181
2419.81693	0.02207
2418.53116	0.02240
2417.24539	0.02271
2415.95963	0.02298
2414.67386	0.02328
2413.38809	0.02356
2412.10232	0.02368
2410.81655	0.02349
2409.53078	0.02302
2408.24501	0.02249
2406.95924	0.02216
2405.67347	0.02209
2404.38771	0.02220
2403.10194	0.02235
2401.81617	0.02248
2400.53040	0.02260
2399.24463	0.02256
2397.95886	0.02263
2396.67309	0.02283
2395.38732	0.02295
2394.10156	0.02284
2392.81579	0.02249
2391.53002	0.02208
2390.24425	0.02184
2388.95848	0.02188
2387.67271	0.02208
2386.38694	0.02231
2385.10117	0.02253
2383.81540	0.02279
2382.52964	0.02312
2381.24387	0.02352
2379.95810	0.02387
2378.67233	0.02407
2377.38656	0.02409
2376.10079	0.02396
2374.81502	0.02369
2373.52925	0.02337
2372.24349	0.02299
2370.95772	0.02270
2369.67195	0.02243
2368.38618	0.02227
2367.10041	0.02232
2365.81464	0.02252
2364.52887	0.02248
2363.24310	0.02237
2361.95733	0.02254
2360.67157	0.02313
2359.38580	0.02357
2358.10003	0.02380
2356.81426	0.02385
2355.52849	0.02375
2354.24272	0.02356
2352.95695	0.02332
2351.67118	0.02342
2350.38542	0.02388
2349.09965	0.02420
2347.81388	0.02415
2346.52811	0.02437
2345.24234	0.02482
2343.95657	0.02480
2342.67080	0.02422
2341.38503	0.02424
2340.09926	0.02498
2338.81350	0.02491
2337.52773	0.02392
2336.24196	0.02371
2334.95619	0.02410
2333.67042	0.02344
2332.38465	0.02201
2331.09888	0.02199
2329.81311	0.02221
2328.52735	0.02127
2327.24158	0.02185
2325.95581	0.02359
2324.67004	0.02435
2323.38427	0.02531
2322.09850	0.02645
2320.81273	0.02602
2319.52696	0.02573
2318.24119	0.02577
2316.95543	0.02529
2315.66966	0.02528
2314.38389	0.02541
2313.09812	0.02510
2311.81235	0.02500
2310.52658	0.02478
2309.24081	0.02462
2307.95504	0.02470
2306.66928	0.02455
2305.38351	0.02433
2304.09774	0.02390
2302.81197	0.02323
2301.52620	0.02261
2300.24043	0.02205
2298.95466	0.02171
2297.66889	0.02150
2296.38312	0.02135
2295.09736	0.02127
2293.81159	0.02133
2292.52582	0.02156
2291.24005	0.02184
2289.95428	0.02202
2288.66851	0.02207
2287.38274	0.02210
2286.09697	0.02223
2284.81121	0.02235
2283.52544	0.02221
2282.23967	0.02176
2280.95390	0.02131
2279.66813	0.02117
2278.38236	0.02136
2277.09659	0.02161
2275.81082	0.02166
2274.52505	0.02149
2273.23929	0.02128
2271.95352	0.02116
2270.66775	0.02107
2269.38198	0.02080
2268.09621	0.02030
2266.81044	0.01976
2265.52467	0.01943
2264.23890	0.01936
2262.95314	0.01941
2261.66737	0.01955
2260.38160	0.01986
2259.09583	0.02035
2257.81006	0.02083
2256.52429	0.02103
2255.23852	0.02086
2253.95275	0.02049
2252.66698	0.02016
2251.38122	0.02001
2250.09545	0.02024
2248.80968	0.02080
2247.52391	0.02022
2246.23814	0.01967
2244.95237	0.01960
2243.66660	0.01988
2242.38083	0.01992
2241.09507	0.01938
2239.80930	0.01847
2238.52353	0.01774
2237.23776	0.01751
2235.95199	0.01764
2234.66622	0.01772
2233.38045	0.01755
2232.09468	0.01736
2230.80891	0.01745
2229.52315	0.01761
2228.23738	0.01735
2226.95161	0.01651
2225.66584	0.01566
2224.38007	0.01552
2223.09430	0.01621
2221.80853	0.01709
2220.52276	0.01741
2219.23700	0.01704
2217.95123	0.01650
2216.66546	0.01641
2215.37969	0.01690
2214.09392	0.01763
2212.80815	0.01816
2211.52238	0.01820
2210.23661	0.01772
2208.95084	0.01678
2207.66508	0.01556
2206.37931	0.01433
2205.09354	0.01338
2203.80777	0.01281
2202.52200	0.01264
2201.23623	0.01290
2199.95046	0.01361
2198.66469	0.01461
2197.37893	0.01554
2196.09316	0.01609
2194.80739	0.01611
2193.52162	0.01564
2192.23585	0.01489
2190.95008	0.01416
2189.66431	0.01360
2188.37854	0.01313
2187.09277	0.01265
2185.80701	0.01212
2184.52124	0.01140
2183.23547	0.01032
2181.94970	0.00906
2180.66393	0.00835
2179.37816	0.00882
2178.09239	0.01021
2176.80662	0.01168
2175.52085	0.01269
2174.23509	0.01335
2172.94932	0.01378
2171.66355	0.01371
2170.37778	0.01279
2169.09201	0.01111
2167.80624	0.00908
2166.52047	0.00716
2165.23470	0.00574
2163.94894	0.00510
2162.66317	0.00512
2161.37740	0.00523
2160.09163	0.00481
2158.80586	0.00393
2157.52009	0.00332
2156.23432	0.00375
2154.94855	0.00535
2153.66278	0.00753
2152.37702	0.00939
2151.09125	0.01028
2149.80548	0.01001
2148.51971	0.00897
2147.23394	0.00786
2145.94817	0.00731
2144.66240	0.00759
2143.37663	0.00845
2142.09087	0.00943
2140.80510	0.01019
2139.51933	0.01062
2138.23356	0.01066
2136.94779	0.01020
2135.66202	0.00928
2134.37625	0.00838
2133.09048	0.00817
2131.80471	0.00886
2130.51895	0.00999
2129.23318	0.01093
2127.94741	0.01144
2126.66164	0.01177
2125.37587	0.01215
2124.09010	0.01257
2122.80433	0.01291
2121.51856	0.01320
2120.23280	0.01357
2118.94703	0.01399
2117.66126	0.01419
2116.37549	0.01395
2115.08972	0.01336
2113.80395	0.01284
2112.51818	0.01267
2111.23241	0.01277
2109.94664	0.01290
2108.66088	0.01289
2107.37511	0.01272
2106.08934	0.01240
2104.80357	0.01197
2103.51780	0.01159
2102.23203	0.01142
2100.94626	0.01158
2099.66049	0.01299
2098.37473	0.01345
2097.08896	0.01283
2095.80319	0.01188
2094.51742	0.01125
2093.23165	0.01130
2091.94588	0.01189
2090.66011	0.01254
2089.37434	0.01288
2088.08857	0.01298
2086.80281	0.01317
2085.51704	0.01367
2084.23127	0.01437
2082.94550	0.01498
2081.65973	0.01537
2080.37396	0.01559
2079.08819	0.01565
2077.80242	0.01541
2076.51666	0.01482
2075.23089	0.01410
2073.94512	0.01364
2072.65935	0.01364
2071.37358	0.01405
2070.08781	0.01463
2068.80204	0.01517
2067.51627	0.01544
2066.23050	0.01527
2064.94474	0.01459
2063.65897	0.01352
2062.37320	0.01235
2061.08743	0.01158
2059.80166	0.01159
2058.51589	0.01228
2057.23012	0.01305
2055.94435	0.01339
2054.65859	0.01331
2053.37282	0.01321
2052.08705	0.01317
2050.80128	0.01287
2049.51551	0.01208
2048.22974	0.01113
2046.94397	0.01057
2045.65820	0.01047
2044.37243	0.01035
2043.08667	0.00998
2041.80090	0.00967
2040.51513	0.00982
2039.22936	0.01023
2037.94359	0.01032
2036.65782	0.00984
2035.37205	0.00904
2034.08628	0.00827
2032.80052	0.00762
2031.51475	0.00701
2030.22898	0.00650
2028.94321	0.00626
2027.65744	0.00637
2026.37167	0.00661
2025.08590	0.00660
2023.80013	0.00605
2022.51436	0.00502
2021.22860	0.00391
2019.94283	0.00329
2018.65706	0.00361
2017.37129	0.00490
2016.08552	0.00661
2014.79975	0.00794
2013.51398	0.00849
2012.22821	0.00855
2010.94245	0.00874
2009.65668	0.00927
2008.37091	0.00983
2007.08514	0.00998
2005.79937	0.00972
2004.51360	0.00941
2003.22783	0.00933
2001.94206	0.00942
2000.65629	0.00949
1999.37053	0.00957
1998.08476	0.00989
1996.79899	0.01061
1995.51322	0.01157
1994.22745	0.01236
1992.94168	0.01264
1991.65591	0.01231
1990.37014	0.01153
1989.08438	0.01068
1987.79861	0.01019
1986.51284	0.01027
1985.22707	0.01084
1983.94130	0.01161
1982.65553	0.01240
1981.36976	0.01315
1980.08399	0.01380
1978.79822	0.01426
1977.51246	0.01433
1976.22669	0.01384
1974.94092	0.01273
1973.65515	0.01128
1972.36938	0.01005
1971.08361	0.00948
1969.79784	0.00955
1968.51207	0.00978
1967.22631	0.00974
1965.94054	0.00944
1964.65477	0.00922
1963.36900	0.00924
1962.08323	0.00930
1960.79746	0.00904
1959.51169	0.00847
1958.22592	0.00797
1956.94015	0.00791
1955.65439	0.00838
1954.36862	0.00919
1953.08285	0.01007
1951.79708	0.01082
1950.51131	0.01136
1949.22554	0.01169
1947.93977	0.01191
1946.65400	0.01216
1945.36823	0.01253
1944.08247	0.01302
1942.79670	0.01347
1941.51093	0.01364
1940.22516	0.01347
1938.93939	0.01308
1937.65362	0.01271
1936.36785	0.01243
1935.08208	0.01218
1933.79632	0.01206
1932.51055	0.01232
1931.22478	0.01308
1929.93901	0.01401
1928.65324	0.01447
1927.36747	0.01406
1926.08170	0.01299
1924.79593	0.01196
1923.51016	0.01159
1922.22440	0.01199
1920.93863	0.01276
1919.65286	0.01335
1918.36709	0.01346
1917.08132	0.01317
1915.79555	0.01279
1914.50978	0.01263
1913.22401	0.01287
1911.93825	0.01340
1910.65248	0.01398
1909.36671	0.01437
1908.08094	0.01450
1906.79517	0.01441
1905.50940	0.01425
1904.22363	0.01414
1902.93786	0.01416
1901.65209	0.01421
1900.36633	0.01419
1899.08056	0.01409
1897.79479	0.01403
1896.50902	0.01409
1895.22325	0.01426
1893.93748	0.01437
1892.65171	0.01435
1891.36594	0.01421
1890.08018	0.01411
1888.79441	0.01412
1887.50864	0.01417
1886.22287	0.01410
1884.93710	0.01385
1883.65133	0.01351
1882.36556	0.01328
1881.07979	0.01330
1879.79402	0.01357
1878.50826	0.01387
1877.22249	0.01397
1875.93672	0.01389
1874.65095	0.01385
1873.36518	0.01403
1872.07941	0.01437
1870.79364	0.01461
1869.50787	0.01457
1868.22211	0.01434
1866.93634	0.01407
1865.65057	0.01384
1864.36480	0.01368
1863.07903	0.01365
1861.79326	0.01379
1860.50749	0.01407
1859.22172	0.01435
1857.93595	0.01445
1856.65019	0.01435
1855.36442	0.01415
1854.07865	0.01398
1852.79288	0.01389
1851.50711	0.01383
1850.22134	0.01381
1848.93557	0.01387
1847.64980	0.01402
1846.36404	0.01412
1845.07827	0.01408
1843.79250	0.01396
1842.50673	0.01387
1841.22096	0.01386
1839.93519	0.01392
1838.64942	0.01404
1837.36365	0.01411
1836.07788	0.01406
1834.79212	0.01392
1833.50635	0.01381
1832.22058	0.01381
1830.93481	0.01395
1829.64904	0.01423
1828.36327	0.01455
1827.07750	0.01473
1825.79173	0.01472
1824.50597	0.01464
1823.22020	0.01460
1821.93443	0.01460
1820.64866	0.01460
1819.36289	0.01452
1818.07712	0.01429
1816.79135	0.01393
1815.50558	0.01359
1814.21981	0.01341
1812.93405	0.01342
1811.64828	0.01352
1810.36251	0.01359
1809.07674	0.01357
1807.79097	0.01356
1806.50520	0.01364
1805.21943	0.01382
1803.93366	0.01403
1802.64790	0.01419
1801.36213	0.01429
1800.07636	0.01434
1798.79059	0.01437
1797.50482	0.01439
1796.21905	0.01442
1794.93328	0.01443
1793.64751	0.01444
1792.36174	0.01449
1791.07598	0.01461
1789.79021	0.01470
1788.50444	0.01473
1787.21867	0.01473
1785.93290	0.01475
1784.64713	0.01482
1783.36136	0.01491
1782.07559	0.01493
1780.78983	0.01485
1779.50406	0.01472
1778.21829	0.01463
1776.93252	0.01467
1775.64675	0.01480
1774.36098	0.01490
1773.07521	0.01491
1771.78944	0.01491
1770.50367	0.01489
1769.21791	0.01481
1767.93214	0.01473
1766.64637	0.01476
1765.36060	0.01482
1764.07483	0.01480
1762.78906	0.01468
1761.50329	0.01459
1760.21752	0.01458
1758.93176	0.01458
1757.64599	0.01455
1756.36022	0.01457
1755.07445	0.01470
1753.78868	0.01482
1752.50291	0.01484
1751.21714	0.01481
1749.93137	0.01479
1748.64560	0.01475
1747.35984	0.01468
1746.07407	0.01464
1744.78830	0.01471
1743.50253	0.01489
1742.21676	0.01511
1740.93099	0.01526
1739.64522	0.01539
1738.35945	0.01558
1737.07369	0.01577
1735.78792	0.01577
1734.50215	0.01567
1733.21638	0.01563
1731.93061	0.01566
1730.64484	0.01561
1729.35907	0.01551
1728.07330	0.01550
1726.78753	0.01561
1725.50177	0.01577
1724.21600	0.01596
1722.93023	0.01629
1721.64446	0.01677
1720.35869	0.01725
1719.07292	0.01751
1717.78715	0.01757
1716.50138	0.01756
1715.21561	0.01757
1713.92985	0.01764
1712.64408	0.01785
1711.35831	0.01817
1710.07254	0.01852
1708.78677	0.01886
1707.50100	0.01921
1706.21523	0.01970
1704.92946	0.02048
1703.64370	0.02143
1702.35793	0.02220
1701.07216	0.02275
1699.78639	0.02338
1698.50062	0.02410
1697.21485	0.02465
1695.92908	0.02500
1694.64331	0.02546
1693.35754	0.02605
1692.07178	0.02663
1690.78601	0.02730
1689.50024	0.02822
1688.21447	0.02929
1686.92870	0.03021
1685.64293	0.03083
1684.35716	0.03134
1683.07139	0.03190
1681.78563	0.03239
1680.49986	0.03280
1679.21409	0.03333
1677.92832	0.03403
1676.64255	0.03474
1675.35678	0.03542
1674.07101	0.03609
1672.78524	0.03672
1671.49947	0.03720
1670.21371	0.03761
1668.92794	0.03809
1667.64217	0.03871
1666.35640	0.03940
1665.07063	0.04006
1663.78486	0.04067
1662.49909	0.04125
1661.21332	0.04181
1659.92756	0.04238
1658.64179	0.04309
1657.35602	0.04405
1656.07025	0.04501
1654.78448	0.04559
1653.49871	0.04582
1652.21294	0.04610
1650.92717	0.04653
1649.64140	0.04685
1648.35564	0.04692
1647.06987	0.04692
1645.78410	0.04703
1644.49833	0.04719
1643.21256	0.04727
1641.92679	0.04725
1640.64102	0.04726
1639.35525	0.04734
1638.06949	0.04733
1636.78372	0.04710
1635.49795	0.04674
1634.21218	0.04638
1632.92641	0.04599
1631.64064	0.04550
1630.35487	0.04499
1629.06910	0.04454
1627.78333	0.04418
1626.49757	0.04382
1625.21180	0.04333
1623.92603	0.04273
1622.64026	0.04216
1621.35449	0.04172
1620.06872	0.04130
1618.78295	0.04073
1617.49718	0.04001
1616.21142	0.03933
1614.92565	0.03875
1613.63988	0.03818
1612.35411	0.03757
1611.06834	0.03702
1609.78257	0.03658
1608.49680	0.03625
1607.21103	0.03600
1605.92526	0.03578
1604.63950	0.03555
1603.35373	0.03531
1602.06796	0.03507
1600.78219	0.03484
1599.49642	0.03464
1598.21065	0.03445
1596.92488	0.03426
1595.63911	0.03407
1594.35335	0.03393
1593.06758	0.03387
1591.78181	0.03389
1590.49604	0.03393
1589.21027	0.03395
1587.92450	0.03395
1586.63873	0.03398
1585.35296	0.03405
1584.06719	0.03417
1582.78143	0.03432
1581.49566	0.03455
1580.20989	0.03490
1578.92412	0.03528
1577.63835	0.03550
1576.35258	0.03560
1575.06681	0.03578
1573.78104	0.03603
1572.49528	0.03622
1571.20951	0.03636
1569.92374	0.03655
1568.63797	0.03686
1567.35220	0.03719
1566.06643	0.03750
1564.78066	0.03791
1563.49489	0.03851
1562.20912	0.03913
1560.92336	0.03950
1559.63759	0.03965
1558.35182	0.03979
1557.06605	0.03994
1555.78028	0.03995
1554.49451	0.03986
1553.20874	0.03986
1551.92297	0.03994
1550.63721	0.04003
1549.35144	0.04012
1548.06567	0.04024
1546.77990	0.04039
1545.49413	0.04058
1544.20836	0.04089
1542.92259	0.04122
1541.63682	0.04132
1540.35105	0.04113
1539.06529	0.04086
1537.77952	0.04069
1536.49375	0.04057
1535.20798	0.04038
1533.92221	0.04020
1532.63644	0.04013
1531.35067	0.04014
1530.06490	0.04013
1528.77914	0.04009
1527.49337	0.04008
1526.20760	0.04016
1524.92183	0.04033
1523.63606	0.04043
1522.35029	0.04039
1521.06452	0.04031
1519.77875	0.04028
1518.49298	0.04023
1517.20722	0.04011
1515.92145	0.04004
1514.63568	0.04006
1513.34991	0.04016
1512.06414	0.04039
1510.77837	0.04079
1509.49260	0.04120
1508.20683	0.04144
1506.92107	0.04146
1505.63530	0.04144
1504.34953	0.04143
1503.06376	0.04135
1501.77799	0.04124
1500.49222	0.04125
1499.20645	0.04137
1497.92068	0.04147
1496.63491	0.04150
1495.34915	0.04150
1494.06338	0.04150
1492.77761	0.04147
1491.49184	0.04144
1490.20607	0.04145
1488.92030	0.04153
1487.63453	0.04165
1486.34876	0.04181
1485.06299	0.04203
1483.77723	0.04229
1482.49146	0.04258
1481.20569	0.04293
1479.91992	0.04338
1478.63415	0.04393
1477.34838	0.04458
1476.06261	0.04528
1474.77684	0.04592
1473.49108	0.04645
1472.20531	0.04694
1470.91954	0.04752
1469.63377	0.04817
1468.34800	0.04881
1467.06223	0.04940
1465.77646	0.04992
1464.49069	0.05045
1463.20492	0.05107
1461.91916	0.05182
1460.63339	0.05264
1459.34762	0.05338
1458.06185	0.05396
1456.77608	0.05450
1455.49031	0.05505
1454.20454	0.05549
1452.91877	0.05572
1451.63301	0.05581
1450.34724	0.05587
1449.06147	0.05588
1447.77570	0.05584
1446.48993	0.05580
1445.20416	0.05575
1443.91839	0.05567
1442.63262	0.05559
1441.34685	0.05553
1440.06109	0.05545
1438.77532	0.05527
1437.48955	0.05501
1436.20378	0.05480
1434.91801	0.05472
1433.63224	0.05468
1432.34647	0.05461
1431.06070	0.05454
1429.77494	0.05455
1428.48917	0.05467
1427.20340	0.05489
1425.91763	0.05516
1424.63186	0.05546
1423.34609	0.05582
1422.06032	0.05618
1420.77455	0.05648
1419.48878	0.05677
1418.20302	0.05706
1416.91725	0.05726
1415.63148	0.05731
1414.34571	0.05727
1413.05994	0.05723
1411.77417	0.05721
1410.48840	0.05719
1409.20263	0.05712
1407.91687	0.05695
1406.63110	0.05663
1405.34533	0.05618
1404.05956	0.05565
1402.77379	0.05512
1401.48802	0.05458
1400.20225	0.05401
1398.91648	0.05342
1397.63071	0.05279
1396.34495	0.05206
1395.05918	0.05126
1393.77341	0.05048
1392.48764	0.04977
1391.20187	0.04908
1389.91610	0.04836
1388.63033	0.04763
1387.34456	0.04693
1386.05880	0.04627
1384.77303	0.04565
1383.48726	0.04502
1382.20149	0.04442
1380.91572	0.04385
1379.62995	0.04331
1378.34418	0.04276
1377.05841	0.04217
1375.77264	0.04152
1374.48688	0.04079
1373.20111	0.04003
1371.91534	0.03926
1370.62957	0.03847
1369.34380	0.03769
1368.05803	0.03697
1366.77226	0.03630
1365.48649	0.03568
1364.20073	0.03505
1362.91496	0.03442
1361.62919	0.03376
1360.34342	0.03309
1359.05765	0.03245
1357.77188	0.03189
1356.48611	0.03147
1355.20034	0.03115
1353.91457	0.03088
1352.62881	0.03062
1351.34304	0.03038
1350.05727	0.03020
1348.77150	0.03006
1347.48573	0.02992
1346.19996	0.02976
1344.91419	0.02961
1343.62842	0.02950
1342.34266	0.02942
1341.05689	0.02930
1339.77112	0.02911
1338.48535	0.02889
1337.19958	0.02872
1335.91381	0.02863
1334.62804	0.02856
1333.34227	0.02842
1332.05650	0.02817
1330.77074	0.02785
1329.48497	0.02754
1328.19920	0.02729
1326.91343	0.02709
1325.62766	0.02694
1324.34189	0.02683
1323.05612	0.02672
1321.77035	0.02663
1320.48459	0.02653
1319.19882	0.02641
1317.91305	0.02626
1316.62728	0.02609
1315.34151	0.02589
1314.05574	0.02568
1312.76997	0.02547
1311.48420	0.02527
1310.19843	0.02506
1308.91267	0.02485
1307.62690	0.02466
1306.34113	0.02450
1305.05536	0.02436
1303.76959	0.02425
1302.48382	0.02419
1301.19805	0.02418
1299.91228	0.02416
1298.62652	0.02406
1297.34075	0.02387
1296.05498	0.02362
1294.76921	0.02342
1293.48344	0.02332
1292.19767	0.02329
1290.91190	0.02328
1289.62613	0.02326
1288.34036	0.02325
1287.05460	0.02327
1285.76883	0.02332
1284.48306	0.02336
1283.19729	0.02335
1281.91152	0.02328
1280.62575	0.02319
1279.33998	0.02310
1278.05421	0.02304
1276.76845	0.02298
1275.48268	0.02292
1274.19691	0.02285
1272.91114	0.02279
1271.62537	0.02273
1270.33960	0.02268
1269.05383	0.02265
1267.76806	0.02263
1266.48229	0.02261
1265.19653	0.02256
1263.91076	0.02250
1262.62499	0.02247
1261.33922	0.02246
1260.05345	0.02247
1258.76768	0.02247
1257.48191	0.02245
1256.19614	0.02245
1254.91037	0.02251
1253.62461	0.02261
1252.33884	0.02270
1251.05307	0.02275
1249.76730	0.02272
1248.48153	0.02266
1247.19576	0.02262
1245.90999	0.02264
1244.62422	0.02268
1243.33846	0.02270
1242.05269	0.02268
1240.76692	0.02263
1239.48115	0.02257
1238.19538	0.02252
1236.90961	0.02248
1235.62384	0.02245
1234.33807	0.02243
1233.05230	0.02240
1231.76654	0.02232
1230.48077	0.02220
1229.19500	0.02206
1227.90923	0.02194
1226.62346	0.02187
1225.33769	0.02183
1224.05192	0.02178
1222.76615	0.02170
1221.48039	0.02157
1220.19462	0.02142
1218.90885	0.02126
1217.62308	0.02112
1216.33731	0.02100
1215.05154	0.02091
1213.76577	0.02085
1212.48000	0.02082
1211.19423	0.02083
1209.90847	0.02088
1208.62270	0.02098
1207.33693	0.02111
1206.05116	0.02123
1204.76539	0.02133
1203.47962	0.02140
1202.19385	0.02147
1200.90808	0.02148
1199.62232	0.02139
1198.33655	0.02143
1197.05078	0.02144
1195.76501	0.02146
1194.47924	0.02151
1193.19347	0.02157
1191.90770	0.02159
1190.62193	0.02156
1189.33616	0.02151
1188.05040	0.02147
1186.76463	0.02144
1185.47886	0.02142
1184.19309	0.02145
1182.90732	0.02153
1181.62155	0.02166
1180.33578	0.02180
1179.05001	0.02193
1177.76425	0.02203
1176.47848	0.02215
1175.19271	0.02230
1173.90694	0.02246
1172.62117	0.02259
1171.33540	0.02271
1170.04963	0.02283
1168.76386	0.02299
1167.47809	0.02320
1166.19233	0.02343
1164.90656	0.02367
1163.62079	0.02393
1162.33502	0.02417
1161.04925	0.02435
1159.76348	0.02444
1158.47771	0.02448
1157.19194	0.02453
1155.90618	0.02465
1154.62041	0.02480
1153.33464	0.02492
1152.04887	0.02499
1150.76310	0.02506
1149.47733	0.02523
1148.19156	0.02553
1146.90579	0.02590
1145.62002	0.02628
1144.33426	0.02662
1143.04849	0.02690
1141.76272	0.02720
1140.47695	0.02758
1139.19118	0.02806
1137.90541	0.02861
1136.61964	0.02917
1135.33387	0.02970
1134.04811	0.03028
1132.76234	0.03100
1131.47657	0.03191
1130.19080	0.03294
1128.90503	0.03401
1127.61926	0.03512
1126.33349	0.03628
1125.04772	0.03752
1123.76195	0.03881
1122.47619	0.04011
1121.19042	0.04144
1119.90465	0.04282
1118.61888	0.04433
1117.33311	0.04594
1116.04734	0.04759
1114.76157	0.04919
1113.47580	0.05070
1112.19004	0.05211
1110.90427	0.05349
1109.61850	0.05492
1108.33273	0.05641
1107.04696	0.05788
1105.76119	0.05921
1104.47542	0.06040
1103.18965	0.06151
1101.90388	0.06265
1100.61812	0.06383
1099.33235	0.06497
1098.04658	0.06602
1096.76081	0.06698
1095.47504	0.06789
1094.18927	0.06877
1092.90350	0.06960
1091.61773	0.07040
1090.33197	0.07117
1089.04620	0.07193
1087.76043	0.07268
1086.47466	0.07343
1085.18889	0.07422
1083.90312	0.07506
1082.61735	0.07593
1081.33158	0.07684
1080.04581	0.07780
1078.76005	0.07878
1077.47428	0.07978
1076.18851	0.08077
1074.90274	0.08181
1073.61697	0.08294
1072.33120	0.08420
1071.04543	0.08557
1069.75966	0.08699
1068.47390	0.08840
1067.18813	0.08981
1065.90236	0.09126
1064.61659	0.09280
1063.33082	0.09439
1062.04505	0.09602
1060.75928	0.09764
1059.47351	0.09926
1058.18774	0.10083
1056.90198	0.10234
1055.61621	0.10376
1054.33044	0.10511
1053.04467	0.10643
1051.75890	0.10779
1050.47313	0.10920
1049.18736	0.11066
1047.90159	0.11213
1046.61583	0.11362
1045.33006	0.11510
1044.04429	0.11657
1042.75852	0.11801
1041.47275	0.11940
1040.18698	0.12077
1038.90121	0.12220
1037.61544	0.12374
1036.32967	0.12534
1035.04391	0.12690
1033.75814	0.12831
1032.47237	0.12948
1031.18660	0.13043
1029.90083	0.13122
1028.61506	0.13193
1027.32929	0.13261
1026.04352	0.13327
1024.75775	0.13386
1023.47199	0.13433
1022.18622	0.13460
1020.90045	0.13463
1019.61468	0.13444
1018.32891	0.13413
1017.04314	0.13372
1015.75737	0.13317
1014.47160	0.13242
1013.18584	0.13146
1011.90007	0.13032
1010.61430	0.12906
1009.32853	0.12768
1008.04276	0.12620
1006.75699	0.12464
1005.47122	0.12299
1004.18545	0.12126
1002.89968	0.11939
1001.61392	0.11737
1000.32815	0.11525
999.04238	0.11308
997.75661	0.11090
996.47084	0.10873
995.18507	0.10654
993.89930	0.10435
992.61353	0.10214
991.32777	0.09991
990.04200	0.09767
988.75623	0.09546
987.47046	0.09336
986.18469	0.09141
984.89892	0.08956
983.61315	0.08774
982.32738	0.08587
981.04161	0.08398
979.75585	0.08216
978.47008	0.08042
977.18431	0.07876
975.89854	0.07716
974.61277	0.07562
973.32700	0.07419
972.04123	0.07297
970.75546	0.07200
969.46970	0.07129
968.18393	0.07080
966.89816	0.07045
965.61239	0.07022
964.32662	0.07002
963.04085	0.06981
961.75508	0.06959
960.46931	0.06938
959.18354	0.06914
957.89778	0.06875
956.61201	0.06814
955.32624	0.06731
954.04047	0.06631
952.75470	0.06519
951.46893	0.06404
950.18316	0.06292
948.89739	0.06184
947.61163	0.06082
946.32586	0.05986
945.04009	0.05900
943.75432	0.05819
942.46855	0.05738
941.18278	0.05653
939.89701	0.05565
938.61124	0.05474
937.32547	0.05380
936.03971	0.05287
934.75394	0.05205
933.46817	0.05139
932.18240	0.05085
930.89663	0.05033
929.61086	0.04976
928.32509	0.04912
927.03932	0.04846
925.75356	0.04784
924.46779	0.04729
923.18202	0.04680
921.89625	0.04633
920.61048	0.04591
919.32471	0.04556
918.03894	0.04524
916.75317	0.04488
915.46740	0.04444
914.18164	0.04399
912.89587	0.04360
911.61010	0.04322
910.32433	0.04277
909.03856	0.04222
907.75279	0.04166
906.46702	0.04120
905.18125	0.04084
903.89549	0.04051
902.60972	0.04015
901.32395	0.03978
900.03818	0.03943
898.75241	0.03911
897.46664	0.03877
896.18087	0.03836
894.89510	0.03789
893.60933	0.03746
892.32357	0.03720
891.03780	0.03710
889.75203	0.03707
888.46626	0.03705
887.18049	0.03710
885.89472	0.03735
884.60895	0.03789
883.32318	0.03870
882.03742	0.03969
880.75165	0.04070
879.46588	0.04160
878.18011	0.04234
876.89434	0.04296
875.60857	0.04353
874.32280	0.04400
873.03703	0.04425
871.75126	0.04422
870.46550	0.04391
869.17973	0.04337
867.89396	0.04263
866.60819	0.04168
865.32242	0.04057
864.03665	0.03944
862.75088	0.03841
861.46511	0.03756
860.17935	0.03686
858.89358	0.03626
857.60781	0.03571
856.32204	0.03518
855.03627	0.03465
853.75050	0.03413
852.46473	0.03364
851.17896	0.03322
849.89319	0.03291
848.60743	0.03267
847.32166	0.03245
846.03589	0.03223
844.75012	0.03201
843.46435	0.03181
842.17858	0.03163
840.89281	0.03144
839.60704	0.03121
838.32128	0.03095
837.03551	0.03069
835.74974	0.03048
834.46397	0.03031
833.17820	0.03016
831.89243	0.03004
830.60666	0.02997
829.32089	0.02995
828.03512	0.02990
826.74936	0.02980
825.46359	0.02964
824.17782	0.02947
822.89205	0.02935
821.60628	0.02928
820.32051	0.02920
819.03474	0.02907
817.74897	0.02894
816.46321	0.02887
815.17744	0.02886
813.89167	0.02886
812.60590	0.02884
811.32013	0.02880
810.03436	0.02879
808.74859	0.02884
807.46282	0.02896
806.17705	0.02917
804.89129	0.02940
803.60552	0.02962
802.31975	0.02982
801.03398	0.03002
799.74821	0.03026
798.46244	0.03049
797.17667	0.03067
795.89090	0.03075
794.60513	0.03076
793.31937	0.03075
792.03360	0.03075
790.74783	0.03078
789.46206	0.03084
788.17629	0.03091
786.89052	0.03095
785.60475	0.03097
784.31898	0.03097
783.03322	0.03100
781.74745	0.03104
780.46168	0.03109
779.17591	0.03114
777.89014	0.03116
776.60437	0.03110
775.31860	0.03099
774.03283	0.03089
772.74706	0.03088
771.46130	0.03092
770.17553	0.03096
768.88976	0.03093
767.60399	0.03086
766.31822	0.03080
765.03245	0.03081
763.74668	0.03090
762.46091	0.03094
761.17515	0.03085
759.88938	0.03065
758.60361	0.03053
757.31784	0.03061
756.03207	0.03080
754.74630	0.03092
753.46053	0.03086
752.17476	0.03068
750.88899	0.03048
749.60323	0.03034
748.31746	0.03028
747.03169	0.03030
745.74592	0.03033
744.46015	0.03025
743.17438	0.03005
741.88861	0.02985
740.60284	0.02972
739.31708	0.02962
738.03131	0.02946
736.74554	0.02927
735.45977	0.02916
734.17400	0.02914
732.88823	0.02914
731.60246	0.02911
730.31669	0.02912
729.03092	0.02921
727.74516	0.02930
726.45939	0.02931
725.17362	0.02921
723.88785	0.02889
722.60208	0.02898
721.31631	0.02931
720.03054	0.02963
718.74477	0.02988
717.45901	0.03001
716.17324	0.02996
714.88747	0.02974
713.60170	0.02944
712.31593	0.02915
711.03016	0.02892
709.74439	0.02877
708.45862	0.02867
707.17285	0.02859
705.88709	0.02852
704.60132	0.02848
703.31555	0.02850
702.02978	0.02859
700.74401	0.02876
699.45824	0.02901
698.17247	0.02930
696.88670	0.02957
695.60094	0.02976
694.31517	0.02987
693.02940	0.02988
691.74363	0.02981
690.45786	0.02968
689.17209	0.02951
687.88632	0.02931
686.60055	0.02910
685.31478	0.02888
684.02902	0.02869
682.74325	0.02854
681.45748	0.02840
680.17171	0.02822
678.88594	0.02806
677.60017	0.02799
676.31440	0.02801
675.02863	0.02805
673.74287	0.02803
672.45710	0.02800
671.17133	0.02806
669.88556	0.02811
668.59979	0.02778
667.31402	0.02771
666.02825	0.02810
664.74248	0.02800
663.45671	0.02776
662.17095	0.02758
660.88518	0.02743
659.59941	0.02733
658.31364	0.02730
657.02787	0.02733
655.74210	0.02737
654.45633	0.02741
653.17056	0.02747
651.88480	0.02754
650.59903	0.02761
649.31326	0.02763
648.02749	0.02758
646.74172	0.02749
645.45595	0.02743
644.17018	0.02745
642.88441	0.02747
641.59864	0.02742
640.31288	0.02730
639.02711	0.02719
637.74134	0.02717
636.45557	0.02725
635.16980	0.02739
633.88403	0.02756
632.59826	0.02772
631.31249	0.02801
630.02673	0.02910
628.74096	0.03078
627.45519	0.03030
626.16942	0.03231
624.88365	0.03570
623.59788	0.03808
622.31211	0.03870
621.02634	0.03852
619.74057	0.03901
618.45481	0.04033
617.16904	0.04124
615.88327	0.04083
614.59750	0.03962
613.31173	0.03904
612.02596	0.04021
610.74019	0.04308
609.45442	0.04661
608.16866	0.04993
606.88289	0.05294
605.59712	0.05575
604.31135	0.05805
603.02558	0.05923
601.73981	0.05912
600.45404	0.05810
599.16827	0.05669
597.88250	0.05515
596.59674	0.05357
595.31097	0.05202
594.02520	0.05068
592.73943	0.04973
591.45366	0.04924
590.16789	0.04912
588.88212	0.04922
587.59635	0.04945
586.31059	0.04982
585.02482	0.05033
583.73905	0.05092
582.45328	0.05160
581.16751	0.05239
579.88174	0.05334
578.59597	0.05444
577.31020	0.05566
576.02443	0.05692
574.73867	0.05815
573.45290	0.05929
572.16713	0.06036
570.88136	0.06142
569.59559	0.06254
568.30982	0.06377
567.02405	0.06510
565.73828	0.06642
564.45251	0.06757
563.16675	0.06836
561.88098	0.06868
560.59521	0.06850
559.30944	0.06780
558.02367	0.06656
556.73790	0.06484
555.45213	0.06278
554.16636	0.06060
552.88060	0.05845
551.59483	0.05643
550.30906	0.05459
549.02329	0.05299
547.73752	0.05167
546.45175	0.05067
545.16598	0.04987
543.88021	0.04910
542.59444	0.04824
541.30868	0.04732
540.02291	0.04647
538.73714	0.04580
537.45137	0.04529
536.16560	0.04485
534.87983	0.04438
533.59406	0.04385
532.30829	0.04325
531.02253	0.04264
529.73676	0.04211
528.45099	0.04169
527.16522	0.04139
525.87945	0.04114
524.59368	0.04089
523.30791	0.04063
522.02214	0.04033
520.73637	0.04001
519.45061	0.03967
518.16484	0.03929
516.87907	0.03881
515.59330	0.03819
514.30753	0.03752
513.02176	0.03698
511.73599	0.03669
510.45022	0.03655
509.16446	0.03639
507.87869	0.03610
506.59292	0.03570
505.30715	0.03531
504.02138	0.03499
502.73561	0.03476
501.44984	0.03456
500.16407	0.03430
498.87830	0.03394
497.59254	0.03354
496.30677	0.03323
495.02100	0.03311
493.73523	0.03314
492.44946	0.03321
491.16369	0.03322
489.87792	0.03310
488.59215	0.03288
487.30639	0.03263
486.02062	0.03247
484.73485	0.03246
483.44908	0.03258
482.16331	0.03278
480.87754	0.03304
479.59177	0.03335
478.30600	0.03371
477.02023	0.03410
475.73447	0.03447
474.44870	0.03482
473.16293	0.03518
471.87716	0.03558
470.59139	0.03596
469.30562	0.03626
468.01985	0.03645
466.73408	0.03656
465.44832	0.03659
464.16255	0.03648
462.87678	0.03622
461.59101	0.03586
460.30524	0.03546
459.01947	0.03508
457.73370	0.03478
456.44793	0.03457
455.16216	0.03440
453.87640	0.03419
452.59063	0.03389
451.30486	0.03353
450.01909	0.03317
448.73332	0.03285
447.44755	0.03261
446.16178	0.03241
444.87601	0.03225
443.59025	0.03210
442.30448	0.03197
441.01871	0.03187
439.73294	0.03179
438.44717	0.03173
437.16140	0.03165
435.87563	0.03155
434.58986	0.03145
433.30409	0.03137
432.01833	0.03133
430.73256	0.03131
429.44679	0.03129
428.16102	0.03126
426.87525	0.03122
425.58948	0.03114
424.30371	0.03101
423.01794	0.03084
421.73218	0.03064
420.44641	0.03042
419.16064	0.03021
417.87487	0.02999
416.58910	0.02972
415.30333	0.02938
414.01756	0.02899
412.73179	0.02861
411.44602	0.02823
410.16026	0.02787
408.87449	0.02754
407.58872	0.02727
406.30295	0.02706
405.01718	0.02692
403.73141	0.02685
402.44564	0.02687
401.15987	0.02699
399.87411	0.02717
