3997.45528	0.04612
3996.16951	0.04610
3994.88374	0.04577
3993.59798	0.04525
3992.31221	0.04460
3991.02644	0.04365
3989.74067	0.04248
3988.45490	0.04171
3987.16913	0.04202
3985.88336	0.04347
3984.59759	0.04530
3983.31183	0.04661
3982.02606	0.04705
3980.74029	0.04690
3979.45452	0.04656
3978.16875	0.04612
3976.88298	0.04545
3975.59721	0.04460
3974.31144	0.04391
3973.02567	0.04384
3971.73991	0.04438
3970.45414	0.04507
3969.16837	0.04543
3967.88260	0.04545
3966.59683	0.04539
3965.31106	0.04533
3964.02529	0.04506
3962.73952	0.04450
3961.45376	0.04393
3960.16799	0.04370
3958.88222	0.04386
3957.59645	0.04422
3956.31068	0.04449
3955.02491	0.04457
3953.73914	0.04451
3952.45337	0.04448
3951.16760	0.04454
3949.88184	0.04460
3948.59607	0.04454
3947.31030	0.04422
3946.02453	0.04360
3944.73876	0.04283
3943.45299	0.04236
3942.16722	0.04253
3940.88145	0.04323
3939.59569	0.04397
3938.30992	0.04440
3937.02415	0.04450
3935.73838	0.04430
3934.45261	0.04383
3933.16684	0.04327
3931.88107	0.04290
3930.59530	0.04289
3929.30953	0.04322
3928.02377	0.04366
3926.73800	0.04394
3925.45223	0.04390
3924.16646	0.04358
3922.88069	0.04312
3921.59492	0.04274
3920.30915	0.04261
3919.02338	0.04276
3917.73762	0.04304
3916.45185	0.04327
3915.16608	0.04326
3913.88031	0.04295
3912.59454	0.04250
3911.30877	0.04226
3910.02300	0.04240
3908.73723	0.04277
3907.45146	0.04305
3906.16570	0.04301
3904.87993	0.04284
3903.59416	0.04280
3902.30839	0.04296
3901.02262	0.04318
3899.73685	0.04349
3898.45108	0.04401
3897.16531	0.04464
3895.87955	0.04502
3894.59378	0.04490
3893.30801	0.04435
3892.02224	0.04375
3890.73647	0.04340
3889.45070	0.04312
3888.16493	0.04250
3886.87916	0.04173
3885.59339	0.04151
3884.30763	0.04196
3883.02186	0.04237
3881.73609	0.04221
3880.45032	0.04181
3879.16455	0.04172
3877.87878	0.04184
3876.59301	0.04179
3875.30724	0.04169
3874.02148	0.04193
3872.73571	0.04248
3871.44994	0.04285
3870.16417	0.04288
3868.87840	0.04285
3867.59263	0.04285
3866.30686	0.04283
3865.02109	0.04294
3863.73532	0.04313
3862.44956	0.04310
3861.16379	0.04275
3859.87802	0.04244
3858.59225	0.04251
3857.30648	0.04278
3856.02071	0.04277
3854.73494	0.04251
3853.44917	0.04271
3852.16341	0.04370
3850.87764	0.04489
3849.59187	0.04553
3848.30610	0.04545
3847.02033	0.04494
3845.73456	0.04436
3844.44879	0.04398
3843.16302	0.04388
3841.87725	0.04389
3840.59149	0.04366
3839.30572	0.04315
3838.01995	0.04279
3836.73418	0.04296
3835.44841	0.04349
3834.16264	0.04380
3832.87687	0.04362
3831.59110	0.04309
3830.30534	0.04249
3829.01957	0.04203
3827.73380	0.04186
3826.44803	0.04202
3825.16226	0.04225
3823.87649	0.04218
3822.59072	0.04188
3821.30495	0.04191
3820.01918	0.04255
3818.73342	0.04321
3817.44765	0.04323
3816.16188	0.04272
3814.87611	0.04214
3813.59034	0.04156
3812.30457	0.04112
3811.01880	0.04114
3809.73303	0.04152
3808.44726	0.04180
3807.16150	0.04196
3805.87573	0.04233
3804.58996	0.04282
3803.30419	0.04297
3802.01842	0.04274
3800.73265	0.04253
3799.44688	0.04237
3798.16111	0.04216
3796.87535	0.04206
3795.58958	0.04221
3794.30381	0.04226
3793.01804	0.04185
3791.73227	0.04125
3790.44650	0.04096
3789.16073	0.04117
3787.87496	0.04157
3786.58919	0.04175
3785.30343	0.04156
3784.01766	0.04120
3782.73189	0.04100
3781.44612	0.04113
3780.16035	0.04154
3778.87458	0.04190
3777.58881	0.04172
3776.30304	0.04092
3775.01728	0.04000
3773.73151	0.03949
3772.44574	0.03941
3771.15997	0.03949
3769.87420	0.03967
3768.58843	0.03993
3767.30266	0.04008
3766.01689	0.04001
3764.73112	0.03983
3763.44536	0.03969
3762.15959	0.03951
3760.87382	0.03923
3759.58805	0.03890
3758.30228	0.03867
3757.01651	0.03871
3755.73074	0.03911
3754.44497	0.03973
3753.15921	0.04040
3751.87344	0.04105
3750.58767	0.04161
3749.30190	0.04200
3748.01613	0.04207
3746.73036	0.04147
3745.44459	0.04043
3744.15882	0.03975
3742.87305	0.03972
3741.58729	0.03980
3740.30152	0.03973
3739.01575	0.03979
3737.72998	0.03994
3736.44421	0.03981
3735.15844	0.03906
3733.87267	0.03781
3732.58690	0.03687
3731.30114	0.03692
3730.01537	0.03767
3728.72960	0.03837
3727.44383	0.03869
3726.15806	0.03896
3724.87229	0.03936
3723.58652	0.03960
3722.30075	0.03944
3721.01498	0.03889
3719.72922	0.03814
3718.44345	0.03767
3717.15768	0.03786
3715.87191	0.03855
3714.58614	0.03916
3713.30037	0.03931
3712.01460	0.03915
3710.72883	0.03882
3709.44307	0.03828
3708.15730	0.03782
3706.87153	0.03777
3705.58576	0.03822
3704.29999	0.03891
3703.01422	0.03943
3701.72845	0.03957
3700.44268	0.03942
3699.15691	0.03936
3697.87115	0.03977
3696.58538	0.04060
3695.29961	0.04126
3694.01384	0.04107
3692.72807	0.04016
3691.44230	0.03912
3690.15653	0.03839
3688.87076	0.03814
3687.58500	0.03825
3686.29923	0.03840
3685.01346	0.03845
3683.72769	0.03858
3682.44192	0.03912
3681.15615	0.04000
3679.87038	0.04072
3678.58461	0.04064
3677.29884	0.03969
3676.01308	0.03872
3674.72731	0.03866
3673.44154	0.03928
3672.15577	0.03971
3670.87000	0.03986
3669.58423	0.04037
3668.29846	0.04131
3667.01269	0.04203
3665.72693	0.04211
3664.44116	0.04166
3663.15539	0.04103
3661.86962	0.04053
3660.58385	0.04026
3659.29808	0.04012
3658.01231	0.04011
3656.72654	0.04043
3655.44077	0.04119
3654.15501	0.04199
3652.86924	0.04224
3651.58347	0.04186
3650.29770	0.04136
3649.01193	0.04119
3647.72616	0.04136
3646.44039	0.04157
3645.15462	0.04159
3643.86886	0.04143
3642.58309	0.04120
3641.29732	0.04099
3640.01155	0.04085
3638.72578	0.04098
3637.44001	0.04164
3636.15424	0.04286
3634.86847	0.04428
3633.58270	0.04530
3632.29694	0.04544
3631.01117	0.04472
3629.72540	0.04386
3628.43963	0.04353
3627.15386	0.04378
3625.86809	0.04427
3624.58232	0.04496
3623.29655	0.04574
3622.01079	0.04625
3620.72502	0.04619
3619.43925	0.04594
3618.15348	0.04599
3616.86771	0.04640
3615.58194	0.04696
3614.29617	0.04752
3613.01040	0.04787
3611.72463	0.04771
3610.43887	0.04698
3609.15310	0.04604
3607.86733	0.04549
3606.58156	0.04556
3605.29579	0.04616
3604.01002	0.04698
3602.72425	0.04765
3601.43848	0.04814
3600.15272	0.04864
3598.86695	0.04931
3597.58118	0.04993
3596.29541	0.05028
3595.00964	0.05026
3593.72387	0.05021
3592.43810	0.05059
3591.15233	0.05148
3589.86656	0.05263
3588.58080	0.05372
3587.29503	0.05432
3586.00926	0.05430
3584.72349	0.05407
3583.43772	0.05415
3582.15195	0.05460
3580.86618	0.05488
3579.58041	0.05436
3578.29464	0.05316
3577.00888	0.05210
3575.72311	0.05189
3574.43734	0.05258
3573.15157	0.05368
3571.86580	0.05482
3570.58003	0.05589
3569.29426	0.05683
3568.00849	0.05748
3566.72273	0.05777
3565.43696	0.05785
3564.15119	0.05794
3562.86542	0.05808
3561.57965	0.05809
3560.29388	0.05779
3559.00811	0.05732
3557.72234	0.05705
3556.43657	0.05718
3555.15081	0.05755
3553.86504	0.05784
3552.57927	0.05795
3551.29350	0.05800
3550.00773	0.05817
3548.72196	0.05853
3547.43619	0.05913
3546.15042	0.05993
3544.86466	0.06077
3543.57889	0.06146
3542.29312	0.06194
3541.00735	0.06224
3539.72158	0.06232
3538.43581	0.06212
3537.15004	0.06168
3535.86427	0.06122
3534.57850	0.06105
3533.29274	0.06135
3532.00697	0.06212
3530.72120	0.06307
3529.43543	0.06383
3528.14966	0.06414
3526.86389	0.06399
3525.57812	0.06359
3524.29235	0.06327
3523.00659	0.06333
3521.72082	0.06387
3520.43505	0.06467
3519.14928	0.06536
3517.86351	0.06573
3516.57774	0.06589
3515.29197	0.06610
3514.00620	0.06655
3512.72043	0.06722
3511.43467	0.06798
3510.14890	0.06868
3508.86313	0.06918
3507.57736	0.06938
3506.29159	0.06925
3505.00582	0.06898
3503.72005	0.06886
3502.43428	0.06905
3501.14852	0.06944
3499.86275	0.06977
3498.57698	0.06993
3497.29121	0.07000
3496.00544	0.07007
3494.71967	0.07012
3493.43390	0.07008
3492.14813	0.06993
3490.86236	0.06977
3489.57660	0.06979
3488.29083	0.07017
3487.00506	0.07090
3485.71929	0.07176
3484.43352	0.07243
3483.14775	0.07272
3481.86198	0.07263
3480.57621	0.07234
3479.29045	0.07209
3478.00468	0.07205
3476.71891	0.07221
3475.43314	0.07238
3474.14737	0.07240
3472.86160	0.07227
3471.57583	0.07216
3470.29006	0.07227
3469.00429	0.07273
3467.71853	0.07340
3466.43276	0.07387
3465.14699	0.07381
3463.86122	0.07325
3462.57545	0.07261
3461.28968	0.07228
3460.00391	0.07237
3458.71814	0.07280
3457.43238	0.07335
3456.14661	0.07380
3454.86084	0.07405
3453.57507	0.07419
3452.28930	0.07446
3451.00353	0.07503
3449.71776	0.07577
3448.43199	0.07629
3447.14622	0.07629
3445.86046	0.07592
3444.57469	0.07555
3443.28892	0.07545
3442.00315	0.07556
3440.71738	0.07574
3439.43161	0.07593
3438.14584	0.07619
3436.86007	0.07655
3435.57431	0.07703
3434.28854	0.07758
3433.00277	0.07809
3431.71700	0.07852
3430.43123	0.07886
3429.14546	0.07902
3427.85969	0.07890
3426.57392	0.07853
3425.28815	0.07812
3424.00239	0.07792
3422.71662	0.07805
3421.43085	0.07843
3420.14508	0.07898
3418.85931	0.07962
3417.57354	0.08013
3416.28777	0.08027
3415.00200	0.07998
3413.71624	0.07943
3412.43047	0.07886
3411.14470	0.07847
3409.85893	0.07840
3408.57316	0.07875
3407.28739	0.07947
3406.00162	0.08022
3404.71585	0.08065
3403.43008	0.08066
3402.14432	0.08049
3400.85855	0.08045
3399.57278	0.08065
3398.28701	0.08094
3397.00124	0.08110
3395.71547	0.08110
3394.42970	0.08103
3393.14393	0.08102
3391.85817	0.08106
3390.57240	0.08106
3389.28663	0.08103
3388.00086	0.08108
3386.71509	0.08129
3385.42932	0.08159
3384.14355	0.08178
3382.85778	0.08175
3381.57201	0.08162
3380.28625	0.08163
3379.00048	0.08186
3377.71471	0.08210
3376.42894	0.08209
3375.14317	0.08181
3373.85740	0.08151
3372.57163	0.08153
3371.28586	0.08197
3370.00010	0.08264
3368.71433	0.08321
3367.42856	0.08352
3366.14279	0.08360
3364.85702	0.08368
3363.57125	0.08383
3362.28548	0.08398
3360.99971	0.08401
3359.71394	0.08394
3358.42818	0.08388
3357.14241	0.08392
3355.85664	0.08401
3354.57087	0.08406
3353.28510	0.08396
3351.99933	0.08379
3350.71356	0.08373
3349.42779	0.08389
3348.14202	0.08417
3346.85626	0.08433
3345.57049	0.08426
3344.28472	0.08405
3342.99895	0.08385
3341.71318	0.08368
3340.42741	0.08350
3339.14164	0.08331
3337.85587	0.08314
3336.57011	0.08308
3335.28434	0.08315
3333.99857	0.08331
3332.71280	0.08350
3331.42703	0.08369
3330.14126	0.08387
3328.85549	0.08400
3327.56972	0.08405
3326.28395	0.08401
3324.99819	0.08393
3323.71242	0.08391
3322.42665	0.08395
3321.14088	0.08398
3319.85511	0.08402
3318.56934	0.08418
3317.28357	0.08449
3315.99780	0.08480
3314.71204	0.08490
3313.42627	0.08475
3312.14050	0.08447
3310.85473	0.08427
3309.56896	0.08424
3308.28319	0.08424
3306.99742	0.08405
3305.71165	0.08356
3304.42588	0.08293
3303.14012	0.08250
3301.85435	0.08243
3300.56858	0.08260
3299.28281	0.08282
3297.99704	0.08305
3296.71127	0.08328
3295.42550	0.08340
3294.13973	0.08330
3292.85397	0.08306
3291.56820	0.08294
3290.28243	0.08300
3288.99666	0.08296
3287.71089	0.08254
3286.42512	0.08183
3285.13935	0.08128
3283.85358	0.08129
3282.56781	0.08185
3281.28205	0.08261
3279.99628	0.08315
3278.71051	0.08323
3277.42474	0.08286
3276.13897	0.08225
3274.85320	0.08163
3273.56743	0.08118
3272.28166	0.08098
3270.99590	0.08103
3269.71013	0.08133
3268.42436	0.08179
3267.13859	0.08219
3265.85282	0.08233
3264.56705	0.08220
3263.28128	0.08202
3261.99551	0.08201
3260.70974	0.08223
3259.42398	0.08252
3258.13821	0.08271
3256.85244	0.08270
3255.56667	0.08256
3254.28090	0.08240
3252.99513	0.08234
3251.70936	0.08239
3250.42359	0.08245
3249.13783	0.08239
3247.85206	0.08223
3246.56629	0.08213
3245.28052	0.08215
3243.99475	0.08219
3242.70898	0.08213
3241.42321	0.08199
3240.13744	0.08186
3238.85167	0.08176
3237.56591	0.08169
3236.28014	0.08170
3234.99437	0.08180
3233.70860	0.08183
3232.42283	0.08156
3231.13706	0.08098
3229.85129	0.08034
3228.56552	0.07993
3227.27976	0.07987
3225.99399	0.08003
3224.70822	0.08025
3223.42245	0.08048
3222.13668	0.08074
3220.85091	0.08100
3219.56514	0.08109
3218.27937	0.08088
3216.99360	0.08035
3215.70784	0.07972
3214.42207	0.07929
3213.13630	0.07923
3211.85053	0.07943
3210.56476	0.07967
3209.27899	0.07979
3207.99322	0.07984
3206.70745	0.07995
3205.42169	0.08024
3204.13592	0.08060
3202.85015	0.08075
3201.56438	0.08050
3200.27861	0.08001
3198.99284	0.07965
3197.70707	0.07959
3196.42130	0.07964
3195.13553	0.07949
3193.84977	0.07910
3192.56400	0.07871
3191.27823	0.07860
3189.99246	0.07875
3188.70669	0.07901
3187.42092	0.07920
3186.13515	0.07928
3184.84938	0.07919
3183.56362	0.07892
3182.27785	0.07852
3180.99208	0.07808
3179.70631	0.07769
3178.42054	0.07742
3177.13477	0.07734
3175.84900	0.07747
3174.56323	0.07775
3173.27746	0.07803
3171.99170	0.07820
3170.70593	0.07819
3169.42016	0.07799
3168.13439	0.07763
3166.84862	0.07720
3165.56285	0.07689
3164.27708	0.07682
3162.99131	0.07702
3161.70555	0.07734
3160.41978	0.07754
3159.13401	0.07736
3157.84824	0.07674
3156.56247	0.07588
3155.27670	0.07516
3153.99093	0.07486
3152.70516	0.07492
3151.41939	0.07505
3150.13363	0.07505
3148.84786	0.07493
3147.56209	0.07486
3146.27632	0.07495
3144.99055	0.07515
3143.70478	0.07525
3142.41901	0.07507
3141.13324	0.07457
3139.84748	0.07395
3138.56171	0.07345
3137.27594	0.07323
3135.99017	0.07326
3134.70440	0.07342
3133.41863	0.07354
3132.13286	0.07353
3130.84709	0.07337
3129.56132	0.07315
3128.27556	0.07295
3126.98979	0.07290
3125.70402	0.07308
3124.41825	0.07348
3123.13248	0.07391
3121.84671	0.07416
3120.56094	0.07417
3119.27517	0.07405
3117.98940	0.07387
3116.70364	0.07362
3115.41787	0.07325
3114.13210	0.07285
3112.84633	0.07258
3111.56056	0.07251
3110.27479	0.07258
3108.98902	0.07275
3107.70325	0.07296
3106.41749	0.07311
3105.13172	0.07302
3103.84595	0.07269
3102.56018	0.07229
3101.27441	0.07203
3099.98864	0.07188
3098.70287	0.07171
3097.41710	0.07146
3096.13133	0.07121
3094.84557	0.07105
3093.55980	0.07101
3092.27403	0.07103
3090.98826	0.07107
3089.70249	0.07114
3088.41672	0.07125
3087.13095	0.07128
3085.84518	0.07102
3084.55942	0.07046
3083.27365	0.06984
3081.98788	0.06947
3080.70211	0.06943
3079.41634	0.06952
3078.13057	0.06952
3076.84480	0.06939
3075.55903	0.06925
3074.27326	0.06927
3072.98750	0.06945
3071.70173	0.06967
3070.41596	0.06978
3069.13019	0.06978
3067.84442	0.06974
3066.55865	0.06972
3065.27288	0.06965
3063.98711	0.06947
3062.70135	0.06925
3061.41558	0.06904
3060.12981	0.06878
3058.84404	0.06838
3057.55827	0.06787
3056.27250	0.06751
3054.98673	0.06748
3053.70096	0.06775
3052.41519	0.06807
3051.12943	0.06817
3049.84366	0.06800
3048.55789	0.06765
3047.27212	0.06729
3045.98635	0.06711
3044.70058	0.06720
3043.41481	0.06750
3042.12904	0.06781
3040.84328	0.06798
3039.55751	0.06800
3038.27174	0.06795
3036.98597	0.06785
3035.70020	0.06767
3034.41443	0.06743
3033.12866	0.06719
3031.84289	0.06694
3030.55712	0.06666
3029.27136	0.06640
3027.98559	0.06619
3026.69982	0.06608
3025.41405	0.06600
3024.12828	0.06591
3022.84251	0.06574
3021.55674	0.06546
3020.27097	0.06508
3018.98521	0.06472
3017.69944	0.06446
3016.41367	0.06430
3015.12790	0.06418
3013.84213	0.06408
3012.55636	0.06408
3011.27059	0.06415
3009.98482	0.06421
3008.69905	0.06419
3007.41329	0.06407
3006.12752	0.06381
3004.84175	0.06342
3003.55598	0.06302
3002.27021	0.06287
3000.98444	0.06303
2999.69867	0.06333
2998.41290	0.06353
2997.12714	0.06360
2995.84137	0.06366
2994.55560	0.06369
2993.26983	0.06363
2991.98406	0.06342
2990.69829	0.06305
2989.41252	0.06256
2988.12675	0.06212
2986.84098	0.06197
2985.55522	0.06225
2984.26945	0.06287
2982.98368	0.06355
2981.69791	0.06407
2980.41214	0.06447
2979.12637	0.06498
2977.84060	0.06572
2976.55483	0.06660
2975.26907	0.06748
2973.98330	0.06836
2972.69753	0.06947
2971.41176	0.07104
2970.12599	0.07305
2968.84022	0.07526
2967.55445	0.07736
2966.26868	0.07918
2964.98291	0.08068
2963.69715	0.08175
2962.41138	0.08227
2961.12561	0.08225
2959.83984	0.08185
2958.55407	0.08128
2957.26830	0.08063
2955.98253	0.07995
2954.69676	0.07919
2953.41100	0.07827
2952.12523	0.07716
2950.83946	0.07598
2949.55369	0.07493
2948.26792	0.07411
2946.98215	0.07351
2945.69638	0.07305
2944.41061	0.07268
2943.12484	0.07235
2941.83908	0.07203
2940.55331	0.07167
2939.26754	0.07131
2937.98177	0.07111
2936.69600	0.07124
2935.41023	0.07166
2934.12446	0.07215
2932.83869	0.07249
2931.55293	0.07261
2930.26716	0.07257
2928.98139	0.07251
2927.69562	0.07249
2926.40985	0.07251
2925.12408	0.07245
2923.83831	0.07223
2922.55254	0.07187
2921.26677	0.07150
2919.98101	0.07121
2918.69524	0.07105
2917.40947	0.07095
2916.12370	0.07086
2914.83793	0.07073
2913.55216	0.07057
2912.26639	0.07042
2910.98062	0.07024
2909.69486	0.06996
2908.40909	0.06963
2907.12332	0.06936
2905.83755	0.06919
2904.55178	0.06902
2903.26601	0.06870
2901.98024	0.06819
2900.69447	0.06761
2899.40870	0.06707
2898.12294	0.06655
2896.83717	0.06605
2895.55140	0.06558
2894.26563	0.06522
2892.97986	0.06500
2891.69409	0.06482
2890.40832	0.06454
2889.12255	0.06409
2887.83678	0.06357
2886.55102	0.06315
2885.26525	0.06286
2883.97948	0.06263
2882.69371	0.06242
2881.40794	0.06231
2880.12217	0.06236
2878.83640	0.06248
2877.55063	0.06250
2876.26487	0.06240
2874.97910	0.06232
2873.69333	0.06236
2872.40756	0.06255
2871.12179	0.06278
2869.83602	0.06296
2868.55025	0.06306
2867.26448	0.06305
2865.97871	0.06298
2864.69295	0.06289
2863.40718	0.06278
2862.12141	0.06259
2860.83564	0.06228
2859.54987	0.06195
2858.26410	0.06176
2856.97833	0.06175
2855.69256	0.06174
2854.40680	0.06156
2853.12103	0.06122
2851.83526	0.06088
2850.54949	0.06061
2849.26372	0.06035
2847.97795	0.06002
2846.69218	0.05961
2845.40641	0.05913
2844.12064	0.05861
2842.83488	0.05810
2841.54911	0.05768
2840.26334	0.05736
2838.97757	0.05707
2837.69180	0.05670
2836.40603	0.05624
2835.12026	0.05575
2833.83449	0.05531
2832.54873	0.05502
2831.26296	0.05490
2829.97719	0.05485
2828.69142	0.05474
2827.40565	0.05448
2826.11988	0.05411
2824.83411	0.05375
2823.54834	0.05346
2822.26257	0.05328
2820.97681	0.05315
2819.69104	0.05303
2818.40527	0.05292
2817.11950	0.05287
2815.83373	0.05284
2814.54796	0.05277
2813.26219	0.05266
2811.97642	0.05265
2810.69066	0.05281
2809.40489	0.05301
2808.11912	0.05307
2806.83335	0.05295
2805.54758	0.05279
2804.26181	0.05269
2802.97604	0.05257
2801.69027	0.05228
2800.40450	0.05179
2799.11874	0.05128
2797.83297	0.05088
2796.54720	0.05062
2795.26143	0.05043
2793.97566	0.05033
2792.68989	0.05039
2791.40412	0.05057
2790.11835	0.05072
2788.83259	0.05070
2787.54682	0.05049
2786.26105	0.05015
2784.97528	0.04980
2783.68951	0.04955
2782.40374	0.04950
2781.11797	0.04967
2779.83220	0.04999
2778.54643	0.05027
2777.26067	0.05030
2775.97490	0.05005
2774.68913	0.04968
2773.40336	0.04938
2772.11759	0.04921
2770.83182	0.04909
2769.54605	0.04896
2768.26028	0.04889
2766.97452	0.04892
2765.68875	0.04896
2764.40298	0.04889
2763.11721	0.04871
2761.83144	0.04848
2760.54567	0.04827
2759.25990	0.04811
2757.97413	0.04796
2756.68836	0.04783
2755.40260	0.04776
2754.11683	0.04776
2752.83106	0.04777
2751.54529	0.04771
2750.25952	0.04757
2748.97375	0.04739
2747.68798	0.04723
2746.40221	0.04717
2745.11645	0.04726
2743.83068	0.04746
2742.54491	0.04764
2741.25914	0.04763
2739.97337	0.04742
2738.68760	0.04717
2737.40183	0.04700
2736.11606	0.04692
2734.83029	0.04687
2733.54453	0.04683
2732.25876	0.04684
2730.97299	0.04689
2729.68722	0.04685
2728.40145	0.04667
2727.11568	0.04636
2725.82991	0.04607
2724.54414	0.04592
2723.25838	0.04595
2721.97261	0.04609
2720.68684	0.04619
2719.40107	0.04620
2718.11530	0.04619
2716.82953	0.04621
2715.54376	0.04618
2714.25799	0.04596
2712.97222	0.04559
2711.68646	0.04525
2710.40069	0.04509
2709.11492	0.04508
2707.82915	0.04513
2706.54338	0.04517
2705.25761	0.04523
2703.97184	0.04532
2702.68607	0.04539
2701.40031	0.04536
2700.11454	0.04518
2698.82877	0.04489
2697.54300	0.04461
2696.25723	0.04446
2694.97146	0.04449
2693.68569	0.04464
2692.39992	0.04479
2691.11415	0.04481
2689.82839	0.04466
2688.54262	0.04441
2687.25685	0.04419
2685.97108	0.04407
2684.68531	0.04399
2683.39954	0.04386
2682.11377	0.04366
2680.82800	0.04347
2679.54224	0.04337
2678.25647	0.04338
2676.97070	0.04340
2675.68493	0.04333
2674.39916	0.04317
2673.11339	0.04307
2671.82762	0.04314
2670.54185	0.04338
2669.25608	0.04364
2667.97032	0.04383
2666.68455	0.04390
2665.39878	0.04385
2664.11301	0.04369
2662.82724	0.04347
2661.54147	0.04329
2660.25570	0.04322
2658.96993	0.04322
2657.68417	0.04319
2656.39840	0.04306
2655.11263	0.04286
2653.82686	0.04266
2652.54109	0.04248
2651.25532	0.04234
2649.96955	0.04226
2648.68378	0.04224
2647.39801	0.04220
2646.11225	0.04205
2644.82648	0.04181
2643.54071	0.04156
2642.25494	0.04133
2640.96917	0.04109
2639.68340	0.04081
2638.39763	0.04053
2637.11186	0.04031
2635.82609	0.04014
2634.54033	0.03995
2633.25456	0.03975
2631.96879	0.03956
2630.68302	0.03938
2629.39725	0.03915
2628.11148	0.03887
2626.82571	0.03860
2625.53994	0.03839
2624.25418	0.03830
2622.96841	0.03832
2621.68264	0.03839
2620.39687	0.03840
2619.11110	0.03825
2617.82533	0.03801
2616.53956	0.03780
2615.25379	0.03761
2613.96802	0.03740
2612.68226	0.03723
2611.39649	0.03725
2610.11072	0.03749
2608.82495	0.03780
2607.53918	0.03803
2606.25341	0.03807
2604.96764	0.03790
2603.68187	0.03754
2602.39611	0.03706
2601.11034	0.03664
2599.82457	0.03645
2598.53880	0.03656
2597.25303	0.03688
2595.96726	0.03715
2594.68149	0.03713
2593.39572	0.03671
2592.10995	0.03607
2590.82419	0.03553
2589.53842	0.03531
2588.25265	0.03536
2586.96688	0.03552
2585.68111	0.03573
2584.39534	0.03594
2583.10957	0.03605
2581.82380	0.03593
2580.53804	0.03567
2579.25227	0.03542
2577.96650	0.03528
2576.68073	0.03513
2575.39496	0.03484
2574.10919	0.03446
2572.82342	0.03419
2571.53765	0.03414
2570.25188	0.03424
2568.96612	0.03431
2567.68035	0.03425
2566.39458	0.03407
2565.10881	0.03385
2563.82304	0.03368
2562.53727	0.03364
2561.25150	0.03371
2559.96573	0.03377
2558.67997	0.03371
2557.39420	0.03354
2556.10843	0.03343
2554.82266	0.03347
2553.53689	0.03362
2552.25112	0.03380
2550.96535	0.03403
2549.67958	0.03423
2548.39381	0.03420
2547.10805	0.03383
2545.82228	0.03331
2544.53651	0.03300
2543.25074	0.03300
2541.96497	0.03312
2540.67920	0.03322
2539.39343	0.03322
2538.10766	0.03307
2536.82190	0.03269
2535.53613	0.03217
2534.25036	0.03174
2532.96459	0.03154
2531.67882	0.03152
2530.39305	0.03154
2529.10728	0.03156
2527.82151	0.03158
2526.53574	0.03155
2525.24998	0.03146
2523.96421	0.03137
2522.67844	0.03136
2521.39267	0.03144
2520.10690	0.03160
2518.82113	0.03175
2517.53536	0.03177
2516.24959	0.03165
2514.96383	0.03155
2513.67806	0.03169
2512.39229	0.03199
2511.10652	0.03221
2509.82075	0.03219
2508.53498	0.03203
2507.24921	0.03188
2505.96344	0.03172
2504.67767	0.03145
2503.39191	0.03111
2502.10614	0.03094
2500.82037	0.03110
2499.53460	0.03148
2498.24883	0.03181
2496.96306	0.03187
2495.67729	0.03165
2494.39152	0.03130
2493.10576	0.03099
2491.81999	0.03082
2490.53422	0.03075
2489.24845	0.03066
2487.96268	0.03056
2486.67691	0.03051
2485.39114	0.03056
2484.10537	0.03068
2482.81960	0.03093
2481.53384	0.03139
2480.24807	0.03193
2478.96230	0.03228
2477.67653	0.03231
2476.39076	0.03210
2475.10499	0.03180
2473.81922	0.03149
2472.53345	0.03118
2471.24769	0.03090
2469.96192	0.03071
2468.67615	0.03064
2467.39038	0.03077
2466.10461	0.03115
2464.81884	0.03165
2463.53307	0.03211
2462.24730	0.03237
2460.96153	0.03244
2459.67577	0.03238
2458.39000	0.03223
2457.10423	0.03196
2455.81846	0.03158
2454.53269	0.03123
2453.24692	0.03105
2451.96115	0.03105
2450.67538	0.03109
2449.38962	0.03105
2448.10385	0.03091
2446.81808	0.03076
2445.53231	0.03058
2444.24654	0.03035
2442.96077	0.03014
2441.67500	0.03011
2440.38923	0.03029
2439.10346	0.03053
2437.81770	0.03062
2436.53193	0.03048
2435.24616	0.03015
2433.96039	0.02977
2432.67462	0.02952
2431.38885	0.02957
2430.10308	0.02989
2428.81731	0.03023
2427.53155	0.03033
2426.24578	0.03020
2424.96001	0.03003
2423.67424	0.02996
2422.38847	0.02992
2421.10270	0.02983
2419.81693	0.02972
2418.53116	0.02964
2417.24539	0.02961
2415.95963	0.02963
2414.67386	0.02974
2413.38809	0.02998
2412.10232	0.03024
2410.81655	0.03036
2409.53078	0.03030
2408.24501	0.03017
2406.95924	0.03011
2405.67347	0.03008
2404.38771	0.02997
2403.10194	0.02982
2401.81617	0.02975
2400.53040	0.02973
2399.24463	0.02952
2397.95886	0.02915
2396.67309	0.02881
2395.38732	0.02864
2394.10156	0.02866
2392.81579	0.02876
2391.53002	0.02882
2390.24425	0.02880
2388.95848	0.02872
2387.67271	0.02868
2386.38694	0.02868
2385.10117	0.02870
2383.81540	0.02869
2382.52964	0.02862
2381.24387	0.02853
2379.95810	0.02841
2378.67233	0.02832
2377.38656	0.02838
2376.10079	0.02837
2374.81502	0.02814
2373.52925	0.02759
2372.24349	0.02659
2370.95772	0.02532
2369.67195	0.02373
2368.38618	0.02221
2367.10041	0.02151
2365.81464	0.02168
2364.52887	0.02209
2363.24310	0.02262
2361.95733	0.02333
2360.67157	0.02384
2359.38580	0.02372
2358.10003	0.02356
2356.81426	0.02388
2355.52849	0.02458
2354.24272	0.02556
2352.95695	0.02655
2351.67118	0.02777
2350.38542	0.02939
2349.09965	0.03010
2347.81388	0.02868
2346.52811	0.02647
2345.24234	0.02538
2343.95657	0.02541
2342.67080	0.02551
2341.38503	0.02562
2340.09926	0.02600
2338.81350	0.02638
2337.52773	0.02665
2336.24196	0.02654
2334.95619	0.02628
2333.67042	0.02617
2332.38465	0.02607
2331.09888	0.02624
2329.81311	0.02679
2328.52735	0.02728
2327.24158	0.02783
2325.95581	0.02845
2324.67004	0.02870
2323.38427	0.02865
2322.09850	0.02845
2320.81273	0.02807
2319.52696	0.02791
2318.24119	0.02807
2316.95543	0.02825
2315.66966	0.02836
2314.38389	0.02846
2313.09812	0.02860
2311.81235	0.02866
2310.52658	0.02864
2309.24081	0.02864
2307.95504	0.02862
2306.66928	0.02852
2305.38351	0.02841
2304.09774	0.02831
2302.81197	0.02823
2301.52620	0.02817
2300.24043	0.02807
2298.95466	0.02786
2297.66889	0.02752
2296.38312	0.02717
2295.09736	0.02702
2293.81159	0.02721
2292.52582	0.02766
2291.24005	0.02808
2289.95428	0.02823
2288.66851	0.02808
2287.38274	0.02778
2286.09697	0.02751
2284.81121	0.02732
2283.52544	0.02713
2282.23967	0.02685
2280.95390	0.02653
2279.66813	0.02622
2278.38236	0.02593
2277.09659	0.02553
2275.81082	0.02502
2274.52505	0.02449
2273.23929	0.02414
2271.95352	0.02405
2270.66775	0.02414
2269.38198	0.02430
2268.09621	0.02443
2266.81044	0.02451
2265.52467	0.02452
2264.23890	0.02446
2262.95314	0.02444
2261.66737	0.02455
2260.38160	0.02479
2259.09583	0.02500
2257.81006	0.02493
2256.52429	0.02448
2255.23852	0.02367
2253.95275	0.02265
2252.66698	0.02171
2251.38122	0.02119
2250.09545	0.02117
2248.80968	0.02145
2247.52391	0.02168
2246.23814	0.02175
2244.95237	0.02183
2243.66660	0.02192
2242.38083	0.02181
2241.09507	0.02143
2239.80930	0.02102
2238.52353	0.02089
2237.23776	0.02102
2235.95199	0.02107
2234.66622	0.02073
2233.38045	0.02001
2232.09468	0.01923
2230.80891	0.01867
2229.52315	0.01841
2228.23738	0.01844
2226.95161	0.01894
2225.66584	0.01999
2224.38007	0.02122
2223.09430	0.02198
2221.80853	0.02190
2220.52276	0.02114
2219.23700	0.02015
2217.95123	0.01938
2216.66546	0.01909
2215.37969	0.01928
2214.09392	0.01956
2212.80815	0.01950
2211.52238	0.01900
2210.23661	0.01831
2208.95084	0.01775
2207.66508	0.01752
2206.37931	0.01759
2205.09354	0.01766
2203.80777	0.01744
2202.52200	0.01689
2201.23623	0.01637
2199.95046	0.01611
2198.66469	0.01593
2197.37893	0.01549
2196.09316	0.01481
2194.80739	0.01427
2193.52162	0.01419
2192.23585	0.01462
2190.95008	0.01545
2189.66431	0.01653
2188.37854	0.01747
2187.09277	0.01773
2185.80701	0.01702
2184.52124	0.01577
2183.23547	0.01475
2181.94970	0.01437
2180.66393	0.01437
2179.37816	0.01425
2178.09239	0.01392
2176.80662	0.01384
2175.52085	0.01443
2174.23509	0.01546
2172.94932	0.01603
2171.66355	0.01549
2170.37778	0.01406
2169.09201	0.01247
2167.80624	0.01110
2166.52047	0.00981
2165.23470	0.00856
2163.94894	0.00772
2162.66317	0.00749
2161.37740	0.00744
2160.09163	0.00699
2158.80586	0.00618
2157.52009	0.00559
2156.23432	0.00560
2154.94855	0.00634
2153.66278	0.00792
2152.37702	0.01021
2151.09125	0.01243
2149.80548	0.01352
2148.51971	0.01300
2147.23394	0.01126
2145.94817	0.00920
2144.66240	0.00770
2143.37663	0.00741
2142.09087	0.00833
2140.80510	0.00977
2139.51933	0.01091
2138.23356	0.01160
2136.94779	0.01219
2135.66202	0.01291
2134.37625	0.01379
2133.09048	0.01491
2131.80471	0.01631
2130.51895	0.01757
2129.23318	0.01815
2127.94741	0.01797
2126.66164	0.01747
2125.37587	0.01700
2124.09010	0.01660
2122.80433	0.01625
2121.51856	0.01602
2120.23280	0.01598
2118.94703	0.01605
2117.66126	0.01610
2116.37549	0.01607
2115.08972	0.01594
2113.80395	0.01586
2112.51818	0.01599
2111.23241	0.01630
2109.94664	0.01647
2108.66088	0.01619
2107.37511	0.01555
2106.08934	0.01496
2104.80357	0.01477
2103.51780	0.01500
2102.23203	0.01540
2100.94626	0.01572
2099.66049	0.01589
2098.37473	0.01592
2097.08896	0.01583
2095.80319	0.01566
2094.51742	0.01561
2093.23165	0.01586
2091.94588	0.01640
2090.66011	0.01690
2089.37434	0.01701
2088.08857	0.01667
2086.80281	0.01615
2085.51704	0.01583
2084.23127	0.01584
2082.94550	0.01606
2081.65973	0.01621
2080.37396	0.01606
2079.08819	0.01553
2077.80242	0.01473
2076.51666	0.01399
2075.23089	0.01365
2073.94512	0.01378
2072.65935	0.01409
2071.37358	0.01415
2070.08781	0.01375
2068.80204	0.01314
2067.51627	0.01274
2066.23050	0.01265
2064.94474	0.01255
2063.65897	0.01218
2062.37320	0.01175
2061.08743	0.01175
2059.80166	0.01228
2058.51589	0.01292
2057.23012	0.01321
2055.94435	0.01317
2054.65859	0.01321
2053.37282	0.01351
2052.08705	0.01369
2050.80128	0.01320
2049.51551	0.01201
2048.22974	0.01073
2046.94397	0.00992
2045.65820	0.00945
2044.37243	0.00890
2043.08667	0.00820
2041.80090	0.00763
2040.51513	0.00731
2039.22936	0.00699
2037.94359	0.00650
2036.65782	0.00595
2035.37205	0.00549
2034.08628	0.00512
2032.80052	0.00489
2031.51475	0.00498
2030.22898	0.00535
2028.94321	0.00563
2027.65744	0.00550
2026.37167	0.00500
2025.08590	0.00443
2023.80013	0.00403
2022.51436	0.00397
2021.22860	0.00444
2019.94283	0.00550
2018.65706	0.00694
2017.37129	0.00833
2016.08552	0.00936
2014.79975	0.00997
2013.51398	0.01024
2012.22821	0.01017
2010.94245	0.00985
2009.65668	0.00948
2008.37091	0.00928
2007.08514	0.00920
2005.79937	0.00905
2004.51360	0.00892
2003.22783	0.00912
2001.94206	0.00981
2000.65629	0.01077
1999.37053	0.01168
1998.08476	0.01233
1996.79899	0.01261
1995.51322	0.01240
1994.22745	0.01172
1992.94168	0.01091
1991.65591	0.01035
1990.37014	0.01016
1989.08438	0.01024
1987.79861	0.01057
1986.51284	0.01115
1985.22707	0.01169
1983.94130	0.01182
1982.65553	0.01146
1981.36976	0.01088
1980.08399	0.01030
1978.79822	0.00978
1977.51246	0.00937
1976.22669	0.00922
1974.94092	0.00934
1973.65515	0.00962
1972.36938	0.01003
1971.08361	0.01056
1969.79784	0.01098
1968.51207	0.01096
1967.22631	0.01050
1965.94054	0.01001
1964.65477	0.00997
1963.36900	0.01052
1962.08323	0.01140
1960.79746	0.01220
1959.51169	0.01269
1958.22592	0.01296
1956.94015	0.01316
1955.65439	0.01329
1954.36862	0.01324
1953.08285	0.01303
1951.79708	0.01286
1950.51131	0.01285
1949.22554	0.01298
1947.93977	0.01313
1946.65400	0.01321
1945.36823	0.01313
1944.08247	0.01293
1942.79670	0.01279
1941.51093	0.01293
1940.22516	0.01340
1938.93939	0.01408
1937.65362	0.01483
1936.36785	0.01550
1935.08208	0.01593
1933.79632	0.01609
1932.51055	0.01615
1931.22478	0.01629
1929.93901	0.01647
1928.65324	0.01648
1927.36747	0.01627
1926.08170	0.01601
1924.79593	0.01591
1923.51016	0.01596
1922.22440	0.01609
1920.93863	0.01622
1919.65286	0.01633
1918.36709	0.01647
1917.08132	0.01659
1915.79555	0.01658
1914.50978	0.01639
1913.22401	0.01618
1911.93825	0.01611
1910.65248	0.01617
1909.36671	0.01627
1908.08094	0.01634
1906.79517	0.01649
1905.50940	0.01677
1904.22363	0.01708
1902.93786	0.01730
1901.65209	0.01742
1900.36633	0.01755
1899.08056	0.01775
1897.79479	0.01793
1896.50902	0.01794
1895.22325	0.01771
1893.93748	0.01729
1892.65171	0.01681
1891.36594	0.01642
1890.08018	0.01625
1888.79441	0.01631
1887.50864	0.01652
1886.22287	0.01681
1884.93710	0.01714
1883.65133	0.01745
1882.36556	0.01759
1881.07979	0.01752
1879.79402	0.01736
1878.50826	0.01723
1877.22249	0.01718
1875.93672	0.01716
1874.65095	0.01714
1873.36518	0.01712
1872.07941	0.01708
1870.79364	0.01702
1869.50787	0.01698
1868.22211	0.01698
1866.93634	0.01695
1865.65057	0.01683
1864.36480	0.01662
1863.07903	0.01644
1861.79326	0.01639
1860.50749	0.01644
1859.22172	0.01654
1857.93595	0.01664
1856.65019	0.01671
1855.36442	0.01679
1854.07865	0.01688
1852.79288	0.01699
1851.50711	0.01708
1850.22134	0.01710
1848.93557	0.01703
1847.64980	0.01695
1846.36404	0.01694
1845.07827	0.01702
1843.79250	0.01721
1842.50673	0.01740
1841.22096	0.01751
1839.93519	0.01753
1838.64942	0.01757
1837.36365	0.01768
1836.07788	0.01779
1834.79212	0.01788
1833.50635	0.01792
1832.22058	0.01786
1830.93481	0.01770
1829.64904	0.01754
1828.36327	0.01744
1827.07750	0.01738
1825.79173	0.01737
1824.50597	0.01744
1823.22020	0.01754
1821.93443	0.01754
1820.64866	0.01741
1819.36289	0.01726
1818.07712	0.01725
1816.79135	0.01742
1815.50558	0.01772
1814.21981	0.01800
1812.93405	0.01813
1811.64828	0.01812
1810.36251	0.01806
1809.07674	0.01806
1807.79097	0.01813
1806.50520	0.01821
1805.21943	0.01826
1803.93366	0.01824
1802.64790	0.01816
1801.36213	0.01805
1800.07636	0.01799
1798.79059	0.01803
1797.50482	0.01818
1796.21905	0.01836
1794.93328	0.01844
1793.64751	0.01836
1792.36174	0.01822
1791.07598	0.01814
1789.79021	0.01817
1788.50444	0.01826
1787.21867	0.01837
1785.93290	0.01845
1784.64713	0.01850
1783.36136	0.01854
1782.07559	0.01858
1780.78983	0.01864
1779.50406	0.01873
1778.21829	0.01884
1776.93252	0.01895
1775.64675	0.01902
1774.36098	0.01904
1773.07521	0.01906
1771.78944	0.01922
1770.50367	0.01943
1769.21791	0.01951
1767.93214	0.01947
1766.64637	0.01941
1765.36060	0.01934
1764.07483	0.01921
1762.78906	0.01914
1761.50329	0.01925
1760.21752	0.01952
1758.93176	0.01973
1757.64599	0.01981
1756.36022	0.01985
1755.07445	0.01990
1753.78868	0.01990
1752.50291	0.01987
1751.21714	0.01996
1749.93137	0.02023
1748.64560	0.02051
1747.35984	0.02067
1746.07407	0.02069
1744.78830	0.02065
1743.50253	0.02057
1742.21676	0.02049
1740.93099	0.02045
1739.64522	0.02059
1738.35945	0.02093
1737.07369	0.02126
1735.78792	0.02136
1734.50215	0.02133
1733.21638	0.02140
1731.93061	0.02153
1730.64484	0.02158
1729.35907	0.02160
1728.07330	0.02174
1726.78753	0.02199
1725.50177	0.02223
1724.21600	0.02243
1722.93023	0.02265
1721.64446	0.02292
1720.35869	0.02313
1719.07292	0.02327
1717.78715	0.02350
1716.50138	0.02389
1715.21561	0.02431
1713.92985	0.02460
1712.64408	0.02478
1711.35831	0.02495
1710.07254	0.02513
1708.78677	0.02529
1707.50100	0.02543
1706.21523	0.02566
1704.92946	0.02610
1703.64370	0.02665
1702.35793	0.02703
1701.07216	0.02732
1699.78639	0.02778
1698.50062	0.02834
1697.21485	0.02864
1695.92908	0.02876
1694.64331	0.02903
1693.35754	0.02947
1692.07178	0.02983
1690.78601	0.03009
1689.50024	0.03043
1688.21447	0.03080
1686.92870	0.03102
1685.64293	0.03108
1684.35716	0.03130
1683.07139	0.03185
1681.78563	0.03246
1680.49986	0.03292
1679.21409	0.03327
1677.92832	0.03354
1676.64255	0.03373
1675.35678	0.03393
1674.07101	0.03427
1672.78524	0.03468
1671.49947	0.03500
1670.21371	0.03526
1668.92794	0.03559
1667.64217	0.03603
1666.35640	0.03646
1665.07063	0.03679
1663.78486	0.03706
1662.49909	0.03740
1661.21332	0.03782
1659.92756	0.03827
1658.64179	0.03872
1657.35602	0.03913
1656.07025	0.03934
1654.78448	0.03928
1653.49871	0.03925
1652.21294	0.03965
1650.92717	0.04031
1649.64140	0.04070
1648.35564	0.04064
1647.06987	0.04044
1645.78410	0.04041
1644.49833	0.04053
1643.21256	0.04065
1641.92679	0.04076
1640.64102	0.04092
1639.35525	0.04112
1638.06949	0.04119
1636.78372	0.04111
1635.49795	0.04108
1634.21218	0.04126
1632.92641	0.04153
1631.64064	0.04170
1630.35487	0.04173
1629.06910	0.04173
1627.78333	0.04180
1626.49757	0.04192
1625.21180	0.04200
1623.92603	0.04206
1622.64026	0.04218
1621.35449	0.04236
1620.06872	0.04249
1618.78295	0.04247
1617.49718	0.04242
1616.21142	0.04255
1614.92565	0.04284
1613.63988	0.04308
1612.35411	0.04318
1611.06834	0.04324
1609.78257	0.04338
1608.49680	0.04360
1607.21103	0.04388
1605.92526	0.04416
1604.63950	0.04439
1603.35373	0.04455
1602.06796	0.04469
1600.78219	0.04482
1599.49642	0.04499
1598.21065	0.04519
1596.92488	0.04543
1595.63911	0.04570
1594.35335	0.04598
1593.06758	0.04623
1591.78181	0.04646
1590.49604	0.04667
1589.21027	0.04689
1587.92450	0.04712
1586.63873	0.04733
1585.35296	0.04750
1584.06719	0.04766
1582.78143	0.04786
1581.49566	0.04815
1580.20989	0.04849
1578.92412	0.04876
1577.63835	0.04888
1576.35258	0.04903
1575.06681	0.04940
1573.78104	0.04984
1572.49528	0.05006
1571.20951	0.05003
1569.92374	0.05000
1568.63797	0.05014
1567.35220	0.05038
1566.06643	0.05057
1564.78066	0.05076
1563.49489	0.05097
1562.20912	0.05110
1560.92336	0.05105
1559.63759	0.05099
1558.35182	0.05118
1557.06605	0.05149
1555.78028	0.05163
1554.49451	0.05156
1553.20874	0.05149
1551.92297	0.05147
1550.63721	0.05147
1549.35144	0.05147
1548.06567	0.05149
1546.77990	0.05149
1545.49413	0.05147
1544.20836	0.05143
1542.92259	0.05126
1541.63682	0.05086
1540.35105	0.05036
1539.06529	0.05006
1537.77952	0.05000
1536.49375	0.04992
1535.20798	0.04964
1533.92221	0.04931
1532.63644	0.04915
1531.35067	0.04915
1530.06490	0.04917
1528.77914	0.04917
1527.49337	0.04924
1526.20760	0.04946
1524.92183	0.04982
1523.63606	0.05019
1522.35029	0.05059
1521.06452	0.05113
1519.77875	0.05183
1518.49298	0.05249
1517.20722	0.05307
1515.92145	0.05367
1514.63568	0.05438
1513.34991	0.05516
1512.06414	0.05602
1510.77837	0.05698
1509.49260	0.05793
1508.20683	0.05878
1506.92107	0.05963
1505.63530	0.06062
1504.34953	0.06165
1503.06376	0.06249
1501.77799	0.06311
1500.49222	0.06370
1499.20645	0.06433
1497.92068	0.06493
1496.63491	0.06550
1495.34915	0.06609
1494.06338	0.06668
1492.77761	0.06717
1491.49184	0.06760
1490.20607	0.06807
1488.92030	0.06865
1487.63453	0.06929
1486.34876	0.06997
1485.06299	0.07069
1483.77723	0.07145
1482.49146	0.07226
1481.20569	0.07314
1479.91992	0.07407
1478.63415	0.07498
1477.34838	0.07583
1476.06261	0.07659
1474.77684	0.07727
1473.49108	0.07790
1472.20531	0.07855
1470.91954	0.07922
1469.63377	0.07976
1468.34800	0.08008
1467.06223	0.08020
1465.77646	0.08024
1464.49069	0.08035
1463.20492	0.08062
1461.91916	0.08101
1460.63339	0.08140
1459.34762	0.08170
1458.06185	0.08195
1456.77608	0.08234
1455.49031	0.08291
1454.20454	0.08344
1452.91877	0.08378
1451.63301	0.08398
1450.34724	0.08414
1449.06147	0.08428
1447.77570	0.08439
1446.48993	0.08442
1445.20416	0.08435
1443.91839	0.08418
1442.63262	0.08396
1441.34685	0.08379
1440.06109	0.08369
1438.77532	0.08362
1437.48955	0.08364
1436.20378	0.08388
1434.91801	0.08434
1433.63224	0.08490
1432.34647	0.08550
1431.06070	0.08622
1429.77494	0.08715
1428.48917	0.08827
1427.20340	0.08949
1425.91763	0.09074
1424.63186	0.09206
1423.34609	0.09348
1422.06032	0.09492
1420.77455	0.09623
1419.48878	0.09743
1418.20302	0.09857
1416.91725	0.09962
1415.63148	0.10046
1414.34571	0.10106
1413.05994	0.10144
1411.77417	0.10163
1410.48840	0.10165
1409.20263	0.10146
1407.91687	0.10099
1406.63110	0.10019
1405.34533	0.09912
1404.05956	0.09790
1402.77379	0.09663
1401.48802	0.09530
1400.20225	0.09388
1398.91648	0.09238
1397.63071	0.09076
1396.34495	0.08899
1395.05918	0.08710
1393.77341	0.08521
1392.48764	0.08335
1391.20187	0.08148
1389.91610	0.07955
1388.63033	0.07762
1387.34456	0.07578
1386.05880	0.07406
1384.77303	0.07239
1383.48726	0.07071
1382.20149	0.06905
1380.91572	0.06740
1379.62995	0.06577
1378.34418	0.06413
1377.05841	0.06249
1375.77264	0.06081
1374.48688	0.05911
1373.20111	0.05744
1371.91534	0.05583
1370.62957	0.05428
1369.34380	0.05279
1368.05803	0.05140
1366.77226	0.05008
1365.48649	0.04877
1364.20073	0.04746
1362.91496	0.04617
1361.62919	0.04495
1360.34342	0.04383
1359.05765	0.04282
1357.77188	0.04190
1356.48611	0.04107
1355.20034	0.04029
1353.91457	0.03956
1352.62881	0.03884
1351.34304	0.03814
1350.05727	0.03746
1348.77150	0.03679
1347.48573	0.03617
1346.19996	0.03559
1344.91419	0.03508
1343.62842	0.03460
1342.34266	0.03412
1341.05689	0.03363
1339.77112	0.03319
1338.48535	0.03279
1337.19958	0.03238
1335.91381	0.03193
1334.62804	0.03144
1333.34227	0.03098
1332.05650	0.03059
1330.77074	0.03029
1329.48497	0.03003
1328.19920	0.02978
1326.91343	0.02951
1325.62766	0.02921
1324.34189	0.02893
1323.05612	0.02868
1321.77035	0.02847
1320.48459	0.02829
1319.19882	0.02810
1317.91305	0.02790
1316.62728	0.02769
1315.34151	0.02744
1314.05574	0.02716
1312.76997	0.02689
1311.48420	0.02668
1310.19843	0.02655
1308.91267	0.02645
1307.62690	0.02633
1306.34113	0.02615
1305.05536	0.02594
1303.76959	0.02571
1302.48382	0.02549
1301.19805	0.02529
1299.91228	0.02513
1298.62652	0.02502
1297.34075	0.02495
1296.05498	0.02489
1294.76921	0.02484
1293.48344	0.02477
1292.19767	0.02469
1290.91190	0.02456
1289.62613	0.02440
1288.34036	0.02423
1287.05460	0.02410
1285.76883	0.02402
1284.48306	0.02402
1283.19729	0.02407
1281.91152	0.02417
1280.62575	0.02428
1279.33998	0.02440
1278.05421	0.02455
1276.76845	0.02481
1275.48268	0.02523
1274.19691	0.02589
1272.91114	0.02690
1271.62537	0.02853
1270.33960	0.03110
1269.05383	0.03492
1267.76806	0.04012
1266.48229	0.04652
1265.19653	0.05359
1263.91076	0.06045
1262.62499	0.06608
1261.33922	0.06956
1260.05345	0.07034
1258.76768	0.06841
1257.48191	0.06421
1256.19614	0.05854
1254.91037	0.05231
1253.62461	0.04635
1252.33884	0.04118
1251.05307	0.03702
1249.76730	0.03386
1248.48153	0.03149
1247.19576	0.02968
1245.90999	0.02823
1244.62422	0.02704
1243.33846	0.02606
1242.05269	0.02525
1240.76692	0.02458
1239.48115	0.02402
1238.19538	0.02356
1236.90961	0.02321
1235.62384	0.02294
1234.33807	0.02270
1233.05230	0.02244
1231.76654	0.02217
1230.48077	0.02189
1229.19500	0.02162
1227.90923	0.02136
1226.62346	0.02112
1225.33769	0.02090
1224.05192	0.02070
1222.76615	0.02051
1221.48039	0.02034
1220.19462	0.02019
1218.90885	0.02008
1217.62308	0.02000
1216.33731	0.01991
1215.05154	0.01979
1213.76577	0.01964
1212.48000	0.01948
1211.19423	0.01937
1209.90847	0.01931
1208.62270	0.01927
1207.33693	0.01923
1206.05116	0.01919
1204.76539	0.01918
1203.47962	0.01919
1202.19385	0.01919
1200.90808	0.01913
1199.62232	0.01900
1198.33655	0.01885
1197.05078	0.01876
1195.76501	0.01877
1194.47924	0.01884
1193.19347	0.01889
1191.90770	0.01887
1190.62193	0.01878
1189.33616	0.01867
1188.05040	0.01858
1186.76463	0.01855
1185.47886	0.01859
1184.19309	0.01868
1182.90732	0.01877
1181.62155	0.01881
1180.33578	0.01880
1179.05001	0.01879
1177.76425	0.01883
1176.47848	0.01892
1175.19271	0.01902
1173.90694	0.01910
1172.62117	0.01918
1171.33540	0.01931
1170.04963	0.01948
1168.76386	0.01969
1167.47809	0.01992
1166.19233	0.02016
1164.90656	0.02042
1163.62079	0.02070
1162.33502	0.02101
1161.04925	0.02134
1159.76348	0.02166
1158.47771	0.02195
1157.19194	0.02221
1155.90618	0.02248
1154.62041	0.02281
1153.33464	0.02318
1152.04887	0.02358
1150.76310	0.02401
1149.47733	0.02453
1148.19156	0.02518
1146.90579	0.02595
1145.62002	0.02679
1144.33426	0.02771
1143.04849	0.02866
1141.76272	0.02963
1140.47695	0.03061
1139.19118	0.03166
1137.90541	0.03285
1136.61964	0.03420
1135.33387	0.03567
1134.04811	0.03727
1132.76234	0.03899
1131.47657	0.04082
1130.19080	0.04283
1128.90503	0.04513
1127.61926	0.04779
1126.33349	0.05080
1125.04772	0.05403
1123.76195	0.05734
1122.47619	0.06073
1121.19042	0.06423
1119.90465	0.06786
1118.61888	0.07157
1117.33311	0.07526
1116.04734	0.07890
1114.76157	0.08256
1113.47580	0.08630
1112.19004	0.09013
1110.90427	0.09402
1109.61850	0.09796
1108.33273	0.10190
1107.04696	0.10582
1105.76119	0.10968
1104.47542	0.11351
1103.18965	0.11732
1101.90388	0.12107
1100.61812	0.12469
1099.33235	0.12814
1098.04658	0.13142
1096.76081	0.13453
1095.47504	0.13740
1094.18927	0.13999
1092.90350	0.14232
1091.61773	0.14448
1090.33197	0.14646
1089.04620	0.14825
1087.76043	0.14987
1086.47466	0.15140
1085.18889	0.15293
1083.90312	0.15447
1082.61735	0.15600
1081.33158	0.15761
1080.04581	0.15941
1078.76005	0.16150
1077.47428	0.16381
1076.18851	0.16621
1074.90274	0.16865
1073.61697	0.17115
1072.33120	0.17376
1071.04543	0.17646
1069.75966	0.17923
1068.47390	0.18210
1067.18813	0.18504
1065.90236	0.18803
1064.61659	0.19105
1063.33082	0.19415
1062.04505	0.19729
1060.75928	0.20040
1059.47351	0.20344
1058.18774	0.20644
1056.90198	0.20947
1055.61621	0.21257
1054.33044	0.21574
1053.04467	0.21898
1051.75890	0.22230
1050.47313	0.22571
1049.18736	0.22925
1047.90159	0.23297
1046.61583	0.23683
1045.33006	0.24083
1044.04429	0.24496
1042.75852	0.24923
1041.47275	0.25367
1040.18698	0.25823
1038.90121	0.26285
1037.61544	0.26754
1036.32967	0.27231
1035.04391	0.27706
1033.75814	0.28165
1032.47237	0.28595
1031.18660	0.28999
1029.90083	0.29380
1028.61506	0.29734
1027.32929	0.30056
1026.04352	0.30345
1024.75775	0.30606
1023.47199	0.30844
1022.18622	0.31056
1020.90045	0.31237
1019.61468	0.31376
1018.32891	0.31458
1017.04314	0.31478
1015.75737	0.31434
1014.47160	0.31332
1013.18584	0.31167
1011.90007	0.30934
1010.61430	0.30630
1009.32853	0.30262
1008.04276	0.29834
1006.75699	0.29343
1005.47122	0.28783
1004.18545	0.28154
1002.89968	0.27468
1001.61392	0.26745
1000.32815	0.25999
999.04238	0.25235
997.75661	0.24454
996.47084	0.23661
995.18507	0.22861
993.89930	0.22058
992.61353	0.21253
991.32777	0.20449
990.04200	0.19653
988.75623	0.18881
987.47046	0.18146
986.18469	0.17453
984.89892	0.16796
983.61315	0.16167
982.32738	0.15558
981.04161	0.14972
979.75585	0.14418
978.47008	0.13907
977.18431	0.13445
975.89854	0.13029
974.61277	0.12657
973.32700	0.12329
972.04123	0.12052
970.75546	0.11835
969.46970	0.11683
968.18393	0.11593
966.89816	0.11554
965.61239	0.11552
964.32662	0.11571
963.04085	0.11591
961.75508	0.11588
960.46931	0.11543
959.18354	0.11444
957.89778	0.11286
956.61201	0.11070
955.32624	0.10805
954.04047	0.10509
952.75470	0.10205
951.46893	0.09909
950.18316	0.09631
948.89739	0.09371
947.61163	0.09121
946.32586	0.08872
945.04009	0.08623
943.75432	0.08378
942.46855	0.08149
941.18278	0.07941
939.89701	0.07751
938.61124	0.07570
937.32547	0.07398
936.03971	0.07236
934.75394	0.07084
933.46817	0.06939
932.18240	0.06798
930.89663	0.06666
929.61086	0.06549
928.32509	0.06448
927.03932	0.06360
925.75356	0.06277
924.46779	0.06191
923.18202	0.06103
921.89625	0.06020
920.61048	0.05947
919.32471	0.05883
918.03894	0.05823
916.75317	0.05761
915.46740	0.05698
914.18164	0.05637
912.89587	0.05586
911.61010	0.05548
910.32433	0.05514
909.03856	0.05475
907.75279	0.05431
906.46702	0.05384
905.18125	0.05336
903.89549	0.05287
902.60972	0.05234
901.32395	0.05180
900.03818	0.05134
898.75241	0.05099
897.46664	0.05073
896.18087	0.05048
894.89510	0.05024
893.60933	0.05003
892.32357	0.04993
891.03780	0.04995
889.75203	0.05016
888.46626	0.05059
887.18049	0.05130
885.89472	0.05240
884.60895	0.05406
883.32318	0.05635
882.03742	0.05906
880.75165	0.06177
879.46588	0.06410
878.18011	0.06594
876.89434	0.06752
875.60857	0.06916
874.32280	0.07095
873.03703	0.07257
871.75126	0.07357
870.46550	0.07375
869.17973	0.07327
867.89396	0.07235
866.60819	0.07113
865.32242	0.06960
864.03665	0.06779
862.75088	0.06582
861.46511	0.06387
860.17935	0.06209
858.89358	0.06054
857.60781	0.05917
856.32204	0.05791
855.03627	0.05669
853.75050	0.05556
852.46473	0.05460
851.17896	0.05385
849.89319	0.05332
848.60743	0.05299
847.32166	0.05283
846.03589	0.05275
844.75012	0.05263
843.46435	0.05240
842.17858	0.05208
840.89281	0.05176
839.60704	0.05152
838.32128	0.05136
837.03551	0.05128
835.74974	0.05130
834.46397	0.05151
833.17820	0.05194
831.89243	0.05262
830.60666	0.05361
829.32089	0.05500
828.03512	0.05693
826.74936	0.05943
825.46359	0.06242
824.17782	0.06576
822.89205	0.06921
821.60628	0.07253
820.32051	0.07549
819.03474	0.07802
817.74897	0.08020
816.46321	0.08219
815.17744	0.08413
813.89167	0.08616
812.60590	0.08841
811.32013	0.09099
810.03436	0.09390
808.74859	0.09707
807.46282	0.10038
806.17705	0.10367
804.89129	0.10678
803.60552	0.10955
802.31975	0.11185
801.03398	0.11358
799.74821	0.11468
798.46244	0.11515
797.17667	0.11500
795.89090	0.11417
794.60513	0.11262
793.31937	0.11032
792.03360	0.10732
790.74783	0.10374
789.46206	0.09974
788.17629	0.09547
786.89052	0.09107
785.60475	0.08668
784.31898	0.08247
783.03322	0.07859
781.74745	0.07508
780.46168	0.07198
779.17591	0.06929
777.89014	0.06703
776.60437	0.06513
775.31860	0.06350
774.03283	0.06201
772.74706	0.06063
771.46130	0.05935
770.17553	0.05818
768.88976	0.05715
767.60399	0.05627
766.31822	0.05555
765.03245	0.05499
763.74668	0.05457
762.46091	0.05419
761.17515	0.05381
759.88938	0.05349
758.60361	0.05327
757.31784	0.05314
756.03207	0.05300
754.74630	0.05277
753.46053	0.05243
752.17476	0.05202
750.88899	0.05158
749.60323	0.05112
748.31746	0.05065
747.03169	0.05019
745.74592	0.04980
744.46015	0.04952
743.17438	0.04940
741.88861	0.04935
740.60284	0.04927
739.31708	0.04907
738.03131	0.04878
736.74554	0.04847
735.45977	0.04823
734.17400	0.04816
732.88823	0.04824
731.60246	0.04836
730.31669	0.04837
729.03092	0.04822
727.74516	0.04801
726.45939	0.04782
725.17362	0.04767
723.88785	0.04756
722.60208	0.04744
721.31631	0.04727
720.03054	0.04714
718.74477	0.04711
717.45901	0.04707
716.17324	0.04704
714.88747	0.04708
713.60170	0.04721
712.31593	0.04744
711.03016	0.04776
709.74439	0.04813
708.45862	0.04851
707.17285	0.04884
705.88709	0.04908
704.60132	0.04920
703.31555	0.04924
702.02978	0.04921
700.74401	0.04911
699.45824	0.04897
698.17247	0.04880
696.88670	0.04863
695.60094	0.04850
694.31517	0.04842
693.02940	0.04837
691.74363	0.04833
690.45786	0.04827
689.17209	0.04819
687.88632	0.04810
686.60055	0.04800
685.31478	0.04785
684.02902	0.04764
682.74325	0.04739
681.45748	0.04715
680.17171	0.04695
678.88594	0.04678
677.60017	0.04662
676.31440	0.04643
675.02863	0.04625
673.74287	0.04618
672.45710	0.04635
671.17133	0.04654
669.88556	0.04608
668.59979	0.04505
667.31402	0.04547
666.02825	0.04668
664.74248	0.04676
663.45671	0.04614
662.17095	0.04557
660.88518	0.04517
659.59941	0.04483
658.31364	0.04440
657.02787	0.04386
655.74210	0.04328
654.45633	0.04276
653.17056	0.04237
651.88480	0.04211
650.59903	0.04196
649.31326	0.04188
648.02749	0.04188
646.74172	0.04188
645.45595	0.04182
644.17018	0.04174
642.88441	0.04169
641.59864	0.04170
640.31288	0.04176
639.02711	0.04188
637.74134	0.04203
636.45557	0.04222
635.16980	0.04248
633.88403	0.04284
632.59826	0.04329
631.31249	0.04380
630.02673	0.04430
628.74096	0.04475
627.45519	0.04521
626.16942	0.04604
624.88365	0.04774
623.59788	0.05055
622.31211	0.05375
621.02634	0.05603
619.74057	0.05710
618.45481	0.05830
617.16904	0.06107
615.88327	0.06574
614.59750	0.07154
613.31173	0.07730
612.02596	0.08202
610.74019	0.08567
609.45442	0.08922
608.16866	0.09350
606.88289	0.09839
605.59712	0.10325
604.31135	0.10750
603.02558	0.11059
601.73981	0.11212
600.45404	0.11197
599.16827	0.11036
597.88250	0.10771
596.59674	0.10460
595.31097	0.10154
594.02520	0.09882
592.73943	0.09651
591.45366	0.09468
590.16789	0.09342
588.88212	0.09281
587.59635	0.09282
586.31059	0.09336
585.02482	0.09439
583.73905	0.09589
582.45328	0.09781
581.16751	0.10007
579.88174	0.10263
578.59597	0.10538
577.31020	0.10817
576.02443	0.11082
574.73867	0.11329
573.45290	0.11570
572.16713	0.11826
570.88136	0.12116
569.59559	0.12459
568.30982	0.12863
567.02405	0.13325
565.73828	0.13820
564.45251	0.14298
563.16675	0.14691
561.88098	0.14930
560.59521	0.14975
559.30944	0.14813
558.02367	0.14462
556.73790	0.13956
555.45213	0.13339
554.16636	0.12671
552.88060	0.12012
551.59483	0.11405
550.30906	0.10854
549.02329	0.10344
547.73752	0.09864
546.45175	0.09418
545.16598	0.09011
543.88021	0.08643
542.59444	0.08310
541.30868	0.08012
540.02291	0.07748
538.73714	0.07505
537.45137	0.07276
536.16560	0.07060
534.87983	0.06867
533.59406	0.06699
532.30829	0.06546
531.02253	0.06398
529.73676	0.06252
528.45099	0.06109
527.16522	0.05970
525.87945	0.05833
524.59368	0.05703
523.30791	0.05589
522.02214	0.05494
520.73637	0.05412
519.45061	0.05327
518.16484	0.05229
516.87907	0.05124
515.59330	0.05025
514.30753	0.04942
513.02176	0.04870
511.73599	0.04799
510.45022	0.04727
509.16446	0.04658
507.87869	0.04597
506.59292	0.04536
505.30715	0.04469
504.02138	0.04399
502.73561	0.04337
501.44984	0.04289
500.16407	0.04255
498.87830	0.04225
497.59254	0.04195
496.30677	0.04159
495.02100	0.04120
493.73523	0.04081
492.44946	0.04050
491.16369	0.04027
489.87792	0.04005
488.59215	0.03974
487.30639	0.03934
486.02062	0.03891
484.73485	0.03856
483.44908	0.03837
482.16331	0.03834
480.87754	0.03841
479.59177	0.03849
478.30600	0.03858
477.02023	0.03869
475.73447	0.03885
474.44870	0.03902
473.16293	0.03912
471.87716	0.03910
470.59139	0.03895
469.30562	0.03873
468.01985	0.03849
466.73408	0.03827
465.44832	0.03801
464.16255	0.03767
462.87678	0.03728
461.59101	0.03690
460.30524	0.03658
459.01947	0.03629
457.73370	0.03595
456.44793	0.03551
455.16216	0.03502
453.87640	0.03459
452.59063	0.03429
451.30486	0.03409
450.01909	0.03390
448.73332	0.03367
447.44755	0.03341
446.16178	0.03318
444.87601	0.03300
443.59025	0.03285
442.30448	0.03270
441.01871	0.03249
439.73294	0.03221
438.44717	0.03190
437.16140	0.03162
435.87563	0.03143
434.58986	0.03131
433.30409	0.03124
432.01833	0.03121
430.73256	0.03120
429.44679	0.03117
428.16102	0.03110
426.87525	0.03103
425.58948	0.03101
424.30371	0.03103
423.01794	0.03104
421.73218	0.03099
420.44641	0.03094
419.16064	0.03097
417.87487	0.03116
416.58910	0.03144
415.30333	0.03174
414.01756	0.03208
412.73179	0.03252
411.44602	0.03308
410.16026	0.03371
408.87449	0.03439
407.58872	0.03509
406.30295	0.03576
405.01718	0.03637
403.73141	0.03687
402.44564	0.03725
401.15987	0.03750
399.87411	0.03766
