3997.45528	0.06080
3996.16951	0.06140
3994.88374	0.06227
3993.59798	0.06316
3992.31221	0.06358
3991.02644	0.06330
3989.74067	0.06258
3988.45490	0.06184
3987.16913	0.06119
3985.88336	0.06041
3984.59759	0.05947
3983.31183	0.05873
3982.02606	0.05847
3980.74029	0.05853
3979.45452	0.05851
3978.16875	0.05835
3976.88298	0.05839
3975.59721	0.05900
3974.31144	0.06022
3973.02567	0.06167
3971.73991	0.06273
3970.45414	0.06300
3969.16837	0.06258
3967.88260	0.06193
3966.59683	0.06141
3965.31106	0.06100
3964.02529	0.06059
3962.73952	0.06019
3961.45376	0.06000
3960.16799	0.06010
3958.88222	0.06033
3957.59645	0.06046
3956.31068	0.06034
3955.02491	0.05993
3953.73914	0.05935
3952.45337	0.05881
3951.16760	0.05851
3949.88184	0.05851
3948.59607	0.05864
3947.31030	0.05860
3946.02453	0.05827
3944.73876	0.05777
3943.45299	0.05736
3942.16722	0.05724
3940.88145	0.05737
3939.59569	0.05758
3938.30992	0.05774
3937.02415	0.05789
3935.73838	0.05819
3934.45261	0.05873
3933.16684	0.05940
3931.88107	0.05988
3930.59530	0.05989
3929.30953	0.05936
3928.02377	0.05847
3926.73800	0.05761
3925.45223	0.05717
3924.16646	0.05730
3922.88069	0.05782
3921.59492	0.05834
3920.30915	0.05852
3919.02338	0.05832
3917.73762	0.05792
3916.45185	0.05757
3915.16608	0.05743
3913.88031	0.05744
3912.59454	0.05738
3911.30877	0.05707
3910.02300	0.05659
3908.73723	0.05618
3907.45146	0.05611
3906.16570	0.05645
3904.87993	0.05697
3903.59416	0.05730
3902.30839	0.05734
3901.02262	0.05739
3899.73685	0.05773
3898.45108	0.05825
3897.16531	0.05850
3895.87955	0.05813
3894.59378	0.05722
3893.30801	0.05629
3892.02224	0.05581
3890.73647	0.05579
3889.45070	0.05597
3888.16493	0.05622
3886.87916	0.05646
3885.59339	0.05653
3884.30763	0.05634
3883.02186	0.05603
3881.73609	0.05578
3880.45032	0.05571
3879.16455	0.05582
3877.87878	0.05604
3876.59301	0.05617
3875.30724	0.05602
3874.02148	0.05577
3872.73571	0.05587
3871.44994	0.05654
3870.16417	0.05740
3868.87840	0.05790
3867.59263	0.05803
3866.30686	0.05803
3865.02109	0.05794
3863.73532	0.05770
3862.44956	0.05737
3861.16379	0.05709
3859.87802	0.05686
3858.59225	0.05658
3857.30648	0.05630
3856.02071	0.05623
3854.73494	0.05638
3853.44917	0.05643
3852.16341	0.05616
3850.87764	0.05583
3849.59187	0.05575
3848.30610	0.05593
3847.02033	0.05611
3845.73456	0.05608
3844.44879	0.05576
3843.16302	0.05533
3841.87725	0.05510
3840.59149	0.05521
3839.30572	0.05543
3838.01995	0.05526
3836.73418	0.05456
3835.44841	0.05380
3834.16264	0.05354
3832.87687	0.05388
3831.59110	0.05447
3830.30534	0.05494
3829.01957	0.05515
3827.73380	0.05518
3826.44803	0.05520
3825.16226	0.05530
3823.87649	0.05561
3822.59072	0.05609
3821.30495	0.05648
3820.01918	0.05657
3818.73342	0.05651
3817.44765	0.05645
3816.16188	0.05614
3814.87611	0.05531
3813.59034	0.05422
3812.30457	0.05337
3811.01880	0.05300
3809.73303	0.05305
3808.44726	0.05328
3807.16150	0.05326
3805.87573	0.05279
3804.58996	0.05241
3803.30419	0.05285
3802.01842	0.05402
3800.73265	0.05508
3799.44688	0.05539
3798.16111	0.05499
3796.87535	0.05425
3795.58958	0.05352
3794.30381	0.05298
3793.01804	0.05257
3791.73227	0.05217
3790.44650	0.05184
3789.16073	0.05177
3787.87496	0.05201
3786.58919	0.05233
3785.30343	0.05252
3784.01766	0.05255
3782.73189	0.05252
3781.44612	0.05250
3780.16035	0.05232
3778.87458	0.05175
3777.58881	0.05081
3776.30304	0.04984
3775.01728	0.04927
3773.73151	0.04939
3772.44574	0.05016
3771.15997	0.05125
3769.87420	0.05213
3768.58843	0.05247
3767.30266	0.05232
3766.01689	0.05195
3764.73112	0.05160
3763.44536	0.05146
3762.15959	0.05166
3760.87382	0.05208
3759.58805	0.05241
3758.30228	0.05239
3757.01651	0.05205
3755.73074	0.05168
3754.44497	0.05150
3753.15921	0.05142
3751.87344	0.05120
3750.58767	0.05089
3749.30190	0.05076
3748.01613	0.05110
3746.73036	0.05197
3745.44459	0.05283
3744.15882	0.05285
3742.87305	0.05204
3741.58729	0.05134
3740.30152	0.05131
3739.01575	0.05170
3737.72998	0.05195
3736.44421	0.05176
3735.15844	0.05125
3733.87267	0.05074
3732.58690	0.05021
3731.30114	0.04938
3730.01537	0.04836
3728.72960	0.04775
3727.44383	0.04799
3726.15806	0.04888
3724.87229	0.04994
3723.58652	0.05076
3722.30075	0.05115
3721.01498	0.05103
3719.72922	0.05059
3718.44345	0.05011
3717.15768	0.04976
3715.87191	0.04955
3714.58614	0.04942
3713.30037	0.04924
3712.01460	0.04894
3710.72883	0.04867
3709.44307	0.04864
3708.15730	0.04886
3706.87153	0.04913
3705.58576	0.04942
3704.29999	0.04992
3703.01422	0.05056
3701.72845	0.05088
3700.44268	0.05056
3699.15691	0.04996
3697.87115	0.04971
3696.58538	0.05005
3695.29961	0.05077
3694.01384	0.05144
3692.72807	0.05168
3691.44230	0.05142
3690.15653	0.05089
3688.87076	0.05039
3687.58500	0.05008
3686.29923	0.05013
3685.01346	0.05049
3683.72769	0.05074
3682.44192	0.05058
3681.15615	0.05000
3679.87038	0.04927
3678.58461	0.04869
3677.29884	0.04843
3676.01308	0.04832
3674.72731	0.04809
3673.44154	0.04772
3672.15577	0.04734
3670.87000	0.04692
3669.58423	0.04647
3668.29846	0.04632
3667.01269	0.04669
3665.72693	0.04740
3664.44116	0.04808
3663.15539	0.04855
3661.86962	0.04880
3660.58385	0.04892
3659.29808	0.04905
3658.01231	0.04924
3656.72654	0.04928
3655.44077	0.04896
3654.15501	0.04847
3652.86924	0.04822
3651.58347	0.04836
3650.29770	0.04864
3649.01193	0.04882
3647.72616	0.04890
3646.44039	0.04897
3645.15462	0.04907
3643.86886	0.04915
3642.58309	0.04919
3641.29732	0.04928
3640.01155	0.04947
3638.72578	0.04971
3637.44001	0.04980
3636.15424	0.04957
3634.86847	0.04901
3633.58270	0.04837
3632.29694	0.04812
3631.01117	0.04851
3629.72540	0.04924
3628.43963	0.04966
3627.15386	0.04952
3625.86809	0.04919
3624.58232	0.04920
3623.29655	0.04972
3622.01079	0.05051
3620.72502	0.05116
3619.43925	0.05144
3618.15348	0.05155
3616.86771	0.05184
3615.58194	0.05229
3614.29617	0.05254
3613.01040	0.05230
3611.72463	0.05176
3610.43887	0.05137
3609.15310	0.05150
3607.86733	0.05213
3606.58156	0.05291
3605.29579	0.05341
3604.01002	0.05345
3602.72425	0.05309
3601.43848	0.05255
3600.15272	0.05201
3598.86695	0.05165
3597.58118	0.05149
3596.29541	0.05134
3595.00964	0.05099
3593.72387	0.05057
3592.43810	0.05040
3591.15233	0.05070
3589.86656	0.05137
3588.58080	0.05202
3587.29503	0.05242
3586.00926	0.05263
3584.72349	0.05282
3583.43772	0.05297
3582.15195	0.05295
3580.86618	0.05275
3579.58041	0.05256
3578.29464	0.05255
3577.00888	0.05262
3575.72311	0.05256
3574.43734	0.05236
3573.15157	0.05233
3571.86580	0.05276
3570.58003	0.05359
3569.29426	0.05440
3568.00849	0.05480
3566.72273	0.05470
3565.43696	0.05439
3564.15119	0.05419
3562.86542	0.05419
3561.57965	0.05419
3560.29388	0.05404
3559.00811	0.05388
3557.72234	0.05402
3556.43657	0.05455
3555.15081	0.05523
3553.86504	0.05566
3552.57927	0.05571
3551.29350	0.05558
3550.00773	0.05562
3548.72196	0.05591
3547.43619	0.05620
3546.15042	0.05612
3544.86466	0.05554
3543.57889	0.05480
3542.29312	0.05442
3541.00735	0.05460
3539.72158	0.05506
3538.43581	0.05536
3537.15004	0.05537
3535.86427	0.05518
3534.57850	0.05485
3533.29274	0.05439
3532.00697	0.05397
3530.72120	0.05398
3529.43543	0.05456
3528.14966	0.05541
3526.86389	0.05602
3525.57812	0.05618
3524.29235	0.05599
3523.00659	0.05567
3521.72082	0.05536
3520.43505	0.05512
3519.14928	0.05507
3517.86351	0.05527
3516.57774	0.05562
3515.29197	0.05589
3514.00620	0.05594
3512.72043	0.05592
3511.43467	0.05611
3510.14890	0.05665
3508.86313	0.05729
3507.57736	0.05761
3506.29159	0.05735
3505.00582	0.05666
3503.72005	0.05593
3502.43428	0.05550
3501.14852	0.05548
3499.86275	0.05576
3498.57698	0.05620
3497.29121	0.05671
3496.00544	0.05717
3494.71967	0.05735
3493.43390	0.05709
3492.14813	0.05649
3490.86236	0.05591
3489.57660	0.05570
3488.29083	0.05593
3487.00506	0.05641
3485.71929	0.05690
3484.43352	0.05733
3483.14775	0.05770
3481.86198	0.05804
3480.57621	0.05830
3479.29045	0.05841
3478.00468	0.05838
3476.71891	0.05825
3475.43314	0.05809
3474.14737	0.05791
3472.86160	0.05768
3471.57583	0.05742
3470.29006	0.05726
3469.00429	0.05733
3467.71853	0.05763
3466.43276	0.05796
3465.14699	0.05811
3463.86122	0.05808
3462.57545	0.05801
3461.28968	0.05801
3460.00391	0.05807
3458.71814	0.05814
3457.43238	0.05821
3456.14661	0.05832
3454.86084	0.05853
3453.57507	0.05879
3452.28930	0.05895
3451.00353	0.05891
3449.71776	0.05867
3448.43199	0.05837
3447.14622	0.05817
3445.86046	0.05821
3444.57469	0.05848
3443.28892	0.05873
3442.00315	0.05871
3440.71738	0.05838
3439.43161	0.05794
3438.14584	0.05755
3436.86007	0.05720
3435.57431	0.05686
3434.28854	0.05657
3433.00277	0.05645
3431.71700	0.05659
3430.43123	0.05700
3429.14546	0.05772
3427.85969	0.05869
3426.57392	0.05978
3425.28815	0.06070
3424.00239	0.06116
3422.71662	0.06104
3421.43085	0.06051
3420.14508	0.05988
3418.85931	0.05936
3417.57354	0.05895
3416.28777	0.05858
3415.00200	0.05832
3413.71624	0.05844
3412.43047	0.05911
3411.14470	0.06011
3409.85893	0.06099
3408.57316	0.06142
3407.28739	0.06141
3406.00162	0.06123
3404.71585	0.06111
3403.43008	0.06113
3402.14432	0.06120
3400.85855	0.06126
3399.57278	0.06137
3398.28701	0.06168
3397.00124	0.06208
3395.71547	0.06222
3394.42970	0.06192
3393.14393	0.06136
3391.85817	0.06092
3390.57240	0.06089
3389.28663	0.06133
3388.00086	0.06211
3386.71509	0.06295
3385.42932	0.06358
3384.14355	0.06395
3382.85778	0.06404
3381.57201	0.06381
3380.28625	0.06325
3379.00048	0.06258
3377.71471	0.06215
3376.42894	0.06218
3375.14317	0.06261
3373.85740	0.06322
3372.57163	0.06377
3371.28586	0.06412
3370.00010	0.06423
3368.71433	0.06412
3367.42856	0.06393
3366.14279	0.06376
3364.85702	0.06363
3363.57125	0.06353
3362.28548	0.06350
3360.99971	0.06363
3359.71394	0.06393
3358.42818	0.06420
3357.14241	0.06427
3355.85664	0.06414
3354.57087	0.06400
3353.28510	0.06399
3351.99933	0.06413
3350.71356	0.06435
3349.42779	0.06461
3348.14202	0.06498
3346.85626	0.06550
3345.57049	0.06611
3344.28472	0.06667
3342.99895	0.06705
3341.71318	0.06715
3340.42741	0.06707
3339.14164	0.06706
3337.85587	0.06729
3336.57011	0.06768
3335.28434	0.06796
3333.99857	0.06801
3332.71280	0.06795
3331.42703	0.06794
3330.14126	0.06795
3328.85549	0.06788
3327.56972	0.06769
3326.28395	0.06750
3324.99819	0.06745
3323.71242	0.06760
3322.42665	0.06790
3321.14088	0.06825
3319.85511	0.06858
3318.56934	0.06886
3317.28357	0.06902
3315.99780	0.06902
3314.71204	0.06889
3313.42627	0.06879
3312.14050	0.06893
3310.85473	0.06939
3309.56896	0.07001
3308.28319	0.07048
3306.99742	0.07056
3305.71165	0.07033
3304.42588	0.07002
3303.14012	0.06981
3301.85435	0.06968
3300.56858	0.06960
3299.28281	0.06955
3297.99704	0.06960
3296.71127	0.06980
3295.42550	0.07021
3294.13973	0.07081
3292.85397	0.07142
3291.56820	0.07174
3290.28243	0.07161
3288.99666	0.07114
3287.71089	0.07058
3286.42512	0.07018
3285.13935	0.07009
3283.85358	0.07034
3282.56781	0.07080
3281.28205	0.07127
3279.99628	0.07157
3278.71051	0.07165
3277.42474	0.07150
3276.13897	0.07113
3274.85320	0.07060
3273.56743	0.07002
3272.28166	0.06955
3270.99590	0.06929
3269.71013	0.06930
3268.42436	0.06956
3267.13859	0.06990
3265.85282	0.07016
3264.56705	0.07023
3263.28128	0.07017
3261.99551	0.07014
3260.70974	0.07023
3259.42398	0.07042
3258.13821	0.07062
3256.85244	0.07076
3255.56667	0.07080
3254.28090	0.07073
3252.99513	0.07052
3251.70936	0.07016
3250.42359	0.06972
3249.13783	0.06932
3247.85206	0.06910
3246.56629	0.06910
3245.28052	0.06932
3243.99475	0.06964
3242.70898	0.06992
3241.42321	0.07010
3240.13744	0.07019
3238.85167	0.07022
3237.56591	0.07013
3236.28014	0.06981
3234.99437	0.06929
3233.70860	0.06879
3232.42283	0.06855
3231.13706	0.06856
3229.85129	0.06860
3228.56552	0.06852
3227.27976	0.06845
3225.99399	0.06858
3224.70822	0.06884
3223.42245	0.06893
3222.13668	0.06868
3220.85091	0.06827
3219.56514	0.06803
3218.27937	0.06807
3216.99360	0.06820
3215.70784	0.06821
3214.42207	0.06802
3213.13630	0.06781
3211.85053	0.06779
3210.56476	0.06807
3209.27899	0.06849
3207.99322	0.06882
3206.70745	0.06900
3205.42169	0.06914
3204.13592	0.06933
3202.85015	0.06946
3201.56438	0.06941
3200.27861	0.06922
3198.99284	0.06913
3197.70707	0.06932
3196.42130	0.06973
3195.13553	0.07003
3193.84977	0.06991
3192.56400	0.06930
3191.27823	0.06845
3189.99246	0.06778
3188.70669	0.06755
3187.42092	0.06770
3186.13515	0.06791
3184.84938	0.06795
3183.56362	0.06786
3182.27785	0.06781
3180.99208	0.06786
3179.70631	0.06791
3178.42054	0.06792
3177.13477	0.06789
3175.84900	0.06779
3174.56323	0.06755
3173.27746	0.06717
3171.99170	0.06670
3170.70593	0.06620
3169.42016	0.06573
3168.13439	0.06541
3166.84862	0.06539
3165.56285	0.06566
3164.27708	0.06601
3162.99131	0.06617
3161.70555	0.06607
3160.41978	0.06583
3159.13401	0.06563
3157.84824	0.06555
3156.56247	0.06561
3155.27670	0.06583
3153.99093	0.06615
3152.70516	0.06641
3151.41939	0.06648
3150.13363	0.06629
3148.84786	0.06587
3147.56209	0.06535
3146.27632	0.06500
3144.99055	0.06502
3143.70478	0.06539
3142.41901	0.06582
3141.13324	0.06598
3139.84748	0.06573
3138.56171	0.06524
3137.27594	0.06480
3135.99017	0.06461
3134.70440	0.06465
3133.41863	0.06477
3132.13286	0.06482
3130.84709	0.06475
3129.56132	0.06456
3128.27556	0.06426
3126.98979	0.06393
3125.70402	0.06367
3124.41825	0.06354
3123.13248	0.06351
3121.84671	0.06347
3120.56094	0.06338
3119.27517	0.06322
3117.98940	0.06299
3116.70364	0.06277
3115.41787	0.06273
3114.13210	0.06293
3112.84633	0.06321
3111.56056	0.06334
3110.27479	0.06327
3108.98902	0.06322
3107.70325	0.06333
3106.41749	0.06357
3105.13172	0.06376
3103.84595	0.06381
3102.56018	0.06373
3101.27441	0.06356
3099.98864	0.06343
3098.70287	0.06349
3097.41710	0.06378
3096.13133	0.06411
3094.84557	0.06424
3093.55980	0.06410
3092.27403	0.06383
3090.98826	0.06360
3089.70249	0.06345
3088.41672	0.06326
3087.13095	0.06297
3085.84518	0.06264
3084.55942	0.06246
3083.27365	0.06263
3081.98788	0.06311
3080.70211	0.06368
3079.41634	0.06413
3078.13057	0.06434
3076.84480	0.06431
3075.55903	0.06404
3074.27326	0.06364
3072.98750	0.06332
3071.70173	0.06321
3070.41596	0.06324
3069.13019	0.06323
3067.84442	0.06310
3066.55865	0.06294
3065.27288	0.06286
3063.98711	0.06290
3062.70135	0.06304
3061.41558	0.06321
3060.12981	0.06328
3058.84404	0.06313
3057.55827	0.06279
3056.27250	0.06241
3054.98673	0.06210
3053.70096	0.06186
3052.41519	0.06162
3051.12943	0.06141
3049.84366	0.06126
3048.55789	0.06119
3047.27212	0.06119
3045.98635	0.06126
3044.70058	0.06140
3043.41481	0.06159
3042.12904	0.06177
3040.84328	0.06188
3039.55751	0.06181
3038.27174	0.06150
3036.98597	0.06104
3035.70020	0.06065
3034.41443	0.06048
3033.12866	0.06048
3031.84289	0.06050
3030.55712	0.06039
3029.27136	0.06018
3027.98559	0.05993
3026.69982	0.05971
3025.41405	0.05951
3024.12828	0.05930
3022.84251	0.05904
3021.55674	0.05875
3020.27097	0.05854
3018.98521	0.05853
3017.69944	0.05871
3016.41367	0.05888
3015.12790	0.05888
3013.84213	0.05871
3012.55636	0.05847
3011.27059	0.05830
3009.98482	0.05822
3008.69905	0.05816
3007.41329	0.05804
3006.12752	0.05781
3004.84175	0.05752
3003.55598	0.05731
3002.27021	0.05725
3000.98444	0.05726
2999.69867	0.05720
2998.41290	0.05697
2997.12714	0.05666
2995.84137	0.05644
2994.55560	0.05638
2993.26983	0.05637
2991.98406	0.05629
2990.69829	0.05617
2989.41252	0.05615
2988.12675	0.05626
2986.84098	0.05642
2985.55522	0.05655
2984.26945	0.05660
2982.98368	0.05649
2981.69791	0.05621
2980.41214	0.05591
2979.12637	0.05574
2977.84060	0.05567
2976.55483	0.05548
2975.26907	0.05511
2973.98330	0.05475
2972.69753	0.05462
2971.41176	0.05470
2970.12599	0.05485
2968.84022	0.05493
2967.55445	0.05493
2966.26868	0.05494
2964.98291	0.05501
2963.69715	0.05509
2962.41138	0.05512
2961.12561	0.05498
2959.83984	0.05465
2958.55407	0.05426
2957.26830	0.05402
2955.98253	0.05406
2954.69676	0.05430
2953.41100	0.05449
2952.12523	0.05444
2950.83946	0.05418
2949.55369	0.05387
2948.26792	0.05364
2946.98215	0.05347
2945.69638	0.05324
2944.41061	0.05284
2943.12484	0.05226
2941.83908	0.05148
2940.55331	0.05056
2939.26754	0.04963
2937.98177	0.04881
2936.69600	0.04808
2935.41023	0.04733
2934.12446	0.04648
2932.83869	0.04559
2931.55293	0.04478
2930.26716	0.04409
2928.98139	0.04348
2927.69562	0.04291
2926.40985	0.04234
2925.12408	0.04172
2923.83831	0.04108
2922.55254	0.04052
2921.26677	0.04008
2919.98101	0.03977
2918.69524	0.03965
2917.40947	0.03991
2916.12370	0.04080
2914.83793	0.04234
2913.55216	0.04421
2912.26639	0.04601
2910.98062	0.04746
2909.69486	0.04848
2908.40909	0.04916
2907.12332	0.04967
2905.83755	0.05021
2904.55178	0.05083
2903.26601	0.05141
2901.98024	0.05175
2900.69447	0.05183
2899.40870	0.05178
2898.12294	0.05176
2896.83717	0.05188
2895.55140	0.05208
2894.26563	0.05224
2892.97986	0.05226
2891.69409	0.05222
2890.40832	0.05224
2889.12255	0.05229
2887.83678	0.05219
2886.55102	0.05184
2885.26525	0.05139
2883.97948	0.05104
2882.69371	0.05091
2881.40794	0.05095
2880.12217	0.05105
2878.83640	0.05121
2877.55063	0.05145
2876.26487	0.05171
2874.97910	0.05177
2873.69333	0.05155
2872.40756	0.05126
2871.12179	0.05117
2869.83602	0.05132
2868.55025	0.05143
2867.26448	0.05123
2865.97871	0.05066
2864.69295	0.04987
2863.40718	0.04900
2862.12141	0.04809
2860.83564	0.04714
2859.54987	0.04616
2858.26410	0.04515
2856.97833	0.04417
2855.69256	0.04328
2854.40680	0.04256
2853.12103	0.04206
2851.83526	0.04178
2850.54949	0.04178
2849.26372	0.04220
2847.97795	0.04320
2846.69218	0.04471
2845.40641	0.04642
2844.12064	0.04792
2842.83488	0.04905
2841.54911	0.04983
2840.26334	0.05035
2838.97757	0.05064
2837.69180	0.05075
2836.40603	0.05077
2835.12026	0.05074
2833.83449	0.05066
2832.54873	0.05059
2831.26296	0.05066
2829.97719	0.05084
2828.69142	0.05096
2827.40565	0.05088
2826.11988	0.05067
2824.83411	0.05055
2823.54834	0.05064
2822.26257	0.05083
2820.97681	0.05094
2819.69104	0.05084
2818.40527	0.05054
2817.11950	0.05015
2815.83373	0.04973
2814.54796	0.04932
2813.26219	0.04898
2811.97642	0.04880
2810.69066	0.04879
2809.40489	0.04889
2808.11912	0.04900
2806.83335	0.04910
2805.54758	0.04921
2804.26181	0.04929
2802.97604	0.04926
2801.69027	0.04914
2800.40450	0.04901
2799.11874	0.04898
2797.83297	0.04899
2796.54720	0.04891
2795.26143	0.04864
2793.97566	0.04826
2792.68989	0.04793
2791.40412	0.04772
2790.11835	0.04755
2788.83259	0.04737
2787.54682	0.04719
2786.26105	0.04714
2784.97528	0.04728
2783.68951	0.04758
2782.40374	0.04789
2781.11797	0.04805
2779.83220	0.04803
2778.54643	0.04793
2777.26067	0.04785
2775.97490	0.04777
2774.68913	0.04767
2773.40336	0.04755
2772.11759	0.04749
2770.83182	0.04745
2769.54605	0.04737
2768.26028	0.04718
2766.97452	0.04688
2765.68875	0.04656
2764.40298	0.04636
2763.11721	0.04636
2761.83144	0.04646
2760.54567	0.04644
2759.25990	0.04620
2757.97413	0.04589
2756.68836	0.04572
2755.40260	0.04573
2754.11683	0.04585
2752.83106	0.04596
2751.54529	0.04591
2750.25952	0.04568
2748.97375	0.04537
2747.68798	0.04517
2746.40221	0.04518
2745.11645	0.04535
2743.83068	0.04554
2742.54491	0.04567
2741.25914	0.04574
2739.97337	0.04576
2738.68760	0.04575
2737.40183	0.04564
2736.11606	0.04544
2734.83029	0.04520
2733.54453	0.04501
2732.25876	0.04485
2730.97299	0.04464
2729.68722	0.04433
2728.40145	0.04401
2727.11568	0.04380
2725.82991	0.04384
2724.54414	0.04408
2723.25838	0.04435
2721.97261	0.04443
2720.68684	0.04427
2719.40107	0.04409
2718.11530	0.04412
2716.82953	0.04435
2715.54376	0.04453
2714.25799	0.04445
2712.97222	0.04418
2711.68646	0.04393
2710.40069	0.04383
2709.11492	0.04381
2707.82915	0.04382
2706.54338	0.04379
2705.25761	0.04371
2703.97184	0.04363
2702.68607	0.04358
2701.40031	0.04357
2700.11454	0.04356
2698.82877	0.04353
2697.54300	0.04350
2696.25723	0.04347
2694.97146	0.04342
2693.68569	0.04337
2692.39992	0.04332
2691.11415	0.04328
2689.82839	0.04324
2688.54262	0.04318
2687.25685	0.04314
2685.97108	0.04310
2684.68531	0.04306
2683.39954	0.04297
2682.11377	0.04286
2680.82800	0.04277
2679.54224	0.04271
2678.25647	0.04270
2676.97070	0.04275
2675.68493	0.04281
2674.39916	0.04280
2673.11339	0.04267
2671.82762	0.04247
2670.54185	0.04230
2669.25608	0.04218
2667.97032	0.04208
2666.68455	0.04199
2665.39878	0.04192
2664.11301	0.04188
2662.82724	0.04188
2661.54147	0.04191
2660.25570	0.04200
2658.96993	0.04212
2657.68417	0.04218
2656.39840	0.04210
2655.11263	0.04190
2653.82686	0.04167
2652.54109	0.04148
2651.25532	0.04138
2649.96955	0.04133
2648.68378	0.04129
2647.39801	0.04115
2646.11225	0.04089
2644.82648	0.04056
2643.54071	0.04030
2642.25494	0.04020
2640.96917	0.04020
2639.68340	0.04014
2638.39763	0.03995
2637.11186	0.03965
2635.82609	0.03938
2634.54033	0.03920
2633.25456	0.03904
2631.96879	0.03887
2630.68302	0.03876
2629.39725	0.03874
2628.11148	0.03879
2626.82571	0.03876
2625.53994	0.03855
2624.25418	0.03820
2622.96841	0.03787
2621.68264	0.03765
2620.39687	0.03752
2619.11110	0.03743
2617.82533	0.03741
2616.53956	0.03746
2615.25379	0.03753
2613.96802	0.03760
2612.68226	0.03768
2611.39649	0.03777
2610.11072	0.03779
2608.82495	0.03771
2607.53918	0.03759
2606.25341	0.03746
2604.96764	0.03729
2603.68187	0.03712
2602.39611	0.03700
2601.11034	0.03693
2599.82457	0.03687
2598.53880	0.03677
2597.25303	0.03663
2595.96726	0.03643
2594.68149	0.03619
2593.39572	0.03596
2592.10995	0.03580
2590.82419	0.03580
2589.53842	0.03592
2588.25265	0.03597
2586.96688	0.03577
2585.68111	0.03539
2584.39534	0.03509
2583.10957	0.03506
2581.82380	0.03523
2580.53804	0.03539
2579.25227	0.03544
2577.96650	0.03539
2576.68073	0.03530
2575.39496	0.03517
2574.10919	0.03495
2572.82342	0.03463
2571.53765	0.03430
2570.25188	0.03409
2568.96612	0.03410
2567.68035	0.03431
2566.39458	0.03456
2565.10881	0.03465
2563.82304	0.03459
2562.53727	0.03453
2561.25150	0.03456
2559.96573	0.03461
2558.67997	0.03448
2557.39420	0.03410
2556.10843	0.03373
2554.82266	0.03369
2553.53689	0.03409
2552.25112	0.03471
2550.96535	0.03511
2549.67958	0.03499
2548.39381	0.03439
2547.10805	0.03361
2545.82228	0.03312
2544.53651	0.03312
2543.25074	0.03340
2541.96497	0.03350
2540.67920	0.03322
2539.39343	0.03280
2538.10766	0.03261
2536.82190	0.03272
2535.53613	0.03289
2534.25036	0.03286
2532.96459	0.03258
2531.67882	0.03223
2530.39305	0.03202
2529.10728	0.03204
2527.82151	0.03220
2526.53574	0.03238
2525.24998	0.03255
2523.96421	0.03268
2522.67844	0.03272
2521.39267	0.03266
2520.10690	0.03255
2518.82113	0.03255
2517.53536	0.03279
2516.24959	0.03317
2514.96383	0.03340
2513.67806	0.03321
2512.39229	0.03270
2511.10652	0.03219
2509.82075	0.03186
2508.53498	0.03161
2507.24921	0.03133
2505.96344	0.03111
2504.67767	0.03108
2503.39191	0.03124
2502.10614	0.03142
2500.82037	0.03153
2499.53460	0.03162
2498.24883	0.03179
2496.96306	0.03206
2495.67729	0.03226
2494.39152	0.03216
2493.10576	0.03181
2491.81999	0.03148
2490.53422	0.03151
2489.24845	0.03189
2487.96268	0.03226
2486.67691	0.03232
2485.39114	0.03208
2484.10537	0.03188
2482.81960	0.03192
2481.53384	0.03211
2480.24807	0.03224
2478.96230	0.03218
2477.67653	0.03200
2476.39076	0.03181
2475.10499	0.03163
2473.81922	0.03140
2472.53345	0.03108
2471.24769	0.03080
2469.96192	0.03072
2468.67615	0.03082
2467.39038	0.03092
2466.10461	0.03096
2464.81884	0.03098
2463.53307	0.03098
2462.24730	0.03097
2460.96153	0.03098
2459.67577	0.03105
2458.39000	0.03111
2457.10423	0.03103
2455.81846	0.03078
2454.53269	0.03050
2453.24692	0.03036
2451.96115	0.03041
2450.67538	0.03057
2449.38962	0.03070
2448.10385	0.03070
2446.81808	0.03054
2445.53231	0.03019
2444.24654	0.02973
2442.96077	0.02933
2441.67500	0.02917
2440.38923	0.02926
2439.10346	0.02954
2437.81770	0.02987
2436.53193	0.03019
2435.24616	0.03045
2433.96039	0.03056
2432.67462	0.03050
2431.38885	0.03035
2430.10308	0.03025
2428.81731	0.03030
2427.53155	0.03042
2426.24578	0.03034
2424.96001	0.02998
2423.67424	0.02957
2422.38847	0.02942
2421.10270	0.02958
2419.81693	0.02978
2418.53116	0.02976
2417.24539	0.02950
2415.95963	0.02919
2414.67386	0.02904
2413.38809	0.02920
2412.10232	0.02960
2410.81655	0.03004
2409.53078	0.03023
2408.24501	0.03011
2406.95924	0.02983
2405.67347	0.02960
2404.38771	0.02956
2403.10194	0.02968
2401.81617	0.02985
2400.53040	0.02993
2399.24463	0.02984
2397.95886	0.02969
2396.67309	0.02952
2395.38732	0.02934
2394.10156	0.02909
2392.81579	0.02879
2391.53002	0.02859
2390.24425	0.02867
2388.95848	0.02900
2387.67271	0.02935
2386.38694	0.02956
2385.10117	0.02962
2383.81540	0.02963
2382.52964	0.02972
2381.24387	0.02992
2379.95810	0.03017
2378.67233	0.03020
2377.38656	0.03004
2376.10079	0.02995
2374.81502	0.03001
2373.52925	0.02987
2372.24349	0.02954
2370.95772	0.02929
2369.67195	0.02914
2368.38618	0.02902
2367.10041	0.02885
2365.81464	0.02880
2364.52887	0.02888
2363.24310	0.02906
2361.95733	0.02926
2360.67157	0.02939
2359.38580	0.02956
2358.10003	0.02976
2356.81426	0.02989
2355.52849	0.03003
2354.24272	0.03030
2352.95695	0.03063
2351.67118	0.03060
2350.38542	0.03040
2349.09965	0.03035
2347.81388	0.03028
2346.52811	0.03001
2345.24234	0.02989
2343.95657	0.03015
2342.67080	0.03086
2341.38503	0.03071
2340.09926	0.02996
2338.81350	0.02998
2337.52773	0.03055
2336.24196	0.03025
2334.95619	0.02964
2333.67042	0.02967
2332.38465	0.03017
2331.09888	0.02958
2329.81311	0.02951
2328.52735	0.03014
2327.24158	0.03044
2325.95581	0.03080
2324.67004	0.03130
2323.38427	0.03177
2322.09850	0.03151
2320.81273	0.03112
2319.52696	0.03072
2318.24119	0.03039
2316.95543	0.03015
2315.66966	0.02995
2314.38389	0.02985
2313.09812	0.02968
2311.81235	0.02936
2310.52658	0.02914
2309.24081	0.02904
2307.95504	0.02892
2306.66928	0.02883
2305.38351	0.02873
2304.09774	0.02860
2302.81197	0.02840
2301.52620	0.02819
2300.24043	0.02815
2298.95466	0.02825
2297.66889	0.02829
2296.38312	0.02807
2295.09736	0.02764
2293.81159	0.02726
2292.52582	0.02717
2291.24005	0.02739
2289.95428	0.02781
2288.66851	0.02816
2287.38274	0.02818
2286.09697	0.02776
2284.81121	0.02703
2283.52544	0.02626
2282.23967	0.02567
2280.95390	0.02533
2279.66813	0.02516
2278.38236	0.02510
2277.09659	0.02518
2275.81082	0.02539
2274.52505	0.02568
2273.23929	0.02586
2271.95352	0.02583
2270.66775	0.02561
2269.38198	0.02530
2268.09621	0.02498
2266.81044	0.02468
2265.52467	0.02436
2264.23890	0.02402
2262.95314	0.02376
2261.66737	0.02375
2260.38160	0.02402
2259.09583	0.02430
2257.81006	0.02419
2256.52429	0.02359
2255.23852	0.02292
2253.95275	0.02276
2252.66698	0.02328
2251.38122	0.02402
2250.09545	0.02442
2248.80968	0.02431
2247.52391	0.02383
2246.23814	0.02346
2244.95237	0.02327
2243.66660	0.02307
2242.38083	0.02277
2241.09507	0.02235
2239.80930	0.02190
2238.52353	0.02155
2237.23776	0.02155
2235.95199	0.02188
2234.66622	0.02209
2233.38045	0.02165
2232.09468	0.02053
2230.80891	0.01939
2229.52315	0.01892
2228.23738	0.01923
2226.95161	0.01992
2225.66584	0.02042
2224.38007	0.02046
2223.09430	0.02012
2221.80853	0.01969
2220.52276	0.01941
2219.23700	0.01932
2217.95123	0.01937
2216.66546	0.01952
2215.37969	0.01969
2214.09392	0.01977
2212.80815	0.01963
2211.52238	0.01916
2210.23661	0.01839
2208.95084	0.01760
2207.66508	0.01719
2206.37931	0.01721
2205.09354	0.01737
2203.80777	0.01738
2202.52200	0.01743
2201.23623	0.01775
2199.95046	0.01820
2198.66469	0.01832
2197.37893	0.01792
2196.09316	0.01730
2194.80739	0.01694
2193.52162	0.01707
2192.23585	0.01751
2190.95008	0.01782
2189.66431	0.01773
2188.37854	0.01758
2187.09277	0.01800
2185.80701	0.01912
2184.52124	0.02016
2183.23547	0.02023
2181.94970	0.01927
2180.66393	0.01804
2179.37816	0.01729
2178.09239	0.01710
2176.80662	0.01712
2175.52085	0.01710
2174.23509	0.01704
2172.94932	0.01693
2171.66355	0.01665
2170.37778	0.01611
2169.09201	0.01551
2167.80624	0.01517
2166.52047	0.01514
2165.23470	0.01516
2163.94894	0.01491
2162.66317	0.01416
2161.37740	0.01290
2160.09163	0.01138
2158.80586	0.01013
2157.52009	0.00952
2156.23432	0.00952
2154.94855	0.00974
2153.66278	0.00974
2152.37702	0.00934
2151.09125	0.00883
2149.80548	0.00874
2148.51971	0.00933
2147.23394	0.01033
2145.94817	0.01122
2144.66240	0.01174
2143.37663	0.01194
2142.09087	0.01201
2140.80510	0.01222
2139.51933	0.01273
2138.23356	0.01348
2136.94779	0.01412
2135.66202	0.01442
2134.37625	0.01452
2133.09048	0.01483
2131.80471	0.01546
2130.51895	0.01606
2129.23318	0.01627
2127.94741	0.01617
2126.66164	0.01609
2125.37587	0.01626
2124.09010	0.01667
2122.80433	0.01718
2121.51856	0.01760
2120.23280	0.01780
2118.94703	0.01784
2117.66126	0.01788
2116.37549	0.01798
2115.08972	0.01800
2113.80395	0.01785
2112.51818	0.01762
2111.23241	0.01748
2109.94664	0.01741
2108.66088	0.01723
2107.37511	0.01680
2106.08934	0.01621
2104.80357	0.01580
2103.51780	0.01584
2102.23203	0.01623
2100.94626	0.01671
2099.66049	0.01732
2098.37473	0.01765
2097.08896	0.01759
2095.80319	0.01710
2094.51742	0.01628
2093.23165	0.01555
2091.94588	0.01534
2090.66011	0.01572
2089.37434	0.01634
2088.08857	0.01675
2086.80281	0.01676
2085.51704	0.01649
2084.23127	0.01620
2082.94550	0.01612
2081.65973	0.01630
2080.37396	0.01667
2079.08819	0.01709
2077.80242	0.01746
2076.51666	0.01761
2075.23089	0.01736
2073.94512	0.01667
2072.65935	0.01578
2071.37358	0.01506
2070.08781	0.01472
2068.80204	0.01475
2067.51627	0.01499
2066.23050	0.01529
2064.94474	0.01550
2063.65897	0.01555
2062.37320	0.01545
2061.08743	0.01521
2059.80166	0.01474
2058.51589	0.01401
2057.23012	0.01327
2055.94435	0.01292
2054.65859	0.01315
2053.37282	0.01366
2052.08705	0.01387
2050.80128	0.01336
2049.51551	0.01232
2048.22974	0.01145
2046.94397	0.01125
2045.65820	0.01154
2044.37243	0.01170
2043.08667	0.01134
2041.80090	0.01062
2040.51513	0.00986
2039.22936	0.00914
2037.94359	0.00826
2036.65782	0.00711
2035.37205	0.00595
2034.08628	0.00540
2032.80052	0.00588
2031.51475	0.00715
2030.22898	0.00845
2028.94321	0.00916
2027.65744	0.00918
2026.37167	0.00871
2025.08590	0.00790
2023.80013	0.00681
2022.51436	0.00565
2021.22860	0.00481
2019.94283	0.00471
2018.65706	0.00546
2017.37129	0.00686
2016.08552	0.00846
2014.79975	0.00973
2013.51398	0.01023
2012.22821	0.01000
2010.94245	0.00963
2009.65668	0.00986
2008.37091	0.01090
2007.08514	0.01225
2005.79937	0.01330
2004.51360	0.01377
2003.22783	0.01373
2001.94206	0.01334
2000.65629	0.01278
1999.37053	0.01229
1998.08476	0.01205
1996.79899	0.01202
1995.51322	0.01196
1994.22745	0.01171
1992.94168	0.01141
1991.65591	0.01151
1990.37014	0.01236
1989.08438	0.01378
1987.79861	0.01501
1986.51284	0.01532
1985.22707	0.01474
1983.94130	0.01401
1982.65553	0.01393
1981.36976	0.01464
1980.08399	0.01551
1978.79822	0.01574
1977.51246	0.01507
1976.22669	0.01391
1974.94092	0.01298
1973.65515	0.01262
1972.36938	0.01269
1971.08361	0.01287
1969.79784	0.01302
1968.51207	0.01316
1967.22631	0.01325
1965.94054	0.01313
1964.65477	0.01266
1963.36900	0.01188
1962.08323	0.01112
1960.79746	0.01076
1959.51169	0.01098
1958.22592	0.01166
1956.94015	0.01258
1955.65439	0.01346
1954.36862	0.01406
1953.08285	0.01419
1951.79708	0.01388
1950.51131	0.01333
1949.22554	0.01277
1947.93977	0.01233
1946.65400	0.01210
1945.36823	0.01210
1944.08247	0.01238
1942.79670	0.01290
1941.51093	0.01357
1940.22516	0.01422
1938.93939	0.01475
1937.65362	0.01516
1936.36785	0.01555
1935.08208	0.01586
1933.79632	0.01595
1932.51055	0.01570
1931.22478	0.01523
1929.93901	0.01486
1928.65324	0.01479
1927.36747	0.01497
1926.08170	0.01521
1924.79593	0.01544
1923.51016	0.01570
1922.22440	0.01603
1920.93863	0.01632
1919.65286	0.01646
1918.36709	0.01639
1917.08132	0.01616
1915.79555	0.01594
1914.50978	0.01585
1913.22401	0.01585
1911.93825	0.01581
1910.65248	0.01561
1909.36671	0.01530
1908.08094	0.01499
1906.79517	0.01478
1905.50940	0.01467
1904.22363	0.01466
1902.93786	0.01472
1901.65209	0.01487
1900.36633	0.01509
1899.08056	0.01538
1897.79479	0.01571
1896.50902	0.01608
1895.22325	0.01644
1893.93748	0.01673
1892.65171	0.01684
1891.36594	0.01676
1890.08018	0.01651
1888.79441	0.01626
1887.50864	0.01612
1886.22287	0.01607
1884.93710	0.01601
1883.65133	0.01593
1882.36556	0.01593
1881.07979	0.01606
1879.79402	0.01624
1878.50826	0.01636
1877.22249	0.01644
1875.93672	0.01654
1874.65095	0.01666
1873.36518	0.01670
1872.07941	0.01661
1870.79364	0.01645
1869.50787	0.01633
1868.22211	0.01629
1866.93634	0.01630
1865.65057	0.01629
1864.36480	0.01628
1863.07903	0.01627
1861.79326	0.01627
1860.50749	0.01623
1859.22172	0.01611
1857.93595	0.01598
1856.65019	0.01588
1855.36442	0.01585
1854.07865	0.01588
1852.79288	0.01593
1851.50711	0.01600
1850.22134	0.01607
1848.93557	0.01616
1847.64980	0.01627
1846.36404	0.01644
1845.07827	0.01662
1843.79250	0.01671
1842.50673	0.01667
1841.22096	0.01657
1839.93519	0.01647
1838.64942	0.01638
1837.36365	0.01632
1836.07788	0.01632
1834.79212	0.01640
1833.50635	0.01653
1832.22058	0.01666
1830.93481	0.01675
1829.64904	0.01674
1828.36327	0.01668
1827.07750	0.01662
1825.79173	0.01659
1824.50597	0.01654
1823.22020	0.01642
1821.93443	0.01627
1820.64866	0.01611
1819.36289	0.01598
1818.07712	0.01592
1816.79135	0.01599
1815.50558	0.01619
1814.21981	0.01649
1812.93405	0.01683
1811.64828	0.01711
1810.36251	0.01727
1809.07674	0.01727
1807.79097	0.01715
1806.50520	0.01694
1805.21943	0.01670
1803.93366	0.01649
1802.64790	0.01640
1801.36213	0.01643
1800.07636	0.01648
1798.79059	0.01649
1797.50482	0.01646
1796.21905	0.01645
1794.93328	0.01655
1793.64751	0.01677
1792.36174	0.01697
1791.07598	0.01705
1789.79021	0.01701
1788.50444	0.01691
1787.21867	0.01680
1785.93290	0.01665
1784.64713	0.01647
1783.36136	0.01631
1782.07559	0.01621
1780.78983	0.01619
1779.50406	0.01620
1778.21829	0.01623
1776.93252	0.01625
1775.64675	0.01627
1774.36098	0.01629
1773.07521	0.01626
1771.78944	0.01622
1770.50367	0.01626
1769.21791	0.01646
1767.93214	0.01672
1766.64637	0.01682
1765.36060	0.01669
1764.07483	0.01642
1762.78906	0.01611
1761.50329	0.01581
1760.21752	0.01558
1758.93176	0.01542
1757.64599	0.01526
1756.36022	0.01501
1755.07445	0.01474
1753.78868	0.01457
1752.50291	0.01448
1751.21714	0.01433
1749.93137	0.01400
1748.64560	0.01357
1747.35984	0.01319
1746.07407	0.01294
1744.78830	0.01281
1743.50253	0.01277
1742.21676	0.01274
1740.93099	0.01266
1739.64522	0.01245
1738.35945	0.01211
1737.07369	0.01183
1735.78792	0.01174
1734.50215	0.01174
1733.21638	0.01165
1731.93061	0.01152
1730.64484	0.01150
1729.35907	0.01166
1728.07330	0.01192
1726.78753	0.01225
1725.50177	0.01264
1724.21600	0.01305
1722.93023	0.01343
1721.64446	0.01382
1720.35869	0.01431
1719.07292	0.01492
1717.78715	0.01548
1716.50138	0.01586
1715.21561	0.01615
1713.92985	0.01657
1712.64408	0.01720
1711.35831	0.01795
1710.07254	0.01867
1708.78677	0.01934
1707.50100	0.02005
1706.21523	0.02083
1704.92946	0.02162
1703.64370	0.02246
1702.35793	0.02344
1701.07216	0.02453
1699.78639	0.02553
1698.50062	0.02645
1697.21485	0.02745
1695.92908	0.02852
1694.64331	0.02948
1693.35754	0.03039
1692.07178	0.03141
1690.78601	0.03250
1689.50024	0.03353
1688.21447	0.03449
1686.92870	0.03551
1685.64293	0.03659
1684.35716	0.03758
1683.07139	0.03837
1681.78563	0.03911
1680.49986	0.03995
1679.21409	0.04087
1677.92832	0.04181
1676.64255	0.04274
1675.35678	0.04360
1674.07101	0.04441
1672.78524	0.04525
1671.49947	0.04619
1670.21371	0.04709
1668.92794	0.04783
1667.64217	0.04845
1666.35640	0.04909
1665.07063	0.04983
1663.78486	0.05062
1662.49909	0.05139
1661.21332	0.05213
1659.92756	0.05291
1658.64179	0.05371
1657.35602	0.05451
1656.07025	0.05535
1654.78448	0.05631
1653.49871	0.05719
1652.21294	0.05769
1650.92717	0.05786
1649.64140	0.05806
1648.35564	0.05848
1647.06987	0.05897
1645.78410	0.05934
1644.49833	0.05956
1643.21256	0.05974
1641.92679	0.05993
1640.64102	0.06006
1639.35525	0.06013
1638.06949	0.06021
1636.78372	0.06032
1635.49795	0.06036
1634.21218	0.06024
1632.92641	0.05999
1631.64064	0.05969
1630.35487	0.05932
1629.06910	0.05883
1627.78333	0.05821
1626.49757	0.05753
1625.21180	0.05690
1623.92603	0.05633
1622.64026	0.05577
1621.35449	0.05517
1620.06872	0.05460
1618.78295	0.05414
1617.49718	0.05372
1616.21142	0.05321
1614.92565	0.05259
1613.63988	0.05203
1612.35411	0.05161
1611.06834	0.05128
1609.78257	0.05095
1608.49680	0.05059
1607.21103	0.05021
1605.92526	0.04985
1604.63950	0.04956
1603.35373	0.04933
1602.06796	0.04915
1600.78219	0.04904
1599.49642	0.04901
1598.21065	0.04910
1596.92488	0.04925
1595.63911	0.04937
1594.35335	0.04943
1593.06758	0.04946
1591.78181	0.04949
1590.49604	0.04953
1589.21027	0.04960
1587.92450	0.04971
1586.63873	0.04988
1585.35296	0.05013
1584.06719	0.05042
1582.78143	0.05075
1581.49566	0.05109
1580.20989	0.05141
1578.92412	0.05178
1577.63835	0.05225
1576.35258	0.05271
1575.06681	0.05304
1573.78104	0.05333
1572.49528	0.05375
1571.20951	0.05434
1569.92374	0.05498
1568.63797	0.05557
1567.35220	0.05613
1566.06643	0.05666
1564.78066	0.05712
1563.49489	0.05751
1562.20912	0.05796
1560.92336	0.05852
1559.63759	0.05903
1558.35182	0.05928
1557.06605	0.05933
1555.78028	0.05945
1554.49451	0.05970
1553.20874	0.05998
1551.92297	0.06017
1550.63721	0.06029
1549.35144	0.06032
1548.06567	0.06027
1546.77990	0.06018
1545.49413	0.06005
1544.20836	0.05985
1542.92259	0.05964
1541.63682	0.05948
1540.35105	0.05932
1539.06529	0.05900
1537.77952	0.05849
1536.49375	0.05795
1535.20798	0.05750
1533.92221	0.05711
1532.63644	0.05668
1531.35067	0.05625
1530.06490	0.05592
1528.77914	0.05568
1527.49337	0.05546
1526.20760	0.05521
1524.92183	0.05493
1523.63606	0.05474
1522.35029	0.05465
1521.06452	0.05455
1519.77875	0.05438
1518.49298	0.05423
1517.20722	0.05417
1515.92145	0.05415
1514.63568	0.05415
1513.34991	0.05419
1512.06414	0.05424
1510.77837	0.05430
1509.49260	0.05446
1508.20683	0.05478
1506.92107	0.05511
1505.63530	0.05525
1504.34953	0.05521
1503.06376	0.05516
1501.77799	0.05523
1500.49222	0.05538
1499.20645	0.05554
1497.92068	0.05566
1496.63491	0.05570
1495.34915	0.05561
1494.06338	0.05546
1492.77761	0.05537
1491.49184	0.05538
1490.20607	0.05543
1488.92030	0.05550
1487.63453	0.05564
1486.34876	0.05587
1485.06299	0.05620
1483.77723	0.05659
1482.49146	0.05700
1481.20569	0.05742
1479.91992	0.05790
1478.63415	0.05848
1477.34838	0.05915
1476.06261	0.05987
1474.77684	0.06057
1473.49108	0.06120
1472.20531	0.06170
1470.91954	0.06206
1469.63377	0.06239
1468.34800	0.06281
1467.06223	0.06337
1465.77646	0.06406
1464.49069	0.06479
1463.20492	0.06552
1461.91916	0.06627
1460.63339	0.06709
1459.34762	0.06801
1458.06185	0.06899
1456.77608	0.06988
1455.49031	0.07056
1454.20454	0.07112
1452.91877	0.07163
1451.63301	0.07215
1450.34724	0.07265
1449.06147	0.07311
1447.77570	0.07344
1446.48993	0.07354
1445.20416	0.07343
1443.91839	0.07316
1442.63262	0.07281
1441.34685	0.07243
1440.06109	0.07208
1438.77532	0.07183
1437.48955	0.07164
1436.20378	0.07145
1434.91801	0.07128
1433.63224	0.07128
1432.34647	0.07150
1431.06070	0.07189
1429.77494	0.07235
1428.48917	0.07284
1427.20340	0.07338
1425.91763	0.07400
1424.63186	0.07466
1423.34609	0.07533
1422.06032	0.07605
1420.77455	0.07683
1419.48878	0.07758
1418.20302	0.07816
1416.91725	0.07856
1415.63148	0.07881
1414.34571	0.07898
1413.05994	0.07906
1411.77417	0.07905
1410.48840	0.07893
1409.20263	0.07866
1407.91687	0.07825
1406.63110	0.07770
1405.34533	0.07701
1404.05956	0.07616
1402.77379	0.07517
1401.48802	0.07409
1400.20225	0.07295
1398.91648	0.07173
1397.63071	0.07046
1396.34495	0.06916
1395.05918	0.06782
1393.77341	0.06642
1392.48764	0.06496
1391.20187	0.06355
1389.91610	0.06225
1388.63033	0.06107
1387.34456	0.05992
1386.05880	0.05873
1384.77303	0.05749
1383.48726	0.05626
1382.20149	0.05506
1380.91572	0.05389
1379.62995	0.05275
1378.34418	0.05163
1377.05841	0.05054
1375.77264	0.04945
1374.48688	0.04834
1373.20111	0.04718
1371.91534	0.04601
1370.62957	0.04488
1369.34380	0.04382
1368.05803	0.04283
1366.77226	0.04189
1365.48649	0.04101
1364.20073	0.04020
1362.91496	0.03947
1361.62919	0.03882
1360.34342	0.03826
1359.05765	0.03779
1357.77188	0.03740
1356.48611	0.03703
1355.20034	0.03664
1353.91457	0.03621
1352.62881	0.03579
1351.34304	0.03540
1350.05727	0.03508
1348.77150	0.03483
1347.48573	0.03461
1346.19996	0.03439
1344.91419	0.03414
1343.62842	0.03386
1342.34266	0.03359
1341.05689	0.03334
1339.77112	0.03309
1338.48535	0.03280
1337.19958	0.03246
1335.91381	0.03211
1334.62804	0.03178
1333.34227	0.03149
1332.05650	0.03122
1330.77074	0.03094
1329.48497	0.03063
1328.19920	0.03031
1326.91343	0.03000
1325.62766	0.02972
1324.34189	0.02946
1323.05612	0.02920
1321.77035	0.02894
1320.48459	0.02867
1319.19882	0.02840
1317.91305	0.02815
1316.62728	0.02794
1315.34151	0.02775
1314.05574	0.02756
1312.76997	0.02734
1311.48420	0.02710
1310.19843	0.02686
1308.91267	0.02665
1307.62690	0.02648
1306.34113	0.02631
1305.05536	0.02612
1303.76959	0.02592
1302.48382	0.02573
1301.19805	0.02555
1299.91228	0.02536
1298.62652	0.02510
1297.34075	0.02477
1296.05498	0.02437
1294.76921	0.02393
1293.48344	0.02350
1292.19767	0.02310
1290.91190	0.02275
1289.62613	0.02245
1288.34036	0.02216
1287.05460	0.02186
1285.76883	0.02151
1284.48306	0.02112
1283.19729	0.02073
1281.91152	0.02039
1280.62575	0.02016
1279.33998	0.02006
1278.05421	0.02008
1276.76845	0.02024
1275.48268	0.02050
1274.19691	0.02079
1272.91114	0.02105
1271.62537	0.02123
1270.33960	0.02132
1269.05383	0.02137
1267.76806	0.02140
1266.48229	0.02145
1265.19653	0.02149
1263.91076	0.02150
1262.62499	0.02149
1261.33922	0.02152
1260.05345	0.02158
1258.76768	0.02168
1257.48191	0.02179
1256.19614	0.02191
1254.91037	0.02201
1253.62461	0.02208
1252.33884	0.02212
1251.05307	0.02215
1249.76730	0.02221
1248.48153	0.02231
1247.19576	0.02244
1245.90999	0.02259
1244.62422	0.02275
1243.33846	0.02290
1242.05269	0.02300
1240.76692	0.02304
1239.48115	0.02304
1238.19538	0.02303
1236.90961	0.02303
1235.62384	0.02303
1234.33807	0.02303
1233.05230	0.02298
1231.76654	0.02289
1230.48077	0.02276
1229.19500	0.02261
1227.90923	0.02246
1226.62346	0.02233
1225.33769	0.02222
1224.05192	0.02215
1222.76615	0.02211
1221.48039	0.02212
1220.19462	0.02213
1218.90885	0.02212
1217.62308	0.02208
1216.33731	0.02202
1215.05154	0.02198
1213.76577	0.02202
1212.48000	0.02214
1211.19423	0.02233
1209.90847	0.02256
1208.62270	0.02278
1207.33693	0.02299
1206.05116	0.02319
1204.76539	0.02337
1203.47962	0.02357
1202.19385	0.02378
1200.90808	0.02399
1199.62232	0.02417
1198.33655	0.02434
1197.05078	0.02445
1195.76501	0.02451
1194.47924	0.02454
1193.19347	0.02455
1191.90770	0.02454
1190.62193	0.02452
1189.33616	0.02451
1188.05040	0.02451
1186.76463	0.02450
1185.47886	0.02450
1184.19309	0.02454
1182.90732	0.02463
1181.62155	0.02480
1180.33578	0.02501
1179.05001	0.02521
1177.76425	0.02535
1176.47848	0.02546
1175.19271	0.02556
1173.90694	0.02566
1172.62117	0.02577
1171.33540	0.02588
1170.04963	0.02595
1168.76386	0.02595
1167.47809	0.02590
1166.19233	0.02581
1164.90656	0.02574
1163.62079	0.02571
1162.33502	0.02577
1161.04925	0.02591
1159.76348	0.02608
1158.47771	0.02629
1157.19194	0.02655
1155.90618	0.02689
1154.62041	0.02733
1153.33464	0.02783
1152.04887	0.02835
1150.76310	0.02884
1149.47733	0.02927
1148.19156	0.02968
1146.90579	0.03011
1145.62002	0.03059
1144.33426	0.03113
1143.04849	0.03169
1141.76272	0.03225
1140.47695	0.03283
1139.19118	0.03348
1137.90541	0.03420
1136.61964	0.03499
1135.33387	0.03583
1134.04811	0.03673
1132.76234	0.03773
1131.47657	0.03884
1130.19080	0.04010
1128.90503	0.04153
1127.61926	0.04316
1126.33349	0.04501
1125.04772	0.04712
1123.76195	0.04945
1122.47619	0.05188
1121.19042	0.05431
1119.90465	0.05671
1118.61888	0.05914
1117.33311	0.06163
1116.04734	0.06412
1114.76157	0.06655
1113.47580	0.06888
1112.19004	0.07114
1110.90427	0.07334
1109.61850	0.07548
1108.33273	0.07762
1107.04696	0.07980
1105.76119	0.08201
1104.47542	0.08422
1103.18965	0.08635
1101.90388	0.08837
1100.61812	0.09026
1099.33235	0.09204
1098.04658	0.09377
1096.76081	0.09547
1095.47504	0.09709
1094.18927	0.09856
1092.90350	0.09987
1091.61773	0.10110
1090.33197	0.10228
1089.04620	0.10343
1087.76043	0.10455
1086.47466	0.10564
1085.18889	0.10675
1083.90312	0.10791
1082.61735	0.10913
1081.33158	0.11042
1080.04581	0.11177
1078.76005	0.11317
1077.47428	0.11463
1076.18851	0.11618
1074.90274	0.11786
1073.61697	0.11964
1072.33120	0.12153
1071.04543	0.12348
1069.75966	0.12548
1068.47390	0.12751
1067.18813	0.12962
1065.90236	0.13186
1064.61659	0.13420
1063.33082	0.13657
1062.04505	0.13893
1060.75928	0.14131
1059.47351	0.14377
1058.18774	0.14631
1056.90198	0.14881
1055.61621	0.15120
1054.33044	0.15349
1053.04467	0.15573
1051.75890	0.15801
1050.47313	0.16037
1049.18736	0.16280
1047.90159	0.16531
1046.61583	0.16792
1045.33006	0.17061
1044.04429	0.17331
1042.75852	0.17598
1041.47275	0.17863
1040.18698	0.18130
1038.90121	0.18405
1037.61544	0.18689
1036.32967	0.18974
1035.04391	0.19250
1033.75814	0.19509
1032.47237	0.19747
1031.18660	0.19966
1029.90083	0.20166
1028.61506	0.20349
1027.32929	0.20508
1026.04352	0.20638
1024.75775	0.20739
1023.47199	0.20815
1022.18622	0.20871
1020.90045	0.20903
1019.61468	0.20906
1018.32891	0.20878
1017.04314	0.20820
1015.75737	0.20729
1014.47160	0.20603
1013.18584	0.20441
1011.90007	0.20250
1010.61430	0.20034
1009.32853	0.19795
1008.04276	0.19530
1006.75699	0.19240
1005.47122	0.18931
1004.18545	0.18605
1002.89968	0.18269
1001.61392	0.17927
1000.32815	0.17578
999.04238	0.17220
997.75661	0.16853
996.47084	0.16474
995.18507	0.16084
993.89930	0.15688
992.61353	0.15292
991.32777	0.14902
990.04200	0.14519
988.75623	0.14144
987.47046	0.13779
986.18469	0.13426
984.89892	0.13084
983.61315	0.12750
982.32738	0.12419
981.04161	0.12092
979.75585	0.11774
978.47008	0.11471
977.18431	0.11187
975.89854	0.10924
974.61277	0.10683
973.32700	0.10465
972.04123	0.10274
970.75546	0.10115
969.46970	0.09995
968.18393	0.09919
966.89816	0.09886
965.61239	0.09889
964.32662	0.09910
963.04085	0.09931
961.75508	0.09937
960.46931	0.09915
959.18354	0.09856
957.89778	0.09755
956.61201	0.09616
955.32624	0.09447
954.04047	0.09263
952.75470	0.09080
951.46893	0.08905
950.18316	0.08735
948.89739	0.08564
947.61163	0.08390
946.32586	0.08217
945.04009	0.08049
943.75432	0.07885
942.46855	0.07720
941.18278	0.07557
939.89701	0.07400
938.61124	0.07255
937.32547	0.07120
936.03971	0.06989
934.75394	0.06860
933.46817	0.06737
932.18240	0.06623
930.89663	0.06514
929.61086	0.06406
928.32509	0.06303
927.03932	0.06210
925.75356	0.06131
924.46779	0.06059
923.18202	0.05987
921.89625	0.05914
920.61048	0.05845
919.32471	0.05784
918.03894	0.05728
916.75317	0.05674
915.46740	0.05619
914.18164	0.05561
912.89587	0.05499
911.61010	0.05430
910.32433	0.05361
909.03856	0.05300
907.75279	0.05250
906.46702	0.05204
905.18125	0.05156
903.89549	0.05101
902.60972	0.05041
901.32395	0.04982
900.03818	0.04932
898.75241	0.04896
897.46664	0.04866
896.18087	0.04834
894.89510	0.04793
893.60933	0.04745
892.32357	0.04696
891.03780	0.04653
889.75203	0.04620
888.46626	0.04605
887.18049	0.04613
885.89472	0.04652
884.60895	0.04733
883.32318	0.04860
882.03742	0.05024
880.75165	0.05194
879.46588	0.05331
878.18011	0.05419
876.89434	0.05477
875.60857	0.05538
874.32280	0.05611
873.03703	0.05670
871.75126	0.05682
870.46550	0.05635
869.17973	0.05550
867.89396	0.05449
866.60819	0.05341
865.32242	0.05219
864.03665	0.05082
862.75088	0.04940
861.46511	0.04803
860.17935	0.04678
858.89358	0.04563
857.60781	0.04458
856.32204	0.04363
855.03627	0.04285
853.75050	0.04225
852.46473	0.04177
851.17896	0.04131
849.89319	0.04081
848.60743	0.04031
847.32166	0.03988
846.03589	0.03951
844.75012	0.03916
843.46435	0.03881
842.17858	0.03847
840.89281	0.03818
839.60704	0.03798
838.32128	0.03786
837.03551	0.03776
835.74974	0.03762
834.46397	0.03744
833.17820	0.03728
831.89243	0.03717
830.60666	0.03709
829.32089	0.03700
828.03512	0.03689
826.74936	0.03677
825.46359	0.03664
824.17782	0.03651
822.89205	0.03638
821.60628	0.03626
820.32051	0.03617
819.03474	0.03609
817.74897	0.03599
816.46321	0.03590
815.17744	0.03588
813.89167	0.03598
812.60590	0.03617
811.32013	0.03640
810.03436	0.03664
808.74859	0.03688
807.46282	0.03714
806.17705	0.03743
804.89129	0.03780
803.60552	0.03826
802.31975	0.03877
801.03398	0.03924
799.74821	0.03960
798.46244	0.03982
797.17667	0.03998
795.89090	0.04008
794.60513	0.04010
793.31937	0.04001
792.03360	0.03983
790.74783	0.03964
789.46206	0.03950
788.17629	0.03944
786.89052	0.03946
785.60475	0.03953
784.31898	0.03962
783.03322	0.03971
781.74745	0.03981
780.46168	0.03996
779.17591	0.04012
777.89014	0.04024
776.60437	0.04022
775.31860	0.04006
774.03283	0.03982
772.74706	0.03957
771.46130	0.03935
770.17553	0.03917
768.88976	0.03907
767.60399	0.03903
766.31822	0.03904
765.03245	0.03905
763.74668	0.03902
762.46091	0.03891
761.17515	0.03871
759.88938	0.03846
758.60361	0.03827
757.31784	0.03819
756.03207	0.03823
754.74630	0.03831
753.46053	0.03836
752.17476	0.03832
750.88899	0.03819
749.60323	0.03801
748.31746	0.03784
747.03169	0.03769
745.74592	0.03762
744.46015	0.03759
743.17438	0.03753
741.88861	0.03740
740.60284	0.03726
739.31708	0.03718
738.03131	0.03715
736.74554	0.03710
735.45977	0.03704
734.17400	0.03707
732.88823	0.03720
731.60246	0.03732
730.31669	0.03731
729.03092	0.03721
727.74516	0.03715
726.45939	0.03715
725.17362	0.03716
723.88785	0.03707
722.60208	0.03701
721.31631	0.03700
720.03054	0.03700
718.74477	0.03696
717.45901	0.03682
716.17324	0.03658
714.88747	0.03630
713.60170	0.03608
712.31593	0.03601
711.03016	0.03607
709.74439	0.03618
708.45862	0.03629
707.17285	0.03636
705.88709	0.03641
704.60132	0.03644
703.31555	0.03646
702.02978	0.03648
700.74401	0.03650
699.45824	0.03653
698.17247	0.03659
696.88670	0.03669
695.60094	0.03677
694.31517	0.03681
693.02940	0.03677
691.74363	0.03666
690.45786	0.03651
689.17209	0.03632
687.88632	0.03612
686.60055	0.03592
685.31478	0.03572
684.02902	0.03553
682.74325	0.03538
681.45748	0.03532
680.17171	0.03532
678.88594	0.03532
677.60017	0.03527
676.31440	0.03516
675.02863	0.03508
673.74287	0.03504
672.45710	0.03504
671.17133	0.03504
669.88556	0.03504
668.59979	0.03508
667.31402	0.03516
666.02825	0.03519
664.74248	0.03515
663.45671	0.03507
662.17095	0.03496
660.88518	0.03487
659.59941	0.03478
658.31364	0.03468
657.02787	0.03457
655.74210	0.03448
654.45633	0.03443
653.17056	0.03447
651.88480	0.03458
650.59903	0.03470
649.31326	0.03477
648.02749	0.03479
646.74172	0.03478
645.45595	0.03474
644.17018	0.03468
642.88441	0.03461
641.59864	0.03451
640.31288	0.03441
639.02711	0.03431
637.74134	0.03425
636.45557	0.03423
635.16980	0.03427
633.88403	0.03434
632.59826	0.03443
631.31249	0.03457
630.02673	0.03488
628.74096	0.03533
627.45519	0.03549
626.16942	0.03639
624.88365	0.03796
623.59788	0.03966
622.31211	0.04081
621.02634	0.04111
619.74057	0.04136
618.45481	0.04295
617.16904	0.04637
615.88327	0.05069
614.59750	0.05453
613.31173	0.05710
612.02596	0.05846
610.74019	0.05933
609.45442	0.06100
608.16866	0.06447
606.88289	0.06955
605.59712	0.07496
604.31135	0.07925
603.02558	0.08164
601.73981	0.08218
600.45404	0.08143
599.16827	0.08005
597.88250	0.07839
596.59674	0.07657
595.31097	0.07461
594.02520	0.07264
592.73943	0.07090
591.45366	0.06961
590.16789	0.06884
588.88212	0.06850
587.59635	0.06848
586.31059	0.06879
585.02482	0.06947
583.73905	0.07056
582.45328	0.07198
581.16751	0.07358
579.88174	0.07528
578.59597	0.07707
577.31020	0.07895
576.02443	0.08088
574.73867	0.08277
573.45290	0.08455
572.16713	0.08624
570.88136	0.08797
569.59559	0.08993
568.30982	0.09223
567.02405	0.09480
565.73828	0.09743
564.45251	0.09982
563.16675	0.10167
561.88098	0.10273
560.59521	0.10288
559.30944	0.10204
558.02367	0.10022
556.73790	0.09752
555.45213	0.09420
554.16636	0.09064
552.88060	0.08718
551.59483	0.08400
550.30906	0.08108
549.02329	0.07832
547.73752	0.07568
546.45175	0.07327
545.16598	0.07118
543.88021	0.06942
542.59444	0.06786
541.30868	0.06642
540.02291	0.06509
538.73714	0.06393
537.45137	0.06295
536.16560	0.06209
534.87983	0.06124
533.59406	0.06035
532.30829	0.05943
531.02253	0.05857
529.73676	0.05781
528.45099	0.05712
527.16522	0.05638
525.87945	0.05551
524.59368	0.05451
523.30791	0.05351
522.02214	0.05262
520.73637	0.05192
519.45061	0.05135
518.16484	0.05079
516.87907	0.05012
515.59330	0.04935
514.30753	0.04854
513.02176	0.04779
511.73599	0.04713
510.45022	0.04654
509.16446	0.04593
507.87869	0.04521
506.59292	0.04444
505.30715	0.04379
504.02138	0.04346
502.73561	0.04344
501.44984	0.04354
500.16407	0.04349
498.87830	0.04318
497.59254	0.04264
496.30677	0.04204
495.02100	0.04151
493.73523	0.04113
492.44946	0.04091
491.16369	0.04080
489.87792	0.04072
488.59215	0.04058
487.30639	0.04038
486.02062	0.04020
484.73485	0.04012
483.44908	0.04018
482.16331	0.04038
480.87754	0.04064
479.59177	0.04090
478.30600	0.04111
477.02023	0.04131
475.73447	0.04157
474.44870	0.04197
473.16293	0.04243
471.87716	0.04280
470.59139	0.04296
469.30562	0.04292
468.01985	0.04280
466.73408	0.04272
465.44832	0.04266
464.16255	0.04253
462.87678	0.04224
461.59101	0.04181
460.30524	0.04134
459.01947	0.04092
457.73370	0.04051
456.44793	0.04006
455.16216	0.03954
453.87640	0.03899
452.59063	0.03847
451.30486	0.03802
450.01909	0.03762
448.73332	0.03724
447.44755	0.03685
446.16178	0.03649
444.87601	0.03619
443.59025	0.03592
442.30448	0.03564
441.01871	0.03533
439.73294	0.03504
438.44717	0.03481
437.16140	0.03466
435.87563	0.03454
434.58986	0.03442
433.30409	0.03430
432.01833	0.03418
430.73256	0.03406
429.44679	0.03394
428.16102	0.03379
426.87525	0.03359
425.58948	0.03330
424.30371	0.03293
423.01794	0.03251
421.73218	0.03211
420.44641	0.03179
419.16064	0.03156
417.87487	0.03135
416.58910	0.03108
415.30333	0.03070
414.01756	0.03025
412.73179	0.02979
411.44602	0.02940
410.16026	0.02909
408.87449	0.02885
407.58872	0.02866
406.30295	0.02853
405.01718	0.02850
403.73141	0.02858
402.44564	0.02878
401.15987	0.02911
399.87411	0.02950
