3997.45528	0.01156
3996.16951	0.01109
3994.88374	0.01012
3993.59798	0.00882
3992.31221	0.00785
3991.02644	0.00773
3989.74067	0.00851
3988.45490	0.00974
3987.16913	0.01082
3985.88336	0.01134
3984.59759	0.01141
3983.31183	0.01147
3982.02606	0.01183
3980.74029	0.01237
3979.45452	0.01281
3978.16875	0.01306
3976.88298	0.01319
3975.59721	0.01314
3974.31144	0.01290
3973.02567	0.01269
3971.73991	0.01280
3970.45414	0.01319
3969.16837	0.01348
3967.88260	0.01337
3966.59683	0.01285
3965.31106	0.01215
3964.02529	0.01156
3962.73952	0.01138
3961.45376	0.01167
3960.16799	0.01226
3958.88222	0.01282
3957.59645	0.01314
3956.31068	0.01326
3955.02491	0.01333
3953.73914	0.01343
3952.45337	0.01351
3951.16760	0.01350
3949.88184	0.01341
3948.59607	0.01322
3947.31030	0.01282
3946.02453	0.01213
3944.73876	0.01134
3943.45299	0.01073
3942.16722	0.01046
3940.88145	0.01053
3939.59569	0.01095
3938.30992	0.01172
3937.02415	0.01268
3935.73838	0.01351
3934.45261	0.01390
3933.16684	0.01366
3931.88107	0.01293
3930.59530	0.01211
3929.30953	0.01168
3928.02377	0.01186
3926.73800	0.01255
3925.45223	0.01346
3924.16646	0.01437
3922.88069	0.01510
3921.59492	0.01554
3920.30915	0.01554
3919.02338	0.01503
3917.73762	0.01426
3916.45185	0.01372
3915.16608	0.01379
3913.88031	0.01438
3912.59454	0.01502
3911.30877	0.01526
3910.02300	0.01485
3908.73723	0.01386
3907.45146	0.01254
3906.16570	0.01128
3904.87993	0.01039
3903.59416	0.00990
3902.30839	0.00961
3901.02262	0.00930
3899.73685	0.00898
3898.45108	0.00880
3897.16531	0.00892
3895.87955	0.00933
3894.59378	0.00991
3893.30801	0.01052
3892.02224	0.01117
3890.73647	0.01196
3889.45070	0.01286
3888.16493	0.01365
3886.87916	0.01404
3885.59339	0.01392
3884.30763	0.01350
3883.02186	0.01312
3881.73609	0.01293
3880.45032	0.01286
3879.16455	0.01273
3877.87878	0.01250
3876.59301	0.01227
3875.30724	0.01208
3874.02148	0.01185
3872.73571	0.01145
3871.44994	0.01092
3870.16417	0.01050
3868.87840	0.01048
3867.59263	0.01094
3866.30686	0.01173
3865.02109	0.01249
3863.73532	0.01288
3862.44956	0.01282
3861.16379	0.01251
3859.87802	0.01227
3858.59225	0.01227
3857.30648	0.01247
3856.02071	0.01276
3854.73494	0.01304
3853.44917	0.01316
3852.16341	0.01306
3850.87764	0.01291
3849.59187	0.01309
3848.30610	0.01376
3847.02033	0.01466
3845.73456	0.01525
3844.44879	0.01515
3843.16302	0.01429
3841.87725	0.01296
3840.59149	0.01166
3839.30572	0.01097
3838.01995	0.01112
3836.73418	0.01182
3835.44841	0.01250
3834.16264	0.01279
3832.87687	0.01274
3831.59110	0.01262
3830.30534	0.01269
3829.01957	0.01290
3827.73380	0.01306
3826.44803	0.01296
3825.16226	0.01260
3823.87649	0.01213
3822.59072	0.01177
3821.30495	0.01154
3820.01918	0.01134
3818.73342	0.01115
3817.44765	0.01113
3816.16188	0.01142
3814.87611	0.01180
3813.59034	0.01186
3812.30457	0.01143
3811.01880	0.01078
3809.73303	0.01033
3808.44726	0.01025
3807.16150	0.01048
3805.87573	0.01092
3804.58996	0.01143
3803.30419	0.01195
3802.01842	0.01248
3800.73265	0.01305
3799.44688	0.01363
3798.16111	0.01404
3796.87535	0.01405
3795.58958	0.01355
3794.30381	0.01265
3793.01804	0.01169
3791.73227	0.01104
3790.44650	0.01086
3789.16073	0.01112
3787.87496	0.01169
3786.58919	0.01241
3785.30343	0.01300
3784.01766	0.01323
3782.73189	0.01312
3781.44612	0.01292
3780.16035	0.01281
3778.87458	0.01269
3777.58881	0.01236
3776.30304	0.01188
3775.01728	0.01155
3773.73151	0.01162
3772.44574	0.01201
3771.15997	0.01236
3769.87420	0.01240
3768.58843	0.01216
3767.30266	0.01195
3766.01689	0.01194
3764.73112	0.01205
3763.44536	0.01206
3762.15959	0.01203
3760.87382	0.01223
3759.58805	0.01279
3758.30228	0.01343
3757.01651	0.01368
3755.73074	0.01337
3754.44497	0.01282
3753.15921	0.01260
3751.87344	0.01307
3750.58767	0.01404
3749.30190	0.01494
3748.01613	0.01533
3746.73036	0.01514
3745.44459	0.01457
3744.15882	0.01384
3742.87305	0.01314
3741.58729	0.01267
3740.30152	0.01261
3739.01575	0.01291
3737.72998	0.01326
3736.44421	0.01331
3735.15844	0.01307
3733.87267	0.01306
3732.58690	0.01360
3731.30114	0.01445
3730.01537	0.01504
3728.72960	0.01496
3727.44383	0.01438
3726.15806	0.01378
3724.87229	0.01346
3723.58652	0.01341
3722.30075	0.01321
3721.01498	0.01265
3719.72922	0.01208
3718.44345	0.01197
3717.15768	0.01233
3715.87191	0.01277
3714.58614	0.01305
3713.30037	0.01329
3712.01460	0.01351
3710.72883	0.01358
3709.44307	0.01338
3708.15730	0.01283
3706.87153	0.01215
3705.58576	0.01155
3704.29999	0.01114
3703.01422	0.01089
3701.72845	0.01068
3700.44268	0.01053
3699.15691	0.01062
3697.87115	0.01099
3696.58538	0.01137
3695.29961	0.01134
3694.01384	0.01093
3692.72807	0.01050
3691.44230	0.01056
3690.15653	0.01122
3688.87076	0.01215
3687.58500	0.01306
3686.29923	0.01384
3685.01346	0.01442
3683.72769	0.01475
3682.44192	0.01488
3681.15615	0.01488
3679.87038	0.01472
3678.58461	0.01430
3677.29884	0.01381
3676.01308	0.01364
3674.72731	0.01385
3673.44154	0.01397
3672.15577	0.01358
3670.87000	0.01279
3669.58423	0.01204
3668.29846	0.01160
3667.01269	0.01140
3665.72693	0.01137
3664.44116	0.01151
3663.15539	0.01189
3661.86962	0.01245
3660.58385	0.01306
3659.29808	0.01362
3658.01231	0.01406
3656.72654	0.01431
3655.44077	0.01437
3654.15501	0.01426
3652.86924	0.01408
3651.58347	0.01394
3650.29770	0.01396
3649.01193	0.01418
3647.72616	0.01445
3646.44039	0.01449
3645.15462	0.01422
3643.86886	0.01381
3642.58309	0.01357
3641.29732	0.01375
3640.01155	0.01434
3638.72578	0.01509
3637.44001	0.01551
3636.15424	0.01539
3634.86847	0.01503
3633.58270	0.01501
3632.29694	0.01556
3631.01117	0.01627
3629.72540	0.01646
3628.43963	0.01589
3627.15386	0.01500
3625.86809	0.01445
3624.58232	0.01443
3623.29655	0.01477
3622.01079	0.01516
3620.72502	0.01556
3619.43925	0.01600
3618.15348	0.01648
3616.86771	0.01692
3615.58194	0.01733
3614.29617	0.01783
3613.01040	0.01842
3611.72463	0.01883
3610.43887	0.01863
3609.15310	0.01782
3607.86733	0.01687
3606.58156	0.01640
3605.29579	0.01657
3604.01002	0.01713
3602.72425	0.01789
3601.43848	0.01874
3600.15272	0.01958
3598.86695	0.02027
3597.58118	0.02065
3596.29541	0.02057
3595.00964	0.02016
3593.72387	0.01961
3592.43810	0.01901
3591.15233	0.01845
3589.86656	0.01800
3588.58080	0.01774
3587.29503	0.01780
3586.00926	0.01800
3584.72349	0.01800
3583.43772	0.01781
3582.15195	0.01781
3580.86618	0.01825
3579.58041	0.01901
3578.29464	0.01971
3577.00888	0.02006
3575.72311	0.01995
3574.43734	0.01948
3573.15157	0.01897
3571.86580	0.01882
3570.58003	0.01916
3569.29426	0.01973
3568.00849	0.02012
3566.72273	0.02010
3565.43696	0.01985
3564.15119	0.01977
3562.86542	0.02016
3561.57965	0.02094
3560.29388	0.02172
3559.00811	0.02210
3557.72234	0.02202
3556.43657	0.02182
3555.15081	0.02192
3553.86504	0.02248
3552.57927	0.02321
3551.29350	0.02366
3550.00773	0.02369
3548.72196	0.02353
3547.43619	0.02344
3546.15042	0.02336
3544.86466	0.02303
3543.57889	0.02238
3542.29312	0.02176
3541.00735	0.02161
3539.72158	0.02202
3538.43581	0.02266
3537.15004	0.02323
3535.86427	0.02368
3534.57850	0.02407
3533.29274	0.02433
3532.00697	0.02436
3530.72120	0.02412
3529.43543	0.02372
3528.14966	0.02335
3526.86389	0.02320
3525.57812	0.02339
3524.29235	0.02387
3523.00659	0.02443
3521.72082	0.02479
3520.43505	0.02469
3519.14928	0.02411
3517.86351	0.02336
3516.57774	0.02300
3515.29197	0.02337
3514.00620	0.02426
3512.72043	0.02515
3511.43467	0.02569
3510.14890	0.02590
3508.86313	0.02596
3507.57736	0.02601
3506.29159	0.02615
3505.00582	0.02644
3503.72005	0.02680
3502.43428	0.02703
3501.14852	0.02701
3499.86275	0.02683
3498.57698	0.02665
3497.29121	0.02649
3496.00544	0.02633
3494.71967	0.02619
3493.43390	0.02614
3492.14813	0.02619
3490.86236	0.02630
3489.57660	0.02639
3488.29083	0.02645
3487.00506	0.02648
3485.71929	0.02655
3484.43352	0.02678
3483.14775	0.02721
3481.86198	0.02776
3480.57621	0.02819
3479.29045	0.02833
3478.00468	0.02818
3476.71891	0.02798
3475.43314	0.02801
3474.14737	0.02838
3472.86160	0.02901
3471.57583	0.02967
3470.29006	0.03011
3469.00429	0.03020
3467.71853	0.02995
3466.43276	0.02948
3465.14699	0.02895
3463.86122	0.02851
3462.57545	0.02824
3461.28968	0.02815
3460.00391	0.02816
3458.71814	0.02816
3457.43238	0.02812
3456.14661	0.02810
3454.86084	0.02823
3453.57507	0.02859
3452.28930	0.02922
3451.00353	0.03002
3449.71776	0.03075
3448.43199	0.03107
3447.14622	0.03076
3445.86046	0.02997
3444.57469	0.02920
3443.28892	0.02890
3442.00315	0.02919
3440.71738	0.02980
3439.43161	0.03027
3438.14584	0.03028
3436.86007	0.02976
3435.57431	0.02895
3434.28854	0.02827
3433.00277	0.02804
3431.71700	0.02827
3430.43123	0.02874
3429.14546	0.02928
3427.85969	0.02990
3426.57392	0.03067
3425.28815	0.03141
3424.00239	0.03180
3422.71662	0.03168
3421.43085	0.03128
3420.14508	0.03108
3418.85931	0.03131
3417.57354	0.03178
3416.28777	0.03208
3415.00200	0.03200
3413.71624	0.03169
3412.43047	0.03147
3411.14470	0.03154
3409.85893	0.03177
3408.57316	0.03193
3407.28739	0.03200
3406.00162	0.03209
3404.71585	0.03224
3403.43008	0.03225
3402.14432	0.03198
3400.85855	0.03157
3399.57278	0.03127
3398.28701	0.03122
3397.00124	0.03134
3395.71547	0.03160
3394.42970	0.03204
3393.14393	0.03258
3391.85817	0.03301
3390.57240	0.03312
3389.28663	0.03289
3388.00086	0.03250
3386.71509	0.03220
3385.42932	0.03217
3384.14355	0.03239
3382.85778	0.03269
3381.57201	0.03283
3380.28625	0.03272
3379.00048	0.03250
3377.71471	0.03239
3376.42894	0.03244
3375.14317	0.03255
3373.85740	0.03266
3372.57163	0.03285
3371.28586	0.03322
3370.00010	0.03370
3368.71433	0.03412
3367.42856	0.03435
3366.14279	0.03437
3364.85702	0.03418
3363.57125	0.03387
3362.28548	0.03361
3360.99971	0.03350
3359.71394	0.03350
3358.42818	0.03349
3357.14241	0.03343
3355.85664	0.03345
3354.57087	0.03371
3353.28510	0.03426
3351.99933	0.03483
3350.71356	0.03507
3349.42779	0.03486
3348.14202	0.03435
3346.85626	0.03386
3345.57049	0.03358
3344.28472	0.03356
3342.99895	0.03374
3341.71318	0.03398
3340.42741	0.03406
3339.14164	0.03382
3337.85587	0.03337
3336.57011	0.03309
3335.28434	0.03325
3333.99857	0.03373
3332.71280	0.03416
3331.42703	0.03424
3330.14126	0.03396
3328.85549	0.03356
3327.56972	0.03338
3326.28395	0.03358
3324.99819	0.03408
3323.71242	0.03466
3322.42665	0.03514
3321.14088	0.03553
3319.85511	0.03587
3318.56934	0.03609
3317.28357	0.03608
3315.99780	0.03588
3314.71204	0.03571
3313.42627	0.03578
3312.14050	0.03606
3310.85473	0.03630
3309.56896	0.03619
3308.28319	0.03563
3306.99742	0.03483
3305.71165	0.03415
3304.42588	0.03378
3303.14012	0.03366
3301.85435	0.03355
3300.56858	0.03343
3299.28281	0.03341
3297.99704	0.03352
3296.71127	0.03367
3295.42550	0.03374
3294.13973	0.03374
3292.85397	0.03372
3291.56820	0.03371
3290.28243	0.03371
3288.99666	0.03373
3287.71089	0.03375
3286.42512	0.03373
3285.13935	0.03373
3283.85358	0.03383
3282.56781	0.03402
3281.28205	0.03415
3279.99628	0.03416
3278.71051	0.03412
3277.42474	0.03417
3276.13897	0.03430
3274.85320	0.03440
3273.56743	0.03439
3272.28166	0.03435
3270.99590	0.03436
3269.71013	0.03434
3268.42436	0.03414
3267.13859	0.03375
3265.85282	0.03339
3264.56705	0.03321
3263.28128	0.03315
3261.99551	0.03299
3260.70974	0.03268
3259.42398	0.03245
3258.13821	0.03260
3256.85244	0.03306
3255.56667	0.03345
3254.28090	0.03341
3252.99513	0.03293
3251.70936	0.03234
3250.42359	0.03197
3249.13783	0.03193
3247.85206	0.03211
3246.56629	0.03240
3245.28052	0.03272
3243.99475	0.03302
3242.70898	0.03319
3241.42321	0.03319
3240.13744	0.03303
3238.85167	0.03282
3237.56591	0.03272
3236.28014	0.03287
3234.99437	0.03323
3233.70860	0.03355
3232.42283	0.03349
3231.13706	0.03302
3229.85129	0.03242
3228.56552	0.03205
3227.27976	0.03201
3225.99399	0.03214
3224.70822	0.03225
3223.42245	0.03232
3222.13668	0.03234
3220.85091	0.03227
3219.56514	0.03201
3218.27937	0.03159
3216.99360	0.03119
3215.70784	0.03113
3214.42207	0.03156
3213.13630	0.03234
3211.85053	0.03311
3210.56476	0.03352
3209.27899	0.03343
3207.99322	0.03301
3206.70745	0.03258
3205.42169	0.03243
3204.13592	0.03263
3202.85015	0.03297
3201.56438	0.03325
3200.27861	0.03335
3198.99284	0.03324
3197.70707	0.03289
3196.42130	0.03239
3195.13553	0.03194
3193.84977	0.03173
3192.56400	0.03176
3191.27823	0.03186
3189.99246	0.03180
3188.70669	0.03147
3187.42092	0.03101
3186.13515	0.03062
3184.84938	0.03043
3183.56362	0.03046
3182.27785	0.03073
3180.99208	0.03128
3179.70631	0.03197
3178.42054	0.03241
3177.13477	0.03226
3175.84900	0.03157
3174.56323	0.03083
3173.27746	0.03049
3171.99170	0.03063
3170.70593	0.03099
3169.42016	0.03127
3168.13439	0.03149
3166.84862	0.03182
3165.56285	0.03235
3164.27708	0.03287
3162.99131	0.03304
3161.70555	0.03266
3160.41978	0.03189
3159.13401	0.03113
3157.84824	0.03068
3156.56247	0.03055
3155.27670	0.03053
3153.99093	0.03043
3152.70516	0.03019
3151.41939	0.02986
3150.13363	0.02957
3148.84786	0.02949
3147.56209	0.02966
3146.27632	0.02997
3144.99055	0.03020
3143.70478	0.03024
3142.41901	0.03013
3141.13324	0.03000
3139.84748	0.02990
3138.56171	0.02981
3137.27594	0.02965
3135.99017	0.02943
3134.70440	0.02926
3133.41863	0.02923
3132.13286	0.02926
3130.84709	0.02922
3129.56132	0.02902
3128.27556	0.02876
3126.98979	0.02863
3125.70402	0.02877
3124.41825	0.02921
3123.13248	0.02978
3121.84671	0.03022
3120.56094	0.03031
3119.27517	0.03002
3117.98940	0.02953
3116.70364	0.02910
3115.41787	0.02889
3114.13210	0.02885
3112.84633	0.02888
3111.56056	0.02895
3110.27479	0.02915
3108.98902	0.02952
3107.70325	0.02990
3106.41749	0.03006
3105.13172	0.02994
3103.84595	0.02972
3102.56018	0.02959
3101.27441	0.02964
3099.98864	0.02980
3098.70287	0.02995
3097.41710	0.02988
3096.13133	0.02947
3094.84557	0.02888
3093.55980	0.02844
3092.27403	0.02831
3090.98826	0.02840
3089.70249	0.02851
3088.41672	0.02860
3087.13095	0.02871
3085.84518	0.02891
3084.55942	0.02918
3083.27365	0.02945
3081.98788	0.02958
3080.70211	0.02944
3079.41634	0.02908
3078.13057	0.02866
3076.84480	0.02831
3075.55903	0.02806
3074.27326	0.02787
3072.98750	0.02770
3071.70173	0.02755
3070.41596	0.02740
3069.13019	0.02730
3067.84442	0.02736
3066.55865	0.02759
3065.27288	0.02788
3063.98711	0.02810
3062.70135	0.02822
3061.41558	0.02831
3060.12981	0.02841
3058.84404	0.02851
3057.55827	0.02859
3056.27250	0.02864
3054.98673	0.02854
3053.70096	0.02820
3052.41519	0.02767
3051.12943	0.02720
3049.84366	0.02702
3048.55789	0.02710
3047.27212	0.02722
3045.98635	0.02721
3044.70058	0.02710
3043.41481	0.02704
3042.12904	0.02713
3040.84328	0.02735
3039.55751	0.02753
3038.27174	0.02752
3036.98597	0.02733
3035.70020	0.02712
3034.41443	0.02705
3033.12866	0.02707
3031.84289	0.02704
3030.55712	0.02690
3029.27136	0.02673
3027.98559	0.02662
3026.69982	0.02654
3025.41405	0.02642
3024.12828	0.02625
3022.84251	0.02615
3021.55674	0.02626
3020.27097	0.02657
3018.98521	0.02688
3017.69944	0.02697
3016.41367	0.02680
3015.12790	0.02652
3013.84213	0.02630
3012.55636	0.02621
3011.27059	0.02617
3009.98482	0.02619
3008.69905	0.02630
3007.41329	0.02647
3006.12752	0.02659
3004.84175	0.02653
3003.55598	0.02628
3002.27021	0.02594
3000.98444	0.02565
2999.69867	0.02550
2998.41290	0.02550
2997.12714	0.02554
2995.84137	0.02555
2994.55560	0.02557
2993.26983	0.02569
2991.98406	0.02590
2990.69829	0.02610
2989.41252	0.02617
2988.12675	0.02614
2986.84098	0.02614
2985.55522	0.02623
2984.26945	0.02639
2982.98368	0.02659
2981.69791	0.02680
2980.41214	0.02703
2979.12637	0.02724
2977.84060	0.02741
2976.55483	0.02763
2975.26907	0.02792
2973.98330	0.02819
2972.69753	0.02830
2971.41176	0.02826
2970.12599	0.02823
2968.84022	0.02837
2967.55445	0.02876
2966.26868	0.02932
2964.98291	0.02988
2963.69715	0.03022
2962.41138	0.03030
2961.12561	0.03030
2959.83984	0.03047
2958.55407	0.03091
2957.26830	0.03150
2955.98253	0.03202
2954.69676	0.03228
2953.41100	0.03215
2952.12523	0.03175
2950.83946	0.03138
2949.55369	0.03137
2948.26792	0.03182
2946.98215	0.03251
2945.69638	0.03302
2944.41061	0.03303
2943.12484	0.03261
2941.83908	0.03213
2940.55331	0.03197
2939.26754	0.03224
2937.98177	0.03278
2936.69600	0.03332
2935.41023	0.03362
2934.12446	0.03362
2932.83869	0.03350
2931.55293	0.03356
2930.26716	0.03391
2928.98139	0.03439
2927.69562	0.03479
2926.40985	0.03510
2925.12408	0.03539
2923.83831	0.03570
2922.55254	0.03597
2921.26677	0.03612
2919.98101	0.03611
2918.69524	0.03596
2917.40947	0.03570
2916.12370	0.03532
2914.83793	0.03478
2913.55216	0.03412
2912.26639	0.03345
2910.98062	0.03292
2909.69486	0.03263
2908.40909	0.03255
2907.12332	0.03256
2905.83755	0.03253
2904.55178	0.03240
2903.26601	0.03219
2901.98024	0.03198
2900.69447	0.03175
2899.40870	0.03142
2898.12294	0.03098
2896.83717	0.03055
2895.55140	0.03029
2894.26563	0.03016
2892.97986	0.02993
2891.69409	0.02948
2890.40832	0.02892
2889.12255	0.02850
2887.83678	0.02833
2886.55102	0.02830
2885.26525	0.02826
2883.97948	0.02814
2882.69371	0.02801
2881.40794	0.02799
2880.12217	0.02819
2878.83640	0.02865
2877.55063	0.02920
2876.26487	0.02964
2874.97910	0.02983
2873.69333	0.02981
2872.40756	0.02971
2871.12179	0.02962
2869.83602	0.02955
2868.55025	0.02949
2867.26448	0.02942
2865.97871	0.02935
2864.69295	0.02929
2863.40718	0.02923
2862.12141	0.02918
2860.83564	0.02921
2859.54987	0.02938
2858.26410	0.02962
2856.97833	0.02981
2855.69256	0.02986
2854.40680	0.02977
2853.12103	0.02963
2851.83526	0.02950
2850.54949	0.02939
2849.26372	0.02922
2847.97795	0.02896
2846.69218	0.02863
2845.40641	0.02825
2844.12064	0.02781
2842.83488	0.02742
2841.54911	0.02721
2840.26334	0.02717
2838.97757	0.02716
2837.69180	0.02699
2836.40603	0.02667
2835.12026	0.02630
2833.83449	0.02596
2832.54873	0.02565
2831.26296	0.02535
2829.97719	0.02507
2828.69142	0.02485
2827.40565	0.02466
2826.11988	0.02444
2824.83411	0.02419
2823.54834	0.02398
2822.26257	0.02385
2820.97681	0.02378
2819.69104	0.02370
2818.40527	0.02360
2817.11950	0.02352
2815.83373	0.02350
2814.54796	0.02347
2813.26219	0.02335
2811.97642	0.02316
2810.69066	0.02303
2809.40489	0.02300
2808.11912	0.02301
2806.83335	0.02300
2805.54758	0.02295
2804.26181	0.02288
2802.97604	0.02276
2801.69027	0.02257
2800.40450	0.02235
2799.11874	0.02219
2797.83297	0.02215
2796.54720	0.02223
2795.26143	0.02242
2793.97566	0.02263
2792.68989	0.02270
2791.40412	0.02255
2790.11835	0.02232
2788.83259	0.02220
2787.54682	0.02227
2786.26105	0.02240
2784.97528	0.02243
2783.68951	0.02232
2782.40374	0.02216
2781.11797	0.02206
2779.83220	0.02203
2778.54643	0.02203
2777.26067	0.02196
2775.97490	0.02180
2774.68913	0.02168
2773.40336	0.02172
2772.11759	0.02186
2770.83182	0.02190
2769.54605	0.02171
2768.26028	0.02141
2766.97452	0.02118
2765.68875	0.02119
2764.40298	0.02141
2763.11721	0.02165
2761.83144	0.02169
2760.54567	0.02148
2759.25990	0.02122
2757.97413	0.02116
2756.68836	0.02129
2755.40260	0.02147
2754.11683	0.02155
2752.83106	0.02152
2751.54529	0.02143
2750.25952	0.02132
2748.97375	0.02126
2747.68798	0.02127
2746.40221	0.02126
2745.11645	0.02118
2743.83068	0.02105
2742.54491	0.02096
2741.25914	0.02093
2739.97337	0.02087
2738.68760	0.02078
2737.40183	0.02073
2736.11606	0.02079
2734.83029	0.02097
2733.54453	0.02118
2732.25876	0.02127
2730.97299	0.02117
2729.68722	0.02099
2728.40145	0.02090
2727.11568	0.02098
2725.82991	0.02105
2724.54414	0.02094
2723.25838	0.02061
2721.97261	0.02026
2720.68684	0.02009
2719.40107	0.02010
2718.11530	0.02021
2716.82953	0.02033
2715.54376	0.02048
2714.25799	0.02060
2712.97222	0.02061
2711.68646	0.02047
2710.40069	0.02025
2709.11492	0.02002
2707.82915	0.01982
2706.54338	0.01971
2705.25761	0.01977
2703.97184	0.02000
2702.68607	0.02023
2701.40031	0.02031
2700.11454	0.02020
2698.82877	0.02000
2697.54300	0.01983
2696.25723	0.01972
2694.97146	0.01970
2693.68569	0.01970
2692.39992	0.01968
2691.11415	0.01959
2689.82839	0.01954
2688.54262	0.01958
2687.25685	0.01970
2685.97108	0.01974
2684.68531	0.01963
2683.39954	0.01940
2682.11377	0.01921
2680.82800	0.01916
2679.54224	0.01922
2678.25647	0.01928
2676.97070	0.01928
2675.68493	0.01924
2674.39916	0.01920
2673.11339	0.01923
2671.82762	0.01933
2670.54185	0.01952
2669.25608	0.01972
2667.97032	0.01976
2666.68455	0.01958
2665.39878	0.01933
2664.11301	0.01925
2662.82724	0.01939
2661.54147	0.01959
2660.25570	0.01968
2658.96993	0.01969
2657.68417	0.01972
2656.39840	0.01979
2655.11263	0.01982
2653.82686	0.01975
2652.54109	0.01961
2651.25532	0.01946
2649.96955	0.01930
2648.68378	0.01913
2647.39801	0.01896
2646.11225	0.01882
2644.82648	0.01869
2643.54071	0.01849
2642.25494	0.01819
2640.96917	0.01791
2639.68340	0.01786
2638.39763	0.01804
2637.11186	0.01826
2635.82609	0.01829
2634.54033	0.01812
2633.25456	0.01792
2631.96879	0.01785
2630.68302	0.01790
2629.39725	0.01801
2628.11148	0.01805
2626.82571	0.01795
2625.53994	0.01771
2624.25418	0.01745
2622.96841	0.01724
2621.68264	0.01709
2620.39687	0.01699
2619.11110	0.01693
2617.82533	0.01688
2616.53956	0.01683
2615.25379	0.01686
2613.96802	0.01696
2612.68226	0.01711
2611.39649	0.01722
2610.11072	0.01729
2608.82495	0.01735
2607.53918	0.01737
2606.25341	0.01730
2604.96764	0.01709
2603.68187	0.01676
2602.39611	0.01636
2601.11034	0.01603
2599.82457	0.01587
2598.53880	0.01589
2597.25303	0.01607
2595.96726	0.01633
2594.68149	0.01653
2593.39572	0.01656
2592.10995	0.01642
2590.82419	0.01630
2589.53842	0.01632
2588.25265	0.01643
2586.96688	0.01648
2585.68111	0.01642
2584.39534	0.01635
2583.10957	0.01638
2581.82380	0.01640
2580.53804	0.01621
2579.25227	0.01580
2577.96650	0.01531
2576.68073	0.01496
2575.39496	0.01487
2574.10919	0.01506
2572.82342	0.01539
2571.53765	0.01557
2570.25188	0.01541
2568.96612	0.01505
2567.68035	0.01482
2566.39458	0.01491
2565.10881	0.01516
2563.82304	0.01531
2562.53727	0.01527
2561.25150	0.01513
2559.96573	0.01494
2558.67997	0.01467
2557.39420	0.01440
2556.10843	0.01427
2554.82266	0.01437
2553.53689	0.01463
2552.25112	0.01498
2550.96535	0.01536
2549.67958	0.01568
2548.39381	0.01576
2547.10805	0.01554
2545.82228	0.01521
2544.53651	0.01497
2543.25074	0.01484
2541.96497	0.01461
2540.67920	0.01422
2539.39343	0.01385
2538.10766	0.01375
2536.82190	0.01390
2535.53613	0.01408
2534.25036	0.01414
2532.96459	0.01416
2531.67882	0.01423
2530.39305	0.01432
2529.10728	0.01434
2527.82151	0.01427
2526.53574	0.01418
2525.24998	0.01418
2523.96421	0.01435
2522.67844	0.01459
2521.39267	0.01468
2520.10690	0.01447
2518.82113	0.01405
2517.53536	0.01371
2516.24959	0.01369
2514.96383	0.01391
2513.67806	0.01412
2512.39229	0.01412
2511.10652	0.01393
2509.82075	0.01376
2508.53498	0.01370
2507.24921	0.01367
2505.96344	0.01361
2504.67767	0.01361
2503.39191	0.01377
2502.10614	0.01394
2500.82037	0.01388
2499.53460	0.01363
2498.24883	0.01356
2496.96306	0.01396
2495.67729	0.01462
2494.39152	0.01508
2493.10576	0.01511
2491.81999	0.01487
2490.53422	0.01469
2489.24845	0.01473
2487.96268	0.01489
2486.67691	0.01490
2485.39114	0.01462
2484.10537	0.01416
2482.81960	0.01379
2481.53384	0.01359
2480.24807	0.01350
2478.96230	0.01349
2477.67653	0.01359
2476.39076	0.01373
2475.10499	0.01372
2473.81922	0.01340
2472.53345	0.01287
2471.24769	0.01247
2469.96192	0.01243
2468.67615	0.01279
2467.39038	0.01336
2466.10461	0.01393
2464.81884	0.01439
2463.53307	0.01465
2462.24730	0.01469
2460.96153	0.01459
2459.67577	0.01454
2458.39000	0.01471
2457.10423	0.01504
2455.81846	0.01531
2454.53269	0.01527
2453.24692	0.01495
2451.96115	0.01457
2450.67538	0.01438
2449.38962	0.01435
2448.10385	0.01429
2446.81808	0.01413
2445.53231	0.01400
2444.24654	0.01398
2442.96077	0.01402
2441.67500	0.01397
2440.38923	0.01378
2439.10346	0.01348
2437.81770	0.01312
2436.53193	0.01281
2435.24616	0.01266
2433.96039	0.01273
2432.67462	0.01299
2431.38885	0.01326
2430.10308	0.01337
2428.81731	0.01328
2427.53155	0.01312
2426.24578	0.01304
2424.96001	0.01305
2423.67424	0.01310
2422.38847	0.01319
2421.10270	0.01337
2419.81693	0.01367
2418.53116	0.01404
2417.24539	0.01441
2415.95963	0.01463
2414.67386	0.01463
2413.38809	0.01445
2412.10232	0.01424
2410.81655	0.01419
2409.53078	0.01432
2408.24501	0.01452
2406.95924	0.01461
2405.67347	0.01446
2404.38771	0.01408
2403.10194	0.01361
2401.81617	0.01321
2400.53040	0.01293
2399.24463	0.01274
2397.95886	0.01263
2396.67309	0.01263
2395.38732	0.01273
2394.10156	0.01291
2392.81579	0.01309
2391.53002	0.01319
2390.24425	0.01321
2388.95848	0.01320
2387.67271	0.01325
2386.38694	0.01344
2385.10117	0.01372
2383.81540	0.01396
2382.52964	0.01402
2381.24387	0.01384
2379.95810	0.01357
2378.67233	0.01330
2377.38656	0.01306
2376.10079	0.01296
2374.81502	0.01279
2373.52925	0.01224
2372.24349	0.01141
2370.95772	0.01059
2369.67195	0.01045
2368.38618	0.01096
2367.10041	0.01140
2365.81464	0.01155
2364.52887	0.01171
2363.24310	0.01165
2361.95733	0.01119
2360.67157	0.01109
2359.38580	0.01221
2358.10003	0.01390
2356.81426	0.01500
2355.52849	0.01508
2354.24272	0.01434
2352.95695	0.01348
2351.67118	0.01255
2350.38542	0.01127
2349.09965	0.01065
2347.81388	0.01166
2346.52811	0.01302
2345.24234	0.01308
2343.95657	0.01219
2342.67080	0.01176
2341.38503	0.01203
2340.09926	0.01248
2338.81350	0.01279
2337.52773	0.01263
2336.24196	0.01227
2334.95619	0.01192
2333.67042	0.01180
2332.38465	0.01232
2331.09888	0.01302
2329.81311	0.01345
2328.52735	0.01378
2327.24158	0.01384
2325.95581	0.01365
2324.67004	0.01359
2323.38427	0.01359
2322.09850	0.01356
2320.81273	0.01355
2319.52696	0.01318
2318.24119	0.01243
2316.95543	0.01182
2315.66966	0.01165
2314.38389	0.01183
2313.09812	0.01209
2311.81235	0.01241
2310.52658	0.01278
2309.24081	0.01312
2307.95504	0.01338
2306.66928	0.01349
2305.38351	0.01340
2304.09774	0.01327
2302.81197	0.01330
2301.52620	0.01345
2300.24043	0.01354
2298.95466	0.01347
2297.66889	0.01325
2296.38312	0.01297
2295.09736	0.01272
2293.81159	0.01253
2292.52582	0.01245
2291.24005	0.01248
2289.95428	0.01261
2288.66851	0.01270
2287.38274	0.01268
2286.09697	0.01257
2284.81121	0.01248
2283.52544	0.01249
2282.23967	0.01256
2280.95390	0.01256
2279.66813	0.01241
2278.38236	0.01218
2277.09659	0.01199
2275.81082	0.01187
2274.52505	0.01177
2273.23929	0.01160
2271.95352	0.01135
2270.66775	0.01108
2269.38198	0.01083
2268.09621	0.01066
2266.81044	0.01054
2265.52467	0.01049
2264.23890	0.01055
2262.95314	0.01073
2261.66737	0.01104
2260.38160	0.01133
2259.09583	0.01145
2257.81006	0.01135
2256.52429	0.01122
2255.23852	0.01130
2253.95275	0.01158
2252.66698	0.01174
2251.38122	0.01149
2250.09545	0.01082
2248.80968	0.01002
2247.52391	0.00943
2246.23814	0.00920
2244.95237	0.00933
2243.66660	0.00972
2242.38083	0.01011
2241.09507	0.01019
2239.80930	0.00983
2238.52353	0.00920
2237.23776	0.00873
2235.95199	0.00881
2234.66622	0.00944
2233.38045	0.01028
2232.09468	0.01095
2230.80891	0.01124
2229.52315	0.01112
2228.23738	0.01071
2226.95161	0.01041
2225.66584	0.01052
2224.38007	0.01084
2223.09430	0.01078
2221.80853	0.01002
2220.52276	0.00898
2219.23700	0.00845
2217.95123	0.00881
2216.66546	0.00959
2215.37969	0.00998
2214.09392	0.00954
2212.80815	0.00853
2211.52238	0.00750
2210.23661	0.00697
2208.95084	0.00708
2207.66508	0.00766
2206.37931	0.00827
2205.09354	0.00857
2203.80777	0.00838
2202.52200	0.00769
2201.23623	0.00672
2199.95046	0.00589
2198.66469	0.00559
2197.37893	0.00591
2196.09316	0.00666
2194.80739	0.00747
2193.52162	0.00804
2192.23585	0.00818
2190.95008	0.00788
2189.66431	0.00721
2188.37854	0.00632
2187.09277	0.00542
2185.80701	0.00462
2184.52124	0.00393
2183.23547	0.00337
2181.94970	0.00323
2180.66393	0.00375
2179.37816	0.00468
2178.09239	0.00536
2176.80662	0.00528
2175.52085	0.00451
2174.23509	0.00365
2172.94932	0.00329
2171.66355	0.00363
2170.37778	0.00441
2169.09201	0.00527
2167.80624	0.00608
2166.52047	0.00680
2165.23470	0.00727
2163.94894	0.00711
2162.66317	0.00610
2161.37740	0.00455
2160.09163	0.00323
2158.80586	0.00256
2157.52009	0.00220
2156.23432	0.00162
2154.94855	0.00103
2153.66278	0.00110
2152.37702	0.00208
2151.09125	0.00358
2149.80548	0.00508
2148.51971	0.00642
2147.23394	0.00758
2145.94817	0.00833
2144.66240	0.00827
2143.37663	0.00732
2142.09087	0.00612
2140.80510	0.00563
2139.51933	0.00617
2138.23356	0.00700
2136.94779	0.00714
2135.66202	0.00639
2134.37625	0.00537
2133.09048	0.00474
2131.80471	0.00468
2130.51895	0.00500
2129.23318	0.00544
2127.94741	0.00581
2126.66164	0.00597
2125.37587	0.00592
2124.09010	0.00577
2122.80433	0.00562
2121.51856	0.00566
2120.23280	0.00609
2118.94703	0.00691
2117.66126	0.00777
2116.37549	0.00823
2115.08972	0.00825
2113.80395	0.00810
2112.51818	0.00799
2111.23241	0.00783
2109.94664	0.00752
2108.66088	0.00724
2107.37511	0.00728
2106.08934	0.00768
2104.80357	0.00819
2103.51780	0.00840
2102.23203	0.00816
2100.94626	0.00761
2099.66049	0.00709
2098.37473	0.00643
2097.08896	0.00582
2095.80319	0.00560
2094.51742	0.00600
2093.23165	0.00681
2091.94588	0.00757
2090.66011	0.00787
2089.37434	0.00763
2088.08857	0.00707
2086.80281	0.00653
2085.51704	0.00630
2084.23127	0.00638
2082.94550	0.00660
2081.65973	0.00681
2080.37396	0.00698
2079.08819	0.00703
2077.80242	0.00686
2076.51666	0.00650
2075.23089	0.00616
2073.94512	0.00601
2072.65935	0.00597
2071.37358	0.00583
2070.08781	0.00559
2068.80204	0.00555
2067.51627	0.00586
2066.23050	0.00627
2064.94474	0.00636
2063.65897	0.00609
2062.37320	0.00576
2061.08743	0.00558
2059.80166	0.00543
2058.51589	0.00519
2057.23012	0.00486
2055.94435	0.00457
2054.65859	0.00444
2053.37282	0.00461
2052.08705	0.00513
2050.80128	0.00584
2049.51551	0.00631
2048.22974	0.00614
2046.94397	0.00531
2045.65820	0.00416
2044.37243	0.00315
2043.08667	0.00262
2041.80090	0.00270
2040.51513	0.00319
2039.22936	0.00368
2037.94359	0.00390
2036.65782	0.00401
2035.37205	0.00440
2034.08628	0.00509
2032.80052	0.00553
2031.51475	0.00502
2030.22898	0.00342
2028.94321	0.00134
2027.65744	-0.00013
2026.37167	-0.00032
2025.08590	0.00060
2023.80013	0.00188
2022.51436	0.00303
2021.22860	0.00406
2019.94283	0.00507
2018.65706	0.00582
2017.37129	0.00594
2016.08552	0.00535
2014.79975	0.00438
2013.51398	0.00354
2012.22821	0.00313
2010.94245	0.00302
2009.65668	0.00275
2008.37091	0.00207
2007.08514	0.00135
2005.79937	0.00118
2004.51360	0.00184
2003.22783	0.00304
2001.94206	0.00427
2000.65629	0.00520
1999.37053	0.00581
1998.08476	0.00622
1996.79899	0.00646
1995.51322	0.00634
1994.22745	0.00565
1992.94168	0.00457
1991.65591	0.00363
1990.37014	0.00339
1989.08438	0.00406
1987.79861	0.00537
1986.51284	0.00669
1985.22707	0.00743
1983.94130	0.00747
1982.65553	0.00717
1981.36976	0.00698
1980.08399	0.00701
1978.79822	0.00701
1977.51246	0.00666
1976.22669	0.00602
1974.94092	0.00547
1973.65515	0.00540
1972.36938	0.00582
1971.08361	0.00636
1969.79784	0.00654
1968.51207	0.00611
1967.22631	0.00523
1965.94054	0.00435
1964.65477	0.00393
1963.36900	0.00415
1962.08323	0.00479
1960.79746	0.00549
1959.51169	0.00596
1958.22592	0.00615
1956.94015	0.00622
1955.65439	0.00639
1954.36862	0.00672
1953.08285	0.00705
1951.79708	0.00712
1950.51131	0.00683
1949.22554	0.00636
1947.93977	0.00598
1946.65400	0.00584
1945.36823	0.00594
1944.08247	0.00623
1942.79670	0.00666
1941.51093	0.00715
1940.22516	0.00758
1938.93939	0.00789
1937.65362	0.00809
1936.36785	0.00821
1935.08208	0.00826
1933.79632	0.00826
1932.51055	0.00818
1931.22478	0.00793
1929.93901	0.00742
1928.65324	0.00679
1927.36747	0.00632
1926.08170	0.00618
1924.79593	0.00630
1923.51016	0.00646
1922.22440	0.00658
1920.93863	0.00671
1919.65286	0.00687
1918.36709	0.00696
1917.08132	0.00690
1915.79555	0.00684
1914.50978	0.00703
1913.22401	0.00755
1911.93825	0.00807
1910.65248	0.00820
1909.36671	0.00786
1908.08094	0.00734
1906.79517	0.00699
1905.50940	0.00695
1904.22363	0.00708
1902.93786	0.00729
1901.65209	0.00759
1900.36633	0.00800
1899.08056	0.00845
1897.79479	0.00875
1896.50902	0.00879
1895.22325	0.00863
1893.93748	0.00846
1892.65171	0.00847
1891.36594	0.00870
1890.08018	0.00901
1888.79441	0.00920
1887.50864	0.00917
1886.22287	0.00901
1884.93710	0.00885
1883.65133	0.00873
1882.36556	0.00855
1881.07979	0.00823
1879.79402	0.00784
1878.50826	0.00759
1877.22249	0.00762
1875.93672	0.00791
1874.65095	0.00833
1873.36518	0.00872
1872.07941	0.00898
1870.79364	0.00902
1869.50787	0.00878
1868.22211	0.00838
1866.93634	0.00803
1865.65057	0.00790
1864.36480	0.00799
1863.07903	0.00819
1861.79326	0.00836
1860.50749	0.00847
1859.22172	0.00854
1857.93595	0.00858
1856.65019	0.00857
1855.36442	0.00850
1854.07865	0.00842
1852.79288	0.00836
1851.50711	0.00834
1850.22134	0.00838
1848.93557	0.00848
1847.64980	0.00862
1846.36404	0.00878
1845.07827	0.00889
1843.79250	0.00892
1842.50673	0.00882
1841.22096	0.00864
1839.93519	0.00849
1838.64942	0.00845
1837.36365	0.00847
1836.07788	0.00841
1834.79212	0.00825
1833.50635	0.00808
1832.22058	0.00802
1830.93481	0.00805
1829.64904	0.00806
1828.36327	0.00801
1827.07750	0.00791
1825.79173	0.00784
1824.50597	0.00783
1823.22020	0.00792
1821.93443	0.00810
1820.64866	0.00830
1819.36289	0.00838
1818.07712	0.00832
1816.79135	0.00821
1815.50558	0.00817
1814.21981	0.00823
1812.93405	0.00831
1811.64828	0.00836
1810.36251	0.00839
1809.07674	0.00843
1807.79097	0.00850
1806.50520	0.00855
1805.21943	0.00855
1803.93366	0.00851
1802.64790	0.00848
1801.36213	0.00847
1800.07636	0.00845
1798.79059	0.00842
1797.50482	0.00843
1796.21905	0.00853
1794.93328	0.00871
1793.64751	0.00893
1792.36174	0.00914
1791.07598	0.00924
1789.79021	0.00919
1788.50444	0.00896
1787.21867	0.00865
1785.93290	0.00840
1784.64713	0.00830
1783.36136	0.00833
1782.07559	0.00844
1780.78983	0.00854
1779.50406	0.00858
1778.21829	0.00862
1776.93252	0.00873
1775.64675	0.00889
1774.36098	0.00901
1773.07521	0.00900
1771.78944	0.00889
1770.50367	0.00882
1769.21791	0.00888
1767.93214	0.00903
1766.64637	0.00918
1765.36060	0.00929
1764.07483	0.00938
1762.78906	0.00946
1761.50329	0.00952
1760.21752	0.00954
1758.93176	0.00950
1757.64599	0.00945
1756.36022	0.00940
1755.07445	0.00938
1753.78868	0.00939
1752.50291	0.00937
1751.21714	0.00928
1749.93137	0.00915
1748.64560	0.00906
1747.35984	0.00907
1746.07407	0.00917
1744.78830	0.00925
1743.50253	0.00924
1742.21676	0.00914
1740.93099	0.00904
1739.64522	0.00901
1738.35945	0.00908
1737.07369	0.00920
1735.78792	0.00935
1734.50215	0.00951
1733.21638	0.00966
1731.93061	0.00979
1730.64484	0.00987
1729.35907	0.00992
1728.07330	0.00996
1726.78753	0.01002
1725.50177	0.01006
1724.21600	0.01005
1722.93023	0.00999
1721.64446	0.00995
1720.35869	0.01002
1719.07292	0.01020
1717.78715	0.01043
1716.50138	0.01060
1715.21561	0.01071
1713.92985	0.01080
1712.64408	0.01090
1711.35831	0.01103
1710.07254	0.01118
1708.78677	0.01137
1707.50100	0.01158
1706.21523	0.01185
1704.92946	0.01217
1703.64370	0.01254
1702.35793	0.01293
1701.07216	0.01328
1699.78639	0.01355
1698.50062	0.01374
1697.21485	0.01390
1695.92908	0.01408
1694.64331	0.01432
1693.35754	0.01461
1692.07178	0.01491
1690.78601	0.01516
1689.50024	0.01538
1688.21447	0.01563
1686.92870	0.01600
1685.64293	0.01644
1684.35716	0.01684
1683.07139	0.01710
1681.78563	0.01727
1680.49986	0.01749
1679.21409	0.01782
1677.92832	0.01823
1676.64255	0.01864
1675.35678	0.01901
1674.07101	0.01936
1672.78524	0.01972
1671.49947	0.02009
1670.21371	0.02045
1668.92794	0.02077
1667.64217	0.02106
1666.35640	0.02133
1665.07063	0.02161
1663.78486	0.02190
1662.49909	0.02217
1661.21332	0.02240
1659.92756	0.02262
1658.64179	0.02285
1657.35602	0.02314
1656.07025	0.02349
1654.78448	0.02384
1653.49871	0.02408
1652.21294	0.02416
1650.92717	0.02414
1649.64140	0.02412
1648.35564	0.02416
1647.06987	0.02420
1645.78410	0.02418
1644.49833	0.02412
1643.21256	0.02406
1641.92679	0.02404
1640.64102	0.02403
1639.35525	0.02404
1638.06949	0.02404
1636.78372	0.02403
1635.49795	0.02393
1634.21218	0.02371
1632.92641	0.02343
1631.64064	0.02320
1630.35487	0.02306
1629.06910	0.02299
1627.78333	0.02293
1626.49757	0.02284
1625.21180	0.02271
1623.92603	0.02252
1622.64026	0.02227
1621.35449	0.02200
1620.06872	0.02176
1618.78295	0.02157
1617.49718	0.02142
1616.21142	0.02123
1614.92565	0.02100
1613.63988	0.02073
1612.35411	0.02050
1611.06834	0.02036
1609.78257	0.02034
1608.49680	0.02037
1607.21103	0.02039
1605.92526	0.02033
1604.63950	0.02021
1603.35373	0.02009
1602.06796	0.01998
1600.78219	0.01990
1599.49642	0.01983
1598.21065	0.01977
1596.92488	0.01973
1595.63911	0.01970
1594.35335	0.01970
1593.06758	0.01972
1591.78181	0.01974
1590.49604	0.01977
1589.21027	0.01982
1587.92450	0.01994
1586.63873	0.02010
1585.35296	0.02027
1584.06719	0.02042
1582.78143	0.02057
1581.49566	0.02071
1580.20989	0.02084
1578.92412	0.02094
1577.63835	0.02102
1576.35258	0.02112
1575.06681	0.02125
1573.78104	0.02142
1572.49528	0.02162
1571.20951	0.02184
1569.92374	0.02205
1568.63797	0.02222
1567.35220	0.02236
1566.06643	0.02248
1564.78066	0.02261
1563.49489	0.02280
1562.20912	0.02306
1560.92336	0.02338
1559.63759	0.02368
1558.35182	0.02389
1557.06605	0.02400
1555.78028	0.02405
1554.49451	0.02407
1553.20874	0.02406
1551.92297	0.02405
1550.63721	0.02407
1549.35144	0.02413
1548.06567	0.02425
1546.77990	0.02439
1545.49413	0.02453
1544.20836	0.02465
1542.92259	0.02476
1541.63682	0.02484
1540.35105	0.02486
1539.06529	0.02476
1537.77952	0.02460
1536.49375	0.02444
1535.20798	0.02436
1533.92221	0.02435
1532.63644	0.02438
1531.35067	0.02442
1530.06490	0.02449
1528.77914	0.02459
1527.49337	0.02473
1526.20760	0.02485
1524.92183	0.02496
1523.63606	0.02511
1522.35029	0.02530
1521.06452	0.02554
1519.77875	0.02579
1518.49298	0.02605
1517.20722	0.02632
1515.92145	0.02660
1514.63568	0.02686
1513.34991	0.02710
1512.06414	0.02734
1510.77837	0.02764
1509.49260	0.02803
1508.20683	0.02853
1506.92107	0.02905
1505.63530	0.02950
1504.34953	0.02986
1503.06376	0.03015
1501.77799	0.03045
1500.49222	0.03081
1499.20645	0.03119
1497.92068	0.03155
1496.63491	0.03183
1495.34915	0.03206
1494.06338	0.03227
1492.77761	0.03252
1491.49184	0.03280
1490.20607	0.03309
1488.92030	0.03333
1487.63453	0.03354
1486.34876	0.03378
1485.06299	0.03411
1483.77723	0.03453
1482.49146	0.03502
1481.20569	0.03553
1479.91992	0.03605
1478.63415	0.03657
1477.34838	0.03710
1476.06261	0.03765
1474.77684	0.03822
1473.49108	0.03876
1472.20531	0.03923
1470.91954	0.03962
1469.63377	0.03995
1468.34800	0.04023
1467.06223	0.04049
1465.77646	0.04070
1464.49069	0.04088
1463.20492	0.04106
1461.91916	0.04131
1460.63339	0.04164
1459.34762	0.04204
1458.06185	0.04245
1456.77608	0.04279
1455.49031	0.04304
1454.20454	0.04322
1452.91877	0.04336
1451.63301	0.04345
1450.34724	0.04349
1449.06147	0.04344
1447.77570	0.04331
1446.48993	0.04308
1445.20416	0.04279
1443.91839	0.04249
1442.63262	0.04224
1441.34685	0.04206
1440.06109	0.04196
1438.77532	0.04190
1437.48955	0.04186
1436.20378	0.04182
1434.91801	0.04180
1433.63224	0.04184
1432.34647	0.04197
1431.06070	0.04223
1429.77494	0.04261
1428.48917	0.04308
1427.20340	0.04359
1425.91763	0.04414
1424.63186	0.04471
1423.34609	0.04528
1422.06032	0.04582
1420.77455	0.04635
1419.48878	0.04686
1418.20302	0.04735
1416.91725	0.04777
1415.63148	0.04807
1414.34571	0.04824
1413.05994	0.04831
1411.77417	0.04830
1410.48840	0.04820
1409.20263	0.04800
1407.91687	0.04770
1406.63110	0.04730
1405.34533	0.04682
1404.05956	0.04628
1402.77379	0.04568
1401.48802	0.04501
1400.20225	0.04427
1398.91648	0.04349
1397.63071	0.04272
1396.34495	0.04198
1395.05918	0.04124
1393.77341	0.04043
1392.48764	0.03950
1391.20187	0.03853
1389.91610	0.03761
1388.63033	0.03678
1387.34456	0.03601
1386.05880	0.03525
1384.77303	0.03450
1383.48726	0.03377
1382.20149	0.03308
1380.91572	0.03243
1379.62995	0.03177
1378.34418	0.03108
1377.05841	0.03038
1375.77264	0.02965
1374.48688	0.02891
1373.20111	0.02812
1371.91534	0.02729
1370.62957	0.02644
1369.34380	0.02563
1368.05803	0.02492
1366.77226	0.02430
1365.48649	0.02375
1364.20073	0.02320
1362.91496	0.02263
1361.62919	0.02207
1360.34342	0.02152
1359.05765	0.02103
1357.77188	0.02060
1356.48611	0.02021
1355.20034	0.01985
1353.91457	0.01951
1352.62881	0.01921
1351.34304	0.01895
1350.05727	0.01872
1348.77150	0.01849
1347.48573	0.01825
1346.19996	0.01801
1344.91419	0.01779
1343.62842	0.01758
1342.34266	0.01739
1341.05689	0.01720
1339.77112	0.01704
1338.48535	0.01692
1337.19958	0.01685
1335.91381	0.01681
1334.62804	0.01675
1333.34227	0.01664
1332.05650	0.01648
1330.77074	0.01630
1329.48497	0.01609
1328.19920	0.01589
1326.91343	0.01571
1325.62766	0.01554
1324.34189	0.01539
1323.05612	0.01525
1321.77035	0.01513
1320.48459	0.01504
1319.19882	0.01494
1317.91305	0.01480
1316.62728	0.01464
1315.34151	0.01450
1314.05574	0.01443
1312.76997	0.01440
1311.48420	0.01438
1310.19843	0.01431
1308.91267	0.01420
1307.62690	0.01409
1306.34113	0.01399
1305.05536	0.01390
1303.76959	0.01378
1302.48382	0.01364
1301.19805	0.01351
1299.91228	0.01340
1298.62652	0.01331
1297.34075	0.01324
1296.05498	0.01317
1294.76921	0.01309
1293.48344	0.01302
1292.19767	0.01297
1290.91190	0.01296
1289.62613	0.01297
1288.34036	0.01301
1287.05460	0.01305
1285.76883	0.01308
1284.48306	0.01307
1283.19729	0.01303
1281.91152	0.01298
1280.62575	0.01291
1279.33998	0.01281
1278.05421	0.01269
1276.76845	0.01257
1275.48268	0.01246
1274.19691	0.01237
1272.91114	0.01231
1271.62537	0.01229
1270.33960	0.01231
1269.05383	0.01233
1267.76806	0.01233
1266.48229	0.01229
1265.19653	0.01221
1263.91076	0.01212
1262.62499	0.01204
1261.33922	0.01199
1260.05345	0.01197
1258.76768	0.01197
1257.48191	0.01198
1256.19614	0.01198
1254.91037	0.01199
1253.62461	0.01201
1252.33884	0.01205
1251.05307	0.01208
1249.76730	0.01209
1248.48153	0.01206
1247.19576	0.01198
1245.90999	0.01186
1244.62422	0.01172
1243.33846	0.01160
1242.05269	0.01152
1240.76692	0.01148
1239.48115	0.01145
1238.19538	0.01143
1236.90961	0.01143
1235.62384	0.01143
1234.33807	0.01142
1233.05230	0.01137
1231.76654	0.01128
1230.48077	0.01119
1229.19500	0.01111
1227.90923	0.01105
1226.62346	0.01099
1225.33769	0.01094
1224.05192	0.01088
1222.76615	0.01082
1221.48039	0.01073
1220.19462	0.01062
1218.90885	0.01050
1217.62308	0.01039
1216.33731	0.01030
1215.05154	0.01026
1213.76577	0.01027
1212.48000	0.01034
1211.19423	0.01044
1209.90847	0.01052
1208.62270	0.01057
1207.33693	0.01058
1206.05116	0.01059
1204.76539	0.01059
1203.47962	0.01056
1202.19385	0.01048
1200.90808	0.01036
1199.62232	0.01023
1198.33655	0.01019
1197.05078	0.01021
1195.76501	0.01025
1194.47924	0.01030
1193.19347	0.01035
1191.90770	0.01038
1190.62193	0.01035
1189.33616	0.01024
1188.05040	0.01006
1186.76463	0.00990
1185.47886	0.00983
1184.19309	0.00985
1182.90732	0.00994
1181.62155	0.01005
1180.33578	0.01016
1179.05001	0.01025
1177.76425	0.01032
1176.47848	0.01041
1175.19271	0.01050
1173.90694	0.01057
1172.62117	0.01060
1171.33540	0.01059
1170.04963	0.01059
1168.76386	0.01063
1167.47809	0.01070
1166.19233	0.01082
1164.90656	0.01099
1163.62079	0.01120
1162.33502	0.01141
1161.04925	0.01158
1159.76348	0.01168
1158.47771	0.01178
1157.19194	0.01189
1155.90618	0.01199
1154.62041	0.01209
1153.33464	0.01221
1152.04887	0.01239
1150.76310	0.01260
1149.47733	0.01282
1148.19156	0.01305
1146.90579	0.01331
1145.62002	0.01363
1144.33426	0.01396
1143.04849	0.01426
1141.76272	0.01455
1140.47695	0.01494
1139.19118	0.01549
1137.90541	0.01619
1136.61964	0.01695
1135.33387	0.01768
1134.04811	0.01839
1132.76234	0.01913
1131.47657	0.01997
1130.19080	0.02096
1128.90503	0.02209
1127.61926	0.02333
1126.33349	0.02467
1125.04772	0.02610
1123.76195	0.02763
1122.47619	0.02925
1121.19042	0.03094
1119.90465	0.03268
1118.61888	0.03445
1117.33311	0.03623
1116.04734	0.03801
1114.76157	0.03980
1113.47580	0.04164
1112.19004	0.04349
1110.90427	0.04529
1109.61850	0.04697
1108.33273	0.04855
1107.04696	0.05009
1105.76119	0.05162
1104.47542	0.05309
1103.18965	0.05448
1101.90388	0.05579
1100.61812	0.05707
1099.33235	0.05834
1098.04658	0.05956
1096.76081	0.06070
1095.47504	0.06177
1094.18927	0.06283
1092.90350	0.06389
1091.61773	0.06498
1090.33197	0.06606
1089.04620	0.06708
1087.76043	0.06802
1086.47466	0.06891
1085.18889	0.06982
1083.90312	0.07077
1082.61735	0.07171
1081.33158	0.07265
1080.04581	0.07368
1078.76005	0.07488
1077.47428	0.07619
1076.18851	0.07752
1074.90274	0.07882
1073.61697	0.08016
1072.33120	0.08163
1071.04543	0.08322
1069.75966	0.08484
1068.47390	0.08641
1067.18813	0.08794
1065.90236	0.08949
1064.61659	0.09108
1063.33082	0.09268
1062.04505	0.09425
1060.75928	0.09580
1059.47351	0.09736
1058.18774	0.09892
1056.90198	0.10047
1055.61621	0.10198
1054.33044	0.10349
1053.04467	0.10500
1051.75890	0.10652
1050.47313	0.10802
1049.18736	0.10948
1047.90159	0.11092
1046.61583	0.11238
1045.33006	0.11390
1044.04429	0.11547
1042.75852	0.11705
1041.47275	0.11861
1040.18698	0.12019
1038.90121	0.12180
1037.61544	0.12342
1036.32967	0.12499
1035.04391	0.12644
1033.75814	0.12772
1032.47237	0.12885
1031.18660	0.12982
1029.90083	0.13063
1028.61506	0.13130
1027.32929	0.13183
1026.04352	0.13222
1024.75775	0.13245
1023.47199	0.13251
1022.18622	0.13240
1020.90045	0.13210
1019.61468	0.13157
1018.32891	0.13081
1017.04314	0.12981
1015.75737	0.12860
1014.47160	0.12718
1013.18584	0.12558
1011.90007	0.12378
1010.61430	0.12177
1009.32853	0.11955
1008.04276	0.11714
1006.75699	0.11453
1005.47122	0.11175
1004.18545	0.10882
1002.89968	0.10583
1001.61392	0.10283
1000.32815	0.09984
999.04238	0.09684
997.75661	0.09382
996.47084	0.09072
995.18507	0.08753
993.89930	0.08431
992.61353	0.08118
991.32777	0.07825
990.04200	0.07556
988.75623	0.07303
987.47046	0.07056
986.18469	0.06814
984.89892	0.06580
983.61315	0.06359
982.32738	0.06154
981.04161	0.05962
979.75585	0.05783
978.47008	0.05615
977.18431	0.05461
975.89854	0.05326
974.61277	0.05212
973.32700	0.05116
972.04123	0.05035
970.75546	0.04966
969.46970	0.04912
968.18393	0.04883
966.89816	0.04884
965.61239	0.04917
964.32662	0.04967
963.04085	0.05016
961.75508	0.05047
960.46931	0.05051
959.18354	0.05025
957.89778	0.04969
956.61201	0.04885
955.32624	0.04779
954.04047	0.04664
952.75470	0.04551
951.46893	0.04444
950.18316	0.04342
948.89739	0.04243
947.61163	0.04148
946.32586	0.04057
945.04009	0.03967
943.75432	0.03871
942.46855	0.03774
941.18278	0.03682
939.89701	0.03603
938.61124	0.03539
937.32547	0.03486
936.03971	0.03438
934.75394	0.03391
933.46817	0.03345
932.18240	0.03296
930.89663	0.03244
929.61086	0.03191
928.32509	0.03137
927.03932	0.03084
925.75356	0.03034
924.46779	0.02987
923.18202	0.02946
921.89625	0.02907
920.61048	0.02873
919.32471	0.02846
918.03894	0.02827
916.75317	0.02812
915.46740	0.02792
914.18164	0.02765
912.89587	0.02735
911.61010	0.02710
910.32433	0.02689
909.03856	0.02667
907.75279	0.02640
906.46702	0.02608
905.18125	0.02573
903.89549	0.02543
902.60972	0.02521
901.32395	0.02507
900.03818	0.02497
898.75241	0.02484
897.46664	0.02466
896.18087	0.02445
894.89510	0.02422
893.60933	0.02401
892.32357	0.02386
891.03780	0.02381
889.75203	0.02388
888.46626	0.02407
887.18049	0.02436
885.89472	0.02482
884.60895	0.02552
883.32318	0.02651
882.03742	0.02773
880.75165	0.02898
879.46588	0.03004
878.18011	0.03086
876.89434	0.03158
875.60857	0.03232
874.32280	0.03306
873.03703	0.03358
871.75126	0.03371
870.46550	0.03342
869.17973	0.03281
867.89396	0.03202
866.60819	0.03114
865.32242	0.03021
864.03665	0.02923
862.75088	0.02824
861.46511	0.02732
860.17935	0.02655
858.89358	0.02595
857.60781	0.02545
856.32204	0.02501
855.03627	0.02460
853.75050	0.02421
852.46473	0.02383
851.17896	0.02348
849.89319	0.02317
848.60743	0.02293
847.32166	0.02276
846.03589	0.02261
844.75012	0.02247
843.46435	0.02236
842.17858	0.02229
840.89281	0.02221
839.60704	0.02208
838.32128	0.02188
837.03551	0.02164
835.74974	0.02140
834.46397	0.02119
833.17820	0.02102
831.89243	0.02092
830.60666	0.02086
829.32089	0.02083
828.03512	0.02080
826.74936	0.02074
825.46359	0.02064
824.17782	0.02051
822.89205	0.02038
821.60628	0.02032
820.32051	0.02032
819.03474	0.02035
817.74897	0.02033
816.46321	0.02022
815.17744	0.02004
813.89167	0.01986
812.60590	0.01976
811.32013	0.01978
810.03436	0.01988
808.74859	0.01997
807.46282	0.02002
806.17705	0.02005
804.89129	0.02013
803.60552	0.02026
802.31975	0.02040
801.03398	0.02049
799.74821	0.02050
798.46244	0.02040
797.17667	0.02024
795.89090	0.02010
794.60513	0.02009
793.31937	0.02022
792.03360	0.02035
790.74783	0.02035
789.46206	0.02021
788.17629	0.02001
786.89052	0.01987
785.60475	0.01985
784.31898	0.01990
783.03322	0.01997
781.74745	0.02000
780.46168	0.02000
779.17591	0.01998
777.89014	0.01995
776.60437	0.01991
775.31860	0.01988
774.03283	0.01988
772.74706	0.01990
771.46130	0.01993
770.17553	0.01997
768.88976	0.01998
767.60399	0.01997
766.31822	0.01993
765.03245	0.01992
763.74668	0.01995
762.46091	0.02000
761.17515	0.02003
759.88938	0.02001
758.60361	0.01996
757.31784	0.01990
756.03207	0.01985
754.74630	0.01982
753.46053	0.01983
752.17476	0.01985
750.88899	0.01988
749.60323	0.01991
748.31746	0.01993
747.03169	0.01988
745.74592	0.01979
744.46015	0.01973
743.17438	0.01972
741.88861	0.01974
740.60284	0.01974
739.31708	0.01973
738.03131	0.01972
736.74554	0.01971
735.45977	0.01966
734.17400	0.01956
732.88823	0.01950
731.60246	0.01954
730.31669	0.01968
729.03092	0.01985
727.74516	0.01998
726.45939	0.02003
725.17362	0.02001
723.88785	0.01989
722.60208	0.01979
721.31631	0.01979
720.03054	0.01985
718.74477	0.01989
717.45901	0.01995
716.17324	0.01998
714.88747	0.01993
713.60170	0.01984
712.31593	0.01973
711.03016	0.01963
709.74439	0.01953
708.45862	0.01944
707.17285	0.01938
705.88709	0.01940
704.60132	0.01948
703.31555	0.01958
702.02978	0.01967
700.74401	0.01971
699.45824	0.01970
698.17247	0.01964
696.88670	0.01957
695.60094	0.01950
694.31517	0.01942
693.02940	0.01934
691.74363	0.01926
690.45786	0.01919
689.17209	0.01913
687.88632	0.01910
686.60055	0.01906
685.31478	0.01901
684.02902	0.01895
682.74325	0.01889
681.45748	0.01886
680.17171	0.01887
678.88594	0.01891
677.60017	0.01898
676.31440	0.01905
675.02863	0.01909
673.74287	0.01901
672.45710	0.01871
671.17133	0.01841
669.88556	0.01883
668.59979	0.01994
667.31402	0.01973
666.02825	0.01864
664.74248	0.01842
663.45671	0.01869
662.17095	0.01881
660.88518	0.01870
659.59941	0.01849
658.31364	0.01829
657.02787	0.01819
655.74210	0.01821
654.45633	0.01831
653.17056	0.01843
651.88480	0.01853
650.59903	0.01859
649.31326	0.01862
648.02749	0.01860
646.74172	0.01856
645.45595	0.01854
644.17018	0.01855
642.88441	0.01862
641.59864	0.01874
640.31288	0.01892
639.02711	0.01914
637.74134	0.01934
636.45557	0.01948
635.16980	0.01954
633.88403	0.01957
632.59826	0.01969
631.31249	0.02001
630.02673	0.02056
628.74096	0.02114
627.45519	0.02148
626.16942	0.02210
624.88365	0.02273
623.59788	0.02316
622.31211	0.02369
621.02634	0.02474
619.74057	0.02624
618.45481	0.02771
617.16904	0.02881
615.88327	0.02963
614.59750	0.03070
613.31173	0.03280
612.02596	0.03642
610.74019	0.04112
609.45442	0.04555
608.16866	0.04863
606.88289	0.05048
605.59712	0.05191
604.31135	0.05338
603.02558	0.05476
601.73981	0.05563
600.45404	0.05560
599.16827	0.05453
597.88250	0.05268
596.59674	0.05059
595.31097	0.04875
594.02520	0.04736
592.73943	0.04634
591.45366	0.04552
590.16789	0.04490
588.88212	0.04460
587.59635	0.04473
586.31059	0.04525
585.02482	0.04606
583.73905	0.04711
582.45328	0.04838
581.16751	0.04979
579.88174	0.05126
578.59597	0.05272
577.31020	0.05415
576.02443	0.05557
574.73867	0.05692
573.45290	0.05815
572.16713	0.05930
570.88136	0.06047
569.59559	0.06185
568.30982	0.06354
567.02405	0.06551
565.73828	0.06750
564.45251	0.06913
563.16675	0.07007
561.88098	0.07014
560.59521	0.06932
559.30944	0.06768
558.02367	0.06539
556.73790	0.06266
555.45213	0.05973
554.16636	0.05672
552.88060	0.05376
551.59483	0.05095
550.30906	0.04835
549.02329	0.04598
547.73752	0.04384
546.45175	0.04190
545.16598	0.04011
543.88021	0.03844
542.59444	0.03695
541.30868	0.03570
540.02291	0.03468
538.73714	0.03377
537.45137	0.03290
536.16560	0.03206
534.87983	0.03133
533.59406	0.03069
532.30829	0.03006
531.02253	0.02938
529.73676	0.02867
528.45099	0.02800
527.16522	0.02746
525.87945	0.02706
524.59368	0.02674
523.30791	0.02637
522.02214	0.02590
520.73637	0.02536
519.45061	0.02483
518.16484	0.02438
516.87907	0.02399
515.59330	0.02365
514.30753	0.02337
513.02176	0.02314
511.73599	0.02291
510.45022	0.02261
509.16446	0.02227
507.87869	0.02193
506.59292	0.02163
505.30715	0.02135
504.02138	0.02105
502.73561	0.02070
501.44984	0.02032
500.16407	0.01995
498.87830	0.01968
497.59254	0.01956
496.30677	0.01955
495.02100	0.01954
493.73523	0.01952
492.44946	0.01948
491.16369	0.01946
489.87792	0.01939
488.59215	0.01922
487.30639	0.01897
486.02062	0.01871
484.73485	0.01851
483.44908	0.01841
482.16331	0.01844
480.87754	0.01861
479.59177	0.01888
478.30600	0.01921
477.02023	0.01954
475.73447	0.01985
474.44870	0.02012
473.16293	0.02031
471.87716	0.02042
470.59139	0.02042
469.30562	0.02034
468.01985	0.02026
466.73408	0.02018
465.44832	0.02010
464.16255	0.01997
462.87678	0.01978
461.59101	0.01955
460.30524	0.01935
459.01947	0.01925
457.73370	0.01926
456.44793	0.01928
455.16216	0.01924
453.87640	0.01911
452.59063	0.01896
451.30486	0.01882
450.01909	0.01867
448.73332	0.01846
447.44755	0.01817
446.16178	0.01785
444.87601	0.01758
443.59025	0.01741
442.30448	0.01736
441.01871	0.01737
439.73294	0.01735
438.44717	0.01730
437.16140	0.01724
435.87563	0.01723
434.58986	0.01723
433.30409	0.01721
432.01833	0.01716
430.73256	0.01714
429.44679	0.01717
428.16102	0.01722
426.87525	0.01723
425.58948	0.01716
424.30371	0.01703
423.01794	0.01687
421.73218	0.01670
420.44641	0.01654
419.16064	0.01642
417.87487	0.01634
416.58910	0.01633
415.30333	0.01634
414.01756	0.01633
412.73179	0.01625
411.44602	0.01610
410.16026	0.01594
408.87449	0.01583
407.58872	0.01581
406.30295	0.01587
405.01718	0.01596
403.73141	0.01605
402.44564	0.01611
401.15987	0.01618
399.87411	0.01627
