3997.45528	0.04236
3996.16951	0.04226
3994.88374	0.04240
3993.59798	0.04258
3992.31221	0.04241
3991.02644	0.04186
3989.74067	0.04125
3988.45490	0.04096
3987.16913	0.04097
3985.88336	0.04096
3984.59759	0.04071
3983.31183	0.04034
3982.02606	0.04005
3980.74029	0.03991
3979.45452	0.03988
3978.16875	0.03991
3976.88298	0.03995
3975.59721	0.04001
3974.31144	0.04016
3973.02567	0.04046
3971.73991	0.04077
3970.45414	0.04096
3969.16837	0.04110
3967.88260	0.04136
3966.59683	0.04176
3965.31106	0.04209
3964.02529	0.04226
3962.73952	0.04237
3961.45376	0.04245
3960.16799	0.04232
3958.88222	0.04180
3957.59645	0.04102
3956.31068	0.04026
3955.02491	0.03980
3953.73914	0.03976
3952.45337	0.04014
3951.16760	0.04076
3949.88184	0.04120
3948.59607	0.04109
3947.31030	0.04052
3946.02453	0.03999
3944.73876	0.03992
3943.45299	0.04024
3942.16722	0.04053
3940.88145	0.04049
3939.59569	0.04014
3938.30992	0.03964
3937.02415	0.03913
3935.73838	0.03878
3934.45261	0.03883
3933.16684	0.03936
3931.88107	0.04014
3930.59530	0.04087
3929.30953	0.04133
3928.02377	0.04140
3926.73800	0.04098
3925.45223	0.04023
3924.16646	0.03957
3922.88069	0.03944
3921.59492	0.03980
3920.30915	0.04019
3919.02338	0.04015
3917.73762	0.03961
3916.45185	0.03882
3915.16608	0.03812
3913.88031	0.03776
3912.59454	0.03776
3911.30877	0.03796
3910.02300	0.03821
3908.73723	0.03851
3907.45146	0.03907
3906.16570	0.03998
3904.87993	0.04084
3903.59416	0.04108
3902.30839	0.04057
3901.02262	0.03979
3899.73685	0.03928
3898.45108	0.03910
3897.16531	0.03897
3895.87955	0.03873
3894.59378	0.03854
3893.30801	0.03868
3892.02224	0.03910
3890.73647	0.03938
3889.45070	0.03920
3888.16493	0.03868
3886.87916	0.03812
3885.59339	0.03769
3884.30763	0.03750
3883.02186	0.03762
3881.73609	0.03794
3880.45032	0.03819
3879.16455	0.03823
3877.87878	0.03807
3876.59301	0.03769
3875.30724	0.03709
3874.02148	0.03654
3872.73571	0.03651
3871.44994	0.03716
3870.16417	0.03800
3868.87840	0.03840
3867.59263	0.03826
3866.30686	0.03789
3865.02109	0.03747
3863.73532	0.03706
3862.44956	0.03683
3861.16379	0.03689
3859.87802	0.03708
3858.59225	0.03719
3857.30648	0.03716
3856.02071	0.03714
3854.73494	0.03715
3853.44917	0.03701
3852.16341	0.03680
3850.87764	0.03687
3849.59187	0.03731
3848.30610	0.03784
3847.02033	0.03816
3845.73456	0.03816
3844.44879	0.03791
3843.16302	0.03756
3841.87725	0.03739
3840.59149	0.03763
3839.30572	0.03816
3838.01995	0.03843
3836.73418	0.03800
3835.44841	0.03705
3834.16264	0.03627
3832.87687	0.03621
3831.59110	0.03690
3830.30534	0.03794
3829.01957	0.03875
3827.73380	0.03896
3826.44803	0.03856
3825.16226	0.03788
3823.87649	0.03731
3822.59072	0.03687
3821.30495	0.03637
3820.01918	0.03589
3818.73342	0.03601
3817.44765	0.03695
3816.16188	0.03796
3814.87611	0.03808
3813.59034	0.03731
3812.30457	0.03641
3811.01880	0.03601
3809.73303	0.03610
3808.44726	0.03621
3807.16150	0.03583
3805.87573	0.03499
3804.58996	0.03437
3803.30419	0.03457
3802.01842	0.03539
3800.73265	0.03611
3799.44688	0.03643
3798.16111	0.03643
3796.87535	0.03620
3795.58958	0.03573
3794.30381	0.03512
3793.01804	0.03454
3791.73227	0.03406
3790.44650	0.03385
3789.16073	0.03412
3787.87496	0.03490
3786.58919	0.03586
3785.30343	0.03655
3784.01766	0.03685
3782.73189	0.03694
3781.44612	0.03705
3780.16035	0.03707
3778.87458	0.03674
3777.58881	0.03608
3776.30304	0.03535
3775.01728	0.03480
3773.73151	0.03449
3772.44574	0.03446
3771.15997	0.03463
3769.87420	0.03475
3768.58843	0.03457
3767.30266	0.03414
3766.01689	0.03372
3764.73112	0.03354
3763.44536	0.03373
3762.15959	0.03430
3760.87382	0.03500
3759.58805	0.03552
3758.30228	0.03568
3757.01651	0.03559
3755.73074	0.03543
3754.44497	0.03518
3753.15921	0.03461
3751.87344	0.03368
3750.58767	0.03285
3749.30190	0.03266
3748.01613	0.03321
3746.73036	0.03423
3745.44459	0.03522
3744.15882	0.03568
3742.87305	0.03567
3741.58729	0.03570
3740.30152	0.03592
3739.01575	0.03601
3737.72998	0.03567
3736.44421	0.03486
3735.15844	0.03388
3733.87267	0.03318
3732.58690	0.03284
3731.30114	0.03250
3730.01537	0.03210
3728.72960	0.03208
3727.44383	0.03277
3726.15806	0.03381
3724.87229	0.03456
3723.58652	0.03470
3722.30075	0.03447
3721.01498	0.03425
3719.72922	0.03427
3718.44345	0.03445
3717.15768	0.03462
3715.87191	0.03465
3714.58614	0.03451
3713.30037	0.03420
3712.01460	0.03382
3710.72883	0.03349
3709.44307	0.03329
3708.15730	0.03315
3706.87153	0.03302
3705.58576	0.03296
3704.29999	0.03306
3703.01422	0.03319
3701.72845	0.03308
3700.44268	0.03270
3699.15691	0.03246
3697.87115	0.03269
3696.58538	0.03330
3695.29961	0.03405
3694.01384	0.03484
3692.72807	0.03559
3691.44230	0.03607
3690.15653	0.03592
3688.87076	0.03487
3687.58500	0.03318
3686.29923	0.03167
3685.01346	0.03106
3683.72769	0.03135
3682.44192	0.03207
3681.15615	0.03269
3679.87038	0.03289
3678.58461	0.03273
3677.29884	0.03252
3676.01308	0.03243
3674.72731	0.03244
3673.44154	0.03253
3672.15577	0.03274
3670.87000	0.03285
3669.58423	0.03269
3668.29846	0.03233
3667.01269	0.03198
3665.72693	0.03173
3664.44116	0.03167
3663.15539	0.03186
3661.86962	0.03210
3660.58385	0.03213
3659.29808	0.03198
3658.01231	0.03191
3656.72654	0.03201
3655.44077	0.03208
3654.15501	0.03193
3652.86924	0.03156
3651.58347	0.03107
3650.29770	0.03062
3649.01193	0.03038
3647.72616	0.03040
3646.44039	0.03054
3645.15462	0.03059
3643.86886	0.03054
3642.58309	0.03052
3641.29732	0.03064
3640.01155	0.03078
3638.72578	0.03068
3637.44001	0.03022
3636.15424	0.02956
3634.86847	0.02895
3633.58270	0.02854
3632.29694	0.02838
3631.01117	0.02851
3629.72540	0.02872
3628.43963	0.02866
3627.15386	0.02829
3625.86809	0.02810
3624.58232	0.02863
3623.29655	0.02997
3622.01079	0.03158
3620.72502	0.03264
3619.43925	0.03266
3618.15348	0.03191
3616.86771	0.03102
3615.58194	0.03034
3614.29617	0.02979
3613.01040	0.02917
3611.72463	0.02848
3610.43887	0.02796
3609.15310	0.02783
3607.86733	0.02815
3606.58156	0.02875
3605.29579	0.02926
3604.01002	0.02938
3602.72425	0.02907
3601.43848	0.02852
3600.15272	0.02799
3598.86695	0.02775
3597.58118	0.02788
3596.29541	0.02813
3595.00964	0.02806
3593.72387	0.02758
3592.43810	0.02697
3591.15233	0.02667
3589.86656	0.02685
3588.58080	0.02721
3587.29503	0.02739
3586.00926	0.02735
3584.72349	0.02737
3583.43772	0.02755
3582.15195	0.02773
3580.86618	0.02768
3579.58041	0.02730
3578.29464	0.02669
3577.00888	0.02605
3575.72311	0.02554
3574.43734	0.02532
3573.15157	0.02546
3571.86580	0.02594
3570.58003	0.02659
3569.29426	0.02711
3568.00849	0.02723
3566.72273	0.02687
3565.43696	0.02629
3564.15119	0.02587
3562.86542	0.02579
3561.57965	0.02588
3560.29388	0.02595
3559.00811	0.02597
3557.72234	0.02611
3556.43657	0.02646
3555.15081	0.02694
3553.86504	0.02735
3552.57927	0.02751
3551.29350	0.02735
3550.00773	0.02692
3548.72196	0.02641
3547.43619	0.02606
3546.15042	0.02590
3544.86466	0.02568
3543.57889	0.02522
3542.29312	0.02459
3541.00735	0.02402
3539.72158	0.02365
3538.43581	0.02341
3537.15004	0.02325
3535.86427	0.02320
3534.57850	0.02331
3533.29274	0.02357
3532.00697	0.02394
3530.72120	0.02434
3529.43543	0.02468
3528.14966	0.02479
3526.86389	0.02459
3525.57812	0.02413
3524.29235	0.02347
3523.00659	0.02269
3521.72082	0.02187
3520.43505	0.02132
3519.14928	0.02139
3517.86351	0.02216
3516.57774	0.02326
3515.29197	0.02409
3514.00620	0.02428
3512.72043	0.02391
3511.43467	0.02338
3510.14890	0.02304
3508.86313	0.02299
3507.57736	0.02304
3506.29159	0.02292
3505.00582	0.02246
3503.72005	0.02173
3502.43428	0.02101
3501.14852	0.02058
3499.86275	0.02059
3498.57698	0.02095
3497.29121	0.02138
3496.00544	0.02156
3494.71967	0.02134
3493.43390	0.02085
3492.14813	0.02042
3490.86236	0.02026
3489.57660	0.02031
3488.29083	0.02046
3487.00506	0.02066
3485.71929	0.02093
3484.43352	0.02114
3483.14775	0.02106
3481.86198	0.02057
3480.57621	0.01989
3479.29045	0.01938
3478.00468	0.01929
3476.71891	0.01952
3475.43314	0.01984
3474.14737	0.02001
3472.86160	0.01995
3471.57583	0.01968
3470.29006	0.01935
3469.00429	0.01909
3467.71853	0.01892
3466.43276	0.01872
3465.14699	0.01844
3463.86122	0.01821
3462.57545	0.01822
3461.28968	0.01849
3460.00391	0.01884
3458.71814	0.01907
3457.43238	0.01908
3456.14661	0.01889
3454.86084	0.01861
3453.57507	0.01835
3452.28930	0.01815
3451.00353	0.01803
3449.71776	0.01800
3448.43199	0.01810
3447.14622	0.01832
3445.86046	0.01860
3444.57469	0.01877
3443.28892	0.01871
3442.00315	0.01844
3440.71738	0.01813
3439.43161	0.01796
3438.14584	0.01785
3436.86007	0.01759
3435.57431	0.01716
3434.28854	0.01675
3433.00277	0.01658
3431.71700	0.01670
3430.43123	0.01700
3429.14546	0.01733
3427.85969	0.01755
3426.57392	0.01762
3425.28815	0.01763
3424.00239	0.01772
3422.71662	0.01788
3421.43085	0.01798
3420.14508	0.01790
3418.85931	0.01758
3417.57354	0.01708
3416.28777	0.01653
3415.00200	0.01611
3413.71624	0.01606
3412.43047	0.01646
3411.14470	0.01711
3409.85893	0.01764
3408.57316	0.01784
3407.28739	0.01780
3406.00162	0.01777
3404.71585	0.01789
3403.43008	0.01809
3402.14432	0.01822
3400.85855	0.01822
3399.57278	0.01818
3398.28701	0.01814
3397.00124	0.01801
3395.71547	0.01767
3394.42970	0.01717
3393.14393	0.01672
3391.85817	0.01644
3390.57240	0.01639
3389.28663	0.01660
3388.00086	0.01714
3386.71509	0.01796
3385.42932	0.01888
3384.14355	0.01959
3382.85778	0.01987
3381.57201	0.01965
3380.28625	0.01902
3379.00048	0.01820
3377.71471	0.01752
3376.42894	0.01721
3375.14317	0.01734
3373.85740	0.01782
3372.57163	0.01841
3371.28586	0.01890
3370.00010	0.01914
3368.71433	0.01914
3367.42856	0.01900
3366.14279	0.01886
3364.85702	0.01884
3363.57125	0.01898
3362.28548	0.01926
3360.99971	0.01962
3359.71394	0.01997
3358.42818	0.02015
3357.14241	0.02006
3355.85664	0.01971
3354.57087	0.01930
3353.28510	0.01902
3351.99933	0.01897
3350.71356	0.01906
3349.42779	0.01921
3348.14202	0.01944
3346.85626	0.01982
3345.57049	0.02025
3344.28472	0.02055
3342.99895	0.02061
3341.71318	0.02056
3340.42741	0.02066
3339.14164	0.02108
3337.85587	0.02174
3336.57011	0.02234
3335.28434	0.02263
3333.99857	0.02255
3332.71280	0.02223
3331.42703	0.02185
3330.14126	0.02160
3328.85549	0.02161
3327.56972	0.02195
3326.28395	0.02254
3324.99819	0.02315
3323.71242	0.02353
3322.42665	0.02350
3321.14088	0.02308
3319.85511	0.02250
3318.56934	0.02206
3317.28357	0.02197
3315.99780	0.02219
3314.71204	0.02249
3313.42627	0.02263
3312.14050	0.02266
3310.85473	0.02285
3309.56896	0.02333
3308.28319	0.02391
3306.99742	0.02426
3305.71165	0.02427
3304.42588	0.02411
3303.14012	0.02398
3301.85435	0.02398
3300.56858	0.02407
3299.28281	0.02422
3297.99704	0.02436
3296.71127	0.02442
3295.42550	0.02439
3294.13973	0.02437
3292.85397	0.02435
3291.56820	0.02428
3290.28243	0.02421
3288.99666	0.02425
3287.71089	0.02440
3286.42512	0.02448
3285.13935	0.02436
3283.85358	0.02421
3282.56781	0.02434
3281.28205	0.02483
3279.99628	0.02538
3278.71051	0.02565
3277.42474	0.02560
3276.13897	0.02547
3274.85320	0.02554
3273.56743	0.02584
3272.28166	0.02620
3270.99590	0.02634
3269.71013	0.02612
3268.42436	0.02558
3267.13859	0.02497
3265.85282	0.02459
3264.56705	0.02457
3263.28128	0.02476
3261.99551	0.02492
3260.70974	0.02499
3259.42398	0.02509
3258.13821	0.02530
3256.85244	0.02559
3255.56667	0.02586
3254.28090	0.02605
3252.99513	0.02603
3251.70936	0.02569
3250.42359	0.02507
3249.13783	0.02452
3247.85206	0.02441
3246.56629	0.02486
3245.28052	0.02559
3243.99475	0.02623
3242.70898	0.02657
3241.42321	0.02664
3240.13744	0.02664
3238.85167	0.02675
3237.56591	0.02702
3236.28014	0.02732
3234.99437	0.02747
3233.70860	0.02741
3232.42283	0.02724
3231.13706	0.02709
3229.85129	0.02695
3228.56552	0.02680
3227.27976	0.02673
3225.99399	0.02686
3224.70822	0.02710
3223.42245	0.02716
3222.13668	0.02689
3220.85091	0.02650
3219.56514	0.02637
3218.27937	0.02665
3216.99360	0.02712
3215.70784	0.02739
3214.42207	0.02720
3213.13630	0.02665
3211.85053	0.02618
3210.56476	0.02619
3209.27899	0.02669
3207.99322	0.02731
3206.70745	0.02774
3205.42169	0.02791
3204.13592	0.02798
3202.85015	0.02807
3201.56438	0.02825
3200.27861	0.02858
3198.99284	0.02905
3197.70707	0.02954
3196.42130	0.02983
3195.13553	0.02985
3193.84977	0.02969
3192.56400	0.02957
3191.27823	0.02958
3189.99246	0.02963
3188.70669	0.02959
3187.42092	0.02939
3186.13515	0.02909
3184.84938	0.02877
3183.56362	0.02851
3182.27785	0.02835
3180.99208	0.02834
3179.70631	0.02852
3178.42054	0.02890
3177.13477	0.02936
3175.84900	0.02968
3174.56323	0.02970
3173.27746	0.02943
3171.99170	0.02902
3170.70593	0.02862
3169.42016	0.02834
3168.13439	0.02828
3166.84862	0.02850
3165.56285	0.02889
3164.27708	0.02924
3162.99131	0.02935
3161.70555	0.02929
3160.41978	0.02924
3159.13401	0.02934
3157.84824	0.02953
3156.56247	0.02967
3155.27670	0.02973
3153.99093	0.02980
3152.70516	0.02994
3151.41939	0.03006
3150.13363	0.03007
3148.84786	0.02994
3147.56209	0.02979
3146.27632	0.02980
3144.99055	0.03007
3143.70478	0.03054
3142.41901	0.03099
3141.13324	0.03117
3139.84748	0.03096
3138.56171	0.03044
3137.27594	0.02983
3135.99017	0.02941
3134.70440	0.02928
3133.41863	0.02934
3132.13286	0.02936
3130.84709	0.02922
3129.56132	0.02897
3128.27556	0.02878
3126.98979	0.02879
3125.70402	0.02899
3124.41825	0.02921
3123.13248	0.02933
3121.84671	0.02933
3120.56094	0.02928
3119.27517	0.02921
3117.98940	0.02909
3116.70364	0.02892
3115.41787	0.02877
3114.13210	0.02883
3112.84633	0.02921
3111.56056	0.02983
3110.27479	0.03047
3108.98902	0.03094
3107.70325	0.03113
3106.41749	0.03104
3105.13172	0.03073
3103.84595	0.03033
3102.56018	0.03002
3101.27441	0.02990
3099.98864	0.03001
3098.70287	0.03036
3097.41710	0.03095
3096.13133	0.03155
3094.84557	0.03185
3093.55980	0.03167
3092.27403	0.03111
3090.98826	0.03050
3089.70249	0.03010
3088.41672	0.02994
3087.13095	0.02993
3085.84518	0.02994
3084.55942	0.02998
3083.27365	0.03012
3081.98788	0.03043
3080.70211	0.03092
3079.41634	0.03142
3078.13057	0.03175
3076.84480	0.03173
3075.55903	0.03141
3074.27326	0.03105
3072.98750	0.03094
3071.70173	0.03115
3070.41596	0.03155
3069.13019	0.03184
3067.84442	0.03184
3066.55865	0.03157
3065.27288	0.03126
3063.98711	0.03113
3062.70135	0.03125
3061.41558	0.03146
3060.12981	0.03151
3058.84404	0.03129
3057.55827	0.03089
3056.27250	0.03056
3054.98673	0.03046
3053.70096	0.03058
3052.41519	0.03071
3051.12943	0.03071
3049.84366	0.03061
3048.55789	0.03055
3047.27212	0.03061
3045.98635	0.03068
3044.70058	0.03064
3043.41481	0.03048
3042.12904	0.03038
3040.84328	0.03049
3039.55751	0.03078
3038.27174	0.03106
3036.98597	0.03117
3035.70020	0.03104
3034.41443	0.03067
3033.12866	0.03017
3031.84289	0.02973
3030.55712	0.02961
3029.27136	0.02991
3027.98559	0.03043
3026.69982	0.03082
3025.41405	0.03085
3024.12828	0.03054
3022.84251	0.03003
3021.55674	0.02951
3020.27097	0.02911
3018.98521	0.02895
3017.69944	0.02906
3016.41367	0.02934
3015.12790	0.02963
3013.84213	0.02979
3012.55636	0.02982
3011.27059	0.02977
3009.98482	0.02970
3008.69905	0.02962
3007.41329	0.02954
3006.12752	0.02946
3004.84175	0.02937
3003.55598	0.02927
3002.27021	0.02914
3000.98444	0.02897
2999.69867	0.02875
2998.41290	0.02845
2997.12714	0.02805
2995.84137	0.02767
2994.55560	0.02752
2993.26983	0.02764
2991.98406	0.02784
2990.69829	0.02793
2989.41252	0.02785
2988.12675	0.02769
2986.84098	0.02755
2985.55522	0.02745
2984.26945	0.02738
2982.98368	0.02726
2981.69791	0.02704
2980.41214	0.02672
2979.12637	0.02629
2977.84060	0.02582
2976.55483	0.02541
2975.26907	0.02518
2973.98330	0.02511
2972.69753	0.02502
2971.41176	0.02478
2970.12599	0.02444
2968.84022	0.02417
2967.55445	0.02404
2966.26868	0.02400
2964.98291	0.02393
2963.69715	0.02377
2962.41138	0.02355
2961.12561	0.02329
2959.83984	0.02300
2958.55407	0.02271
2957.26830	0.02253
2955.98253	0.02255
2954.69676	0.02266
2953.41100	0.02268
2952.12523	0.02247
2950.83946	0.02207
2949.55369	0.02164
2948.26792	0.02131
2946.98215	0.02107
2945.69638	0.02083
2944.41061	0.02045
2943.12484	0.01981
2941.83908	0.01888
2940.55331	0.01778
2939.26754	0.01675
2937.98177	0.01595
2936.69600	0.01530
2935.41023	0.01454
2934.12446	0.01351
2932.83869	0.01230
2931.55293	0.01117
2930.26716	0.01025
2928.98139	0.00950
2927.69562	0.00878
2926.40985	0.00802
2925.12408	0.00728
2923.83831	0.00664
2922.55254	0.00622
2921.26677	0.00619
2919.98101	0.00660
2918.69524	0.00736
2917.40947	0.00831
2916.12370	0.00946
2914.83793	0.01089
2913.55216	0.01259
2912.26639	0.01438
2910.98062	0.01602
2909.69486	0.01738
2908.40909	0.01840
2907.12332	0.01913
2905.83755	0.01969
2904.55178	0.02024
2903.26601	0.02080
2901.98024	0.02128
2900.69447	0.02157
2899.40870	0.02169
2898.12294	0.02177
2896.83717	0.02199
2895.55140	0.02242
2894.26563	0.02299
2892.97986	0.02353
2891.69409	0.02395
2890.40832	0.02422
2889.12255	0.02428
2887.83678	0.02407
2886.55102	0.02363
2885.26525	0.02318
2883.97948	0.02296
2882.69371	0.02301
2881.40794	0.02321
2880.12217	0.02345
2878.83640	0.02373
2877.55063	0.02402
2876.26487	0.02418
2874.97910	0.02406
2873.69333	0.02371
2872.40756	0.02339
2871.12179	0.02327
2869.83602	0.02325
2868.55025	0.02316
2867.26448	0.02294
2865.97871	0.02260
2864.69295	0.02207
2863.40718	0.02131
2862.12141	0.02038
2860.83564	0.01946
2859.54987	0.01867
2858.26410	0.01798
2856.97833	0.01731
2855.69256	0.01656
2854.40680	0.01571
2853.12103	0.01482
2851.83526	0.01415
2850.54949	0.01407
2849.26372	0.01480
2847.97795	0.01629
2846.69218	0.01822
2845.40641	0.02020
2844.12064	0.02192
2842.83488	0.02332
2841.54911	0.02446
2840.26334	0.02543
2838.97757	0.02621
2837.69180	0.02671
2836.40603	0.02694
2835.12026	0.02700
2833.83449	0.02704
2832.54873	0.02717
2831.26296	0.02738
2829.97719	0.02755
2828.69142	0.02757
2827.40565	0.02751
2826.11988	0.02746
2824.83411	0.02745
2823.54834	0.02743
2822.26257	0.02742
2820.97681	0.02750
2819.69104	0.02768
2818.40527	0.02783
2817.11950	0.02776
2815.83373	0.02741
2814.54796	0.02694
2813.26219	0.02655
2811.97642	0.02640
2810.69066	0.02643
2809.40489	0.02659
2808.11912	0.02685
2806.83335	0.02721
2805.54758	0.02759
2804.26181	0.02781
2802.97604	0.02779
2801.69027	0.02758
2800.40450	0.02734
2799.11874	0.02720
2797.83297	0.02716
2796.54720	0.02713
2795.26143	0.02704
2793.97566	0.02689
2792.68989	0.02679
2791.40412	0.02678
2790.11835	0.02685
2788.83259	0.02693
2787.54682	0.02698
2786.26105	0.02703
2784.97528	0.02715
2783.68951	0.02730
2782.40374	0.02741
2781.11797	0.02740
2779.83220	0.02728
2778.54643	0.02711
2777.26067	0.02699
2775.97490	0.02704
2774.68913	0.02729
2773.40336	0.02763
2772.11759	0.02789
2770.83182	0.02790
2769.54605	0.02764
2768.26028	0.02720
2766.97452	0.02669
2765.68875	0.02627
2764.40298	0.02612
2763.11721	0.02623
2761.83144	0.02642
2760.54567	0.02651
2759.25990	0.02652
2757.97413	0.02659
2756.68836	0.02669
2755.40260	0.02666
2754.11683	0.02649
2752.83106	0.02632
2751.54529	0.02627
2750.25952	0.02630
2748.97375	0.02632
2747.68798	0.02629
2746.40221	0.02625
2745.11645	0.02620
2743.83068	0.02620
2742.54491	0.02629
2741.25914	0.02650
2739.97337	0.02670
2738.68760	0.02676
2737.40183	0.02668
2736.11606	0.02656
2734.83029	0.02648
2733.54453	0.02644
2732.25876	0.02637
2730.97299	0.02617
2729.68722	0.02587
2728.40145	0.02561
2727.11568	0.02561
2725.82991	0.02585
2724.54414	0.02616
2723.25838	0.02636
2721.97261	0.02645
2720.68684	0.02652
2719.40107	0.02666
2718.11530	0.02682
2716.82953	0.02690
2715.54376	0.02677
2714.25799	0.02650
2712.97222	0.02624
2711.68646	0.02611
2710.40069	0.02611
2709.11492	0.02613
2707.82915	0.02609
2706.54338	0.02602
2705.25761	0.02596
2703.97184	0.02596
2702.68607	0.02602
2701.40031	0.02610
2700.11454	0.02613
2698.82877	0.02607
2697.54300	0.02593
2696.25723	0.02573
2694.97146	0.02553
2693.68569	0.02541
2692.39992	0.02541
2691.11415	0.02548
2689.82839	0.02552
2688.54262	0.02547
2687.25685	0.02541
2685.97108	0.02536
2684.68531	0.02530
2683.39954	0.02516
2682.11377	0.02500
2680.82800	0.02492
2679.54224	0.02494
2678.25647	0.02504
2676.97070	0.02518
2675.68493	0.02532
2674.39916	0.02538
2673.11339	0.02530
2671.82762	0.02510
2670.54185	0.02491
2669.25608	0.02482
2667.97032	0.02486
2666.68455	0.02496
2665.39878	0.02503
2664.11301	0.02502
2662.82724	0.02497
2661.54147	0.02489
2660.25570	0.02480
2658.96993	0.02476
2657.68417	0.02483
2656.39840	0.02499
2655.11263	0.02514
2653.82686	0.02521
2652.54109	0.02517
2651.25532	0.02504
2649.96955	0.02488
2648.68378	0.02475
2647.39801	0.02466
2646.11225	0.02453
2644.82648	0.02431
2643.54071	0.02411
2642.25494	0.02406
2640.96917	0.02411
2639.68340	0.02412
2638.39763	0.02396
2637.11186	0.02371
2635.82609	0.02350
2634.54033	0.02338
2633.25456	0.02331
2631.96879	0.02325
2630.68302	0.02323
2629.39725	0.02332
2628.11148	0.02345
2626.82571	0.02351
2625.53994	0.02345
2624.25418	0.02335
2622.96841	0.02329
2621.68264	0.02326
2620.39687	0.02317
2619.11110	0.02296
2617.82533	0.02272
2616.53956	0.02260
2615.25379	0.02267
2613.96802	0.02284
2612.68226	0.02295
2611.39649	0.02291
2610.11072	0.02281
2608.82495	0.02282
2607.53918	0.02300
2606.25341	0.02324
2604.96764	0.02335
2603.68187	0.02323
2602.39611	0.02293
2601.11034	0.02259
2599.82457	0.02237
2598.53880	0.02233
2597.25303	0.02236
2595.96726	0.02228
2594.68149	0.02205
2593.39572	0.02187
2592.10995	0.02195
2590.82419	0.02230
2589.53842	0.02268
2588.25265	0.02278
2586.96688	0.02246
2585.68111	0.02193
2584.39534	0.02155
2583.10957	0.02146
2581.82380	0.02157
2580.53804	0.02167
2579.25227	0.02173
2577.96650	0.02182
2576.68073	0.02196
2575.39496	0.02203
2574.10919	0.02193
2572.82342	0.02171
2571.53765	0.02151
2570.25188	0.02143
2568.96612	0.02143
2567.68035	0.02145
2566.39458	0.02144
2565.10881	0.02142
2563.82304	0.02141
2562.53727	0.02141
2561.25150	0.02136
2559.96573	0.02126
2558.67997	0.02114
2557.39420	0.02104
2556.10843	0.02100
2554.82266	0.02109
2553.53689	0.02140
2552.25112	0.02185
2550.96535	0.02217
2549.67958	0.02210
2548.39381	0.02164
2547.10805	0.02107
2545.82228	0.02067
2544.53651	0.02051
2543.25074	0.02045
2541.96497	0.02037
2540.67920	0.02031
2539.39343	0.02036
2538.10766	0.02055
2536.82190	0.02074
2535.53613	0.02075
2534.25036	0.02053
2532.96459	0.02019
2531.67882	0.01985
2530.39305	0.01963
2529.10728	0.01962
2527.82151	0.01988
2526.53574	0.02028
2525.24998	0.02059
2523.96421	0.02070
2522.67844	0.02068
2521.39267	0.02067
2520.10690	0.02072
2518.82113	0.02083
2517.53536	0.02110
2516.24959	0.02149
2514.96383	0.02165
2513.67806	0.02126
2512.39229	0.02048
2511.10652	0.01985
2509.82075	0.01967
2508.53498	0.01977
2507.24921	0.01991
2505.96344	0.02004
2504.67767	0.02022
2503.39191	0.02037
2502.10614	0.02032
2500.82037	0.02004
2499.53460	0.01969
2498.24883	0.01951
2496.96306	0.01963
2495.67729	0.01990
2494.39152	0.02009
2493.10576	0.02008
2491.81999	0.01997
2490.53422	0.01992
2489.24845	0.02008
2487.96268	0.02043
2486.67691	0.02071
2485.39114	0.02065
2484.10537	0.02027
2482.81960	0.01986
2481.53384	0.01970
2480.24807	0.01974
2478.96230	0.01982
2477.67653	0.01991
2476.39076	0.02009
2475.10499	0.02039
2473.81922	0.02065
2472.53345	0.02065
2471.24769	0.02036
2469.96192	0.01993
2468.67615	0.01961
2467.39038	0.01959
2466.10461	0.01988
2464.81884	0.02028
2463.53307	0.02048
2462.24730	0.02032
2460.96153	0.01995
2459.67577	0.01966
2458.39000	0.01960
2457.10423	0.01971
2455.81846	0.01977
2454.53269	0.01965
2453.24692	0.01940
2451.96115	0.01922
2450.67538	0.01917
2449.38962	0.01918
2448.10385	0.01907
2446.81808	0.01882
2445.53231	0.01852
2444.24654	0.01839
2442.96077	0.01856
2441.67500	0.01902
2440.38923	0.01956
2439.10346	0.01988
2437.81770	0.01982
2436.53193	0.01951
2435.24616	0.01922
2433.96039	0.01908
2432.67462	0.01901
2431.38885	0.01889
2430.10308	0.01873
2428.81731	0.01864
2427.53155	0.01866
2426.24578	0.01876
2424.96001	0.01893
2423.67424	0.01916
2422.38847	0.01946
2421.10270	0.01973
2419.81693	0.01981
2418.53116	0.01963
2417.24539	0.01925
2415.95963	0.01889
2414.67386	0.01875
2413.38809	0.01887
2412.10232	0.01910
2410.81655	0.01923
2409.53078	0.01915
2408.24501	0.01893
2406.95924	0.01868
2405.67347	0.01854
2404.38771	0.01852
2403.10194	0.01854
2401.81617	0.01850
2400.53040	0.01837
2399.24463	0.01815
2397.95886	0.01794
2396.67309	0.01774
2395.38732	0.01758
2394.10156	0.01747
2392.81579	0.01745
2391.53002	0.01757
2390.24425	0.01787
2388.95848	0.01831
2387.67271	0.01872
2386.38694	0.01893
2385.10117	0.01891
2383.81540	0.01878
2382.52964	0.01872
2381.24387	0.01879
2379.95810	0.01894
2378.67233	0.01904
2377.38656	0.01907
2376.10079	0.01911
2374.81502	0.01918
2373.52925	0.01912
2372.24349	0.01886
2370.95772	0.01855
2369.67195	0.01840
2368.38618	0.01840
2367.10041	0.01842
2365.81464	0.01844
2364.52887	0.01846
2363.24310	0.01850
2361.95733	0.01856
2360.67157	0.01858
2359.38580	0.01874
2358.10003	0.01915
2356.81426	0.01963
2355.52849	0.01998
2354.24272	0.02015
2352.95695	0.02015
2351.67118	0.01993
2350.38542	0.01967
2349.09965	0.01960
2347.81388	0.01957
2346.52811	0.01922
2345.24234	0.01888
2343.95657	0.01921
2342.67080	0.01995
2341.38503	0.01994
2340.09926	0.01923
2338.81350	0.01932
2337.52773	0.02013
2336.24196	0.01985
2334.95619	0.01880
2333.67042	0.01885
2332.38465	0.01952
2331.09888	0.01908
2329.81311	0.01875
2328.52735	0.01958
2327.24158	0.01984
2325.95581	0.01977
2324.67004	0.02046
2323.38427	0.02089
2322.09850	0.02051
2320.81273	0.02032
2319.52696	0.01991
2318.24119	0.01951
2316.95543	0.01967
2315.66966	0.01974
2314.38389	0.01957
2313.09812	0.01934
2311.81235	0.01889
2310.52658	0.01860
2309.24081	0.01859
2307.95504	0.01868
2306.66928	0.01885
2305.38351	0.01881
2304.09774	0.01856
2302.81197	0.01828
2301.52620	0.01813
2300.24043	0.01828
2298.95466	0.01856
2297.66889	0.01873
2296.38312	0.01866
2295.09736	0.01837
2293.81159	0.01800
2292.52582	0.01768
2291.24005	0.01749
2289.95428	0.01748
2288.66851	0.01769
2287.38274	0.01804
2286.09697	0.01829
2284.81121	0.01819
2283.52544	0.01764
2282.23967	0.01681
2280.95390	0.01608
2279.66813	0.01570
2278.38236	0.01564
2277.09659	0.01566
2275.81082	0.01560
2274.52505	0.01546
2273.23929	0.01534
2271.95352	0.01531
2270.66775	0.01536
2269.38198	0.01546
2268.09621	0.01567
2266.81044	0.01596
2265.52467	0.01620
2264.23890	0.01620
2262.95314	0.01587
2261.66737	0.01538
2260.38160	0.01501
2259.09583	0.01489
2257.81006	0.01494
2256.52429	0.01504
2255.23852	0.01518
2253.95275	0.01539
2252.66698	0.01563
2251.38122	0.01571
2250.09545	0.01558
2248.80968	0.01534
2247.52391	0.01508
2246.23814	0.01501
2244.95237	0.01508
2243.66660	0.01526
2242.38083	0.01548
2241.09507	0.01546
2239.80930	0.01494
2238.52353	0.01415
2237.23776	0.01369
2235.95199	0.01380
2234.66622	0.01398
2233.38045	0.01358
2232.09468	0.01260
2230.80891	0.01172
2229.52315	0.01156
2228.23738	0.01202
2226.95161	0.01260
2225.66584	0.01296
2224.38007	0.01308
2223.09430	0.01305
2221.80853	0.01293
2220.52276	0.01280
2219.23700	0.01271
2217.95123	0.01256
2216.66546	0.01231
2215.37969	0.01220
2214.09392	0.01242
2212.80815	0.01272
2211.52238	0.01259
2210.23661	0.01190
2208.95084	0.01115
2207.66508	0.01094
2206.37931	0.01140
2205.09354	0.01209
2203.80777	0.01251
2202.52200	0.01241
2201.23623	0.01192
2199.95046	0.01133
2198.66469	0.01091
2197.37893	0.01080
2196.09316	0.01090
2194.80739	0.01096
2193.52162	0.01071
2192.23585	0.01008
2190.95008	0.00937
2189.66431	0.00909
2188.37854	0.00952
2187.09277	0.01058
2185.80701	0.01182
2184.52124	0.01278
2183.23547	0.01300
2181.94970	0.01229
2180.66393	0.01091
2179.37816	0.00965
2178.09239	0.00922
2176.80662	0.00981
2175.52085	0.01093
2174.23509	0.01192
2172.94932	0.01231
2171.66355	0.01208
2170.37778	0.01159
2169.09201	0.01124
2167.80624	0.01112
2166.52047	0.01112
2165.23470	0.01131
2163.94894	0.01178
2162.66317	0.01213
2161.37740	0.01158
2160.09163	0.00990
2158.80586	0.00802
2157.52009	0.00712
2156.23432	0.00735
2154.94855	0.00781
2153.66278	0.00768
2152.37702	0.00683
2151.09125	0.00590
2149.80548	0.00582
2148.51971	0.00688
2147.23394	0.00837
2145.94817	0.00915
2144.66240	0.00888
2143.37663	0.00827
2142.09087	0.00822
2140.80510	0.00890
2139.51933	0.00979
2138.23356	0.01031
2136.94779	0.01032
2135.66202	0.01021
2134.37625	0.01051
2133.09048	0.01137
2131.80471	0.01233
2130.51895	0.01284
2129.23318	0.01277
2127.94741	0.01233
2126.66164	0.01179
2125.37587	0.01133
2124.09010	0.01110
2122.80433	0.01104
2121.51856	0.01089
2120.23280	0.01042
2118.94703	0.00980
2117.66126	0.00948
2116.37549	0.00978
2115.08972	0.01061
2113.80395	0.01152
2112.51818	0.01209
2111.23241	0.01216
2109.94664	0.01183
2108.66088	0.01130
2107.37511	0.01079
2106.08934	0.01047
2104.80357	0.01044
2103.51780	0.01063
2102.23203	0.01088
2100.94626	0.01111
2099.66049	0.01170
2098.37473	0.01207
2097.08896	0.01209
2095.80319	0.01178
2094.51742	0.01121
2093.23165	0.01069
2091.94588	0.01055
2090.66011	0.01078
2089.37434	0.01106
2088.08857	0.01108
2086.80281	0.01075
2085.51704	0.01027
2084.23127	0.00994
2082.94550	0.00998
2081.65973	0.01041
2080.37396	0.01099
2079.08819	0.01141
2077.80242	0.01148
2076.51666	0.01123
2075.23089	0.01082
2073.94512	0.01036
2072.65935	0.00991
2071.37358	0.00947
2070.08781	0.00913
2068.80204	0.00905
2067.51627	0.00934
2066.23050	0.00985
2064.94474	0.01022
2063.65897	0.01016
2062.37320	0.00971
2061.08743	0.00921
2059.80166	0.00882
2058.51589	0.00849
2057.23012	0.00816
2055.94435	0.00805
2054.65859	0.00840
2053.37282	0.00912
2052.08705	0.00967
2050.80128	0.00955
2049.51551	0.00877
2048.22974	0.00792
2046.94397	0.00763
2045.65820	0.00788
2044.37243	0.00826
2043.08667	0.00848
2041.80090	0.00862
2040.51513	0.00864
2039.22936	0.00825
2037.94359	0.00720
2036.65782	0.00563
2035.37205	0.00409
2034.08628	0.00314
2032.80052	0.00298
2031.51475	0.00343
2030.22898	0.00415
2028.94321	0.00491
2027.65744	0.00561
2026.37167	0.00611
2025.08590	0.00623
2023.80013	0.00593
2022.51436	0.00547
2021.22860	0.00526
2019.94283	0.00559
2018.65706	0.00637
2017.37129	0.00715
2016.08552	0.00751
2014.79975	0.00735
2013.51398	0.00691
2012.22821	0.00650
2010.94245	0.00635
2009.65668	0.00660
2008.37091	0.00714
2007.08514	0.00775
2005.79937	0.00818
2004.51360	0.00825
2003.22783	0.00791
2001.94206	0.00731
2000.65629	0.00686
1999.37053	0.00691
1998.08476	0.00747
1996.79899	0.00821
1995.51322	0.00880
1994.22745	0.00912
1992.94168	0.00924
1991.65591	0.00934
1990.37014	0.00959
1989.08438	0.01000
1987.79861	0.01023
1986.51284	0.00985
1985.22707	0.00877
1983.94130	0.00759
1982.65553	0.00725
1981.36976	0.00830
1980.08399	0.01032
1978.79822	0.01205
1977.51246	0.01241
1976.22669	0.01141
1974.94092	0.01018
1973.65515	0.00985
1972.36938	0.01052
1971.08361	0.01138
1969.79784	0.01167
1968.51207	0.01130
1967.22631	0.01061
1965.94054	0.00983
1964.65477	0.00895
1963.36900	0.00799
1962.08323	0.00721
1960.79746	0.00692
1959.51169	0.00717
1958.22592	0.00768
1956.94015	0.00819
1955.65439	0.00861
1954.36862	0.00900
1953.08285	0.00937
1951.79708	0.00965
1950.51131	0.00974
1949.22554	0.00956
1947.93977	0.00908
1946.65400	0.00836
1945.36823	0.00770
1944.08247	0.00745
1942.79670	0.00781
1941.51093	0.00855
1940.22516	0.00925
1938.93939	0.00956
1937.65362	0.00952
1936.36785	0.00935
1935.08208	0.00930
1933.79632	0.00940
1932.51055	0.00954
1931.22478	0.00969
1929.93901	0.00989
1928.65324	0.01019
1927.36747	0.01059
1926.08170	0.01100
1924.79593	0.01131
1923.51016	0.01141
1922.22440	0.01117
1920.93863	0.01065
1919.65286	0.01005
1918.36709	0.00964
1917.08132	0.00949
1915.79555	0.00954
1914.50978	0.00967
1913.22401	0.00984
1911.93825	0.01003
1910.65248	0.01026
1909.36671	0.01053
1908.08094	0.01084
1906.79517	0.01116
1905.50940	0.01142
1904.22363	0.01152
1902.93786	0.01139
1901.65209	0.01104
1900.36633	0.01058
1899.08056	0.01022
1897.79479	0.01013
1896.50902	0.01027
1895.22325	0.01051
1893.93748	0.01068
1892.65171	0.01073
1891.36594	0.01074
1890.08018	0.01079
1888.79441	0.01088
1887.50864	0.01095
1886.22287	0.01097
1884.93710	0.01095
1883.65133	0.01094
1882.36556	0.01094
1881.07979	0.01093
1879.79402	0.01090
1878.50826	0.01087
1877.22249	0.01090
1875.93672	0.01106
1874.65095	0.01133
1873.36518	0.01161
1872.07941	0.01181
1870.79364	0.01190
1869.50787	0.01191
1868.22211	0.01185
1866.93634	0.01173
1865.65057	0.01156
1864.36480	0.01135
1863.07903	0.01114
1861.79326	0.01098
1860.50749	0.01089
1859.22172	0.01080
1857.93595	0.01067
1856.65019	0.01056
1855.36442	0.01051
1854.07865	0.01058
1852.79288	0.01074
1851.50711	0.01096
1850.22134	0.01118
1848.93557	0.01133
1847.64980	0.01137
1846.36404	0.01131
1845.07827	0.01118
1843.79250	0.01101
1842.50673	0.01083
1841.22096	0.01074
1839.93519	0.01079
1838.64942	0.01092
1837.36365	0.01101
1836.07788	0.01100
1834.79212	0.01096
1833.50635	0.01101
1832.22058	0.01121
1830.93481	0.01147
1829.64904	0.01165
1828.36327	0.01166
1827.07750	0.01155
1825.79173	0.01142
1824.50597	0.01132
1823.22020	0.01125
1821.93443	0.01120
1820.64866	0.01113
1819.36289	0.01105
1818.07712	0.01100
1816.79135	0.01101
1815.50558	0.01111
1814.21981	0.01128
1812.93405	0.01147
1811.64828	0.01158
1810.36251	0.01154
1809.07674	0.01135
1807.79097	0.01113
1806.50520	0.01094
1805.21943	0.01082
1803.93366	0.01079
1802.64790	0.01084
1801.36213	0.01095
1800.07636	0.01102
1798.79059	0.01100
1797.50482	0.01089
1796.21905	0.01083
1794.93328	0.01094
1793.64751	0.01121
1792.36174	0.01146
1791.07598	0.01152
1789.79021	0.01139
1788.50444	0.01121
1787.21867	0.01107
1785.93290	0.01099
1784.64713	0.01090
1783.36136	0.01080
1782.07559	0.01072
1780.78983	0.01068
1779.50406	0.01066
1778.21829	0.01064
1776.93252	0.01061
1775.64675	0.01057
1774.36098	0.01055
1773.07521	0.01050
1771.78944	0.01041
1770.50367	0.01032
1769.21791	0.01029
1767.93214	0.01028
1766.64637	0.01021
1765.36060	0.01010
1764.07483	0.00997
1762.78906	0.00978
1761.50329	0.00950
1760.21752	0.00919
1758.93176	0.00897
1757.64599	0.00884
1756.36022	0.00872
1755.07445	0.00858
1753.78868	0.00848
1752.50291	0.00842
1751.21714	0.00828
1749.93137	0.00796
1748.64560	0.00754
1747.35984	0.00711
1746.07407	0.00674
1744.78830	0.00647
1743.50253	0.00628
1742.21676	0.00616
1740.93099	0.00605
1739.64522	0.00582
1738.35945	0.00548
1737.07369	0.00517
1735.78792	0.00504
1734.50215	0.00497
1733.21638	0.00477
1731.93061	0.00443
1730.64484	0.00415
1729.35907	0.00405
1728.07330	0.00413
1726.78753	0.00435
1725.50177	0.00466
1724.21600	0.00499
1722.93023	0.00528
1721.64446	0.00557
1720.35869	0.00595
1719.07292	0.00642
1717.78715	0.00678
1716.50138	0.00696
1715.21561	0.00708
1713.92985	0.00734
1712.64408	0.00777
1711.35831	0.00825
1710.07254	0.00869
1708.78677	0.00909
1707.50100	0.00949
1706.21523	0.00991
1704.92946	0.01032
1703.64370	0.01078
1702.35793	0.01142
1701.07216	0.01217
1699.78639	0.01277
1698.50062	0.01323
1697.21485	0.01371
1695.92908	0.01418
1694.64331	0.01453
1693.35754	0.01484
1692.07178	0.01531
1690.78601	0.01589
1689.50024	0.01641
1688.21447	0.01686
1686.92870	0.01735
1685.64293	0.01789
1684.35716	0.01832
1683.07139	0.01855
1681.78563	0.01874
1680.49986	0.01901
1679.21409	0.01931
1677.92832	0.01963
1676.64255	0.01998
1675.35678	0.02034
1674.07101	0.02070
1672.78524	0.02110
1671.49947	0.02155
1670.21371	0.02195
1668.92794	0.02221
1667.64217	0.02232
1666.35640	0.02241
1665.07063	0.02259
1663.78486	0.02285
1662.49909	0.02314
1661.21332	0.02348
1659.92756	0.02390
1658.64179	0.02440
1657.35602	0.02494
1656.07025	0.02556
1654.78448	0.02629
1653.49871	0.02690
1652.21294	0.02710
1650.92717	0.02697
1649.64140	0.02691
1648.35564	0.02714
1647.06987	0.02749
1645.78410	0.02774
1644.49833	0.02785
1643.21256	0.02791
1641.92679	0.02801
1640.64102	0.02810
1639.35525	0.02818
1638.06949	0.02831
1636.78372	0.02850
1635.49795	0.02865
1634.21218	0.02863
1632.92641	0.02847
1631.64064	0.02826
1630.35487	0.02801
1629.06910	0.02769
1627.78333	0.02735
1626.49757	0.02705
1625.21180	0.02678
1623.92603	0.02651
1622.64026	0.02616
1621.35449	0.02572
1620.06872	0.02532
1618.78295	0.02507
1617.49718	0.02488
1616.21142	0.02460
1614.92565	0.02420
1613.63988	0.02380
1612.35411	0.02348
1611.06834	0.02318
1609.78257	0.02286
1608.49680	0.02256
1607.21103	0.02229
1605.92526	0.02207
1604.63950	0.02186
1603.35373	0.02164
1602.06796	0.02143
1600.78219	0.02124
1599.49642	0.02115
1598.21065	0.02118
1596.92488	0.02129
1595.63911	0.02141
1594.35335	0.02149
1593.06758	0.02154
1591.78181	0.02159
1590.49604	0.02166
1589.21027	0.02175
1587.92450	0.02187
1586.63873	0.02207
1585.35296	0.02233
1584.06719	0.02266
1582.78143	0.02302
1581.49566	0.02336
1580.20989	0.02368
1578.92412	0.02406
1577.63835	0.02454
1576.35258	0.02501
1575.06681	0.02534
1573.78104	0.02561
1572.49528	0.02601
1571.20951	0.02657
1569.92374	0.02715
1568.63797	0.02764
1567.35220	0.02806
1566.06643	0.02843
1564.78066	0.02875
1563.49489	0.02905
1562.20912	0.02945
1560.92336	0.03001
1559.63759	0.03053
1558.35182	0.03080
1557.06605	0.03088
1555.78028	0.03102
1554.49451	0.03126
1553.20874	0.03150
1551.92297	0.03168
1550.63721	0.03183
1549.35144	0.03193
1548.06567	0.03197
1546.77990	0.03197
1545.49413	0.03195
1544.20836	0.03194
1542.92259	0.03197
1541.63682	0.03207
1540.35105	0.03212
1539.06529	0.03192
1537.77952	0.03151
1536.49375	0.03113
1535.20798	0.03097
1533.92221	0.03093
1532.63644	0.03084
1531.35067	0.03065
1530.06490	0.03046
1528.77914	0.03031
1527.49337	0.03019
1526.20760	0.03007
1524.92183	0.02998
1523.63606	0.02998
1522.35029	0.03006
1521.06452	0.03008
1519.77875	0.03002
1518.49298	0.02995
1517.20722	0.02992
1515.92145	0.02992
1514.63568	0.02995
1513.34991	0.03006
1512.06414	0.03024
1510.77837	0.03046
1509.49260	0.03078
1508.20683	0.03118
1506.92107	0.03152
1505.63530	0.03163
1504.34953	0.03153
1503.06376	0.03145
1501.77799	0.03152
1500.49222	0.03167
1499.20645	0.03182
1497.92068	0.03192
1496.63491	0.03193
1495.34915	0.03182
1494.06338	0.03165
1492.77761	0.03156
1491.49184	0.03159
1490.20607	0.03167
1488.92030	0.03171
1487.63453	0.03173
1486.34876	0.03175
1485.06299	0.03182
1483.77723	0.03194
1482.49146	0.03214
1481.20569	0.03238
1479.91992	0.03267
1478.63415	0.03301
1477.34838	0.03339
1476.06261	0.03380
1474.77684	0.03420
1473.49108	0.03454
1472.20531	0.03474
1470.91954	0.03480
1469.63377	0.03486
1468.34800	0.03505
1467.06223	0.03540
1465.77646	0.03586
1464.49069	0.03636
1463.20492	0.03687
1461.91916	0.03742
1460.63339	0.03808
1459.34762	0.03888
1458.06185	0.03976
1456.77608	0.04052
1455.49031	0.04104
1454.20454	0.04140
1452.91877	0.04174
1451.63301	0.04211
1450.34724	0.04250
1449.06147	0.04290
1447.77570	0.04322
1446.48993	0.04340
1445.20416	0.04341
1443.91839	0.04326
1442.63262	0.04295
1441.34685	0.04254
1440.06109	0.04212
1438.77532	0.04181
1437.48955	0.04161
1436.20378	0.04142
1434.91801	0.04122
1433.63224	0.04111
1432.34647	0.04117
1431.06070	0.04136
1429.77494	0.04163
1428.48917	0.04195
1427.20340	0.04234
1425.91763	0.04280
1424.63186	0.04327
1423.34609	0.04372
1422.06032	0.04418
1420.77455	0.04470
1419.48878	0.04523
1418.20302	0.04566
1416.91725	0.04600
1415.63148	0.04631
1414.34571	0.04660
1413.05994	0.04683
1411.77417	0.04696
1410.48840	0.04696
1409.20263	0.04687
1407.91687	0.04673
1406.63110	0.04655
1405.34533	0.04630
1404.05956	0.04588
1402.77379	0.04529
1401.48802	0.04461
1400.20225	0.04389
1398.91648	0.04314
1397.63071	0.04233
1396.34495	0.04150
1395.05918	0.04066
1393.77341	0.03980
1392.48764	0.03892
1391.20187	0.03809
1389.91610	0.03732
1388.63033	0.03661
1387.34456	0.03589
1386.05880	0.03511
1384.77303	0.03430
1383.48726	0.03349
1382.20149	0.03270
1380.91572	0.03197
1379.62995	0.03131
1378.34418	0.03069
1377.05841	0.03006
1375.77264	0.02938
1374.48688	0.02863
1373.20111	0.02783
1371.91534	0.02705
1370.62957	0.02634
1369.34380	0.02570
1368.05803	0.02510
1366.77226	0.02453
1365.48649	0.02400
1364.20073	0.02350
1362.91496	0.02301
1361.62919	0.02250
1360.34342	0.02198
1359.05765	0.02151
1357.77188	0.02113
1356.48611	0.02083
1355.20034	0.02058
1353.91457	0.02033
1352.62881	0.02007
1351.34304	0.01981
1350.05727	0.01959
1348.77150	0.01943
1347.48573	0.01930
1346.19996	0.01920
1344.91419	0.01911
1343.62842	0.01902
1342.34266	0.01890
1341.05689	0.01873
1339.77112	0.01849
1338.48535	0.01821
1337.19958	0.01792
1335.91381	0.01766
1334.62804	0.01743
1333.34227	0.01724
1332.05650	0.01706
1330.77074	0.01690
1329.48497	0.01675
1328.19920	0.01658
1326.91343	0.01639
1325.62766	0.01616
1324.34189	0.01595
1323.05612	0.01576
1321.77035	0.01561
1320.48459	0.01548
1319.19882	0.01536
1317.91305	0.01523
1316.62728	0.01512
1315.34151	0.01502
1314.05574	0.01494
1312.76997	0.01484
1311.48420	0.01470
1310.19843	0.01453
1308.91267	0.01437
1307.62690	0.01426
1306.34113	0.01419
1305.05536	0.01415
1303.76959	0.01409
1302.48382	0.01400
1301.19805	0.01389
1299.91228	0.01374
1298.62652	0.01356
1297.34075	0.01334
1296.05498	0.01306
1294.76921	0.01272
1293.48344	0.01236
1292.19767	0.01202
1290.91190	0.01172
1289.62613	0.01145
1288.34036	0.01117
1287.05460	0.01085
1285.76883	0.01047
1284.48306	0.01004
1283.19729	0.00960
1281.91152	0.00919
1280.62575	0.00890
1279.33998	0.00876
1278.05421	0.00879
1276.76845	0.00897
1275.48268	0.00924
1274.19691	0.00955
1272.91114	0.00983
1271.62537	0.01004
1270.33960	0.01016
1269.05383	0.01020
1267.76806	0.01019
1266.48229	0.01016
1265.19653	0.01012
1263.91076	0.01006
1262.62499	0.01002
1261.33922	0.01003
1260.05345	0.01009
1258.76768	0.01020
1257.48191	0.01034
1256.19614	0.01049
1254.91037	0.01060
1253.62461	0.01066
1252.33884	0.01070
1251.05307	0.01073
1249.76730	0.01076
1248.48153	0.01081
1247.19576	0.01089
1245.90999	0.01100
1244.62422	0.01113
1243.33846	0.01123
1242.05269	0.01127
1240.76692	0.01125
1239.48115	0.01120
1238.19538	0.01119
1236.90961	0.01122
1235.62384	0.01126
1234.33807	0.01127
1233.05230	0.01124
1231.76654	0.01116
1230.48077	0.01105
1229.19500	0.01090
1227.90923	0.01073
1226.62346	0.01054
1225.33769	0.01035
1224.05192	0.01018
1222.76615	0.01004
1221.48039	0.00994
1220.19462	0.00987
1218.90885	0.00978
1217.62308	0.00967
1216.33731	0.00955
1215.05154	0.00943
1213.76577	0.00934
1212.48000	0.00929
1211.19423	0.00926
1209.90847	0.00926
1208.62270	0.00929
1207.33693	0.00933
1206.05116	0.00936
1204.76539	0.00936
1203.47962	0.00935
1202.19385	0.00935
1200.90808	0.00930
1199.62232	0.00920
1198.33655	0.00913
1197.05078	0.00906
1195.76501	0.00900
1194.47924	0.00894
1193.19347	0.00885
1191.90770	0.00872
1190.62193	0.00854
1189.33616	0.00832
1188.05040	0.00810
1186.76463	0.00791
1185.47886	0.00777
1184.19309	0.00768
1182.90732	0.00762
1181.62155	0.00760
1180.33578	0.00759
1179.05001	0.00756
1177.76425	0.00750
1176.47848	0.00740
1175.19271	0.00727
1173.90694	0.00713
1172.62117	0.00702
1171.33540	0.00692
1170.04963	0.00680
1168.76386	0.00659
1167.47809	0.00630
1166.19233	0.00595
1164.90656	0.00564
1163.62079	0.00541
1162.33502	0.00531
1161.04925	0.00532
1159.76348	0.00541
1158.47771	0.00556
1157.19194	0.00576
1155.90618	0.00600
1154.62041	0.00626
1153.33464	0.00653
1152.04887	0.00676
1150.76310	0.00695
1149.47733	0.00709
1148.19156	0.00724
1146.90579	0.00742
1145.62002	0.00767
1144.33426	0.00799
1143.04849	0.00833
1141.76272	0.00868
1140.47695	0.00900
1139.19118	0.00930
1137.90541	0.00959
1136.61964	0.00988
1135.33387	0.01019
1134.04811	0.01060
1132.76234	0.01111
1131.47657	0.01170
1130.19080	0.01236
1128.90503	0.01307
1127.61926	0.01389
1126.33349	0.01486
1125.04772	0.01601
1123.76195	0.01733
1122.47619	0.01880
1121.19042	0.02041
1119.90465	0.02216
1118.61888	0.02398
1117.33311	0.02581
1116.04734	0.02761
1114.76157	0.02937
1113.47580	0.03113
1112.19004	0.03289
1110.90427	0.03462
1109.61850	0.03627
1108.33273	0.03789
1107.04696	0.03955
1105.76119	0.04124
1104.47542	0.04288
1103.18965	0.04441
1101.90388	0.04581
1100.61812	0.04713
1099.33235	0.04843
1098.04658	0.04973
1096.76081	0.05104
1095.47504	0.05230
1094.18927	0.05343
1092.90350	0.05443
1091.61773	0.05532
1090.33197	0.05614
1089.04620	0.05691
1087.76043	0.05768
1086.47466	0.05845
1085.18889	0.05924
1083.90312	0.06002
1082.61735	0.06083
1081.33158	0.06169
1080.04581	0.06264
1078.76005	0.06373
1077.47428	0.06496
1076.18851	0.06633
1074.90274	0.06780
1073.61697	0.06932
1072.33120	0.07083
1071.04543	0.07234
1069.75966	0.07388
1068.47390	0.07550
1067.18813	0.07720
1065.90236	0.07891
1064.61659	0.08060
1063.33082	0.08226
1062.04505	0.08395
1060.75928	0.08571
1059.47351	0.08754
1058.18774	0.08940
1056.90198	0.09123
1055.61621	0.09301
1054.33044	0.09470
1053.04467	0.09633
1051.75890	0.09791
1050.47313	0.09946
1049.18736	0.10104
1047.90159	0.10268
1046.61583	0.10443
1045.33006	0.10626
1044.04429	0.10809
1042.75852	0.10985
1041.47275	0.11155
1040.18698	0.11321
1038.90121	0.11485
1037.61544	0.11648
1036.32967	0.11805
1035.04391	0.11959
1033.75814	0.12110
1032.47237	0.12257
1031.18660	0.12401
1029.90083	0.12538
1028.61506	0.12669
1027.32929	0.12792
1026.04352	0.12904
1024.75775	0.13002
1023.47199	0.13085
1022.18622	0.13151
1020.90045	0.13194
1019.61468	0.13211
1018.32891	0.13199
1017.04314	0.13159
1015.75737	0.13096
1014.47160	0.13014
1013.18584	0.12913
1011.90007	0.12790
1010.61430	0.12645
1009.32853	0.12488
1008.04276	0.12325
1006.75699	0.12153
1005.47122	0.11962
1004.18545	0.11749
1002.89968	0.11524
1001.61392	0.11298
1000.32815	0.11072
999.04238	0.10839
997.75661	0.10592
996.47084	0.10331
995.18507	0.10062
993.89930	0.09793
992.61353	0.09526
991.32777	0.09263
990.04200	0.09005
988.75623	0.08757
987.47046	0.08518
986.18469	0.08285
984.89892	0.08055
983.61315	0.07829
982.32738	0.07609
981.04161	0.07398
979.75585	0.07194
978.47008	0.06999
977.18431	0.06818
975.89854	0.06653
974.61277	0.06503
973.32700	0.06364
972.04123	0.06240
970.75546	0.06138
969.46970	0.06067
968.18393	0.06029
966.89816	0.06025
965.61239	0.06052
964.32662	0.06097
963.04085	0.06143
961.75508	0.06175
960.46931	0.06186
959.18354	0.06169
957.89778	0.06119
956.61201	0.06036
955.32624	0.05927
954.04047	0.05808
952.75470	0.05691
951.46893	0.05581
950.18316	0.05474
948.89739	0.05364
947.61163	0.05251
946.32586	0.05135
945.04009	0.05020
943.75432	0.04910
942.46855	0.04807
941.18278	0.04712
939.89701	0.04625
938.61124	0.04543
937.32547	0.04461
936.03971	0.04374
934.75394	0.04282
933.46817	0.04190
932.18240	0.04105
930.89663	0.04032
929.61086	0.03971
928.32509	0.03916
927.03932	0.03860
925.75356	0.03802
924.46779	0.03746
923.18202	0.03697
921.89625	0.03652
920.61048	0.03606
919.32471	0.03558
918.03894	0.03511
916.75317	0.03471
915.46740	0.03439
914.18164	0.03410
912.89587	0.03378
911.61010	0.03338
910.32433	0.03298
909.03856	0.03270
907.75279	0.03254
906.46702	0.03235
905.18125	0.03198
903.89549	0.03143
902.60972	0.03084
901.32395	0.03036
900.03818	0.03003
898.75241	0.02983
897.46664	0.02969
896.18087	0.02952
894.89510	0.02929
893.60933	0.02904
892.32357	0.02883
891.03780	0.02869
889.75203	0.02857
888.46626	0.02847
887.18049	0.02841
885.89472	0.02851
884.60895	0.02890
883.32318	0.02968
882.03742	0.03076
880.75165	0.03188
879.46588	0.03279
878.18011	0.03340
876.89434	0.03387
875.60857	0.03441
874.32280	0.03503
873.03703	0.03557
871.75126	0.03581
870.46550	0.03571
869.17973	0.03535
867.89396	0.03479
866.60819	0.03402
865.32242	0.03306
864.03665	0.03199
862.75088	0.03095
861.46511	0.03007
860.17935	0.02937
858.89358	0.02874
857.60781	0.02809
856.32204	0.02743
855.03627	0.02689
853.75050	0.02652
852.46473	0.02625
851.17896	0.02597
849.89319	0.02567
848.60743	0.02540
847.32166	0.02516
846.03589	0.02493
844.75012	0.02467
843.46435	0.02440
842.17858	0.02417
840.89281	0.02402
839.60704	0.02396
838.32128	0.02394
837.03551	0.02390
835.74974	0.02377
834.46397	0.02360
833.17820	0.02345
831.89243	0.02333
830.60666	0.02324
829.32089	0.02314
828.03512	0.02306
826.74936	0.02303
825.46359	0.02303
824.17782	0.02304
822.89205	0.02301
821.60628	0.02294
820.32051	0.02286
819.03474	0.02277
817.74897	0.02268
816.46321	0.02258
815.17744	0.02250
813.89167	0.02245
812.60590	0.02242
811.32013	0.02237
810.03436	0.02231
808.74859	0.02228
807.46282	0.02229
806.17705	0.02233
804.89129	0.02236
803.60552	0.02238
802.31975	0.02239
801.03398	0.02241
799.74821	0.02241
798.46244	0.02240
797.17667	0.02235
795.89090	0.02225
794.60513	0.02212
793.31937	0.02199
792.03360	0.02188
790.74783	0.02178
789.46206	0.02169
788.17629	0.02160
786.89052	0.02150
785.60475	0.02140
784.31898	0.02135
783.03322	0.02136
781.74745	0.02141
780.46168	0.02145
779.17591	0.02147
777.89014	0.02150
776.60437	0.02155
775.31860	0.02161
774.03283	0.02164
772.74706	0.02164
771.46130	0.02161
770.17553	0.02158
768.88976	0.02154
767.60399	0.02148
766.31822	0.02140
765.03245	0.02133
763.74668	0.02128
762.46091	0.02128
761.17515	0.02129
759.88938	0.02127
758.60361	0.02121
757.31784	0.02116
756.03207	0.02116
754.74630	0.02121
753.46053	0.02125
752.17476	0.02123
750.88899	0.02110
749.60323	0.02092
748.31746	0.02078
747.03169	0.02075
745.74592	0.02079
744.46015	0.02083
743.17438	0.02082
741.88861	0.02079
740.60284	0.02078
739.31708	0.02078
738.03131	0.02079
736.74554	0.02082
735.45977	0.02086
734.17400	0.02089
732.88823	0.02087
731.60246	0.02080
730.31669	0.02071
729.03092	0.02065
727.74516	0.02064
726.45939	0.02064
725.17362	0.02061
723.88785	0.02053
722.60208	0.02051
721.31631	0.02054
720.03054	0.02054
718.74477	0.02047
717.45901	0.02034
716.17324	0.02019
714.88747	0.02007
713.60170	0.01998
712.31593	0.01993
711.03016	0.01992
709.74439	0.01997
708.45862	0.02010
707.17285	0.02028
705.88709	0.02045
704.60132	0.02055
703.31555	0.02056
702.02978	0.02050
700.74401	0.02042
699.45824	0.02031
698.17247	0.02022
696.88670	0.02017
695.60094	0.02015
694.31517	0.02017
693.02940	0.02018
691.74363	0.02018
690.45786	0.02014
689.17209	0.02009
687.88632	0.02001
686.60055	0.01993
685.31478	0.01985
684.02902	0.01975
682.74325	0.01966
681.45748	0.01960
680.17171	0.01961
678.88594	0.01968
677.60017	0.01975
676.31440	0.01980
675.02863	0.01983
673.74287	0.01985
672.45710	0.01989
671.17133	0.01997
669.88556	0.02007
668.59979	0.02019
667.31402	0.02033
666.02825	0.02037
664.74248	0.02031
663.45671	0.02020
662.17095	0.02008
660.88518	0.02000
659.59941	0.01997
658.31364	0.01994
657.02787	0.01989
655.74210	0.01984
654.45633	0.01984
653.17056	0.01989
651.88480	0.01996
650.59903	0.01998
649.31326	0.01997
648.02749	0.02001
646.74172	0.02011
645.45595	0.02023
644.17018	0.02031
642.88441	0.02032
641.59864	0.02033
640.31288	0.02036
639.02711	0.02046
637.74134	0.02062
636.45557	0.02080
635.16980	0.02097
633.88403	0.02112
632.59826	0.02123
631.31249	0.02132
630.02673	0.02160
628.74096	0.02196
627.45519	0.02161
626.16942	0.02210
624.88365	0.02324
623.59788	0.02445
622.31211	0.02555
621.02634	0.02660
619.74057	0.02772
618.45481	0.02894
617.16904	0.03023
615.88327	0.03167
614.59750	0.03347
613.31173	0.03582
612.02596	0.03879
610.74019	0.04220
609.45442	0.04550
608.16866	0.04813
606.88289	0.05016
605.59712	0.05221
604.31135	0.05465
603.02558	0.05704
601.73981	0.05841
600.45404	0.05828
599.16827	0.05693
597.88250	0.05495
596.59674	0.05284
595.31097	0.05081
594.02520	0.04900
592.73943	0.04747
591.45366	0.04625
590.16789	0.04532
588.88212	0.04465
587.59635	0.04431
586.31059	0.04435
585.02482	0.04482
583.73905	0.04566
582.45328	0.04683
581.16751	0.04826
579.88174	0.04990
578.59597	0.05167
577.31020	0.05350
576.02443	0.05535
574.73867	0.05717
573.45290	0.05893
572.16713	0.06066
570.88136	0.06237
569.59559	0.06416
568.30982	0.06611
567.02405	0.06830
565.73828	0.07067
564.45251	0.07294
563.16675	0.07480
561.88098	0.07596
560.59521	0.07626
559.30944	0.07561
558.02367	0.07407
556.73790	0.07179
555.45213	0.06899
554.16636	0.06590
552.88060	0.06274
551.59483	0.05970
550.30906	0.05688
549.02329	0.05427
547.73752	0.05185
546.45175	0.04961
545.16598	0.04761
543.88021	0.04587
542.59444	0.04432
541.30868	0.04287
540.02291	0.04150
538.73714	0.04025
537.45137	0.03913
536.16560	0.03815
534.87983	0.03728
533.59406	0.03652
532.30829	0.03586
531.02253	0.03524
529.73676	0.03463
528.45099	0.03403
527.16522	0.03341
525.87945	0.03270
524.59368	0.03186
523.30791	0.03099
522.02214	0.03024
520.73637	0.02970
519.45061	0.02932
518.16484	0.02897
516.87907	0.02856
515.59330	0.02809
514.30753	0.02758
513.02176	0.02704
511.73599	0.02647
510.45022	0.02595
509.16446	0.02558
507.87869	0.02537
506.59292	0.02522
505.30715	0.02503
504.02138	0.02474
502.73561	0.02439
501.44984	0.02398
500.16407	0.02351
498.87830	0.02303
497.59254	0.02256
496.30677	0.02212
495.02100	0.02172
493.73523	0.02140
492.44946	0.02122
491.16369	0.02114
489.87792	0.02110
488.59215	0.02099
487.30639	0.02080
486.02062	0.02055
484.73485	0.02029
483.44908	0.02011
482.16331	0.02007
480.87754	0.02015
479.59177	0.02028
478.30600	0.02039
477.02023	0.02042
475.73447	0.02043
474.44870	0.02050
473.16293	0.02065
471.87716	0.02079
470.59139	0.02081
469.30562	0.02065
468.01985	0.02039
466.73408	0.02014
465.44832	0.01996
464.16255	0.01980
462.87678	0.01954
461.59101	0.01919
460.30524	0.01883
459.01947	0.01855
457.73370	0.01833
456.44793	0.01812
455.16216	0.01785
453.87640	0.01756
452.59063	0.01729
451.30486	0.01705
450.01909	0.01683
448.73332	0.01659
447.44755	0.01639
446.16178	0.01623
444.87601	0.01613
443.59025	0.01605
442.30448	0.01594
441.01871	0.01581
439.73294	0.01568
438.44717	0.01555
437.16140	0.01542
435.87563	0.01528
434.58986	0.01511
433.30409	0.01498
432.01833	0.01492
430.73256	0.01493
429.44679	0.01494
428.16102	0.01487
426.87525	0.01472
425.58948	0.01454
424.30371	0.01437
423.01794	0.01425
421.73218	0.01417
420.44641	0.01412
419.16064	0.01406
417.87487	0.01394
416.58910	0.01374
415.30333	0.01348
414.01756	0.01322
412.73179	0.01303
411.44602	0.01294
410.16026	0.01296
408.87449	0.01300
407.58872	0.01304
406.30295	0.01303
405.01718	0.01300
403.73141	0.01295
402.44564	0.01289
401.15987	0.01288
399.87411	0.01292
