3997.45528	0.07089
3996.16951	0.07054
3994.88374	0.07043
3993.59798	0.07061
3992.31221	0.07089
3991.02644	0.07102
3989.74067	0.07084
3988.45490	0.07047
3987.16913	0.07017
3985.88336	0.07000
3984.59759	0.06978
3983.31183	0.06938
3982.02606	0.06907
3980.74029	0.06922
3979.45452	0.06990
3978.16875	0.07072
3976.88298	0.07129
3975.59721	0.07157
3974.31144	0.07166
3973.02567	0.07153
3971.73991	0.07107
3970.45414	0.07038
3969.16837	0.06991
3967.88260	0.07002
3966.59683	0.07057
3965.31106	0.07096
3964.02529	0.07080
3962.73952	0.07021
3961.45376	0.06969
3960.16799	0.06960
3958.88222	0.07000
3957.59645	0.07061
3956.31068	0.07109
3955.02491	0.07118
3953.73914	0.07089
3952.45337	0.07047
3951.16760	0.07020
3949.88184	0.07008
3948.59607	0.06990
3947.31030	0.06945
3946.02453	0.06875
3944.73876	0.06808
3943.45299	0.06777
3942.16722	0.06797
3940.88145	0.06857
3939.59569	0.06918
3938.30992	0.06946
3937.02415	0.06943
3935.73838	0.06944
3934.45261	0.06968
3933.16684	0.06992
3931.88107	0.06985
3930.59530	0.06954
3929.30953	0.06938
3928.02377	0.06962
3926.73800	0.07011
3925.45223	0.07052
3924.16646	0.07066
3922.88069	0.07053
3921.59492	0.07016
3920.30915	0.06957
3919.02338	0.06879
3917.73762	0.06800
3916.45185	0.06744
3915.16608	0.06728
3913.88031	0.06743
3912.59454	0.06754
3911.30877	0.06739
3910.02300	0.06707
3908.73723	0.06685
3907.45146	0.06679
3906.16570	0.06681
3904.87993	0.06685
3903.59416	0.06701
3902.30839	0.06734
3901.02262	0.06773
3899.73685	0.06794
3898.45108	0.06791
3897.16531	0.06780
3895.87955	0.06789
3894.59378	0.06830
3893.30801	0.06891
3892.02224	0.06939
3890.73647	0.06948
3889.45070	0.06921
3888.16493	0.06884
3886.87916	0.06854
3885.59339	0.06837
3884.30763	0.06832
3883.02186	0.06838
3881.73609	0.06834
3880.45032	0.06796
3879.16455	0.06716
3877.87878	0.06624
3876.59301	0.06560
3875.30724	0.06545
3874.02148	0.06579
3872.73571	0.06638
3871.44994	0.06688
3870.16417	0.06704
3868.87840	0.06689
3867.59263	0.06673
3866.30686	0.06676
3865.02109	0.06696
3863.73532	0.06709
3862.44956	0.06690
3861.16379	0.06624
3859.87802	0.06523
3858.59225	0.06434
3857.30648	0.06413
3856.02071	0.06475
3854.73494	0.06576
3853.44917	0.06642
3852.16341	0.06637
3850.87764	0.06580
3849.59187	0.06509
3848.30610	0.06447
3847.02033	0.06401
3845.73456	0.06381
3844.44879	0.06391
3843.16302	0.06435
3841.87725	0.06505
3840.59149	0.06589
3839.30572	0.06662
3838.01995	0.06701
3836.73418	0.06696
3835.44841	0.06675
3834.16264	0.06671
3832.87687	0.06695
3831.59110	0.06718
3830.30534	0.06694
3829.01957	0.06603
3827.73380	0.06469
3826.44803	0.06353
3825.16226	0.06323
3823.87649	0.06402
3822.59072	0.06544
3821.30495	0.06664
3820.01918	0.06701
3818.73342	0.06662
3817.44765	0.06601
3816.16188	0.06569
3814.87611	0.06575
3813.59034	0.06590
3812.30457	0.06583
3811.01880	0.06543
3809.73303	0.06489
3808.44726	0.06447
3807.16150	0.06432
3805.87573	0.06437
3804.58996	0.06433
3803.30419	0.06401
3802.01842	0.06352
3800.73265	0.06327
3799.44688	0.06354
3798.16111	0.06407
3796.87535	0.06434
3795.58958	0.06414
3794.30381	0.06387
3793.01804	0.06410
3791.73227	0.06487
3790.44650	0.06558
3789.16073	0.06559
3787.87496	0.06477
3786.58919	0.06359
3785.30343	0.06265
3784.01766	0.06224
3782.73189	0.06224
3781.44612	0.06233
3780.16035	0.06235
3778.87458	0.06237
3777.58881	0.06249
3776.30304	0.06269
3775.01728	0.06287
3773.73151	0.06295
3772.44574	0.06298
3771.15997	0.06297
3769.87420	0.06293
3768.58843	0.06278
3767.30266	0.06238
3766.01689	0.06174
3764.73112	0.06123
3763.44536	0.06130
3762.15959	0.06202
3760.87382	0.06288
3759.58805	0.06334
3758.30228	0.06323
3757.01651	0.06285
3755.73074	0.06260
3754.44497	0.06272
3753.15921	0.06318
3751.87344	0.06363
3750.58767	0.06366
3749.30190	0.06321
3748.01613	0.06268
3746.73036	0.06251
3745.44459	0.06262
3744.15882	0.06233
3742.87305	0.06130
3741.58729	0.06009
3740.30152	0.05952
3739.01575	0.05980
3737.72998	0.06043
3736.44421	0.06078
3735.15844	0.06078
3733.87267	0.06067
3732.58690	0.06074
3731.30114	0.06092
3730.01537	0.06104
3728.72960	0.06116
3727.44383	0.06121
3726.15806	0.06098
3724.87229	0.06033
3723.58652	0.05943
3722.30075	0.05871
3721.01498	0.05837
3719.72922	0.05816
3718.44345	0.05810
3717.15768	0.05841
3715.87191	0.05922
3714.58614	0.06035
3713.30037	0.06139
3712.01460	0.06217
3710.72883	0.06233
3709.44307	0.06152
3708.15730	0.06014
3706.87153	0.05874
3705.58576	0.05792
3704.29999	0.05793
3703.01422	0.05846
3701.72845	0.05899
3700.44268	0.05925
3699.15691	0.05935
3697.87115	0.05956
3696.58538	0.05984
3695.29961	0.05989
3694.01384	0.05954
3692.72807	0.05924
3691.44230	0.05950
3690.15653	0.06032
3688.87076	0.06117
3687.58500	0.06136
3686.29923	0.06077
3685.01346	0.06009
3683.72769	0.05999
3682.44192	0.06053
3681.15615	0.06129
3679.87038	0.06179
3678.58461	0.06188
3677.29884	0.06171
3676.01308	0.06141
3674.72731	0.06112
3673.44154	0.06108
3672.15577	0.06143
3670.87000	0.06202
3669.58423	0.06250
3668.29846	0.06272
3667.01269	0.06281
3665.72693	0.06286
3664.44116	0.06290
3663.15539	0.06279
3661.86962	0.06239
3660.58385	0.06161
3659.29808	0.06070
3658.01231	0.06022
3656.72654	0.06058
3655.44077	0.06162
3654.15501	0.06275
3652.86924	0.06338
3651.58347	0.06331
3650.29770	0.06268
3649.01193	0.06187
3647.72616	0.06124
3646.44039	0.06095
3645.15462	0.06097
3643.86886	0.06127
3642.58309	0.06187
3641.29732	0.06269
3640.01155	0.06346
3638.72578	0.06388
3637.44001	0.06390
3636.15424	0.06382
3634.86847	0.06394
3633.58270	0.06434
3632.29694	0.06478
3631.01117	0.06496
3629.72540	0.06490
3628.43963	0.06470
3627.15386	0.06451
3625.86809	0.06443
3624.58232	0.06462
3623.29655	0.06497
3622.01079	0.06535
3620.72502	0.06559
3619.43925	0.06572
3618.15348	0.06579
3616.86771	0.06581
3615.58194	0.06593
3614.29617	0.06634
3613.01040	0.06723
3611.72463	0.06856
3610.43887	0.07012
3609.15310	0.07144
3607.86733	0.07213
3606.58156	0.07210
3605.29579	0.07167
3604.01002	0.07107
3602.72425	0.07038
3601.43848	0.06988
3600.15272	0.06993
3598.86695	0.07055
3597.58118	0.07138
3596.29541	0.07218
3595.00964	0.07271
3593.72387	0.07301
3592.43810	0.07334
3591.15233	0.07360
3589.86656	0.07366
3588.58080	0.07368
3587.29503	0.07368
3586.00926	0.07377
3584.72349	0.07399
3583.43772	0.07425
3582.15195	0.07445
3580.86618	0.07463
3579.58041	0.07477
3578.29464	0.07487
3577.00888	0.07499
3575.72311	0.07515
3574.43734	0.07530
3573.15157	0.07533
3571.86580	0.07531
3570.58003	0.07558
3569.29426	0.07635
3568.00849	0.07739
3566.72273	0.07809
3565.43696	0.07813
3564.15119	0.07772
3562.86542	0.07752
3561.57965	0.07792
3560.29388	0.07876
3559.00811	0.07957
3557.72234	0.08015
3556.43657	0.08052
3555.15081	0.08077
3553.86504	0.08085
3552.57927	0.08085
3551.29350	0.08102
3550.00773	0.08157
3548.72196	0.08234
3547.43619	0.08288
3546.15042	0.08287
3544.86466	0.08242
3543.57889	0.08198
3542.29312	0.08193
3541.00735	0.08228
3539.72158	0.08273
3538.43581	0.08299
3537.15004	0.08303
3535.86427	0.08307
3534.57850	0.08330
3533.29274	0.08368
3532.00697	0.08408
3530.72120	0.08452
3529.43543	0.08507
3528.14966	0.08566
3526.86389	0.08603
3525.57812	0.08602
3524.29235	0.08577
3523.00659	0.08554
3521.72082	0.08545
3520.43505	0.08539
3519.14928	0.08528
3517.86351	0.08522
3516.57774	0.08536
3515.29197	0.08585
3514.00620	0.08668
3512.72043	0.08773
3511.43467	0.08868
3510.14890	0.08921
3508.86313	0.08922
3507.57736	0.08889
3506.29159	0.08856
3505.00582	0.08842
3503.72005	0.08847
3502.43428	0.08863
3501.14852	0.08892
3499.86275	0.08937
3498.57698	0.08994
3497.29121	0.09052
3496.00544	0.09095
3494.71967	0.09107
3493.43390	0.09089
3492.14813	0.09064
3490.86236	0.09053
3489.57660	0.09055
3488.29083	0.09050
3487.00506	0.09029
3485.71929	0.09010
3484.43352	0.09021
3483.14775	0.09071
3481.86198	0.09144
3480.57621	0.09218
3479.29045	0.09272
3478.00468	0.09307
3476.71891	0.09336
3475.43314	0.09365
3474.14737	0.09387
3472.86160	0.09386
3471.57583	0.09363
3470.29006	0.09329
3469.00429	0.09307
3467.71853	0.09318
3466.43276	0.09368
3465.14699	0.09431
3463.86122	0.09462
3462.57545	0.09445
3461.28968	0.09413
3460.00391	0.09411
3458.71814	0.09445
3457.43238	0.09478
3456.14661	0.09482
3454.86084	0.09467
3453.57507	0.09470
3452.28930	0.09513
3451.00353	0.09583
3449.71776	0.09646
3448.43199	0.09684
3447.14622	0.09708
3445.86046	0.09735
3444.57469	0.09765
3443.28892	0.09787
3442.00315	0.09799
3440.71738	0.09811
3439.43161	0.09824
3438.14584	0.09827
3436.86007	0.09808
3435.57431	0.09775
3434.28854	0.09747
3433.00277	0.09738
3431.71700	0.09751
3430.43123	0.09786
3429.14546	0.09838
3427.85969	0.09901
3426.57392	0.09966
3425.28815	0.10021
3424.00239	0.10051
3422.71662	0.10044
3421.43085	0.10004
3420.14508	0.09953
3418.85931	0.09924
3417.57354	0.09945
3416.28777	0.10016
3415.00200	0.10106
3413.71624	0.10178
3412.43047	0.10203
3411.14470	0.10184
3409.85893	0.10145
3408.57316	0.10108
3407.28739	0.10090
3406.00162	0.10094
3404.71585	0.10118
3403.43008	0.10147
3402.14432	0.10166
3400.85855	0.10170
3399.57278	0.10170
3398.28701	0.10177
3397.00124	0.10185
3395.71547	0.10180
3394.42970	0.10168
3393.14393	0.10169
3391.85817	0.10196
3390.57240	0.10243
3389.28663	0.10294
3388.00086	0.10331
3386.71509	0.10339
3385.42932	0.10314
3384.14355	0.10272
3382.85778	0.10240
3381.57201	0.10239
3380.28625	0.10268
3379.00048	0.10314
3377.71471	0.10363
3376.42894	0.10411
3375.14317	0.10451
3373.85740	0.10464
3372.57163	0.10434
3371.28586	0.10374
3370.00010	0.10318
3368.71433	0.10291
3367.42856	0.10284
3366.14279	0.10277
3364.85702	0.10271
3363.57125	0.10283
3362.28548	0.10316
3360.99971	0.10357
3359.71394	0.10389
3358.42818	0.10408
3357.14241	0.10417
3355.85664	0.10416
3354.57087	0.10412
3353.28510	0.10416
3351.99933	0.10433
3350.71356	0.10443
3349.42779	0.10422
3348.14202	0.10371
3346.85626	0.10314
3345.57049	0.10274
3344.28472	0.10261
3342.99895	0.10277
3341.71318	0.10322
3340.42741	0.10385
3339.14164	0.10446
3337.85587	0.10480
3336.57011	0.10476
3335.28434	0.10435
3333.99857	0.10382
3332.71280	0.10349
3331.42703	0.10357
3330.14126	0.10403
3328.85549	0.10452
3327.56972	0.10468
3326.28395	0.10443
3324.99819	0.10405
3323.71242	0.10386
3322.42665	0.10393
3321.14088	0.10409
3319.85511	0.10413
3318.56934	0.10393
3317.28357	0.10350
3315.99780	0.10293
3314.71204	0.10242
3313.42627	0.10210
3312.14050	0.10204
3310.85473	0.10212
3309.56896	0.10218
3308.28319	0.10216
3306.99742	0.10223
3305.71165	0.10257
3304.42588	0.10301
3303.14012	0.10310
3301.85435	0.10262
3300.56858	0.10190
3299.28281	0.10156
3297.99704	0.10181
3296.71127	0.10235
3295.42550	0.10268
3294.13973	0.10272
3292.85397	0.10271
3291.56820	0.10287
3290.28243	0.10312
3288.99666	0.10327
3287.71089	0.10333
3286.42512	0.10334
3285.13935	0.10325
3283.85358	0.10303
3282.56781	0.10274
3281.28205	0.10248
3279.99628	0.10219
3278.71051	0.10184
3277.42474	0.10161
3276.13897	0.10172
3274.85320	0.10215
3273.56743	0.10265
3272.28166	0.10292
3270.99590	0.10286
3269.71013	0.10265
3268.42436	0.10265
3267.13859	0.10306
3265.85282	0.10368
3264.56705	0.10405
3263.28128	0.10390
3261.99551	0.10333
3260.70974	0.10260
3259.42398	0.10191
3258.13821	0.10137
3256.85244	0.10107
3255.56667	0.10110
3254.28090	0.10139
3252.99513	0.10179
3251.70936	0.10210
3250.42359	0.10219
3249.13783	0.10198
3247.85206	0.10157
3246.56629	0.10117
3245.28052	0.10105
3243.99475	0.10128
3242.70898	0.10169
3241.42321	0.10206
3240.13744	0.10223
3238.85167	0.10223
3237.56591	0.10218
3236.28014	0.10219
3234.99437	0.10220
3233.70860	0.10210
3232.42283	0.10181
3231.13706	0.10133
3229.85129	0.10076
3228.56552	0.10028
3227.27976	0.10002
3225.99399	0.09995
3224.70822	0.10001
3223.42245	0.10020
3222.13668	0.10053
3220.85091	0.10078
3219.56514	0.10065
3218.27937	0.10008
3216.99360	0.09949
3215.70784	0.09937
3214.42207	0.09985
3213.13630	0.10060
3211.85053	0.10120
3210.56476	0.10143
3209.27899	0.10135
3207.99322	0.10110
3206.70745	0.10077
3205.42169	0.10043
3204.13592	0.10019
3202.85015	0.10012
3201.56438	0.10019
3200.27861	0.10029
3198.99284	0.10027
3197.70707	0.10006
3196.42130	0.09974
3195.13553	0.09953
3193.84977	0.09958
3192.56400	0.09984
3191.27823	0.10013
3189.99246	0.10025
3188.70669	0.10019
3187.42092	0.10010
3186.13515	0.10013
3184.84938	0.10019
3183.56362	0.10002
3182.27785	0.09950
3180.99208	0.09884
3179.70631	0.09837
3178.42054	0.09824
3177.13477	0.09842
3175.84900	0.09872
3174.56323	0.09899
3173.27746	0.09912
3171.99170	0.09908
3170.70593	0.09892
3169.42016	0.09869
3168.13439	0.09845
3166.84862	0.09827
3165.56285	0.09815
3164.27708	0.09802
3162.99131	0.09784
3161.70555	0.09765
3160.41978	0.09756
3159.13401	0.09766
3157.84824	0.09788
3156.56247	0.09802
3155.27670	0.09790
3153.99093	0.09743
3152.70516	0.09675
3151.41939	0.09608
3150.13363	0.09557
3148.84786	0.09531
3147.56209	0.09524
3146.27632	0.09528
3144.99055	0.09531
3143.70478	0.09528
3142.41901	0.09513
3141.13324	0.09491
3139.84748	0.09467
3138.56171	0.09448
3137.27594	0.09440
3135.99017	0.09449
3134.70440	0.09475
3133.41863	0.09508
3132.13286	0.09528
3130.84709	0.09519
3129.56132	0.09485
3128.27556	0.09446
3126.98979	0.09426
3125.70402	0.09435
3124.41825	0.09458
3123.13248	0.09470
3121.84671	0.09455
3120.56094	0.09421
3119.27517	0.09388
3117.98940	0.09367
3116.70364	0.09358
3115.41787	0.09355
3114.13210	0.09355
3112.84633	0.09349
3111.56056	0.09333
3110.27479	0.09307
3108.98902	0.09272
3107.70325	0.09233
3106.41749	0.09198
3105.13172	0.09177
3103.84595	0.09169
3102.56018	0.09165
3101.27441	0.09160
3099.98864	0.09161
3098.70287	0.09176
3097.41710	0.09197
3096.13133	0.09213
3094.84557	0.09216
3093.55980	0.09202
3092.27403	0.09171
3090.98826	0.09127
3089.70249	0.09078
3088.41672	0.09041
3087.13095	0.09028
3085.84518	0.09038
3084.55942	0.09057
3083.27365	0.09067
3081.98788	0.09061
3080.70211	0.09039
3079.41634	0.09009
3078.13057	0.08979
3076.84480	0.08965
3075.55903	0.08975
3074.27326	0.09000
3072.98750	0.09016
3071.70173	0.09009
3070.41596	0.08980
3069.13019	0.08946
3067.84442	0.08923
3066.55865	0.08920
3065.27288	0.08928
3063.98711	0.08929
3062.70135	0.08914
3061.41558	0.08886
3060.12981	0.08857
3058.84404	0.08828
3057.55827	0.08796
3056.27250	0.08765
3054.98673	0.08750
3053.70096	0.08754
3052.41519	0.08762
3051.12943	0.08752
3049.84366	0.08723
3048.55789	0.08698
3047.27212	0.08697
3045.98635	0.08714
3044.70058	0.08722
3043.41481	0.08702
3042.12904	0.08661
3040.84328	0.08624
3039.55751	0.08608
3038.27174	0.08616
3036.98597	0.08638
3035.70020	0.08661
3034.41443	0.08671
3033.12866	0.08664
3031.84289	0.08641
3030.55712	0.08608
3029.27136	0.08574
3027.98559	0.08547
3026.69982	0.08529
3025.41405	0.08519
3024.12828	0.08512
3022.84251	0.08504
3021.55674	0.08497
3020.27097	0.08491
3018.98521	0.08488
3017.69944	0.08485
3016.41367	0.08475
3015.12790	0.08457
3013.84213	0.08436
3012.55636	0.08419
3011.27059	0.08404
3009.98482	0.08385
3008.69905	0.08363
3007.41329	0.08340
3006.12752	0.08313
3004.84175	0.08274
3003.55598	0.08223
3002.27021	0.08171
3000.98444	0.08131
2999.69867	0.08105
2998.41290	0.08097
2997.12714	0.08105
2995.84137	0.08128
2994.55560	0.08161
2993.26983	0.08193
2991.98406	0.08214
2990.69829	0.08221
2989.41252	0.08225
2988.12675	0.08242
2986.84098	0.08278
2985.55522	0.08321
2984.26945	0.08350
2982.98368	0.08363
2981.69791	0.08381
2980.41214	0.08428
2979.12637	0.08510
2977.84060	0.08609
2976.55483	0.08710
2975.26907	0.08818
2973.98330	0.08950
2972.69753	0.09109
2971.41176	0.09276
2970.12599	0.09429
2968.84022	0.09564
2967.55445	0.09695
2966.26868	0.09832
2964.98291	0.09979
2963.69715	0.10140
2962.41138	0.10329
2961.12561	0.10552
2959.83984	0.10796
2958.55407	0.11035
2957.26830	0.11236
2955.98253	0.11390
2954.69676	0.11507
2953.41100	0.11605
2952.12523	0.11689
2950.83946	0.11752
2949.55369	0.11779
2948.26792	0.11764
2946.98215	0.11718
2945.69638	0.11666
2944.41061	0.11635
2943.12484	0.11633
2941.83908	0.11653
2940.55331	0.11692
2939.26754	0.11748
2937.98177	0.11820
2936.69600	0.11910
2935.41023	0.12028
2934.12446	0.12186
2932.83869	0.12377
2931.55293	0.12575
2930.26716	0.12747
2928.98139	0.12881
2927.69562	0.12983
2926.40985	0.13063
2925.12408	0.13123
2923.83831	0.13157
2922.55254	0.13171
2921.26677	0.13177
2919.98101	0.13172
2918.69524	0.13139
2917.40947	0.13058
2916.12370	0.12938
2914.83793	0.12807
2913.55216	0.12694
2912.26639	0.12603
2910.98062	0.12522
2909.69486	0.12432
2908.40909	0.12326
2907.12332	0.12202
2905.83755	0.12068
2904.55178	0.11939
2903.26601	0.11830
2901.98024	0.11746
2900.69447	0.11673
2899.40870	0.11588
2898.12294	0.11475
2896.83717	0.11337
2895.55140	0.11197
2894.26563	0.11080
2892.97986	0.10996
2891.69409	0.10933
2890.40832	0.10863
2889.12255	0.10770
2887.83678	0.10658
2886.55102	0.10548
2885.26525	0.10460
2883.97948	0.10399
2882.69371	0.10366
2881.40794	0.10356
2880.12217	0.10363
2878.83640	0.10376
2877.55063	0.10397
2876.26487	0.10440
2874.97910	0.10515
2873.69333	0.10614
2872.40756	0.10706
2871.12179	0.10774
2869.83602	0.10826
2868.55025	0.10874
2867.26448	0.10908
2865.97871	0.10912
2864.69295	0.10889
2863.40718	0.10858
2862.12141	0.10839
2860.83564	0.10836
2859.54987	0.10836
2858.26410	0.10825
2856.97833	0.10796
2855.69256	0.10749
2854.40680	0.10691
2853.12103	0.10633
2851.83526	0.10583
2850.54949	0.10539
2849.26372	0.10482
2847.97795	0.10401
2846.69218	0.10301
2845.40641	0.10205
2844.12064	0.10118
2842.83488	0.10025
2841.54911	0.09903
2840.26334	0.09750
2838.97757	0.09580
2837.69180	0.09413
2836.40603	0.09255
2835.12026	0.09102
2833.83449	0.08956
2832.54873	0.08823
2831.26296	0.08713
2829.97719	0.08629
2828.69142	0.08561
2827.40565	0.08496
2826.11988	0.08423
2824.83411	0.08338
2823.54834	0.08242
2822.26257	0.08147
2820.97681	0.08075
2819.69104	0.08038
2818.40527	0.08025
2817.11950	0.08010
2815.83373	0.07974
2814.54796	0.07917
2813.26219	0.07855
2811.97642	0.07802
2810.69066	0.07762
2809.40489	0.07737
2808.11912	0.07721
2806.83335	0.07704
2805.54758	0.07679
2804.26181	0.07648
2802.97604	0.07620
2801.69027	0.07598
2800.40450	0.07580
2799.11874	0.07554
2797.83297	0.07513
2796.54720	0.07461
2795.26143	0.07416
2793.97566	0.07398
2792.68989	0.07404
2791.40412	0.07412
2790.11835	0.07396
2788.83259	0.07353
2787.54682	0.07301
2786.26105	0.07262
2784.97528	0.07242
2783.68951	0.07234
2782.40374	0.07227
2781.11797	0.07213
2779.83220	0.07196
2778.54643	0.07184
2777.26067	0.07182
2775.97490	0.07181
2774.68913	0.07174
2773.40336	0.07157
2772.11759	0.07138
2770.83182	0.07118
2769.54605	0.07098
2768.26028	0.07077
2766.97452	0.07065
2765.68875	0.07066
2764.40298	0.07072
2763.11721	0.07065
2761.83144	0.07041
2760.54567	0.07012
2759.25990	0.06990
2757.97413	0.06971
2756.68836	0.06943
2755.40260	0.06907
2754.11683	0.06877
2752.83106	0.06860
2751.54529	0.06853
2750.25952	0.06851
2748.97375	0.06855
2747.68798	0.06867
2746.40221	0.06875
2745.11645	0.06868
2743.83068	0.06847
2742.54491	0.06825
2741.25914	0.06812
2739.97337	0.06804
2738.68760	0.06790
2737.40183	0.06764
2736.11606	0.06731
2734.83029	0.06705
2733.54453	0.06695
2732.25876	0.06701
2730.97299	0.06712
2729.68722	0.06719
2728.40145	0.06717
2727.11568	0.06712
2725.82991	0.06715
2724.54414	0.06729
2723.25838	0.06739
2721.97261	0.06731
2720.68684	0.06708
2719.40107	0.06688
2718.11530	0.06681
2716.82953	0.06678
2715.54376	0.06666
2714.25799	0.06645
2712.97222	0.06626
2711.68646	0.06617
2710.40069	0.06613
2709.11492	0.06600
2707.82915	0.06570
2706.54338	0.06532
2705.25761	0.06503
2703.97184	0.06489
2702.68607	0.06481
2701.40031	0.06468
2700.11454	0.06454
2698.82877	0.06447
2697.54300	0.06450
2696.25723	0.06457
2694.97146	0.06464
2693.68569	0.06470
2692.39992	0.06466
2691.11415	0.06446
2689.82839	0.06419
2688.54262	0.06397
2687.25685	0.06386
2685.97108	0.06378
2684.68531	0.06364
2683.39954	0.06344
2682.11377	0.06322
2680.82800	0.06305
2679.54224	0.06302
2678.25647	0.06316
2676.97070	0.06336
2675.68493	0.06346
2674.39916	0.06336
2673.11339	0.06315
2671.82762	0.06299
2670.54185	0.06288
2669.25608	0.06274
2667.97032	0.06252
2666.68455	0.06230
2665.39878	0.06219
2664.11301	0.06216
2662.82724	0.06214
2661.54147	0.06209
2660.25570	0.06203
2658.96993	0.06198
2657.68417	0.06191
2656.39840	0.06180
2655.11263	0.06167
2653.82686	0.06154
2652.54109	0.06138
2651.25532	0.06118
2649.96955	0.06095
2648.68378	0.06067
2647.39801	0.06033
2646.11225	0.05997
2644.82648	0.05964
2643.54071	0.05939
2642.25494	0.05917
2640.96917	0.05893
2639.68340	0.05870
2638.39763	0.05856
2637.11186	0.05853
2635.82609	0.05850
2634.54033	0.05833
2633.25456	0.05793
2631.96879	0.05745
2630.68302	0.05707
2629.39725	0.05687
2628.11148	0.05677
2626.82571	0.05660
2625.53994	0.05628
2624.25418	0.05593
2622.96841	0.05573
2621.68264	0.05577
2620.39687	0.05590
2619.11110	0.05585
2617.82533	0.05551
2616.53956	0.05502
2615.25379	0.05457
2613.96802	0.05427
2612.68226	0.05410
2611.39649	0.05403
2610.11072	0.05406
2608.82495	0.05416
2607.53918	0.05428
2606.25341	0.05433
2604.96764	0.05424
2603.68187	0.05398
2602.39611	0.05362
2601.11034	0.05327
2599.82457	0.05305
2598.53880	0.05291
2597.25303	0.05265
2595.96726	0.05217
2594.68149	0.05159
2593.39572	0.05115
2592.10995	0.05100
2590.82419	0.05114
2589.53842	0.05142
2588.25265	0.05167
2586.96688	0.05174
2585.68111	0.05165
2584.39534	0.05150
2583.10957	0.05131
2581.82380	0.05106
2580.53804	0.05085
2579.25227	0.05078
2577.96650	0.05084
2576.68073	0.05090
2575.39496	0.05082
2574.10919	0.05058
2572.82342	0.05016
2571.53765	0.04956
2570.25188	0.04890
2568.96612	0.04837
2567.68035	0.04818
2566.39458	0.04834
2565.10881	0.04873
2563.82304	0.04909
2562.53727	0.04924
2561.25150	0.04924
2559.96573	0.04922
2558.67997	0.04922
2557.39420	0.04914
2556.10843	0.04888
2554.82266	0.04849
2553.53689	0.04818
2552.25112	0.04807
2550.96535	0.04813
2549.67958	0.04823
2548.39381	0.04833
2547.10805	0.04852
2545.82228	0.04882
2544.53651	0.04903
2543.25074	0.04895
2541.96497	0.04858
2540.67920	0.04813
2539.39343	0.04783
2538.10766	0.04768
2536.82190	0.04758
2535.53613	0.04740
2534.25036	0.04717
2532.96459	0.04698
2531.67882	0.04695
2530.39305	0.04712
2529.10728	0.04742
2527.82151	0.04769
2526.53574	0.04774
2525.24998	0.04752
2523.96421	0.04718
2522.67844	0.04700
2521.39267	0.04708
2520.10690	0.04730
2518.82113	0.04744
2517.53536	0.04734
2516.24959	0.04697
2514.96383	0.04656
2513.67806	0.04633
2512.39229	0.04631
2511.10652	0.04631
2509.82075	0.04614
2508.53498	0.04586
2507.24921	0.04569
2505.96344	0.04582
2504.67767	0.04614
2503.39191	0.04633
2502.10614	0.04617
2500.82037	0.04586
2499.53460	0.04577
2498.24883	0.04594
2496.96306	0.04601
2495.67729	0.04572
2494.39152	0.04523
2493.10576	0.04488
2491.81999	0.04480
2490.53422	0.04487
2489.24845	0.04493
2487.96268	0.04496
2486.67691	0.04501
2485.39114	0.04512
2484.10537	0.04532
2482.81960	0.04553
2481.53384	0.04559
2480.24807	0.04540
2478.96230	0.04508
2477.67653	0.04490
2476.39076	0.04493
2475.10499	0.04501
2473.81922	0.04498
2472.53345	0.04493
2471.24769	0.04503
2469.96192	0.04527
2468.67615	0.04547
2467.39038	0.04557
2466.10461	0.04564
2464.81884	0.04564
2463.53307	0.04546
2462.24730	0.04504
2460.96153	0.04449
2459.67577	0.04404
2458.39000	0.04389
2457.10423	0.04413
2455.81846	0.04467
2454.53269	0.04521
2453.24692	0.04541
2451.96115	0.04520
2450.67538	0.04485
2449.38962	0.04462
2448.10385	0.04452
2446.81808	0.04436
2445.53231	0.04406
2444.24654	0.04379
2442.96077	0.04368
2441.67500	0.04365
2440.38923	0.04358
2439.10346	0.04349
2437.81770	0.04345
2436.53193	0.04349
2435.24616	0.04356
2433.96039	0.04360
2432.67462	0.04360
2431.38885	0.04353
2430.10308	0.04337
2428.81731	0.04312
2427.53155	0.04283
2426.24578	0.04255
2424.96001	0.04240
2423.67424	0.04243
2422.38847	0.04265
2421.10270	0.04295
2419.81693	0.04323
2418.53116	0.04347
2417.24539	0.04371
2415.95963	0.04397
2414.67386	0.04415
2413.38809	0.04409
2412.10232	0.04376
2410.81655	0.04329
2409.53078	0.04289
2408.24501	0.04266
2406.95924	0.04265
2405.67347	0.04281
2404.38771	0.04297
2403.10194	0.04299
2401.81617	0.04282
2400.53040	0.04255
2399.24463	0.04237
2397.95886	0.04213
2396.67309	0.04188
2395.38732	0.04176
2394.10156	0.04180
2392.81579	0.04193
2391.53002	0.04203
2390.24425	0.04206
2388.95848	0.04203
2387.67271	0.04206
2386.38694	0.04216
2385.10117	0.04227
2383.81540	0.04230
2382.52964	0.04222
2381.24387	0.04215
2379.95810	0.04206
2378.67233	0.04194
2377.38656	0.04173
2376.10079	0.04101
2374.81502	0.03999
2373.52925	0.03928
2372.24349	0.03898
2370.95772	0.03909
2369.67195	0.03880
2368.38618	0.03817
2367.10041	0.03805
2365.81464	0.03794
2364.52887	0.03655
2363.24310	0.03456
2361.95733	0.03347
2360.67157	0.03338
2359.38580	0.03328
2358.10003	0.03346
2356.81426	0.03404
2355.52849	0.03446
2354.24272	0.03490
2352.95695	0.03565
2351.67118	0.03755
2350.38542	0.04092
2349.09965	0.04284
2347.81388	0.04069
2346.52811	0.03711
2345.24234	0.03582
2343.95657	0.03673
2342.67080	0.03754
2341.38503	0.03797
2340.09926	0.03861
2338.81350	0.03920
2337.52773	0.03968
2336.24196	0.03947
2334.95619	0.03909
2333.67042	0.03918
2332.38465	0.03922
2331.09888	0.03954
2329.81311	0.04029
2328.52735	0.04057
2327.24158	0.04071
2325.95581	0.04097
2324.67004	0.04094
2323.38427	0.04097
2322.09850	0.04117
2320.81273	0.04106
2319.52696	0.04103
2318.24119	0.04122
2316.95543	0.04116
2315.66966	0.04073
2314.38389	0.04024
2313.09812	0.04006
2311.81235	0.04012
2310.52658	0.04028
2309.24081	0.04055
2307.95504	0.04073
2306.66928	0.04068
2305.38351	0.04054
2304.09774	0.04032
2302.81197	0.04001
2301.52620	0.03966
2300.24043	0.03935
2298.95466	0.03907
2297.66889	0.03885
2296.38312	0.03875
2295.09736	0.03874
2293.81159	0.03872
2292.52582	0.03854
2291.24005	0.03820
2289.95428	0.03782
2288.66851	0.03756
2287.38274	0.03749
2286.09697	0.03756
2284.81121	0.03765
2283.52544	0.03759
2282.23967	0.03732
2280.95390	0.03696
2279.66813	0.03661
2278.38236	0.03629
2277.09659	0.03590
2275.81082	0.03544
2274.52505	0.03501
2273.23929	0.03468
2271.95352	0.03451
2270.66775	0.03446
2269.38198	0.03444
2268.09621	0.03441
2266.81044	0.03436
2265.52467	0.03425
2264.23890	0.03396
2262.95314	0.03345
2261.66737	0.03279
2260.38160	0.03232
2259.09583	0.03226
2257.81006	0.03252
2256.52429	0.03281
2255.23852	0.03292
2253.95275	0.03289
2252.66698	0.03282
2251.38122	0.03275
2250.09545	0.03265
2248.80968	0.03249
2247.52391	0.03219
2246.23814	0.03205
2244.95237	0.03214
2243.66660	0.03230
2242.38083	0.03239
2241.09507	0.03243
2239.80930	0.03252
2238.52353	0.03253
2237.23776	0.03226
2235.95199	0.03174
2234.66622	0.03123
2233.38045	0.03084
2232.09468	0.03051
2230.80891	0.03014
2229.52315	0.02969
2228.23738	0.02912
2226.95161	0.02841
2225.66584	0.02774
2224.38007	0.02737
2223.09430	0.02738
2221.80853	0.02756
2220.52276	0.02748
2219.23700	0.02682
2217.95123	0.02578
2216.66546	0.02503
2215.37969	0.02500
2214.09392	0.02536
2212.80815	0.02544
2211.52238	0.02498
2210.23661	0.02435
2208.95084	0.02400
2207.66508	0.02410
2206.37931	0.02470
2205.09354	0.02578
2203.80777	0.02702
2202.52200	0.02785
2201.23623	0.02785
2199.95046	0.02717
2198.66469	0.02630
2197.37893	0.02557
2196.09316	0.02499
2194.80739	0.02427
2193.52162	0.02314
2192.23585	0.02174
2190.95008	0.02077
2189.66431	0.02081
2188.37854	0.02167
2187.09277	0.02273
2185.80701	0.02376
2184.52124	0.02498
2183.23547	0.02629
2181.94970	0.02702
2180.66393	0.02664
2179.37816	0.02537
2178.09239	0.02392
2176.80662	0.02279
2175.52085	0.02206
2174.23509	0.02171
2172.94932	0.02190
2171.66355	0.02262
2170.37778	0.02327
2169.09201	0.02300
2167.80624	0.02166
2166.52047	0.01998
2165.23470	0.01869
2163.94894	0.01782
2162.66317	0.01700
2161.37740	0.01610
2160.09163	0.01526
2158.80586	0.01468
2157.52009	0.01444
2156.23432	0.01440
2154.94855	0.01436
2153.66278	0.01446
2152.37702	0.01524
2151.09125	0.01694
2149.80548	0.01885
2148.51971	0.01985
2147.23394	0.01964
2145.94817	0.01898
2144.66240	0.01876
2143.37663	0.01901
2142.09087	0.01928
2140.80510	0.01940
2139.51933	0.01961
2138.23356	0.01998
2136.94779	0.02029
2135.66202	0.02040
2134.37625	0.02063
2133.09048	0.02127
2131.80471	0.02222
2130.51895	0.02310
2129.23318	0.02370
2127.94741	0.02406
2126.66164	0.02427
2125.37587	0.02440
2124.09010	0.02450
2122.80433	0.02470
2121.51856	0.02503
2120.23280	0.02549
2118.94703	0.02596
2117.66126	0.02624
2116.37549	0.02616
2115.08972	0.02583
2113.80395	0.02561
2112.51818	0.02573
2111.23241	0.02610
2109.94664	0.02641
2108.66088	0.02645
2107.37511	0.02619
2106.08934	0.02579
2104.80357	0.02551
2103.51780	0.02549
2102.23203	0.02555
2100.94626	0.02539
2099.66049	0.02531
2098.37473	0.02511
2097.08896	0.02510
2095.80319	0.02542
2094.51742	0.02584
2093.23165	0.02603
2091.94588	0.02588
2090.66011	0.02549
2089.37434	0.02504
2088.08857	0.02459
2086.80281	0.02412
2085.51704	0.02359
2084.23127	0.02304
2082.94550	0.02267
2081.65973	0.02276
2080.37396	0.02338
2079.08819	0.02420
2077.80242	0.02471
2076.51666	0.02458
2075.23089	0.02393
2073.94512	0.02313
2072.65935	0.02247
2071.37358	0.02206
2070.08781	0.02187
2068.80204	0.02190
2067.51627	0.02217
2066.23050	0.02259
2064.94474	0.02293
2063.65897	0.02293
2062.37320	0.02249
2061.08743	0.02177
2059.80166	0.02107
2058.51589	0.02058
2057.23012	0.02026
2055.94435	0.01997
2054.65859	0.01978
2053.37282	0.01981
2052.08705	0.01996
2050.80128	0.01995
2049.51551	0.01962
2048.22974	0.01912
2046.94397	0.01861
2045.65820	0.01801
2044.37243	0.01713
2043.08667	0.01604
2041.80090	0.01503
2040.51513	0.01432
2039.22936	0.01391
2037.94359	0.01371
2036.65782	0.01371
2035.37205	0.01365
2034.08628	0.01313
2032.80052	0.01203
2031.51475	0.01096
2030.22898	0.01068
2028.94321	0.01136
2027.65744	0.01252
2026.37167	0.01359
2025.08590	0.01435
2023.80013	0.01477
2022.51436	0.01491
2021.22860	0.01492
2019.94283	0.01486
2018.65706	0.01461
2017.37129	0.01401
2016.08552	0.01323
2014.79975	0.01284
2013.51398	0.01339
2012.22821	0.01478
2010.94245	0.01623
2009.65668	0.01688
2008.37091	0.01650
2007.08514	0.01554
2005.79937	0.01464
2004.51360	0.01416
2003.22783	0.01415
2001.94206	0.01459
2000.65629	0.01538
1999.37053	0.01626
1998.08476	0.01692
1996.79899	0.01720
1995.51322	0.01723
1994.22745	0.01719
1992.94168	0.01719
1991.65591	0.01733
1990.37014	0.01776
1989.08438	0.01845
1987.79861	0.01913
1986.51284	0.01947
1985.22707	0.01952
1983.94130	0.01959
1982.65553	0.01981
1981.36976	0.01985
1980.08399	0.01929
1978.79822	0.01814
1977.51246	0.01702
1976.22669	0.01655
1974.94092	0.01676
1973.65515	0.01708
1972.36938	0.01700
1971.08361	0.01650
1969.79784	0.01589
1968.51207	0.01550
1967.22631	0.01544
1965.94054	0.01573
1964.65477	0.01632
1963.36900	0.01715
1962.08323	0.01806
1960.79746	0.01884
1959.51169	0.01931
1958.22592	0.01947
1956.94015	0.01948
1955.65439	0.01951
1954.36862	0.01969
1953.08285	0.01999
1951.79708	0.02031
1950.51131	0.02057
1949.22554	0.02079
1947.93977	0.02098
1946.65400	0.02109
1945.36823	0.02111
1944.08247	0.02115
1942.79670	0.02129
1941.51093	0.02149
1940.22516	0.02161
1938.93939	0.02161
1937.65362	0.02162
1936.36785	0.02179
1935.08208	0.02216
1933.79632	0.02257
1932.51055	0.02284
1931.22478	0.02300
1929.93901	0.02315
1928.65324	0.02325
1927.36747	0.02309
1926.08170	0.02260
1924.79593	0.02208
1923.51016	0.02193
1922.22440	0.02226
1920.93863	0.02280
1919.65286	0.02327
1918.36709	0.02357
1917.08132	0.02382
1915.79555	0.02408
1914.50978	0.02432
1913.22401	0.02449
1911.93825	0.02459
1910.65248	0.02460
1909.36671	0.02455
1908.08094	0.02446
1906.79517	0.02438
1905.50940	0.02433
1904.22363	0.02434
1902.93786	0.02438
1901.65209	0.02442
1900.36633	0.02443
1899.08056	0.02440
1897.79479	0.02441
1896.50902	0.02448
1895.22325	0.02456
1893.93748	0.02454
1892.65171	0.02442
1891.36594	0.02432
1890.08018	0.02438
1888.79441	0.02457
1887.50864	0.02478
1886.22287	0.02487
1884.93710	0.02485
1883.65133	0.02483
1882.36556	0.02490
1881.07979	0.02503
1879.79402	0.02516
1878.50826	0.02525
1877.22249	0.02532
1875.93672	0.02537
1874.65095	0.02534
1873.36518	0.02521
1872.07941	0.02502
1870.79364	0.02489
1869.50787	0.02491
1868.22211	0.02510
1866.93634	0.02538
1865.65057	0.02566
1864.36480	0.02586
1863.07903	0.02594
1861.79326	0.02591
1860.50749	0.02575
1859.22172	0.02548
1857.93595	0.02514
1856.65019	0.02485
1855.36442	0.02468
1854.07865	0.02466
1852.79288	0.02479
1851.50711	0.02499
1850.22134	0.02519
1848.93557	0.02537
1847.64980	0.02554
1846.36404	0.02574
1845.07827	0.02593
1843.79250	0.02600
1842.50673	0.02592
1841.22096	0.02577
1839.93519	0.02563
1838.64942	0.02550
1837.36365	0.02532
1836.07788	0.02508
1834.79212	0.02490
1833.50635	0.02489
1832.22058	0.02500
1830.93481	0.02509
1829.64904	0.02508
1828.36327	0.02499
1827.07750	0.02494
1825.79173	0.02499
1824.50597	0.02511
1823.22020	0.02525
1821.93443	0.02539
1820.64866	0.02549
1819.36289	0.02553
1818.07712	0.02549
1816.79135	0.02542
1815.50558	0.02537
1814.21981	0.02542
1812.93405	0.02553
1811.64828	0.02567
1810.36251	0.02580
1809.07674	0.02589
1807.79097	0.02596
1806.50520	0.02600
1805.21943	0.02605
1803.93366	0.02610
1802.64790	0.02614
1801.36213	0.02616
1800.07636	0.02618
1798.79059	0.02627
1797.50482	0.02645
1796.21905	0.02663
1794.93328	0.02674
1793.64751	0.02674
1792.36174	0.02666
1791.07598	0.02658
1789.79021	0.02652
1788.50444	0.02647
1787.21867	0.02639
1785.93290	0.02630
1784.64713	0.02624
1783.36136	0.02625
1782.07559	0.02632
1780.78983	0.02641
1779.50406	0.02648
1778.21829	0.02651
1776.93252	0.02654
1775.64675	0.02659
1774.36098	0.02669
1773.07521	0.02680
1771.78944	0.02691
1770.50367	0.02704
1769.21791	0.02718
1767.93214	0.02726
1766.64637	0.02725
1765.36060	0.02721
1764.07483	0.02721
1762.78906	0.02728
1761.50329	0.02737
1760.21752	0.02743
1758.93176	0.02743
1757.64599	0.02737
1756.36022	0.02728
1755.07445	0.02718
1753.78868	0.02711
1752.50291	0.02708
1751.21714	0.02709
1749.93137	0.02709
1748.64560	0.02704
1747.35984	0.02694
1746.07407	0.02688
1744.78830	0.02692
1743.50253	0.02703
1742.21676	0.02718
1740.93099	0.02732
1739.64522	0.02746
1738.35945	0.02765
1737.07369	0.02789
1735.78792	0.02813
1734.50215	0.02827
1733.21638	0.02824
1731.93061	0.02809
1730.64484	0.02796
1729.35907	0.02799
1728.07330	0.02815
1726.78753	0.02836
1725.50177	0.02851
1724.21600	0.02860
1722.93023	0.02869
1721.64446	0.02888
1720.35869	0.02921
1719.07292	0.02960
1717.78715	0.02994
1716.50138	0.03021
1715.21561	0.03046
1713.92985	0.03075
1712.64408	0.03114
1711.35831	0.03158
1710.07254	0.03202
1708.78677	0.03242
1707.50100	0.03274
1706.21523	0.03300
1704.92946	0.03326
1703.64370	0.03359
1702.35793	0.03401
1701.07216	0.03442
1699.78639	0.03473
1698.50062	0.03494
1697.21485	0.03509
1695.92908	0.03521
1694.64331	0.03531
1693.35754	0.03537
1692.07178	0.03545
1690.78601	0.03558
1689.50024	0.03576
1688.21447	0.03600
1686.92870	0.03628
1685.64293	0.03651
1684.35716	0.03662
1683.07139	0.03658
1681.78563	0.03650
1680.49986	0.03651
1679.21409	0.03668
1677.92832	0.03697
1676.64255	0.03730
1675.35678	0.03757
1674.07101	0.03776
1672.78524	0.03793
1671.49947	0.03810
1670.21371	0.03826
1668.92794	0.03838
1667.64217	0.03845
1666.35640	0.03852
1665.07063	0.03862
1663.78486	0.03875
1662.49909	0.03888
1661.21332	0.03900
1659.92756	0.03915
1658.64179	0.03934
1657.35602	0.03963
1656.07025	0.04005
1654.78448	0.04054
1653.49871	0.04098
1652.21294	0.04121
1650.92717	0.04122
1649.64140	0.04119
1648.35564	0.04127
1647.06987	0.04145
1645.78410	0.04162
1644.49833	0.04172
1643.21256	0.04178
1641.92679	0.04188
1640.64102	0.04204
1639.35525	0.04227
1638.06949	0.04255
1636.78372	0.04282
1635.49795	0.04302
1634.21218	0.04313
1632.92641	0.04316
1631.64064	0.04317
1630.35487	0.04318
1629.06910	0.04320
1627.78333	0.04323
1626.49757	0.04329
1625.21180	0.04338
1623.92603	0.04350
1622.64026	0.04363
1621.35449	0.04378
1620.06872	0.04396
1618.78295	0.04420
1617.49718	0.04447
1616.21142	0.04470
1614.92565	0.04483
1613.63988	0.04488
1612.35411	0.04492
1611.06834	0.04501
1609.78257	0.04518
1608.49680	0.04537
1607.21103	0.04556
1605.92526	0.04575
1604.63950	0.04596
1603.35373	0.04619
1602.06796	0.04641
1600.78219	0.04660
1599.49642	0.04675
1598.21065	0.04690
1596.92488	0.04709
1595.63911	0.04731
1594.35335	0.04755
1593.06758	0.04777
1591.78181	0.04797
1590.49604	0.04817
1589.21027	0.04837
1587.92450	0.04859
1586.63873	0.04885
1585.35296	0.04916
1584.06719	0.04951
1582.78143	0.04987
1581.49566	0.05023
1580.20989	0.05064
1578.92412	0.05116
1577.63835	0.05176
1576.35258	0.05237
1575.06681	0.05286
1573.78104	0.05323
1572.49528	0.05357
1571.20951	0.05395
1569.92374	0.05438
1568.63797	0.05479
1567.35220	0.05514
1566.06643	0.05546
1564.78066	0.05583
1563.49489	0.05631
1562.20912	0.05693
1560.92336	0.05763
1559.63759	0.05829
1558.35182	0.05878
1557.06605	0.05909
1555.78028	0.05931
1554.49451	0.05955
1553.20874	0.05986
1551.92297	0.06024
1550.63721	0.06064
1549.35144	0.06102
1548.06567	0.06134
1546.77990	0.06158
1545.49413	0.06174
1544.20836	0.06184
1542.92259	0.06190
1541.63682	0.06190
1540.35105	0.06181
1539.06529	0.06161
1537.77952	0.06130
1536.49375	0.06100
1535.20798	0.06079
1533.92221	0.06068
1532.63644	0.06064
1531.35067	0.06065
1530.06490	0.06070
1528.77914	0.06083
1527.49337	0.06104
1526.20760	0.06134
1524.92183	0.06173
1523.63606	0.06222
1522.35029	0.06281
1521.06452	0.06346
1519.77875	0.06416
1518.49298	0.06494
1517.20722	0.06583
1515.92145	0.06683
1514.63568	0.06792
1513.34991	0.06911
1512.06414	0.07045
1510.77837	0.07195
1509.49260	0.07358
1508.20683	0.07527
1506.92107	0.07689
1505.63530	0.07831
1504.34953	0.07950
1503.06376	0.08053
1501.77799	0.08152
1500.49222	0.08251
1499.20645	0.08347
1497.92068	0.08437
1496.63491	0.08516
1495.34915	0.08588
1494.06338	0.08655
1492.77761	0.08724
1491.49184	0.08799
1490.20607	0.08882
1488.92030	0.08972
1487.63453	0.09068
1486.34876	0.09174
1485.06299	0.09292
1483.77723	0.09422
1482.49146	0.09563
1481.20569	0.09711
1479.91992	0.09864
1478.63415	0.10019
1477.34838	0.10172
1476.06261	0.10318
1474.77684	0.10454
1473.49108	0.10579
1472.20531	0.10695
1470.91954	0.10804
1469.63377	0.10911
1468.34800	0.11019
1467.06223	0.11125
1465.77646	0.11224
1464.49069	0.11310
1463.20492	0.11387
1461.91916	0.11461
1460.63339	0.11542
1459.34762	0.11633
1458.06185	0.11732
1456.77608	0.11825
1455.49031	0.11902
1454.20454	0.11958
1452.91877	0.11998
1451.63301	0.12029
1450.34724	0.12057
1449.06147	0.12080
1447.77570	0.12095
1446.48993	0.12099
1445.20416	0.12087
1443.91839	0.12057
1442.63262	0.12013
1441.34685	0.11960
1440.06109	0.11905
1438.77532	0.11856
1437.48955	0.11815
1436.20378	0.11787
1434.91801	0.11779
1433.63224	0.11798
1432.34647	0.11847
1431.06070	0.11926
1429.77494	0.12029
1428.48917	0.12155
1427.20340	0.12304
1425.91763	0.12475
1424.63186	0.12662
1423.34609	0.12856
1422.06032	0.13045
1420.77455	0.13225
1419.48878	0.13390
1418.20302	0.13535
1416.91725	0.13652
1415.63148	0.13741
1414.34571	0.13808
1413.05994	0.13860
1411.77417	0.13896
1410.48840	0.13911
1409.20263	0.13897
1407.91687	0.13851
1406.63110	0.13778
1405.34533	0.13679
1404.05956	0.13553
1402.77379	0.13397
1401.48802	0.13210
1400.20225	0.12997
1398.91648	0.12765
1397.63071	0.12521
1396.34495	0.12267
1395.05918	0.12008
1393.77341	0.11746
1392.48764	0.11486
1391.20187	0.11231
1389.91610	0.10984
1388.63033	0.10748
1387.34456	0.10522
1386.05880	0.10310
1384.77303	0.10111
1383.48726	0.09926
1382.20149	0.09749
1380.91572	0.09574
1379.62995	0.09393
1378.34418	0.09202
1377.05841	0.08996
1375.77264	0.08769
1374.48688	0.08518
1373.20111	0.08247
1371.91534	0.07967
1370.62957	0.07695
1369.34380	0.07444
1368.05803	0.07214
1366.77226	0.07002
1365.48649	0.06797
1364.20073	0.06595
1362.91496	0.06397
1361.62919	0.06208
1360.34342	0.06030
1359.05765	0.05866
1357.77188	0.05714
1356.48611	0.05577
1355.20034	0.05456
1353.91457	0.05348
1352.62881	0.05250
1351.34304	0.05158
1350.05727	0.05072
1348.77150	0.04989
1347.48573	0.04908
1346.19996	0.04827
1344.91419	0.04748
1343.62842	0.04674
1342.34266	0.04607
1341.05689	0.04544
1339.77112	0.04484
1338.48535	0.04426
1337.19958	0.04374
1335.91381	0.04324
1334.62804	0.04276
1333.34227	0.04229
1332.05650	0.04182
1330.77074	0.04137
1329.48497	0.04095
1328.19920	0.04055
1326.91343	0.04017
1325.62766	0.03981
1324.34189	0.03947
1323.05612	0.03918
1321.77035	0.03892
1320.48459	0.03868
1319.19882	0.03843
1317.91305	0.03813
1316.62728	0.03783
1315.34151	0.03757
1314.05574	0.03736
1312.76997	0.03715
1311.48420	0.03691
1310.19843	0.03666
1308.91267	0.03642
1307.62690	0.03622
1306.34113	0.03601
1305.05536	0.03575
1303.76959	0.03546
1302.48382	0.03520
1301.19805	0.03496
1299.91228	0.03472
1298.62652	0.03447
1297.34075	0.03423
1296.05498	0.03404
1294.76921	0.03388
1293.48344	0.03372
1292.19767	0.03352
1290.91190	0.03325
1289.62613	0.03292
1288.34036	0.03259
1287.05460	0.03232
1285.76883	0.03212
1284.48306	0.03195
1283.19729	0.03177
1281.91152	0.03157
1280.62575	0.03135
1279.33998	0.03112
1278.05421	0.03088
1276.76845	0.03061
1275.48268	0.03033
1274.19691	0.03007
1272.91114	0.02984
1271.62537	0.02964
1270.33960	0.02943
1269.05383	0.02922
1267.76806	0.02903
1266.48229	0.02887
1265.19653	0.02874
1263.91076	0.02861
1262.62499	0.02846
1261.33922	0.02828
1260.05345	0.02805
1258.76768	0.02781
1257.48191	0.02758
1256.19614	0.02740
1254.91037	0.02727
1253.62461	0.02718
1252.33884	0.02706
1251.05307	0.02691
1249.76730	0.02672
1248.48153	0.02654
1247.19576	0.02639
1245.90999	0.02625
1244.62422	0.02610
1243.33846	0.02594
1242.05269	0.02580
1240.76692	0.02570
1239.48115	0.02564
1238.19538	0.02559
1236.90961	0.02555
1235.62384	0.02550
1234.33807	0.02545
1233.05230	0.02536
1231.76654	0.02523
1230.48077	0.02506
1229.19500	0.02485
1227.90923	0.02464
1226.62346	0.02445
1225.33769	0.02430
1224.05192	0.02421
1222.76615	0.02414
1221.48039	0.02406
1220.19462	0.02397
1218.90885	0.02386
1217.62308	0.02374
1216.33731	0.02363
1215.05154	0.02351
1213.76577	0.02337
1212.48000	0.02321
1211.19423	0.02307
1209.90847	0.02295
1208.62270	0.02287
1207.33693	0.02280
1206.05116	0.02274
1204.76539	0.02270
1203.47962	0.02267
1202.19385	0.02265
1200.90808	0.02261
1199.62232	0.02253
1198.33655	0.02246
1197.05078	0.02237
1195.76501	0.02228
1194.47924	0.02218
1193.19347	0.02207
1191.90770	0.02198
1190.62193	0.02194
1189.33616	0.02193
1188.05040	0.02192
1186.76463	0.02185
1185.47886	0.02173
1184.19309	0.02162
1182.90732	0.02155
1181.62155	0.02153
1180.33578	0.02154
1179.05001	0.02155
1177.76425	0.02154
1176.47848	0.02153
1175.19271	0.02152
1173.90694	0.02152
1172.62117	0.02153
1171.33540	0.02158
1170.04963	0.02167
1168.76386	0.02182
1167.47809	0.02205
1166.19233	0.02230
1164.90656	0.02253
1163.62079	0.02268
1162.33502	0.02279
1161.04925	0.02290
1159.76348	0.02308
1158.47771	0.02334
1157.19194	0.02370
1155.90618	0.02415
1154.62041	0.02466
1153.33464	0.02517
1152.04887	0.02567
1150.76310	0.02617
1149.47733	0.02669
1148.19156	0.02727
1146.90579	0.02791
1145.62002	0.02861
1144.33426	0.02937
1143.04849	0.03022
1141.76272	0.03119
1140.47695	0.03230
1139.19118	0.03349
1137.90541	0.03476
1136.61964	0.03616
1135.33387	0.03774
1134.04811	0.03954
1132.76234	0.04153
1131.47657	0.04372
1130.19080	0.04612
1128.90503	0.04876
1127.61926	0.05167
1126.33349	0.05490
1125.04772	0.05848
1123.76195	0.06234
1122.47619	0.06638
1121.19042	0.07046
1119.90465	0.07452
1118.61888	0.07857
1117.33311	0.08265
1116.04734	0.08679
1114.76157	0.09098
1113.47580	0.09509
1112.19004	0.09902
1110.90427	0.10272
1109.61850	0.10626
1108.33273	0.10972
1107.04696	0.11313
1105.76119	0.11642
1104.47542	0.11955
1103.18965	0.12254
1101.90388	0.12542
1100.61812	0.12823
1099.33235	0.13091
1098.04658	0.13345
1096.76081	0.13586
1095.47504	0.13816
1094.18927	0.14034
1092.90350	0.14240
1091.61773	0.14436
1090.33197	0.14623
1089.04620	0.14801
1087.76043	0.14973
1086.47466	0.15143
1085.18889	0.15319
1083.90312	0.15507
1082.61735	0.15711
1081.33158	0.15931
1080.04581	0.16166
1078.76005	0.16414
1077.47428	0.16672
1076.18851	0.16939
1074.90274	0.17215
1073.61697	0.17499
1072.33120	0.17797
1071.04543	0.18109
1069.75966	0.18431
1068.47390	0.18763
1067.18813	0.19109
1065.90236	0.19469
1064.61659	0.19840
1063.33082	0.20214
1062.04505	0.20586
1060.75928	0.20960
1059.47351	0.21336
1058.18774	0.21711
1056.90198	0.22073
1055.61621	0.22418
1054.33044	0.22751
1053.04467	0.23085
1051.75890	0.23435
1050.47313	0.23803
1049.18736	0.24190
1047.90159	0.24592
1046.61583	0.25009
1045.33006	0.25440
1044.04429	0.25884
1042.75852	0.26339
1041.47275	0.26804
1040.18698	0.27277
1038.90121	0.27754
1037.61544	0.28232
1036.32967	0.28706
1035.04391	0.29178
1033.75814	0.29649
1032.47237	0.30111
1031.18660	0.30553
1029.90083	0.30968
1028.61506	0.31351
1027.32929	0.31701
1026.04352	0.32012
1024.75775	0.32278
1023.47199	0.32494
1022.18622	0.32664
1020.90045	0.32797
1019.61468	0.32898
1018.32891	0.32965
1017.04314	0.32993
1015.75737	0.32977
1014.47160	0.32913
1013.18584	0.32798
1011.90007	0.32630
1010.61430	0.32408
1009.32853	0.32135
1008.04276	0.31812
1006.75699	0.31438
1005.47122	0.31012
1004.18545	0.30535
1002.89968	0.30011
1001.61392	0.29441
1000.32815	0.28827
999.04238	0.28171
997.75661	0.27483
996.47084	0.26768
995.18507	0.26032
993.89930	0.25278
992.61353	0.24510
991.32777	0.23737
990.04200	0.22972
988.75623	0.22228
987.47046	0.21511
986.18469	0.20817
984.89892	0.20142
983.61315	0.19484
982.32738	0.18848
981.04161	0.18238
979.75585	0.17656
978.47008	0.17106
977.18431	0.16595
975.89854	0.16129
974.61277	0.15717
973.32700	0.15361
972.04123	0.15062
970.75546	0.14826
969.46970	0.14661
968.18393	0.14572
966.89816	0.14557
965.61239	0.14601
964.32662	0.14686
963.04085	0.14789
961.75508	0.14881
960.46931	0.14926
959.18354	0.14893
957.89778	0.14768
956.61201	0.14562
955.32624	0.14301
954.04047	0.14010
952.75470	0.13702
951.46893	0.13382
950.18316	0.13057
948.89739	0.12735
947.61163	0.12422
946.32586	0.12118
945.04009	0.11821
943.75432	0.11529
942.46855	0.11242
941.18278	0.10966
939.89701	0.10704
938.61124	0.10458
937.32547	0.10225
936.03971	0.10004
934.75394	0.09799
933.46817	0.09610
932.18240	0.09434
930.89663	0.09267
929.61086	0.09108
928.32509	0.08956
927.03932	0.08808
925.75356	0.08662
924.46779	0.08521
923.18202	0.08391
921.89625	0.08274
920.61048	0.08170
919.32471	0.08071
918.03894	0.07973
916.75317	0.07870
915.46740	0.07768
914.18164	0.07676
912.89587	0.07598
911.61010	0.07535
910.32433	0.07475
909.03856	0.07406
907.75279	0.07324
906.46702	0.07234
905.18125	0.07148
903.89549	0.07078
902.60972	0.07023
901.32395	0.06974
900.03818	0.06921
898.75241	0.06867
897.46664	0.06819
896.18087	0.06780
894.89510	0.06746
893.60933	0.06712
892.32357	0.06682
891.03780	0.06659
889.75203	0.06646
888.46626	0.06644
887.18049	0.06672
885.89472	0.06763
884.60895	0.06955
883.32318	0.07260
882.03742	0.07645
880.75165	0.08037
879.46588	0.08360
878.18011	0.08581
876.89434	0.08734
875.60857	0.08883
874.32280	0.09056
873.03703	0.09223
871.75126	0.09325
870.46550	0.09320
869.17973	0.09205
867.89396	0.09008
866.60819	0.08759
865.32242	0.08486
864.03665	0.08210
862.75088	0.07948
861.46511	0.07706
860.17935	0.07487
858.89358	0.07294
857.60781	0.07132
856.32204	0.07000
855.03627	0.06886
853.75050	0.06775
852.46473	0.06669
851.17896	0.06576
849.89319	0.06500
848.60743	0.06432
847.32166	0.06363
846.03589	0.06292
844.75012	0.06223
843.46435	0.06160
842.17858	0.06102
840.89281	0.06048
839.60704	0.05997
838.32128	0.05951
837.03551	0.05912
835.74974	0.05880
834.46397	0.05852
833.17820	0.05827
831.89243	0.05806
830.60666	0.05786
829.32089	0.05762
828.03512	0.05733
826.74936	0.05703
825.46359	0.05675
824.17782	0.05655
822.89205	0.05642
821.60628	0.05630
820.32051	0.05616
819.03474	0.05601
817.74897	0.05587
816.46321	0.05575
815.17744	0.05565
813.89167	0.05557
812.60590	0.05552
811.32013	0.05543
810.03436	0.05524
808.74859	0.05494
807.46282	0.05459
806.17705	0.05429
804.89129	0.05407
803.60552	0.05392
802.31975	0.05378
801.03398	0.05363
799.74821	0.05342
798.46244	0.05317
797.17667	0.05293
795.89090	0.05275
794.60513	0.05265
793.31937	0.05255
792.03360	0.05239
790.74783	0.05218
789.46206	0.05199
788.17629	0.05187
786.89052	0.05178
785.60475	0.05166
784.31898	0.05146
783.03322	0.05126
781.74745	0.05114
780.46168	0.05112
779.17591	0.05112
777.89014	0.05107
776.60437	0.05093
775.31860	0.05074
774.03283	0.05054
772.74706	0.05037
771.46130	0.05025
770.17553	0.05018
768.88976	0.05014
767.60399	0.05008
766.31822	0.05001
765.03245	0.04997
763.74668	0.04999
762.46091	0.05009
761.17515	0.05021
759.88938	0.05030
758.60361	0.05029
757.31784	0.05027
756.03207	0.05031
754.74630	0.05041
753.46053	0.05045
752.17476	0.05034
750.88899	0.05011
749.60323	0.04989
748.31746	0.04981
747.03169	0.04985
745.74592	0.04988
744.46015	0.04980
743.17438	0.04961
741.88861	0.04939
740.60284	0.04921
739.31708	0.04909
738.03131	0.04899
736.74554	0.04888
735.45977	0.04870
734.17400	0.04842
732.88823	0.04810
731.60246	0.04783
730.31669	0.04769
729.03092	0.04762
727.74516	0.04753
726.45939	0.04742
725.17362	0.04734
723.88785	0.04738
722.60208	0.04745
721.31631	0.04739
720.03054	0.04729
718.74477	0.04728
717.45901	0.04718
716.17324	0.04700
714.88747	0.04681
713.60170	0.04662
712.31593	0.04645
711.03016	0.04632
709.74439	0.04620
708.45862	0.04607
707.17285	0.04590
705.88709	0.04571
704.60132	0.04556
703.31555	0.04544
702.02978	0.04536
700.74401	0.04529
699.45824	0.04523
698.17247	0.04516
696.88670	0.04506
695.60094	0.04497
694.31517	0.04489
693.02940	0.04484
691.74363	0.04478
690.45786	0.04470
689.17209	0.04461
687.88632	0.04449
686.60055	0.04434
685.31478	0.04414
684.02902	0.04395
682.74325	0.04382
681.45748	0.04375
680.17171	0.04367
678.88594	0.04352
677.60017	0.04327
676.31440	0.04301
675.02863	0.04287
673.74287	0.04310
672.45710	0.04389
671.17133	0.04475
669.88556	0.04411
668.59979	0.04195
667.31402	0.04240
666.02825	0.04453
664.74248	0.04457
663.45671	0.04336
662.17095	0.04236
660.88518	0.04181
659.59941	0.04153
658.31364	0.04136
657.02787	0.04125
655.74210	0.04117
654.45633	0.04113
653.17056	0.04110
651.88480	0.04108
650.59903	0.04103
649.31326	0.04095
648.02749	0.04088
646.74172	0.04083
645.45595	0.04078
644.17018	0.04078
642.88441	0.04083
641.59864	0.04092
640.31288	0.04101
639.02711	0.04112
637.74134	0.04128
636.45557	0.04150
635.16980	0.04179
633.88403	0.04216
632.59826	0.04269
631.31249	0.04349
630.02673	0.04463
628.74096	0.04583
627.45519	0.04668
626.16942	0.04855
624.88365	0.05115
623.59788	0.05379
622.31211	0.05604
621.02634	0.05776
619.74057	0.05937
618.45481	0.06159
617.16904	0.06485
615.88327	0.06903
614.59750	0.07373
613.31173	0.07866
612.02596	0.08381
610.74019	0.08947
609.45442	0.09572
608.16866	0.10211
606.88289	0.10815
605.59712	0.11370
604.31135	0.11853
603.02558	0.12216
601.73981	0.12417
600.45404	0.12439
599.16827	0.12294
597.88250	0.12014
596.59674	0.11646
595.31097	0.11242
594.02520	0.10852
592.73943	0.10519
591.45366	0.10271
590.16789	0.10118
588.88212	0.10058
587.59635	0.10077
586.31059	0.10160
585.02482	0.10295
583.73905	0.10478
582.45328	0.10708
581.16751	0.10980
579.88174	0.11283
578.59597	0.11599
577.31020	0.11912
576.02443	0.12210
574.73867	0.12490
573.45290	0.12754
572.16713	0.13016
570.88136	0.13309
569.59559	0.13666
568.30982	0.14100
567.02405	0.14596
565.73828	0.15126
564.45251	0.15653
563.16675	0.16127
561.88098	0.16474
560.59521	0.16619
559.30944	0.16521
558.02367	0.16199
556.73790	0.15717
555.45213	0.15141
554.16636	0.14508
552.88060	0.13835
551.59483	0.13143
550.30906	0.12467
549.02329	0.11841
547.73752	0.11280
546.45175	0.10781
545.16598	0.10328
543.88021	0.09910
542.59444	0.09520
541.30868	0.09156
540.02291	0.08823
538.73714	0.08523
537.45137	0.08253
536.16560	0.08001
534.87983	0.07759
533.59406	0.07531
532.30829	0.07325
531.02253	0.07142
529.73676	0.06974
528.45099	0.06807
527.16522	0.06631
525.87945	0.06448
524.59368	0.06272
523.30791	0.06120
522.02214	0.05995
520.73637	0.05885
519.45061	0.05773
518.16484	0.05649
516.87907	0.05517
515.59330	0.05390
514.30753	0.05279
513.02176	0.05187
511.73599	0.05103
510.45022	0.05015
509.16446	0.04918
507.87869	0.04821
506.59292	0.04738
505.30715	0.04678
504.02138	0.04631
502.73561	0.04578
501.44984	0.04510
500.16407	0.04436
498.87830	0.04372
497.59254	0.04326
496.30677	0.04290
495.02100	0.04254
493.73523	0.04212
492.44946	0.04162
491.16369	0.04107
489.87792	0.04055
488.59215	0.04016
487.30639	0.03993
486.02062	0.03982
484.73485	0.03973
483.44908	0.03962
482.16331	0.03950
480.87754	0.03942
479.59177	0.03939
478.30600	0.03943
477.02023	0.03958
475.73447	0.03984
474.44870	0.04015
473.16293	0.04039
471.87716	0.04046
470.59139	0.04036
469.30562	0.04015
468.01985	0.03985
466.73408	0.03949
465.44832	0.03913
464.16255	0.03881
462.87678	0.03850
461.59101	0.03814
460.30524	0.03773
459.01947	0.03731
457.73370	0.03691
456.44793	0.03655
455.16216	0.03620
453.87640	0.03585
452.59063	0.03551
451.30486	0.03518
450.01909	0.03487
448.73332	0.03460
447.44755	0.03438
446.16178	0.03417
444.87601	0.03393
443.59025	0.03369
442.30448	0.03348
441.01871	0.03337
439.73294	0.03333
438.44717	0.03331
437.16140	0.03326
435.87563	0.03318
434.58986	0.03308
433.30409	0.03300
432.01833	0.03292
430.73256	0.03283
429.44679	0.03271
428.16102	0.03257
426.87525	0.03245
425.58948	0.03232
424.30371	0.03218
423.01794	0.03202
421.73218	0.03186
420.44641	0.03169
419.16064	0.03152
417.87487	0.03134
416.58910	0.03116
415.30333	0.03098
414.01756	0.03081
412.73179	0.03067
411.44602	0.03055
410.16026	0.03050
408.87449	0.03051
407.58872	0.03057
406.30295	0.03066
405.01718	0.03078
403.73141	0.03093
402.44564	0.03109
401.15987	0.03122
399.87411	0.03130
