3997.45528	0.04174
3996.16951	0.04090
3994.88374	0.04010
3993.59798	0.03977
3992.31221	0.04018
3991.02644	0.04098
3989.74067	0.04156
3988.45490	0.04174
3987.16913	0.04189
3985.88336	0.04233
3984.59759	0.04285
3983.31183	0.04292
3982.02606	0.04232
3980.74029	0.04140
3979.45452	0.04068
3978.16875	0.04030
3976.88298	0.03996
3975.59721	0.03937
3974.31144	0.03863
3973.02567	0.03818
3971.73991	0.03841
3970.45414	0.03932
3969.16837	0.04051
3967.88260	0.04141
3966.59683	0.04165
3965.31106	0.04124
3964.02529	0.04063
3962.73952	0.04032
3961.45376	0.04050
3960.16799	0.04077
3958.88222	0.04057
3957.59645	0.03974
3956.31068	0.03862
3955.02491	0.03764
3953.73914	0.03692
3952.45337	0.03647
3951.16760	0.03639
3949.88184	0.03683
3948.59607	0.03774
3947.31030	0.03875
3946.02453	0.03944
3944.73876	0.03957
3943.45299	0.03911
3942.16722	0.03833
3940.88145	0.03757
3939.59569	0.03712
3938.30992	0.03709
3937.02415	0.03733
3935.73838	0.03762
3934.45261	0.03778
3933.16684	0.03776
3931.88107	0.03767
3930.59530	0.03773
3929.30953	0.03809
3928.02377	0.03864
3926.73800	0.03900
3925.45223	0.03884
3924.16646	0.03826
3922.88069	0.03769
3921.59492	0.03749
3920.30915	0.03773
3919.02338	0.03819
3917.73762	0.03856
3916.45185	0.03862
3915.16608	0.03832
3913.88031	0.03773
3912.59454	0.03709
3911.30877	0.03670
3910.02300	0.03675
3908.73723	0.03711
3907.45146	0.03740
3906.16570	0.03736
3904.87993	0.03706
3903.59416	0.03682
3902.30839	0.03684
3901.02262	0.03700
3899.73685	0.03708
3898.45108	0.03699
3897.16531	0.03676
3895.87955	0.03647
3894.59378	0.03620
3893.30801	0.03602
3892.02224	0.03592
3890.73647	0.03580
3889.45070	0.03573
3888.16493	0.03586
3886.87916	0.03624
3885.59339	0.03672
3884.30763	0.03703
3883.02186	0.03693
3881.73609	0.03638
3880.45032	0.03561
3879.16455	0.03504
3877.87878	0.03502
3876.59301	0.03550
3875.30724	0.03611
3874.02148	0.03638
3872.73571	0.03602
3871.44994	0.03516
3870.16417	0.03443
3868.87840	0.03452
3867.59263	0.03548
3866.30686	0.03659
3865.02109	0.03702
3863.73532	0.03661
3862.44956	0.03591
3861.16379	0.03550
3859.87802	0.03549
3858.59225	0.03553
3857.30648	0.03540
3856.02071	0.03522
3854.73494	0.03525
3853.44917	0.03549
3852.16341	0.03570
3850.87764	0.03570
3849.59187	0.03555
3848.30610	0.03535
3847.02033	0.03507
3845.73456	0.03472
3844.44879	0.03445
3843.16302	0.03447
3841.87725	0.03468
3840.59149	0.03474
3839.30572	0.03458
3838.01995	0.03457
3836.73418	0.03505
3835.44841	0.03576
3834.16264	0.03596
3832.87687	0.03526
3831.59110	0.03401
3830.30534	0.03297
3829.01957	0.03266
3827.73380	0.03313
3826.44803	0.03413
3825.16226	0.03526
3823.87649	0.03605
3822.59072	0.03617
3821.30495	0.03572
3820.01918	0.03524
3818.73342	0.03510
3817.44765	0.03514
3816.16188	0.03490
3814.87611	0.03428
3813.59034	0.03367
3812.30457	0.03348
3811.01880	0.03368
3809.73303	0.03386
3808.44726	0.03366
3807.16150	0.03311
3805.87573	0.03246
3804.58996	0.03192
3803.30419	0.03154
3802.01842	0.03139
3800.73265	0.03156
3799.44688	0.03204
3798.16111	0.03252
3796.87535	0.03268
3795.58958	0.03244
3794.30381	0.03214
3793.01804	0.03219
3791.73227	0.03265
3790.44650	0.03313
3789.16073	0.03326
3787.87496	0.03300
3786.58919	0.03265
3785.30343	0.03245
3784.01766	0.03241
3782.73189	0.03238
3781.44612	0.03221
3780.16035	0.03186
3778.87458	0.03140
3777.58881	0.03100
3776.30304	0.03091
3775.01728	0.03134
3773.73151	0.03229
3772.44574	0.03343
3771.15997	0.03422
3769.87420	0.03428
3768.58843	0.03357
3767.30266	0.03254
3766.01689	0.03178
3764.73112	0.03160
3763.44536	0.03180
3762.15959	0.03198
3760.87382	0.03196
3759.58805	0.03186
3758.30228	0.03186
3757.01651	0.03184
3755.73074	0.03160
3754.44497	0.03116
3753.15921	0.03075
3751.87344	0.03067
3750.58767	0.03099
3749.30190	0.03160
3748.01613	0.03224
3746.73036	0.03264
3745.44459	0.03254
3744.15882	0.03200
3742.87305	0.03140
3741.58729	0.03122
3740.30152	0.03159
3739.01575	0.03221
3737.72998	0.03267
3736.44421	0.03277
3735.15844	0.03252
3733.87267	0.03201
3732.58690	0.03146
3731.30114	0.03119
3730.01537	0.03137
3728.72960	0.03184
3727.44383	0.03228
3726.15806	0.03252
3724.87229	0.03256
3723.58652	0.03239
3722.30075	0.03208
3721.01498	0.03184
3719.72922	0.03190
3718.44345	0.03224
3717.15768	0.03256
3715.87191	0.03258
3714.58614	0.03220
3713.30037	0.03140
3712.01460	0.03029
3710.72883	0.02922
3709.44307	0.02873
3708.15730	0.02907
3706.87153	0.02997
3705.58576	0.03083
3704.29999	0.03127
3703.01422	0.03125
3701.72845	0.03100
3700.44268	0.03089
3699.15691	0.03122
3697.87115	0.03190
3696.58538	0.03253
3695.29961	0.03275
3694.01384	0.03256
3692.72807	0.03215
3691.44230	0.03165
3690.15653	0.03105
3688.87076	0.03037
3687.58500	0.02973
3686.29923	0.02929
3685.01346	0.02901
3683.72769	0.02881
3682.44192	0.02875
3681.15615	0.02898
3679.87038	0.02951
3678.58461	0.03009
3677.29884	0.03040
3676.01308	0.03041
3674.72731	0.03050
3673.44154	0.03100
3672.15577	0.03182
3670.87000	0.03249
3669.58423	0.03256
3668.29846	0.03192
3667.01269	0.03074
3665.72693	0.02944
3664.44116	0.02861
3663.15539	0.02871
3661.86962	0.02973
3660.58385	0.03108
3659.29808	0.03212
3658.01231	0.03260
3656.72654	0.03268
3655.44077	0.03263
3654.15501	0.03250
3652.86924	0.03222
3651.58347	0.03171
3650.29770	0.03112
3649.01193	0.03073
3647.72616	0.03073
3646.44039	0.03115
3645.15462	0.03198
3643.86886	0.03310
3642.58309	0.03425
3641.29732	0.03507
3640.01155	0.03534
3638.72578	0.03520
3637.44001	0.03487
3636.15424	0.03448
3634.86847	0.03410
3633.58270	0.03379
3632.29694	0.03367
3631.01117	0.03378
3629.72540	0.03407
3628.43963	0.03446
3627.15386	0.03481
3625.86809	0.03502
3624.58232	0.03505
3623.29655	0.03502
3622.01079	0.03508
3620.72502	0.03525
3619.43925	0.03539
3618.15348	0.03549
3616.86771	0.03569
3615.58194	0.03603
3614.29617	0.03630
3613.01040	0.03626
3611.72463	0.03599
3610.43887	0.03589
3609.15310	0.03628
3607.86733	0.03700
3606.58156	0.03743
3605.29579	0.03705
3604.01002	0.03601
3602.72425	0.03516
3601.43848	0.03524
3600.15272	0.03631
3598.86695	0.03779
3597.58118	0.03899
3596.29541	0.03963
3595.00964	0.03985
3593.72387	0.03984
3592.43810	0.03962
3591.15233	0.03933
3589.86656	0.03930
3588.58080	0.03969
3587.29503	0.04020
3586.00926	0.04044
3584.72349	0.04033
3583.43772	0.04007
3582.15195	0.03984
3580.86618	0.03960
3579.58041	0.03932
3578.29464	0.03909
3577.00888	0.03910
3575.72311	0.03949
3574.43734	0.04020
3573.15157	0.04104
3571.86580	0.04186
3570.58003	0.04255
3569.29426	0.04291
3568.00849	0.04275
3566.72273	0.04211
3565.43696	0.04141
3564.15119	0.04106
3562.86542	0.04115
3561.57965	0.04145
3560.29388	0.04172
3559.00811	0.04186
3557.72234	0.04182
3556.43657	0.04164
3555.15081	0.04144
3553.86504	0.04150
3552.57927	0.04200
3551.29350	0.04282
3550.00773	0.04363
3548.72196	0.04413
3547.43619	0.04427
3546.15042	0.04421
3544.86466	0.04415
3543.57889	0.04420
3542.29312	0.04444
3541.00735	0.04488
3539.72158	0.04539
3538.43581	0.04565
3537.15004	0.04544
3535.86427	0.04486
3534.57850	0.04432
3533.29274	0.04416
3532.00697	0.04439
3530.72120	0.04469
3529.43543	0.04482
3528.14966	0.04484
3526.86389	0.04504
3525.57812	0.04557
3524.29235	0.04623
3523.00659	0.04666
3521.72082	0.04668
3520.43505	0.04640
3519.14928	0.04615
3517.86351	0.04621
3516.57774	0.04663
3515.29197	0.04717
3514.00620	0.04752
3512.72043	0.04751
3511.43467	0.04720
3510.14890	0.04673
3508.86313	0.04630
3507.57736	0.04614
3506.29159	0.04638
3505.00582	0.04694
3503.72005	0.04756
3502.43428	0.04800
3501.14852	0.04818
3499.86275	0.04810
3498.57698	0.04780
3497.29121	0.04741
3496.00544	0.04713
3494.71967	0.04711
3493.43390	0.04739
3492.14813	0.04794
3490.86236	0.04872
3489.57660	0.04961
3488.29083	0.05031
3487.00506	0.05047
3485.71929	0.05001
3484.43352	0.04920
3483.14775	0.04847
3481.86198	0.04809
3480.57621	0.04815
3479.29045	0.04856
3478.00468	0.04907
3476.71891	0.04942
3475.43314	0.04953
3474.14737	0.04954
3472.86160	0.04969
3471.57583	0.05003
3470.29006	0.05048
3469.00429	0.05096
3467.71853	0.05137
3466.43276	0.05157
3465.14699	0.05138
3463.86122	0.05082
3462.57545	0.05025
3461.28968	0.05014
3460.00391	0.05065
3458.71814	0.05149
3457.43238	0.05213
3456.14661	0.05233
3454.86084	0.05215
3453.57507	0.05179
3452.28930	0.05141
3451.00353	0.05119
3449.71776	0.05133
3448.43199	0.05189
3447.14622	0.05269
3445.86046	0.05339
3444.57469	0.05378
3443.28892	0.05393
3442.00315	0.05403
3440.71738	0.05417
3439.43161	0.05426
3438.14584	0.05409
3436.86007	0.05359
3435.57431	0.05297
3434.28854	0.05260
3433.00277	0.05261
3431.71700	0.05289
3430.43123	0.05327
3429.14546	0.05367
3427.85969	0.05404
3426.57392	0.05424
3425.28815	0.05422
3424.00239	0.05408
3422.71662	0.05401
3421.43085	0.05412
3420.14508	0.05434
3418.85931	0.05456
3417.57354	0.05468
3416.28777	0.05466
3415.00200	0.05448
3413.71624	0.05417
3412.43047	0.05377
3411.14470	0.05338
3409.85893	0.05317
3408.57316	0.05317
3407.28739	0.05331
3406.00162	0.05351
3404.71585	0.05382
3403.43008	0.05421
3402.14432	0.05446
3400.85855	0.05433
3399.57278	0.05393
3398.28701	0.05366
3397.00124	0.05382
3395.71547	0.05437
3394.42970	0.05500
3393.14393	0.05554
3391.85817	0.05602
3390.57240	0.05643
3389.28663	0.05662
3388.00086	0.05646
3386.71509	0.05600
3385.42932	0.05544
3384.14355	0.05497
3382.85778	0.05463
3381.57201	0.05446
3380.28625	0.05445
3379.00048	0.05458
3377.71471	0.05479
3376.42894	0.05503
3375.14317	0.05525
3373.85740	0.05540
3372.57163	0.05533
3371.28586	0.05502
3370.00010	0.05463
3368.71433	0.05456
3367.42856	0.05505
3366.14279	0.05596
3364.85702	0.05678
3363.57125	0.05706
3362.28548	0.05677
3360.99971	0.05630
3359.71394	0.05607
3358.42818	0.05623
3357.14241	0.05667
3355.85664	0.05715
3354.57087	0.05746
3353.28510	0.05748
3351.99933	0.05722
3350.71356	0.05676
3349.42779	0.05617
3348.14202	0.05556
3346.85626	0.05502
3345.57049	0.05465
3344.28472	0.05446
3342.99895	0.05443
3341.71318	0.05455
3340.42741	0.05483
3339.14164	0.05524
3337.85587	0.05561
3336.57011	0.05571
3335.28434	0.05541
3333.99857	0.05482
3332.71280	0.05433
3331.42703	0.05427
3330.14126	0.05471
3328.85549	0.05540
3327.56972	0.05598
3326.28395	0.05622
3324.99819	0.05613
3323.71242	0.05584
3322.42665	0.05547
3321.14088	0.05509
3319.85511	0.05474
3318.56934	0.05448
3317.28357	0.05437
3315.99780	0.05443
3314.71204	0.05460
3313.42627	0.05470
3312.14050	0.05462
3310.85473	0.05440
3309.56896	0.05417
3308.28319	0.05398
3306.99742	0.05381
3305.71165	0.05357
3304.42588	0.05319
3303.14012	0.05272
3301.85435	0.05240
3300.56858	0.05251
3299.28281	0.05303
3297.99704	0.05361
3296.71127	0.05391
3295.42550	0.05389
3294.13973	0.05379
3292.85397	0.05377
3291.56820	0.05379
3290.28243	0.05371
3288.99666	0.05345
3287.71089	0.05303
3286.42512	0.05254
3285.13935	0.05208
3283.85358	0.05182
3282.56781	0.05189
3281.28205	0.05227
3279.99628	0.05274
3278.71051	0.05308
3277.42474	0.05322
3276.13897	0.05320
3274.85320	0.05306
3273.56743	0.05281
3272.28166	0.05252
3270.99590	0.05232
3269.71013	0.05223
3268.42436	0.05222
3267.13859	0.05227
3265.85282	0.05238
3264.56705	0.05250
3263.28128	0.05257
3261.99551	0.05261
3260.70974	0.05272
3259.42398	0.05296
3258.13821	0.05315
3256.85244	0.05305
3255.56667	0.05259
3254.28090	0.05199
3252.99513	0.05159
3251.70936	0.05153
3250.42359	0.05164
3249.13783	0.05172
3247.85206	0.05168
3246.56629	0.05161
3245.28052	0.05162
3243.99475	0.05177
3242.70898	0.05201
3241.42321	0.05223
3240.13744	0.05235
3238.85167	0.05237
3237.56591	0.05238
3236.28014	0.05241
3234.99437	0.05237
3233.70860	0.05214
3232.42283	0.05168
3231.13706	0.05114
3229.85129	0.05073
3228.56552	0.05053
3227.27976	0.05048
3225.99399	0.05060
3224.70822	0.05099
3223.42245	0.05165
3222.13668	0.05233
3220.85091	0.05269
3219.56514	0.05250
3218.27937	0.05187
3216.99360	0.05113
3215.70784	0.05065
3214.42207	0.05059
3213.13630	0.05073
3211.85053	0.05074
3210.56476	0.05044
3209.27899	0.04994
3207.99322	0.04947
3206.70745	0.04918
3205.42169	0.04911
3204.13592	0.04931
3202.85015	0.04977
3201.56438	0.05034
3200.27861	0.05071
3198.99284	0.05070
3197.70707	0.05042
3196.42130	0.05016
3195.13553	0.04999
3193.84977	0.04985
3192.56400	0.04968
3191.27823	0.04950
3189.99246	0.04938
3188.70669	0.04928
3187.42092	0.04915
3186.13515	0.04890
3184.84938	0.04851
3183.56362	0.04805
3182.27785	0.04772
3180.99208	0.04773
3179.70631	0.04806
3178.42054	0.04847
3177.13477	0.04866
3175.84900	0.04852
3174.56323	0.04814
3173.27746	0.04775
3171.99170	0.04747
3170.70593	0.04731
3169.42016	0.04718
3168.13439	0.04699
3166.84862	0.04682
3165.56285	0.04680
3164.27708	0.04701
3162.99131	0.04727
3161.70555	0.04734
3160.41978	0.04716
3159.13401	0.04688
3157.84824	0.04675
3156.56247	0.04687
3155.27670	0.04721
3153.99093	0.04758
3152.70516	0.04778
3151.41939	0.04770
3150.13363	0.04740
3148.84786	0.04697
3147.56209	0.04648
3146.27632	0.04599
3144.99055	0.04559
3143.70478	0.04532
3142.41901	0.04514
3141.13324	0.04502
3139.84748	0.04499
3138.56171	0.04509
3137.27594	0.04529
3135.99017	0.04551
3134.70440	0.04566
3133.41863	0.04568
3132.13286	0.04551
3130.84709	0.04523
3129.56132	0.04502
3128.27556	0.04499
3126.98979	0.04504
3125.70402	0.04495
3124.41825	0.04464
3123.13248	0.04426
3121.84671	0.04395
3120.56094	0.04382
3119.27517	0.04387
3117.98940	0.04402
3116.70364	0.04412
3115.41787	0.04398
3114.13210	0.04359
3112.84633	0.04319
3111.56056	0.04306
3110.27479	0.04324
3108.98902	0.04351
3107.70325	0.04367
3106.41749	0.04370
3105.13172	0.04362
3103.84595	0.04338
3102.56018	0.04297
3101.27441	0.04256
3099.98864	0.04238
3098.70287	0.04250
3097.41710	0.04268
3096.13133	0.04270
3094.84557	0.04246
3093.55980	0.04206
3092.27403	0.04166
3090.98826	0.04138
3089.70249	0.04131
3088.41672	0.04146
3087.13095	0.04178
3085.84518	0.04221
3084.55942	0.04261
3083.27365	0.04280
3081.98788	0.04266
3080.70211	0.04224
3079.41634	0.04176
3078.13057	0.04141
3076.84480	0.04124
3075.55903	0.04113
3074.27326	0.04100
3072.98750	0.04085
3071.70173	0.04076
3070.41596	0.04076
3069.13019	0.04079
3067.84442	0.04073
3066.55865	0.04045
3065.27288	0.03996
3063.98711	0.03948
3062.70135	0.03926
3061.41558	0.03938
3060.12981	0.03971
3058.84404	0.04002
3057.55827	0.04021
3056.27250	0.04027
3054.98673	0.04027
3053.70096	0.04029
3052.41519	0.04037
3051.12943	0.04051
3049.84366	0.04060
3048.55789	0.04052
3047.27212	0.04019
3045.98635	0.03967
3044.70058	0.03916
3043.41481	0.03884
3042.12904	0.03875
3040.84328	0.03880
3039.55751	0.03886
3038.27174	0.03881
3036.98597	0.03861
3035.70020	0.03826
3034.41443	0.03790
3033.12866	0.03772
3031.84289	0.03780
3030.55712	0.03804
3029.27136	0.03826
3027.98559	0.03839
3026.69982	0.03845
3025.41405	0.03853
3024.12828	0.03861
3022.84251	0.03863
3021.55674	0.03848
3020.27097	0.03817
3018.98521	0.03778
3017.69944	0.03741
3016.41367	0.03705
3015.12790	0.03670
3013.84213	0.03638
3012.55636	0.03619
3011.27059	0.03616
3009.98482	0.03628
3008.69905	0.03650
3007.41329	0.03675
3006.12752	0.03699
3004.84175	0.03715
3003.55598	0.03718
3002.27021	0.03703
3000.98444	0.03676
2999.69867	0.03650
2998.41290	0.03632
2997.12714	0.03623
2995.84137	0.03620
2994.55560	0.03629
2993.26983	0.03652
2991.98406	0.03680
2990.69829	0.03692
2989.41252	0.03677
2988.12675	0.03648
2986.84098	0.03632
2985.55522	0.03641
2984.26945	0.03668
2982.98368	0.03693
2981.69791	0.03710
2980.41214	0.03721
2979.12637	0.03727
2977.84060	0.03728
2976.55483	0.03725
2975.26907	0.03722
2973.98330	0.03719
2972.69753	0.03717
2971.41176	0.03722
2970.12599	0.03743
2968.84022	0.03781
2967.55445	0.03820
2966.26868	0.03836
2964.98291	0.03825
2963.69715	0.03804
2962.41138	0.03791
2961.12561	0.03792
2959.83984	0.03792
2958.55407	0.03783
2957.26830	0.03768
2955.98253	0.03762
2954.69676	0.03776
2953.41100	0.03808
2952.12523	0.03842
2950.83946	0.03863
2949.55369	0.03864
2948.26792	0.03847
2946.98215	0.03820
2945.69638	0.03791
2944.41061	0.03768
2943.12484	0.03758
2941.83908	0.03763
2940.55331	0.03780
2939.26754	0.03798
2937.98177	0.03811
2936.69600	0.03824
2935.41023	0.03837
2934.12446	0.03848
2932.83869	0.03854
2931.55293	0.03858
2930.26716	0.03868
2928.98139	0.03887
2927.69562	0.03908
2926.40985	0.03923
2925.12408	0.03929
2923.83831	0.03926
2922.55254	0.03918
2921.26677	0.03911
2919.98101	0.03906
2918.69524	0.03899
2917.40947	0.03876
2916.12370	0.03831
2914.83793	0.03774
2913.55216	0.03726
2912.26639	0.03703
2910.98062	0.03700
2909.69486	0.03699
2908.40909	0.03683
2907.12332	0.03648
2905.83755	0.03609
2904.55178	0.03579
2903.26601	0.03560
2901.98024	0.03543
2900.69447	0.03522
2899.40870	0.03507
2898.12294	0.03505
2896.83717	0.03512
2895.55140	0.03513
2894.26563	0.03501
2892.97986	0.03477
2891.69409	0.03452
2890.40832	0.03438
2889.12255	0.03436
2887.83678	0.03434
2886.55102	0.03418
2885.26525	0.03387
2883.97948	0.03353
2882.69371	0.03324
2881.40794	0.03306
2880.12217	0.03302
2878.83640	0.03313
2877.55063	0.03329
2876.26487	0.03337
2874.97910	0.03334
2873.69333	0.03329
2872.40756	0.03334
2871.12179	0.03351
2869.83602	0.03373
2868.55025	0.03381
2867.26448	0.03368
2865.97871	0.03343
2864.69295	0.03331
2863.40718	0.03338
2862.12141	0.03349
2860.83564	0.03342
2859.54987	0.03317
2858.26410	0.03287
2856.97833	0.03262
2855.69256	0.03239
2854.40680	0.03216
2853.12103	0.03199
2851.83526	0.03189
2850.54949	0.03182
2849.26372	0.03173
2847.97795	0.03156
2846.69218	0.03129
2845.40641	0.03094
2844.12064	0.03066
2842.83488	0.03056
2841.54911	0.03052
2840.26334	0.03035
2838.97757	0.02999
2837.69180	0.02961
2836.40603	0.02938
2835.12026	0.02930
2833.83449	0.02926
2832.54873	0.02913
2831.26296	0.02886
2829.97719	0.02853
2828.69142	0.02829
2827.40565	0.02815
2826.11988	0.02807
2824.83411	0.02802
2823.54834	0.02805
2822.26257	0.02817
2820.97681	0.02823
2819.69104	0.02811
2818.40527	0.02785
2817.11950	0.02761
2815.83373	0.02753
2814.54796	0.02761
2813.26219	0.02773
2811.97642	0.02781
2810.69066	0.02780
2809.40489	0.02765
2808.11912	0.02733
2806.83335	0.02691
2805.54758	0.02656
2804.26181	0.02643
2802.97604	0.02655
2801.69027	0.02679
2800.40450	0.02697
2799.11874	0.02695
2797.83297	0.02677
2796.54720	0.02656
2795.26143	0.02643
2793.97566	0.02635
2792.68989	0.02626
2791.40412	0.02622
2790.11835	0.02632
2788.83259	0.02649
2787.54682	0.02657
2786.26105	0.02648
2784.97528	0.02631
2783.68951	0.02617
2782.40374	0.02605
2781.11797	0.02590
2779.83220	0.02575
2778.54643	0.02568
2777.26067	0.02574
2775.97490	0.02586
2774.68913	0.02595
2773.40336	0.02600
2772.11759	0.02600
2770.83182	0.02593
2769.54605	0.02580
2768.26028	0.02563
2766.97452	0.02551
2765.68875	0.02547
2764.40298	0.02548
2763.11721	0.02547
2761.83144	0.02539
2760.54567	0.02524
2759.25990	0.02505
2757.97413	0.02487
2756.68836	0.02474
2755.40260	0.02466
2754.11683	0.02461
2752.83106	0.02460
2751.54529	0.02464
2750.25952	0.02476
2748.97375	0.02488
2747.68798	0.02489
2746.40221	0.02470
2745.11645	0.02439
2743.83068	0.02413
2742.54491	0.02406
2741.25914	0.02419
2739.97337	0.02441
2738.68760	0.02459
2737.40183	0.02465
2736.11606	0.02455
2734.83029	0.02436
2733.54453	0.02417
2732.25876	0.02407
2730.97299	0.02405
2729.68722	0.02410
2728.40145	0.02418
2727.11568	0.02429
2725.82991	0.02441
2724.54414	0.02449
2723.25838	0.02447
2721.97261	0.02434
2720.68684	0.02419
2719.40107	0.02406
2718.11530	0.02398
2716.82953	0.02397
2715.54376	0.02404
2714.25799	0.02413
2712.97222	0.02412
2711.68646	0.02396
2710.40069	0.02374
2709.11492	0.02358
2707.82915	0.02355
2706.54338	0.02364
2705.25761	0.02379
2703.97184	0.02393
2702.68607	0.02398
2701.40031	0.02392
2700.11454	0.02376
2698.82877	0.02359
2697.54300	0.02345
2696.25723	0.02334
2694.97146	0.02324
2693.68569	0.02317
2692.39992	0.02312
2691.11415	0.02305
2689.82839	0.02293
2688.54262	0.02279
2687.25685	0.02275
2685.97108	0.02287
2684.68531	0.02307
2683.39954	0.02322
2682.11377	0.02325
2680.82800	0.02322
2679.54224	0.02314
2678.25647	0.02303
2676.97070	0.02286
2675.68493	0.02270
2674.39916	0.02263
2673.11339	0.02265
2671.82762	0.02272
2670.54185	0.02274
2669.25608	0.02270
2667.97032	0.02266
2666.68455	0.02267
2665.39878	0.02267
2664.11301	0.02259
2662.82724	0.02249
2661.54147	0.02249
2660.25570	0.02259
2658.96993	0.02272
2657.68417	0.02276
2656.39840	0.02270
2655.11263	0.02257
2653.82686	0.02243
2652.54109	0.02234
2651.25532	0.02227
2649.96955	0.02217
2648.68378	0.02203
2647.39801	0.02187
2646.11225	0.02173
2644.82648	0.02163
2643.54071	0.02159
2642.25494	0.02165
2640.96917	0.02174
2639.68340	0.02173
2638.39763	0.02153
2637.11186	0.02122
2635.82609	0.02095
2634.54033	0.02083
2633.25456	0.02082
2631.96879	0.02080
2630.68302	0.02070
2629.39725	0.02055
2628.11148	0.02044
2626.82571	0.02043
2625.53994	0.02044
2624.25418	0.02038
2622.96841	0.02017
2621.68264	0.01985
2620.39687	0.01957
2619.11110	0.01941
2617.82533	0.01939
2616.53956	0.01944
2615.25379	0.01953
2613.96802	0.01963
2612.68226	0.01963
2611.39649	0.01949
2610.11072	0.01926
2608.82495	0.01907
2607.53918	0.01902
2606.25341	0.01901
2604.96764	0.01893
2603.68187	0.01872
2602.39611	0.01846
2601.11034	0.01834
2599.82457	0.01854
2598.53880	0.01903
2597.25303	0.01948
2595.96726	0.01948
2594.68149	0.01889
2593.39572	0.01803
2592.10995	0.01740
2590.82419	0.01732
2589.53842	0.01772
2588.25265	0.01833
2586.96688	0.01890
2585.68111	0.01930
2584.39534	0.01946
2583.10957	0.01935
2581.82380	0.01903
2580.53804	0.01866
2579.25227	0.01837
2577.96650	0.01819
2576.68073	0.01812
2575.39496	0.01809
2574.10919	0.01804
2572.82342	0.01794
2571.53765	0.01780
2570.25188	0.01772
2568.96612	0.01778
2567.68035	0.01799
2566.39458	0.01826
2565.10881	0.01844
2563.82304	0.01839
2562.53727	0.01810
2561.25150	0.01778
2559.96573	0.01757
2558.67997	0.01736
2557.39420	0.01698
2556.10843	0.01654
2554.82266	0.01638
2553.53689	0.01657
2552.25112	0.01680
2550.96535	0.01680
2549.67958	0.01670
2548.39381	0.01677
2547.10805	0.01707
2545.82228	0.01742
2544.53651	0.01762
2543.25074	0.01761
2541.96497	0.01747
2540.67920	0.01725
2539.39343	0.01702
2538.10766	0.01679
2536.82190	0.01661
2535.53613	0.01647
2534.25036	0.01637
2532.96459	0.01629
2531.67882	0.01626
2530.39305	0.01629
2529.10728	0.01637
2527.82151	0.01654
2526.53574	0.01685
2525.24998	0.01721
2523.96421	0.01741
2522.67844	0.01727
2521.39267	0.01682
2520.10690	0.01630
2518.82113	0.01591
2517.53536	0.01575
2516.24959	0.01572
2514.96383	0.01576
2513.67806	0.01589
2512.39229	0.01617
2511.10652	0.01648
2509.82075	0.01647
2508.53498	0.01593
2507.24921	0.01506
2505.96344	0.01432
2504.67767	0.01404
2503.39191	0.01423
2502.10614	0.01464
2500.82037	0.01499
2499.53460	0.01521
2498.24883	0.01537
2496.96306	0.01550
2495.67729	0.01556
2494.39152	0.01553
2493.10576	0.01546
2491.81999	0.01542
2490.53422	0.01536
2489.24845	0.01525
2487.96268	0.01516
2486.67691	0.01526
2485.39114	0.01552
2484.10537	0.01572
2482.81960	0.01573
2481.53384	0.01572
2480.24807	0.01591
2478.96230	0.01627
2477.67653	0.01655
2476.39076	0.01661
2475.10499	0.01652
2473.81922	0.01638
2472.53345	0.01614
2471.24769	0.01567
2469.96192	0.01501
2468.67615	0.01447
2467.39038	0.01434
2466.10461	0.01468
2464.81884	0.01527
2463.53307	0.01578
2462.24730	0.01602
2460.96153	0.01591
2459.67577	0.01556
2458.39000	0.01518
2457.10423	0.01496
2455.81846	0.01496
2454.53269	0.01518
2453.24692	0.01549
2451.96115	0.01570
2450.67538	0.01561
2449.38962	0.01523
2448.10385	0.01484
2446.81808	0.01470
2445.53231	0.01486
2444.24654	0.01514
2442.96077	0.01533
2441.67500	0.01530
2440.38923	0.01500
2439.10346	0.01458
2437.81770	0.01430
2436.53193	0.01428
2435.24616	0.01441
2433.96039	0.01445
2432.67462	0.01439
2431.38885	0.01443
2430.10308	0.01470
2428.81731	0.01513
2427.53155	0.01548
2426.24578	0.01551
2424.96001	0.01514
2423.67424	0.01452
2422.38847	0.01401
2421.10270	0.01390
2419.81693	0.01419
2418.53116	0.01469
2417.24539	0.01512
2415.95963	0.01530
2414.67386	0.01516
2413.38809	0.01472
2412.10232	0.01421
2410.81655	0.01386
2409.53078	0.01379
2408.24501	0.01387
2406.95924	0.01393
2405.67347	0.01393
2404.38771	0.01396
2403.10194	0.01405
2401.81617	0.01408
2400.53040	0.01398
2399.24463	0.01382
2397.95886	0.01378
2396.67309	0.01387
2395.38732	0.01397
2394.10156	0.01396
2392.81579	0.01382
2391.53002	0.01356
2390.24425	0.01324
2388.95848	0.01296
2387.67271	0.01282
2386.38694	0.01290
2385.10117	0.01317
2383.81540	0.01348
2382.52964	0.01368
2381.24387	0.01375
2379.95810	0.01383
2378.67233	0.01395
2377.38656	0.01413
2376.10079	0.01432
2374.81502	0.01442
2373.52925	0.01420
2372.24349	0.01371
2370.95772	0.01328
2369.67195	0.01316
2368.38618	0.01337
2367.10041	0.01369
2365.81464	0.01403
2364.52887	0.01427
2363.24310	0.01440
2361.95733	0.01443
2360.67157	0.01437
2359.38580	0.01441
2358.10003	0.01469
2356.81426	0.01506
2355.52849	0.01537
2354.24272	0.01563
2352.95695	0.01577
2351.67118	0.01565
2350.38542	0.01539
2349.09965	0.01522
2347.81388	0.01506
2346.52811	0.01465
2345.24234	0.01432
2343.95657	0.01461
2342.67080	0.01528
2341.38503	0.01528
2340.09926	0.01469
2338.81350	0.01484
2337.52773	0.01561
2336.24196	0.01544
2334.95619	0.01467
2333.67042	0.01481
2332.38465	0.01545
2331.09888	0.01501
2329.81311	0.01466
2328.52735	0.01530
2327.24158	0.01573
2325.95581	0.01610
2324.67004	0.01691
2323.38427	0.01728
2322.09850	0.01681
2320.81273	0.01649
2319.52696	0.01620
2318.24119	0.01595
2316.95543	0.01595
2315.66966	0.01581
2314.38389	0.01561
2313.09812	0.01553
2311.81235	0.01533
2310.52658	0.01517
2309.24081	0.01501
2307.95504	0.01475
2306.66928	0.01456
2305.38351	0.01445
2304.09774	0.01445
2302.81197	0.01447
2301.52620	0.01436
2300.24043	0.01420
2298.95466	0.01408
2297.66889	0.01405
2296.38312	0.01408
2295.09736	0.01417
2293.81159	0.01442
2292.52582	0.01484
2291.24005	0.01529
2289.95428	0.01554
2288.66851	0.01541
2287.38274	0.01491
2286.09697	0.01419
2284.81121	0.01347
2283.52544	0.01295
2282.23967	0.01269
2280.95390	0.01267
2279.66813	0.01280
2278.38236	0.01297
2277.09659	0.01307
2275.81082	0.01302
2274.52505	0.01279
2273.23929	0.01245
2271.95352	0.01210
2270.66775	0.01181
2269.38198	0.01165
2268.09621	0.01180
2266.81044	0.01235
2265.52467	0.01307
2264.23890	0.01354
2262.95314	0.01348
2261.66737	0.01304
2260.38160	0.01260
2259.09583	0.01242
2257.81006	0.01244
2256.52429	0.01239
2255.23852	0.01202
2253.95275	0.01129
2252.66698	0.01046
2251.38122	0.01001
2250.09545	0.01039
2248.80968	0.01160
2247.52391	0.01278
2246.23814	0.01316
2244.95237	0.01239
2243.66660	0.01098
2242.38083	0.00975
2241.09507	0.00913
2239.80930	0.00898
2238.52353	0.00904
2237.23776	0.00922
2235.95199	0.00958
2234.66622	0.01006
2233.38045	0.01042
2232.09468	0.01050
2230.80891	0.01039
2229.52315	0.01030
2228.23738	0.01022
2226.95161	0.00991
2225.66584	0.00923
2224.38007	0.00845
2223.09430	0.00804
2221.80853	0.00820
2220.52276	0.00870
2219.23700	0.00918
2217.95123	0.00943
2216.66546	0.00947
2215.37969	0.00937
2214.09392	0.00923
2212.80815	0.00924
2211.52238	0.00930
2210.23661	0.00910
2208.95084	0.00861
2207.66508	0.00832
2206.37931	0.00860
2205.09354	0.00915
2203.80777	0.00928
2202.52200	0.00875
2201.23623	0.00800
2199.95046	0.00767
2198.66469	0.00806
2197.37893	0.00890
2196.09316	0.00959
2194.80739	0.00973
2193.52162	0.00940
2192.23585	0.00891
2190.95008	0.00846
2189.66431	0.00808
2188.37854	0.00773
2187.09277	0.00743
2185.80701	0.00715
2184.52124	0.00687
2183.23547	0.00646
2181.94970	0.00575
2180.66393	0.00481
2179.37816	0.00392
2178.09239	0.00332
2176.80662	0.00309
2175.52085	0.00323
2174.23509	0.00364
2172.94932	0.00415
2171.66355	0.00474
2170.37778	0.00564
2169.09201	0.00687
2167.80624	0.00794
2166.52047	0.00830
2165.23470	0.00821
2163.94894	0.00848
2162.66317	0.00923
2161.37740	0.00942
2160.09163	0.00799
2158.80586	0.00524
2157.52009	0.00252
2156.23432	0.00072
2154.94855	-0.00018
2153.66278	-0.00041
2152.37702	-0.00010
2151.09125	0.00059
2149.80548	0.00135
2148.51971	0.00186
2147.23394	0.00199
2145.94817	0.00193
2144.66240	0.00212
2143.37663	0.00291
2142.09087	0.00414
2140.80510	0.00515
2139.51933	0.00539
2138.23356	0.00492
2136.94779	0.00429
2135.66202	0.00411
2134.37625	0.00456
2133.09048	0.00529
2131.80471	0.00579
2130.51895	0.00590
2129.23318	0.00579
2127.94741	0.00573
2126.66164	0.00583
2125.37587	0.00594
2124.09010	0.00586
2122.80433	0.00549
2121.51856	0.00507
2120.23280	0.00497
2118.94703	0.00538
2117.66126	0.00610
2116.37549	0.00671
2115.08972	0.00702
2113.80395	0.00714
2112.51818	0.00729
2111.23241	0.00749
2109.94664	0.00759
2108.66088	0.00748
2107.37511	0.00719
2106.08934	0.00679
2104.80357	0.00633
2103.51780	0.00586
2102.23203	0.00544
2100.94626	0.00511
2099.66049	0.00424
2098.37473	0.00383
2097.08896	0.00378
2095.80319	0.00377
2094.51742	0.00387
2093.23165	0.00427
2091.94588	0.00495
2090.66011	0.00562
2089.37434	0.00591
2088.08857	0.00579
2086.80281	0.00557
2085.51704	0.00556
2084.23127	0.00581
2082.94550	0.00613
2081.65973	0.00628
2080.37396	0.00606
2079.08819	0.00537
2077.80242	0.00438
2076.51666	0.00354
2075.23089	0.00327
2073.94512	0.00366
2072.65935	0.00454
2071.37358	0.00561
2070.08781	0.00645
2068.80204	0.00659
2067.51627	0.00597
2066.23050	0.00506
2064.94474	0.00450
2063.65897	0.00448
2062.37320	0.00473
2061.08743	0.00491
2059.80166	0.00488
2058.51589	0.00465
2057.23012	0.00432
2055.94435	0.00408
2054.65859	0.00399
2053.37282	0.00383
2052.08705	0.00325
2050.80128	0.00215
2049.51551	0.00098
2048.22974	0.00029
2046.94397	0.00018
2045.65820	0.00024
2044.37243	0.00006
2043.08667	-0.00034
2041.80090	-0.00061
2040.51513	-0.00056
2039.22936	-0.00030
2037.94359	-0.00010
2036.65782	-0.00008
2035.37205	-0.00017
2034.08628	-0.00016
2032.80052	-0.00009
2031.51475	-0.00017
2030.22898	-0.00055
2028.94321	-0.00092
2027.65744	-0.00078
2026.37167	0.00003
2025.08590	0.00112
2023.80013	0.00194
2022.51436	0.00236
2021.22860	0.00250
2019.94283	0.00244
2018.65706	0.00203
2017.37129	0.00113
2016.08552	-0.00016
2014.79975	-0.00145
2013.51398	-0.00225
2012.22821	-0.00239
2010.94245	-0.00206
2009.65668	-0.00159
2008.37091	-0.00097
2007.08514	-0.00001
2005.79937	0.00125
2004.51360	0.00241
2003.22783	0.00320
2001.94206	0.00371
2000.65629	0.00420
1999.37053	0.00475
1998.08476	0.00520
1996.79899	0.00544
1995.51322	0.00547
1994.22745	0.00536
1992.94168	0.00519
1991.65591	0.00495
1990.37014	0.00463
1989.08438	0.00430
1987.79861	0.00405
1986.51284	0.00394
1985.22707	0.00384
1983.94130	0.00348
1982.65553	0.00273
1981.36976	0.00183
1980.08399	0.00122
1978.79822	0.00118
1977.51246	0.00152
1976.22669	0.00186
1974.94092	0.00196
1973.65515	0.00188
1972.36938	0.00178
1971.08361	0.00168
1969.79784	0.00148
1968.51207	0.00112
1967.22631	0.00068
1965.94054	0.00044
1964.65477	0.00070
1963.36900	0.00147
1962.08323	0.00239
1960.79746	0.00311
1959.51169	0.00350
1958.22592	0.00371
1956.94015	0.00380
1955.65439	0.00377
1954.36862	0.00361
1953.08285	0.00357
1951.79708	0.00391
1950.51131	0.00468
1949.22554	0.00552
1947.93977	0.00585
1946.65400	0.00548
1945.36823	0.00473
1944.08247	0.00417
1942.79670	0.00409
1941.51093	0.00435
1940.22516	0.00466
1938.93939	0.00495
1937.65362	0.00522
1936.36785	0.00540
1935.08208	0.00535
1933.79632	0.00516
1932.51055	0.00517
1931.22478	0.00564
1929.93901	0.00641
1928.65324	0.00704
1927.36747	0.00723
1926.08170	0.00704
1924.79593	0.00674
1923.51016	0.00657
1922.22440	0.00660
1920.93863	0.00675
1919.65286	0.00691
1918.36709	0.00704
1917.08132	0.00705
1915.79555	0.00688
1914.50978	0.00655
1913.22401	0.00629
1911.93825	0.00633
1910.65248	0.00672
1909.36671	0.00719
1908.08094	0.00741
1906.79517	0.00725
1905.50940	0.00689
1904.22363	0.00665
1902.93786	0.00666
1901.65209	0.00683
1900.36633	0.00700
1899.08056	0.00708
1897.79479	0.00711
1896.50902	0.00706
1895.22325	0.00690
1893.93748	0.00654
1892.65171	0.00605
1891.36594	0.00557
1890.08018	0.00533
1888.79441	0.00547
1887.50864	0.00590
1886.22287	0.00637
1884.93710	0.00665
1883.65133	0.00670
1882.36556	0.00660
1881.07979	0.00647
1879.79402	0.00638
1878.50826	0.00635
1877.22249	0.00633
1875.93672	0.00629
1874.65095	0.00626
1873.36518	0.00633
1872.07941	0.00654
1870.79364	0.00684
1869.50787	0.00707
1868.22211	0.00713
1866.93634	0.00696
1865.65057	0.00667
1864.36480	0.00641
1863.07903	0.00630
1861.79326	0.00634
1860.50749	0.00646
1859.22172	0.00659
1857.93595	0.00672
1856.65019	0.00686
1855.36442	0.00701
1854.07865	0.00713
1852.79288	0.00715
1851.50711	0.00707
1850.22134	0.00695
1848.93557	0.00684
1847.64980	0.00679
1846.36404	0.00679
1845.07827	0.00686
1843.79250	0.00696
1842.50673	0.00703
1841.22096	0.00705
1839.93519	0.00705
1838.64942	0.00714
1837.36365	0.00734
1836.07788	0.00756
1834.79212	0.00766
1833.50635	0.00762
1832.22058	0.00751
1830.93481	0.00742
1829.64904	0.00733
1828.36327	0.00721
1827.07750	0.00700
1825.79173	0.00673
1824.50597	0.00651
1823.22020	0.00643
1821.93443	0.00653
1820.64866	0.00673
1819.36289	0.00694
1818.07712	0.00711
1816.79135	0.00726
1815.50558	0.00739
1814.21981	0.00747
1812.93405	0.00752
1811.64828	0.00763
1810.36251	0.00783
1809.07674	0.00805
1807.79097	0.00822
1806.50520	0.00830
1805.21943	0.00836
1803.93366	0.00839
1802.64790	0.00838
1801.36213	0.00832
1800.07636	0.00822
1798.79059	0.00814
1797.50482	0.00806
1796.21905	0.00799
1794.93328	0.00796
1793.64751	0.00802
1792.36174	0.00820
1791.07598	0.00842
1789.79021	0.00860
1788.50444	0.00870
1787.21867	0.00872
1785.93290	0.00869
1784.64713	0.00861
1783.36136	0.00851
1782.07559	0.00847
1780.78983	0.00850
1779.50406	0.00857
1778.21829	0.00858
1776.93252	0.00850
1775.64675	0.00845
1774.36098	0.00849
1773.07521	0.00864
1771.78944	0.00884
1770.50367	0.00905
1769.21791	0.00927
1767.93214	0.00949
1766.64637	0.00963
1765.36060	0.00964
1764.07483	0.00955
1762.78906	0.00947
1761.50329	0.00953
1760.21752	0.00969
1758.93176	0.00983
1757.64599	0.00985
1756.36022	0.00975
1755.07445	0.00965
1753.78868	0.00963
1752.50291	0.00970
1751.21714	0.00982
1749.93137	0.00994
1748.64560	0.01004
1747.35984	0.01009
1746.07407	0.01010
1744.78830	0.01010
1743.50253	0.01014
1742.21676	0.01025
1740.93099	0.01038
1739.64522	0.01046
1738.35945	0.01049
1737.07369	0.01049
1735.78792	0.01050
1734.50215	0.01058
1733.21638	0.01072
1731.93061	0.01091
1730.64484	0.01111
1729.35907	0.01128
1728.07330	0.01142
1726.78753	0.01155
1725.50177	0.01172
1724.21600	0.01195
1722.93023	0.01223
1721.64446	0.01247
1720.35869	0.01260
1719.07292	0.01261
1717.78715	0.01260
1716.50138	0.01269
1715.21561	0.01291
1713.92985	0.01319
1712.64408	0.01343
1711.35831	0.01358
1710.07254	0.01371
1708.78677	0.01386
1707.50100	0.01402
1706.21523	0.01418
1704.92946	0.01436
1703.64370	0.01460
1702.35793	0.01494
1701.07216	0.01535
1699.78639	0.01576
1698.50062	0.01613
1697.21485	0.01646
1695.92908	0.01679
1694.64331	0.01714
1693.35754	0.01751
1692.07178	0.01788
1690.78601	0.01822
1689.50024	0.01850
1688.21447	0.01872
1686.92870	0.01889
1685.64293	0.01908
1684.35716	0.01936
1683.07139	0.01977
1681.78563	0.02027
1680.49986	0.02076
1679.21409	0.02116
1677.92832	0.02148
1676.64255	0.02181
1675.35678	0.02219
1674.07101	0.02258
1672.78524	0.02293
1671.49947	0.02324
1670.21371	0.02354
1668.92794	0.02389
1667.64217	0.02427
1666.35640	0.02460
1665.07063	0.02490
1663.78486	0.02516
1662.49909	0.02543
1661.21332	0.02569
1659.92756	0.02593
1658.64179	0.02613
1657.35602	0.02629
1656.07025	0.02642
1654.78448	0.02655
1653.49871	0.02671
1652.21294	0.02693
1650.92717	0.02720
1649.64140	0.02747
1648.35564	0.02769
1647.06987	0.02786
1645.78410	0.02801
1644.49833	0.02816
1643.21256	0.02827
1641.92679	0.02831
1640.64102	0.02832
1639.35525	0.02831
1638.06949	0.02831
1636.78372	0.02830
1635.49795	0.02830
1634.21218	0.02835
1632.92641	0.02849
1631.64064	0.02868
1630.35487	0.02886
1629.06910	0.02897
1627.78333	0.02903
1626.49757	0.02902
1625.21180	0.02901
1623.92603	0.02902
1622.64026	0.02908
1621.35449	0.02919
1620.06872	0.02932
1618.78295	0.02941
1617.49718	0.02948
1616.21142	0.02952
1614.92565	0.02956
1613.63988	0.02963
1612.35411	0.02973
1611.06834	0.02987
1609.78257	0.03001
1608.49680	0.03016
1607.21103	0.03034
1605.92526	0.03054
1604.63950	0.03076
1603.35373	0.03100
1602.06796	0.03124
1600.78219	0.03147
1599.49642	0.03166
1598.21065	0.03183
1596.92488	0.03200
1595.63911	0.03218
1594.35335	0.03236
1593.06758	0.03251
1591.78181	0.03268
1590.49604	0.03286
1589.21027	0.03306
1587.92450	0.03325
1586.63873	0.03343
1585.35296	0.03359
1584.06719	0.03375
1582.78143	0.03394
1581.49566	0.03417
1580.20989	0.03441
1578.92412	0.03461
1577.63835	0.03478
1576.35258	0.03494
1575.06681	0.03510
1573.78104	0.03525
1572.49528	0.03536
1571.20951	0.03545
1569.92374	0.03556
1568.63797	0.03571
1567.35220	0.03590
1566.06643	0.03608
1564.78066	0.03625
1563.49489	0.03635
1562.20912	0.03637
1560.92336	0.03635
1559.63759	0.03636
1558.35182	0.03648
1557.06605	0.03667
1555.78028	0.03687
1554.49451	0.03703
1553.20874	0.03715
1551.92297	0.03724
1550.63721	0.03731
1549.35144	0.03732
1548.06567	0.03727
1546.77990	0.03714
1545.49413	0.03696
1544.20836	0.03677
1542.92259	0.03661
1541.63682	0.03649
1540.35105	0.03642
1539.06529	0.03639
1537.77952	0.03636
1536.49375	0.03631
1535.20798	0.03625
1533.92221	0.03625
1532.63644	0.03634
1531.35067	0.03650
1530.06490	0.03670
1528.77914	0.03692
1527.49337	0.03718
1526.20760	0.03748
1524.92183	0.03782
1523.63606	0.03820
1522.35029	0.03864
1521.06452	0.03916
1519.77875	0.03976
1518.49298	0.04043
1517.20722	0.04114
1515.92145	0.04187
1514.63568	0.04261
1513.34991	0.04336
1512.06414	0.04414
1510.77837	0.04497
1509.49260	0.04582
1508.20683	0.04670
1506.92107	0.04758
1505.63530	0.04846
1504.34953	0.04929
1503.06376	0.05004
1501.77799	0.05068
1500.49222	0.05127
1499.20645	0.05186
1497.92068	0.05246
1496.63491	0.05305
1495.34915	0.05359
1494.06338	0.05407
1492.77761	0.05452
1491.49184	0.05499
1490.20607	0.05552
1488.92030	0.05611
1487.63453	0.05676
1486.34876	0.05744
1485.06299	0.05815
1483.77723	0.05888
1482.49146	0.05962
1481.20569	0.06037
1479.91992	0.06110
1478.63415	0.06182
1477.34838	0.06252
1476.06261	0.06314
1474.77684	0.06366
1473.49108	0.06409
1472.20531	0.06449
1470.91954	0.06490
1469.63377	0.06527
1468.34800	0.06556
1467.06223	0.06577
1465.77646	0.06590
1464.49069	0.06598
1463.20492	0.06607
1461.91916	0.06617
1460.63339	0.06632
1459.34762	0.06652
1458.06185	0.06677
1456.77608	0.06708
1455.49031	0.06749
1454.20454	0.06799
1452.91877	0.06853
1451.63301	0.06904
1450.34724	0.06942
1449.06147	0.06965
1447.77570	0.06975
1446.48993	0.06977
1445.20416	0.06975
1443.91839	0.06972
1442.63262	0.06969
1441.34685	0.06964
1440.06109	0.06959
1438.77532	0.06954
1437.48955	0.06953
1436.20378	0.06959
1434.91801	0.06977
1433.63224	0.07008
1432.34647	0.07054
1431.06070	0.07115
1429.77494	0.07189
1428.48917	0.07274
1427.20340	0.07366
1425.91763	0.07462
1424.63186	0.07560
1423.34609	0.07657
1422.06032	0.07749
1420.77455	0.07836
1419.48878	0.07915
1418.20302	0.07986
1416.91725	0.08047
1415.63148	0.08096
1414.34571	0.08129
1413.05994	0.08144
1411.77417	0.08142
1410.48840	0.08124
1409.20263	0.08092
1407.91687	0.08048
1406.63110	0.07992
1405.34533	0.07919
1404.05956	0.07828
1402.77379	0.07721
1401.48802	0.07603
1400.20225	0.07480
1398.91648	0.07355
1397.63071	0.07229
1396.34495	0.07099
1395.05918	0.06964
1393.77341	0.06822
1392.48764	0.06674
1391.20187	0.06521
1389.91610	0.06369
1388.63033	0.06220
1387.34456	0.06074
1386.05880	0.05927
1384.77303	0.05776
1383.48726	0.05624
1382.20149	0.05475
1380.91572	0.05329
1379.62995	0.05181
1378.34418	0.05027
1377.05841	0.04869
1375.77264	0.04707
1374.48688	0.04548
1373.20111	0.04395
1371.91534	0.04252
1370.62957	0.04119
1369.34380	0.03990
1368.05803	0.03865
1366.77226	0.03745
1365.48649	0.03633
1364.20073	0.03530
1362.91496	0.03432
1361.62919	0.03336
1360.34342	0.03242
1359.05765	0.03149
1357.77188	0.03062
1356.48611	0.02984
1355.20034	0.02915
1353.91457	0.02853
1352.62881	0.02793
1351.34304	0.02729
1350.05727	0.02661
1348.77150	0.02592
1347.48573	0.02527
1346.19996	0.02468
1344.91419	0.02416
1343.62842	0.02370
1342.34266	0.02329
1341.05689	0.02290
1339.77112	0.02252
1338.48535	0.02220
1337.19958	0.02194
1335.91381	0.02172
1334.62804	0.02148
1333.34227	0.02122
1332.05650	0.02097
1330.77074	0.02077
1329.48497	0.02058
1328.19920	0.02037
1326.91343	0.02012
1325.62766	0.01985
1324.34189	0.01960
1323.05612	0.01939
1321.77035	0.01919
1320.48459	0.01899
1319.19882	0.01877
1317.91305	0.01855
1316.62728	0.01834
1315.34151	0.01817
1314.05574	0.01805
1312.76997	0.01792
1311.48420	0.01776
1310.19843	0.01755
1308.91267	0.01735
1307.62690	0.01719
1306.34113	0.01707
1305.05536	0.01697
1303.76959	0.01686
1302.48382	0.01672
1301.19805	0.01657
1299.91228	0.01644
1298.62652	0.01637
1297.34075	0.01634
1296.05498	0.01629
1294.76921	0.01618
1293.48344	0.01604
1292.19767	0.01594
1290.91190	0.01591
1289.62613	0.01590
1288.34036	0.01585
1287.05460	0.01574
1285.76883	0.01560
1284.48306	0.01545
1283.19729	0.01534
1281.91152	0.01527
1280.62575	0.01523
1279.33998	0.01519
1278.05421	0.01513
1276.76845	0.01507
1275.48268	0.01501
1274.19691	0.01497
1272.91114	0.01491
1271.62537	0.01483
1270.33960	0.01471
1269.05383	0.01458
1267.76806	0.01446
1266.48229	0.01439
1265.19653	0.01437
1263.91076	0.01437
1262.62499	0.01434
1261.33922	0.01427
1260.05345	0.01417
1258.76768	0.01409
1257.48191	0.01405
1256.19614	0.01406
1254.91037	0.01407
1253.62461	0.01403
1252.33884	0.01393
1251.05307	0.01378
1249.76730	0.01365
1248.48153	0.01357
1247.19576	0.01356
1245.90999	0.01359
1244.62422	0.01362
1243.33846	0.01362
1242.05269	0.01359
1240.76692	0.01352
1239.48115	0.01343
1238.19538	0.01332
1236.90961	0.01322
1235.62384	0.01316
1234.33807	0.01314
1233.05230	0.01316
1231.76654	0.01318
1230.48077	0.01316
1229.19500	0.01310
1227.90923	0.01301
1226.62346	0.01294
1225.33769	0.01290
1224.05192	0.01289
1222.76615	0.01287
1221.48039	0.01287
1220.19462	0.01286
1218.90885	0.01285
1217.62308	0.01279
1216.33731	0.01271
1215.05154	0.01263
1213.76577	0.01260
1212.48000	0.01260
1211.19423	0.01259
1209.90847	0.01254
1208.62270	0.01246
1207.33693	0.01239
1206.05116	0.01238
1204.76539	0.01245
1203.47962	0.01256
1202.19385	0.01266
1200.90808	0.01275
1199.62232	0.01282
1198.33655	0.01276
1197.05078	0.01273
1195.76501	0.01272
1194.47924	0.01274
1193.19347	0.01277
1191.90770	0.01281
1190.62193	0.01285
1189.33616	0.01287
1188.05040	0.01286
1186.76463	0.01284
1185.47886	0.01283
1184.19309	0.01287
1182.90732	0.01292
1181.62155	0.01296
1180.33578	0.01300
1179.05001	0.01306
1177.76425	0.01311
1176.47848	0.01313
1175.19271	0.01314
1173.90694	0.01318
1172.62117	0.01328
1171.33540	0.01342
1170.04963	0.01357
1168.76386	0.01368
1167.47809	0.01377
1166.19233	0.01386
1164.90656	0.01396
1163.62079	0.01410
1162.33502	0.01425
1161.04925	0.01439
1159.76348	0.01453
1158.47771	0.01470
1157.19194	0.01492
1155.90618	0.01516
1154.62041	0.01537
1153.33464	0.01556
1152.04887	0.01579
1150.76310	0.01613
1149.47733	0.01657
1148.19156	0.01704
1146.90579	0.01751
1145.62002	0.01801
1144.33426	0.01857
1143.04849	0.01921
1141.76272	0.01989
1140.47695	0.02063
1139.19118	0.02143
1137.90541	0.02231
1136.61964	0.02326
1135.33387	0.02429
1134.04811	0.02543
1132.76234	0.02669
1131.47657	0.02808
1130.19080	0.02964
1128.90503	0.03141
1127.61926	0.03341
1126.33349	0.03556
1125.04772	0.03780
1123.76195	0.04009
1122.47619	0.04247
1121.19042	0.04497
1119.90465	0.04756
1118.61888	0.05021
1117.33311	0.05293
1116.04734	0.05572
1114.76157	0.05850
1113.47580	0.06119
1112.19004	0.06376
1110.90427	0.06629
1109.61850	0.06879
1108.33273	0.07120
1107.04696	0.07346
1105.76119	0.07559
1104.47542	0.07768
1103.18965	0.07982
1101.90388	0.08201
1100.61812	0.08422
1099.33235	0.08638
1098.04658	0.08845
1096.76081	0.09040
1095.47504	0.09223
1094.18927	0.09393
1092.90350	0.09552
1091.61773	0.09708
1090.33197	0.09864
1089.04620	0.10019
1087.76043	0.10165
1086.47466	0.10297
1085.18889	0.10420
1083.90312	0.10548
1082.61735	0.10695
1081.33158	0.10865
1080.04581	0.11051
1078.76005	0.11245
1077.47428	0.11445
1076.18851	0.11653
1074.90274	0.11869
1073.61697	0.12094
1072.33120	0.12328
1071.04543	0.12571
1069.75966	0.12819
1068.47390	0.13065
1067.18813	0.13316
1065.90236	0.13575
1064.61659	0.13844
1063.33082	0.14114
1062.04505	0.14377
1060.75928	0.14633
1059.47351	0.14884
1058.18774	0.15131
1056.90198	0.15371
1055.61621	0.15605
1054.33044	0.15836
1053.04467	0.16067
1051.75890	0.16299
1050.47313	0.16535
1049.18736	0.16777
1047.90159	0.17021
1046.61583	0.17267
1045.33006	0.17516
1044.04429	0.17770
1042.75852	0.18030
1041.47275	0.18291
1040.18698	0.18551
1038.90121	0.18805
1037.61544	0.19051
1036.32967	0.19286
1035.04391	0.19507
1033.75814	0.19712
1032.47237	0.19899
1031.18660	0.20072
1029.90083	0.20229
1028.61506	0.20362
1027.32929	0.20462
1026.04352	0.20525
1024.75775	0.20558
1023.47199	0.20563
1022.18622	0.20539
1020.90045	0.20477
1019.61468	0.20372
1018.32891	0.20224
1017.04314	0.20039
1015.75737	0.19818
1014.47160	0.19558
1013.18584	0.19258
1011.90007	0.18920
1010.61430	0.18553
1009.32853	0.18159
1008.04276	0.17741
1006.75699	0.17298
1005.47122	0.16831
1004.18545	0.16341
1002.89968	0.15829
1001.61392	0.15297
1000.32815	0.14753
999.04238	0.14206
997.75661	0.13666
996.47084	0.13136
995.18507	0.12612
993.89930	0.12090
992.61353	0.11571
991.32777	0.11063
990.04200	0.10575
988.75623	0.10116
987.47046	0.09685
986.18469	0.09280
984.89892	0.08896
983.61315	0.08532
982.32738	0.08188
981.04161	0.07866
979.75585	0.07568
978.47008	0.07296
977.18431	0.07050
975.89854	0.06834
974.61277	0.06652
973.32700	0.06507
972.04123	0.06403
970.75546	0.06343
969.46970	0.06330
968.18393	0.06358
966.89816	0.06415
965.61239	0.06489
964.32662	0.06571
963.04085	0.06648
961.75508	0.06701
960.46931	0.06710
959.18354	0.06665
957.89778	0.06573
956.61201	0.06446
955.32624	0.06291
954.04047	0.06117
952.75470	0.05932
951.46893	0.05748
950.18316	0.05573
948.89739	0.05406
947.61163	0.05244
946.32586	0.05085
945.04009	0.04928
943.75432	0.04775
942.46855	0.04628
941.18278	0.04489
939.89701	0.04359
938.61124	0.04239
937.32547	0.04131
936.03971	0.04037
934.75394	0.03954
933.46817	0.03879
932.18240	0.03807
930.89663	0.03735
929.61086	0.03665
928.32509	0.03598
927.03932	0.03535
925.75356	0.03473
924.46779	0.03414
923.18202	0.03363
921.89625	0.03323
920.61048	0.03291
919.32471	0.03261
918.03894	0.03223
916.75317	0.03178
915.46740	0.03134
914.18164	0.03100
912.89587	0.03074
911.61010	0.03049
910.32433	0.03023
909.03856	0.02999
907.75279	0.02980
906.46702	0.02961
905.18125	0.02936
903.89549	0.02909
902.60972	0.02887
901.32395	0.02873
900.03818	0.02866
898.75241	0.02863
897.46664	0.02861
896.18087	0.02857
894.89510	0.02848
893.60933	0.02835
892.32357	0.02824
891.03780	0.02825
889.75203	0.02846
888.46626	0.02893
887.18049	0.02966
885.89472	0.03069
884.60895	0.03210
883.32318	0.03397
882.03742	0.03619
880.75165	0.03845
879.46588	0.04037
878.18011	0.04180
876.89434	0.04288
875.60857	0.04391
874.32280	0.04502
873.03703	0.04602
871.75126	0.04660
870.46550	0.04652
869.17973	0.04576
867.89396	0.04450
866.60819	0.04293
865.32242	0.04119
864.03665	0.03938
862.75088	0.03760
861.46511	0.03598
860.17935	0.03455
858.89358	0.03331
857.60781	0.03224
856.32204	0.03139
855.03627	0.03076
853.75050	0.03026
852.46473	0.02978
851.17896	0.02930
849.89319	0.02885
848.60743	0.02849
847.32166	0.02822
846.03589	0.02803
844.75012	0.02787
843.46435	0.02770
842.17858	0.02751
840.89281	0.02731
839.60704	0.02711
838.32128	0.02689
837.03551	0.02666
835.74974	0.02645
834.46397	0.02627
833.17820	0.02614
831.89243	0.02605
830.60666	0.02600
829.32089	0.02597
828.03512	0.02595
826.74936	0.02595
825.46359	0.02594
824.17782	0.02590
822.89205	0.02583
821.60628	0.02578
820.32051	0.02579
819.03474	0.02580
817.74897	0.02572
816.46321	0.02552
815.17744	0.02529
813.89167	0.02517
812.60590	0.02520
811.32013	0.02535
810.03436	0.02552
808.74859	0.02564
807.46282	0.02565
806.17705	0.02562
804.89129	0.02558
803.60552	0.02554
802.31975	0.02545
801.03398	0.02529
799.74821	0.02511
798.46244	0.02496
797.17667	0.02485
795.89090	0.02478
794.60513	0.02472
793.31937	0.02472
792.03360	0.02481
790.74783	0.02501
789.46206	0.02525
788.17629	0.02545
786.89052	0.02553
785.60475	0.02547
784.31898	0.02531
783.03322	0.02511
781.74745	0.02497
780.46168	0.02493
779.17591	0.02502
777.89014	0.02519
776.60437	0.02538
775.31860	0.02548
774.03283	0.02546
772.74706	0.02536
771.46130	0.02523
770.17553	0.02513
768.88976	0.02508
767.60399	0.02507
766.31822	0.02507
765.03245	0.02502
763.74668	0.02492
762.46091	0.02482
761.17515	0.02482
759.88938	0.02497
758.60361	0.02524
757.31784	0.02552
756.03207	0.02570
754.74630	0.02574
753.46053	0.02573
752.17476	0.02570
750.88899	0.02564
749.60323	0.02557
748.31746	0.02554
747.03169	0.02556
745.74592	0.02560
744.46015	0.02558
743.17438	0.02548
741.88861	0.02531
740.60284	0.02513
739.31708	0.02507
738.03131	0.02522
736.74554	0.02550
735.45977	0.02572
734.17400	0.02576
732.88823	0.02565
731.60246	0.02547
730.31669	0.02531
729.03092	0.02527
727.74516	0.02536
726.45939	0.02550
725.17362	0.02555
723.88785	0.02541
722.60208	0.02534
721.31631	0.02542
720.03054	0.02559
718.74477	0.02580
717.45901	0.02594
716.17324	0.02598
714.88747	0.02597
713.60170	0.02594
712.31593	0.02590
711.03016	0.02586
709.74439	0.02582
708.45862	0.02579
707.17285	0.02579
705.88709	0.02581
704.60132	0.02583
703.31555	0.02587
702.02978	0.02593
700.74401	0.02601
699.45824	0.02609
698.17247	0.02614
696.88670	0.02613
695.60094	0.02607
694.31517	0.02602
693.02940	0.02604
691.74363	0.02612
690.45786	0.02621
689.17209	0.02627
687.88632	0.02630
686.60055	0.02632
685.31478	0.02635
684.02902	0.02635
682.74325	0.02632
681.45748	0.02626
680.17171	0.02619
678.88594	0.02614
677.60017	0.02608
676.31440	0.02598
675.02863	0.02587
673.74287	0.02578
672.45710	0.02579
671.17133	0.02589
669.88556	0.02604
668.59979	0.02617
667.31402	0.02626
666.02825	0.02621
664.74248	0.02608
663.45671	0.02593
662.17095	0.02582
660.88518	0.02577
659.59941	0.02576
658.31364	0.02577
657.02787	0.02578
655.74210	0.02575
654.45633	0.02570
653.17056	0.02566
651.88480	0.02568
650.59903	0.02577
649.31326	0.02588
648.02749	0.02596
646.74172	0.02597
645.45595	0.02594
644.17018	0.02594
642.88441	0.02604
641.59864	0.02626
640.31288	0.02655
639.02711	0.02682
637.74134	0.02702
636.45557	0.02720
635.16980	0.02742
633.88403	0.02770
632.59826	0.02805
631.31249	0.02838
630.02673	0.02835
628.74096	0.02820
627.45519	0.02947
626.16942	0.02918
624.88365	0.02758
623.59788	0.02596
622.31211	0.02550
621.02634	0.02694
619.74057	0.02995
618.45481	0.03355
617.16904	0.03701
615.88327	0.04014
614.59750	0.04305
613.31173	0.04610
612.02596	0.04962
610.74019	0.05361
609.45442	0.05764
608.16866	0.06130
606.88289	0.06460
605.59712	0.06769
604.31135	0.07052
603.02558	0.07283
601.73981	0.07434
600.45404	0.07484
599.16827	0.07437
597.88250	0.07311
596.59674	0.07135
595.31097	0.06934
594.02520	0.06728
592.73943	0.06542
591.45366	0.06404
590.16789	0.06338
588.88212	0.06348
587.59635	0.06414
586.31059	0.06513
585.02482	0.06630
583.73905	0.06768
582.45328	0.06934
581.16751	0.07130
579.88174	0.07349
578.59597	0.07581
577.31020	0.07809
576.02443	0.08016
574.73867	0.08196
573.45290	0.08362
572.16713	0.08529
570.88136	0.08707
569.59559	0.08899
568.30982	0.09108
567.02405	0.09341
565.73828	0.09589
564.45251	0.09820
563.16675	0.09984
561.88098	0.10042
560.59521	0.09975
559.30944	0.09779
558.02367	0.09462
556.73790	0.09045
555.45213	0.08558
554.16636	0.08041
552.88060	0.07539
551.59483	0.07081
550.30906	0.06678
549.02329	0.06321
547.73752	0.05996
546.45175	0.05696
545.16598	0.05424
543.88021	0.05191
542.59444	0.05002
541.30868	0.04849
540.02291	0.04715
538.73714	0.04582
537.45137	0.04443
536.16560	0.04300
534.87983	0.04157
533.59406	0.04020
532.30829	0.03897
531.02253	0.03792
529.73676	0.03702
528.45099	0.03623
527.16522	0.03551
525.87945	0.03481
524.59368	0.03412
523.30791	0.03346
522.02214	0.03281
520.73637	0.03218
519.45061	0.03156
518.16484	0.03094
516.87907	0.03030
515.59330	0.02966
514.30753	0.02909
513.02176	0.02866
511.73599	0.02837
510.45022	0.02815
509.16446	0.02790
507.87869	0.02754
506.59292	0.02710
505.30715	0.02667
504.02138	0.02631
502.73561	0.02603
501.44984	0.02578
500.16407	0.02552
498.87830	0.02531
497.59254	0.02519
496.30677	0.02511
495.02100	0.02495
493.73523	0.02465
492.44946	0.02430
491.16369	0.02405
489.87792	0.02396
488.59215	0.02395
487.30639	0.02391
486.02062	0.02383
484.73485	0.02380
483.44908	0.02389
482.16331	0.02405
480.87754	0.02414
479.59177	0.02411
478.30600	0.02401
477.02023	0.02398
475.73447	0.02414
474.44870	0.02447
473.16293	0.02485
471.87716	0.02512
470.59139	0.02519
469.30562	0.02508
468.01985	0.02484
466.73408	0.02451
465.44832	0.02413
464.16255	0.02378
462.87678	0.02353
461.59101	0.02337
460.30524	0.02323
459.01947	0.02301
457.73370	0.02272
456.44793	0.02240
455.16216	0.02210
453.87640	0.02183
452.59063	0.02158
451.30486	0.02137
450.01909	0.02122
448.73332	0.02111
447.44755	0.02105
446.16178	0.02102
444.87601	0.02097
443.59025	0.02085
442.30448	0.02066
441.01871	0.02047
439.73294	0.02033
438.44717	0.02027
437.16140	0.02025
435.87563	0.02022
434.58986	0.02016
433.30409	0.02007
432.01833	0.01996
430.73256	0.01986
429.44679	0.01978
428.16102	0.01971
426.87525	0.01962
425.58948	0.01949
424.30371	0.01936
423.01794	0.01927
421.73218	0.01923
420.44641	0.01919
419.16064	0.01912
417.87487	0.01901
416.58910	0.01887
415.30333	0.01870
414.01756	0.01854
412.73179	0.01847
411.44602	0.01848
410.16026	0.01857
408.87449	0.01867
407.58872	0.01875
406.30295	0.01880
405.01718	0.01884
403.73141	0.01889
402.44564	0.01897
401.15987	0.01909
399.87411	0.01922
