3997.45528	0.05794
3996.16951	0.05805
3994.88374	0.05809
3993.59798	0.05815
3992.31221	0.05809
3991.02644	0.05745
3989.74067	0.05613
3988.45490	0.05462
3987.16913	0.05373
3985.88336	0.05381
3984.59759	0.05460
3983.31183	0.05558
3982.02606	0.05636
3980.74029	0.05672
3979.45452	0.05648
3978.16875	0.05566
3976.88298	0.05455
3975.59721	0.05359
3974.31144	0.05316
3973.02567	0.05346
3971.73991	0.05440
3970.45414	0.05551
3969.16837	0.05625
3967.88260	0.05638
3966.59683	0.05614
3965.31106	0.05584
3964.02529	0.05554
3962.73952	0.05525
3961.45376	0.05512
3960.16799	0.05532
3958.88222	0.05577
3957.59645	0.05621
3956.31068	0.05652
3955.02491	0.05670
3953.73914	0.05670
3952.45337	0.05641
3951.16760	0.05589
3949.88184	0.05535
3948.59607	0.05500
3947.31030	0.05482
3946.02453	0.05460
3944.73876	0.05431
3943.45299	0.05416
3942.16722	0.05440
3940.88145	0.05503
3939.59569	0.05586
3938.30992	0.05658
3937.02415	0.05694
3935.73838	0.05687
3934.45261	0.05656
3933.16684	0.05639
3931.88107	0.05650
3930.59530	0.05664
3929.30953	0.05642
3928.02377	0.05575
3926.73800	0.05492
3925.45223	0.05436
3924.16646	0.05421
3922.88069	0.05429
3921.59492	0.05434
3920.30915	0.05428
3919.02338	0.05420
3917.73762	0.05415
3916.45185	0.05408
3915.16608	0.05391
3913.88031	0.05369
3912.59454	0.05359
3911.30877	0.05365
3910.02300	0.05370
3908.73723	0.05363
3907.45146	0.05358
3906.16570	0.05381
3904.87993	0.05422
3903.59416	0.05448
3902.30839	0.05439
3901.02262	0.05414
3899.73685	0.05399
3898.45108	0.05399
3897.16531	0.05403
3895.87955	0.05402
3894.59378	0.05388
3893.30801	0.05356
3892.02224	0.05305
3890.73647	0.05253
3889.45070	0.05226
3888.16493	0.05243
3886.87916	0.05295
3885.59339	0.05357
3884.30763	0.05406
3883.02186	0.05433
3881.73609	0.05434
3880.45032	0.05408
3879.16455	0.05356
3877.87878	0.05295
3876.59301	0.05245
3875.30724	0.05228
3874.02148	0.05255
3872.73571	0.05312
3871.44994	0.05370
3870.16417	0.05405
3868.87840	0.05422
3867.59263	0.05444
3866.30686	0.05479
3865.02109	0.05516
3863.73532	0.05527
3862.44956	0.05494
3861.16379	0.05421
3859.87802	0.05344
3858.59225	0.05310
3857.30648	0.05349
3856.02071	0.05429
3854.73494	0.05483
3853.44917	0.05469
3852.16341	0.05422
3850.87764	0.05409
3849.59187	0.05455
3848.30610	0.05519
3847.02033	0.05547
3845.73456	0.05524
3844.44879	0.05477
3843.16302	0.05433
3841.87725	0.05397
3840.59149	0.05360
3839.30572	0.05318
3838.01995	0.05277
3836.73418	0.05242
3835.44841	0.05209
3834.16264	0.05171
3832.87687	0.05122
3831.59110	0.05066
3830.30534	0.05017
3829.01957	0.04997
3827.73380	0.05011
3826.44803	0.05045
3825.16226	0.05077
3823.87649	0.05097
3822.59072	0.05108
3821.30495	0.05118
3820.01918	0.05139
3818.73342	0.05176
3817.44765	0.05204
3816.16188	0.05187
3814.87611	0.05110
3813.59034	0.05011
3812.30457	0.04953
3811.01880	0.04983
3809.73303	0.05089
3808.44726	0.05215
3807.16150	0.05303
3805.87573	0.05346
3804.58996	0.05374
3803.30419	0.05407
3802.01842	0.05421
3800.73265	0.05380
3799.44688	0.05281
3798.16111	0.05165
3796.87535	0.05079
3795.58958	0.05041
3794.30381	0.05039
3793.01804	0.05048
3791.73227	0.05052
3790.44650	0.05049
3789.16073	0.05047
3787.87496	0.05049
3786.58919	0.05054
3785.30343	0.05061
3784.01766	0.05075
3782.73189	0.05103
3781.44612	0.05140
3780.16035	0.05167
3778.87458	0.05160
3777.58881	0.05109
3776.30304	0.05028
3775.01728	0.04953
3773.73151	0.04921
3772.44574	0.04939
3771.15997	0.04978
3769.87420	0.04996
3768.58843	0.04972
3767.30266	0.04927
3766.01689	0.04901
3764.73112	0.04913
3763.44536	0.04957
3762.15959	0.05006
3760.87382	0.05030
3759.58805	0.05011
3758.30228	0.04960
3757.01651	0.04908
3755.73074	0.04897
3754.44497	0.04951
3753.15921	0.05063
3751.87344	0.05183
3750.58767	0.05241
3749.30190	0.05203
3748.01613	0.05102
3746.73036	0.05015
3745.44459	0.04983
3744.15882	0.04989
3742.87305	0.04989
3741.58729	0.04974
3740.30152	0.04972
3739.01575	0.05008
3737.72998	0.05064
3736.44421	0.05097
3735.15844	0.05078
3733.87267	0.05012
3732.58690	0.04933
3731.30114	0.04857
3730.01537	0.04787
3728.72960	0.04740
3727.44383	0.04747
3726.15806	0.04825
3724.87229	0.04942
3723.58652	0.05039
3722.30075	0.05068
3721.01498	0.05019
3719.72922	0.04912
3718.44345	0.04796
3717.15768	0.04718
3715.87191	0.04687
3714.58614	0.04668
3713.30037	0.04631
3712.01460	0.04586
3710.72883	0.04570
3709.44307	0.04595
3708.15730	0.04635
3706.87153	0.04664
3705.58576	0.04690
3704.29999	0.04739
3703.01422	0.04808
3701.72845	0.04867
3700.44268	0.04890
3699.15691	0.04883
3697.87115	0.04871
3696.58538	0.04854
3695.29961	0.04810
3694.01384	0.04734
3692.72807	0.04666
3691.44230	0.04655
3690.15653	0.04709
3688.87076	0.04785
3687.58500	0.04835
3686.29923	0.04850
3685.01346	0.04856
3683.72769	0.04865
3682.44192	0.04866
3681.15615	0.04846
3679.87038	0.04802
3678.58461	0.04745
3677.29884	0.04691
3676.01308	0.04662
3674.72731	0.04677
3673.44154	0.04738
3672.15577	0.04830
3670.87000	0.04930
3669.58423	0.05020
3668.29846	0.05079
3667.01269	0.05092
3665.72693	0.05060
3664.44116	0.05009
3663.15539	0.04976
3661.86962	0.04984
3660.58385	0.05025
3659.29808	0.05071
3658.01231	0.05106
3656.72654	0.05126
3655.44077	0.05133
3654.15501	0.05122
3652.86924	0.05102
3651.58347	0.05096
3650.29770	0.05109
3649.01193	0.05116
3647.72616	0.05086
3646.44039	0.05020
3645.15462	0.04948
3643.86886	0.04899
3642.58309	0.04879
3641.29732	0.04889
3640.01155	0.04924
3638.72578	0.04983
3637.44001	0.05064
3636.15424	0.05163
3634.86847	0.05263
3633.58270	0.05348
3632.29694	0.05415
3631.01117	0.05473
3629.72540	0.05513
3628.43963	0.05512
3627.15386	0.05470
3625.86809	0.05431
3624.58232	0.05439
3623.29655	0.05494
3622.01079	0.05551
3620.72502	0.05581
3619.43925	0.05583
3618.15348	0.05576
3616.86771	0.05575
3615.58194	0.05581
3614.29617	0.05587
3613.01040	0.05579
3611.72463	0.05552
3610.43887	0.05516
3609.15310	0.05487
3607.86733	0.05476
3606.58156	0.05489
3605.29579	0.05527
3604.01002	0.05583
3602.72425	0.05642
3601.43848	0.05708
3600.15272	0.05794
3598.86695	0.05892
3597.58118	0.05965
3596.29541	0.05988
3595.00964	0.05981
3593.72387	0.05986
3592.43810	0.06030
3591.15233	0.06109
3589.86656	0.06209
3588.58080	0.06311
3587.29503	0.06386
3586.00926	0.06414
3584.72349	0.06408
3583.43772	0.06400
3582.15195	0.06398
3580.86618	0.06376
3579.58041	0.06311
3578.29464	0.06226
3577.00888	0.06185
3575.72311	0.06236
3574.43734	0.06365
3573.15157	0.06511
3571.86580	0.06622
3570.58003	0.06682
3569.29426	0.06711
3568.00849	0.06726
3566.72273	0.06730
3565.43696	0.06719
3564.15119	0.06690
3562.86542	0.06654
3561.57965	0.06629
3560.29388	0.06634
3559.00811	0.06678
3557.72234	0.06754
3556.43657	0.06835
3555.15081	0.06888
3553.86504	0.06894
3552.57927	0.06854
3551.29350	0.06788
3550.00773	0.06729
3548.72196	0.06711
3547.43619	0.06757
3546.15042	0.06858
3544.86466	0.06975
3543.57889	0.07066
3542.29312	0.07110
3541.00735	0.07116
3539.72158	0.07108
3538.43581	0.07111
3537.15004	0.07130
3535.86427	0.07149
3534.57850	0.07155
3533.29274	0.07162
3532.00697	0.07198
3530.72120	0.07271
3529.43543	0.07354
3528.14966	0.07412
3526.86389	0.07444
3525.57812	0.07473
3524.29235	0.07516
3523.00659	0.07571
3521.72082	0.07617
3520.43505	0.07640
3519.14928	0.07636
3517.86351	0.07614
3516.57774	0.07586
3515.29197	0.07573
3514.00620	0.07589
3512.72043	0.07639
3511.43467	0.07713
3510.14890	0.07788
3508.86313	0.07837
3507.57736	0.07842
3506.29159	0.07808
3505.00582	0.07764
3503.72005	0.07744
3502.43428	0.07764
3501.14852	0.07806
3499.86275	0.07840
3498.57698	0.07841
3497.29121	0.07805
3496.00544	0.07760
3494.71967	0.07744
3493.43390	0.07781
3492.14813	0.07856
3490.86236	0.07937
3489.57660	0.08006
3488.29083	0.08075
3487.00506	0.08161
3485.71929	0.08257
3484.43352	0.08331
3483.14775	0.08358
3481.86198	0.08343
3480.57621	0.08308
3479.29045	0.08274
3478.00468	0.08251
3476.71891	0.08239
3475.43314	0.08241
3474.14737	0.08254
3472.86160	0.08278
3471.57583	0.08304
3470.29006	0.08327
3469.00429	0.08347
3467.71853	0.08363
3466.43276	0.08374
3465.14699	0.08378
3463.86122	0.08380
3462.57545	0.08386
3461.28968	0.08401
3460.00391	0.08424
3458.71814	0.08451
3457.43238	0.08478
3456.14661	0.08500
3454.86084	0.08513
3453.57507	0.08525
3452.28930	0.08545
3451.00353	0.08573
3449.71776	0.08594
3448.43199	0.08595
3447.14622	0.08585
3445.86046	0.08591
3444.57469	0.08628
3443.28892	0.08683
3442.00315	0.08722
3440.71738	0.08726
3439.43161	0.08703
3438.14584	0.08676
3436.86007	0.08667
3435.57431	0.08682
3434.28854	0.08719
3433.00277	0.08772
3431.71700	0.08834
3430.43123	0.08892
3429.14546	0.08930
3427.85969	0.08929
3426.57392	0.08892
3425.28815	0.08847
3424.00239	0.08837
3422.71662	0.08879
3421.43085	0.08953
3420.14508	0.09020
3418.85931	0.09045
3417.57354	0.09025
3416.28777	0.08987
3415.00200	0.08964
3413.71624	0.08968
3412.43047	0.08982
3411.14470	0.08983
3409.85893	0.08979
3408.57316	0.08996
3407.28739	0.09049
3406.00162	0.09118
3404.71585	0.09165
3403.43008	0.09166
3402.14432	0.09136
3400.85855	0.09110
3399.57278	0.09109
3398.28701	0.09124
3397.00124	0.09138
3395.71547	0.09152
3394.42970	0.09182
3393.14393	0.09228
3391.85817	0.09269
3390.57240	0.09279
3389.28663	0.09257
3388.00086	0.09229
3386.71509	0.09220
3385.42932	0.09235
3384.14355	0.09260
3382.85778	0.09281
3381.57201	0.09299
3380.28625	0.09315
3379.00048	0.09325
3377.71471	0.09320
3376.42894	0.09299
3375.14317	0.09271
3373.85740	0.09247
3372.57163	0.09232
3371.28586	0.09228
3370.00010	0.09241
3368.71433	0.09273
3367.42856	0.09323
3366.14279	0.09377
3364.85702	0.09415
3363.57125	0.09427
3362.28548	0.09420
3360.99971	0.09410
3359.71394	0.09405
3358.42818	0.09403
3357.14241	0.09402
3355.85664	0.09408
3354.57087	0.09429
3353.28510	0.09456
3351.99933	0.09467
3350.71356	0.09449
3349.42779	0.09410
3348.14202	0.09373
3346.85626	0.09354
3345.57049	0.09365
3344.28472	0.09404
3342.99895	0.09455
3341.71318	0.09486
3340.42741	0.09475
3339.14164	0.09431
3337.85587	0.09389
3336.57011	0.09378
3335.28434	0.09401
3333.99857	0.09434
3332.71280	0.09453
3331.42703	0.09445
3330.14126	0.09421
3328.85549	0.09399
3327.56972	0.09389
3326.28395	0.09393
3324.99819	0.09407
3323.71242	0.09431
3322.42665	0.09450
3321.14088	0.09447
3319.85511	0.09422
3318.56934	0.09399
3317.28357	0.09407
3315.99780	0.09443
3314.71204	0.09475
3313.42627	0.09469
3312.14050	0.09421
3310.85473	0.09362
3309.56896	0.09327
3308.28319	0.09328
3306.99742	0.09349
3305.71165	0.09372
3304.42588	0.09404
3303.14012	0.09452
3301.85435	0.09502
3300.56858	0.09517
3299.28281	0.09482
3297.99704	0.09424
3296.71127	0.09385
3295.42550	0.09378
3294.13973	0.09382
3292.85397	0.09366
3291.56820	0.09322
3290.28243	0.09270
3288.99666	0.09241
3287.71089	0.09247
3286.42512	0.09265
3285.13935	0.09263
3283.85358	0.09234
3282.56781	0.09191
3281.28205	0.09149
3279.99628	0.09114
3278.71051	0.09090
3277.42474	0.09090
3276.13897	0.09117
3274.85320	0.09155
3273.56743	0.09180
3272.28166	0.09175
3270.99590	0.09143
3269.71013	0.09104
3268.42436	0.09085
3267.13859	0.09098
3265.85282	0.09131
3264.56705	0.09161
3263.28128	0.09174
3261.99551	0.09172
3260.70974	0.09171
3259.42398	0.09179
3258.13821	0.09187
3256.85244	0.09175
3255.56667	0.09141
3254.28090	0.09104
3252.99513	0.09089
3251.70936	0.09092
3250.42359	0.09089
3249.13783	0.09070
3247.85206	0.09048
3246.56629	0.09045
3245.28052	0.09064
3243.99475	0.09092
3242.70898	0.09122
3241.42321	0.09153
3240.13744	0.09178
3238.85167	0.09190
3237.56591	0.09183
3236.28014	0.09169
3234.99437	0.09160
3233.70860	0.09156
3232.42283	0.09148
3231.13706	0.09127
3229.85129	0.09089
3228.56552	0.09040
3227.27976	0.08994
3225.99399	0.08966
3224.70822	0.08963
3223.42245	0.08977
3222.13668	0.08996
3220.85091	0.09005
3219.56514	0.08989
3218.27937	0.08939
3216.99360	0.08862
3215.70784	0.08788
3214.42207	0.08745
3213.13630	0.08736
3211.85053	0.08744
3210.56476	0.08753
3209.27899	0.08754
3207.99322	0.08750
3206.70745	0.08753
3205.42169	0.08782
3204.13592	0.08835
3202.85015	0.08887
3201.56438	0.08902
3200.27861	0.08867
3198.99284	0.08797
3197.70707	0.08727
3196.42130	0.08679
3195.13553	0.08662
3193.84977	0.08673
3192.56400	0.08708
3191.27823	0.08753
3189.99246	0.08789
3188.70669	0.08797
3187.42092	0.08778
3186.13515	0.08750
3184.84938	0.08725
3183.56362	0.08707
3182.27785	0.08689
3180.99208	0.08668
3179.70631	0.08648
3178.42054	0.08634
3177.13477	0.08625
3175.84900	0.08613
3174.56323	0.08593
3173.27746	0.08565
3171.99170	0.08536
3170.70593	0.08511
3169.42016	0.08495
3168.13439	0.08487
3166.84862	0.08477
3165.56285	0.08457
3164.27708	0.08428
3162.99131	0.08406
3161.70555	0.08398
3160.41978	0.08390
3159.13401	0.08356
3157.84824	0.08283
3156.56247	0.08198
3155.27670	0.08143
3153.99093	0.08144
3152.70516	0.08188
3151.41939	0.08233
3150.13363	0.08249
3148.84786	0.08236
3147.56209	0.08218
3146.27632	0.08216
3144.99055	0.08231
3143.70478	0.08253
3142.41901	0.08268
3141.13324	0.08268
3139.84748	0.08253
3138.56171	0.08223
3137.27594	0.08184
3135.99017	0.08140
3134.70440	0.08099
3133.41863	0.08068
3132.13286	0.08045
3130.84709	0.08028
3129.56132	0.08012
3128.27556	0.07993
3126.98979	0.07974
3125.70402	0.07963
3124.41825	0.07971
3123.13248	0.07994
3121.84671	0.08016
3120.56094	0.08024
3119.27517	0.08013
3117.98940	0.07987
3116.70364	0.07956
3115.41787	0.07930
3114.13210	0.07910
3112.84633	0.07895
3111.56056	0.07881
3110.27479	0.07867
3108.98902	0.07857
3107.70325	0.07857
3106.41749	0.07867
3105.13172	0.07875
3103.84595	0.07868
3102.56018	0.07847
3101.27441	0.07825
3099.98864	0.07813
3098.70287	0.07804
3097.41710	0.07790
3096.13133	0.07773
3094.84557	0.07759
3093.55980	0.07743
3092.27403	0.07717
3090.98826	0.07685
3089.70249	0.07672
3088.41672	0.07694
3087.13095	0.07732
3085.84518	0.07750
3084.55942	0.07724
3083.27365	0.07669
3081.98788	0.07614
3080.70211	0.07581
3079.41634	0.07569
3078.13057	0.07560
3076.84480	0.07538
3075.55903	0.07500
3074.27326	0.07465
3072.98750	0.07456
3071.70173	0.07481
3070.41596	0.07523
3069.13019	0.07562
3067.84442	0.07585
3066.55865	0.07590
3065.27288	0.07574
3063.98711	0.07545
3062.70135	0.07514
3061.41558	0.07489
3060.12981	0.07467
3058.84404	0.07439
3057.55827	0.07412
3056.27250	0.07393
3054.98673	0.07386
3053.70096	0.07381
3052.41519	0.07375
3051.12943	0.07368
3049.84366	0.07360
3048.55789	0.07349
3047.27212	0.07336
3045.98635	0.07324
3044.70058	0.07316
3043.41481	0.07308
3042.12904	0.07295
3040.84328	0.07272
3039.55751	0.07246
3038.27174	0.07228
3036.98597	0.07225
3035.70020	0.07236
3034.41443	0.07251
3033.12866	0.07253
3031.84289	0.07235
3030.55712	0.07199
3029.27136	0.07158
3027.98559	0.07131
3026.69982	0.07129
3025.41405	0.07140
3024.12828	0.07139
3022.84251	0.07111
3021.55674	0.07063
3020.27097	0.07022
3018.98521	0.07013
3017.69944	0.07028
3016.41367	0.07041
3015.12790	0.07031
3013.84213	0.07003
3012.55636	0.06971
3011.27059	0.06943
3009.98482	0.06921
3008.69905	0.06908
3007.41329	0.06905
3006.12752	0.06904
3004.84175	0.06898
3003.55598	0.06886
3002.27021	0.06879
3000.98444	0.06885
2999.69867	0.06899
2998.41290	0.06911
2997.12714	0.06913
2995.84137	0.06902
2994.55560	0.06881
2993.26983	0.06857
2991.98406	0.06839
2990.69829	0.06823
2989.41252	0.06801
2988.12675	0.06777
2986.84098	0.06768
2985.55522	0.06794
2984.26945	0.06850
2982.98368	0.06913
2981.69791	0.06962
2980.41214	0.06998
2979.12637	0.07030
2977.84060	0.07060
2976.55483	0.07088
2975.26907	0.07123
2973.98330	0.07185
2972.69753	0.07285
2971.41176	0.07414
2970.12599	0.07545
2968.84022	0.07654
2967.55445	0.07743
2966.26868	0.07830
2964.98291	0.07932
2963.69715	0.08052
2962.41138	0.08177
2961.12561	0.08294
2959.83984	0.08393
2958.55407	0.08472
2957.26830	0.08534
2955.98253	0.08583
2954.69676	0.08629
2953.41100	0.08674
2952.12523	0.08709
2950.83946	0.08721
2949.55369	0.08714
2948.26792	0.08705
2946.98215	0.08710
2945.69638	0.08725
2944.41061	0.08734
2943.12484	0.08732
2941.83908	0.08729
2940.55331	0.08738
2939.26754	0.08759
2937.98177	0.08795
2936.69600	0.08855
2935.41023	0.08946
2934.12446	0.09059
2932.83869	0.09173
2931.55293	0.09271
2930.26716	0.09354
2928.98139	0.09430
2927.69562	0.09500
2926.40985	0.09555
2925.12408	0.09590
2923.83831	0.09598
2922.55254	0.09573
2921.26677	0.09517
2919.98101	0.09445
2918.69524	0.09376
2917.40947	0.09317
2916.12370	0.09262
2914.83793	0.09210
2913.55216	0.09161
2912.26639	0.09112
2910.98062	0.09050
2909.69486	0.08961
2908.40909	0.08855
2907.12332	0.08753
2905.83755	0.08670
2904.55178	0.08605
2903.26601	0.08541
2901.98024	0.08467
2900.69447	0.08383
2899.40870	0.08298
2898.12294	0.08219
2896.83717	0.08147
2895.55140	0.08077
2894.26563	0.08008
2892.97986	0.07943
2891.69409	0.07880
2890.40832	0.07810
2889.12255	0.07730
2887.83678	0.07657
2886.55102	0.07613
2885.26525	0.07599
2883.97948	0.07594
2882.69371	0.07585
2881.40794	0.07576
2880.12217	0.07567
2878.83640	0.07550
2877.55063	0.07528
2876.26487	0.07520
2874.97910	0.07547
2873.69333	0.07601
2872.40756	0.07662
2871.12179	0.07717
2869.83602	0.07763
2868.55025	0.07796
2867.26448	0.07811
2865.97871	0.07812
2864.69295	0.07806
2863.40718	0.07803
2862.12141	0.07800
2860.83564	0.07795
2859.54987	0.07787
2858.26410	0.07776
2856.97833	0.07759
2855.69256	0.07731
2854.40680	0.07695
2853.12103	0.07658
2851.83526	0.07623
2850.54949	0.07584
2849.26372	0.07528
2847.97795	0.07456
2846.69218	0.07378
2845.40641	0.07303
2844.12064	0.07225
2842.83488	0.07135
2841.54911	0.07032
2840.26334	0.06923
2838.97757	0.06816
2837.69180	0.06715
2836.40603	0.06623
2835.12026	0.06540
2833.83449	0.06464
2832.54873	0.06392
2831.26296	0.06323
2829.97719	0.06257
2828.69142	0.06198
2827.40565	0.06147
2826.11988	0.06105
2824.83411	0.06070
2823.54834	0.06042
2822.26257	0.06024
2820.97681	0.06017
2819.69104	0.06013
2818.40527	0.05996
2817.11950	0.05958
2815.83373	0.05908
2814.54796	0.05869
2813.26219	0.05854
2811.97642	0.05856
2810.69066	0.05856
2809.40489	0.05839
2808.11912	0.05809
2806.83335	0.05777
2805.54758	0.05753
2804.26181	0.05736
2802.97604	0.05721
2801.69027	0.05698
2800.40450	0.05670
2799.11874	0.05645
2797.83297	0.05631
2796.54720	0.05621
2795.26143	0.05601
2793.97566	0.05567
2792.68989	0.05538
2791.40412	0.05532
2790.11835	0.05543
2788.83259	0.05547
2787.54682	0.05528
2786.26105	0.05492
2784.97528	0.05457
2783.68951	0.05437
2782.40374	0.05432
2781.11797	0.05436
2779.83220	0.05443
2778.54643	0.05449
2777.26067	0.05446
2775.97490	0.05427
2774.68913	0.05393
2773.40336	0.05358
2772.11759	0.05333
2770.83182	0.05319
2769.54605	0.05314
2768.26028	0.05316
2766.97452	0.05320
2765.68875	0.05323
2764.40298	0.05321
2763.11721	0.05313
2761.83144	0.05299
2760.54567	0.05280
2759.25990	0.05262
2757.97413	0.05253
2756.68836	0.05254
2755.40260	0.05257
2754.11683	0.05254
2752.83106	0.05243
2751.54529	0.05231
2750.25952	0.05228
2748.97375	0.05234
2747.68798	0.05241
2746.40221	0.05232
2745.11645	0.05205
2743.83068	0.05172
2742.54491	0.05146
2741.25914	0.05131
2739.97337	0.05124
2738.68760	0.05128
2737.40183	0.05143
2736.11606	0.05158
2734.83029	0.05155
2733.54453	0.05136
2732.25876	0.05116
2730.97299	0.05105
2729.68722	0.05102
2728.40145	0.05095
2727.11568	0.05077
2725.82991	0.05055
2724.54414	0.05041
2723.25838	0.05046
2721.97261	0.05063
2720.68684	0.05074
2719.40107	0.05069
2718.11530	0.05061
2716.82953	0.05061
2715.54376	0.05059
2714.25799	0.05035
2712.97222	0.04986
2711.68646	0.04939
2710.40069	0.04917
2709.11492	0.04922
2707.82915	0.04939
2706.54338	0.04951
2705.25761	0.04951
2703.97184	0.04942
2702.68607	0.04928
2701.40031	0.04911
2700.11454	0.04890
2698.82877	0.04867
2697.54300	0.04849
2696.25723	0.04838
2694.97146	0.04832
2693.68569	0.04826
2692.39992	0.04822
2691.11415	0.04821
2689.82839	0.04822
2688.54262	0.04818
2687.25685	0.04809
2685.97108	0.04797
2684.68531	0.04782
2683.39954	0.04762
2682.11377	0.04741
2680.82800	0.04726
2679.54224	0.04722
2678.25647	0.04722
2676.97070	0.04714
2675.68493	0.04695
2674.39916	0.04677
2673.11339	0.04674
2671.82762	0.04693
2670.54185	0.04721
2669.25608	0.04743
2667.97032	0.04746
2666.68455	0.04732
2665.39878	0.04706
2664.11301	0.04680
2662.82724	0.04662
2661.54147	0.04655
2660.25570	0.04657
2658.96993	0.04661
2657.68417	0.04658
2656.39840	0.04647
2655.11263	0.04633
2653.82686	0.04620
2652.54109	0.04606
2651.25532	0.04591
2649.96955	0.04577
2648.68378	0.04562
2647.39801	0.04543
2646.11225	0.04519
2644.82648	0.04496
2643.54071	0.04480
2642.25494	0.04474
2640.96917	0.04465
2639.68340	0.04439
2638.39763	0.04397
2637.11186	0.04357
2635.82609	0.04335
2634.54033	0.04330
2633.25456	0.04329
2631.96879	0.04321
2630.68302	0.04309
2629.39725	0.04298
2628.11148	0.04293
2626.82571	0.04284
2625.53994	0.04264
2624.25418	0.04235
2622.96841	0.04208
2621.68264	0.04189
2620.39687	0.04171
2619.11110	0.04151
2617.82533	0.04132
2616.53956	0.04123
2615.25379	0.04117
2613.96802	0.04103
2612.68226	0.04081
2611.39649	0.04068
2610.11072	0.04075
2608.82495	0.04093
2607.53918	0.04105
2606.25341	0.04097
2604.96764	0.04068
2603.68187	0.04027
2602.39611	0.03984
2601.11034	0.03949
2599.82457	0.03929
2598.53880	0.03927
2597.25303	0.03940
2595.96726	0.03957
2594.68149	0.03965
2593.39572	0.03953
2592.10995	0.03928
2590.82419	0.03899
2589.53842	0.03873
2588.25265	0.03846
2586.96688	0.03821
2585.68111	0.03806
2584.39534	0.03810
2583.10957	0.03826
2581.82380	0.03836
2580.53804	0.03831
2579.25227	0.03812
2577.96650	0.03785
2576.68073	0.03754
2575.39496	0.03721
2574.10919	0.03698
2572.82342	0.03693
2571.53765	0.03701
2570.25188	0.03710
2568.96612	0.03716
2567.68035	0.03728
2566.39458	0.03745
2565.10881	0.03756
2563.82304	0.03748
2562.53727	0.03724
2561.25150	0.03698
2559.96573	0.03673
2558.67997	0.03644
2557.39420	0.03615
2556.10843	0.03598
2554.82266	0.03598
2553.53689	0.03604
2552.25112	0.03608
2550.96535	0.03614
2549.67958	0.03616
2548.39381	0.03601
2547.10805	0.03565
2545.82228	0.03527
2544.53651	0.03509
2543.25074	0.03512
2541.96497	0.03526
2540.67920	0.03549
2539.39343	0.03582
2538.10766	0.03620
2536.82190	0.03644
2535.53613	0.03637
2534.25036	0.03602
2532.96459	0.03558
2531.67882	0.03516
2530.39305	0.03481
2529.10728	0.03453
2527.82151	0.03443
2526.53574	0.03458
2525.24998	0.03499
2523.96421	0.03556
2522.67844	0.03608
2521.39267	0.03634
2520.10690	0.03625
2518.82113	0.03590
2517.53536	0.03546
2516.24959	0.03507
2514.96383	0.03480
2513.67806	0.03468
2512.39229	0.03462
2511.10652	0.03453
2509.82075	0.03442
2508.53498	0.03435
2507.24921	0.03426
2505.96344	0.03401
2504.67767	0.03366
2503.39191	0.03347
2502.10614	0.03362
2500.82037	0.03401
2499.53460	0.03430
2498.24883	0.03422
2496.96306	0.03377
2495.67729	0.03309
2494.39152	0.03245
2493.10576	0.03214
2491.81999	0.03238
2490.53422	0.03307
2489.24845	0.03384
2487.96268	0.03435
2486.67691	0.03451
2485.39114	0.03442
2484.10537	0.03421
2482.81960	0.03394
2481.53384	0.03375
2480.24807	0.03369
2478.96230	0.03368
2477.67653	0.03366
2476.39076	0.03365
2475.10499	0.03373
2473.81922	0.03383
2472.53345	0.03383
2471.24769	0.03373
2469.96192	0.03363
2468.67615	0.03367
2467.39038	0.03388
2466.10461	0.03417
2464.81884	0.03438
2463.53307	0.03441
2462.24730	0.03431
2460.96153	0.03422
2459.67577	0.03416
2458.39000	0.03400
2457.10423	0.03361
2455.81846	0.03308
2454.53269	0.03270
2453.24692	0.03263
2451.96115	0.03281
2450.67538	0.03298
2449.38962	0.03297
2448.10385	0.03284
2446.81808	0.03272
2445.53231	0.03265
2444.24654	0.03256
2442.96077	0.03246
2441.67500	0.03243
2440.38923	0.03247
2439.10346	0.03250
2437.81770	0.03250
2436.53193	0.03256
2435.24616	0.03273
2433.96039	0.03291
2432.67462	0.03302
2431.38885	0.03303
2430.10308	0.03297
2428.81731	0.03277
2427.53155	0.03241
2426.24578	0.03203
2424.96001	0.03181
2423.67424	0.03178
2422.38847	0.03181
2421.10270	0.03182
2419.81693	0.03186
2418.53116	0.03193
2417.24539	0.03194
2415.95963	0.03188
2414.67386	0.03183
2413.38809	0.03189
2412.10232	0.03199
2410.81655	0.03209
2409.53078	0.03219
2408.24501	0.03226
2406.95924	0.03220
2405.67347	0.03197
2404.38771	0.03171
2403.10194	0.03158
2401.81617	0.03168
2400.53040	0.03184
2399.24463	0.03187
2397.95886	0.03170
2396.67309	0.03143
2395.38732	0.03122
2394.10156	0.03111
2392.81579	0.03105
2391.53002	0.03102
2390.24425	0.03101
2388.95848	0.03101
2387.67271	0.03097
2386.38694	0.03083
2385.10117	0.03059
2383.81540	0.03035
2382.52964	0.03020
2381.24387	0.03017
2379.95810	0.03019
2378.67233	0.03015
2377.38656	0.02996
2376.10079	0.02969
2374.81502	0.02944
2373.52925	0.02930
2372.24349	0.02925
2370.95772	0.02912
2369.67195	0.02866
2368.38618	0.02772
2367.10041	0.02653
2365.81464	0.02565
2364.52887	0.02559
2363.24310	0.02637
2361.95733	0.02746
2360.67157	0.02817
2359.38580	0.02820
2358.10003	0.02779
2356.81426	0.02743
2355.52849	0.02754
2354.24272	0.02826
2352.95695	0.02938
2351.67118	0.03046
2350.38542	0.03107
2349.09965	0.03111
2347.81388	0.03073
2346.52811	0.03017
2345.24234	0.02961
2343.95657	0.02919
2342.67080	0.02899
2341.38503	0.02902
2340.09926	0.02923
2338.81350	0.02951
2337.52773	0.02976
2336.24196	0.02986
2334.95619	0.02974
2333.67042	0.02948
2332.38465	0.02922
2331.09888	0.02904
2329.81311	0.02900
2328.52735	0.02916
2327.24158	0.02954
2325.95581	0.03003
2324.67004	0.03034
2323.38427	0.03026
2322.09850	0.02993
2320.81273	0.02966
2319.52696	0.02968
2318.24119	0.02988
2316.95543	0.03004
2315.66966	0.03006
2314.38389	0.02994
2313.09812	0.02974
2311.81235	0.02955
2310.52658	0.02958
2309.24081	0.03001
2307.95504	0.03081
2306.66928	0.03160
2305.38351	0.03195
2304.09774	0.03168
2302.81197	0.03100
2301.52620	0.03027
2300.24043	0.02980
2298.95466	0.02962
2297.66889	0.02959
2296.38312	0.02953
2295.09736	0.02943
2293.81159	0.02936
2292.52582	0.02932
2291.24005	0.02926
2289.95428	0.02910
2288.66851	0.02891
2287.38274	0.02885
2286.09697	0.02897
2284.81121	0.02915
2283.52544	0.02910
2282.23967	0.02864
2280.95390	0.02783
2279.66813	0.02700
2278.38236	0.02646
2277.09659	0.02632
2275.81082	0.02642
2274.52505	0.02647
2273.23929	0.02635
2271.95352	0.02609
2270.66775	0.02571
2269.38198	0.02520
2268.09621	0.02457
2266.81044	0.02401
2265.52467	0.02383
2264.23890	0.02418
2262.95314	0.02488
2261.66737	0.02561
2260.38160	0.02616
2259.09583	0.02649
2257.81006	0.02656
2256.52429	0.02628
2255.23852	0.02563
2253.95275	0.02479
2252.66698	0.02409
2251.38122	0.02382
2250.09545	0.02399
2248.80968	0.02436
2247.52391	0.02464
2246.23814	0.02488
2244.95237	0.02517
2243.66660	0.02529
2242.38083	0.02485
2241.09507	0.02384
2239.80930	0.02277
2238.52353	0.02216
2237.23776	0.02196
2235.95199	0.02182
2234.66622	0.02150
2233.38045	0.02104
2232.09468	0.02051
2230.80891	0.01993
2229.52315	0.01943
2228.23738	0.01929
2226.95161	0.01975
2225.66584	0.02074
2224.38007	0.02186
2223.09430	0.02261
2221.80853	0.02276
2220.52276	0.02236
2219.23700	0.02164
2217.95123	0.02094
2216.66546	0.02060
2215.37969	0.02081
2214.09392	0.02132
2212.80815	0.02164
2211.52238	0.02136
2210.23661	0.02046
2208.95084	0.01931
2207.66508	0.01854
2206.37931	0.01854
2205.09354	0.01909
2203.80777	0.01944
2202.52200	0.01903
2201.23623	0.01796
2199.95046	0.01685
2198.66469	0.01622
2197.37893	0.01607
2196.09316	0.01600
2194.80739	0.01563
2193.52162	0.01505
2192.23585	0.01468
2190.95008	0.01493
2189.66431	0.01570
2188.37854	0.01640
2187.09277	0.01646
2185.80701	0.01589
2184.52124	0.01523
2183.23547	0.01503
2181.94970	0.01540
2180.66393	0.01609
2179.37816	0.01670
2178.09239	0.01695
2176.80662	0.01695
2175.52085	0.01700
2174.23509	0.01721
2172.94932	0.01719
2171.66355	0.01650
2170.37778	0.01526
2169.09201	0.01421
2167.80624	0.01399
2166.52047	0.01439
2165.23470	0.01456
2163.94894	0.01384
2162.66317	0.01222
2161.37740	0.01016
2160.09163	0.00810
2158.80586	0.00651
2157.52009	0.00590
2156.23432	0.00639
2154.94855	0.00753
2153.66278	0.00872
2152.37702	0.00970
2151.09125	0.01053
2149.80548	0.01129
2148.51971	0.01178
2147.23394	0.01167
2145.94817	0.01082
2144.66240	0.00968
2143.37663	0.00909
2142.09087	0.00953
2140.80510	0.01071
2139.51933	0.01200
2138.23356	0.01302
2136.94779	0.01377
2135.66202	0.01430
2134.37625	0.01481
2133.09048	0.01565
2131.80471	0.01692
2130.51895	0.01813
2129.23318	0.01855
2127.94741	0.01805
2126.66164	0.01720
2125.37587	0.01663
2124.09010	0.01648
2122.80433	0.01659
2121.51856	0.01683
2120.23280	0.01715
2118.94703	0.01755
2117.66126	0.01794
2116.37549	0.01819
2115.08972	0.01822
2113.80395	0.01815
2112.51818	0.01825
2111.23241	0.01856
2109.94664	0.01868
2108.66088	0.01824
2107.37511	0.01745
2106.08934	0.01691
2104.80357	0.01694
2103.51780	0.01727
2102.23203	0.01748
2100.94626	0.01758
2099.66049	0.01830
2098.37473	0.01882
2097.08896	0.01885
2095.80319	0.01844
2094.51742	0.01786
2093.23165	0.01746
2091.94588	0.01737
2090.66011	0.01740
2089.37434	0.01730
2088.08857	0.01699
2086.80281	0.01661
2085.51704	0.01637
2084.23127	0.01643
2082.94550	0.01671
2081.65973	0.01697
2080.37396	0.01691
2079.08819	0.01640
2077.80242	0.01562
2076.51666	0.01498
2075.23089	0.01482
2073.94512	0.01513
2072.65935	0.01551
2071.37358	0.01553
2070.08781	0.01504
2068.80204	0.01428
2067.51627	0.01358
2066.23050	0.01300
2064.94474	0.01234
2063.65897	0.01154
2062.37320	0.01088
2061.08743	0.01079
2059.80166	0.01133
2058.51589	0.01215
2057.23012	0.01291
2055.94435	0.01352
2054.65859	0.01405
2053.37282	0.01444
2052.08705	0.01444
2050.80128	0.01387
2049.51551	0.01284
2048.22974	0.01175
2046.94397	0.01082
2045.65820	0.00995
2044.37243	0.00893
2043.08667	0.00770
2041.80090	0.00647
2040.51513	0.00552
2039.22936	0.00505
2037.94359	0.00505
2036.65782	0.00532
2035.37205	0.00566
2034.08628	0.00592
2032.80052	0.00602
2031.51475	0.00575
2030.22898	0.00497
2028.94321	0.00403
2027.65744	0.00363
2026.37167	0.00409
2025.08590	0.00487
2023.80013	0.00510
2022.51436	0.00465
2021.22860	0.00436
2019.94283	0.00505
2018.65706	0.00666
2017.37129	0.00840
2016.08552	0.00970
2014.79975	0.01059
2013.51398	0.01124
2012.22821	0.01154
2010.94245	0.01121
2009.65668	0.01037
2008.37091	0.00961
2007.08514	0.00940
2005.79937	0.00962
2004.51360	0.00978
2003.22783	0.00971
2001.94206	0.00970
2000.65629	0.01011
1999.37053	0.01088
1998.08476	0.01168
1996.79899	0.01226
1995.51322	0.01251
1994.22745	0.01244
1992.94168	0.01226
1991.65591	0.01230
1990.37014	0.01274
1989.08438	0.01345
1987.79861	0.01409
1986.51284	0.01442
1985.22707	0.01436
1983.94130	0.01399
1982.65553	0.01357
1981.36976	0.01334
1980.08399	0.01331
1978.79822	0.01311
1977.51246	0.01250
1976.22669	0.01171
1974.94092	0.01121
1973.65515	0.01126
1972.36938	0.01169
1971.08361	0.01211
1969.79784	0.01219
1968.51207	0.01196
1967.22631	0.01171
1965.94054	0.01171
1964.65477	0.01196
1963.36900	0.01222
1962.08323	0.01237
1960.79746	0.01257
1959.51169	0.01298
1958.22592	0.01354
1956.94015	0.01407
1955.65439	0.01448
1954.36862	0.01486
1953.08285	0.01517
1951.79708	0.01521
1950.51131	0.01489
1949.22554	0.01442
1947.93977	0.01415
1946.65400	0.01422
1945.36823	0.01444
1944.08247	0.01450
1942.79670	0.01436
1941.51093	0.01422
1940.22516	0.01433
1938.93939	0.01477
1937.65362	0.01545
1936.36785	0.01620
1935.08208	0.01682
1933.79632	0.01719
1932.51055	0.01737
1931.22478	0.01754
1929.93901	0.01774
1928.65324	0.01783
1927.36747	0.01767
1926.08170	0.01736
1924.79593	0.01715
1923.51016	0.01719
1922.22440	0.01736
1920.93863	0.01744
1919.65286	0.01732
1918.36709	0.01717
1917.08132	0.01719
1915.79555	0.01741
1914.50978	0.01767
1913.22401	0.01782
1911.93825	0.01784
1910.65248	0.01784
1909.36671	0.01786
1908.08094	0.01786
1906.79517	0.01784
1905.50940	0.01784
1904.22363	0.01787
1902.93786	0.01789
1901.65209	0.01783
1900.36633	0.01773
1899.08056	0.01761
1897.79479	0.01752
1896.50902	0.01750
1895.22325	0.01756
1893.93748	0.01767
1892.65171	0.01769
1891.36594	0.01756
1890.08018	0.01731
1888.79441	0.01708
1887.50864	0.01698
1886.22287	0.01703
1884.93710	0.01718
1883.65133	0.01731
1882.36556	0.01738
1881.07979	0.01744
1879.79402	0.01760
1878.50826	0.01793
1877.22249	0.01828
1875.93672	0.01846
1874.65095	0.01836
1873.36518	0.01805
1872.07941	0.01774
1870.79364	0.01761
1869.50787	0.01769
1868.22211	0.01787
1866.93634	0.01798
1865.65057	0.01790
1864.36480	0.01767
1863.07903	0.01740
1861.79326	0.01722
1860.50749	0.01724
1859.22172	0.01746
1857.93595	0.01778
1856.65019	0.01804
1855.36442	0.01810
1854.07865	0.01799
1852.79288	0.01786
1851.50711	0.01780
1850.22134	0.01783
1848.93557	0.01792
1847.64980	0.01804
1846.36404	0.01819
1845.07827	0.01835
1843.79250	0.01845
1842.50673	0.01845
1841.22096	0.01839
1839.93519	0.01835
1838.64942	0.01837
1837.36365	0.01841
1836.07788	0.01844
1834.79212	0.01849
1833.50635	0.01861
1832.22058	0.01876
1830.93481	0.01886
1829.64904	0.01883
1828.36327	0.01872
1827.07750	0.01866
1825.79173	0.01870
1824.50597	0.01879
1823.22020	0.01882
1821.93443	0.01877
1820.64866	0.01867
1819.36289	0.01858
1818.07712	0.01855
1816.79135	0.01861
1815.50558	0.01875
1814.21981	0.01892
1812.93405	0.01901
1811.64828	0.01898
1810.36251	0.01885
1809.07674	0.01870
1807.79097	0.01860
1806.50520	0.01858
1805.21943	0.01864
1803.93366	0.01877
1802.64790	0.01893
1801.36213	0.01905
1800.07636	0.01910
1798.79059	0.01913
1797.50482	0.01921
1796.21905	0.01939
1794.93328	0.01961
1793.64751	0.01975
1792.36174	0.01969
1791.07598	0.01947
1789.79021	0.01927
1788.50444	0.01924
1787.21867	0.01938
1785.93290	0.01953
1784.64713	0.01956
1783.36136	0.01950
1782.07559	0.01948
1780.78983	0.01958
1779.50406	0.01975
1778.21829	0.01991
1776.93252	0.01999
1775.64675	0.01999
1774.36098	0.01998
1773.07521	0.02000
1771.78944	0.02001
1770.50367	0.01998
1769.21791	0.01990
1767.93214	0.01979
1766.64637	0.01966
1765.36060	0.01958
1764.07483	0.01960
1762.78906	0.01974
1761.50329	0.01996
1760.21752	0.02018
1758.93176	0.02034
1757.64599	0.02044
1756.36022	0.02050
1755.07445	0.02057
1753.78868	0.02064
1752.50291	0.02071
1751.21714	0.02074
1749.93137	0.02073
1748.64560	0.02071
1747.35984	0.02073
1746.07407	0.02081
1744.78830	0.02092
1743.50253	0.02104
1742.21676	0.02115
1740.93099	0.02124
1739.64522	0.02132
1738.35945	0.02146
1737.07369	0.02173
1735.78792	0.02209
1734.50215	0.02233
1733.21638	0.02229
1731.93061	0.02203
1730.64484	0.02177
1729.35907	0.02166
1728.07330	0.02167
1726.78753	0.02169
1725.50177	0.02171
1724.21600	0.02177
1722.93023	0.02197
1721.64446	0.02232
1720.35869	0.02280
1719.07292	0.02331
1717.78715	0.02374
1716.50138	0.02399
1715.21561	0.02409
1713.92985	0.02412
1712.64408	0.02420
1711.35831	0.02438
1710.07254	0.02466
1708.78677	0.02503
1707.50100	0.02547
1706.21523	0.02598
1704.92946	0.02657
1703.64370	0.02724
1702.35793	0.02798
1701.07216	0.02867
1699.78639	0.02917
1698.50062	0.02947
1697.21485	0.02965
1695.92908	0.02979
1694.64331	0.02990
1693.35754	0.03000
1692.07178	0.03016
1690.78601	0.03047
1689.50024	0.03095
1688.21447	0.03163
1686.92870	0.03241
1685.64293	0.03317
1684.35716	0.03375
1683.07139	0.03409
1681.78563	0.03431
1680.49986	0.03456
1679.21409	0.03495
1677.92832	0.03543
1676.64255	0.03591
1675.35678	0.03633
1674.07101	0.03671
1672.78524	0.03714
1671.49947	0.03764
1670.21371	0.03814
1668.92794	0.03855
1667.64217	0.03888
1666.35640	0.03921
1665.07063	0.03962
1663.78486	0.04011
1662.49909	0.04058
1661.21332	0.04096
1659.92756	0.04127
1658.64179	0.04158
1657.35602	0.04200
1656.07025	0.04259
1654.78448	0.04327
1653.49871	0.04380
1652.21294	0.04400
1650.92717	0.04390
1649.64140	0.04373
1648.35564	0.04365
1647.06987	0.04363
1645.78410	0.04358
1644.49833	0.04346
1643.21256	0.04335
1641.92679	0.04331
1640.64102	0.04336
1639.35525	0.04346
1638.06949	0.04356
1636.78372	0.04359
1635.49795	0.04352
1634.21218	0.04337
1632.92641	0.04318
1631.64064	0.04300
1630.35487	0.04282
1629.06910	0.04260
1627.78333	0.04237
1626.49757	0.04220
1625.21180	0.04209
1623.92603	0.04200
1622.64026	0.04186
1621.35449	0.04166
1620.06872	0.04148
1618.78295	0.04139
1617.49718	0.04136
1616.21142	0.04129
1614.92565	0.04112
1613.63988	0.04090
1612.35411	0.04070
1611.06834	0.04059
1609.78257	0.04060
1608.49680	0.04071
1607.21103	0.04087
1605.92526	0.04102
1604.63950	0.04112
1603.35373	0.04114
1602.06796	0.04113
1600.78219	0.04113
1599.49642	0.04117
1598.21065	0.04126
1596.92488	0.04141
1595.63911	0.04158
1594.35335	0.04176
1593.06758	0.04194
1591.78181	0.04213
1590.49604	0.04236
1589.21027	0.04265
1587.92450	0.04300
1586.63873	0.04343
1585.35296	0.04391
1584.06719	0.04442
1582.78143	0.04489
1581.49566	0.04529
1580.20989	0.04566
1578.92412	0.04607
1577.63835	0.04656
1576.35258	0.04708
1575.06681	0.04755
1573.78104	0.04798
1572.49528	0.04842
1571.20951	0.04890
1569.92374	0.04939
1568.63797	0.04985
1567.35220	0.05026
1566.06643	0.05065
1564.78066	0.05106
1563.49489	0.05156
1562.20912	0.05222
1560.92336	0.05304
1559.63759	0.05387
1558.35182	0.05450
1557.06605	0.05487
1555.78028	0.05507
1554.49451	0.05528
1553.20874	0.05555
1551.92297	0.05586
1550.63721	0.05617
1549.35144	0.05647
1548.06567	0.05675
1546.77990	0.05699
1545.49413	0.05720
1544.20836	0.05737
1542.92259	0.05746
1541.63682	0.05746
1540.35105	0.05733
1539.06529	0.05705
1537.77952	0.05669
1536.49375	0.05638
1535.20798	0.05619
1533.92221	0.05612
1532.63644	0.05612
1531.35067	0.05616
1530.06490	0.05628
1528.77914	0.05652
1527.49337	0.05689
1526.20760	0.05738
1524.92183	0.05800
1523.63606	0.05876
1522.35029	0.05964
1521.06452	0.06058
1519.77875	0.06152
1518.49298	0.06245
1517.20722	0.06337
1515.92145	0.06432
1514.63568	0.06530
1513.34991	0.06636
1512.06414	0.06751
1510.77837	0.06882
1509.49260	0.07031
1508.20683	0.07196
1506.92107	0.07359
1505.63530	0.07502
1504.34953	0.07617
1503.06376	0.07715
1501.77799	0.07810
1500.49222	0.07915
1499.20645	0.08026
1497.92068	0.08136
1496.63491	0.08232
1495.34915	0.08310
1494.06338	0.08374
1492.77761	0.08439
1491.49184	0.08514
1490.20607	0.08600
1488.92030	0.08692
1487.63453	0.08784
1486.34876	0.08877
1485.06299	0.08977
1483.77723	0.09088
1482.49146	0.09210
1481.20569	0.09339
1479.91992	0.09473
1478.63415	0.09608
1477.34838	0.09743
1476.06261	0.09877
1474.77684	0.10010
1473.49108	0.10136
1472.20531	0.10248
1470.91954	0.10342
1469.63377	0.10420
1468.34800	0.10487
1467.06223	0.10549
1465.77646	0.10610
1464.49069	0.10671
1463.20492	0.10734
1461.91916	0.10800
1460.63339	0.10873
1459.34762	0.10956
1458.06185	0.11043
1456.77608	0.11120
1455.49031	0.11175
1454.20454	0.11209
1452.91877	0.11235
1451.63301	0.11262
1450.34724	0.11291
1449.06147	0.11315
1447.77570	0.11325
1446.48993	0.11317
1445.20416	0.11290
1443.91839	0.11243
1442.63262	0.11182
1441.34685	0.11116
1440.06109	0.11055
1438.77532	0.11005
1437.48955	0.10969
1436.20378	0.10944
1434.91801	0.10930
1433.63224	0.10936
1432.34647	0.10968
1431.06070	0.11034
1429.77494	0.11134
1428.48917	0.11263
1427.20340	0.11414
1425.91763	0.11579
1424.63186	0.11753
1423.34609	0.11933
1422.06032	0.12114
1420.77455	0.12288
1419.48878	0.12444
1418.20302	0.12577
1416.91725	0.12688
1415.63148	0.12780
1414.34571	0.12851
1413.05994	0.12897
1411.77417	0.12914
1410.48840	0.12905
1409.20263	0.12872
1407.91687	0.12812
1406.63110	0.12719
1405.34533	0.12591
1404.05956	0.12432
1402.77379	0.12248
1401.48802	0.12047
1400.20225	0.11830
1398.91648	0.11600
1397.63071	0.11357
1396.34495	0.11105
1395.05918	0.10844
1393.77341	0.10578
1392.48764	0.10312
1391.20187	0.10055
1389.91610	0.09810
1388.63033	0.09580
1387.34456	0.09358
1386.05880	0.09140
1384.77303	0.08923
1383.48726	0.08708
1382.20149	0.08494
1380.91572	0.08280
1379.62995	0.08063
1378.34418	0.07845
1377.05841	0.07625
1375.77264	0.07399
1374.48688	0.07165
1373.20111	0.06920
1371.91534	0.06674
1370.62957	0.06437
1369.34380	0.06216
1368.05803	0.06009
1366.77226	0.05814
1365.48649	0.05630
1364.20073	0.05455
1362.91496	0.05286
1361.62919	0.05122
1360.34342	0.04966
1359.05765	0.04823
1357.77188	0.04696
1356.48611	0.04582
1355.20034	0.04480
1353.91457	0.04387
1352.62881	0.04301
1351.34304	0.04217
1350.05727	0.04135
1348.77150	0.04055
1347.48573	0.03978
1346.19996	0.03907
1344.91419	0.03843
1343.62842	0.03783
1342.34266	0.03727
1341.05689	0.03675
1339.77112	0.03627
1338.48535	0.03582
1337.19958	0.03535
1335.91381	0.03481
1334.62804	0.03423
1333.34227	0.03368
1332.05650	0.03321
1330.77074	0.03284
1329.48497	0.03253
1328.19920	0.03228
1326.91343	0.03207
1325.62766	0.03186
1324.34189	0.03162
1323.05612	0.03136
1321.77035	0.03109
1320.48459	0.03081
1319.19882	0.03056
1317.91305	0.03036
1316.62728	0.03022
1315.34151	0.03009
1314.05574	0.02990
1312.76997	0.02962
1311.48420	0.02933
1310.19843	0.02908
1308.91267	0.02888
1307.62690	0.02869
1306.34113	0.02848
1305.05536	0.02824
1303.76959	0.02797
1302.48382	0.02766
1301.19805	0.02733
1299.91228	0.02703
1298.62652	0.02683
1297.34075	0.02670
1296.05498	0.02661
1294.76921	0.02652
1293.48344	0.02643
1292.19767	0.02633
1290.91190	0.02620
1289.62613	0.02604
1288.34036	0.02588
1287.05460	0.02574
1285.76883	0.02561
1284.48306	0.02549
1283.19729	0.02536
1281.91152	0.02523
1280.62575	0.02509
1279.33998	0.02496
1278.05421	0.02485
1276.76845	0.02475
1275.48268	0.02462
1274.19691	0.02443
1272.91114	0.02419
1271.62537	0.02397
1270.33960	0.02383
1269.05383	0.02379
1267.76806	0.02382
1266.48229	0.02389
1265.19653	0.02395
1263.91076	0.02397
1262.62499	0.02393
1261.33922	0.02383
1260.05345	0.02369
1258.76768	0.02353
1257.48191	0.02339
1256.19614	0.02326
1254.91037	0.02313
1253.62461	0.02300
1252.33884	0.02285
1251.05307	0.02266
1249.76730	0.02247
1248.48153	0.02230
1247.19576	0.02215
1245.90999	0.02202
1244.62422	0.02191
1243.33846	0.02181
1242.05269	0.02170
1240.76692	0.02157
1239.48115	0.02144
1238.19538	0.02132
1236.90961	0.02122
1235.62384	0.02113
1234.33807	0.02105
1233.05230	0.02097
1231.76654	0.02090
1230.48077	0.02082
1229.19500	0.02070
1227.90923	0.02054
1226.62346	0.02039
1225.33769	0.02027
1224.05192	0.02018
1222.76615	0.02008
1221.48039	0.01994
1220.19462	0.01979
1218.90885	0.01968
1217.62308	0.01963
1216.33731	0.01964
1215.05154	0.01964
1213.76577	0.01959
1212.48000	0.01951
1211.19423	0.01940
1209.90847	0.01932
1208.62270	0.01928
1207.33693	0.01927
1206.05116	0.01927
1204.76539	0.01929
1203.47962	0.01930
1202.19385	0.01928
1200.90808	0.01920
1199.62232	0.01903
1198.33655	0.01892
1197.05078	0.01885
1195.76501	0.01884
1194.47924	0.01887
1193.19347	0.01887
1191.90770	0.01879
1190.62193	0.01867
1189.33616	0.01856
1188.05040	0.01850
1186.76463	0.01849
1185.47886	0.01851
1184.19309	0.01852
1182.90732	0.01851
1181.62155	0.01847
1180.33578	0.01842
1179.05001	0.01838
1177.76425	0.01837
1176.47848	0.01840
1175.19271	0.01849
1173.90694	0.01859
1172.62117	0.01871
1171.33540	0.01887
1170.04963	0.01906
1168.76386	0.01925
1167.47809	0.01942
1166.19233	0.01960
1164.90656	0.01980
1163.62079	0.02003
1162.33502	0.02027
1161.04925	0.02052
1159.76348	0.02073
1158.47771	0.02089
1157.19194	0.02104
1155.90618	0.02125
1154.62041	0.02158
1153.33464	0.02198
1152.04887	0.02236
1150.76310	0.02270
1149.47733	0.02306
1148.19156	0.02354
1146.90579	0.02417
1145.62002	0.02493
1144.33426	0.02576
1143.04849	0.02661
1141.76272	0.02750
1140.47695	0.02850
1139.19118	0.02967
1137.90541	0.03099
1136.61964	0.03243
1135.33387	0.03398
1134.04811	0.03567
1132.76234	0.03752
1131.47657	0.03953
1130.19080	0.04169
1128.90503	0.04408
1127.61926	0.04676
1126.33349	0.04976
1125.04772	0.05304
1123.76195	0.05655
1122.47619	0.06023
1121.19042	0.06409
1119.90465	0.06817
1118.61888	0.07243
1117.33311	0.07676
1116.04734	0.08106
1114.76157	0.08528
1113.47580	0.08949
1112.19004	0.09369
1110.90427	0.09786
1109.61850	0.10192
1108.33273	0.10590
1107.04696	0.10981
1105.76119	0.11369
1104.47542	0.11753
1103.18965	0.12132
1101.90388	0.12502
1100.61812	0.12856
1099.33235	0.13191
1098.04658	0.13512
1096.76081	0.13818
1095.47504	0.14111
1094.18927	0.14390
1092.90350	0.14652
1091.61773	0.14893
1090.33197	0.15109
1089.04620	0.15307
1087.76043	0.15499
1086.47466	0.15689
1085.18889	0.15879
1083.90312	0.16071
1082.61735	0.16272
1081.33158	0.16493
1080.04581	0.16742
1078.76005	0.17022
1077.47428	0.17329
1076.18851	0.17659
1074.90274	0.18008
1073.61697	0.18370
1072.33120	0.18739
1071.04543	0.19116
1069.75966	0.19512
1068.47390	0.19935
1067.18813	0.20381
1065.90236	0.20842
1064.61659	0.21306
1063.33082	0.21770
1062.04505	0.22232
1060.75928	0.22695
1059.47351	0.23157
1058.18774	0.23617
1056.90198	0.24068
1055.61621	0.24511
1054.33044	0.24950
1053.04467	0.25397
1051.75890	0.25857
1050.47313	0.26327
1049.18736	0.26805
1047.90159	0.27290
1046.61583	0.27782
1045.33006	0.28283
1044.04429	0.28794
1042.75852	0.29320
1041.47275	0.29866
1040.18698	0.30430
1038.90121	0.31003
1037.61544	0.31575
1036.32967	0.32141
1035.04391	0.32698
1033.75814	0.33240
1032.47237	0.33763
1031.18660	0.34262
1029.90083	0.34724
1028.61506	0.35133
1027.32929	0.35482
1026.04352	0.35779
1024.75775	0.36036
1023.47199	0.36252
1022.18622	0.36416
1020.90045	0.36521
1019.61468	0.36565
1018.32891	0.36544
1017.04314	0.36453
1015.75737	0.36290
1014.47160	0.36055
1013.18584	0.35745
1011.90007	0.35362
1010.61430	0.34910
1009.32853	0.34391
1008.04276	0.33804
1006.75699	0.33148
1005.47122	0.32420
1004.18545	0.31626
1002.89968	0.30773
1001.61392	0.29874
1000.32815	0.28939
999.04238	0.27979
997.75661	0.27000
996.47084	0.26010
995.18507	0.25015
993.89930	0.24020
992.61353	0.23035
991.32777	0.22069
990.04200	0.21129
988.75623	0.20222
987.47046	0.19358
986.18469	0.18541
984.89892	0.17769
983.61315	0.17034
982.32738	0.16334
981.04161	0.15675
979.75585	0.15061
978.47008	0.14495
977.18431	0.13978
975.89854	0.13512
974.61277	0.13103
973.32700	0.12759
972.04123	0.12495
970.75546	0.12322
969.46970	0.12243
968.18393	0.12252
966.89816	0.12332
965.61239	0.12461
964.32662	0.12614
963.04085	0.12762
961.75508	0.12870
960.46931	0.12907
959.18354	0.12843
957.89778	0.12670
956.61201	0.12399
955.32624	0.12061
954.04047	0.11693
952.75470	0.11325
951.46893	0.10971
950.18316	0.10630
948.89739	0.10298
947.61163	0.09973
946.32586	0.09657
945.04009	0.09353
943.75432	0.09063
942.46855	0.08790
941.18278	0.08536
939.89701	0.08300
938.61124	0.08083
937.32547	0.07883
936.03971	0.07694
934.75394	0.07509
933.46817	0.07332
932.18240	0.07168
930.89663	0.07022
929.61086	0.06895
928.32509	0.06783
927.03932	0.06679
925.75356	0.06576
924.46779	0.06472
923.18202	0.06371
921.89625	0.06279
920.61048	0.06197
919.32471	0.06122
918.03894	0.06051
916.75317	0.05982
915.46740	0.05915
914.18164	0.05849
912.89587	0.05786
911.61010	0.05728
910.32433	0.05672
909.03856	0.05612
907.75279	0.05550
906.46702	0.05487
905.18125	0.05429
903.89549	0.05373
902.60972	0.05317
901.32395	0.05261
900.03818	0.05209
898.75241	0.05164
897.46664	0.05127
896.18087	0.05095
894.89510	0.05072
893.60933	0.05061
892.32357	0.05064
891.03780	0.05082
889.75203	0.05116
888.46626	0.05173
887.18049	0.05263
885.89472	0.05406
884.60895	0.05625
883.32318	0.05929
882.03742	0.06289
880.75165	0.06640
879.46588	0.06923
878.18011	0.07126
876.89434	0.07289
875.60857	0.07465
874.32280	0.07664
873.03703	0.07844
871.75126	0.07943
870.46550	0.07931
869.17973	0.07814
867.89396	0.07615
866.60819	0.07363
865.32242	0.07082
864.03665	0.06794
862.75088	0.06511
861.46511	0.06246
860.17935	0.06011
858.89358	0.05814
857.60781	0.05654
856.32204	0.05523
855.03627	0.05411
853.75050	0.05314
852.46473	0.05233
851.17896	0.05168
849.89319	0.05116
848.60743	0.05067
847.32166	0.05013
846.03589	0.04958
844.75012	0.04906
843.46435	0.04859
842.17858	0.04812
840.89281	0.04763
839.60704	0.04719
838.32128	0.04686
837.03551	0.04662
835.74974	0.04646
834.46397	0.04633
833.17820	0.04617
831.89243	0.04595
830.60666	0.04566
829.32089	0.04535
828.03512	0.04506
826.74936	0.04483
825.46359	0.04466
824.17782	0.04457
822.89205	0.04456
821.60628	0.04458
820.32051	0.04462
819.03474	0.04468
817.74897	0.04477
816.46321	0.04485
815.17744	0.04484
813.89167	0.04470
812.60590	0.04447
811.32013	0.04422
810.03436	0.04402
808.74859	0.04387
807.46282	0.04379
806.17705	0.04378
804.89129	0.04383
803.60552	0.04389
802.31975	0.04392
801.03398	0.04390
799.74821	0.04381
798.46244	0.04370
797.17667	0.04362
795.89090	0.04361
794.60513	0.04365
793.31937	0.04368
792.03360	0.04363
790.74783	0.04351
789.46206	0.04336
788.17629	0.04320
786.89052	0.04304
785.60475	0.04285
784.31898	0.04263
783.03322	0.04238
781.74745	0.04213
780.46168	0.04192
779.17591	0.04179
777.89014	0.04175
776.60437	0.04176
775.31860	0.04174
774.03283	0.04166
772.74706	0.04160
771.46130	0.04161
770.17553	0.04170
768.88976	0.04179
767.60399	0.04184
766.31822	0.04184
765.03245	0.04178
763.74668	0.04168
762.46091	0.04159
761.17515	0.04159
759.88938	0.04174
758.60361	0.04198
757.31784	0.04214
756.03207	0.04216
754.74630	0.04210
753.46053	0.04210
752.17476	0.04218
750.88899	0.04223
749.60323	0.04217
748.31746	0.04199
747.03169	0.04177
745.74592	0.04159
744.46015	0.04148
743.17438	0.04138
741.88861	0.04127
740.60284	0.04117
739.31708	0.04117
738.03131	0.04124
736.74554	0.04123
735.45977	0.04109
734.17400	0.04092
732.88823	0.04088
731.60246	0.04097
730.31669	0.04107
729.03092	0.04110
727.74516	0.04110
726.45939	0.04110
725.17362	0.04110
723.88785	0.04107
722.60208	0.04103
721.31631	0.04098
720.03054	0.04096
718.74477	0.04097
717.45901	0.04100
716.17324	0.04102
714.88747	0.04097
713.60170	0.04086
712.31593	0.04076
711.03016	0.04069
709.74439	0.04068
708.45862	0.04069
707.17285	0.04068
705.88709	0.04063
704.60132	0.04058
703.31555	0.04057
702.02978	0.04059
700.74401	0.04061
699.45824	0.04060
698.17247	0.04054
696.88670	0.04046
695.60094	0.04041
694.31517	0.04041
693.02940	0.04047
691.74363	0.04055
690.45786	0.04059
689.17209	0.04056
687.88632	0.04045
686.60055	0.04028
685.31478	0.04010
684.02902	0.03994
682.74325	0.03984
681.45748	0.03980
680.17171	0.03979
678.88594	0.03977
677.60017	0.03971
676.31440	0.03964
675.02863	0.03961
673.74287	0.03965
672.45710	0.03973
671.17133	0.03983
669.88556	0.03993
668.59979	0.04006
667.31402	0.04019
666.02825	0.04024
664.74248	0.04015
663.45671	0.03994
662.17095	0.03968
660.88518	0.03948
659.59941	0.03935
658.31364	0.03931
657.02787	0.03930
655.74210	0.03929
654.45633	0.03926
653.17056	0.03920
651.88480	0.03916
650.59903	0.03916
649.31326	0.03923
648.02749	0.03937
646.74172	0.03957
645.45595	0.03983
644.17018	0.04016
642.88441	0.04055
641.59864	0.04099
640.31288	0.04141
639.02711	0.04176
637.74134	0.04206
636.45557	0.04235
635.16980	0.04271
633.88403	0.04317
632.59826	0.04376
631.31249	0.04454
630.02673	0.04554
628.74096	0.04633
627.45519	0.04635
626.16942	0.04786
624.88365	0.05079
623.59788	0.05460
622.31211	0.05858
621.02634	0.06153
619.74057	0.06282
618.45481	0.06325
617.16904	0.06422
615.88327	0.06660
614.59750	0.07057
613.31173	0.07593
612.02596	0.08234
610.74019	0.08935
609.45442	0.09653
608.16866	0.10364
606.88289	0.11078
605.59712	0.11795
604.31135	0.12448
603.02558	0.12911
601.73981	0.13093
600.45404	0.12991
599.16827	0.12680
597.88250	0.12266
596.59674	0.11836
595.31097	0.11428
594.02520	0.11045
592.73943	0.10695
591.45366	0.10405
590.16789	0.10204
588.88212	0.10100
587.59635	0.10083
586.31059	0.10138
585.02482	0.10263
583.73905	0.10462
582.45328	0.10731
581.16751	0.11054
579.88174	0.11412
578.59597	0.11789
577.31020	0.12178
576.02443	0.12577
574.73867	0.12977
573.45290	0.13370
572.16713	0.13753
570.88136	0.14150
569.59559	0.14596
568.30982	0.15113
567.02405	0.15691
565.73828	0.16285
564.45251	0.16834
563.16675	0.17266
561.88098	0.17522
560.59521	0.17559
559.30944	0.17360
558.02367	0.16927
556.73790	0.16291
555.45213	0.15509
554.16636	0.14652
552.88060	0.13786
551.59483	0.12956
550.30906	0.12184
549.02329	0.11481
547.73752	0.10850
546.45175	0.10284
545.16598	0.09770
543.88021	0.09301
542.59444	0.08879
541.30868	0.08508
540.02291	0.08179
538.73714	0.07878
537.45137	0.07589
536.16560	0.07313
534.87983	0.07060
533.59406	0.06840
532.30829	0.06650
531.02253	0.06469
529.73676	0.06284
528.45099	0.06092
527.16522	0.05910
525.87945	0.05753
524.59368	0.05629
523.30791	0.05530
522.02214	0.05442
520.73637	0.05351
519.45061	0.05249
518.16484	0.05137
516.87907	0.05021
515.59330	0.04909
514.30753	0.04802
513.02176	0.04700
511.73599	0.04603
510.45022	0.04516
509.16446	0.04440
507.87869	0.04372
506.59292	0.04309
505.30715	0.04249
504.02138	0.04193
502.73561	0.04141
501.44984	0.04091
500.16407	0.04043
498.87830	0.03998
497.59254	0.03958
496.30677	0.03917
495.02100	0.03868
493.73523	0.03814
492.44946	0.03767
491.16369	0.03736
489.87792	0.03718
488.59215	0.03698
487.30639	0.03665
486.02062	0.03626
484.73485	0.03597
483.44908	0.03593
482.16331	0.03613
480.87754	0.03642
479.59177	0.03666
478.30600	0.03679
477.02023	0.03692
475.73447	0.03715
474.44870	0.03751
473.16293	0.03788
471.87716	0.03814
470.59139	0.03818
469.30562	0.03804
468.01985	0.03779
466.73408	0.03753
465.44832	0.03721
464.16255	0.03679
462.87678	0.03628
461.59101	0.03575
460.30524	0.03527
459.01947	0.03480
457.73370	0.03431
456.44793	0.03379
455.16216	0.03332
453.87640	0.03295
452.59063	0.03264
451.30486	0.03229
450.01909	0.03189
448.73332	0.03150
447.44755	0.03117
446.16178	0.03090
444.87601	0.03068
443.59025	0.03052
442.30448	0.03045
441.01871	0.03045
439.73294	0.03041
438.44717	0.03027
437.16140	0.03004
435.87563	0.02976
434.58986	0.02951
433.30409	0.02935
432.01833	0.02929
430.73256	0.02930
429.44679	0.02932
428.16102	0.02926
426.87525	0.02913
425.58948	0.02893
424.30371	0.02869
423.01794	0.02845
421.73218	0.02822
420.44641	0.02804
419.16064	0.02791
417.87487	0.02780
416.58910	0.02767
415.30333	0.02750
414.01756	0.02731
412.73179	0.02716
411.44602	0.02704
410.16026	0.02698
408.87449	0.02698
407.58872	0.02707
406.30295	0.02719
405.01718	0.02729
403.73141	0.02735
402.44564	0.02740
401.15987	0.02746
399.87411	0.02754
