3997.45528	0.07018
3996.16951	0.06943
3994.88374	0.06883
3993.59798	0.06875
3992.31221	0.06921
3991.02644	0.06973
3989.74067	0.06983
3988.45490	0.06960
3987.16913	0.06956
3985.88336	0.07010
3984.59759	0.07108
3983.31183	0.07201
3982.02606	0.07241
3980.74029	0.07206
3979.45452	0.07122
3978.16875	0.07046
3976.88298	0.07028
3975.59721	0.07072
3974.31144	0.07143
3973.02567	0.07197
3971.73991	0.07209
3970.45414	0.07174
3969.16837	0.07112
3967.88260	0.07055
3966.59683	0.07027
3965.31106	0.07030
3964.02529	0.07041
3962.73952	0.07040
3961.45376	0.07025
3960.16799	0.07010
3958.88222	0.07007
3957.59645	0.07020
3956.31068	0.07041
3955.02491	0.07052
3953.73914	0.07038
3952.45337	0.07001
3951.16760	0.06968
3949.88184	0.06961
3948.59607	0.06984
3947.31030	0.07027
3946.02453	0.07081
3944.73876	0.07133
3943.45299	0.07163
3942.16722	0.07154
3940.88145	0.07105
3939.59569	0.07026
3938.30992	0.06921
3937.02415	0.06803
3935.73838	0.06704
3934.45261	0.06660
3933.16684	0.06673
3931.88107	0.06714
3930.59530	0.06752
3929.30953	0.06779
3928.02377	0.06795
3926.73800	0.06790
3925.45223	0.06757
3924.16646	0.06717
3922.88069	0.06699
3921.59492	0.06714
3920.30915	0.06742
3919.02338	0.06765
3917.73762	0.06786
3916.45185	0.06814
3915.16608	0.06850
3913.88031	0.06879
3912.59454	0.06880
3911.30877	0.06844
3910.02300	0.06779
3908.73723	0.06706
3907.45146	0.06649
3906.16570	0.06632
3904.87993	0.06660
3903.59416	0.06707
3902.30839	0.06745
3901.02262	0.06772
3899.73685	0.06812
3898.45108	0.06870
3897.16531	0.06920
3895.87955	0.06929
3894.59378	0.06890
3893.30801	0.06819
3892.02224	0.06733
3890.73647	0.06644
3889.45070	0.06577
3888.16493	0.06569
3886.87916	0.06614
3885.59339	0.06664
3884.30763	0.06684
3883.02186	0.06693
3881.73609	0.06720
3880.45032	0.06747
3879.16455	0.06736
3877.87878	0.06685
3876.59301	0.06642
3875.30724	0.06646
3874.02148	0.06687
3872.73571	0.06722
3871.44994	0.06730
3870.16417	0.06714
3868.87840	0.06698
3867.59263	0.06714
3866.30686	0.06770
3865.02109	0.06837
3863.73532	0.06882
3862.44956	0.06890
3861.16379	0.06860
3859.87802	0.06791
3858.59225	0.06690
3857.30648	0.06585
3856.02071	0.06529
3854.73494	0.06544
3853.44917	0.06596
3852.16341	0.06628
3850.87764	0.06625
3849.59187	0.06605
3848.30610	0.06585
3847.02033	0.06571
3845.73456	0.06566
3844.44879	0.06573
3843.16302	0.06582
3841.87725	0.06578
3840.59149	0.06557
3839.30572	0.06530
3838.01995	0.06492
3836.73418	0.06440
3835.44841	0.06397
3834.16264	0.06406
3832.87687	0.06487
3831.59110	0.06609
3830.30534	0.06716
3829.01957	0.06771
3827.73380	0.06767
3826.44803	0.06715
3825.16226	0.06632
3823.87649	0.06545
3822.59072	0.06478
3821.30495	0.06438
3820.01918	0.06419
3818.73342	0.06424
3817.44765	0.06439
3816.16188	0.06434
3814.87611	0.06404
3813.59034	0.06381
3812.30457	0.06385
3811.01880	0.06395
3809.73303	0.06396
3808.44726	0.06396
3807.16150	0.06382
3805.87573	0.06340
3804.58996	0.06309
3803.30419	0.06361
3802.01842	0.06488
3800.73265	0.06587
3799.44688	0.06581
3798.16111	0.06495
3796.87535	0.06407
3795.58958	0.06367
3794.30381	0.06381
3793.01804	0.06432
3791.73227	0.06488
3790.44650	0.06514
3789.16073	0.06491
3787.87496	0.06426
3786.58919	0.06354
3785.30343	0.06297
3784.01766	0.06261
3782.73189	0.06244
3781.44612	0.06253
3780.16035	0.06291
3778.87458	0.06346
3777.58881	0.06391
3776.30304	0.06409
3775.01728	0.06404
3773.73151	0.06395
3772.44574	0.06394
3771.15997	0.06383
3769.87420	0.06325
3768.58843	0.06219
3767.30266	0.06113
3766.01689	0.06055
3764.73112	0.06054
3763.44536	0.06099
3762.15959	0.06171
3760.87382	0.06249
3759.58805	0.06303
3758.30228	0.06311
3757.01651	0.06271
3755.73074	0.06206
3754.44497	0.06161
3753.15921	0.06172
3751.87344	0.06229
3750.58767	0.06288
3749.30190	0.06289
3748.01613	0.06214
3746.73036	0.06124
3745.44459	0.06082
3744.15882	0.06081
3742.87305	0.06072
3741.58729	0.06028
3740.30152	0.05952
3739.01575	0.05885
3737.72998	0.05883
3736.44421	0.05961
3735.15844	0.06080
3733.87267	0.06188
3732.58690	0.06251
3731.30114	0.06259
3730.01537	0.06225
3728.72960	0.06177
3727.44383	0.06122
3726.15806	0.06065
3724.87229	0.06023
3723.58652	0.06021
3722.30075	0.06053
3721.01498	0.06093
3719.72922	0.06118
3718.44345	0.06126
3717.15768	0.06116
3715.87191	0.06092
3714.58614	0.06063
3713.30037	0.06035
3712.01460	0.06006
3710.72883	0.05971
3709.44307	0.05930
3708.15730	0.05891
3706.87153	0.05867
3705.58576	0.05882
3704.29999	0.05949
3703.01422	0.06055
3701.72845	0.06153
3700.44268	0.06173
3699.15691	0.06088
3697.87115	0.05956
3696.58538	0.05870
3695.29961	0.05851
3694.01384	0.05855
3692.72807	0.05842
3691.44230	0.05815
3690.15653	0.05807
3688.87076	0.05841
3687.58500	0.05896
3686.29923	0.05939
3685.01346	0.05964
3683.72769	0.05973
3682.44192	0.05960
3681.15615	0.05937
3679.87038	0.05931
3678.58461	0.05961
3677.29884	0.06024
3676.01308	0.06073
3674.72731	0.06074
3673.44154	0.06060
3672.15577	0.06082
3670.87000	0.06144
3669.58423	0.06210
3668.29846	0.06256
3667.01269	0.06279
3665.72693	0.06279
3664.44116	0.06269
3663.15539	0.06271
3661.86962	0.06282
3660.58385	0.06279
3659.29808	0.06257
3658.01231	0.06240
3656.72654	0.06247
3655.44077	0.06269
3654.15501	0.06298
3652.86924	0.06348
3651.58347	0.06441
3650.29770	0.06568
3649.01193	0.06679
3647.72616	0.06721
3646.44039	0.06678
3645.15462	0.06590
3643.86886	0.06512
3642.58309	0.06475
3641.29732	0.06485
3640.01155	0.06534
3638.72578	0.06592
3637.44001	0.06616
3636.15424	0.06579
3634.86847	0.06501
3633.58270	0.06438
3632.29694	0.06443
3631.01117	0.06532
3629.72540	0.06660
3628.43963	0.06747
3627.15386	0.06751
3625.86809	0.06705
3624.58232	0.06673
3623.29655	0.06681
3622.01079	0.06710
3620.72502	0.06728
3619.43925	0.06726
3618.15348	0.06713
3616.86771	0.06707
3615.58194	0.06721
3614.29617	0.06765
3613.01040	0.06844
3611.72463	0.06949
3610.43887	0.07068
3609.15310	0.07176
3607.86733	0.07241
3606.58156	0.07241
3605.29579	0.07190
3604.01002	0.07119
3602.72425	0.07056
3601.43848	0.07010
3600.15272	0.06984
3598.86695	0.06985
3597.58118	0.07035
3596.29541	0.07137
3595.00964	0.07264
3593.72387	0.07361
3592.43810	0.07405
3591.15233	0.07419
3589.86656	0.07433
3588.58080	0.07467
3587.29503	0.07509
3586.00926	0.07535
3584.72349	0.07528
3583.43772	0.07516
3582.15195	0.07536
3580.86618	0.07591
3579.58041	0.07643
3578.29464	0.07662
3577.00888	0.07666
3575.72311	0.07709
3574.43734	0.07809
3573.15157	0.07929
3571.86580	0.08019
3570.58003	0.08068
3569.29426	0.08096
3568.00849	0.08117
3566.72273	0.08131
3565.43696	0.08140
3564.15119	0.08148
3562.86542	0.08142
3561.57965	0.08105
3560.29388	0.08039
3559.00811	0.07972
3557.72234	0.07936
3556.43657	0.07940
3555.15081	0.07974
3553.86504	0.08024
3552.57927	0.08084
3551.29350	0.08154
3550.00773	0.08232
3548.72196	0.08305
3547.43619	0.08351
3546.15042	0.08356
3544.86466	0.08329
3543.57889	0.08302
3542.29312	0.08308
3541.00735	0.08362
3539.72158	0.08451
3538.43581	0.08543
3537.15004	0.08607
3535.86427	0.08626
3534.57850	0.08598
3533.29274	0.08533
3532.00697	0.08459
3530.72120	0.08427
3529.43543	0.08470
3528.14966	0.08573
3526.86389	0.08682
3525.57812	0.08745
3524.29235	0.08745
3523.00659	0.08705
3521.72082	0.08664
3520.43505	0.08657
3519.14928	0.08697
3517.86351	0.08761
3516.57774	0.08819
3515.29197	0.08854
3514.00620	0.08878
3512.72043	0.08911
3511.43467	0.08964
3510.14890	0.09025
3508.86313	0.09070
3507.57736	0.09083
3506.29159	0.09073
3505.00582	0.09071
3503.72005	0.09091
3502.43428	0.09118
3501.14852	0.09126
3499.86275	0.09126
3498.57698	0.09149
3497.29121	0.09202
3496.00544	0.09250
3494.71967	0.09264
3493.43390	0.09255
3492.14813	0.09259
3490.86236	0.09284
3489.57660	0.09308
3488.29083	0.09306
3487.00506	0.09279
3485.71929	0.09254
3484.43352	0.09254
3483.14775	0.09280
3481.86198	0.09317
3480.57621	0.09355
3479.29045	0.09400
3478.00468	0.09446
3476.71891	0.09475
3475.43314	0.09483
3474.14737	0.09489
3472.86160	0.09505
3471.57583	0.09524
3470.29006	0.09534
3469.00429	0.09537
3467.71853	0.09542
3466.43276	0.09549
3465.14699	0.09563
3463.86122	0.09597
3462.57545	0.09649
3461.28968	0.09694
3460.00391	0.09702
3458.71814	0.09675
3457.43238	0.09640
3456.14661	0.09635
3454.86084	0.09672
3453.57507	0.09740
3452.28930	0.09817
3451.00353	0.09880
3449.71776	0.09914
3448.43199	0.09910
3447.14622	0.09875
3445.86046	0.09833
3444.57469	0.09810
3443.28892	0.09819
3442.00315	0.09849
3440.71738	0.09885
3439.43161	0.09923
3438.14584	0.09963
3436.86007	0.10003
3435.57431	0.10043
3434.28854	0.10084
3433.00277	0.10126
3431.71700	0.10165
3430.43123	0.10192
3429.14546	0.10206
3427.85969	0.10210
3426.57392	0.10205
3425.28815	0.10186
3424.00239	0.10158
3422.71662	0.10138
3421.43085	0.10140
3420.14508	0.10167
3418.85931	0.10211
3417.57354	0.10257
3416.28777	0.10281
3415.00200	0.10266
3413.71624	0.10223
3412.43047	0.10186
3411.14470	0.10183
3409.85893	0.10208
3408.57316	0.10235
3407.28739	0.10245
3406.00162	0.10241
3404.71585	0.10238
3403.43008	0.10253
3402.14432	0.10284
3400.85855	0.10313
3399.57278	0.10334
3398.28701	0.10336
3397.00124	0.10318
3395.71547	0.10306
3394.42970	0.10323
3393.14393	0.10369
3391.85817	0.10426
3390.57240	0.10476
3389.28663	0.10507
3388.00086	0.10518
3386.71509	0.10515
3385.42932	0.10512
3384.14355	0.10512
3382.85778	0.10507
3381.57201	0.10482
3380.28625	0.10439
3379.00048	0.10399
3377.71471	0.10389
3376.42894	0.10420
3375.14317	0.10489
3373.85740	0.10570
3372.57163	0.10630
3371.28586	0.10646
3370.00010	0.10625
3368.71433	0.10595
3367.42856	0.10581
3366.14279	0.10589
3364.85702	0.10606
3363.57125	0.10620
3362.28548	0.10623
3360.99971	0.10620
3359.71394	0.10618
3358.42818	0.10626
3357.14241	0.10645
3355.85664	0.10672
3354.57087	0.10701
3353.28510	0.10724
3351.99933	0.10736
3350.71356	0.10735
3349.42779	0.10719
3348.14202	0.10687
3346.85626	0.10645
3345.57049	0.10610
3344.28472	0.10604
3342.99895	0.10628
3341.71318	0.10658
3340.42741	0.10671
3339.14164	0.10663
3337.85587	0.10649
3336.57011	0.10636
3335.28434	0.10624
3333.99857	0.10615
3332.71280	0.10622
3331.42703	0.10644
3330.14126	0.10662
3328.85549	0.10652
3327.56972	0.10617
3326.28395	0.10577
3324.99819	0.10556
3323.71242	0.10567
3322.42665	0.10606
3321.14088	0.10654
3319.85511	0.10685
3318.56934	0.10682
3317.28357	0.10656
3315.99780	0.10638
3314.71204	0.10645
3313.42627	0.10660
3312.14050	0.10658
3310.85473	0.10646
3309.56896	0.10653
3308.28319	0.10701
3306.99742	0.10779
3305.71165	0.10860
3304.42588	0.10914
3303.14012	0.10925
3301.85435	0.10888
3300.56858	0.10817
3299.28281	0.10736
3297.99704	0.10671
3296.71127	0.10639
3295.42550	0.10639
3294.13973	0.10661
3292.85397	0.10686
3291.56820	0.10695
3290.28243	0.10680
3288.99666	0.10647
3287.71089	0.10608
3286.42512	0.10575
3285.13935	0.10552
3283.85358	0.10542
3282.56781	0.10551
3281.28205	0.10571
3279.99628	0.10587
3278.71051	0.10585
3277.42474	0.10569
3276.13897	0.10556
3274.85320	0.10556
3273.56743	0.10566
3272.28166	0.10577
3270.99590	0.10587
3269.71013	0.10594
3268.42436	0.10591
3267.13859	0.10570
3265.85282	0.10531
3264.56705	0.10480
3263.28128	0.10424
3261.99551	0.10380
3260.70974	0.10369
3259.42398	0.10399
3258.13821	0.10457
3256.85244	0.10512
3255.56667	0.10543
3254.28090	0.10542
3252.99513	0.10515
3251.70936	0.10474
3250.42359	0.10445
3249.13783	0.10444
3247.85206	0.10465
3246.56629	0.10479
3245.28052	0.10462
3243.99475	0.10421
3242.70898	0.10380
3241.42321	0.10362
3240.13744	0.10374
3238.85167	0.10399
3237.56591	0.10408
3236.28014	0.10389
3234.99437	0.10356
3233.70860	0.10335
3232.42283	0.10336
3231.13706	0.10348
3229.85129	0.10354
3228.56552	0.10349
3227.27976	0.10336
3225.99399	0.10321
3224.70822	0.10302
3223.42245	0.10275
3222.13668	0.10239
3220.85091	0.10205
3219.56514	0.10195
3218.27937	0.10222
3216.99360	0.10279
3215.70784	0.10338
3214.42207	0.10370
3213.13630	0.10356
3211.85053	0.10304
3210.56476	0.10241
3209.27899	0.10199
3207.99322	0.10190
3206.70745	0.10200
3205.42169	0.10212
3204.13592	0.10213
3202.85015	0.10203
3201.56438	0.10184
3200.27861	0.10167
3198.99284	0.10165
3197.70707	0.10174
3196.42130	0.10172
3195.13553	0.10141
3193.84977	0.10093
3192.56400	0.10060
3191.27823	0.10063
3189.99246	0.10095
3188.70669	0.10131
3187.42092	0.10152
3186.13515	0.10158
3184.84938	0.10155
3183.56362	0.10151
3182.27785	0.10147
3180.99208	0.10134
3179.70631	0.10102
3178.42054	0.10046
3177.13477	0.09986
3175.84900	0.09946
3174.56323	0.09935
3173.27746	0.09941
3171.99170	0.09946
3170.70593	0.09948
3169.42016	0.09956
3168.13439	0.09972
3166.84862	0.09989
3165.56285	0.09987
3164.27708	0.09952
3162.99131	0.09890
3161.70555	0.09825
3160.41978	0.09782
3159.13401	0.09769
3157.84824	0.09778
3156.56247	0.09793
3155.27670	0.09810
3153.99093	0.09834
3152.70516	0.09868
3151.41939	0.09898
3150.13363	0.09910
3148.84786	0.09909
3147.56209	0.09907
3146.27632	0.09899
3144.99055	0.09869
3143.70478	0.09816
3142.41901	0.09758
3141.13324	0.09714
3139.84748	0.09688
3138.56171	0.09679
3137.27594	0.09682
3135.99017	0.09690
3134.70440	0.09697
3133.41863	0.09699
3132.13286	0.09700
3130.84709	0.09710
3129.56132	0.09728
3128.27556	0.09740
3126.98979	0.09731
3125.70402	0.09696
3124.41825	0.09646
3123.13248	0.09599
3121.84671	0.09564
3120.56094	0.09542
3119.27517	0.09526
3117.98940	0.09509
3116.70364	0.09488
3115.41787	0.09460
3114.13210	0.09424
3112.84633	0.09378
3111.56056	0.09328
3110.27479	0.09287
3108.98902	0.09268
3107.70325	0.09270
3106.41749	0.09278
3105.13172	0.09276
3103.84595	0.09267
3102.56018	0.09263
3101.27441	0.09276
3099.98864	0.09299
3098.70287	0.09310
3097.41710	0.09290
3096.13133	0.09248
3094.84557	0.09210
3093.55980	0.09201
3092.27403	0.09224
3090.98826	0.09260
3089.70249	0.09288
3088.41672	0.09301
3087.13095	0.09305
3085.84518	0.09307
3084.55942	0.09301
3083.27365	0.09276
3081.98788	0.09230
3080.70211	0.09171
3079.41634	0.09115
3078.13057	0.09076
3076.84480	0.09050
3075.55903	0.09026
3074.27326	0.08995
3072.98750	0.08967
3071.70173	0.08967
3070.41596	0.09009
3069.13019	0.09083
3067.84442	0.09154
3066.55865	0.09184
3065.27288	0.09155
3063.98711	0.09084
3062.70135	0.09005
3061.41558	0.08944
3060.12981	0.08907
3058.84404	0.08889
3057.55827	0.08887
3056.27250	0.08892
3054.98673	0.08899
3053.70096	0.08907
3052.41519	0.08917
3051.12943	0.08926
3049.84366	0.08923
3048.55789	0.08902
3047.27212	0.08869
3045.98635	0.08838
3044.70058	0.08816
3043.41481	0.08803
3042.12904	0.08794
3040.84328	0.08791
3039.55751	0.08794
3038.27174	0.08801
3036.98597	0.08807
3035.70020	0.08810
3034.41443	0.08811
3033.12866	0.08811
3031.84289	0.08802
3030.55712	0.08777
3029.27136	0.08742
3027.98559	0.08710
3026.69982	0.08692
3025.41405	0.08682
3024.12828	0.08668
3022.84251	0.08651
3021.55674	0.08642
3020.27097	0.08648
3018.98521	0.08662
3017.69944	0.08670
3016.41367	0.08663
3015.12790	0.08641
3013.84213	0.08605
3012.55636	0.08556
3011.27059	0.08510
3009.98482	0.08485
3008.69905	0.08483
3007.41329	0.08488
3006.12752	0.08483
3004.84175	0.08471
3003.55598	0.08464
3002.27021	0.08459
3000.98444	0.08449
2999.69867	0.08433
2998.41290	0.08398
2997.12714	0.08366
2995.84137	0.08354
2994.55560	0.08361
2993.26983	0.08374
2991.98406	0.08377
2990.69829	0.08368
2989.41252	0.08367
2988.12675	0.08398
2986.84098	0.08472
2985.55522	0.08569
2984.26945	0.08651
2982.98368	0.08694
2981.69791	0.08722
2980.41214	0.08779
2979.12637	0.08893
2977.84060	0.09051
2976.55483	0.09220
2975.26907	0.09382
2973.98330	0.09544
2972.69753	0.09723
2971.41176	0.09930
2970.12599	0.10166
2968.84022	0.10429
2967.55445	0.10709
2966.26868	0.11000
2964.98291	0.11294
2963.69715	0.11581
2962.41138	0.11852
2961.12561	0.12108
2959.83984	0.12356
2958.55407	0.12604
2957.26830	0.12847
2955.98253	0.13076
2954.69676	0.13276
2953.41100	0.13429
2952.12523	0.13526
2950.83946	0.13576
2949.55369	0.13591
2948.26792	0.13586
2946.98215	0.13570
2945.69638	0.13550
2944.41061	0.13526
2943.12484	0.13504
2941.83908	0.13503
2940.55331	0.13552
2939.26754	0.13664
2937.98177	0.13834
2936.69600	0.14040
2935.41023	0.14265
2934.12446	0.14494
2932.83869	0.14723
2931.55293	0.14952
2930.26716	0.15185
2928.98139	0.15418
2927.69562	0.15642
2926.40985	0.15845
2925.12408	0.16012
2923.83831	0.16134
2922.55254	0.16211
2921.26677	0.16241
2919.98101	0.16211
2918.69524	0.16108
2917.40947	0.15940
2916.12370	0.15739
2914.83793	0.15538
2913.55216	0.15353
2912.26639	0.15177
2910.98062	0.15002
2909.69486	0.14832
2908.40909	0.14672
2907.12332	0.14519
2905.83755	0.14370
2904.55178	0.14225
2903.26601	0.14085
2901.98024	0.13949
2900.69447	0.13817
2899.40870	0.13687
2898.12294	0.13551
2896.83717	0.13393
2895.55140	0.13211
2894.26563	0.13021
2892.97986	0.12845
2891.69409	0.12687
2890.40832	0.12539
2889.12255	0.12399
2887.83678	0.12273
2886.55102	0.12161
2885.26525	0.12055
2883.97948	0.11946
2882.69371	0.11837
2881.40794	0.11742
2880.12217	0.11683
2878.83640	0.11672
2877.55063	0.11717
2876.26487	0.11818
2874.97910	0.11961
2873.69333	0.12122
2872.40756	0.12272
2871.12179	0.12396
2869.83602	0.12491
2868.55025	0.12565
2867.26448	0.12620
2865.97871	0.12660
2864.69295	0.12684
2863.40718	0.12690
2862.12141	0.12677
2860.83564	0.12659
2859.54987	0.12660
2858.26410	0.12697
2856.97833	0.12762
2855.69256	0.12832
2854.40680	0.12880
2853.12103	0.12892
2851.83526	0.12855
2850.54949	0.12766
2849.26372	0.12636
2847.97795	0.12481
2846.69218	0.12309
2845.40641	0.12119
2844.12064	0.11908
2842.83488	0.11680
2841.54911	0.11442
2840.26334	0.11198
2838.97757	0.10955
2837.69180	0.10719
2836.40603	0.10503
2835.12026	0.10306
2833.83449	0.10119
2832.54873	0.09929
2831.26296	0.09737
2829.97719	0.09556
2828.69142	0.09397
2827.40565	0.09264
2826.11988	0.09156
2824.83411	0.09067
2823.54834	0.08989
2822.26257	0.08917
2820.97681	0.08844
2819.69104	0.08761
2818.40527	0.08667
2817.11950	0.08573
2815.83373	0.08494
2814.54796	0.08438
2813.26219	0.08402
2811.97642	0.08374
2810.69066	0.08341
2809.40489	0.08295
2808.11912	0.08246
2806.83335	0.08208
2805.54758	0.08184
2804.26181	0.08163
2802.97604	0.08133
2801.69027	0.08091
2800.40450	0.08044
2799.11874	0.07996
2797.83297	0.07956
2796.54720	0.07931
2795.26143	0.07918
2793.97566	0.07905
2792.68989	0.07889
2791.40412	0.07872
2790.11835	0.07850
2788.83259	0.07816
2787.54682	0.07772
2786.26105	0.07729
2784.97528	0.07699
2783.68951	0.07677
2782.40374	0.07653
2781.11797	0.07623
2779.83220	0.07588
2778.54643	0.07559
2777.26067	0.07542
2775.97490	0.07539
2774.68913	0.07544
2773.40336	0.07547
2772.11759	0.07543
2770.83182	0.07530
2769.54605	0.07513
2768.26028	0.07500
2766.97452	0.07491
2765.68875	0.07478
2764.40298	0.07452
2763.11721	0.07413
2761.83144	0.07373
2760.54567	0.07340
2759.25990	0.07319
2757.97413	0.07310
2756.68836	0.07306
2755.40260	0.07291
2754.11683	0.07261
2752.83106	0.07220
2751.54529	0.07184
2750.25952	0.07167
2748.97375	0.07171
2747.68798	0.07184
2746.40221	0.07191
2745.11645	0.07185
2743.83068	0.07169
2742.54491	0.07152
2741.25914	0.07139
2739.97337	0.07137
2738.68760	0.07145
2737.40183	0.07152
2736.11606	0.07145
2734.83029	0.07124
2733.54453	0.07107
2732.25876	0.07107
2730.97299	0.07118
2729.68722	0.07118
2728.40145	0.07095
2727.11568	0.07051
2725.82991	0.07005
2724.54414	0.06975
2723.25838	0.06967
2721.97261	0.06971
2720.68684	0.06975
2719.40107	0.06972
2718.11530	0.06966
2716.82953	0.06962
2715.54376	0.06957
2714.25799	0.06943
2712.97222	0.06921
2711.68646	0.06892
2710.40069	0.06862
2709.11492	0.06840
2707.82915	0.06827
2706.54338	0.06815
2705.25761	0.06796
2703.97184	0.06769
2702.68607	0.06743
2701.40031	0.06733
2700.11454	0.06746
2698.82877	0.06769
2697.54300	0.06783
2696.25723	0.06777
2694.97146	0.06757
2693.68569	0.06736
2692.39992	0.06721
2691.11415	0.06712
2689.82839	0.06705
2688.54262	0.06695
2687.25685	0.06678
2685.97108	0.06663
2684.68531	0.06656
2683.39954	0.06655
2682.11377	0.06647
2680.82800	0.06629
2679.54224	0.06608
2678.25647	0.06593
2676.97070	0.06588
2675.68493	0.06587
2674.39916	0.06582
2673.11339	0.06569
2671.82762	0.06555
2670.54185	0.06542
2669.25608	0.06529
2667.97032	0.06515
2666.68455	0.06499
2665.39878	0.06479
2664.11301	0.06454
2662.82724	0.06427
2661.54147	0.06399
2660.25570	0.06372
2658.96993	0.06345
2657.68417	0.06322
2656.39840	0.06311
2655.11263	0.06313
2653.82686	0.06316
2652.54109	0.06310
2651.25532	0.06293
2649.96955	0.06270
2648.68378	0.06246
2647.39801	0.06222
2646.11225	0.06195
2644.82648	0.06164
2643.54071	0.06130
2642.25494	0.06105
2640.96917	0.06091
2639.68340	0.06078
2638.39763	0.06050
2637.11186	0.06006
2635.82609	0.05965
2634.54033	0.05938
2633.25456	0.05915
2631.96879	0.05878
2630.68302	0.05826
2629.39725	0.05777
2628.11148	0.05755
2626.82571	0.05769
2625.53994	0.05806
2624.25418	0.05838
2622.96841	0.05847
2621.68264	0.05831
2620.39687	0.05802
2619.11110	0.05766
2617.82533	0.05721
2616.53956	0.05672
2615.25379	0.05629
2613.96802	0.05591
2612.68226	0.05558
2611.39649	0.05532
2610.11072	0.05517
2608.82495	0.05512
2607.53918	0.05512
2606.25341	0.05508
2604.96764	0.05499
2603.68187	0.05488
2602.39611	0.05476
2601.11034	0.05459
2599.82457	0.05431
2598.53880	0.05397
2597.25303	0.05369
2595.96726	0.05356
2594.68149	0.05359
2593.39572	0.05368
2592.10995	0.05370
2590.82419	0.05360
2589.53842	0.05343
2588.25265	0.05332
2586.96688	0.05332
2585.68111	0.05338
2584.39534	0.05344
2583.10957	0.05348
2581.82380	0.05350
2580.53804	0.05351
2579.25227	0.05356
2577.96650	0.05366
2576.68073	0.05367
2575.39496	0.05341
2574.10919	0.05285
2572.82342	0.05213
2571.53765	0.05146
2570.25188	0.05096
2568.96612	0.05067
2567.68035	0.05062
2566.39458	0.05069
2565.10881	0.05073
2563.82304	0.05065
2562.53727	0.05058
2561.25150	0.05071
2559.96573	0.05108
2558.67997	0.05152
2557.39420	0.05183
2556.10843	0.05191
2554.82266	0.05183
2553.53689	0.05162
2552.25112	0.05126
2550.96535	0.05076
2549.67958	0.05029
2548.39381	0.05003
2547.10805	0.05000
2545.82228	0.05005
2544.53651	0.05004
2543.25074	0.05003
2541.96497	0.05020
2540.67920	0.05045
2539.39343	0.05047
2538.10766	0.05006
2536.82190	0.04940
2535.53613	0.04886
2534.25036	0.04865
2532.96459	0.04871
2531.67882	0.04881
2530.39305	0.04879
2529.10728	0.04857
2527.82151	0.04816
2526.53574	0.04775
2525.24998	0.04759
2523.96421	0.04785
2522.67844	0.04834
2521.39267	0.04870
2520.10690	0.04869
2518.82113	0.04839
2517.53536	0.04806
2516.24959	0.04786
2514.96383	0.04779
2513.67806	0.04775
2512.39229	0.04768
2511.10652	0.04757
2509.82075	0.04747
2508.53498	0.04743
2507.24921	0.04744
2505.96344	0.04749
2504.67767	0.04756
2503.39191	0.04768
2502.10614	0.04788
2500.82037	0.04807
2499.53460	0.04808
2498.24883	0.04780
2496.96306	0.04735
2495.67729	0.04707
2494.39152	0.04712
2493.10576	0.04731
2491.81999	0.04733
2490.53422	0.04703
2489.24845	0.04661
2487.96268	0.04632
2486.67691	0.04627
2485.39114	0.04642
2484.10537	0.04659
2482.81960	0.04666
2481.53384	0.04664
2480.24807	0.04665
2478.96230	0.04676
2477.67653	0.04680
2476.39076	0.04664
2475.10499	0.04630
2473.81922	0.04600
2472.53345	0.04586
2471.24769	0.04582
2469.96192	0.04585
2468.67615	0.04594
2467.39038	0.04615
2466.10461	0.04642
2464.81884	0.04662
2463.53307	0.04663
2462.24730	0.04645
2460.96153	0.04621
2459.67577	0.04604
2458.39000	0.04597
2457.10423	0.04596
2455.81846	0.04596
2454.53269	0.04591
2453.24692	0.04572
2451.96115	0.04534
2450.67538	0.04493
2449.38962	0.04468
2448.10385	0.04468
2446.81808	0.04488
2445.53231	0.04519
2444.24654	0.04554
2442.96077	0.04580
2441.67500	0.04589
2440.38923	0.04580
2439.10346	0.04555
2437.81770	0.04515
2436.53193	0.04471
2435.24616	0.04443
2433.96039	0.04437
2432.67462	0.04442
2431.38885	0.04447
2430.10308	0.04453
2428.81731	0.04467
2427.53155	0.04490
2426.24578	0.04513
2424.96001	0.04523
2423.67424	0.04506
2422.38847	0.04468
2421.10270	0.04431
2419.81693	0.04425
2418.53116	0.04454
2417.24539	0.04491
2415.95963	0.04502
2414.67386	0.04476
2413.38809	0.04433
2412.10232	0.04410
2410.81655	0.04422
2409.53078	0.04456
2408.24501	0.04478
2406.95924	0.04466
2405.67347	0.04429
2404.38771	0.04392
2403.10194	0.04372
2401.81617	0.04365
2400.53040	0.04357
2399.24463	0.04323
2397.95886	0.04335
2396.67309	0.04360
2395.38732	0.04387
2394.10156	0.04416
2392.81579	0.04443
2391.53002	0.04464
2390.24425	0.04475
2388.95848	0.04473
2387.67271	0.04461
2386.38694	0.04443
2385.10117	0.04432
2383.81540	0.04440
2382.52964	0.04466
2381.24387	0.04503
2379.95810	0.04532
2378.67233	0.04566
2377.38656	0.04581
2376.10079	0.04552
2374.81502	0.04513
2373.52925	0.04583
2372.24349	0.04727
2370.95772	0.04821
2369.67195	0.04820
2368.38618	0.04778
2367.10041	0.04771
2365.81464	0.04785
2364.52887	0.04800
2363.24310	0.04811
2361.95733	0.04841
2360.67157	0.04923
2359.38580	0.04978
2358.10003	0.04953
2356.81426	0.04860
2355.52849	0.04719
2354.24272	0.04546
2352.95695	0.04408
2351.67118	0.04428
2350.38542	0.04508
2349.09965	0.04507
2347.81388	0.04480
2346.52811	0.04567
2345.24234	0.04660
2343.95657	0.04577
2342.67080	0.04341
2341.38503	0.04422
2340.09926	0.04748
2338.81350	0.04748
2337.52773	0.04467
2336.24196	0.04552
2334.95619	0.04818
2333.67042	0.04708
2332.38465	0.04372
2331.09888	0.04522
2329.81311	0.04600
2328.52735	0.04367
2327.24158	0.04405
2325.95581	0.04548
2324.67004	0.04460
2323.38427	0.04337
2322.09850	0.04385
2320.81273	0.04298
2319.52696	0.04266
2318.24119	0.04304
2316.95543	0.04278
2315.66966	0.04293
2314.38389	0.04287
2313.09812	0.04227
2311.81235	0.04221
2310.52658	0.04186
2309.24081	0.04136
2307.95504	0.04127
2306.66928	0.04099
2305.38351	0.04076
2304.09774	0.04042
2302.81197	0.04005
2301.52620	0.03998
2300.24043	0.03997
2298.95466	0.04006
2297.66889	0.04007
2296.38312	0.03992
2295.09736	0.03958
2293.81159	0.03906
2292.52582	0.03861
2291.24005	0.03833
2289.95428	0.03836
2288.66851	0.03872
2287.38274	0.03925
2286.09697	0.03961
2284.81121	0.03943
2283.52544	0.03874
2282.23967	0.03789
2280.95390	0.03727
2279.66813	0.03694
2278.38236	0.03674
2277.09659	0.03657
2275.81082	0.03647
2274.52505	0.03636
2273.23929	0.03607
2271.95352	0.03557
2270.66775	0.03504
2269.38198	0.03470
2268.09621	0.03461
2266.81044	0.03474
2265.52467	0.03501
2264.23890	0.03511
2262.95314	0.03489
2261.66737	0.03437
2260.38160	0.03370
2259.09583	0.03313
2257.81006	0.03284
2256.52429	0.03278
2255.23852	0.03275
2253.95275	0.03263
2252.66698	0.03242
2251.38122	0.03226
2250.09545	0.03219
2248.80968	0.03186
2247.52391	0.03149
2246.23814	0.03113
2244.95237	0.03082
2243.66660	0.03047
2242.38083	0.03003
2241.09507	0.02957
2239.80930	0.02928
2238.52353	0.02937
2237.23776	0.02992
2235.95199	0.03073
2234.66622	0.03130
2233.38045	0.03121
2232.09468	0.03040
2230.80891	0.02933
2229.52315	0.02848
2228.23738	0.02791
2226.95161	0.02741
2225.66584	0.02705
2224.38007	0.02721
2223.09430	0.02799
2221.80853	0.02875
2220.52276	0.02881
2219.23700	0.02820
2217.95123	0.02755
2216.66546	0.02731
2215.37969	0.02737
2214.09392	0.02735
2212.80815	0.02707
2211.52238	0.02669
2210.23661	0.02654
2208.95084	0.02675
2207.66508	0.02712
2206.37931	0.02733
2205.09354	0.02706
2203.80777	0.02616
2202.52200	0.02495
2201.23623	0.02416
2199.95046	0.02429
2198.66469	0.02503
2197.37893	0.02559
2196.09316	0.02568
2194.80739	0.02556
2193.52162	0.02537
2192.23585	0.02484
2190.95008	0.02388
2189.66431	0.02291
2188.37854	0.02242
2187.09277	0.02240
2185.80701	0.02245
2184.52124	0.02229
2183.23547	0.02188
2181.94970	0.02130
2180.66393	0.02076
2179.37816	0.02050
2178.09239	0.02058
2176.80662	0.02066
2175.52085	0.02039
2174.23509	0.01979
2172.94932	0.01913
2171.66355	0.01847
2170.37778	0.01788
2169.09201	0.01776
2167.80624	0.01853
2166.52047	0.01978
2165.23470	0.02037
2163.94894	0.01958
2162.66317	0.01776
2161.37740	0.01589
2160.09163	0.01477
2158.80586	0.01495
2157.52009	0.01645
2156.23432	0.01845
2154.94855	0.01974
2153.66278	0.01968
2152.37702	0.01868
2151.09125	0.01771
2149.80548	0.01752
2148.51971	0.01820
2147.23394	0.01917
2145.94817	0.01955
2144.66240	0.01909
2143.37663	0.01845
2142.09087	0.01852
2140.80510	0.01952
2139.51933	0.02097
2138.23356	0.02230
2136.94779	0.02339
2135.66202	0.02433
2134.37625	0.02502
2133.09048	0.02526
2131.80471	0.02504
2130.51895	0.02469
2129.23318	0.02466
2127.94741	0.02519
2126.66164	0.02616
2125.37587	0.02723
2124.09010	0.02802
2122.80433	0.02837
2121.51856	0.02829
2120.23280	0.02791
2118.94703	0.02731
2117.66126	0.02655
2116.37549	0.02577
2115.08972	0.02518
2113.80395	0.02489
2112.51818	0.02488
2111.23241	0.02494
2109.94664	0.02486
2108.66088	0.02461
2107.37511	0.02446
2106.08934	0.02467
2104.80357	0.02523
2103.51780	0.02576
2102.23203	0.02595
2100.94626	0.02579
2099.66049	0.02572
2098.37473	0.02568
2097.08896	0.02577
2095.80319	0.02581
2094.51742	0.02565
2093.23165	0.02537
2091.94588	0.02516
2090.66011	0.02510
2089.37434	0.02512
2088.08857	0.02509
2086.80281	0.02483
2085.51704	0.02427
2084.23127	0.02357
2082.94550	0.02309
2081.65973	0.02305
2080.37396	0.02330
2079.08819	0.02356
2077.80242	0.02362
2076.51666	0.02352
2075.23089	0.02333
2073.94512	0.02313
2072.65935	0.02293
2071.37358	0.02275
2070.08781	0.02247
2068.80204	0.02193
2067.51627	0.02106
2066.23050	0.02001
2064.94474	0.01916
2063.65897	0.01883
2062.37320	0.01905
2061.08743	0.01953
2059.80166	0.01996
2058.51589	0.02015
2057.23012	0.02016
2055.94435	0.02005
2054.65859	0.01980
2053.37282	0.01926
2052.08705	0.01838
2050.80128	0.01741
2049.51551	0.01672
2048.22974	0.01644
2046.94397	0.01624
2045.65820	0.01572
2044.37243	0.01494
2043.08667	0.01440
2041.80090	0.01429
2040.51513	0.01425
2039.22936	0.01379
2037.94359	0.01297
2036.65782	0.01223
2035.37205	0.01177
2034.08628	0.01132
2032.80052	0.01069
2031.51475	0.01022
2030.22898	0.01050
2028.94321	0.01172
2027.65744	0.01334
2026.37167	0.01452
2025.08590	0.01486
2023.80013	0.01471
2022.51436	0.01464
2021.22860	0.01480
2019.94283	0.01480
2018.65706	0.01436
2017.37129	0.01367
2016.08552	0.01320
2014.79975	0.01313
2013.51398	0.01327
2012.22821	0.01320
2010.94245	0.01270
2009.65668	0.01191
2008.37091	0.01136
2007.08514	0.01167
2005.79937	0.01311
2004.51360	0.01540
2003.22783	0.01773
2001.94206	0.01921
2000.65629	0.01943
1999.37053	0.01880
1998.08476	0.01810
1996.79899	0.01780
1995.51322	0.01779
1994.22745	0.01779
1992.94168	0.01785
1991.65591	0.01826
1990.37014	0.01903
1989.08438	0.01964
1987.79861	0.01947
1986.51284	0.01849
1985.22707	0.01734
1983.94130	0.01666
1982.65553	0.01644
1981.36976	0.01620
1980.08399	0.01582
1978.79822	0.01572
1977.51246	0.01616
1976.22669	0.01669
1974.94092	0.01665
1973.65515	0.01593
1972.36938	0.01502
1971.08361	0.01454
1969.79784	0.01477
1968.51207	0.01557
1967.22631	0.01646
1965.94054	0.01697
1964.65477	0.01698
1963.36900	0.01679
1962.08323	0.01693
1960.79746	0.01762
1959.51169	0.01866
1958.22592	0.01951
1956.94015	0.01980
1955.65439	0.01953
1954.36862	0.01903
1953.08285	0.01868
1951.79708	0.01866
1950.51131	0.01899
1949.22554	0.01963
1947.93977	0.02056
1946.65400	0.02158
1945.36823	0.02240
1944.08247	0.02285
1942.79670	0.02302
1941.51093	0.02309
1940.22516	0.02312
1938.93939	0.02303
1937.65362	0.02284
1936.36785	0.02271
1935.08208	0.02271
1933.79632	0.02275
1932.51055	0.02267
1931.22478	0.02254
1929.93901	0.02259
1928.65324	0.02292
1927.36747	0.02344
1926.08170	0.02396
1924.79593	0.02432
1923.51016	0.02440
1922.22440	0.02422
1920.93863	0.02398
1919.65286	0.02391
1918.36709	0.02404
1917.08132	0.02420
1915.79555	0.02426
1914.50978	0.02428
1913.22401	0.02438
1911.93825	0.02456
1910.65248	0.02479
1909.36671	0.02506
1908.08094	0.02533
1906.79517	0.02556
1905.50940	0.02568
1904.22363	0.02567
1902.93786	0.02559
1901.65209	0.02549
1900.36633	0.02540
1899.08056	0.02526
1897.79479	0.02502
1896.50902	0.02466
1895.22325	0.02432
1893.93748	0.02413
1892.65171	0.02418
1891.36594	0.02436
1890.08018	0.02450
1888.79441	0.02447
1887.50864	0.02433
1886.22287	0.02421
1884.93710	0.02417
1883.65133	0.02419
1882.36556	0.02428
1881.07979	0.02450
1879.79402	0.02486
1878.50826	0.02522
1877.22249	0.02543
1875.93672	0.02542
1874.65095	0.02529
1873.36518	0.02515
1872.07941	0.02507
1870.79364	0.02509
1869.50787	0.02517
1868.22211	0.02528
1866.93634	0.02540
1865.65057	0.02551
1864.36480	0.02554
1863.07903	0.02546
1861.79326	0.02528
1860.50749	0.02513
1859.22172	0.02508
1857.93595	0.02517
1856.65019	0.02532
1855.36442	0.02545
1854.07865	0.02550
1852.79288	0.02549
1851.50711	0.02547
1850.22134	0.02547
1848.93557	0.02548
1847.64980	0.02547
1846.36404	0.02547
1845.07827	0.02550
1843.79250	0.02548
1842.50673	0.02539
1841.22096	0.02528
1839.93519	0.02522
1838.64942	0.02523
1837.36365	0.02528
1836.07788	0.02541
1834.79212	0.02562
1833.50635	0.02585
1832.22058	0.02601
1830.93481	0.02604
1829.64904	0.02596
1828.36327	0.02590
1827.07750	0.02596
1825.79173	0.02614
1824.50597	0.02632
1823.22020	0.02637
1821.93443	0.02632
1820.64866	0.02627
1819.36289	0.02629
1818.07712	0.02638
1816.79135	0.02650
1815.50558	0.02660
1814.21981	0.02665
1812.93405	0.02660
1811.64828	0.02646
1810.36251	0.02630
1809.07674	0.02621
1807.79097	0.02625
1806.50520	0.02639
1805.21943	0.02653
1803.93366	0.02662
1802.64790	0.02666
1801.36213	0.02671
1800.07636	0.02679
1798.79059	0.02687
1797.50482	0.02693
1796.21905	0.02698
1794.93328	0.02705
1793.64751	0.02713
1792.36174	0.02712
1791.07598	0.02698
1789.79021	0.02679
1788.50444	0.02666
1787.21867	0.02663
1785.93290	0.02667
1784.64713	0.02673
1783.36136	0.02682
1782.07559	0.02697
1780.78983	0.02712
1779.50406	0.02722
1778.21829	0.02725
1776.93252	0.02724
1775.64675	0.02723
1774.36098	0.02727
1773.07521	0.02733
1771.78944	0.02738
1770.50367	0.02742
1769.21791	0.02750
1767.93214	0.02762
1766.64637	0.02772
1765.36060	0.02781
1764.07483	0.02797
1762.78906	0.02818
1761.50329	0.02835
1760.21752	0.02842
1758.93176	0.02841
1757.64599	0.02839
1756.36022	0.02837
1755.07445	0.02835
1753.78868	0.02838
1752.50291	0.02845
1751.21714	0.02853
1749.93137	0.02858
1748.64560	0.02862
1747.35984	0.02871
1746.07407	0.02885
1744.78830	0.02899
1743.50253	0.02908
1742.21676	0.02909
1740.93099	0.02908
1739.64522	0.02908
1738.35945	0.02908
1737.07369	0.02916
1735.78792	0.02939
1734.50215	0.02974
1733.21638	0.03008
1731.93061	0.03033
1730.64484	0.03052
1729.35907	0.03064
1728.07330	0.03068
1726.78753	0.03067
1725.50177	0.03067
1724.21600	0.03074
1722.93023	0.03090
1721.64446	0.03112
1720.35869	0.03140
1719.07292	0.03174
1717.78715	0.03210
1716.50138	0.03246
1715.21561	0.03285
1713.92985	0.03330
1712.64408	0.03375
1711.35831	0.03418
1710.07254	0.03459
1708.78677	0.03501
1707.50100	0.03544
1706.21523	0.03580
1704.92946	0.03605
1703.64370	0.03625
1702.35793	0.03660
1701.07216	0.03711
1699.78639	0.03758
1698.50062	0.03796
1697.21485	0.03837
1695.92908	0.03880
1694.64331	0.03905
1693.35754	0.03914
1692.07178	0.03918
1690.78601	0.03922
1689.50024	0.03924
1688.21447	0.03928
1686.92870	0.03947
1685.64293	0.03985
1684.35716	0.04025
1683.07139	0.04051
1681.78563	0.04068
1680.49986	0.04084
1679.21409	0.04100
1677.92832	0.04123
1676.64255	0.04158
1675.35678	0.04197
1674.07101	0.04227
1672.78524	0.04249
1671.49947	0.04276
1670.21371	0.04310
1668.92794	0.04346
1667.64217	0.04377
1666.35640	0.04406
1665.07063	0.04439
1663.78486	0.04477
1662.49909	0.04511
1661.21332	0.04533
1659.92756	0.04546
1658.64179	0.04551
1657.35602	0.04554
1656.07025	0.04572
1654.78448	0.04614
1653.49871	0.04666
1652.21294	0.04698
1650.92717	0.04701
1649.64140	0.04702
1648.35564	0.04719
1647.06987	0.04749
1645.78410	0.04775
1644.49833	0.04789
1643.21256	0.04793
1641.92679	0.04790
1640.64102	0.04785
1639.35525	0.04784
1638.06949	0.04792
1636.78372	0.04808
1635.49795	0.04819
1634.21218	0.04819
1632.92641	0.04816
1631.64064	0.04825
1630.35487	0.04843
1629.06910	0.04863
1627.78333	0.04878
1626.49757	0.04888
1625.21180	0.04901
1623.92603	0.04916
1622.64026	0.04926
1621.35449	0.04929
1620.06872	0.04935
1618.78295	0.04955
1617.49718	0.04988
1616.21142	0.05016
1614.92565	0.05032
1613.63988	0.05042
1612.35411	0.05056
1611.06834	0.05071
1609.78257	0.05087
1608.49680	0.05101
1607.21103	0.05116
1605.92526	0.05137
1604.63950	0.05162
1603.35373	0.05188
1602.06796	0.05210
1600.78219	0.05227
1599.49642	0.05244
1598.21065	0.05264
1596.92488	0.05286
1595.63911	0.05307
1594.35335	0.05327
1593.06758	0.05348
1591.78181	0.05373
1590.49604	0.05401
1589.21027	0.05430
1587.92450	0.05460
1586.63873	0.05489
1585.35296	0.05517
1584.06719	0.05544
1582.78143	0.05574
1581.49566	0.05607
1580.20989	0.05643
1578.92412	0.05684
1577.63835	0.05731
1576.35258	0.05779
1575.06681	0.05818
1573.78104	0.05851
1572.49528	0.05891
1571.20951	0.05940
1569.92374	0.05990
1568.63797	0.06035
1567.35220	0.06076
1566.06643	0.06115
1564.78066	0.06151
1563.49489	0.06180
1562.20912	0.06216
1560.92336	0.06268
1559.63759	0.06331
1558.35182	0.06384
1557.06605	0.06424
1555.78028	0.06459
1554.49451	0.06498
1553.20874	0.06534
1551.92297	0.06567
1550.63721	0.06597
1549.35144	0.06618
1548.06567	0.06629
1546.77990	0.06630
1545.49413	0.06627
1544.20836	0.06621
1542.92259	0.06617
1541.63682	0.06622
1540.35105	0.06633
1539.06529	0.06635
1537.77952	0.06620
1536.49375	0.06600
1535.20798	0.06588
1533.92221	0.06586
1532.63644	0.06588
1531.35067	0.06595
1530.06490	0.06615
1528.77914	0.06648
1527.49337	0.06692
1526.20760	0.06740
1524.92183	0.06791
1523.63606	0.06851
1522.35029	0.06923
1521.06452	0.06999
1519.77875	0.07073
1518.49298	0.07152
1517.20722	0.07246
1515.92145	0.07354
1514.63568	0.07472
1513.34991	0.07600
1512.06414	0.07733
1510.77837	0.07869
1509.49260	0.08014
1508.20683	0.08173
1506.92107	0.08339
1505.63530	0.08490
1504.34953	0.08618
1503.06376	0.08731
1501.77799	0.08838
1500.49222	0.08938
1499.20645	0.09029
1497.92068	0.09115
1496.63491	0.09200
1495.34915	0.09280
1494.06338	0.09357
1492.77761	0.09434
1491.49184	0.09516
1490.20607	0.09601
1488.92030	0.09690
1487.63453	0.09788
1486.34876	0.09898
1485.06299	0.10022
1483.77723	0.10155
1482.49146	0.10294
1481.20569	0.10438
1479.91992	0.10585
1478.63415	0.10734
1477.34838	0.10879
1476.06261	0.11021
1474.77684	0.11164
1473.49108	0.11315
1472.20531	0.11470
1470.91954	0.11625
1469.63377	0.11774
1468.34800	0.11919
1467.06223	0.12060
1465.77646	0.12195
1464.49069	0.12316
1463.20492	0.12420
1461.91916	0.12511
1460.63339	0.12601
1459.34762	0.12699
1458.06185	0.12807
1456.77608	0.12910
1455.49031	0.12996
1454.20454	0.13063
1452.91877	0.13118
1451.63301	0.13160
1450.34724	0.13186
1449.06147	0.13199
1447.77570	0.13196
1446.48993	0.13178
1445.20416	0.13143
1443.91839	0.13093
1442.63262	0.13033
1441.34685	0.12967
1440.06109	0.12902
1438.77532	0.12850
1437.48955	0.12816
1436.20378	0.12797
1434.91801	0.12798
1433.63224	0.12830
1432.34647	0.12900
1431.06070	0.13006
1429.77494	0.13138
1428.48917	0.13286
1427.20340	0.13444
1425.91763	0.13611
1424.63186	0.13787
1423.34609	0.13965
1422.06032	0.14144
1420.77455	0.14319
1419.48878	0.14480
1418.20302	0.14618
1416.91725	0.14730
1415.63148	0.14818
1414.34571	0.14883
1413.05994	0.14925
1411.77417	0.14944
1410.48840	0.14938
1409.20263	0.14903
1407.91687	0.14838
1406.63110	0.14744
1405.34533	0.14624
1404.05956	0.14477
1402.77379	0.14305
1401.48802	0.14111
1400.20225	0.13898
1398.91648	0.13670
1397.63071	0.13431
1396.34495	0.13186
1395.05918	0.12934
1393.77341	0.12671
1392.48764	0.12399
1391.20187	0.12131
1389.91610	0.11881
1388.63033	0.11654
1387.34456	0.11449
1386.05880	0.11258
1384.77303	0.11075
1383.48726	0.10899
1382.20149	0.10727
1380.91572	0.10557
1379.62995	0.10385
1378.34418	0.10208
1377.05841	0.10019
1375.77264	0.09809
1374.48688	0.09570
1373.20111	0.09299
1371.91534	0.09007
1370.62957	0.08712
1369.34380	0.08431
1368.05803	0.08172
1366.77226	0.07933
1365.48649	0.07709
1364.20073	0.07495
1362.91496	0.07285
1361.62919	0.07080
1360.34342	0.06881
1359.05765	0.06695
1357.77188	0.06529
1356.48611	0.06382
1355.20034	0.06252
1353.91457	0.06133
1352.62881	0.06020
1351.34304	0.05907
1350.05727	0.05790
1348.77150	0.05674
1347.48573	0.05569
1346.19996	0.05479
1344.91419	0.05402
1343.62842	0.05330
1342.34266	0.05258
1341.05689	0.05188
1339.77112	0.05124
1338.48535	0.05065
1337.19958	0.05011
1335.91381	0.04956
1334.62804	0.04901
1333.34227	0.04846
1332.05650	0.04795
1330.77074	0.04749
1329.48497	0.04707
1328.19920	0.04671
1326.91343	0.04637
1325.62766	0.04604
1324.34189	0.04573
1323.05612	0.04543
1321.77035	0.04514
1320.48459	0.04485
1319.19882	0.04457
1317.91305	0.04429
1316.62728	0.04400
1315.34151	0.04370
1314.05574	0.04339
1312.76997	0.04311
1311.48420	0.04288
1310.19843	0.04267
1308.91267	0.04244
1307.62690	0.04218
1306.34113	0.04189
1305.05536	0.04161
1303.76959	0.04133
1302.48382	0.04107
1301.19805	0.04079
1299.91228	0.04049
1298.62652	0.04020
1297.34075	0.03993
1296.05498	0.03971
1294.76921	0.03954
1293.48344	0.03938
1292.19767	0.03917
1290.91190	0.03892
1289.62613	0.03861
1288.34036	0.03827
1287.05460	0.03793
1285.76883	0.03762
1284.48306	0.03735
1283.19729	0.03712
1281.91152	0.03692
1280.62575	0.03670
1279.33998	0.03647
1278.05421	0.03624
1276.76845	0.03605
1275.48268	0.03588
1274.19691	0.03573
1272.91114	0.03554
1271.62537	0.03529
1270.33960	0.03500
1269.05383	0.03471
1267.76806	0.03447
1266.48229	0.03430
1265.19653	0.03416
1263.91076	0.03402
1262.62499	0.03385
1261.33922	0.03365
1260.05345	0.03346
1258.76768	0.03330
1257.48191	0.03317
1256.19614	0.03304
1254.91037	0.03293
1253.62461	0.03284
1252.33884	0.03276
1251.05307	0.03265
1249.76730	0.03250
1248.48153	0.03231
1247.19576	0.03211
1245.90999	0.03193
1244.62422	0.03175
1243.33846	0.03159
1242.05269	0.03144
1240.76692	0.03131
1239.48115	0.03118
1238.19538	0.03103
1236.90961	0.03086
1235.62384	0.03071
1234.33807	0.03059
1233.05230	0.03048
1231.76654	0.03037
1230.48077	0.03026
1229.19500	0.03016
1227.90923	0.03005
1226.62346	0.02991
1225.33769	0.02975
1224.05192	0.02959
1222.76615	0.02945
1221.48039	0.02936
1220.19462	0.02930
1218.90885	0.02925
1217.62308	0.02919
1216.33731	0.02913
1215.05154	0.02905
1213.76577	0.02896
1212.48000	0.02885
1211.19423	0.02873
1209.90847	0.02863
1208.62270	0.02854
1207.33693	0.02845
1206.05116	0.02835
1204.76539	0.02823
1203.47962	0.02814
1202.19385	0.02809
1200.90808	0.02807
1199.62232	0.02799
1198.33655	0.02794
1197.05078	0.02789
1195.76501	0.02782
1194.47924	0.02778
1193.19347	0.02777
1191.90770	0.02779
1190.62193	0.02779
1189.33616	0.02774
1188.05040	0.02765
1186.76463	0.02756
1185.47886	0.02750
1184.19309	0.02751
1182.90732	0.02757
1181.62155	0.02763
1180.33578	0.02765
1179.05001	0.02764
1177.76425	0.02765
1176.47848	0.02769
1175.19271	0.02776
1173.90694	0.02785
1172.62117	0.02794
1171.33540	0.02803
1170.04963	0.02817
1168.76386	0.02837
1167.47809	0.02862
1166.19233	0.02886
1164.90656	0.02905
1163.62079	0.02919
1162.33502	0.02936
1161.04925	0.02958
1159.76348	0.02984
1158.47771	0.03011
1157.19194	0.03037
1155.90618	0.03062
1154.62041	0.03090
1153.33464	0.03122
1152.04887	0.03159
1150.76310	0.03202
1149.47733	0.03248
1148.19156	0.03298
1146.90579	0.03355
1145.62002	0.03425
1144.33426	0.03508
1143.04849	0.03598
1141.76272	0.03689
1140.47695	0.03781
1139.19118	0.03884
1137.90541	0.04006
1136.61964	0.04146
1135.33387	0.04298
1134.04811	0.04463
1132.76234	0.04649
1131.47657	0.04868
1130.19080	0.05126
1128.90503	0.05418
1127.61926	0.05733
1126.33349	0.06067
1125.04772	0.06420
1123.76195	0.06794
1122.47619	0.07184
1121.19042	0.07588
1119.90465	0.08002
1118.61888	0.08422
1117.33311	0.08841
1116.04734	0.09253
1114.76157	0.09656
1113.47580	0.10049
1112.19004	0.10431
1110.90427	0.10798
1109.61850	0.11153
1108.33273	0.11503
1107.04696	0.11849
1105.76119	0.12186
1104.47542	0.12503
1103.18965	0.12798
1101.90388	0.13073
1100.61812	0.13335
1099.33235	0.13583
1098.04658	0.13813
1096.76081	0.14023
1095.47504	0.14220
1094.18927	0.14411
1092.90350	0.14596
1091.61773	0.14771
1090.33197	0.14933
1089.04620	0.15090
1087.76043	0.15245
1086.47466	0.15395
1085.18889	0.15535
1083.90312	0.15674
1082.61735	0.15826
1081.33158	0.16000
1080.04581	0.16200
1078.76005	0.16422
1077.47428	0.16659
1076.18851	0.16909
1074.90274	0.17169
1073.61697	0.17439
1072.33120	0.17715
1071.04543	0.17991
1069.75966	0.18268
1068.47390	0.18549
1067.18813	0.18842
1065.90236	0.19149
1064.61659	0.19467
1063.33082	0.19795
1062.04505	0.20133
1060.75928	0.20479
1059.47351	0.20827
1058.18774	0.21168
1056.90198	0.21498
1055.61621	0.21819
1054.33044	0.22137
1053.04467	0.22462
1051.75890	0.22802
1050.47313	0.23162
1049.18736	0.23541
1047.90159	0.23933
1046.61583	0.24329
1045.33006	0.24729
1044.04429	0.25137
1042.75852	0.25556
1041.47275	0.25984
1040.18698	0.26415
1038.90121	0.26848
1037.61544	0.27290
1036.32967	0.27742
1035.04391	0.28195
1033.75814	0.28634
1032.47237	0.29047
1031.18660	0.29430
1029.90083	0.29784
1028.61506	0.30113
1027.32929	0.30415
1026.04352	0.30687
1024.75775	0.30924
1023.47199	0.31123
1022.18622	0.31281
1020.90045	0.31401
1019.61468	0.31488
1018.32891	0.31542
1017.04314	0.31562
1015.75737	0.31537
1014.47160	0.31456
1013.18584	0.31319
1011.90007	0.31129
1010.61430	0.30887
1009.32853	0.30594
1008.04276	0.30254
1006.75699	0.29869
1005.47122	0.29439
1004.18545	0.28958
1002.89968	0.28427
1001.61392	0.27856
1000.32815	0.27255
999.04238	0.26632
997.75661	0.25988
996.47084	0.25322
995.18507	0.24633
993.89930	0.23929
992.61353	0.23222
991.32777	0.22527
990.04200	0.21854
988.75623	0.21206
987.47046	0.20575
986.18469	0.19955
984.89892	0.19346
983.61315	0.18756
982.32738	0.18193
981.04161	0.17662
979.75585	0.17164
978.47008	0.16696
977.18431	0.16259
975.89854	0.15855
974.61277	0.15496
973.32700	0.15191
972.04123	0.14944
970.75546	0.14751
969.46970	0.14612
968.18393	0.14533
966.89816	0.14519
965.61239	0.14566
964.32662	0.14647
963.04085	0.14724
961.75508	0.14763
960.46931	0.14742
959.18354	0.14649
957.89778	0.14481
956.61201	0.14243
955.32624	0.13960
954.04047	0.13663
952.75470	0.13372
951.46893	0.13089
950.18316	0.12811
948.89739	0.12534
947.61163	0.12257
946.32586	0.11979
945.04009	0.11704
943.75432	0.11437
942.46855	0.11181
941.18278	0.10933
939.89701	0.10692
938.61124	0.10463
937.32547	0.10249
936.03971	0.10050
934.75394	0.09867
933.46817	0.09697
932.18240	0.09537
930.89663	0.09383
929.61086	0.09231
928.32509	0.09083
927.03932	0.08944
925.75356	0.08817
924.46779	0.08702
923.18202	0.08597
921.89625	0.08497
920.61048	0.08400
919.32471	0.08305
918.03894	0.08214
916.75317	0.08126
915.46740	0.08041
914.18164	0.07955
912.89587	0.07871
911.61010	0.07793
910.32433	0.07723
909.03856	0.07659
907.75279	0.07595
906.46702	0.07526
905.18125	0.07450
903.89549	0.07372
902.60972	0.07295
901.32395	0.07222
900.03818	0.07159
898.75241	0.07111
897.46664	0.07079
896.18087	0.07052
894.89510	0.07021
893.60933	0.06981
892.32357	0.06939
891.03780	0.06910
889.75203	0.06903
888.46626	0.06925
887.18049	0.06980
885.89472	0.07092
884.60895	0.07291
883.32318	0.07592
882.03742	0.07962
880.75165	0.08326
879.46588	0.08617
878.18011	0.08825
876.89434	0.08989
875.60857	0.09159
874.32280	0.09346
873.03703	0.09515
871.75126	0.09610
870.46550	0.09597
869.17973	0.09477
867.89396	0.09275
866.60819	0.09025
865.32242	0.08755
864.03665	0.08482
862.75088	0.08218
861.46511	0.07969
860.17935	0.07743
858.89358	0.07544
857.60781	0.07372
856.32204	0.07220
855.03627	0.07081
853.75050	0.06951
852.46473	0.06838
851.17896	0.06748
849.89319	0.06680
848.60743	0.06619
847.32166	0.06554
846.03589	0.06484
844.75012	0.06417
843.46435	0.06355
842.17858	0.06296
840.89281	0.06239
839.60704	0.06184
838.32128	0.06133
837.03551	0.06083
835.74974	0.06032
834.46397	0.05984
833.17820	0.05940
831.89243	0.05902
830.60666	0.05868
829.32089	0.05840
828.03512	0.05821
826.74936	0.05811
825.46359	0.05807
824.17782	0.05804
822.89205	0.05795
821.60628	0.05776
820.32051	0.05752
819.03474	0.05735
817.74897	0.05733
816.46321	0.05741
815.17744	0.05743
813.89167	0.05729
812.60590	0.05701
811.32013	0.05675
810.03436	0.05659
808.74859	0.05655
807.46282	0.05655
806.17705	0.05650
804.89129	0.05640
803.60552	0.05627
802.31975	0.05614
801.03398	0.05598
799.74821	0.05575
798.46244	0.05552
797.17667	0.05537
795.89090	0.05533
794.60513	0.05528
793.31937	0.05512
792.03360	0.05483
790.74783	0.05456
789.46206	0.05437
788.17629	0.05427
786.89052	0.05418
785.60475	0.05408
784.31898	0.05403
783.03322	0.05406
781.74745	0.05414
780.46168	0.05413
779.17591	0.05394
777.89014	0.05359
776.60437	0.05320
775.31860	0.05294
774.03283	0.05283
772.74706	0.05280
771.46130	0.05274
770.17553	0.05260
768.88976	0.05239
767.60399	0.05216
766.31822	0.05197
765.03245	0.05189
763.74668	0.05198
762.46091	0.05222
761.17515	0.05248
759.88938	0.05258
758.60361	0.05248
757.31784	0.05229
756.03207	0.05217
754.74630	0.05216
753.46053	0.05215
752.17476	0.05209
750.88899	0.05199
749.60323	0.05191
748.31746	0.05190
747.03169	0.05195
745.74592	0.05204
744.46015	0.05214
743.17438	0.05218
741.88861	0.05209
740.60284	0.05181
739.31708	0.05137
738.03131	0.05090
736.74554	0.05054
735.45977	0.05031
734.17400	0.05017
732.88823	0.05009
731.60246	0.05010
730.31669	0.05016
729.03092	0.05022
727.74516	0.05025
726.45939	0.05027
725.17362	0.05027
723.88785	0.05008
722.60208	0.05000
721.31631	0.04994
720.03054	0.04986
718.74477	0.04979
717.45901	0.04970
716.17324	0.04954
714.88747	0.04929
713.60170	0.04899
712.31593	0.04869
711.03016	0.04842
709.74439	0.04819
708.45862	0.04799
707.17285	0.04777
705.88709	0.04753
704.60132	0.04728
703.31555	0.04706
702.02978	0.04691
700.74401	0.04680
699.45824	0.04670
698.17247	0.04660
696.88670	0.04652
695.60094	0.04650
694.31517	0.04649
693.02940	0.04643
691.74363	0.04628
690.45786	0.04606
689.17209	0.04588
687.88632	0.04573
686.60055	0.04555
685.31478	0.04531
684.02902	0.04506
682.74325	0.04484
681.45748	0.04462
680.17171	0.04436
678.88594	0.04409
677.60017	0.04389
676.31440	0.04381
675.02863	0.04379
673.74287	0.04376
672.45710	0.04375
671.17133	0.04381
669.88556	0.04399
668.59979	0.04411
667.31402	0.04401
666.02825	0.04396
664.74248	0.04370
663.45671	0.04332
662.17095	0.04291
660.88518	0.04252
659.59941	0.04218
658.31364	0.04192
657.02787	0.04174
655.74210	0.04160
654.45633	0.04147
653.17056	0.04134
651.88480	0.04122
650.59903	0.04115
649.31326	0.04111
648.02749	0.04105
646.74172	0.04094
645.45595	0.04081
644.17018	0.04071
642.88441	0.04068
641.59864	0.04072
640.31288	0.04077
639.02711	0.04083
637.74134	0.04091
636.45557	0.04103
635.16980	0.04120
633.88403	0.04142
632.59826	0.04169
631.31249	0.04214
630.02673	0.04287
628.74096	0.04324
627.45519	0.04307
626.16942	0.04351
624.88365	0.04471
623.59788	0.04670
622.31211	0.04973
621.02634	0.05379
619.74057	0.05817
618.45481	0.06179
617.16904	0.06424
615.88327	0.06608
614.59750	0.06831
613.31173	0.07179
612.02596	0.07705
610.74019	0.08402
609.45442	0.09174
608.16866	0.09872
606.88289	0.10420
605.59712	0.10845
604.31135	0.11198
603.02558	0.11476
601.73981	0.11638
600.45404	0.11658
599.16827	0.11543
597.88250	0.11317
596.59674	0.11010
595.31097	0.10666
594.02520	0.10334
592.73943	0.10049
591.45366	0.09820
590.16789	0.09651
588.88212	0.09548
587.59635	0.09525
586.31059	0.09583
585.02482	0.09716
583.73905	0.09906
582.45328	0.10138
581.16751	0.10395
579.88174	0.10664
578.59597	0.10932
577.31020	0.11190
576.02443	0.11430
574.73867	0.11648
573.45290	0.11855
572.16713	0.12075
570.88136	0.12334
569.59559	0.12656
568.30982	0.13051
567.02405	0.13515
565.73828	0.14016
564.45251	0.14495
563.16675	0.14876
561.88098	0.15099
560.59521	0.15132
559.30944	0.14978
558.02367	0.14660
556.73790	0.14207
555.45213	0.13661
554.16636	0.13066
552.88060	0.12466
551.59483	0.11884
550.30906	0.11324
549.02329	0.10791
547.73752	0.10298
546.45175	0.09858
545.16598	0.09467
543.88021	0.09117
542.59444	0.08798
541.30868	0.08514
540.02291	0.08262
538.73714	0.08037
537.45137	0.07832
536.16560	0.07643
534.87983	0.07471
533.59406	0.07310
532.30829	0.07151
531.02253	0.06988
529.73676	0.06819
528.45099	0.06655
527.16522	0.06510
525.87945	0.06387
524.59368	0.06277
523.30791	0.06164
522.02214	0.06042
520.73637	0.05915
519.45061	0.05796
518.16484	0.05690
516.87907	0.05597
515.59330	0.05511
514.30753	0.05426
513.02176	0.05337
511.73599	0.05250
510.45022	0.05172
509.16446	0.05107
507.87869	0.05049
506.59292	0.04988
505.30715	0.04922
504.02138	0.04856
502.73561	0.04797
501.44984	0.04745
500.16407	0.04700
498.87830	0.04658
497.59254	0.04616
496.30677	0.04573
495.02100	0.04526
493.73523	0.04479
492.44946	0.04437
491.16369	0.04403
489.87792	0.04379
488.59215	0.04361
487.30639	0.04351
486.02062	0.04353
484.73485	0.04366
483.44908	0.04390
482.16331	0.04416
480.87754	0.04439
479.59177	0.04460
478.30600	0.04487
477.02023	0.04530
475.73447	0.04589
474.44870	0.04652
473.16293	0.04709
471.87716	0.04757
470.59139	0.04793
469.30562	0.04812
468.01985	0.04808
466.73408	0.04784
465.44832	0.04750
464.16255	0.04711
462.87678	0.04667
461.59101	0.04620
460.30524	0.04572
459.01947	0.04527
457.73370	0.04485
456.44793	0.04438
455.16216	0.04386
453.87640	0.04331
452.59063	0.04283
451.30486	0.04243
450.01909	0.04212
448.73332	0.04183
447.44755	0.04155
446.16178	0.04124
444.87601	0.04092
443.59025	0.04060
442.30448	0.04027
441.01871	0.03993
439.73294	0.03963
438.44717	0.03942
437.16140	0.03931
435.87563	0.03924
434.58986	0.03918
433.30409	0.03911
432.01833	0.03904
430.73256	0.03895
429.44679	0.03883
428.16102	0.03865
426.87525	0.03844
425.58948	0.03824
424.30371	0.03805
423.01794	0.03787
421.73218	0.03767
420.44641	0.03741
419.16064	0.03710
417.87487	0.03675
416.58910	0.03641
415.30333	0.03610
414.01756	0.03582
412.73179	0.03555
411.44602	0.03530
410.16026	0.03509
408.87449	0.03496
407.58872	0.03491
406.30295	0.03492
405.01718	0.03494
403.73141	0.03496
402.44564	0.03501
401.15987	0.03513
399.87411	0.03530
