3997.45528	0.04141
3996.16951	0.04069
3994.88374	0.04027
3993.59798	0.04040
3992.31221	0.04096
3991.02644	0.04153
3989.74067	0.04172
3988.45490	0.04154
3987.16913	0.04132
3985.88336	0.04130
3984.59759	0.04132
3983.31183	0.04118
3982.02606	0.04099
3980.74029	0.04101
3979.45452	0.04136
3978.16875	0.04183
3976.88298	0.04228
3975.59721	0.04270
3974.31144	0.04300
3973.02567	0.04290
3971.73991	0.04218
3970.45414	0.04102
3969.16837	0.04001
3967.88260	0.03966
3966.59683	0.04001
3965.31106	0.04067
3964.02529	0.04124
3962.73952	0.04162
3961.45376	0.04192
3960.16799	0.04222
3958.88222	0.04257
3957.59645	0.04300
3956.31068	0.04347
3955.02491	0.04385
3953.73914	0.04397
3952.45337	0.04374
3951.16760	0.04312
3949.88184	0.04221
3948.59607	0.04132
3947.31030	0.04075
3946.02453	0.04045
3944.73876	0.04015
3943.45299	0.03987
3942.16722	0.03998
3940.88145	0.04051
3939.59569	0.04107
3938.30992	0.04135
3937.02415	0.04144
3935.73838	0.04153
3934.45261	0.04164
3933.16684	0.04172
3931.88107	0.04173
3930.59530	0.04167
3929.30953	0.04161
3928.02377	0.04168
3926.73800	0.04191
3925.45223	0.04236
3924.16646	0.04307
3922.88069	0.04380
3921.59492	0.04411
3920.30915	0.04374
3919.02338	0.04284
3917.73762	0.04192
3916.45185	0.04150
3915.16608	0.04160
3913.88031	0.04170
3912.59454	0.04135
3911.30877	0.04056
3910.02300	0.03975
3908.73723	0.03941
3907.45146	0.03966
3906.16570	0.04027
3904.87993	0.04103
3903.59416	0.04183
3902.30839	0.04240
3901.02262	0.04244
3899.73685	0.04206
3898.45108	0.04172
3897.16531	0.04174
3895.87955	0.04216
3894.59378	0.04269
3893.30801	0.04289
3892.02224	0.04275
3890.73647	0.04289
3889.45070	0.04333
3888.16493	0.04317
3886.87916	0.04221
3885.59339	0.04157
3884.30763	0.04176
3883.02186	0.04186
3881.73609	0.04111
3880.45032	0.04013
3879.16455	0.03971
3877.87878	0.03956
3876.59301	0.03926
3875.30724	0.03927
3874.02148	0.04011
3872.73571	0.04106
3871.44994	0.04107
3870.16417	0.04061
3868.87840	0.04068
3867.59263	0.04078
3866.30686	0.04003
3865.02109	0.03889
3863.73532	0.03827
3862.44956	0.03817
3861.16379	0.03827
3859.87802	0.03874
3858.59225	0.03981
3857.30648	0.04093
3856.02071	0.04134
3854.73494	0.04140
3853.44917	0.04241
3852.16341	0.04431
3850.87764	0.04535
3849.59187	0.04454
3848.30610	0.04279
3847.02033	0.04126
3845.73456	0.04040
3844.44879	0.04021
3843.16302	0.04072
3841.87725	0.04177
3840.59149	0.04259
3839.30572	0.04258
3838.01995	0.04199
3836.73418	0.04144
3835.44841	0.04091
3834.16264	0.04023
3832.87687	0.03977
3831.59110	0.03996
3830.30534	0.04039
3829.01957	0.04023
3827.73380	0.03932
3826.44803	0.03845
3825.16226	0.03817
3823.87649	0.03798
3822.59072	0.03768
3821.30495	0.03816
3820.01918	0.03959
3818.73342	0.04040
3817.44765	0.03963
3816.16188	0.03887
3814.87611	0.03958
3813.59034	0.04075
3812.30457	0.04088
3811.01880	0.04003
3809.73303	0.03872
3808.44726	0.03734
3807.16150	0.03693
3805.87573	0.03818
3804.58996	0.03973
3803.30419	0.03981
3802.01842	0.03909
3800.73265	0.03955
3799.44688	0.04095
3798.16111	0.04129
3796.87535	0.04008
3795.58958	0.03863
3794.30381	0.03800
3793.01804	0.03823
3791.73227	0.03899
3790.44650	0.03983
3789.16073	0.04029
3787.87496	0.04016
3786.58919	0.03973
3785.30343	0.03954
3784.01766	0.03987
3782.73189	0.04034
3781.44612	0.04032
3780.16035	0.03980
3778.87458	0.03932
3777.58881	0.03909
3776.30304	0.03895
3775.01728	0.03890
3773.73151	0.03901
3772.44574	0.03901
3771.15997	0.03878
3769.87420	0.03880
3768.58843	0.03928
3767.30266	0.03961
3766.01689	0.03935
3764.73112	0.03884
3763.44536	0.03857
3762.15959	0.03854
3760.87382	0.03869
3759.58805	0.03905
3758.30228	0.03952
3757.01651	0.04003
3755.73074	0.04028
3754.44497	0.03990
3753.15921	0.03905
3751.87344	0.03848
3750.58767	0.03882
3749.30190	0.04019
3748.01613	0.04174
3746.73036	0.04171
3745.44459	0.04020
3744.15882	0.03967
3742.87305	0.04091
3741.58729	0.04176
3740.30152	0.04088
3739.01575	0.03912
3737.72998	0.03758
3736.44421	0.03684
3735.15844	0.03689
3733.87267	0.03724
3732.58690	0.03756
3731.30114	0.03810
3730.01537	0.03871
3728.72960	0.03871
3727.44383	0.03825
3726.15806	0.03805
3724.87229	0.03826
3723.58652	0.03846
3722.30075	0.03831
3721.01498	0.03787
3719.72922	0.03736
3718.44345	0.03703
3717.15768	0.03721
3715.87191	0.03770
3714.58614	0.03789
3713.30037	0.03771
3712.01460	0.03758
3710.72883	0.03788
3709.44307	0.03823
3708.15730	0.03784
3706.87153	0.03678
3705.58576	0.03575
3704.29999	0.03523
3703.01422	0.03537
3701.72845	0.03596
3700.44268	0.03675
3699.15691	0.03745
3697.87115	0.03800
3696.58538	0.03865
3695.29961	0.03942
3694.01384	0.04000
3692.72807	0.04001
3691.44230	0.03946
3690.15653	0.03861
3688.87076	0.03797
3687.58500	0.03793
3686.29923	0.03797
3685.01346	0.03723
3683.72769	0.03606
3682.44192	0.03539
3681.15615	0.03564
3679.87038	0.03662
3678.58461	0.03761
3677.29884	0.03810
3676.01308	0.03888
3674.72731	0.04076
3673.44154	0.04244
3672.15577	0.04187
3670.87000	0.03956
3669.58423	0.03790
3668.29846	0.03787
3667.01269	0.03871
3665.72693	0.03958
3664.44116	0.04009
3663.15539	0.04003
3661.86962	0.03944
3660.58385	0.03863
3659.29808	0.03780
3658.01231	0.03709
3656.72654	0.03706
3655.44077	0.03819
3654.15501	0.03969
3652.86924	0.04003
3651.58347	0.03887
3650.29770	0.03746
3649.01193	0.03703
3647.72616	0.03759
3646.44039	0.03829
3645.15462	0.03837
3643.86886	0.03779
3642.58309	0.03712
3641.29732	0.03694
3640.01155	0.03732
3638.72578	0.03792
3637.44001	0.03843
3636.15424	0.03876
3634.86847	0.03916
3633.58270	0.03973
3632.29694	0.03987
3631.01117	0.03884
3629.72540	0.03725
3628.43963	0.03672
3627.15386	0.03750
3625.86809	0.03824
3624.58232	0.03825
3623.29655	0.03822
3622.01079	0.03856
3620.72502	0.03902
3619.43925	0.03929
3618.15348	0.03936
3616.86771	0.03912
3615.58194	0.03854
3614.29617	0.03815
3613.01040	0.03868
3611.72463	0.03999
3610.43887	0.04107
3609.15310	0.04136
3607.86733	0.04124
3606.58156	0.04114
3605.29579	0.04097
3604.01002	0.04055
3602.72425	0.03999
3601.43848	0.03956
3600.15272	0.03952
3598.86695	0.03998
3597.58118	0.04072
3596.29541	0.04141
3595.00964	0.04221
3593.72387	0.04331
3592.43810	0.04427
3591.15233	0.04446
3589.86656	0.04367
3588.58080	0.04243
3587.29503	0.04183
3586.00926	0.04220
3584.72349	0.04303
3583.43772	0.04361
3582.15195	0.04366
3580.86618	0.04337
3579.58041	0.04312
3578.29464	0.04310
3577.00888	0.04323
3575.72311	0.04336
3574.43734	0.04333
3573.15157	0.04312
3571.86580	0.04285
3570.58003	0.04271
3569.29426	0.04291
3568.00849	0.04357
3566.72273	0.04448
3565.43696	0.04513
3564.15119	0.04524
3562.86542	0.04505
3561.57965	0.04499
3560.29388	0.04519
3559.00811	0.04550
3557.72234	0.04577
3556.43657	0.04598
3555.15081	0.04607
3553.86504	0.04604
3552.57927	0.04594
3551.29350	0.04591
3550.00773	0.04597
3548.72196	0.04611
3547.43619	0.04636
3546.15042	0.04669
3544.86466	0.04695
3543.57889	0.04697
3542.29312	0.04678
3541.00735	0.04643
3539.72158	0.04597
3538.43581	0.04546
3537.15004	0.04509
3535.86427	0.04506
3534.57850	0.04546
3533.29274	0.04613
3532.00697	0.04679
3530.72120	0.04717
3529.43543	0.04719
3528.14966	0.04709
3526.86389	0.04716
3525.57812	0.04737
3524.29235	0.04741
3523.00659	0.04710
3521.72082	0.04662
3520.43505	0.04634
3519.14928	0.04647
3517.86351	0.04700
3516.57774	0.04773
3515.29197	0.04847
3514.00620	0.04906
3512.72043	0.04940
3511.43467	0.04947
3510.14890	0.04931
3508.86313	0.04901
3507.57736	0.04862
3506.29159	0.04812
3505.00582	0.04760
3503.72005	0.04722
3502.43428	0.04714
3501.14852	0.04734
3499.86275	0.04772
3498.57698	0.04817
3497.29121	0.04860
3496.00544	0.04894
3494.71967	0.04926
3493.43390	0.04975
3492.14813	0.05043
3490.86236	0.05104
3489.57660	0.05118
3488.29083	0.05075
3487.00506	0.05001
3485.71929	0.04932
3484.43352	0.04887
3483.14775	0.04871
3481.86198	0.04883
3480.57621	0.04923
3479.29045	0.04981
3478.00468	0.05037
3476.71891	0.05076
3475.43314	0.05094
3474.14737	0.05098
3472.86160	0.05105
3471.57583	0.05117
3470.29006	0.05130
3469.00429	0.05137
3467.71853	0.05147
3466.43276	0.05165
3465.14699	0.05180
3463.86122	0.05174
3462.57545	0.05143
3461.28968	0.05111
3460.00391	0.05102
3458.71814	0.05118
3457.43238	0.05136
3456.14661	0.05131
3454.86084	0.05094
3453.57507	0.05037
3452.28930	0.04988
3451.00353	0.04977
3449.71776	0.05031
3448.43199	0.05147
3447.14622	0.05284
3445.86046	0.05369
3444.57469	0.05354
3443.28892	0.05261
3442.00315	0.05172
3440.71738	0.05146
3439.43161	0.05172
3438.14584	0.05200
3436.86007	0.05201
3435.57431	0.05184
3434.28854	0.05177
3433.00277	0.05199
3431.71700	0.05250
3430.43123	0.05313
3429.14546	0.05366
3427.85969	0.05389
3426.57392	0.05376
3425.28815	0.05342
3424.00239	0.05309
3422.71662	0.05290
3421.43085	0.05291
3420.14508	0.05312
3418.85931	0.05345
3417.57354	0.05372
3416.28777	0.05379
3415.00200	0.05371
3413.71624	0.05362
3412.43047	0.05359
3411.14470	0.05351
3409.85893	0.05329
3408.57316	0.05304
3407.28739	0.05296
3406.00162	0.05317
3404.71585	0.05356
3403.43008	0.05396
3402.14432	0.05423
3400.85855	0.05432
3399.57278	0.05428
3398.28701	0.05424
3397.00124	0.05428
3395.71547	0.05442
3394.42970	0.05466
3393.14393	0.05505
3391.85817	0.05550
3390.57240	0.05577
3389.28663	0.05565
3388.00086	0.05516
3386.71509	0.05454
3385.42932	0.05404
3384.14355	0.05377
3382.85778	0.05368
3381.57201	0.05364
3380.28625	0.05356
3379.00048	0.05346
3377.71471	0.05350
3376.42894	0.05383
3375.14317	0.05436
3373.85740	0.05482
3372.57163	0.05490
3371.28586	0.05456
3370.00010	0.05402
3368.71433	0.05353
3367.42856	0.05313
3366.14279	0.05274
3364.85702	0.05238
3363.57125	0.05225
3362.28548	0.05244
3360.99971	0.05280
3359.71394	0.05308
3358.42818	0.05325
3357.14241	0.05347
3355.85664	0.05375
3354.57087	0.05393
3353.28510	0.05397
3351.99933	0.05401
3350.71356	0.05411
3349.42779	0.05414
3348.14202	0.05394
3346.85626	0.05356
3345.57049	0.05329
3344.28472	0.05336
3342.99895	0.05381
3341.71318	0.05451
3340.42741	0.05520
3339.14164	0.05568
3337.85587	0.05579
3336.57011	0.05552
3335.28434	0.05497
3333.99857	0.05440
3332.71280	0.05409
3331.42703	0.05419
3330.14126	0.05456
3328.85549	0.05487
3327.56972	0.05490
3326.28395	0.05472
3324.99819	0.05461
3323.71242	0.05476
3322.42665	0.05504
3321.14088	0.05525
3319.85511	0.05530
3318.56934	0.05524
3317.28357	0.05506
3315.99780	0.05470
3314.71204	0.05419
3313.42627	0.05361
3312.14050	0.05307
3310.85473	0.05259
3309.56896	0.05217
3308.28319	0.05184
3306.99742	0.05168
3305.71165	0.05175
3304.42588	0.05201
3303.14012	0.05237
3301.85435	0.05272
3300.56858	0.05303
3299.28281	0.05333
3297.99704	0.05358
3296.71127	0.05368
3295.42550	0.05355
3294.13973	0.05322
3292.85397	0.05285
3291.56820	0.05262
3290.28243	0.05258
3288.99666	0.05271
3287.71089	0.05307
3286.42512	0.05366
3285.13935	0.05432
3283.85358	0.05472
3282.56781	0.05463
3281.28205	0.05408
3279.99628	0.05335
3278.71051	0.05281
3277.42474	0.05269
3276.13897	0.05287
3274.85320	0.05307
3273.56743	0.05319
3272.28166	0.05334
3270.99590	0.05361
3269.71013	0.05395
3268.42436	0.05424
3267.13859	0.05447
3265.85282	0.05458
3264.56705	0.05447
3263.28128	0.05412
3261.99551	0.05373
3260.70974	0.05351
3259.42398	0.05353
3258.13821	0.05366
3256.85244	0.05376
3255.56667	0.05376
3254.28090	0.05372
3252.99513	0.05369
3251.70936	0.05364
3250.42359	0.05351
3249.13783	0.05329
3247.85206	0.05304
3246.56629	0.05283
3245.28052	0.05274
3243.99475	0.05278
3242.70898	0.05299
3241.42321	0.05336
3240.13744	0.05381
3238.85167	0.05414
3237.56591	0.05414
3236.28014	0.05381
3234.99437	0.05334
3233.70860	0.05295
3232.42283	0.05272
3231.13706	0.05257
3229.85129	0.05243
3228.56552	0.05232
3227.27976	0.05224
3225.99399	0.05216
3224.70822	0.05207
3223.42245	0.05205
3222.13668	0.05216
3220.85091	0.05239
3219.56514	0.05259
3218.27937	0.05269
3216.99360	0.05275
3215.70784	0.05292
3214.42207	0.05325
3213.13630	0.05362
3211.85053	0.05381
3210.56476	0.05372
3209.27899	0.05342
3207.99322	0.05307
3206.70745	0.05277
3205.42169	0.05255
3204.13592	0.05248
3202.85015	0.05260
3201.56438	0.05282
3200.27861	0.05294
3198.99284	0.05281
3197.70707	0.05249
3196.42130	0.05229
3195.13553	0.05243
3193.84977	0.05287
3192.56400	0.05331
3191.27823	0.05346
3189.99246	0.05322
3188.70669	0.05269
3187.42092	0.05212
3186.13515	0.05176
3184.84938	0.05168
3183.56362	0.05168
3182.27785	0.05157
3180.99208	0.05136
3179.70631	0.05127
3178.42054	0.05141
3177.13477	0.05166
3175.84900	0.05179
3174.56323	0.05172
3173.27746	0.05162
3171.99170	0.05169
3170.70593	0.05195
3169.42016	0.05224
3168.13439	0.05244
3166.84862	0.05250
3165.56285	0.05237
3164.27708	0.05194
3162.99131	0.05121
3161.70555	0.05044
3160.41978	0.04999
3159.13401	0.05008
3157.84824	0.05062
3156.56247	0.05135
3155.27670	0.05192
3153.99093	0.05211
3152.70516	0.05186
3151.41939	0.05130
3150.13363	0.05067
3148.84786	0.05023
3147.56209	0.05013
3146.27632	0.05033
3144.99055	0.05068
3143.70478	0.05099
3142.41901	0.05116
3141.13324	0.05116
3139.84748	0.05094
3138.56171	0.05047
3137.27594	0.04987
3135.99017	0.04938
3134.70440	0.04922
3133.41863	0.04941
3132.13286	0.04980
3130.84709	0.05012
3129.56132	0.05022
3128.27556	0.05011
3126.98979	0.04999
3125.70402	0.04995
3124.41825	0.05000
3123.13248	0.05005
3121.84671	0.05011
3120.56094	0.05015
3119.27517	0.05010
3117.98940	0.04982
3116.70364	0.04935
3115.41787	0.04890
3114.13210	0.04871
3112.84633	0.04881
3111.56056	0.04901
3110.27479	0.04906
3108.98902	0.04888
3107.70325	0.04853
3106.41749	0.04816
3105.13172	0.04792
3103.84595	0.04780
3102.56018	0.04774
3101.27441	0.04773
3099.98864	0.04789
3098.70287	0.04830
3097.41710	0.04884
3096.13133	0.04921
3094.84557	0.04922
3093.55980	0.04892
3092.27403	0.04851
3090.98826	0.04814
3089.70249	0.04788
3088.41672	0.04775
3087.13095	0.04779
3085.84518	0.04799
3084.55942	0.04825
3083.27365	0.04840
3081.98788	0.04836
3080.70211	0.04817
3079.41634	0.04792
3078.13057	0.04771
3076.84480	0.04758
3075.55903	0.04755
3074.27326	0.04759
3072.98750	0.04769
3071.70173	0.04780
3070.41596	0.04783
3069.13019	0.04776
3067.84442	0.04758
3066.55865	0.04736
3065.27288	0.04718
3063.98711	0.04710
3062.70135	0.04722
3061.41558	0.04759
3060.12981	0.04807
3058.84404	0.04843
3057.55827	0.04854
3056.27250	0.04845
3054.98673	0.04826
3053.70096	0.04794
3052.41519	0.04734
3051.12943	0.04652
3049.84366	0.04576
3048.55789	0.04539
3047.27212	0.04553
3045.98635	0.04601
3044.70058	0.04649
3043.41481	0.04666
3042.12904	0.04646
3040.84328	0.04604
3039.55751	0.04566
3038.27174	0.04556
3036.98597	0.04580
3035.70020	0.04618
3034.41443	0.04641
3033.12866	0.04640
3031.84289	0.04631
3030.55712	0.04634
3029.27136	0.04642
3027.98559	0.04629
3026.69982	0.04592
3025.41405	0.04553
3024.12828	0.04536
3022.84251	0.04541
3021.55674	0.04548
3020.27097	0.04545
3018.98521	0.04530
3017.69944	0.04510
3016.41367	0.04493
3015.12790	0.04490
3013.84213	0.04504
3012.55636	0.04524
3011.27059	0.04529
3009.98482	0.04514
3008.69905	0.04493
3007.41329	0.04479
3006.12752	0.04471
3004.84175	0.04455
3003.55598	0.04423
3002.27021	0.04383
3000.98444	0.04351
2999.69867	0.04343
2998.41290	0.04371
2997.12714	0.04420
2995.84137	0.04460
2994.55560	0.04470
2993.26983	0.04458
2991.98406	0.04445
2990.69829	0.04448
2989.41252	0.04463
2988.12675	0.04483
2986.84098	0.04504
2985.55522	0.04520
2984.26945	0.04524
2982.98368	0.04512
2981.69791	0.04493
2980.41214	0.04486
2979.12637	0.04510
2977.84060	0.04568
2976.55483	0.04637
2975.26907	0.04695
2973.98330	0.04735
2972.69753	0.04772
2971.41176	0.04822
2970.12599	0.04890
2968.84022	0.04968
2967.55445	0.05041
2966.26868	0.05096
2964.98291	0.05129
2963.69715	0.05156
2962.41138	0.05201
2961.12561	0.05276
2959.83984	0.05375
2958.55407	0.05475
2957.26830	0.05545
2955.98253	0.05578
2954.69676	0.05593
2953.41100	0.05617
2952.12523	0.05662
2950.83946	0.05716
2949.55369	0.05755
2948.26792	0.05756
2946.98215	0.05719
2945.69638	0.05665
2944.41061	0.05622
2943.12484	0.05602
2941.83908	0.05601
2940.55331	0.05614
2939.26754	0.05638
2937.98177	0.05662
2936.69600	0.05672
2935.41023	0.05679
2934.12446	0.05706
2932.83869	0.05763
2931.55293	0.05826
2930.26716	0.05862
2928.98139	0.05868
2927.69562	0.05867
2926.40985	0.05879
2925.12408	0.05896
2923.83831	0.05895
2922.55254	0.05868
2921.26677	0.05827
2919.98101	0.05793
2918.69524	0.05764
2917.40947	0.05728
2916.12370	0.05679
2914.83793	0.05632
2913.55216	0.05606
2912.26639	0.05605
2910.98062	0.05616
2909.69486	0.05620
2908.40909	0.05610
2907.12332	0.05580
2905.83755	0.05533
2904.55178	0.05477
2903.26601	0.05426
2901.98024	0.05387
2900.69447	0.05357
2899.40870	0.05320
2898.12294	0.05268
2896.83717	0.05209
2895.55140	0.05167
2894.26563	0.05152
2892.97986	0.05152
2891.69409	0.05147
2890.40832	0.05127
2889.12255	0.05094
2887.83678	0.05052
2886.55102	0.05013
2885.26525	0.04986
2883.97948	0.04978
2882.69371	0.04986
2881.40794	0.05001
2880.12217	0.05013
2878.83640	0.05014
2877.55063	0.05011
2876.26487	0.05017
2874.97910	0.05043
2873.69333	0.05080
2872.40756	0.05111
2871.12179	0.05125
2869.83602	0.05125
2868.55025	0.05116
2867.26448	0.05100
2865.97871	0.05078
2864.69295	0.05054
2863.40718	0.05037
2862.12141	0.05024
2860.83564	0.05009
2859.54987	0.04986
2858.26410	0.04954
2856.97833	0.04909
2855.69256	0.04852
2854.40680	0.04790
2853.12103	0.04735
2851.83526	0.04697
2850.54949	0.04677
2849.26372	0.04672
2847.97795	0.04675
2846.69218	0.04684
2845.40641	0.04695
2844.12064	0.04700
2842.83488	0.04692
2841.54911	0.04663
2840.26334	0.04616
2838.97757	0.04560
2837.69180	0.04501
2836.40603	0.04438
2835.12026	0.04371
2833.83449	0.04309
2832.54873	0.04263
2831.26296	0.04241
2829.97719	0.04230
2828.69142	0.04213
2827.40565	0.04178
2826.11988	0.04126
2824.83411	0.04073
2823.54834	0.04035
2822.26257	0.04021
2820.97681	0.04030
2819.69104	0.04047
2818.40527	0.04055
2817.11950	0.04045
2815.83373	0.04024
2814.54796	0.04004
2813.26219	0.03989
2811.97642	0.03979
2810.69066	0.03971
2809.40489	0.03965
2808.11912	0.03957
2806.83335	0.03947
2805.54758	0.03937
2804.26181	0.03933
2802.97604	0.03933
2801.69027	0.03933
2800.40450	0.03924
2799.11874	0.03900
2797.83297	0.03858
2796.54720	0.03806
2795.26143	0.03769
2793.97566	0.03768
2792.68989	0.03799
2791.40412	0.03829
2790.11835	0.03827
2788.83259	0.03794
2787.54682	0.03757
2786.26105	0.03741
2784.97528	0.03747
2783.68951	0.03762
2782.40374	0.03770
2781.11797	0.03766
2779.83220	0.03753
2778.54643	0.03741
2777.26067	0.03741
2775.97490	0.03756
2774.68913	0.03782
2773.40336	0.03808
2772.11759	0.03821
2770.83182	0.03813
2769.54605	0.03786
2768.26028	0.03752
2766.97452	0.03720
2765.68875	0.03698
2764.40298	0.03687
2763.11721	0.03683
2761.83144	0.03681
2760.54567	0.03670
2759.25990	0.03648
2757.97413	0.03617
2756.68836	0.03588
2755.40260	0.03574
2754.11683	0.03578
2752.83106	0.03591
2751.54529	0.03604
2750.25952	0.03609
2748.97375	0.03603
2747.68798	0.03589
2746.40221	0.03571
2745.11645	0.03560
2743.83068	0.03562
2742.54491	0.03576
2741.25914	0.03597
2739.97337	0.03611
2738.68760	0.03609
2737.40183	0.03589
2736.11606	0.03560
2734.83029	0.03539
2733.54453	0.03533
2732.25876	0.03542
2730.97299	0.03556
2729.68722	0.03565
2728.40145	0.03557
2727.11568	0.03531
2725.82991	0.03497
2724.54414	0.03478
2723.25838	0.03480
2721.97261	0.03495
2720.68684	0.03513
2719.40107	0.03532
2718.11530	0.03548
2716.82953	0.03552
2715.54376	0.03540
2714.25799	0.03522
2712.97222	0.03509
2711.68646	0.03503
2710.40069	0.03499
2709.11492	0.03492
2707.82915	0.03476
2706.54338	0.03457
2705.25761	0.03442
2703.97184	0.03436
2702.68607	0.03438
2701.40031	0.03446
2700.11454	0.03458
2698.82877	0.03472
2697.54300	0.03476
2696.25723	0.03465
2694.97146	0.03443
2693.68569	0.03424
2692.39992	0.03415
2691.11415	0.03412
2689.82839	0.03410
2688.54262	0.03404
2687.25685	0.03396
2685.97108	0.03389
2684.68531	0.03381
2683.39954	0.03373
2682.11377	0.03370
2680.82800	0.03380
2679.54224	0.03407
2678.25647	0.03440
2676.97070	0.03458
2675.68493	0.03450
2674.39916	0.03424
2673.11339	0.03402
2671.82762	0.03394
2670.54185	0.03392
2669.25608	0.03385
2667.97032	0.03371
2666.68455	0.03355
2665.39878	0.03343
2664.11301	0.03339
2662.82724	0.03343
2661.54147	0.03351
2660.25570	0.03359
2658.96993	0.03363
2657.68417	0.03361
2656.39840	0.03354
2655.11263	0.03345
2653.82686	0.03336
2652.54109	0.03324
2651.25532	0.03309
2649.96955	0.03292
2648.68378	0.03272
2647.39801	0.03249
2646.11225	0.03227
2644.82648	0.03209
2643.54071	0.03196
2642.25494	0.03190
2640.96917	0.03188
2639.68340	0.03189
2638.39763	0.03186
2637.11186	0.03172
2635.82609	0.03145
2634.54033	0.03102
2633.25456	0.03050
2631.96879	0.03008
2630.68302	0.02995
2629.39725	0.03010
2628.11148	0.03036
2626.82571	0.03051
2625.53994	0.03048
2624.25418	0.03036
2622.96841	0.03030
2621.68264	0.03035
2620.39687	0.03037
2619.11110	0.03026
2617.82533	0.03000
2616.53956	0.02971
2615.25379	0.02945
2613.96802	0.02923
2612.68226	0.02907
2611.39649	0.02896
2610.11072	0.02884
2608.82495	0.02867
2607.53918	0.02858
2606.25341	0.02879
2604.96764	0.02922
2603.68187	0.02956
2602.39611	0.02955
2601.11034	0.02926
2599.82457	0.02892
2598.53880	0.02859
2597.25303	0.02825
2595.96726	0.02787
2594.68149	0.02756
2593.39572	0.02740
2592.10995	0.02736
2590.82419	0.02740
2589.53842	0.02746
2588.25265	0.02753
2586.96688	0.02757
2585.68111	0.02758
2584.39534	0.02748
2583.10957	0.02727
2581.82380	0.02708
2580.53804	0.02705
2579.25227	0.02716
2577.96650	0.02725
2576.68073	0.02725
2575.39496	0.02727
2574.10919	0.02726
2572.82342	0.02707
2571.53765	0.02666
2570.25188	0.02623
2568.96612	0.02605
2567.68035	0.02616
2566.39458	0.02642
2565.10881	0.02666
2563.82304	0.02678
2562.53727	0.02680
2561.25150	0.02679
2559.96573	0.02680
2558.67997	0.02673
2557.39420	0.02651
2556.10843	0.02621
2554.82266	0.02599
2553.53689	0.02595
2552.25112	0.02604
2550.96535	0.02610
2549.67958	0.02600
2548.39381	0.02588
2547.10805	0.02595
2545.82228	0.02630
2544.53651	0.02667
2543.25074	0.02677
2541.96497	0.02661
2540.67920	0.02640
2539.39343	0.02624
2538.10766	0.02596
2536.82190	0.02547
2535.53613	0.02502
2534.25036	0.02497
2532.96459	0.02544
2531.67882	0.02614
2530.39305	0.02672
2529.10728	0.02698
2527.82151	0.02695
2526.53574	0.02677
2525.24998	0.02659
2523.96421	0.02645
2522.67844	0.02633
2521.39267	0.02623
2520.10690	0.02617
2518.82113	0.02613
2517.53536	0.02600
2516.24959	0.02575
2514.96383	0.02555
2513.67806	0.02555
2512.39229	0.02569
2511.10652	0.02579
2509.82075	0.02577
2508.53498	0.02564
2507.24921	0.02549
2505.96344	0.02547
2504.67767	0.02569
2503.39191	0.02593
2502.10614	0.02587
2500.82037	0.02550
2499.53460	0.02512
2498.24883	0.02491
2496.96306	0.02475
2495.67729	0.02451
2494.39152	0.02422
2493.10576	0.02396
2491.81999	0.02375
2490.53422	0.02357
2489.24845	0.02347
2487.96268	0.02354
2486.67691	0.02388
2485.39114	0.02449
2484.10537	0.02511
2482.81960	0.02538
2481.53384	0.02512
2480.24807	0.02457
2478.96230	0.02419
2477.67653	0.02426
2476.39076	0.02466
2475.10499	0.02512
2473.81922	0.02546
2472.53345	0.02571
2471.24769	0.02590
2469.96192	0.02600
2468.67615	0.02594
2467.39038	0.02577
2466.10461	0.02554
2464.81884	0.02532
2463.53307	0.02517
2462.24730	0.02515
2460.96153	0.02521
2459.67577	0.02520
2458.39000	0.02503
2457.10423	0.02484
2455.81846	0.02486
2454.53269	0.02509
2453.24692	0.02525
2451.96115	0.02506
2450.67538	0.02454
2449.38962	0.02397
2448.10385	0.02368
2446.81808	0.02381
2445.53231	0.02433
2444.24654	0.02497
2442.96077	0.02542
2441.67500	0.02549
2440.38923	0.02528
2439.10346	0.02495
2437.81770	0.02458
2436.53193	0.02414
2435.24616	0.02371
2433.96039	0.02345
2432.67462	0.02344
2431.38885	0.02356
2430.10308	0.02367
2428.81731	0.02369
2427.53155	0.02362
2426.24578	0.02352
2424.96001	0.02347
2423.67424	0.02352
2422.38847	0.02364
2421.10270	0.02374
2419.81693	0.02376
2418.53116	0.02371
2417.24539	0.02369
2415.95963	0.02374
2414.67386	0.02377
2413.38809	0.02359
2412.10232	0.02317
2410.81655	0.02272
2409.53078	0.02250
2408.24501	0.02253
2406.95924	0.02271
2405.67347	0.02289
2404.38771	0.02301
2403.10194	0.02307
2401.81617	0.02306
2400.53040	0.02302
2399.24463	0.02325
2397.95886	0.02337
2396.67309	0.02334
2395.38732	0.02333
2394.10156	0.02335
2392.81579	0.02332
2391.53002	0.02315
2390.24425	0.02287
2388.95848	0.02258
2387.67271	0.02237
2386.38694	0.02232
2385.10117	0.02243
2383.81540	0.02258
2382.52964	0.02268
2381.24387	0.02263
2379.95810	0.02257
2378.67233	0.02249
2377.38656	0.02226
2376.10079	0.02214
2374.81502	0.02218
2373.52925	0.02225
2372.24349	0.02233
2370.95772	0.02219
2369.67195	0.02213
2368.38618	0.02180
2367.10041	0.02037
2365.81464	0.01851
2364.52887	0.01771
2363.24310	0.01782
2361.95733	0.01777
2360.67157	0.01775
2359.38580	0.01866
2358.10003	0.01993
2356.81426	0.02083
2355.52849	0.02135
2354.24272	0.02140
2352.95695	0.02100
2351.67118	0.01941
2350.38542	0.01628
2349.09965	0.01435
2347.81388	0.01618
2346.52811	0.01963
2345.24234	0.02129
2343.95657	0.02120
2342.67080	0.02126
2341.38503	0.02141
2340.09926	0.02103
2338.81350	0.02067
2337.52773	0.02059
2336.24196	0.02102
2334.95619	0.02138
2333.67042	0.02141
2332.38465	0.02175
2331.09888	0.02196
2329.81311	0.02176
2328.52735	0.02179
2327.24158	0.02180
2325.95581	0.02185
2324.67004	0.02249
2323.38427	0.02307
2322.09850	0.02324
2320.81273	0.02329
2319.52696	0.02293
2318.24119	0.02217
2316.95543	0.02163
2315.66966	0.02161
2314.38389	0.02189
2313.09812	0.02204
2311.81235	0.02201
2310.52658	0.02182
2309.24081	0.02152
2307.95504	0.02134
2306.66928	0.02133
2305.38351	0.02135
2304.09774	0.02136
2302.81197	0.02147
2301.52620	0.02164
2300.24043	0.02174
2298.95466	0.02178
2297.66889	0.02178
2296.38312	0.02173
2295.09736	0.02158
2293.81159	0.02127
2292.52582	0.02090
2291.24005	0.02071
2289.95428	0.02081
2288.66851	0.02111
2287.38274	0.02138
2286.09697	0.02145
2284.81121	0.02125
2283.52544	0.02092
2282.23967	0.02070
2280.95390	0.02073
2279.66813	0.02099
2278.38236	0.02124
2277.09659	0.02125
2275.81082	0.02090
2274.52505	0.02028
2273.23929	0.01961
2271.95352	0.01909
2270.66775	0.01884
2269.38198	0.01888
2268.09621	0.01906
2266.81044	0.01909
2265.52467	0.01875
2264.23890	0.01802
2262.95314	0.01708
2261.66737	0.01628
2260.38160	0.01587
2259.09583	0.01589
2257.81006	0.01628
2256.52429	0.01683
2255.23852	0.01724
2253.95275	0.01731
2252.66698	0.01713
2251.38122	0.01702
2250.09545	0.01729
2248.80968	0.01796
2247.52391	0.01857
2246.23814	0.01904
2244.95237	0.01925
2243.66660	0.01907
2242.38083	0.01856
2241.09507	0.01800
2239.80930	0.01774
2238.52353	0.01782
2237.23776	0.01798
2235.95199	0.01793
2234.66622	0.01756
2233.38045	0.01698
2232.09468	0.01638
2230.80891	0.01600
2229.52315	0.01581
2228.23738	0.01556
2226.95161	0.01518
2225.66584	0.01493
2224.38007	0.01503
2223.09430	0.01525
2221.80853	0.01519
2220.52276	0.01474
2219.23700	0.01421
2217.95123	0.01399
2216.66546	0.01425
2215.37969	0.01477
2214.09392	0.01504
2212.80815	0.01456
2211.52238	0.01329
2210.23661	0.01176
2208.95084	0.01073
2207.66508	0.01063
2206.37931	0.01134
2205.09354	0.01237
2203.80777	0.01320
2202.52200	0.01353
2201.23623	0.01330
2199.95046	0.01270
2198.66469	0.01223
2197.37893	0.01230
2196.09316	0.01285
2194.80739	0.01315
2193.52162	0.01250
2192.23585	0.01089
2190.95008	0.00923
2189.66431	0.00849
2188.37854	0.00881
2187.09277	0.00964
2185.80701	0.01051
2184.52124	0.01145
2183.23547	0.01252
2181.94970	0.01349
2180.66393	0.01411
2179.37816	0.01434
2178.09239	0.01416
2176.80662	0.01348
2175.52085	0.01234
2174.23509	0.01124
2172.94932	0.01086
2171.66355	0.01136
2170.37778	0.01211
2169.09201	0.01216
2167.80624	0.01112
2166.52047	0.00957
2165.23470	0.00837
2163.94894	0.00783
2162.66317	0.00756
2161.37740	0.00710
2160.09163	0.00637
2158.80586	0.00557
2157.52009	0.00497
2156.23432	0.00466
2154.94855	0.00470
2153.66278	0.00511
2152.37702	0.00594
2151.09125	0.00698
2149.80548	0.00780
2148.51971	0.00797
2147.23394	0.00755
2145.94817	0.00702
2144.66240	0.00691
2143.37663	0.00737
2142.09087	0.00804
2140.80510	0.00849
2139.51933	0.00852
2138.23356	0.00823
2136.94779	0.00794
2135.66202	0.00797
2134.37625	0.00849
2133.09048	0.00935
2131.80471	0.01017
2130.51895	0.01073
2129.23318	0.01104
2127.94741	0.01122
2126.66164	0.01130
2125.37587	0.01125
2124.09010	0.01106
2122.80433	0.01086
2121.51856	0.01081
2120.23280	0.01099
2118.94703	0.01129
2117.66126	0.01148
2116.37549	0.01142
2115.08972	0.01122
2113.80395	0.01119
2112.51818	0.01159
2111.23241	0.01236
2109.94664	0.01302
2108.66088	0.01313
2107.37511	0.01267
2106.08934	0.01202
2104.80357	0.01152
2103.51780	0.01110
2102.23203	0.01057
2100.94626	0.01002
2099.66049	0.01040
2098.37473	0.01084
2097.08896	0.01118
2095.80319	0.01138
2094.51742	0.01145
2093.23165	0.01148
2091.94588	0.01149
2090.66011	0.01142
2089.37434	0.01126
2088.08857	0.01118
2086.80281	0.01127
2085.51704	0.01148
2084.23127	0.01160
2082.94550	0.01154
2081.65973	0.01142
2080.37396	0.01140
2079.08819	0.01151
2077.80242	0.01173
2076.51666	0.01195
2075.23089	0.01205
2073.94512	0.01189
2072.65935	0.01137
2071.37358	0.01047
2070.08781	0.00934
2068.80204	0.00826
2067.51627	0.00753
2066.23050	0.00736
2064.94474	0.00769
2063.65897	0.00828
2062.37320	0.00882
2061.08743	0.00920
2059.80166	0.00947
2058.51589	0.00964
2057.23012	0.00963
2055.94435	0.00940
2054.65859	0.00911
2053.37282	0.00896
2052.08705	0.00897
2050.80128	0.00898
2049.51551	0.00879
2048.22974	0.00827
2046.94397	0.00751
2045.65820	0.00666
2044.37243	0.00588
2043.08667	0.00526
2041.80090	0.00485
2040.51513	0.00472
2039.22936	0.00482
2037.94359	0.00496
2036.65782	0.00492
2035.37205	0.00452
2034.08628	0.00376
2032.80052	0.00288
2031.51475	0.00243
2030.22898	0.00286
2028.94321	0.00406
2027.65744	0.00548
2026.37167	0.00664
2025.08590	0.00736
2023.80013	0.00751
2022.51436	0.00702
2021.22860	0.00617
2019.94283	0.00547
2018.65706	0.00520
2017.37129	0.00524
2016.08552	0.00542
2014.79975	0.00584
2013.51398	0.00667
2012.22821	0.00769
2010.94245	0.00837
2009.65668	0.00825
2008.37091	0.00739
2007.08514	0.00629
2005.79937	0.00561
2004.51360	0.00574
2003.22783	0.00658
2001.94206	0.00768
2000.65629	0.00853
1999.37053	0.00889
1998.08476	0.00884
1996.79899	0.00866
1995.51322	0.00854
1994.22745	0.00842
1992.94168	0.00816
1991.65591	0.00775
1990.37014	0.00740
1989.08438	0.00726
1987.79861	0.00733
1986.51284	0.00762
1985.22707	0.00833
1983.94130	0.00965
1982.65553	0.01135
1981.36976	0.01259
1980.08399	0.01261
1978.79822	0.01150
1977.51246	0.01022
1976.22669	0.00956
1974.94092	0.00939
1973.65515	0.00896
1972.36938	0.00796
1971.08361	0.00686
1969.79784	0.00633
1968.51207	0.00656
1967.22631	0.00727
1965.94054	0.00805
1964.65477	0.00870
1963.36900	0.00917
1962.08323	0.00947
1960.79746	0.00973
1959.51169	0.01005
1958.22592	0.01041
1956.94015	0.01067
1955.65439	0.01076
1954.36862	0.01073
1953.08285	0.01067
1951.79708	0.01066
1950.51131	0.01067
1949.22554	0.01069
1947.93977	0.01072
1946.65400	0.01083
1945.36823	0.01100
1944.08247	0.01121
1942.79670	0.01146
1941.51093	0.01172
1940.22516	0.01180
1938.93939	0.01158
1937.65362	0.01125
1936.36785	0.01115
1935.08208	0.01135
1933.79632	0.01158
1932.51055	0.01159
1931.22478	0.01144
1929.93901	0.01141
1928.65324	0.01154
1927.36747	0.01163
1926.08170	0.01149
1924.79593	0.01132
1923.51016	0.01149
1922.22440	0.01205
1920.93863	0.01260
1919.65286	0.01272
1918.36709	0.01256
1917.08132	0.01255
1915.79555	0.01285
1914.50978	0.01328
1913.22401	0.01365
1911.93825	0.01386
1910.65248	0.01386
1909.36671	0.01371
1908.08094	0.01351
1906.79517	0.01334
1905.50940	0.01328
1904.22363	0.01335
1902.93786	0.01347
1901.65209	0.01350
1900.36633	0.01337
1899.08056	0.01316
1897.79479	0.01302
1896.50902	0.01303
1895.22325	0.01322
1893.93748	0.01351
1892.65171	0.01367
1891.36594	0.01355
1890.08018	0.01326
1888.79441	0.01313
1887.50864	0.01330
1886.22287	0.01362
1884.93710	0.01384
1883.65133	0.01388
1882.36556	0.01375
1881.07979	0.01355
1879.79402	0.01335
1878.50826	0.01319
1877.22249	0.01309
1875.93672	0.01310
1874.65095	0.01319
1873.36518	0.01330
1872.07941	0.01328
1870.79364	0.01311
1869.50787	0.01299
1868.22211	0.01316
1866.93634	0.01357
1865.65057	0.01394
1864.36480	0.01409
1863.07903	0.01404
1861.79326	0.01386
1860.50749	0.01359
1859.22172	0.01334
1857.93595	0.01316
1856.65019	0.01309
1855.36442	0.01313
1854.07865	0.01326
1852.79288	0.01343
1851.50711	0.01353
1850.22134	0.01361
1848.93557	0.01382
1847.64980	0.01415
1846.36404	0.01433
1845.07827	0.01424
1843.79250	0.01415
1842.50673	0.01423
1841.22096	0.01431
1839.93519	0.01423
1838.64942	0.01413
1837.36365	0.01412
1836.07788	0.01415
1834.79212	0.01418
1833.50635	0.01418
1832.22058	0.01407
1830.93481	0.01386
1829.64904	0.01380
1828.36327	0.01394
1827.07750	0.01404
1825.79173	0.01397
1824.50597	0.01391
1823.22020	0.01396
1821.93443	0.01404
1820.64866	0.01405
1819.36289	0.01398
1818.07712	0.01389
1816.79135	0.01385
1815.50558	0.01391
1814.21981	0.01399
1812.93405	0.01400
1811.64828	0.01392
1810.36251	0.01383
1809.07674	0.01378
1807.79097	0.01372
1806.50520	0.01370
1805.21943	0.01377
1803.93366	0.01394
1802.64790	0.01413
1801.36213	0.01431
1800.07636	0.01450
1798.79059	0.01470
1797.50482	0.01493
1796.21905	0.01513
1794.93328	0.01516
1793.64751	0.01496
1792.36174	0.01479
1791.07598	0.01488
1789.79021	0.01509
1788.50444	0.01513
1787.21867	0.01495
1785.93290	0.01474
1784.64713	0.01468
1783.36136	0.01473
1782.07559	0.01472
1780.78983	0.01462
1779.50406	0.01459
1778.21829	0.01471
1776.93252	0.01489
1775.64675	0.01493
1774.36098	0.01473
1773.07521	0.01457
1771.78944	0.01479
1770.50367	0.01517
1769.21791	0.01526
1767.93214	0.01511
1766.64637	0.01513
1765.36060	0.01529
1764.07483	0.01526
1762.78906	0.01509
1761.50329	0.01508
1760.21752	0.01525
1758.93176	0.01531
1757.64599	0.01519
1756.36022	0.01521
1755.07445	0.01546
1753.78868	0.01557
1752.50291	0.01537
1751.21714	0.01519
1749.93137	0.01526
1748.64560	0.01539
1747.35984	0.01536
1746.07407	0.01524
1744.78830	0.01520
1743.50253	0.01523
1742.21676	0.01519
1740.93099	0.01506
1739.64522	0.01519
1738.35945	0.01579
1737.07369	0.01630
1735.78792	0.01616
1734.50215	0.01580
1733.21638	0.01592
1731.93061	0.01637
1730.64484	0.01646
1729.35907	0.01614
1728.07330	0.01590
1726.78753	0.01588
1725.50177	0.01590
1724.21600	0.01596
1722.93023	0.01625
1721.64446	0.01674
1720.35869	0.01699
1719.07292	0.01682
1717.78715	0.01662
1716.50138	0.01679
1715.21561	0.01719
1713.92985	0.01747
1712.64408	0.01760
1711.35831	0.01771
1710.07254	0.01787
1708.78677	0.01800
1707.50100	0.01804
1706.21523	0.01817
1704.92946	0.01865
1703.64370	0.01920
1702.35793	0.01922
1701.07216	0.01899
1699.78639	0.01939
1698.50062	0.02010
1697.21485	0.02014
1695.92908	0.01967
1694.64331	0.01969
1693.35754	0.02009
1692.07178	0.02010
1690.78601	0.01989
1689.50024	0.02013
1688.21447	0.02073
1686.92870	0.02090
1685.64293	0.02046
1684.35716	0.02024
1683.07139	0.02073
1681.78563	0.02128
1680.49986	0.02134
1679.21409	0.02118
1677.92832	0.02104
1676.64255	0.02089
1675.35678	0.02093
1674.07101	0.02136
1672.78524	0.02183
1671.49947	0.02185
1670.21371	0.02159
1668.92794	0.02155
1667.64217	0.02186
1666.35640	0.02214
1665.07063	0.02206
1663.78486	0.02180
1662.49909	0.02175
1661.21332	0.02199
1659.92756	0.02238
1658.64179	0.02296
1657.35602	0.02372
1656.07025	0.02415
1654.78448	0.02378
1653.49871	0.02332
1652.21294	0.02389
1650.92717	0.02513
1649.64140	0.02564
1648.35564	0.02499
1647.06987	0.02417
1645.78410	0.02403
1644.49833	0.02439
1643.21256	0.02466
1641.92679	0.02468
1640.64102	0.02475
1639.35525	0.02497
1638.06949	0.02499
1636.78372	0.02473
1635.49795	0.02466
1634.21218	0.02507
1632.92641	0.02553
1631.64064	0.02555
1630.35487	0.02519
1629.06910	0.02491
1627.78333	0.02492
1626.49757	0.02506
1625.21180	0.02506
1623.92603	0.02496
1622.64026	0.02513
1621.35449	0.02563
1620.06872	0.02598
1618.78295	0.02577
1617.49718	0.02532
1616.21142	0.02531
1614.92565	0.02577
1613.63988	0.02610
1612.35411	0.02602
1611.06834	0.02586
1609.78257	0.02591
1608.49680	0.02612
1607.21103	0.02635
1605.92526	0.02655
1604.63950	0.02670
1603.35373	0.02681
1602.06796	0.02693
1600.78219	0.02708
1599.49642	0.02726
1598.21065	0.02747
1596.92488	0.02770
1595.63911	0.02796
1594.35335	0.02823
1593.06758	0.02845
1591.78181	0.02863
1590.49604	0.02882
1589.21027	0.02905
1587.92450	0.02937
1586.63873	0.02972
1585.35296	0.03007
1584.06719	0.03041
1582.78143	0.03082
1581.49566	0.03143
1580.20989	0.03221
1578.92412	0.03279
1577.63835	0.03296
1576.35258	0.03319
1575.06681	0.03402
1573.78104	0.03511
1572.49528	0.03569
1571.20951	0.03570
1569.92374	0.03575
1568.63797	0.03626
1567.35220	0.03697
1566.06643	0.03759
1564.78066	0.03832
1563.49489	0.03929
1562.20912	0.04005
1560.92336	0.04022
1559.63759	0.04032
1558.35182	0.04111
1557.06605	0.04225
1555.78028	0.04279
1554.49451	0.04268
1553.20874	0.04258
1551.92297	0.04275
1550.63721	0.04301
1549.35144	0.04336
1548.06567	0.04382
1546.77990	0.04430
1545.49413	0.04478
1544.20836	0.04531
1542.92259	0.04570
1541.63682	0.04562
1540.35105	0.04533
1539.06529	0.04549
1537.77952	0.04612
1536.49375	0.04650
1535.20798	0.04622
1533.92221	0.04583
1532.63644	0.04601
1531.35067	0.04665
1530.06490	0.04728
1528.77914	0.04775
1527.49337	0.04829
1526.20760	0.04913
1524.92183	0.05019
1523.63606	0.05113
1522.35029	0.05190
1521.06452	0.05296
1519.77875	0.05445
1518.49298	0.05589
1517.20722	0.05703
1515.92145	0.05819
1514.63568	0.05956
1513.34991	0.06111
1512.06414	0.06292
1510.77837	0.06498
1509.49260	0.06684
1508.20683	0.06819
1506.92107	0.06944
1505.63530	0.07121
1504.34953	0.07328
1503.06376	0.07494
1501.77799	0.07603
1500.49222	0.07699
1499.20645	0.07805
1497.92068	0.07911
1496.63491	0.08021
1495.34915	0.08150
1494.06338	0.08283
1492.77761	0.08385
1491.49184	0.08461
1490.20607	0.08553
1488.92030	0.08676
1487.63453	0.08813
1486.34876	0.08947
1485.06299	0.09076
1483.77723	0.09203
1482.49146	0.09334
1481.20569	0.09476
1479.91992	0.09628
1478.63415	0.09778
1477.34838	0.09923
1476.06261	0.10059
1474.77684	0.10172
1473.49108	0.10265
1472.20531	0.10360
1470.91954	0.10464
1469.63377	0.10551
1468.34800	0.10597
1467.06223	0.10605
1465.77646	0.10606
1464.49069	0.10631
1463.20492	0.10692
1461.91916	0.10770
1460.63339	0.10838
1459.34762	0.10871
1458.06185	0.10889
1456.77608	0.10945
1455.49031	0.11054
1454.20454	0.11155
1452.91877	0.11203
1451.63301	0.11218
1450.34724	0.11234
1449.06147	0.11257
1447.77570	0.11283
1446.48993	0.11310
1445.20416	0.11323
1443.91839	0.11312
1442.63262	0.11287
1441.34685	0.11265
1440.06109	0.11239
1438.77532	0.11193
1437.48955	0.11145
1436.20378	0.11143
1434.91801	0.11195
1433.63224	0.11262
1432.34647	0.11323
1431.06070	0.11397
1429.77494	0.11509
1428.48917	0.11654
1427.20340	0.11815
1425.91763	0.11982
1424.63186	0.12166
1423.34609	0.12368
1422.06032	0.12556
1420.77455	0.12704
1419.48878	0.12834
1418.20302	0.12975
1416.91725	0.13104
1415.63148	0.13181
1414.34571	0.13205
1413.05994	0.13203
1411.77417	0.13186
1410.48840	0.13152
1409.20263	0.13092
1407.91687	0.13000
1406.63110	0.12875
1405.34533	0.12726
1404.05956	0.12562
1402.77379	0.12375
1401.48802	0.12150
1400.20225	0.11894
1398.91648	0.11630
1397.63071	0.11365
1396.34495	0.11089
1395.05918	0.10804
1393.77341	0.10530
1392.48764	0.10271
1391.20187	0.10006
1389.91610	0.09720
1388.63033	0.09425
1387.34456	0.09147
1386.05880	0.08897
1384.77303	0.08659
1383.48726	0.08416
1382.20149	0.08171
1380.91572	0.07928
1379.62995	0.07688
1378.34418	0.07445
1377.05841	0.07194
1375.77264	0.06933
1374.48688	0.06668
1373.20111	0.06410
1371.91534	0.06161
1370.62957	0.05916
1369.34380	0.05679
1368.05803	0.05466
1366.77226	0.05278
1365.48649	0.05100
1364.20073	0.04922
1362.91496	0.04747
1361.62919	0.04586
1360.34342	0.04443
1359.05765	0.04311
1357.77188	0.04185
1356.48611	0.04064
1355.20034	0.03951
1353.91457	0.03848
1352.62881	0.03755
1351.34304	0.03671
1350.05727	0.03592
1348.77150	0.03515
1347.48573	0.03439
1346.19996	0.03365
1344.91419	0.03299
1343.62842	0.03244
1342.34266	0.03193
1341.05689	0.03140
1339.77112	0.03088
1338.48535	0.03043
1337.19958	0.03002
1335.91381	0.02962
1334.62804	0.02921
1333.34227	0.02881
1332.05650	0.02841
1330.77074	0.02801
1329.48497	0.02761
1328.19920	0.02723
1326.91343	0.02690
1325.62766	0.02664
1324.34189	0.02642
1323.05612	0.02625
1321.77035	0.02609
1320.48459	0.02591
1319.19882	0.02570
1317.91305	0.02545
1316.62728	0.02520
1315.34151	0.02496
1314.05574	0.02474
1312.76997	0.02452
1311.48420	0.02429
1310.19843	0.02406
1308.91267	0.02385
1307.62690	0.02369
1306.34113	0.02353
1305.05536	0.02332
1303.76959	0.02306
1302.48382	0.02281
1301.19805	0.02261
1299.91228	0.02246
1298.62652	0.02235
1297.34075	0.02224
1296.05498	0.02213
1294.76921	0.02203
1293.48344	0.02190
1292.19767	0.02172
1290.91190	0.02150
1289.62613	0.02126
1288.34036	0.02106
1287.05460	0.02088
1285.76883	0.02072
1284.48306	0.02057
1283.19729	0.02043
1281.91152	0.02032
1280.62575	0.02022
1279.33998	0.02012
1278.05421	0.02002
1276.76845	0.01992
1275.48268	0.01981
1274.19691	0.01966
1272.91114	0.01947
1271.62537	0.01926
1270.33960	0.01907
1269.05383	0.01890
1267.76806	0.01877
1266.48229	0.01867
1265.19653	0.01858
1263.91076	0.01847
1262.62499	0.01834
1261.33922	0.01818
1260.05345	0.01805
1258.76768	0.01796
1257.48191	0.01788
1256.19614	0.01781
1254.91037	0.01776
1253.62461	0.01770
1252.33884	0.01762
1251.05307	0.01749
1249.76730	0.01736
1248.48153	0.01726
1247.19576	0.01722
1245.90999	0.01719
1244.62422	0.01713
1243.33846	0.01702
1242.05269	0.01690
1240.76692	0.01679
1239.48115	0.01674
1238.19538	0.01671
1236.90961	0.01669
1235.62384	0.01668
1234.33807	0.01665
1233.05230	0.01660
1231.76654	0.01654
1230.48077	0.01644
1229.19500	0.01630
1227.90923	0.01615
1226.62346	0.01603
1225.33769	0.01595
1224.05192	0.01590
1222.76615	0.01585
1221.48039	0.01580
1220.19462	0.01579
1218.90885	0.01579
1217.62308	0.01579
1216.33731	0.01575
1215.05154	0.01567
1213.76577	0.01558
1212.48000	0.01550
1211.19423	0.01544
1209.90847	0.01541
1208.62270	0.01541
1207.33693	0.01542
1206.05116	0.01543
1204.76539	0.01542
1203.47962	0.01541
1202.19385	0.01540
1200.90808	0.01536
1199.62232	0.01528
1198.33655	0.01529
1197.05078	0.01530
1195.76501	0.01530
1194.47924	0.01525
1193.19347	0.01518
1191.90770	0.01513
1190.62193	0.01513
1189.33616	0.01514
1188.05040	0.01511
1186.76463	0.01505
1185.47886	0.01500
1184.19309	0.01500
1182.90732	0.01507
1181.62155	0.01515
1180.33578	0.01519
1179.05001	0.01516
1177.76425	0.01507
1176.47848	0.01499
1175.19271	0.01497
1173.90694	0.01507
1172.62117	0.01525
1171.33540	0.01546
1170.04963	0.01563
1168.76386	0.01577
1167.47809	0.01590
1166.19233	0.01606
1164.90656	0.01622
1163.62079	0.01639
1162.33502	0.01658
1161.04925	0.01677
1159.76348	0.01695
1158.47771	0.01709
1157.19194	0.01727
1155.90618	0.01754
1154.62041	0.01788
1153.33464	0.01825
1152.04887	0.01863
1150.76310	0.01902
1149.47733	0.01946
1148.19156	0.01992
1146.90579	0.02042
1145.62002	0.02099
1144.33426	0.02164
1143.04849	0.02240
1141.76272	0.02325
1140.47695	0.02421
1139.19118	0.02531
1137.90541	0.02659
1136.61964	0.02805
1135.33387	0.02964
1134.04811	0.03135
1132.76234	0.03321
1131.47657	0.03529
1130.19080	0.03764
1128.90503	0.04025
1127.61926	0.04309
1126.33349	0.04614
1125.04772	0.04941
1123.76195	0.05291
1122.47619	0.05661
1121.19042	0.06044
1119.90465	0.06432
1118.61888	0.06824
1117.33311	0.07231
1116.04734	0.07659
1114.76157	0.08104
1113.47580	0.08553
1112.19004	0.08991
1110.90427	0.09408
1109.61850	0.09804
1108.33273	0.10187
1107.04696	0.10569
1105.76119	0.10951
1104.47542	0.11328
1103.18965	0.11692
1101.90388	0.12043
1100.61812	0.12384
1099.33235	0.12721
1098.04658	0.13052
1096.76081	0.13372
1095.47504	0.13676
1094.18927	0.13966
1092.90350	0.14245
1091.61773	0.14515
1090.33197	0.14776
1089.04620	0.15024
1087.76043	0.15262
1086.47466	0.15495
1085.18889	0.15733
1083.90312	0.15983
1082.61735	0.16246
1081.33158	0.16522
1080.04581	0.16813
1078.76005	0.17124
1077.47428	0.17459
1076.18851	0.17817
1074.90274	0.18188
1073.61697	0.18563
1072.33120	0.18939
1071.04543	0.19322
1069.75966	0.19718
1068.47390	0.20129
1067.18813	0.20556
1065.90236	0.20997
1064.61659	0.21452
1063.33082	0.21915
1062.04505	0.22381
1060.75928	0.22845
1059.47351	0.23301
1058.18774	0.23743
1056.90198	0.24169
1055.61621	0.24584
1054.33044	0.25001
1053.04467	0.25426
1051.75890	0.25855
1050.47313	0.26283
1049.18736	0.26712
1047.90159	0.27154
1046.61583	0.27616
1045.33006	0.28096
1044.04429	0.28584
1042.75852	0.29077
1041.47275	0.29577
1040.18698	0.30090
1038.90121	0.30610
1037.61544	0.31125
1036.32967	0.31631
1035.04391	0.32130
1033.75814	0.32620
1032.47237	0.33089
1031.18660	0.33519
1029.90083	0.33902
1028.61506	0.34241
1027.32929	0.34544
1026.04352	0.34813
1024.75775	0.35036
1023.47199	0.35203
1022.18622	0.35306
1020.90045	0.35346
1019.61468	0.35325
1018.32891	0.35242
1017.04314	0.35087
1015.75737	0.34847
1014.47160	0.34517
1013.18584	0.34097
1011.90007	0.33593
1010.61430	0.33008
1009.32853	0.32337
1008.04276	0.31577
1006.75699	0.30723
1005.47122	0.29783
1004.18545	0.28770
1002.89968	0.27703
1001.61392	0.26595
1000.32815	0.25459
999.04238	0.24306
997.75661	0.23147
996.47084	0.21997
995.18507	0.20866
993.89930	0.19764
992.61353	0.18704
991.32777	0.17697
990.04200	0.16748
988.75623	0.15857
987.47046	0.15026
986.18469	0.14252
984.89892	0.13532
983.61315	0.12862
982.32738	0.12239
981.04161	0.11664
979.75585	0.11135
978.47008	0.10654
977.18431	0.10225
975.89854	0.09860
974.61277	0.09560
973.32700	0.09321
972.04123	0.09143
970.75546	0.09033
969.46970	0.09005
968.18393	0.09058
966.89816	0.09179
965.61239	0.09346
964.32662	0.09532
963.04085	0.09705
961.75508	0.09828
960.46931	0.09873
959.18354	0.09826
957.89778	0.09692
956.61201	0.09482
955.32624	0.09212
954.04047	0.08904
952.75470	0.08583
951.46893	0.08267
950.18316	0.07965
948.89739	0.07678
947.61163	0.07408
946.32586	0.07152
945.04009	0.06908
943.75432	0.06675
942.46855	0.06451
941.18278	0.06238
939.89701	0.06037
938.61124	0.05848
937.32547	0.05668
936.03971	0.05501
934.75394	0.05351
933.46817	0.05221
932.18240	0.05111
930.89663	0.05015
929.61086	0.04930
928.32509	0.04848
927.03932	0.04764
925.75356	0.04676
924.46779	0.04586
923.18202	0.04500
921.89625	0.04426
920.61048	0.04369
919.32471	0.04328
918.03894	0.04289
916.75317	0.04242
915.46740	0.04188
914.18164	0.04138
912.89587	0.04100
911.61010	0.04071
910.32433	0.04041
909.03856	0.03998
907.75279	0.03944
906.46702	0.03888
905.18125	0.03843
903.89549	0.03815
902.60972	0.03800
901.32395	0.03787
900.03818	0.03770
898.75241	0.03752
897.46664	0.03735
896.18087	0.03718
894.89510	0.03702
893.60933	0.03700
892.32357	0.03722
891.03780	0.03771
889.75203	0.03840
888.46626	0.03933
887.18049	0.04067
885.89472	0.04273
884.60895	0.04574
883.32318	0.04968
882.03742	0.05414
880.75165	0.05845
879.46588	0.06201
878.18011	0.06464
876.89434	0.06668
875.60857	0.06862
874.32280	0.07058
873.03703	0.07219
871.75126	0.07286
870.46550	0.07221
869.17973	0.07023
867.89396	0.06720
866.60819	0.06353
865.32242	0.05966
864.03665	0.05596
862.75088	0.05261
861.46511	0.04962
860.17935	0.04700
858.89358	0.04479
857.60781	0.04307
856.32204	0.04181
855.03627	0.04084
853.75050	0.03999
852.46473	0.03920
851.17896	0.03850
849.89319	0.03791
848.60743	0.03740
847.32166	0.03692
846.03589	0.03646
844.75012	0.03603
843.46435	0.03564
842.17858	0.03525
840.89281	0.03484
839.60704	0.03443
838.32128	0.03407
837.03551	0.03379
835.74974	0.03360
834.46397	0.03345
833.17820	0.03331
831.89243	0.03312
830.60666	0.03290
829.32089	0.03268
828.03512	0.03249
826.74936	0.03234
825.46359	0.03219
824.17782	0.03202
822.89205	0.03190
821.60628	0.03187
820.32051	0.03192
819.03474	0.03196
817.74897	0.03191
816.46321	0.03177
815.17744	0.03161
813.89167	0.03150
812.60590	0.03145
811.32013	0.03143
810.03436	0.03140
808.74859	0.03129
807.46282	0.03110
806.17705	0.03085
804.89129	0.03066
803.60552	0.03061
802.31975	0.03068
801.03398	0.03074
799.74821	0.03069
798.46244	0.03053
797.17667	0.03033
795.89090	0.03019
794.60513	0.03013
793.31937	0.03011
792.03360	0.03007
790.74783	0.02998
789.46206	0.02987
788.17629	0.02979
786.89052	0.02978
785.60475	0.02979
784.31898	0.02975
783.03322	0.02963
781.74745	0.02945
780.46168	0.02932
779.17591	0.02930
777.89014	0.02938
776.60437	0.02951
775.31860	0.02959
774.03283	0.02955
772.74706	0.02943
771.46130	0.02931
770.17553	0.02922
768.88976	0.02919
767.60399	0.02918
766.31822	0.02919
765.03245	0.02920
763.74668	0.02920
762.46091	0.02924
761.17515	0.02935
759.88938	0.02953
758.60361	0.02977
757.31784	0.03001
756.03207	0.03019
754.74630	0.03023
753.46053	0.03014
752.17476	0.03001
750.88899	0.02992
749.60323	0.02988
748.31746	0.02983
747.03169	0.02973
745.74592	0.02964
744.46015	0.02960
743.17438	0.02962
741.88861	0.02965
740.60284	0.02965
739.31708	0.02965
738.03131	0.02970
736.74554	0.02982
735.45977	0.02991
734.17400	0.02990
732.88823	0.02976
731.60246	0.02955
730.31669	0.02932
729.03092	0.02913
727.74516	0.02903
726.45939	0.02904
725.17362	0.02914
723.88785	0.02916
722.60208	0.02929
721.31631	0.02958
720.03054	0.02979
718.74477	0.02982
717.45901	0.02988
716.17324	0.02995
714.88747	0.02991
713.60170	0.02978
712.31593	0.02960
711.03016	0.02943
709.74439	0.02930
708.45862	0.02918
707.17285	0.02908
705.88709	0.02899
704.60132	0.02891
703.31555	0.02884
702.02978	0.02877
700.74401	0.02872
699.45824	0.02871
698.17247	0.02871
696.88670	0.02872
695.60094	0.02873
694.31517	0.02874
693.02940	0.02873
691.74363	0.02871
690.45786	0.02867
689.17209	0.02858
687.88632	0.02846
686.60055	0.02827
685.31478	0.02804
684.02902	0.02780
682.74325	0.02761
681.45748	0.02748
680.17171	0.02740
678.88594	0.02735
677.60017	0.02735
676.31440	0.02739
675.02863	0.02745
673.74287	0.02733
672.45710	0.02690
671.17133	0.02666
669.88556	0.02793
668.59979	0.03033
667.31402	0.03001
666.02825	0.02789
664.74248	0.02739
663.45671	0.02790
662.17095	0.02818
660.88518	0.02810
659.59941	0.02789
658.31364	0.02771
657.02787	0.02764
655.74210	0.02765
654.45633	0.02768
653.17056	0.02773
651.88480	0.02777
650.59903	0.02784
649.31326	0.02795
648.02749	0.02808
646.74172	0.02824
645.45595	0.02846
644.17018	0.02869
642.88441	0.02891
641.59864	0.02917
640.31288	0.02948
639.02711	0.02987
637.74134	0.03029
636.45557	0.03071
635.16980	0.03112
633.88403	0.03155
632.59826	0.03213
631.31249	0.03304
630.02673	0.03440
628.74096	0.03563
627.45519	0.03596
626.16942	0.03783
624.88365	0.04055
623.59788	0.04315
622.31211	0.04557
621.02634	0.04815
619.74057	0.05126
618.45481	0.05512
617.16904	0.05955
615.88327	0.06389
614.59750	0.06800
613.31173	0.07283
612.02596	0.07950
610.74019	0.08765
609.45442	0.09537
608.16866	0.10140
606.88289	0.10631
605.59712	0.11089
604.31135	0.11477
603.02558	0.11697
601.73981	0.11715
600.45404	0.11558
599.16827	0.11273
597.88250	0.10902
596.59674	0.10484
595.31097	0.10062
594.02520	0.09680
592.73943	0.09382
591.45366	0.09196
590.16789	0.09125
588.88212	0.09150
587.59635	0.09245
586.31059	0.09393
585.02482	0.09587
583.73905	0.09830
582.45328	0.10117
581.16751	0.10436
579.88174	0.10780
578.59597	0.11142
577.31020	0.11513
576.02443	0.11881
574.73867	0.12235
573.45290	0.12576
572.16713	0.12924
570.88136	0.13307
569.59559	0.13749
568.30982	0.14243
567.02405	0.14757
565.73828	0.15247
564.45251	0.15667
563.16675	0.15959
561.88098	0.16056
560.59521	0.15892
559.30944	0.15446
558.02367	0.14757
556.73790	0.13907
555.45213	0.12982
554.16636	0.12037
552.88060	0.11111
551.59483	0.10235
550.30906	0.09440
549.02329	0.08746
547.73752	0.08157
546.45175	0.07652
545.16598	0.07203
543.88021	0.06794
542.59444	0.06421
541.30868	0.06091
540.02291	0.05805
538.73714	0.05558
537.45137	0.05343
536.16560	0.05151
534.87983	0.04975
533.59406	0.04810
532.30829	0.04651
531.02253	0.04496
529.73676	0.04347
528.45099	0.04213
527.16522	0.04101
525.87945	0.04014
524.59368	0.03947
523.30791	0.03886
522.02214	0.03820
520.73637	0.03740
519.45061	0.03644
518.16484	0.03540
516.87907	0.03441
515.59330	0.03362
514.30753	0.03303
513.02176	0.03255
511.73599	0.03207
510.45022	0.03153
509.16446	0.03098
507.87869	0.03050
506.59292	0.03015
505.30715	0.02989
504.02138	0.02963
502.73561	0.02929
501.44984	0.02886
500.16407	0.02839
498.87830	0.02796
497.59254	0.02759
496.30677	0.02727
495.02100	0.02700
493.73523	0.02683
492.44946	0.02674
491.16369	0.02670
489.87792	0.02660
488.59215	0.02644
487.30639	0.02627
486.02062	0.02614
484.73485	0.02609
483.44908	0.02611
482.16331	0.02617
480.87754	0.02624
479.59177	0.02633
478.30600	0.02646
477.02023	0.02669
475.73447	0.02703
474.44870	0.02745
473.16293	0.02789
471.87716	0.02828
470.59139	0.02852
469.30562	0.02852
468.01985	0.02832
466.73408	0.02803
465.44832	0.02774
464.16255	0.02745
462.87678	0.02715
461.59101	0.02682
460.30524	0.02645
459.01947	0.02607
457.73370	0.02571
456.44793	0.02542
455.16216	0.02513
453.87640	0.02483
452.59063	0.02455
451.30486	0.02433
450.01909	0.02413
448.73332	0.02394
447.44755	0.02376
446.16178	0.02358
444.87601	0.02338
443.59025	0.02318
442.30448	0.02300
441.01871	0.02287
439.73294	0.02280
438.44717	0.02277
437.16140	0.02278
435.87563	0.02281
434.58986	0.02281
433.30409	0.02278
432.01833	0.02274
430.73256	0.02272
429.44679	0.02272
428.16102	0.02268
426.87525	0.02261
425.58948	0.02256
424.30371	0.02254
423.01794	0.02253
421.73218	0.02244
420.44641	0.02226
419.16064	0.02211
417.87487	0.02211
416.58910	0.02213
415.30333	0.02203
414.01756	0.02186
412.73179	0.02173
411.44602	0.02172
410.16026	0.02181
408.87449	0.02197
407.58872	0.02218
406.30295	0.02240
405.01718	0.02261
403.73141	0.02281
402.44564	0.02301
401.15987	0.02318
399.87411	0.02334
