3997.45528	0.01541
3996.16951	0.01463
3994.88374	0.01404
3993.59798	0.01385
3992.31221	0.01401
3991.02644	0.01428
3989.74067	0.01447
3988.45490	0.01454
3987.16913	0.01457
3985.88336	0.01468
3984.59759	0.01498
3983.31183	0.01546
3982.02606	0.01590
3980.74029	0.01605
3979.45452	0.01586
3978.16875	0.01562
3976.88298	0.01556
3975.59721	0.01558
3974.31144	0.01538
3973.02567	0.01488
3971.73991	0.01445
3970.45414	0.01445
3969.16837	0.01479
3967.88260	0.01498
3966.59683	0.01469
3965.31106	0.01414
3964.02529	0.01383
3962.73952	0.01411
3961.45376	0.01498
3960.16799	0.01610
3958.88222	0.01701
3957.59645	0.01738
3956.31068	0.01728
3955.02491	0.01710
3953.73914	0.01715
3952.45337	0.01744
3951.16760	0.01773
3949.88184	0.01787
3948.59607	0.01791
3947.31030	0.01792
3946.02453	0.01791
3944.73876	0.01778
3943.45299	0.01755
3942.16722	0.01732
3940.88145	0.01716
3939.59569	0.01706
3938.30992	0.01703
3937.02415	0.01702
3935.73838	0.01694
3934.45261	0.01661
3933.16684	0.01598
3931.88107	0.01515
3930.59530	0.01442
3929.30953	0.01406
3928.02377	0.01419
3926.73800	0.01467
3925.45223	0.01529
3924.16646	0.01588
3922.88069	0.01643
3921.59492	0.01697
3920.30915	0.01736
3919.02338	0.01740
3917.73762	0.01715
3916.45185	0.01692
3915.16608	0.01701
3913.88031	0.01735
3912.59454	0.01760
3911.30877	0.01747
3910.02300	0.01699
3908.73723	0.01641
3907.45146	0.01602
3906.16570	0.01596
3904.87993	0.01626
3903.59416	0.01682
3902.30839	0.01746
3901.02262	0.01794
3899.73685	0.01808
3898.45108	0.01786
3897.16531	0.01742
3895.87955	0.01700
3894.59378	0.01674
3893.30801	0.01654
3892.02224	0.01635
3890.73647	0.01638
3889.45070	0.01688
3888.16493	0.01765
3886.87916	0.01799
3885.59339	0.01746
3884.30763	0.01639
3883.02186	0.01545
3881.73609	0.01498
3880.45032	0.01488
3879.16455	0.01499
3877.87878	0.01530
3876.59301	0.01584
3875.30724	0.01660
3874.02148	0.01755
3872.73571	0.01853
3871.44994	0.01930
3870.16417	0.01966
3868.87840	0.01967
3867.59263	0.01950
3866.30686	0.01914
3865.02109	0.01845
3863.73532	0.01750
3862.44956	0.01662
3861.16379	0.01610
3859.87802	0.01593
3858.59225	0.01591
3857.30648	0.01598
3856.02071	0.01623
3854.73494	0.01678
3853.44917	0.01755
3852.16341	0.01836
3850.87764	0.01895
3849.59187	0.01908
3848.30610	0.01865
3847.02033	0.01783
3845.73456	0.01700
3844.44879	0.01647
3843.16302	0.01630
3841.87725	0.01637
3840.59149	0.01652
3839.30572	0.01659
3838.01995	0.01639
3836.73418	0.01595
3835.44841	0.01558
3834.16264	0.01568
3832.87687	0.01630
3831.59110	0.01709
3830.30534	0.01760
3829.01957	0.01768
3827.73380	0.01750
3826.44803	0.01727
3825.16226	0.01705
3823.87649	0.01677
3822.59072	0.01644
3821.30495	0.01627
3820.01918	0.01647
3818.73342	0.01702
3817.44765	0.01755
3816.16188	0.01768
3814.87611	0.01737
3813.59034	0.01703
3812.30457	0.01699
3811.01880	0.01727
3809.73303	0.01758
3808.44726	0.01776
3807.16150	0.01775
3805.87573	0.01749
3804.58996	0.01682
3803.30419	0.01575
3802.01842	0.01463
3800.73265	0.01396
3799.44688	0.01404
3798.16111	0.01478
3796.87535	0.01582
3795.58958	0.01663
3794.30381	0.01687
3793.01804	0.01664
3791.73227	0.01640
3790.44650	0.01654
3789.16073	0.01695
3787.87496	0.01730
3786.58919	0.01746
3785.30343	0.01757
3784.01766	0.01782
3782.73189	0.01816
3781.44612	0.01841
3780.16035	0.01847
3778.87458	0.01837
3777.58881	0.01818
3776.30304	0.01790
3775.01728	0.01746
3773.73151	0.01690
3772.44574	0.01638
3771.15997	0.01607
3769.87420	0.01602
3768.58843	0.01610
3767.30266	0.01608
3766.01689	0.01587
3764.73112	0.01561
3763.44536	0.01565
3762.15959	0.01613
3760.87382	0.01686
3759.58805	0.01735
3758.30228	0.01726
3757.01651	0.01670
3755.73074	0.01612
3754.44497	0.01599
3753.15921	0.01630
3751.87344	0.01658
3750.58767	0.01651
3749.30190	0.01627
3748.01613	0.01628
3746.73036	0.01662
3745.44459	0.01692
3744.15882	0.01682
3742.87305	0.01634
3741.58729	0.01582
3740.30152	0.01563
3739.01575	0.01576
3737.72998	0.01596
3736.44421	0.01599
3735.15844	0.01587
3733.87267	0.01579
3732.58690	0.01603
3731.30114	0.01669
3730.01537	0.01739
3728.72960	0.01776
3727.44383	0.01770
3726.15806	0.01741
3724.87229	0.01714
3723.58652	0.01687
3722.30075	0.01658
3721.01498	0.01627
3719.72922	0.01595
3718.44345	0.01571
3717.15768	0.01569
3715.87191	0.01595
3714.58614	0.01639
3713.30037	0.01676
3712.01460	0.01675
3710.72883	0.01607
3709.44307	0.01479
3708.15730	0.01352
3706.87153	0.01313
3705.58576	0.01396
3704.29999	0.01522
3703.01422	0.01618
3701.72845	0.01679
3700.44268	0.01722
3699.15691	0.01715
3697.87115	0.01687
3696.58538	0.01701
3695.29961	0.01736
3694.01384	0.01752
3692.72807	0.01757
3691.44230	0.01761
3690.15653	0.01741
3688.87076	0.01717
3687.58500	0.01718
3686.29923	0.01705
3685.01346	0.01665
3683.72769	0.01610
3682.44192	0.01562
3681.15615	0.01562
3679.87038	0.01626
3678.58461	0.01718
3677.29884	0.01793
3676.01308	0.01816
3674.72731	0.01803
3673.44154	0.01806
3672.15577	0.01859
3670.87000	0.01949
3669.58423	0.02023
3668.29846	0.02033
3667.01269	0.01982
3665.72693	0.01918
3664.44116	0.01884
3663.15539	0.01881
3661.86962	0.01895
3660.58385	0.01929
3659.29808	0.01994
3658.01231	0.02074
3656.72654	0.02124
3655.44077	0.02120
3654.15501	0.02090
3652.86924	0.02093
3651.58347	0.02152
3650.29770	0.02242
3649.01193	0.02310
3647.72616	0.02325
3646.44039	0.02296
3645.15462	0.02267
3643.86886	0.02271
3642.58309	0.02310
3641.29732	0.02361
3640.01155	0.02389
3638.72578	0.02384
3637.44001	0.02364
3636.15424	0.02367
3634.86847	0.02417
3633.58270	0.02511
3632.29694	0.02620
3631.01117	0.02711
3629.72540	0.02763
3628.43963	0.02776
3627.15386	0.02767
3625.86809	0.02748
3624.58232	0.02724
3623.29655	0.02696
3622.01079	0.02680
3620.72502	0.02699
3619.43925	0.02759
3618.15348	0.02837
3616.86771	0.02908
3615.58194	0.02962
3614.29617	0.03013
3613.01040	0.03068
3611.72463	0.03112
3610.43887	0.03121
3609.15310	0.03098
3607.86733	0.03078
3606.58156	0.03105
3605.29579	0.03188
3604.01002	0.03273
3602.72425	0.03322
3601.43848	0.03355
3600.15272	0.03418
3598.86695	0.03492
3597.58118	0.03551
3596.29541	0.03599
3595.00964	0.03651
3593.72387	0.03665
3592.43810	0.03645
3591.15233	0.03639
3589.86656	0.03665
3588.58080	0.03717
3587.29503	0.03781
3586.00926	0.03835
3584.72349	0.03858
3583.43772	0.03859
3582.15195	0.03849
3580.86618	0.03826
3579.58041	0.03809
3578.29464	0.03825
3577.00888	0.03875
3575.72311	0.03950
3574.43734	0.04029
3573.15157	0.04091
3571.86580	0.04135
3570.58003	0.04171
3569.29426	0.04209
3568.00849	0.04255
3566.72273	0.04303
3565.43696	0.04354
3564.15119	0.04410
3562.86542	0.04461
3561.57965	0.04498
3560.29388	0.04523
3559.00811	0.04549
3557.72234	0.04575
3556.43657	0.04592
3555.15081	0.04595
3553.86504	0.04598
3552.57927	0.04611
3551.29350	0.04632
3550.00773	0.04656
3548.72196	0.04693
3547.43619	0.04765
3546.15042	0.04877
3544.86466	0.05000
3543.57889	0.05093
3542.29312	0.05136
3541.00735	0.05140
3539.72158	0.05137
3538.43581	0.05139
3537.15004	0.05143
3535.86427	0.05144
3534.57850	0.05156
3533.29274	0.05193
3532.00697	0.05252
3530.72120	0.05306
3529.43543	0.05337
3528.14966	0.05349
3526.86389	0.05357
3525.57812	0.05370
3524.29235	0.05396
3523.00659	0.05438
3521.72082	0.05493
3520.43505	0.05544
3519.14928	0.05580
3517.86351	0.05608
3516.57774	0.05643
3515.29197	0.05694
3514.00620	0.05753
3512.72043	0.05806
3511.43467	0.05840
3510.14890	0.05846
3508.86313	0.05828
3507.57736	0.05800
3506.29159	0.05783
3505.00582	0.05797
3503.72005	0.05846
3502.43428	0.05914
3501.14852	0.05982
3499.86275	0.06040
3498.57698	0.06075
3497.29121	0.06071
3496.00544	0.06028
3494.71967	0.05985
3493.43390	0.05985
3492.14813	0.06039
3490.86236	0.06114
3489.57660	0.06183
3488.29083	0.06246
3487.00506	0.06307
3485.71929	0.06355
3484.43352	0.06369
3483.14775	0.06349
3481.86198	0.06323
3480.57621	0.06318
3479.29045	0.06338
3478.00468	0.06366
3476.71891	0.06382
3475.43314	0.06385
3474.14737	0.06388
3472.86160	0.06409
3471.57583	0.06449
3470.29006	0.06493
3469.00429	0.06527
3467.71853	0.06553
3466.43276	0.06577
3465.14699	0.06601
3463.86122	0.06632
3462.57545	0.06679
3461.28968	0.06736
3460.00391	0.06784
3458.71814	0.06815
3457.43238	0.06842
3456.14661	0.06874
3454.86084	0.06896
3453.57507	0.06886
3452.28930	0.06847
3451.00353	0.06806
3449.71776	0.06789
3448.43199	0.06804
3447.14622	0.06839
3445.86046	0.06876
3444.57469	0.06897
3443.28892	0.06896
3442.00315	0.06883
3440.71738	0.06879
3439.43161	0.06893
3438.14584	0.06913
3436.86007	0.06924
3435.57431	0.06933
3434.28854	0.06960
3433.00277	0.07008
3431.71700	0.07065
3430.43123	0.07120
3429.14546	0.07181
3427.85969	0.07251
3426.57392	0.07316
3425.28815	0.07347
3424.00239	0.07332
3422.71662	0.07290
3421.43085	0.07255
3420.14508	0.07248
3418.85931	0.07259
3417.57354	0.07268
3416.28777	0.07266
3415.00200	0.07255
3413.71624	0.07240
3412.43047	0.07232
3411.14470	0.07252
3409.85893	0.07316
3408.57316	0.07404
3407.28739	0.07468
3406.00162	0.07476
3404.71585	0.07449
3403.43008	0.07435
3402.14432	0.07455
3400.85855	0.07493
3399.57278	0.07518
3398.28701	0.07517
3397.00124	0.07494
3395.71547	0.07459
3394.42970	0.07425
3393.14393	0.07403
3391.85817	0.07400
3390.57240	0.07414
3389.28663	0.07445
3388.00086	0.07479
3386.71509	0.07500
3385.42932	0.07500
3384.14355	0.07492
3382.85778	0.07493
3381.57201	0.07503
3380.28625	0.07508
3379.00048	0.07504
3377.71471	0.07506
3376.42894	0.07533
3375.14317	0.07581
3373.85740	0.07618
3372.57163	0.07615
3371.28586	0.07576
3370.00010	0.07537
3368.71433	0.07522
3367.42856	0.07523
3366.14279	0.07513
3364.85702	0.07480
3363.57125	0.07432
3362.28548	0.07389
3360.99971	0.07373
3359.71394	0.07402
3358.42818	0.07474
3357.14241	0.07563
3355.85664	0.07631
3354.57087	0.07660
3353.28510	0.07659
3351.99933	0.07653
3350.71356	0.07643
3349.42779	0.07613
3348.14202	0.07551
3346.85626	0.07463
3345.57049	0.07368
3344.28472	0.07292
3342.99895	0.07261
3341.71318	0.07292
3340.42741	0.07370
3339.14164	0.07443
3337.85587	0.07454
3336.57011	0.07381
3335.28434	0.07260
3333.99857	0.07164
3332.71280	0.07148
3331.42703	0.07219
3330.14126	0.07326
3328.85549	0.07398
3327.56972	0.07396
3326.28395	0.07339
3324.99819	0.07277
3323.71242	0.07241
3322.42665	0.07228
3321.14088	0.07219
3319.85511	0.07210
3318.56934	0.07205
3317.28357	0.07205
3315.99780	0.07218
3314.71204	0.07257
3313.42627	0.07330
3312.14050	0.07418
3310.85473	0.07487
3309.56896	0.07508
3308.28319	0.07469
3306.99742	0.07386
3305.71165	0.07297
3304.42588	0.07242
3303.14012	0.07235
3301.85435	0.07254
3300.56858	0.07265
3299.28281	0.07258
3297.99704	0.07246
3296.71127	0.07238
3295.42550	0.07228
3294.13973	0.07204
3292.85397	0.07162
3291.56820	0.07111
3290.28243	0.07071
3288.99666	0.07055
3287.71089	0.07064
3286.42512	0.07081
3285.13935	0.07089
3283.85358	0.07081
3282.56781	0.07064
3281.28205	0.07048
3279.99628	0.07037
3278.71051	0.07023
3277.42474	0.07005
3276.13897	0.06993
3274.85320	0.06991
3273.56743	0.06993
3272.28166	0.06989
3270.99590	0.06977
3269.71013	0.06958
3268.42436	0.06931
3267.13859	0.06903
3265.85282	0.06894
3264.56705	0.06920
3263.28128	0.06961
3261.99551	0.06982
3260.70974	0.06968
3259.42398	0.06936
3258.13821	0.06912
3256.85244	0.06909
3255.56667	0.06917
3254.28090	0.06918
3252.99513	0.06907
3251.70936	0.06891
3250.42359	0.06876
3249.13783	0.06862
3247.85206	0.06846
3246.56629	0.06833
3245.28052	0.06833
3243.99475	0.06840
3242.70898	0.06834
3241.42321	0.06798
3240.13744	0.06736
3238.85167	0.06675
3237.56591	0.06644
3236.28014	0.06647
3234.99437	0.06663
3233.70860	0.06666
3232.42283	0.06652
3231.13706	0.06644
3229.85129	0.06657
3228.56552	0.06688
3227.27976	0.06716
3225.99399	0.06730
3224.70822	0.06725
3223.42245	0.06706
3222.13668	0.06675
3220.85091	0.06639
3219.56514	0.06605
3218.27937	0.06583
3216.99360	0.06577
3215.70784	0.06579
3214.42207	0.06576
3213.13630	0.06566
3211.85053	0.06559
3210.56476	0.06566
3209.27899	0.06587
3207.99322	0.06610
3206.70745	0.06625
3205.42169	0.06621
3204.13592	0.06592
3202.85015	0.06544
3201.56438	0.06495
3200.27861	0.06458
3198.99284	0.06431
3197.70707	0.06405
3196.42130	0.06379
3195.13553	0.06359
3193.84977	0.06349
3192.56400	0.06344
3191.27823	0.06348
3189.99246	0.06369
3188.70669	0.06403
3187.42092	0.06421
3186.13515	0.06400
3184.84938	0.06352
3183.56362	0.06315
3182.27785	0.06304
3180.99208	0.06301
3179.70631	0.06276
3178.42054	0.06223
3177.13477	0.06163
3175.84900	0.06116
3174.56323	0.06079
3173.27746	0.06047
3171.99170	0.06030
3170.70593	0.06038
3169.42016	0.06061
3168.13439	0.06070
3166.84862	0.06046
3165.56285	0.05995
3164.27708	0.05938
3162.99131	0.05898
3161.70555	0.05892
3160.41978	0.05928
3159.13401	0.05984
3157.84824	0.06028
3156.56247	0.06041
3155.27670	0.06029
3153.99093	0.06008
3152.70516	0.05987
3151.41939	0.05968
3150.13363	0.05953
3148.84786	0.05937
3147.56209	0.05905
3146.27632	0.05850
3144.99055	0.05784
3143.70478	0.05731
3142.41901	0.05705
3141.13324	0.05703
3139.84748	0.05713
3138.56171	0.05731
3137.27594	0.05759
3135.99017	0.05792
3134.70440	0.05819
3133.41863	0.05824
3132.13286	0.05798
3130.84709	0.05748
3129.56132	0.05695
3128.27556	0.05654
3126.98979	0.05622
3125.70402	0.05587
3124.41825	0.05547
3123.13248	0.05518
3121.84671	0.05512
3120.56094	0.05526
3119.27517	0.05551
3117.98940	0.05575
3116.70364	0.05589
3115.41787	0.05588
3114.13210	0.05563
3112.84633	0.05521
3111.56056	0.05480
3110.27479	0.05459
3108.98902	0.05451
3107.70325	0.05436
3106.41749	0.05406
3105.13172	0.05377
3103.84595	0.05368
3102.56018	0.05382
3101.27441	0.05406
3099.98864	0.05420
3098.70287	0.05415
3097.41710	0.05390
3096.13133	0.05353
3094.84557	0.05309
3093.55980	0.05268
3092.27403	0.05233
3090.98826	0.05209
3089.70249	0.05196
3088.41672	0.05189
3087.13095	0.05175
3085.84518	0.05146
3084.55942	0.05104
3083.27365	0.05068
3081.98788	0.05059
3080.70211	0.05083
3079.41634	0.05122
3078.13057	0.05151
3076.84480	0.05153
3075.55903	0.05130
3074.27326	0.05096
3072.98750	0.05064
3071.70173	0.05031
3070.41596	0.04997
3069.13019	0.04967
3067.84442	0.04950
3066.55865	0.04951
3065.27288	0.04966
3063.98711	0.04987
3062.70135	0.05001
3061.41558	0.04995
3060.12981	0.04968
3058.84404	0.04929
3057.55827	0.04897
3056.27250	0.04875
3054.98673	0.04858
3053.70096	0.04837
3052.41519	0.04812
3051.12943	0.04793
3049.84366	0.04786
3048.55789	0.04790
3047.27212	0.04797
3045.98635	0.04800
3044.70058	0.04787
3043.41481	0.04752
3042.12904	0.04697
3040.84328	0.04644
3039.55751	0.04618
3038.27174	0.04625
3036.98597	0.04645
3035.70020	0.04646
3034.41443	0.04618
3033.12866	0.04576
3031.84289	0.04538
3030.55712	0.04509
3029.27136	0.04488
3027.98559	0.04477
3026.69982	0.04477
3025.41405	0.04474
3024.12828	0.04451
3022.84251	0.04410
3021.55674	0.04377
3020.27097	0.04370
3018.98521	0.04384
3017.69944	0.04396
3016.41367	0.04395
3015.12790	0.04391
3013.84213	0.04396
3012.55636	0.04406
3011.27059	0.04406
3009.98482	0.04388
3008.69905	0.04360
3007.41329	0.04344
3006.12752	0.04351
3004.84175	0.04375
3003.55598	0.04396
3002.27021	0.04394
3000.98444	0.04367
2999.69867	0.04329
2998.41290	0.04302
2997.12714	0.04292
2995.84137	0.04286
2994.55560	0.04264
2993.26983	0.04218
2991.98406	0.04170
2990.69829	0.04147
2989.41252	0.04158
2988.12675	0.04188
2986.84098	0.04214
2985.55522	0.04225
2984.26945	0.04224
2982.98368	0.04218
2981.69791	0.04216
2980.41214	0.04219
2979.12637	0.04217
2977.84060	0.04201
2976.55483	0.04172
2975.26907	0.04145
2973.98330	0.04135
2972.69753	0.04139
2971.41176	0.04138
2970.12599	0.04115
2968.84022	0.04072
2967.55445	0.04037
2966.26868	0.04030
2964.98291	0.04049
2963.69715	0.04067
2962.41138	0.04061
2961.12561	0.04029
2959.83984	0.03992
2958.55407	0.03969
2957.26830	0.03972
2955.98253	0.03998
2954.69676	0.04035
2953.41100	0.04070
2952.12523	0.04091
2950.83946	0.04098
2949.55369	0.04095
2948.26792	0.04085
2946.98215	0.04070
2945.69638	0.04052
2944.41061	0.04032
2943.12484	0.04013
2941.83908	0.03994
2940.55331	0.03978
2939.26754	0.03969
2937.98177	0.03968
2936.69600	0.03973
2935.41023	0.03981
2934.12446	0.03996
2932.83869	0.04025
2931.55293	0.04059
2930.26716	0.04081
2928.98139	0.04082
2927.69562	0.04066
2926.40985	0.04037
2925.12408	0.03995
2923.83831	0.03939
2922.55254	0.03882
2921.26677	0.03842
2919.98101	0.03828
2918.69524	0.03833
2917.40947	0.03841
2916.12370	0.03840
2914.83793	0.03827
2913.55216	0.03813
2912.26639	0.03811
2910.98062	0.03820
2909.69486	0.03834
2908.40909	0.03845
2907.12332	0.03851
2905.83755	0.03844
2904.55178	0.03816
2903.26601	0.03773
2901.98024	0.03737
2900.69447	0.03725
2899.40870	0.03725
2898.12294	0.03721
2896.83717	0.03706
2895.55140	0.03692
2894.26563	0.03681
2892.97986	0.03667
2891.69409	0.03643
2890.40832	0.03615
2889.12255	0.03594
2887.83678	0.03588
2886.55102	0.03599
2885.26525	0.03616
2883.97948	0.03626
2882.69371	0.03619
2881.40794	0.03595
2880.12217	0.03568
2878.83640	0.03548
2877.55063	0.03541
2876.26487	0.03537
2874.97910	0.03526
2873.69333	0.03506
2872.40756	0.03491
2871.12179	0.03497
2869.83602	0.03526
2868.55025	0.03558
2867.26448	0.03568
2865.97871	0.03548
2864.69295	0.03513
2863.40718	0.03483
2862.12141	0.03463
2860.83564	0.03446
2859.54987	0.03426
2858.26410	0.03408
2856.97833	0.03391
2855.69256	0.03369
2854.40680	0.03342
2853.12103	0.03319
2851.83526	0.03307
2850.54949	0.03303
2849.26372	0.03304
2847.97795	0.03305
2846.69218	0.03299
2845.40641	0.03277
2844.12064	0.03249
2842.83488	0.03240
2841.54911	0.03261
2840.26334	0.03296
2838.97757	0.03316
2837.69180	0.03310
2836.40603	0.03286
2835.12026	0.03251
2833.83449	0.03212
2832.54873	0.03178
2831.26296	0.03160
2829.97719	0.03159
2828.69142	0.03164
2827.40565	0.03163
2826.11988	0.03155
2824.83411	0.03143
2823.54834	0.03129
2822.26257	0.03110
2820.97681	0.03085
2819.69104	0.03062
2818.40527	0.03047
2817.11950	0.03041
2815.83373	0.03036
2814.54796	0.03026
2813.26219	0.03013
2811.97642	0.03000
2810.69066	0.02991
2809.40489	0.02984
2808.11912	0.02969
2806.83335	0.02941
2805.54758	0.02903
2804.26181	0.02874
2802.97604	0.02871
2801.69027	0.02892
2800.40450	0.02916
2799.11874	0.02924
2797.83297	0.02913
2796.54720	0.02903
2795.26143	0.02914
2793.97566	0.02946
2792.68989	0.02971
2791.40412	0.02964
2790.11835	0.02924
2788.83259	0.02869
2787.54682	0.02828
2786.26105	0.02816
2784.97528	0.02829
2783.68951	0.02853
2782.40374	0.02875
2781.11797	0.02891
2779.83220	0.02894
2778.54643	0.02883
2777.26067	0.02863
2775.97490	0.02851
2774.68913	0.02858
2773.40336	0.02882
2772.11759	0.02907
2770.83182	0.02914
2769.54605	0.02896
2768.26028	0.02862
2766.97452	0.02827
2765.68875	0.02808
2764.40298	0.02808
2763.11721	0.02822
2761.83144	0.02831
2760.54567	0.02826
2759.25990	0.02807
2757.97413	0.02786
2756.68836	0.02770
2755.40260	0.02760
2754.11683	0.02751
2752.83106	0.02744
2751.54529	0.02738
2750.25952	0.02735
2748.97375	0.02737
2747.68798	0.02743
2746.40221	0.02745
2745.11645	0.02740
2743.83068	0.02730
2742.54491	0.02722
2741.25914	0.02722
2739.97337	0.02728
2738.68760	0.02730
2737.40183	0.02722
2736.11606	0.02712
2734.83029	0.02706
2733.54453	0.02705
2732.25876	0.02704
2730.97299	0.02704
2729.68722	0.02708
2728.40145	0.02713
2727.11568	0.02716
2725.82991	0.02708
2724.54414	0.02688
2723.25838	0.02661
2721.97261	0.02634
2720.68684	0.02610
2719.40107	0.02586
2718.11530	0.02567
2716.82953	0.02556
2715.54376	0.02552
2714.25799	0.02545
2712.97222	0.02531
2711.68646	0.02519
2710.40069	0.02521
2709.11492	0.02539
2707.82915	0.02561
2706.54338	0.02573
2705.25761	0.02572
2703.97184	0.02570
2702.68607	0.02575
2701.40031	0.02586
2700.11454	0.02593
2698.82877	0.02589
2697.54300	0.02577
2696.25723	0.02567
2694.97146	0.02564
2693.68569	0.02565
2692.39992	0.02561
2691.11415	0.02549
2689.82839	0.02531
2688.54262	0.02510
2687.25685	0.02487
2685.97108	0.02469
2684.68531	0.02464
2683.39954	0.02471
2682.11377	0.02483
2680.82800	0.02489
2679.54224	0.02484
2678.25647	0.02470
2676.97070	0.02453
2675.68493	0.02440
2674.39916	0.02439
2673.11339	0.02450
2671.82762	0.02465
2670.54185	0.02471
2669.25608	0.02464
2667.97032	0.02453
2666.68455	0.02453
2665.39878	0.02465
2664.11301	0.02480
2662.82724	0.02488
2661.54147	0.02482
2660.25570	0.02465
2658.96993	0.02452
2657.68417	0.02453
2656.39840	0.02467
2655.11263	0.02475
2653.82686	0.02464
2652.54109	0.02440
2651.25532	0.02421
2649.96955	0.02418
2648.68378	0.02426
2647.39801	0.02428
2646.11225	0.02414
2644.82648	0.02386
2643.54071	0.02356
2642.25494	0.02331
2640.96917	0.02316
2639.68340	0.02314
2638.39763	0.02318
2637.11186	0.02319
2635.82609	0.02311
2634.54033	0.02300
2633.25456	0.02291
2631.96879	0.02285
2630.68302	0.02277
2629.39725	0.02260
2628.11148	0.02233
2626.82571	0.02205
2625.53994	0.02183
2624.25418	0.02162
2622.96841	0.02140
2621.68264	0.02123
2620.39687	0.02123
2619.11110	0.02141
2617.82533	0.02172
2616.53956	0.02203
2615.25379	0.02219
2613.96802	0.02206
2612.68226	0.02168
2611.39649	0.02134
2610.11072	0.02123
2608.82495	0.02128
2607.53918	0.02125
2606.25341	0.02107
2604.96764	0.02094
2603.68187	0.02097
2602.39611	0.02104
2601.11034	0.02097
2599.82457	0.02077
2598.53880	0.02056
2597.25303	0.02046
2595.96726	0.02047
2594.68149	0.02052
2593.39572	0.02055
2592.10995	0.02056
2590.82419	0.02062
2589.53842	0.02065
2588.25265	0.02049
2586.96688	0.02006
2585.68111	0.01956
2584.39534	0.01918
2583.10957	0.01886
2581.82380	0.01839
2580.53804	0.01783
2579.25227	0.01748
2577.96650	0.01756
2576.68073	0.01799
2575.39496	0.01855
2574.10919	0.01905
2572.82342	0.01936
2571.53765	0.01944
2570.25188	0.01929
2568.96612	0.01899
2567.68035	0.01862
2566.39458	0.01824
2565.10881	0.01797
2563.82304	0.01794
2562.53727	0.01813
2561.25150	0.01829
2559.96573	0.01812
2558.67997	0.01763
2557.39420	0.01723
2556.10843	0.01726
2554.82266	0.01775
2553.53689	0.01837
2552.25112	0.01876
2550.96535	0.01881
2549.67958	0.01876
2548.39381	0.01887
2547.10805	0.01916
2545.82228	0.01931
2544.53651	0.01910
2543.25074	0.01859
2541.96497	0.01809
2540.67920	0.01787
2539.39343	0.01795
2538.10766	0.01808
2536.82190	0.01795
2535.53613	0.01748
2534.25036	0.01692
2532.96459	0.01661
2531.67882	0.01668
2530.39305	0.01702
2529.10728	0.01736
2527.82151	0.01754
2526.53574	0.01761
2525.24998	0.01777
2523.96421	0.01815
2522.67844	0.01859
2521.39267	0.01880
2520.10690	0.01859
2518.82113	0.01806
2517.53536	0.01755
2516.24959	0.01737
2514.96383	0.01759
2513.67806	0.01804
2512.39229	0.01843
2511.10652	0.01849
2509.82075	0.01814
2508.53498	0.01762
2507.24921	0.01733
2505.96344	0.01747
2504.67767	0.01793
2503.39191	0.01845
2502.10614	0.01878
2500.82037	0.01876
2499.53460	0.01843
2498.24883	0.01800
2496.96306	0.01771
2495.67729	0.01760
2494.39152	0.01759
2493.10576	0.01762
2491.81999	0.01770
2490.53422	0.01777
2489.24845	0.01777
2487.96268	0.01769
2486.67691	0.01765
2485.39114	0.01763
2484.10537	0.01752
2482.81960	0.01726
2481.53384	0.01695
2480.24807	0.01676
2478.96230	0.01671
2477.67653	0.01677
2476.39076	0.01692
2475.10499	0.01714
2473.81922	0.01730
2472.53345	0.01727
2471.24769	0.01701
2469.96192	0.01663
2468.67615	0.01636
2467.39038	0.01637
2466.10461	0.01663
2464.81884	0.01688
2463.53307	0.01691
2462.24730	0.01683
2460.96153	0.01694
2459.67577	0.01737
2458.39000	0.01784
2457.10423	0.01792
2455.81846	0.01749
2454.53269	0.01685
2453.24692	0.01644
2451.96115	0.01642
2450.67538	0.01670
2449.38962	0.01709
2448.10385	0.01744
2446.81808	0.01754
2445.53231	0.01731
2444.24654	0.01688
2442.96077	0.01655
2441.67500	0.01644
2440.38923	0.01641
2439.10346	0.01627
2437.81770	0.01602
2436.53193	0.01587
2435.24616	0.01599
2433.96039	0.01628
2432.67462	0.01655
2431.38885	0.01672
2430.10308	0.01679
2428.81731	0.01675
2427.53155	0.01653
2426.24578	0.01613
2424.96001	0.01566
2423.67424	0.01531
2422.38847	0.01520
2421.10270	0.01536
2419.81693	0.01569
2418.53116	0.01596
2417.24539	0.01599
2415.95963	0.01579
2414.67386	0.01552
2413.38809	0.01533
2412.10232	0.01532
2410.81655	0.01543
2409.53078	0.01552
2408.24501	0.01555
2406.95924	0.01559
2405.67347	0.01568
2404.38771	0.01577
2403.10194	0.01584
2401.81617	0.01588
2400.53040	0.01590
2399.24463	0.01589
2397.95886	0.01590
2396.67309	0.01602
2395.38732	0.01618
2394.10156	0.01623
2392.81579	0.01609
2391.53002	0.01589
2390.24425	0.01585
2388.95848	0.01601
2387.67271	0.01619
2386.38694	0.01614
2385.10117	0.01577
2383.81540	0.01528
2382.52964	0.01495
2381.24387	0.01498
2379.95810	0.01508
2378.67233	0.01571
2377.38656	0.01595
2376.10079	0.01476
2374.81502	0.01284
2373.52925	0.01356
2372.24349	0.01641
2370.95772	0.01836
2369.67195	0.01812
2368.38618	0.01674
2367.10041	0.01611
2365.81464	0.01594
2364.52887	0.01586
2363.24310	0.01582
2361.95733	0.01654
2360.67157	0.01894
2359.38580	0.02080
2358.10003	0.02068
2356.81426	0.01873
2355.52849	0.01559
2354.24272	0.01193
2352.95695	0.00968
2351.67118	0.01190
2350.38542	0.01542
2349.09965	0.01590
2347.81388	0.01489
2346.52811	0.01656
2345.24234	0.01825
2343.95657	0.01511
2342.67080	0.00790
2341.38503	0.00949
2340.09926	0.01775
2338.81350	0.01705
2337.52773	0.00880
2336.24196	0.01077
2334.95619	0.01811
2333.67042	0.01583
2332.38465	0.00772
2331.09888	0.01289
2329.81311	0.01621
2328.52735	0.01120
2327.24158	0.01337
2325.95581	0.01821
2324.67004	0.01667
2323.38427	0.01415
2322.09850	0.01648
2320.81273	0.01535
2319.52696	0.01537
2318.24119	0.01665
2316.95543	0.01568
2315.66966	0.01582
2314.38389	0.01590
2313.09812	0.01520
2311.81235	0.01627
2310.52658	0.01640
2309.24081	0.01559
2307.95504	0.01548
2306.66928	0.01500
2305.38351	0.01514
2304.09774	0.01529
2302.81197	0.01525
2301.52620	0.01566
2300.24043	0.01588
2298.95466	0.01600
2297.66889	0.01587
2296.38312	0.01565
2295.09736	0.01557
2293.81159	0.01556
2292.52582	0.01577
2291.24005	0.01597
2289.95428	0.01612
2288.66851	0.01612
2287.38274	0.01591
2286.09697	0.01557
2284.81121	0.01521
2283.52544	0.01495
2282.23967	0.01478
2280.95390	0.01464
2279.66813	0.01444
2278.38236	0.01419
2277.09659	0.01404
2275.81082	0.01418
2274.52505	0.01453
2273.23929	0.01492
2271.95352	0.01527
2270.66775	0.01553
2269.38198	0.01539
2268.09621	0.01463
2266.81044	0.01344
2265.52467	0.01226
2264.23890	0.01114
2262.95314	0.01038
2261.66737	0.01044
2260.38160	0.01120
2259.09583	0.01208
2257.81006	0.01248
2256.52429	0.01224
2255.23852	0.01169
2253.95275	0.01134
2252.66698	0.01121
2251.38122	0.01098
2250.09545	0.01055
2248.80968	0.01013
2247.52391	0.01000
2246.23814	0.01009
2244.95237	0.01027
2243.66660	0.01051
2242.38083	0.01076
2241.09507	0.01084
2239.80930	0.01068
2238.52353	0.01043
2237.23776	0.01026
2235.95199	0.01017
2234.66622	0.01015
2233.38045	0.01021
2232.09468	0.01037
2230.80891	0.01060
2229.52315	0.01089
2228.23738	0.01129
2226.95161	0.01169
2225.66584	0.01177
2224.38007	0.01132
2223.09430	0.01048
2221.80853	0.00962
2220.52276	0.00909
2219.23700	0.00899
2217.95123	0.00919
2216.66546	0.00951
2215.37969	0.00986
2214.09392	0.01025
2212.80815	0.01061
2211.52238	0.01061
2210.23661	0.00995
2208.95084	0.00885
2207.66508	0.00801
2206.37931	0.00805
2205.09354	0.00877
2203.80777	0.00928
2202.52200	0.00881
2201.23623	0.00736
2199.95046	0.00576
2198.66469	0.00493
2197.37893	0.00516
2196.09316	0.00605
2194.80739	0.00705
2193.52162	0.00793
2192.23585	0.00864
2190.95008	0.00899
2189.66431	0.00875
2188.37854	0.00803
2187.09277	0.00727
2185.80701	0.00681
2184.52124	0.00665
2183.23547	0.00652
2181.94970	0.00624
2180.66393	0.00598
2179.37816	0.00602
2178.09239	0.00640
2176.80662	0.00694
2175.52085	0.00754
2174.23509	0.00823
2172.94932	0.00883
2171.66355	0.00894
2170.37778	0.00841
2169.09201	0.00758
2167.80624	0.00677
2166.52047	0.00599
2165.23470	0.00514
2163.94894	0.00434
2162.66317	0.00351
2161.37740	0.00216
2160.09163	-0.00009
2158.80586	-0.00253
2157.52009	-0.00366
2156.23432	-0.00277
2154.94855	-0.00071
2153.66278	0.00111
2152.37702	0.00192
2151.09125	0.00189
2149.80548	0.00159
2148.51971	0.00144
2147.23394	0.00155
2145.94817	0.00175
2144.66240	0.00181
2143.37663	0.00174
2142.09087	0.00184
2140.80510	0.00237
2139.51933	0.00317
2138.23356	0.00376
2136.94779	0.00376
2135.66202	0.00328
2134.37625	0.00288
2133.09048	0.00299
2131.80471	0.00348
2130.51895	0.00394
2129.23318	0.00421
2127.94741	0.00447
2126.66164	0.00490
2125.37587	0.00542
2124.09010	0.00589
2122.80433	0.00622
2121.51856	0.00637
2120.23280	0.00630
2118.94703	0.00600
2117.66126	0.00564
2116.37549	0.00549
2115.08972	0.00566
2113.80395	0.00596
2112.51818	0.00620
2111.23241	0.00644
2109.94664	0.00686
2108.66088	0.00734
2107.37511	0.00745
2106.08934	0.00691
2104.80357	0.00592
2103.51780	0.00501
2102.23203	0.00453
2100.94626	0.00458
2099.66049	0.00700
2098.37473	0.00832
2097.08896	0.00830
2095.80319	0.00767
2094.51742	0.00683
2093.23165	0.00614
2091.94588	0.00582
2090.66011	0.00578
2089.37434	0.00574
2088.08857	0.00560
2086.80281	0.00550
2085.51704	0.00558
2084.23127	0.00588
2082.94550	0.00636
2081.65973	0.00691
2080.37396	0.00738
2079.08819	0.00758
2077.80242	0.00751
2076.51666	0.00737
2075.23089	0.00743
2073.94512	0.00772
2072.65935	0.00808
2071.37358	0.00832
2070.08781	0.00835
2068.80204	0.00814
2067.51627	0.00765
2066.23050	0.00690
2064.94474	0.00597
2063.65897	0.00508
2062.37320	0.00442
2061.08743	0.00401
2059.80166	0.00366
2058.51589	0.00317
2057.23012	0.00257
2055.94435	0.00207
2054.65859	0.00194
2053.37282	0.00236
2052.08705	0.00331
2050.80128	0.00459
2049.51551	0.00581
2048.22974	0.00665
2046.94397	0.00693
2045.65820	0.00663
2044.37243	0.00571
2043.08667	0.00423
2041.80090	0.00249
2040.51513	0.00106
2039.22936	0.00048
2037.94359	0.00087
2036.65782	0.00184
2035.37205	0.00281
2034.08628	0.00344
2032.80052	0.00378
2031.51475	0.00402
2030.22898	0.00412
2028.94321	0.00393
2027.65744	0.00355
2026.37167	0.00326
2025.08590	0.00310
2023.80013	0.00273
2022.51436	0.00193
2021.22860	0.00102
2019.94283	0.00068
2018.65706	0.00124
2017.37129	0.00238
2016.08552	0.00338
2014.79975	0.00367
2013.51398	0.00330
2012.22821	0.00291
2010.94245	0.00321
2009.65668	0.00437
2008.37091	0.00585
2007.08514	0.00689
2005.79937	0.00711
2004.51360	0.00681
2003.22783	0.00650
2001.94206	0.00637
2000.65629	0.00615
1999.37053	0.00552
1998.08476	0.00459
1996.79899	0.00376
1995.51322	0.00336
1994.22745	0.00340
1992.94168	0.00373
1991.65591	0.00424
1990.37014	0.00475
1989.08438	0.00500
1987.79861	0.00488
1986.51284	0.00473
1985.22707	0.00516
1983.94130	0.00659
1982.65553	0.00889
1981.36976	0.01152
1980.08399	0.01380
1978.79822	0.01518
1977.51246	0.01533
1976.22669	0.01433
1974.94092	0.01266
1973.65515	0.01102
1972.36938	0.00990
1971.08361	0.00926
1969.79784	0.00867
1968.51207	0.00788
1967.22631	0.00720
1965.94054	0.00709
1964.65477	0.00765
1963.36900	0.00842
1962.08323	0.00887
1960.79746	0.00884
1959.51169	0.00850
1958.22592	0.00806
1956.94015	0.00773
1955.65439	0.00772
1954.36862	0.00821
1953.08285	0.00905
1951.79708	0.00965
1950.51131	0.00950
1949.22554	0.00872
1947.93977	0.00795
1946.65400	0.00775
1945.36823	0.00816
1944.08247	0.00884
1942.79670	0.00952
1941.51093	0.01004
1940.22516	0.01026
1938.93939	0.01004
1937.65362	0.00945
1936.36785	0.00884
1935.08208	0.00862
1933.79632	0.00892
1932.51055	0.00946
1931.22478	0.00985
1929.93901	0.00982
1928.65324	0.00938
1927.36747	0.00883
1926.08170	0.00856
1924.79593	0.00870
1923.51016	0.00900
1922.22440	0.00915
1920.93863	0.00914
1919.65286	0.00923
1918.36709	0.00955
1917.08132	0.00996
1915.79555	0.01023
1914.50978	0.01033
1913.22401	0.01037
1911.93825	0.01044
1910.65248	0.01046
1909.36671	0.01039
1908.08094	0.01026
1906.79517	0.01021
1905.50940	0.01026
1904.22363	0.01030
1902.93786	0.01026
1901.65209	0.01019
1900.36633	0.01020
1899.08056	0.01030
1897.79479	0.01035
1896.50902	0.01026
1895.22325	0.01014
1893.93748	0.01011
1892.65171	0.01015
1891.36594	0.01017
1890.08018	0.01006
1888.79441	0.00986
1887.50864	0.00966
1886.22287	0.00956
1884.93710	0.00958
1883.65133	0.00969
1882.36556	0.00986
1881.07979	0.01009
1879.79402	0.01032
1878.50826	0.01047
1877.22249	0.01046
1875.93672	0.01032
1874.65095	0.01010
1873.36518	0.00989
1872.07941	0.00976
1870.79364	0.00978
1869.50787	0.00988
1868.22211	0.00993
1866.93634	0.00987
1865.65057	0.00975
1864.36480	0.00967
1863.07903	0.00965
1861.79326	0.00967
1860.50749	0.00971
1859.22172	0.00981
1857.93595	0.00996
1856.65019	0.01009
1855.36442	0.01014
1854.07865	0.01011
1852.79288	0.01003
1851.50711	0.00997
1850.22134	0.00998
1848.93557	0.01011
1847.64980	0.01032
1846.36404	0.01055
1845.07827	0.01070
1843.79250	0.01072
1842.50673	0.01060
1841.22096	0.01038
1839.93519	0.01008
1838.64942	0.00976
1837.36365	0.00947
1836.07788	0.00928
1834.79212	0.00921
1833.50635	0.00927
1832.22058	0.00945
1830.93481	0.00976
1829.64904	0.01015
1828.36327	0.01054
1827.07750	0.01085
1825.79173	0.01106
1824.50597	0.01119
1823.22020	0.01128
1821.93443	0.01136
1820.64866	0.01139
1819.36289	0.01126
1818.07712	0.01094
1816.79135	0.01049
1815.50558	0.01009
1814.21981	0.00987
1812.93405	0.00983
1811.64828	0.00987
1810.36251	0.00991
1809.07674	0.00992
1807.79097	0.00995
1806.50520	0.01000
1805.21943	0.01009
1803.93366	0.01021
1802.64790	0.01036
1801.36213	0.01054
1800.07636	0.01074
1798.79059	0.01096
1797.50482	0.01119
1796.21905	0.01142
1794.93328	0.01160
1793.64751	0.01172
1792.36174	0.01175
1791.07598	0.01172
1789.79021	0.01167
1788.50444	0.01165
1787.21867	0.01168
1785.93290	0.01177
1784.64713	0.01188
1783.36136	0.01203
1782.07559	0.01218
1780.78983	0.01231
1779.50406	0.01236
1778.21829	0.01231
1776.93252	0.01218
1775.64675	0.01205
1774.36098	0.01198
1773.07521	0.01199
1771.78944	0.01206
1770.50367	0.01215
1769.21791	0.01220
1767.93214	0.01219
1766.64637	0.01217
1765.36060	0.01222
1764.07483	0.01233
1762.78906	0.01245
1761.50329	0.01247
1760.21752	0.01241
1758.93176	0.01233
1757.64599	0.01230
1756.36022	0.01230
1755.07445	0.01233
1753.78868	0.01240
1752.50291	0.01251
1751.21714	0.01264
1749.93137	0.01273
1748.64560	0.01278
1747.35984	0.01282
1746.07407	0.01288
1744.78830	0.01297
1743.50253	0.01309
1742.21676	0.01323
1740.93099	0.01339
1739.64522	0.01353
1738.35945	0.01366
1737.07369	0.01381
1735.78792	0.01399
1734.50215	0.01417
1733.21638	0.01430
1731.93061	0.01439
1730.64484	0.01447
1729.35907	0.01458
1728.07330	0.01469
1726.78753	0.01479
1725.50177	0.01491
1724.21600	0.01507
1722.93023	0.01529
1721.64446	0.01556
1720.35869	0.01586
1719.07292	0.01621
1717.78715	0.01657
1716.50138	0.01690
1715.21561	0.01713
1713.92985	0.01725
1712.64408	0.01730
1711.35831	0.01736
1710.07254	0.01748
1708.78677	0.01766
1707.50100	0.01788
1706.21523	0.01814
1704.92946	0.01848
1703.64370	0.01893
1702.35793	0.01945
1701.07216	0.01993
1699.78639	0.02026
1698.50062	0.02048
1697.21485	0.02066
1695.92908	0.02083
1694.64331	0.02104
1693.35754	0.02129
1692.07178	0.02161
1690.78601	0.02195
1689.50024	0.02229
1688.21447	0.02268
1686.92870	0.02320
1685.64293	0.02381
1684.35716	0.02436
1683.07139	0.02474
1681.78563	0.02500
1680.49986	0.02527
1679.21409	0.02564
1677.92832	0.02610
1676.64255	0.02658
1675.35678	0.02702
1674.07101	0.02742
1672.78524	0.02783
1671.49947	0.02828
1670.21371	0.02875
1668.92794	0.02919
1667.64217	0.02962
1666.35640	0.03008
1665.07063	0.03061
1663.78486	0.03114
1662.49909	0.03161
1661.21332	0.03198
1659.92756	0.03230
1658.64179	0.03264
1657.35602	0.03307
1656.07025	0.03365
1654.78448	0.03432
1653.49871	0.03495
1652.21294	0.03539
1650.92717	0.03564
1649.64140	0.03582
1648.35564	0.03606
1647.06987	0.03633
1645.78410	0.03657
1644.49833	0.03674
1643.21256	0.03687
1641.92679	0.03699
1640.64102	0.03715
1639.35525	0.03738
1638.06949	0.03772
1636.78372	0.03811
1635.49795	0.03841
1634.21218	0.03853
1632.92641	0.03852
1631.64064	0.03852
1630.35487	0.03862
1629.06910	0.03881
1627.78333	0.03906
1626.49757	0.03932
1625.21180	0.03953
1623.92603	0.03965
1622.64026	0.03964
1621.35449	0.03957
1620.06872	0.03955
1618.78295	0.03965
1617.49718	0.03984
1616.21142	0.04002
1614.92565	0.04015
1613.63988	0.04025
1612.35411	0.04035
1611.06834	0.04048
1609.78257	0.04066
1608.49680	0.04083
1607.21103	0.04099
1605.92526	0.04109
1604.63950	0.04119
1603.35373	0.04132
1602.06796	0.04151
1600.78219	0.04171
1599.49642	0.04188
1598.21065	0.04199
1596.92488	0.04207
1595.63911	0.04214
1594.35335	0.04221
1593.06758	0.04229
1591.78181	0.04236
1590.49604	0.04241
1589.21027	0.04245
1587.92450	0.04247
1586.63873	0.04247
1585.35296	0.04244
1584.06719	0.04238
1582.78143	0.04230
1581.49566	0.04224
1580.20989	0.04226
1578.92412	0.04237
1577.63835	0.04251
1576.35258	0.04256
1575.06681	0.04246
1573.78104	0.04226
1572.49528	0.04204
1571.20951	0.04187
1569.92374	0.04172
1568.63797	0.04154
1567.35220	0.04134
1566.06643	0.04114
1564.78066	0.04097
1563.49489	0.04088
1562.20912	0.04090
1560.92336	0.04099
1559.63759	0.04101
1558.35182	0.04086
1557.06605	0.04056
1555.78028	0.04022
1554.49451	0.03995
1553.20874	0.03976
1551.92297	0.03964
1550.63721	0.03957
1549.35144	0.03955
1548.06567	0.03953
1546.77990	0.03949
1545.49413	0.03943
1544.20836	0.03940
1542.92259	0.03942
1541.63682	0.03946
1540.35105	0.03946
1539.06529	0.03937
1537.77952	0.03927
1536.49375	0.03924
1535.20798	0.03934
1533.92221	0.03956
1532.63644	0.03988
1531.35067	0.04028
1530.06490	0.04075
1528.77914	0.04133
1527.49337	0.04200
1526.20760	0.04278
1524.92183	0.04367
1523.63606	0.04466
1522.35029	0.04575
1521.06452	0.04687
1519.77875	0.04798
1518.49298	0.04910
1517.20722	0.05028
1515.92145	0.05152
1514.63568	0.05281
1513.34991	0.05414
1512.06414	0.05551
1510.77837	0.05697
1509.49260	0.05855
1508.20683	0.06020
1506.92107	0.06183
1505.63530	0.06329
1504.34953	0.06455
1503.06376	0.06570
1501.77799	0.06687
1500.49222	0.06812
1499.20645	0.06942
1497.92068	0.07067
1496.63491	0.07179
1495.34915	0.07276
1494.06338	0.07364
1492.77761	0.07450
1491.49184	0.07543
1490.20607	0.07645
1488.92030	0.07753
1487.63453	0.07862
1486.34876	0.07967
1485.06299	0.08068
1483.77723	0.08169
1482.49146	0.08275
1481.20569	0.08388
1479.91992	0.08507
1478.63415	0.08626
1477.34838	0.08739
1476.06261	0.08843
1474.77684	0.08937
1473.49108	0.09022
1472.20531	0.09098
1470.91954	0.09165
1469.63377	0.09224
1468.34800	0.09282
1467.06223	0.09342
1465.77646	0.09406
1464.49069	0.09474
1463.20492	0.09549
1461.91916	0.09634
1460.63339	0.09727
1459.34762	0.09822
1458.06185	0.09908
1456.77608	0.09975
1455.49031	0.10019
1454.20454	0.10040
1452.91877	0.10046
1451.63301	0.10042
1450.34724	0.10038
1449.06147	0.10035
1447.77570	0.10034
1446.48993	0.10032
1445.20416	0.10033
1443.91839	0.10041
1442.63262	0.10064
1441.34685	0.10105
1440.06109	0.10166
1438.77532	0.10252
1437.48955	0.10363
1436.20378	0.10493
1434.91801	0.10632
1433.63224	0.10772
1432.34647	0.10911
1431.06070	0.11051
1429.77494	0.11194
1428.48917	0.11338
1427.20340	0.11486
1425.91763	0.11634
1424.63186	0.11776
1423.34609	0.11905
1422.06032	0.12015
1420.77455	0.12106
1419.48878	0.12176
1418.20302	0.12222
1416.91725	0.12244
1415.63148	0.12241
1414.34571	0.12218
1413.05994	0.12177
1411.77417	0.12116
1410.48840	0.12033
1409.20263	0.11923
1407.91687	0.11785
1406.63110	0.11622
1405.34533	0.11441
1404.05956	0.11243
1402.77379	0.11030
1401.48802	0.10798
1400.20225	0.10546
1398.91648	0.10277
1397.63071	0.09996
1396.34495	0.09711
1395.05918	0.09424
1393.77341	0.09135
1392.48764	0.08844
1391.20187	0.08551
1389.91610	0.08259
1388.63033	0.07973
1387.34456	0.07691
1386.05880	0.07413
1384.77303	0.07135
1383.48726	0.06859
1382.20149	0.06587
1380.91572	0.06323
1379.62995	0.06069
1378.34418	0.05824
1377.05841	0.05590
1375.77264	0.05372
1374.48688	0.05168
1373.20111	0.04975
1371.91534	0.04789
1370.62957	0.04607
1369.34380	0.04433
1368.05803	0.04269
1366.77226	0.04119
1365.48649	0.03983
1364.20073	0.03861
1362.91496	0.03750
1361.62919	0.03644
1360.34342	0.03539
1359.05765	0.03435
1357.77188	0.03336
1356.48611	0.03245
1355.20034	0.03162
1353.91457	0.03085
1352.62881	0.03012
1351.34304	0.02944
1350.05727	0.02880
1348.77150	0.02816
1347.48573	0.02752
1346.19996	0.02688
1344.91419	0.02626
1343.62842	0.02568
1342.34266	0.02516
1341.05689	0.02469
1339.77112	0.02428
1338.48535	0.02393
1337.19958	0.02361
1335.91381	0.02329
1334.62804	0.02297
1333.34227	0.02265
1332.05650	0.02233
1330.77074	0.02200
1329.48497	0.02168
1328.19920	0.02139
1326.91343	0.02110
1325.62766	0.02084
1324.34189	0.02062
1323.05612	0.02042
1321.77035	0.02025
1320.48459	0.02005
1319.19882	0.01983
1317.91305	0.01960
1316.62728	0.01936
1315.34151	0.01912
1314.05574	0.01888
1312.76997	0.01867
1311.48420	0.01852
1310.19843	0.01844
1308.91267	0.01838
1307.62690	0.01831
1306.34113	0.01822
1305.05536	0.01812
1303.76959	0.01805
1302.48382	0.01796
1301.19805	0.01782
1299.91228	0.01763
1298.62652	0.01741
1297.34075	0.01724
1296.05498	0.01714
1294.76921	0.01708
1293.48344	0.01703
1292.19767	0.01696
1290.91190	0.01687
1289.62613	0.01677
1288.34036	0.01667
1287.05460	0.01657
1285.76883	0.01649
1284.48306	0.01645
1283.19729	0.01639
1281.91152	0.01631
1280.62575	0.01619
1279.33998	0.01607
1278.05421	0.01596
1276.76845	0.01585
1275.48268	0.01575
1274.19691	0.01567
1272.91114	0.01563
1271.62537	0.01565
1270.33960	0.01570
1269.05383	0.01576
1267.76806	0.01581
1266.48229	0.01584
1265.19653	0.01584
1263.91076	0.01582
1262.62499	0.01577
1261.33922	0.01571
1260.05345	0.01565
1258.76768	0.01561
1257.48191	0.01557
1256.19614	0.01556
1254.91037	0.01557
1253.62461	0.01561
1252.33884	0.01565
1251.05307	0.01566
1249.76730	0.01563
1248.48153	0.01557
1247.19576	0.01550
1245.90999	0.01544
1244.62422	0.01538
1243.33846	0.01531
1242.05269	0.01527
1240.76692	0.01525
1239.48115	0.01527
1238.19538	0.01529
1236.90961	0.01531
1235.62384	0.01533
1234.33807	0.01537
1233.05230	0.01542
1231.76654	0.01547
1230.48077	0.01550
1229.19500	0.01553
1227.90923	0.01555
1226.62346	0.01556
1225.33769	0.01556
1224.05192	0.01554
1222.76615	0.01553
1221.48039	0.01556
1220.19462	0.01561
1218.90885	0.01567
1217.62308	0.01573
1216.33731	0.01579
1215.05154	0.01588
1213.76577	0.01601
1212.48000	0.01615
1211.19423	0.01631
1209.90847	0.01647
1208.62270	0.01667
1207.33693	0.01692
1206.05116	0.01721
1204.76539	0.01753
1203.47962	0.01784
1202.19385	0.01811
1200.90808	0.01820
1199.62232	0.01805
1198.33655	0.01815
1197.05078	0.01824
1195.76501	0.01835
1194.47924	0.01849
1193.19347	0.01868
1191.90770	0.01889
1190.62193	0.01909
1189.33616	0.01928
1188.05040	0.01947
1186.76463	0.01963
1185.47886	0.01977
1184.19309	0.01991
1182.90732	0.02006
1181.62155	0.02021
1180.33578	0.02033
1179.05001	0.02040
1177.76425	0.02047
1176.47848	0.02057
1175.19271	0.02069
1173.90694	0.02085
1172.62117	0.02103
1171.33540	0.02121
1170.04963	0.02138
1168.76386	0.02155
1167.47809	0.02178
1166.19233	0.02209
1164.90656	0.02246
1163.62079	0.02287
1162.33502	0.02328
1161.04925	0.02368
1159.76348	0.02408
1158.47771	0.02448
1157.19194	0.02491
1155.90618	0.02536
1154.62041	0.02585
1153.33464	0.02639
1152.04887	0.02699
1150.76310	0.02761
1149.47733	0.02821
1148.19156	0.02881
1146.90579	0.02945
1145.62002	0.03021
1144.33426	0.03111
1143.04849	0.03210
1141.76272	0.03311
1140.47695	0.03414
1139.19118	0.03525
1137.90541	0.03650
1136.61964	0.03796
1135.33387	0.03968
1134.04811	0.04170
1132.76234	0.04402
1131.47657	0.04657
1130.19080	0.04931
1128.90503	0.05221
1127.61926	0.05527
1126.33349	0.05856
1125.04772	0.06208
1123.76195	0.06584
1122.47619	0.06977
1121.19042	0.07379
1119.90465	0.07782
1118.61888	0.08178
1117.33311	0.08565
1116.04734	0.08949
1114.76157	0.09334
1113.47580	0.09721
1112.19004	0.10103
1110.90427	0.10474
1109.61850	0.10833
1108.33273	0.11184
1107.04696	0.11533
1105.76119	0.11881
1104.47542	0.12223
1103.18965	0.12557
1101.90388	0.12881
1100.61812	0.13197
1099.33235	0.13504
1098.04658	0.13803
1096.76081	0.14093
1095.47504	0.14377
1094.18927	0.14659
1092.90350	0.14937
1091.61773	0.15208
1090.33197	0.15469
1089.04620	0.15722
1087.76043	0.15973
1086.47466	0.16224
1085.18889	0.16482
1083.90312	0.16750
1082.61735	0.17031
1081.33158	0.17327
1080.04581	0.17640
1078.76005	0.17978
1077.47428	0.18346
1076.18851	0.18738
1074.90274	0.19145
1073.61697	0.19563
1072.33120	0.19992
1071.04543	0.20434
1069.75966	0.20892
1068.47390	0.21367
1067.18813	0.21865
1065.90236	0.22383
1064.61659	0.22919
1063.33082	0.23465
1062.04505	0.24019
1060.75928	0.24576
1059.47351	0.25132
1058.18774	0.25686
1056.90198	0.26241
1055.61621	0.26800
1054.33044	0.27365
1053.04467	0.27936
1051.75890	0.28515
1050.47313	0.29105
1049.18736	0.29705
1047.90159	0.30312
1046.61583	0.30923
1045.33006	0.31541
1044.04429	0.32168
1042.75852	0.32810
1041.47275	0.33472
1040.18698	0.34153
1038.90121	0.34843
1037.61544	0.35531
1036.32967	0.36208
1035.04391	0.36866
1033.75814	0.37497
1032.47237	0.38087
1031.18660	0.38626
1029.90083	0.39110
1028.61506	0.39543
1027.32929	0.39931
1026.04352	0.40265
1024.75775	0.40519
1023.47199	0.40664
1022.18622	0.40676
1020.90045	0.40549
1019.61468	0.40283
1018.32891	0.39886
1017.04314	0.39363
1015.75737	0.38715
1014.47160	0.37948
1013.18584	0.37070
1011.90007	0.36100
1010.61430	0.35052
1009.32853	0.33935
1008.04276	0.32759
1006.75699	0.31539
1005.47122	0.30295
1004.18545	0.29038
1002.89968	0.27773
1001.61392	0.26503
1000.32815	0.25232
999.04238	0.23976
997.75661	0.22754
996.47084	0.21576
995.18507	0.20446
993.89930	0.19362
992.61353	0.18326
991.32777	0.17342
990.04200	0.16414
988.75623	0.15545
987.47046	0.14736
986.18469	0.13982
984.89892	0.13278
983.61315	0.12621
982.32738	0.12009
981.04161	0.11442
979.75585	0.10923
978.47008	0.10458
977.18431	0.10052
975.89854	0.09710
974.61277	0.09436
973.32700	0.09238
972.04123	0.09126
970.75546	0.09099
969.46970	0.09145
968.18393	0.09244
966.89816	0.09373
965.61239	0.09505
964.32662	0.09609
963.04085	0.09651
961.75508	0.09610
960.46931	0.09479
959.18354	0.09269
957.89778	0.08999
956.61201	0.08690
955.32624	0.08359
954.04047	0.08026
952.75470	0.07707
951.46893	0.07411
950.18316	0.07137
948.89739	0.06876
947.61163	0.06618
946.32586	0.06366
945.04009	0.06130
943.75432	0.05920
942.46855	0.05735
941.18278	0.05563
939.89701	0.05395
938.61124	0.05232
937.32547	0.05083
936.03971	0.04954
934.75394	0.04846
933.46817	0.04752
932.18240	0.04665
930.89663	0.04579
929.61086	0.04492
928.32509	0.04408
927.03932	0.04334
925.75356	0.04273
924.46779	0.04223
923.18202	0.04175
921.89625	0.04125
920.61048	0.04073
919.32471	0.04023
918.03894	0.03977
916.75317	0.03931
915.46740	0.03883
914.18164	0.03835
912.89587	0.03795
911.61010	0.03766
910.32433	0.03743
909.03856	0.03715
907.75279	0.03680
906.46702	0.03640
905.18125	0.03605
903.89549	0.03578
902.60972	0.03559
901.32395	0.03543
900.03818	0.03531
898.75241	0.03524
897.46664	0.03520
896.18087	0.03515
894.89510	0.03511
893.60933	0.03514
892.32357	0.03531
891.03780	0.03556
889.75203	0.03588
888.46626	0.03633
887.18049	0.03706
885.89472	0.03824
884.60895	0.04008
883.32318	0.04270
882.03742	0.04592
880.75165	0.04924
879.46588	0.05216
878.18011	0.05452
876.89434	0.05661
875.60857	0.05877
874.32280	0.06097
873.03703	0.06284
871.75126	0.06401
870.46550	0.06446
869.17973	0.06431
867.89396	0.06356
866.60819	0.06200
865.32242	0.05943
864.03665	0.05597
862.75088	0.05216
861.46511	0.04860
860.17935	0.04570
858.89358	0.04355
857.60781	0.04197
856.32204	0.04075
855.03627	0.03968
853.75050	0.03871
852.46473	0.03787
851.17896	0.03723
849.89319	0.03683
848.60743	0.03659
847.32166	0.03638
846.03589	0.03610
844.75012	0.03577
843.46435	0.03548
842.17858	0.03530
840.89281	0.03522
839.60704	0.03517
838.32128	0.03510
837.03551	0.03495
835.74974	0.03473
834.46397	0.03451
833.17820	0.03438
831.89243	0.03436
830.60666	0.03440
829.32089	0.03443
828.03512	0.03443
826.74936	0.03442
825.46359	0.03439
824.17782	0.03432
822.89205	0.03423
821.60628	0.03417
820.32051	0.03417
819.03474	0.03418
817.74897	0.03416
816.46321	0.03415
815.17744	0.03421
813.89167	0.03436
812.60590	0.03452
811.32013	0.03460
810.03436	0.03455
808.74859	0.03442
807.46282	0.03432
806.17705	0.03438
804.89129	0.03458
803.60552	0.03478
802.31975	0.03485
801.03398	0.03477
799.74821	0.03465
798.46244	0.03458
797.17667	0.03455
795.89090	0.03454
794.60513	0.03452
793.31937	0.03452
792.03360	0.03456
790.74783	0.03463
789.46206	0.03474
788.17629	0.03482
786.89052	0.03482
785.60475	0.03474
784.31898	0.03465
783.03322	0.03465
781.74745	0.03474
780.46168	0.03487
779.17591	0.03498
777.89014	0.03501
776.60437	0.03495
775.31860	0.03486
774.03283	0.03479
772.74706	0.03476
771.46130	0.03474
770.17553	0.03469
768.88976	0.03462
767.60399	0.03464
766.31822	0.03483
765.03245	0.03515
763.74668	0.03546
762.46091	0.03565
761.17515	0.03573
759.88938	0.03577
758.60361	0.03582
757.31784	0.03586
756.03207	0.03584
754.74630	0.03578
753.46053	0.03571
752.17476	0.03572
750.88899	0.03581
749.60323	0.03589
748.31746	0.03588
747.03169	0.03577
745.74592	0.03561
744.46015	0.03546
743.17438	0.03536
741.88861	0.03533
740.60284	0.03538
739.31708	0.03547
738.03131	0.03562
736.74554	0.03589
735.45977	0.03623
734.17400	0.03650
732.88823	0.03656
731.60246	0.03643
730.31669	0.03628
729.03092	0.03624
727.74516	0.03634
726.45939	0.03650
725.17362	0.03666
723.88785	0.03676
722.60208	0.03677
721.31631	0.03669
720.03054	0.03655
718.74477	0.03642
717.45901	0.03634
716.17324	0.03638
714.88747	0.03651
713.60170	0.03668
712.31593	0.03684
711.03016	0.03695
709.74439	0.03700
708.45862	0.03699
707.17285	0.03693
705.88709	0.03682
704.60132	0.03668
703.31555	0.03659
702.02978	0.03661
700.74401	0.03673
699.45824	0.03687
698.17247	0.03696
696.88670	0.03702
695.60094	0.03712
694.31517	0.03721
693.02940	0.03723
691.74363	0.03716
690.45786	0.03712
689.17209	0.03724
687.88632	0.03739
686.60055	0.03738
685.31478	0.03717
684.02902	0.03692
682.74325	0.03684
681.45748	0.03680
680.17171	0.03663
678.88594	0.03635
677.60017	0.03611
676.31440	0.03614
675.02863	0.03629
673.74287	0.03640
672.45710	0.03646
671.17133	0.03658
669.88556	0.03685
668.59979	0.03696
667.31402	0.03664
666.02825	0.03675
664.74248	0.03665
663.45671	0.03647
662.17095	0.03631
660.88518	0.03617
659.59941	0.03608
658.31364	0.03614
657.02787	0.03633
655.74210	0.03652
654.45633	0.03661
653.17056	0.03656
651.88480	0.03646
650.59903	0.03647
649.31326	0.03664
648.02749	0.03684
646.74172	0.03698
645.45595	0.03703
644.17018	0.03701
642.88441	0.03700
641.59864	0.03711
640.31288	0.03734
639.02711	0.03762
637.74134	0.03789
636.45557	0.03813
635.16980	0.03836
633.88403	0.03861
632.59826	0.03887
631.31249	0.03941
630.02673	0.04148
628.74096	0.04448
627.45519	0.04348
626.16942	0.04677
624.88365	0.05305
623.59788	0.05953
622.31211	0.06553
621.02634	0.07066
619.74057	0.07455
618.45481	0.07738
617.16904	0.07974
615.88327	0.08200
614.59750	0.08450
613.31173	0.08817
612.02596	0.09423
610.74019	0.10294
609.45442	0.11259
608.16866	0.12080
606.88289	0.12672
605.59712	0.13117
604.31135	0.13501
603.02558	0.13798
601.73981	0.13896
600.45404	0.13713
599.16827	0.13280
597.88250	0.12708
596.59674	0.12119
595.31097	0.11588
594.02520	0.11146
592.73943	0.10805
591.45366	0.10581
590.16789	0.10478
588.88212	0.10487
587.59635	0.10588
586.31059	0.10764
585.02482	0.11011
583.73905	0.11329
582.45328	0.11714
581.16751	0.12147
579.88174	0.12595
578.59597	0.13022
577.31020	0.13401
576.02443	0.13732
574.73867	0.14039
573.45290	0.14353
572.16713	0.14703
570.88136	0.15104
569.59559	0.15567
568.30982	0.16086
567.02405	0.16631
565.73828	0.17145
564.45251	0.17561
563.16675	0.17812
561.88098	0.17831
560.59521	0.17568
559.30944	0.17016
558.02367	0.16224
556.73790	0.15274
555.45213	0.14257
554.16636	0.13248
552.88060	0.12301
551.59483	0.11442
550.30906	0.10674
549.02329	0.09995
547.73752	0.09399
546.45175	0.08880
545.16598	0.08425
543.88021	0.08023
542.59444	0.07665
541.30868	0.07349
540.02291	0.07072
538.73714	0.06822
537.45137	0.06593
536.16560	0.06381
534.87983	0.06187
533.59406	0.06013
532.30829	0.05855
531.02253	0.05710
529.73676	0.05574
528.45099	0.05448
527.16522	0.05331
525.87945	0.05222
524.59368	0.05118
523.30791	0.05014
522.02214	0.04903
520.73637	0.04785
519.45061	0.04672
518.16484	0.04575
516.87907	0.04502
515.59330	0.04451
514.30753	0.04412
513.02176	0.04375
511.73599	0.04333
510.45022	0.04284
509.16446	0.04235
507.87869	0.04184
506.59292	0.04127
505.30715	0.04066
504.02138	0.04009
502.73561	0.03964
501.44984	0.03930
500.16407	0.03898
498.87830	0.03863
497.59254	0.03826
496.30677	0.03788
495.02100	0.03751
493.73523	0.03718
492.44946	0.03694
491.16369	0.03681
489.87792	0.03679
488.59215	0.03683
487.30639	0.03688
486.02062	0.03685
484.73485	0.03674
483.44908	0.03660
482.16331	0.03655
480.87754	0.03665
479.59177	0.03685
478.30600	0.03708
477.02023	0.03731
475.73447	0.03756
474.44870	0.03785
473.16293	0.03815
471.87716	0.03838
470.59139	0.03848
469.30562	0.03840
468.01985	0.03814
466.73408	0.03776
465.44832	0.03734
464.16255	0.03690
462.87678	0.03646
461.59101	0.03602
460.30524	0.03563
459.01947	0.03532
457.73370	0.03505
456.44793	0.03476
455.16216	0.03443
453.87640	0.03408
452.59063	0.03374
451.30486	0.03340
450.01909	0.03307
448.73332	0.03277
447.44755	0.03253
446.16178	0.03236
444.87601	0.03221
443.59025	0.03201
442.30448	0.03171
441.01871	0.03135
439.73294	0.03104
438.44717	0.03083
437.16140	0.03073
435.87563	0.03070
434.58986	0.03064
433.30409	0.03053
432.01833	0.03038
430.73256	0.03027
429.44679	0.03022
428.16102	0.03019
426.87525	0.03013
425.58948	0.02999
424.30371	0.02981
423.01794	0.02963
421.73218	0.02946
420.44641	0.02927
419.16064	0.02906
417.87487	0.02887
416.58910	0.02873
415.30333	0.02865
414.01756	0.02859
412.73179	0.02853
411.44602	0.02848
410.16026	0.02849
408.87449	0.02862
407.58872	0.02884
406.30295	0.02909
405.01718	0.02929
403.73141	0.02941
402.44564	0.02949
401.15987	0.02961
399.87411	0.02979
