3997.45528	0.05156
3996.16951	0.05120
3994.88374	0.05115
3993.59798	0.05134
3992.31221	0.05149
3991.02644	0.05153
3989.74067	0.05149
3988.45490	0.05122
3987.16913	0.05062
3985.88336	0.04985
3984.59759	0.04938
3983.31183	0.04951
3982.02606	0.05019
3980.74029	0.05109
3979.45452	0.05178
3978.16875	0.05197
3976.88298	0.05167
3975.59721	0.05127
3974.31144	0.05118
3973.02567	0.05151
3971.73991	0.05190
3970.45414	0.05197
3969.16837	0.05169
3967.88260	0.05136
3966.59683	0.05130
3965.31106	0.05149
3964.02529	0.05156
3962.73952	0.05112
3961.45376	0.05017
3960.16799	0.04918
3958.88222	0.04874
3957.59645	0.04899
3956.31068	0.04956
3955.02491	0.04997
3953.73914	0.05002
3952.45337	0.04974
3951.16760	0.04925
3949.88184	0.04876
3948.59607	0.04855
3947.31030	0.04871
3946.02453	0.04893
3944.73876	0.04878
3943.45299	0.04831
3942.16722	0.04809
3940.88145	0.04861
3939.59569	0.04961
3938.30992	0.05038
3937.02415	0.05044
3935.73838	0.04999
3934.45261	0.04957
3933.16684	0.04950
3931.88107	0.04961
3930.59530	0.04961
3929.30953	0.04947
3928.02377	0.04939
3926.73800	0.04946
3925.45223	0.04952
3924.16646	0.04935
3922.88069	0.04897
3921.59492	0.04861
3920.30915	0.04853
3919.02338	0.04885
3917.73762	0.04945
3916.45185	0.04997
3915.16608	0.05014
3913.88031	0.05000
3912.59454	0.04986
3911.30877	0.04995
3910.02300	0.05011
3908.73723	0.04996
3907.45146	0.04925
3906.16570	0.04821
3904.87993	0.04744
3903.59416	0.04737
3902.30839	0.04794
3901.02262	0.04877
3899.73685	0.04955
3898.45108	0.05016
3897.16531	0.05056
3895.87955	0.05073
3894.59378	0.05069
3893.30801	0.05054
3892.02224	0.05041
3890.73647	0.05037
3889.45070	0.05038
3888.16493	0.05030
3886.87916	0.04995
3885.59339	0.04929
3884.30763	0.04847
3883.02186	0.04781
3881.73609	0.04753
3880.45032	0.04757
3879.16455	0.04769
3877.87878	0.04778
3876.59301	0.04787
3875.30724	0.04806
3874.02148	0.04832
3872.73571	0.04855
3871.44994	0.04870
3870.16417	0.04880
3868.87840	0.04889
3867.59263	0.04882
3866.30686	0.04838
3865.02109	0.04756
3863.73532	0.04669
3862.44956	0.04619
3861.16379	0.04625
3859.87802	0.04674
3858.59225	0.04742
3857.30648	0.04806
3856.02071	0.04844
3854.73494	0.04840
3853.44917	0.04785
3852.16341	0.04695
3850.87764	0.04609
3849.59187	0.04562
3848.30610	0.04564
3847.02033	0.04597
3845.73456	0.04635
3844.44879	0.04662
3843.16302	0.04672
3841.87725	0.04660
3840.59149	0.04625
3839.30572	0.04580
3838.01995	0.04543
3836.73418	0.04532
3835.44841	0.04540
3834.16264	0.04549
3832.87687	0.04547
3831.59110	0.04546
3830.30534	0.04568
3829.01957	0.04621
3827.73380	0.04700
3826.44803	0.04779
3825.16226	0.04822
3823.87649	0.04794
3822.59072	0.04701
3821.30495	0.04592
3820.01918	0.04525
3818.73342	0.04528
3817.44765	0.04577
3816.16188	0.04628
3814.87611	0.04648
3813.59034	0.04639
3812.30457	0.04620
3811.01880	0.04599
3809.73303	0.04567
3808.44726	0.04521
3807.16150	0.04480
3805.87573	0.04472
3804.58996	0.04498
3803.30419	0.04528
3802.01842	0.04537
3800.73265	0.04526
3799.44688	0.04517
3798.16111	0.04525
3796.87535	0.04544
3795.58958	0.04566
3794.30381	0.04581
3793.01804	0.04583
3791.73227	0.04569
3790.44650	0.04546
3789.16073	0.04532
3787.87496	0.04536
3786.58919	0.04553
3785.30343	0.04568
3784.01766	0.04571
3782.73189	0.04567
3781.44612	0.04564
3780.16035	0.04554
3778.87458	0.04517
3777.58881	0.04448
3776.30304	0.04377
3775.01728	0.04357
3773.73151	0.04411
3772.44574	0.04506
3771.15997	0.04575
3769.87420	0.04568
3768.58843	0.04480
3767.30266	0.04353
3766.01689	0.04253
3764.73112	0.04239
3763.44536	0.04323
3762.15959	0.04454
3760.87382	0.04559
3759.58805	0.04601
3758.30228	0.04590
3757.01651	0.04551
3755.73074	0.04499
3754.44497	0.04439
3753.15921	0.04384
3751.87344	0.04342
3750.58767	0.04313
3749.30190	0.04298
3748.01613	0.04296
3746.73036	0.04307
3745.44459	0.04332
3744.15882	0.04368
3742.87305	0.04409
3741.58729	0.04438
3740.30152	0.04436
3739.01575	0.04403
3737.72998	0.04357
3736.44421	0.04314
3735.15844	0.04268
3733.87267	0.04211
3732.58690	0.04159
3731.30114	0.04140
3730.01537	0.04157
3728.72960	0.04180
3727.44383	0.04185
3726.15806	0.04175
3724.87229	0.04169
3723.58652	0.04173
3722.30075	0.04181
3721.01498	0.04189
3719.72922	0.04197
3718.44345	0.04200
3717.15768	0.04189
3715.87191	0.04170
3714.58614	0.04160
3713.30037	0.04174
3712.01460	0.04218
3710.72883	0.04287
3709.44307	0.04365
3708.15730	0.04432
3706.87153	0.04474
3705.58576	0.04499
3704.29999	0.04521
3703.01422	0.04541
3701.72845	0.04537
3700.44268	0.04486
3699.15691	0.04392
3697.87115	0.04281
3696.58538	0.04188
3695.29961	0.04143
3694.01384	0.04155
3692.72807	0.04205
3691.44230	0.04248
3690.15653	0.04243
3688.87076	0.04191
3687.58500	0.04135
3686.29923	0.04121
3685.01346	0.04157
3683.72769	0.04214
3682.44192	0.04252
3681.15615	0.04253
3679.87038	0.04227
3678.58461	0.04195
3677.29884	0.04172
3676.01308	0.04164
3674.72731	0.04179
3673.44154	0.04222
3672.15577	0.04287
3670.87000	0.04353
3669.58423	0.04393
3668.29846	0.04392
3667.01269	0.04358
3665.72693	0.04322
3664.44116	0.04322
3663.15539	0.04372
3661.86962	0.04457
3660.58385	0.04553
3659.29808	0.04647
3658.01231	0.04727
3656.72654	0.04765
3655.44077	0.04736
3654.15501	0.04641
3652.86924	0.04520
3651.58347	0.04431
3650.29770	0.04414
3649.01193	0.04462
3647.72616	0.04530
3646.44039	0.04581
3645.15462	0.04620
3643.86886	0.04670
3642.58309	0.04730
3641.29732	0.04775
3640.01155	0.04788
3638.72578	0.04787
3637.44001	0.04796
3636.15424	0.04816
3634.86847	0.04816
3633.58270	0.04769
3632.29694	0.04678
3631.01117	0.04576
3629.72540	0.04510
3628.43963	0.04510
3627.15386	0.04570
3625.86809	0.04659
3624.58232	0.04751
3623.29655	0.04841
3622.01079	0.04925
3620.72502	0.04980
3619.43925	0.04987
3618.15348	0.04959
3616.86771	0.04940
3615.58194	0.04966
3614.29617	0.05031
3613.01040	0.05101
3611.72463	0.05133
3610.43887	0.05110
3609.15310	0.05058
3607.86733	0.05025
3606.58156	0.05047
3605.29579	0.05110
3604.01002	0.05172
3602.72425	0.05206
3601.43848	0.05222
3600.15272	0.05240
3598.86695	0.05260
3597.58118	0.05266
3596.29541	0.05253
3595.00964	0.05235
3593.72387	0.05233
3592.43810	0.05257
3591.15233	0.05297
3589.86656	0.05338
3588.58080	0.05370
3587.29503	0.05395
3586.00926	0.05421
3584.72349	0.05459
3583.43772	0.05517
3582.15195	0.05589
3580.86618	0.05655
3579.58041	0.05692
3578.29464	0.05697
3577.00888	0.05687
3575.72311	0.05672
3574.43734	0.05646
3573.15157	0.05612
3571.86580	0.05597
3570.58003	0.05632
3569.29426	0.05724
3568.00849	0.05839
3566.72273	0.05932
3565.43696	0.05975
3564.15119	0.05968
3562.86542	0.05934
3561.57965	0.05891
3560.29388	0.05850
3559.00811	0.05815
3557.72234	0.05794
3556.43657	0.05802
3555.15081	0.05848
3553.86504	0.05925
3552.57927	0.06016
3551.29350	0.06103
3550.00773	0.06174
3548.72196	0.06235
3547.43619	0.06284
3546.15042	0.06307
3544.86466	0.06285
3543.57889	0.06228
3542.29312	0.06169
3541.00735	0.06131
3539.72158	0.06112
3538.43581	0.06103
3537.15004	0.06105
3535.86427	0.06128
3534.57850	0.06171
3533.29274	0.06225
3532.00697	0.06277
3530.72120	0.06325
3529.43543	0.06373
3528.14966	0.06423
3526.86389	0.06469
3525.57812	0.06505
3524.29235	0.06537
3523.00659	0.06575
3521.72082	0.06614
3520.43505	0.06641
3519.14928	0.06647
3517.86351	0.06645
3516.57774	0.06654
3515.29197	0.06678
3514.00620	0.06699
3512.72043	0.06701
3511.43467	0.06689
3510.14890	0.06681
3508.86313	0.06695
3507.57736	0.06722
3506.29159	0.06734
3505.00582	0.06708
3503.72005	0.06659
3502.43428	0.06624
3501.14852	0.06623
3499.86275	0.06637
3498.57698	0.06647
3497.29121	0.06668
3496.00544	0.06736
3494.71967	0.06850
3493.43390	0.06954
3492.14813	0.06982
3490.86236	0.06927
3489.57660	0.06850
3488.29083	0.06820
3487.00506	0.06854
3485.71929	0.06916
3484.43352	0.06973
3483.14775	0.07022
3481.86198	0.07077
3480.57621	0.07140
3479.29045	0.07194
3478.00468	0.07215
3476.71891	0.07191
3475.43314	0.07138
3474.14737	0.07095
3472.86160	0.07097
3471.57583	0.07139
3470.29006	0.07193
3469.00429	0.07230
3467.71853	0.07236
3466.43276	0.07209
3465.14699	0.07161
3463.86122	0.07119
3462.57545	0.07110
3461.28968	0.07144
3460.00391	0.07214
3458.71814	0.07298
3457.43238	0.07370
3456.14661	0.07413
3454.86084	0.07425
3453.57507	0.07417
3452.28930	0.07402
3451.00353	0.07380
3449.71776	0.07354
3448.43199	0.07333
3447.14622	0.07335
3445.86046	0.07372
3444.57469	0.07437
3443.28892	0.07502
3442.00315	0.07535
3440.71738	0.07525
3439.43161	0.07491
3438.14584	0.07469
3436.86007	0.07480
3435.57431	0.07522
3434.28854	0.07572
3433.00277	0.07608
3431.71700	0.07620
3430.43123	0.07611
3429.14546	0.07603
3427.85969	0.07616
3426.57392	0.07654
3425.28815	0.07697
3424.00239	0.07723
3422.71662	0.07729
3421.43085	0.07729
3420.14508	0.07724
3418.85931	0.07705
3417.57354	0.07672
3416.28777	0.07647
3415.00200	0.07652
3413.71624	0.07687
3412.43047	0.07738
3411.14470	0.07792
3409.85893	0.07848
3408.57316	0.07900
3407.28739	0.07936
3406.00162	0.07946
3404.71585	0.07932
3403.43008	0.07908
3402.14432	0.07886
3400.85855	0.07873
3399.57278	0.07870
3398.28701	0.07868
3397.00124	0.07862
3395.71547	0.07859
3394.42970	0.07868
3393.14393	0.07883
3391.85817	0.07893
3390.57240	0.07896
3389.28663	0.07910
3388.00086	0.07934
3386.71509	0.07951
3385.42932	0.07946
3384.14355	0.07929
3382.85778	0.07917
3381.57201	0.07917
3380.28625	0.07924
3379.00048	0.07927
3377.71471	0.07923
3376.42894	0.07910
3375.14317	0.07891
3373.85740	0.07867
3372.57163	0.07850
3371.28586	0.07855
3370.00010	0.07889
3368.71433	0.07935
3367.42856	0.07964
3366.14279	0.07971
3364.85702	0.07975
3363.57125	0.07989
3362.28548	0.08010
3360.99971	0.08025
3359.71394	0.08032
3358.42818	0.08036
3357.14241	0.08044
3355.85664	0.08057
3354.57087	0.08067
3353.28510	0.08061
3351.99933	0.08039
3350.71356	0.08013
3349.42779	0.07999
3348.14202	0.08000
3346.85626	0.08007
3345.57049	0.08009
3344.28472	0.08007
3342.99895	0.08004
3341.71318	0.08004
3340.42741	0.08005
3339.14164	0.08006
3337.85587	0.08011
3336.57011	0.08031
3335.28434	0.08070
3333.99857	0.08119
3332.71280	0.08162
3331.42703	0.08188
3330.14126	0.08194
3328.85549	0.08177
3327.56972	0.08130
3326.28395	0.08060
3324.99819	0.07989
3323.71242	0.07949
3322.42665	0.07951
3321.14088	0.07978
3319.85511	0.08002
3318.56934	0.08012
3317.28357	0.08021
3315.99780	0.08037
3314.71204	0.08047
3313.42627	0.08035
3312.14050	0.08001
3310.85473	0.07963
3309.56896	0.07937
3308.28319	0.07925
3306.99742	0.07927
3305.71165	0.07951
3304.42588	0.08001
3303.14012	0.08063
3301.85435	0.08106
3300.56858	0.08107
3299.28281	0.08074
3297.99704	0.08029
3296.71127	0.07990
3295.42550	0.07959
3294.13973	0.07933
3292.85397	0.07912
3291.56820	0.07908
3290.28243	0.07923
3288.99666	0.07943
3287.71089	0.07950
3286.42512	0.07937
3285.13935	0.07912
3283.85358	0.07884
3282.56781	0.07869
3281.28205	0.07877
3279.99628	0.07906
3278.71051	0.07931
3277.42474	0.07927
3276.13897	0.07899
3274.85320	0.07874
3273.56743	0.07878
3272.28166	0.07902
3270.99590	0.07918
3269.71013	0.07905
3268.42436	0.07870
3267.13859	0.07839
3265.85282	0.07832
3264.56705	0.07849
3263.28128	0.07880
3261.99551	0.07924
3260.70974	0.07977
3259.42398	0.08022
3258.13821	0.08033
3256.85244	0.08003
3255.56667	0.07950
3254.28090	0.07899
3252.99513	0.07851
3251.70936	0.07800
3250.42359	0.07748
3249.13783	0.07720
3247.85206	0.07733
3246.56629	0.07780
3245.28052	0.07830
3243.99475	0.07853
3242.70898	0.07842
3241.42321	0.07812
3240.13744	0.07777
3238.85167	0.07737
3237.56591	0.07695
3236.28014	0.07669
3234.99437	0.07690
3233.70860	0.07763
3232.42283	0.07860
3231.13706	0.07930
3229.85129	0.07939
3228.56552	0.07890
3227.27976	0.07817
3225.99399	0.07755
3224.70822	0.07716
3223.42245	0.07696
3222.13668	0.07686
3220.85091	0.07681
3219.56514	0.07677
3218.27937	0.07663
3216.99360	0.07636
3215.70784	0.07604
3214.42207	0.07578
3213.13630	0.07560
3211.85053	0.07543
3210.56476	0.07530
3209.27899	0.07530
3207.99322	0.07545
3206.70745	0.07554
3205.42169	0.07535
3204.13592	0.07494
3202.85015	0.07462
3201.56438	0.07462
3200.27861	0.07490
3198.99284	0.07523
3197.70707	0.07545
3196.42130	0.07546
3195.13553	0.07520
3193.84977	0.07469
3192.56400	0.07406
3191.27823	0.07351
3189.99246	0.07321
3188.70669	0.07317
3187.42092	0.07338
3186.13515	0.07385
3184.84938	0.07448
3183.56362	0.07508
3182.27785	0.07549
3180.99208	0.07567
3179.70631	0.07569
3178.42054	0.07553
3177.13477	0.07520
3175.84900	0.07477
3174.56323	0.07432
3173.27746	0.07385
3171.99170	0.07341
3170.70593	0.07312
3169.42016	0.07302
3168.13439	0.07301
3166.84862	0.07291
3165.56285	0.07264
3164.27708	0.07231
3162.99131	0.07206
3161.70555	0.07189
3160.41978	0.07174
3159.13401	0.07155
3157.84824	0.07135
3156.56247	0.07122
3155.27670	0.07119
3153.99093	0.07125
3152.70516	0.07137
3151.41939	0.07147
3150.13363	0.07146
3148.84786	0.07128
3147.56209	0.07098
3146.27632	0.07075
3144.99055	0.07076
3143.70478	0.07101
3142.41901	0.07129
3141.13324	0.07134
3139.84748	0.07114
3138.56171	0.07088
3137.27594	0.07075
3135.99017	0.07080
3134.70440	0.07091
3133.41863	0.07090
3132.13286	0.07068
3130.84709	0.07034
3129.56132	0.07004
3128.27556	0.06985
3126.98979	0.06970
3125.70402	0.06951
3124.41825	0.06928
3123.13248	0.06906
3121.84671	0.06895
3120.56094	0.06900
3119.27517	0.06915
3117.98940	0.06917
3116.70364	0.06886
3115.41787	0.06831
3114.13210	0.06792
3112.84633	0.06798
3111.56056	0.06843
3110.27479	0.06887
3108.98902	0.06902
3107.70325	0.06890
3106.41749	0.06871
3105.13172	0.06857
3103.84595	0.06841
3102.56018	0.06814
3101.27441	0.06780
3099.98864	0.06754
3098.70287	0.06742
3097.41710	0.06736
3096.13133	0.06726
3094.84557	0.06717
3093.55980	0.06718
3092.27403	0.06720
3090.98826	0.06705
3089.70249	0.06666
3088.41672	0.06621
3087.13095	0.06592
3085.84518	0.06586
3084.55942	0.06591
3083.27365	0.06598
3081.98788	0.06610
3080.70211	0.06629
3079.41634	0.06654
3078.13057	0.06673
3076.84480	0.06677
3075.55903	0.06669
3074.27326	0.06658
3072.98750	0.06647
3071.70173	0.06632
3070.41596	0.06612
3069.13019	0.06592
3067.84442	0.06583
3066.55865	0.06593
3065.27288	0.06607
3063.98711	0.06602
3062.70135	0.06562
3061.41558	0.06498
3060.12981	0.06441
3058.84404	0.06414
3057.55827	0.06415
3056.27250	0.06425
3054.98673	0.06429
3053.70096	0.06423
3052.41519	0.06414
3051.12943	0.06405
3049.84366	0.06393
3048.55789	0.06372
3047.27212	0.06339
3045.98635	0.06298
3044.70058	0.06260
3043.41481	0.06238
3042.12904	0.06237
3040.84328	0.06250
3039.55751	0.06262
3038.27174	0.06259
3036.98597	0.06243
3035.70020	0.06225
3034.41443	0.06210
3033.12866	0.06196
3031.84289	0.06180
3030.55712	0.06171
3029.27136	0.06169
3027.98559	0.06165
3026.69982	0.06146
3025.41405	0.06115
3024.12828	0.06086
3022.84251	0.06072
3021.55674	0.06078
3020.27097	0.06096
3018.98521	0.06114
3017.69944	0.06123
3016.41367	0.06122
3015.12790	0.06115
3013.84213	0.06104
3012.55636	0.06095
3011.27059	0.06093
3009.98482	0.06098
3008.69905	0.06101
3007.41329	0.06088
3006.12752	0.06059
3004.84175	0.06029
3003.55598	0.06013
3002.27021	0.06012
3000.98444	0.06021
2999.69867	0.06036
2998.41290	0.06057
2997.12714	0.06071
2995.84137	0.06066
2994.55560	0.06044
2993.26983	0.06013
2991.98406	0.05985
2990.69829	0.05976
2989.41252	0.06001
2988.12675	0.06045
2986.84098	0.06079
2985.55522	0.06084
2984.26945	0.06074
2982.98368	0.06078
2981.69791	0.06107
2980.41214	0.06153
2979.12637	0.06199
2977.84060	0.06237
2976.55483	0.06273
2975.26907	0.06310
2973.98330	0.06350
2972.69753	0.06402
2971.41176	0.06480
2970.12599	0.06586
2968.84022	0.06715
2967.55445	0.06855
2966.26868	0.06995
2964.98291	0.07122
2963.69715	0.07221
2962.41138	0.07289
2961.12561	0.07337
2959.83984	0.07389
2958.55407	0.07465
2957.26830	0.07565
2955.98253	0.07669
2954.69676	0.07758
2953.41100	0.07820
2952.12523	0.07858
2950.83946	0.07875
2949.55369	0.07882
2948.26792	0.07887
2946.98215	0.07892
2945.69638	0.07883
2944.41061	0.07856
2943.12484	0.07819
2941.83908	0.07791
2940.55331	0.07792
2939.26754	0.07826
2937.98177	0.07889
2936.69600	0.07966
2935.41023	0.08048
2934.12446	0.08136
2932.83869	0.08227
2931.55293	0.08309
2930.26716	0.08372
2928.98139	0.08420
2927.69562	0.08465
2926.40985	0.08511
2925.12408	0.08548
2923.83831	0.08559
2922.55254	0.08536
2921.26677	0.08480
2919.98101	0.08404
2918.69524	0.08319
2917.40947	0.08231
2916.12370	0.08144
2914.83793	0.08062
2913.55216	0.07992
2912.26639	0.07936
2910.98062	0.07890
2909.69486	0.07843
2908.40909	0.07782
2907.12332	0.07701
2905.83755	0.07606
2904.55178	0.07512
2903.26601	0.07434
2901.98024	0.07376
2900.69447	0.07336
2899.40870	0.07307
2898.12294	0.07277
2896.83717	0.07232
2895.55140	0.07163
2894.26563	0.07082
2892.97986	0.07006
2891.69409	0.06939
2890.40832	0.06880
2889.12255	0.06829
2887.83678	0.06787
2886.55102	0.06755
2885.26525	0.06732
2883.97948	0.06712
2882.69371	0.06692
2881.40794	0.06675
2880.12217	0.06665
2878.83640	0.06664
2877.55063	0.06676
2876.26487	0.06702
2874.97910	0.06745
2873.69333	0.06796
2872.40756	0.06840
2871.12179	0.06869
2869.83602	0.06892
2868.55025	0.06916
2867.26448	0.06934
2865.97871	0.06933
2864.69295	0.06913
2863.40718	0.06884
2862.12141	0.06858
2860.83564	0.06836
2859.54987	0.06816
2858.26410	0.06802
2856.97833	0.06799
2855.69256	0.06800
2854.40680	0.06792
2853.12103	0.06763
2851.83526	0.06708
2850.54949	0.06632
2849.26372	0.06541
2847.97795	0.06446
2846.69218	0.06357
2845.40641	0.06287
2844.12064	0.06241
2842.83488	0.06204
2841.54911	0.06145
2840.26334	0.06055
2838.97757	0.05952
2837.69180	0.05864
2836.40603	0.05799
2835.12026	0.05739
2833.83449	0.05671
2832.54873	0.05598
2831.26296	0.05533
2829.97719	0.05481
2828.69142	0.05436
2827.40565	0.05392
2826.11988	0.05352
2824.83411	0.05320
2823.54834	0.05291
2822.26257	0.05257
2820.97681	0.05218
2819.69104	0.05180
2818.40527	0.05152
2817.11950	0.05137
2815.83373	0.05127
2814.54796	0.05111
2813.26219	0.05081
2811.97642	0.05042
2810.69066	0.05008
2809.40489	0.04992
2808.11912	0.04998
2806.83335	0.05011
2805.54758	0.05013
2804.26181	0.04996
2802.97604	0.04969
2801.69027	0.04947
2800.40450	0.04935
2799.11874	0.04928
2797.83297	0.04917
2796.54720	0.04904
2795.26143	0.04889
2793.97566	0.04866
2792.68989	0.04827
2791.40412	0.04779
2790.11835	0.04737
2788.83259	0.04711
2787.54682	0.04700
2786.26105	0.04702
2784.97528	0.04717
2783.68951	0.04745
2782.40374	0.04777
2781.11797	0.04795
2779.83220	0.04789
2778.54643	0.04764
2777.26067	0.04734
2775.97490	0.04711
2774.68913	0.04693
2773.40336	0.04672
2772.11759	0.04646
2770.83182	0.04630
2769.54605	0.04636
2768.26028	0.04656
2766.97452	0.04667
2765.68875	0.04660
2764.40298	0.04641
2763.11721	0.04621
2761.83144	0.04598
2760.54567	0.04569
2759.25990	0.04540
2757.97413	0.04525
2756.68836	0.04530
2755.40260	0.04545
2754.11683	0.04560
2752.83106	0.04567
2751.54529	0.04566
2750.25952	0.04558
2748.97375	0.04554
2747.68798	0.04555
2746.40221	0.04551
2745.11645	0.04530
2743.83068	0.04493
2742.54491	0.04458
2741.25914	0.04446
2739.97337	0.04460
2738.68760	0.04487
2737.40183	0.04504
2736.11606	0.04497
2734.83029	0.04471
2733.54453	0.04445
2732.25876	0.04433
2730.97299	0.04436
2729.68722	0.04442
2728.40145	0.04439
2727.11568	0.04421
2725.82991	0.04387
2724.54414	0.04349
2723.25838	0.04325
2721.97261	0.04328
2720.68684	0.04356
2719.40107	0.04392
2718.11530	0.04413
2716.82953	0.04414
2715.54376	0.04402
2714.25799	0.04384
2712.97222	0.04361
2711.68646	0.04335
2710.40069	0.04312
2709.11492	0.04301
2707.82915	0.04301
2706.54338	0.04303
2705.25761	0.04296
2703.97184	0.04277
2702.68607	0.04255
2701.40031	0.04239
2700.11454	0.04230
2698.82877	0.04226
2697.54300	0.04229
2696.25723	0.04245
2694.97146	0.04267
2693.68569	0.04283
2692.39992	0.04281
2691.11415	0.04264
2689.82839	0.04239
2688.54262	0.04213
2687.25685	0.04194
2685.97108	0.04186
2684.68531	0.04188
2683.39954	0.04189
2682.11377	0.04180
2680.82800	0.04167
2679.54224	0.04161
2678.25647	0.04159
2676.97070	0.04147
2675.68493	0.04125
2674.39916	0.04108
2673.11339	0.04108
2671.82762	0.04118
2670.54185	0.04127
2669.25608	0.04132
2667.97032	0.04135
2666.68455	0.04136
2665.39878	0.04134
2664.11301	0.04129
2662.82724	0.04119
2661.54147	0.04103
2660.25570	0.04078
2658.96993	0.04046
2657.68417	0.04011
2656.39840	0.03982
2655.11263	0.03966
2653.82686	0.03963
2652.54109	0.03964
2651.25532	0.03959
2649.96955	0.03945
2648.68378	0.03932
2647.39801	0.03930
2646.11225	0.03940
2644.82648	0.03949
2643.54071	0.03947
2642.25494	0.03936
2640.96917	0.03921
2639.68340	0.03900
2638.39763	0.03868
2637.11186	0.03831
2635.82609	0.03804
2634.54033	0.03793
2633.25456	0.03797
2631.96879	0.03811
2630.68302	0.03832
2629.39725	0.03849
2628.11148	0.03840
2626.82571	0.03793
2625.53994	0.03724
2624.25418	0.03669
2622.96841	0.03650
2621.68264	0.03667
2620.39687	0.03694
2619.11110	0.03706
2617.82533	0.03689
2616.53956	0.03646
2615.25379	0.03591
2613.96802	0.03536
2612.68226	0.03499
2611.39649	0.03495
2610.11072	0.03522
2608.82495	0.03557
2607.53918	0.03569
2606.25341	0.03550
2604.96764	0.03518
2603.68187	0.03494
2602.39611	0.03489
2601.11034	0.03500
2599.82457	0.03513
2598.53880	0.03515
2597.25303	0.03512
2595.96726	0.03511
2594.68149	0.03514
2593.39572	0.03509
2592.10995	0.03486
2590.82419	0.03443
2589.53842	0.03393
2588.25265	0.03360
2586.96688	0.03362
2585.68111	0.03388
2584.39534	0.03404
2583.10957	0.03386
2581.82380	0.03344
2580.53804	0.03316
2579.25227	0.03326
2577.96650	0.03367
2576.68073	0.03407
2575.39496	0.03417
2574.10919	0.03391
2572.82342	0.03347
2571.53765	0.03309
2570.25188	0.03290
2568.96612	0.03287
2567.68035	0.03286
2566.39458	0.03278
2565.10881	0.03263
2563.82304	0.03244
2562.53727	0.03222
2561.25150	0.03192
2559.96573	0.03157
2558.67997	0.03128
2557.39420	0.03116
2556.10843	0.03120
2554.82266	0.03130
2553.53689	0.03144
2552.25112	0.03171
2550.96535	0.03209
2549.67958	0.03231
2548.39381	0.03212
2547.10805	0.03164
2545.82228	0.03131
2544.53651	0.03144
2543.25074	0.03195
2541.96497	0.03252
2540.67920	0.03290
2539.39343	0.03298
2538.10766	0.03269
2536.82190	0.03210
2535.53613	0.03149
2534.25036	0.03113
2532.96459	0.03102
2531.67882	0.03087
2530.39305	0.03049
2529.10728	0.03013
2527.82151	0.03014
2526.53574	0.03058
2525.24998	0.03113
2523.96421	0.03145
2522.67844	0.03149
2521.39267	0.03133
2520.10690	0.03102
2518.82113	0.03062
2517.53536	0.03029
2516.24959	0.03019
2514.96383	0.03025
2513.67806	0.03025
2512.39229	0.03007
2511.10652	0.02983
2509.82075	0.02971
2508.53498	0.02979
2507.24921	0.02999
2505.96344	0.03016
2504.67767	0.03020
2503.39191	0.03010
2502.10614	0.02992
2500.82037	0.02980
2499.53460	0.02982
2498.24883	0.03001
2496.96306	0.03025
2495.67729	0.03030
2494.39152	0.03011
2493.10576	0.02984
2491.81999	0.02967
2490.53422	0.02965
2489.24845	0.02970
2487.96268	0.02977
2486.67691	0.02991
2485.39114	0.03012
2484.10537	0.03029
2482.81960	0.03030
2481.53384	0.03019
2480.24807	0.03011
2478.96230	0.03016
2477.67653	0.03027
2476.39076	0.03026
2475.10499	0.03000
2473.81922	0.02957
2472.53345	0.02919
2471.24769	0.02910
2469.96192	0.02930
2468.67615	0.02956
2467.39038	0.02965
2466.10461	0.02953
2464.81884	0.02936
2463.53307	0.02931
2462.24730	0.02944
2460.96153	0.02966
2459.67577	0.02985
2458.39000	0.02990
2457.10423	0.02982
2455.81846	0.02970
2454.53269	0.02958
2453.24692	0.02944
2451.96115	0.02929
2450.67538	0.02915
2449.38962	0.02902
2448.10385	0.02892
2446.81808	0.02893
2445.53231	0.02904
2444.24654	0.02906
2442.96077	0.02880
2441.67500	0.02834
2440.38923	0.02797
2439.10346	0.02790
2437.81770	0.02806
2436.53193	0.02822
2435.24616	0.02827
2433.96039	0.02824
2432.67462	0.02818
2431.38885	0.02812
2430.10308	0.02811
2428.81731	0.02819
2427.53155	0.02832
2426.24578	0.02835
2424.96001	0.02823
2423.67424	0.02806
2422.38847	0.02801
2421.10270	0.02813
2419.81693	0.02828
2418.53116	0.02831
2417.24539	0.02822
2415.95963	0.02817
2414.67386	0.02829
2413.38809	0.02846
2412.10232	0.02844
2410.81655	0.02819
2409.53078	0.02787
2408.24501	0.02765
2406.95924	0.02752
2405.67347	0.02744
2404.38771	0.02741
2403.10194	0.02742
2401.81617	0.02744
2400.53040	0.02745
2399.24463	0.02752
2397.95886	0.02765
2396.67309	0.02780
2395.38732	0.02793
2394.10156	0.02801
2392.81579	0.02804
2391.53002	0.02805
2390.24425	0.02804
2388.95848	0.02800
2387.67271	0.02788
2386.38694	0.02767
2385.10117	0.02748
2383.81540	0.02744
2382.52964	0.02756
2381.24387	0.02768
2379.95810	0.02759
2378.67233	0.02723
2377.38656	0.02676
2376.10079	0.02635
2374.81502	0.02604
2373.52925	0.02582
2372.24349	0.02564
2370.95772	0.02554
2369.67195	0.02546
2368.38618	0.02529
2367.10041	0.02501
2365.81464	0.02471
2364.52887	0.02453
2363.24310	0.02448
2361.95733	0.02449
2360.67157	0.02451
2359.38580	0.02456
2358.10003	0.02471
2356.81426	0.02504
2355.52849	0.02554
2354.24272	0.02614
2352.95695	0.02671
2351.67118	0.02708
2350.38542	0.02719
2349.09965	0.02708
2347.81388	0.02685
2346.52811	0.02659
2345.24234	0.02635
2343.95657	0.02610
2342.67080	0.02584
2341.38503	0.02560
2340.09926	0.02547
2338.81350	0.02548
2337.52773	0.02558
2336.24196	0.02568
2334.95619	0.02572
2333.67042	0.02567
2332.38465	0.02554
2331.09888	0.02537
2329.81311	0.02526
2328.52735	0.02536
2327.24158	0.02578
2325.95581	0.02640
2324.67004	0.02697
2323.38427	0.02729
2322.09850	0.02737
2320.81273	0.02735
2319.52696	0.02734
2318.24119	0.02735
2316.95543	0.02735
2315.66966	0.02737
2314.38389	0.02741
2313.09812	0.02748
2311.81235	0.02755
2310.52658	0.02759
2309.24081	0.02753
2307.95504	0.02735
2306.66928	0.02701
2305.38351	0.02656
2304.09774	0.02609
2302.81197	0.02572
2301.52620	0.02554
2300.24043	0.02556
2298.95466	0.02569
2297.66889	0.02581
2296.38312	0.02586
2295.09736	0.02588
2293.81159	0.02593
2292.52582	0.02601
2291.24005	0.02610
2289.95428	0.02617
2288.66851	0.02623
2287.38274	0.02623
2286.09697	0.02608
2284.81121	0.02578
2283.52544	0.02550
2282.23967	0.02542
2280.95390	0.02547
2279.66813	0.02536
2278.38236	0.02488
2277.09659	0.02414
2275.81082	0.02346
2274.52505	0.02302
2273.23929	0.02275
2271.95352	0.02251
2270.66775	0.02227
2269.38198	0.02214
2268.09621	0.02228
2266.81044	0.02264
2265.52467	0.02300
2264.23890	0.02315
2262.95314	0.02305
2261.66737	0.02284
2260.38160	0.02267
2259.09583	0.02260
2257.81006	0.02250
2256.52429	0.02212
2255.23852	0.02132
2253.95275	0.02036
2252.66698	0.01973
2251.38122	0.01977
2250.09545	0.02042
2248.80968	0.02133
2247.52391	0.02183
2246.23814	0.02202
2244.95237	0.02194
2243.66660	0.02157
2242.38083	0.02082
2241.09507	0.01976
2239.80930	0.01879
2238.52353	0.01844
2237.23776	0.01875
2235.95199	0.01918
2234.66622	0.01919
2233.38045	0.01875
2232.09468	0.01825
2230.80891	0.01802
2229.52315	0.01815
2228.23738	0.01851
2226.95161	0.01890
2225.66584	0.01908
2224.38007	0.01889
2223.09430	0.01848
2221.80853	0.01819
2220.52276	0.01817
2219.23700	0.01823
2217.95123	0.01812
2216.66546	0.01778
2215.37969	0.01732
2214.09392	0.01693
2212.80815	0.01673
2211.52238	0.01672
2210.23661	0.01662
2208.95084	0.01620
2207.66508	0.01562
2206.37931	0.01525
2205.09354	0.01523
2203.80777	0.01541
2202.52200	0.01567
2201.23623	0.01613
2199.95046	0.01674
2198.66469	0.01707
2197.37893	0.01670
2196.09316	0.01567
2194.80739	0.01456
2193.52162	0.01391
2192.23585	0.01375
2190.95008	0.01373
2189.66431	0.01375
2188.37854	0.01398
2187.09277	0.01441
2185.80701	0.01467
2184.52124	0.01442
2183.23547	0.01374
2181.94970	0.01288
2180.66393	0.01192
2179.37816	0.01084
2178.09239	0.00985
2176.80662	0.00948
2175.52085	0.01000
2174.23509	0.01112
2172.94932	0.01222
2171.66355	0.01282
2170.37778	0.01273
2169.09201	0.01204
2167.80624	0.01116
2166.52047	0.01074
2165.23470	0.01104
2163.94894	0.01160
2162.66317	0.01168
2161.37740	0.01103
2160.09163	0.01005
2158.80586	0.00945
2157.52009	0.00957
2156.23432	0.01016
2154.94855	0.01060
2153.66278	0.01056
2152.37702	0.01020
2151.09125	0.00987
2149.80548	0.00970
2148.51971	0.00966
2147.23394	0.00977
2145.94817	0.01014
2144.66240	0.01076
2143.37663	0.01142
2142.09087	0.01184
2140.80510	0.01182
2139.51933	0.01145
2138.23356	0.01094
2136.94779	0.01052
2135.66202	0.01035
2134.37625	0.01062
2133.09048	0.01137
2131.80471	0.01225
2130.51895	0.01272
2129.23318	0.01255
2127.94741	0.01208
2126.66164	0.01186
2125.37587	0.01215
2124.09010	0.01276
2122.80433	0.01335
2121.51856	0.01386
2120.23280	0.01443
2118.94703	0.01513
2117.66126	0.01576
2116.37549	0.01607
2115.08972	0.01601
2113.80395	0.01583
2112.51818	0.01574
2111.23241	0.01570
2109.94664	0.01549
2108.66088	0.01512
2107.37511	0.01482
2106.08934	0.01475
2104.80357	0.01478
2103.51780	0.01474
2102.23203	0.01466
2100.94626	0.01469
2099.66049	0.01487
2098.37473	0.01465
2097.08896	0.01408
2095.80319	0.01359
2094.51742	0.01348
2093.23165	0.01373
2091.94588	0.01407
2090.66011	0.01422
2089.37434	0.01400
2088.08857	0.01345
2086.80281	0.01281
2085.51704	0.01245
2084.23127	0.01255
2082.94550	0.01298
2081.65973	0.01343
2080.37396	0.01361
2079.08819	0.01337
2077.80242	0.01279
2076.51666	0.01222
2075.23089	0.01196
2073.94512	0.01205
2072.65935	0.01223
2071.37358	0.01231
2070.08781	0.01228
2068.80204	0.01222
2067.51627	0.01216
2066.23050	0.01214
2064.94474	0.01217
2063.65897	0.01219
2062.37320	0.01204
2061.08743	0.01156
2059.80166	0.01085
2058.51589	0.01015
2057.23012	0.00966
2055.94435	0.00943
2054.65859	0.00950
2053.37282	0.00979
2052.08705	0.01004
2050.80128	0.01004
2049.51551	0.00987
2048.22974	0.00983
2046.94397	0.00996
2045.65820	0.00996
2044.37243	0.00955
2043.08667	0.00873
2041.80090	0.00769
2040.51513	0.00653
2039.22936	0.00528
2037.94359	0.00414
2036.65782	0.00360
2035.37205	0.00401
2034.08628	0.00513
2032.80052	0.00627
2031.51475	0.00700
2030.22898	0.00743
2028.94321	0.00784
2027.65744	0.00820
2026.37167	0.00823
2025.08590	0.00772
2023.80013	0.00679
2022.51436	0.00588
2021.22860	0.00548
2019.94283	0.00569
2018.65706	0.00606
2017.37129	0.00593
2016.08552	0.00504
2014.79975	0.00389
2013.51398	0.00325
2012.22821	0.00350
2010.94245	0.00438
2009.65668	0.00527
2008.37091	0.00582
2007.08514	0.00612
2005.79937	0.00651
2004.51360	0.00718
2003.22783	0.00810
2001.94206	0.00909
2000.65629	0.01000
1999.37053	0.01070
1998.08476	0.01113
1996.79899	0.01126
1995.51322	0.01126
1994.22745	0.01135
1992.94168	0.01163
1991.65591	0.01191
1990.37014	0.01186
1989.08438	0.01134
1987.79861	0.01054
1986.51284	0.00987
1985.22707	0.00965
1983.94130	0.00994
1982.65553	0.01063
1981.36976	0.01140
1980.08399	0.01182
1978.79822	0.01166
1977.51246	0.01112
1976.22669	0.01058
1974.94092	0.01026
1973.65515	0.01017
1972.36938	0.01035
1971.08361	0.01072
1969.79784	0.01101
1968.51207	0.01107
1967.22631	0.01104
1965.94054	0.01107
1964.65477	0.01096
1963.36900	0.01048
1962.08323	0.00975
1960.79746	0.00924
1959.51169	0.00933
1958.22592	0.01004
1956.94015	0.01111
1955.65439	0.01221
1954.36862	0.01305
1953.08285	0.01344
1951.79708	0.01340
1950.51131	0.01318
1949.22554	0.01314
1947.93977	0.01353
1946.65400	0.01425
1945.36823	0.01497
1944.08247	0.01533
1942.79670	0.01527
1941.51093	0.01502
1940.22516	0.01483
1938.93939	0.01464
1937.65362	0.01420
1936.36785	0.01343
1935.08208	0.01263
1933.79632	0.01216
1932.51055	0.01215
1931.22478	0.01253
1929.93901	0.01311
1928.65324	0.01372
1927.36747	0.01425
1926.08170	0.01466
1924.79593	0.01495
1923.51016	0.01513
1922.22440	0.01515
1920.93863	0.01500
1919.65286	0.01474
1918.36709	0.01443
1917.08132	0.01418
1915.79555	0.01408
1914.50978	0.01420
1913.22401	0.01452
1911.93825	0.01495
1910.65248	0.01532
1909.36671	0.01547
1908.08094	0.01542
1906.79517	0.01541
1905.50940	0.01563
1904.22363	0.01599
1902.93786	0.01620
1901.65209	0.01612
1900.36633	0.01589
1899.08056	0.01572
1897.79479	0.01571
1896.50902	0.01580
1895.22325	0.01588
1893.93748	0.01592
1892.65171	0.01592
1891.36594	0.01593
1890.08018	0.01592
1888.79441	0.01588
1887.50864	0.01580
1886.22287	0.01569
1884.93710	0.01559
1883.65133	0.01558
1882.36556	0.01566
1881.07979	0.01581
1879.79402	0.01591
1878.50826	0.01587
1877.22249	0.01569
1875.93672	0.01550
1874.65095	0.01540
1873.36518	0.01545
1872.07941	0.01559
1870.79364	0.01570
1869.50787	0.01568
1868.22211	0.01554
1866.93634	0.01537
1865.65057	0.01524
1864.36480	0.01518
1863.07903	0.01516
1861.79326	0.01519
1860.50749	0.01531
1859.22172	0.01553
1857.93595	0.01576
1856.65019	0.01586
1855.36442	0.01579
1854.07865	0.01563
1852.79288	0.01553
1851.50711	0.01553
1850.22134	0.01561
1848.93557	0.01570
1847.64980	0.01575
1846.36404	0.01575
1845.07827	0.01575
1843.79250	0.01580
1842.50673	0.01588
1841.22096	0.01588
1839.93519	0.01573
1838.64942	0.01545
1837.36365	0.01524
1836.07788	0.01524
1834.79212	0.01545
1833.50635	0.01574
1832.22058	0.01598
1830.93481	0.01611
1829.64904	0.01617
1828.36327	0.01623
1827.07750	0.01629
1825.79173	0.01634
1824.50597	0.01635
1823.22020	0.01635
1821.93443	0.01635
1820.64866	0.01634
1819.36289	0.01632
1818.07712	0.01629
1816.79135	0.01627
1815.50558	0.01629
1814.21981	0.01635
1812.93405	0.01640
1811.64828	0.01641
1810.36251	0.01639
1809.07674	0.01639
1807.79097	0.01645
1806.50520	0.01653
1805.21943	0.01656
1803.93366	0.01648
1802.64790	0.01634
1801.36213	0.01623
1800.07636	0.01625
1798.79059	0.01639
1797.50482	0.01657
1796.21905	0.01669
1794.93328	0.01674
1793.64751	0.01679
1792.36174	0.01691
1791.07598	0.01709
1789.79021	0.01729
1788.50444	0.01744
1787.21867	0.01753
1785.93290	0.01753
1784.64713	0.01742
1783.36136	0.01723
1782.07559	0.01705
1780.78983	0.01697
1779.50406	0.01704
1778.21829	0.01721
1776.93252	0.01736
1775.64675	0.01738
1774.36098	0.01731
1773.07521	0.01726
1771.78944	0.01734
1770.50367	0.01756
1769.21791	0.01784
1767.93214	0.01807
1766.64637	0.01822
1765.36060	0.01827
1764.07483	0.01827
1762.78906	0.01826
1761.50329	0.01825
1760.21752	0.01825
1758.93176	0.01823
1757.64599	0.01823
1756.36022	0.01827
1755.07445	0.01835
1753.78868	0.01839
1752.50291	0.01837
1751.21714	0.01832
1749.93137	0.01833
1748.64560	0.01845
1747.35984	0.01865
1746.07407	0.01884
1744.78830	0.01892
1743.50253	0.01892
1742.21676	0.01891
1740.93099	0.01899
1739.64522	0.01920
1738.35945	0.01946
1737.07369	0.01966
1735.78792	0.01973
1734.50215	0.01975
1733.21638	0.01983
1731.93061	0.02000
1730.64484	0.02019
1729.35907	0.02033
1728.07330	0.02044
1726.78753	0.02057
1725.50177	0.02076
1724.21600	0.02098
1722.93023	0.02118
1721.64446	0.02131
1720.35869	0.02139
1719.07292	0.02149
1717.78715	0.02169
1716.50138	0.02198
1715.21561	0.02232
1713.92985	0.02265
1712.64408	0.02299
1711.35831	0.02335
1710.07254	0.02372
1708.78677	0.02406
1707.50100	0.02433
1706.21523	0.02453
1704.92946	0.02469
1703.64370	0.02485
1702.35793	0.02508
1701.07216	0.02540
1699.78639	0.02579
1698.50062	0.02621
1697.21485	0.02663
1695.92908	0.02708
1694.64331	0.02755
1693.35754	0.02800
1692.07178	0.02834
1690.78601	0.02857
1689.50024	0.02873
1688.21447	0.02888
1686.92870	0.02902
1685.64293	0.02921
1684.35716	0.02947
1683.07139	0.02981
1681.78563	0.03022
1680.49986	0.03065
1679.21409	0.03108
1677.92832	0.03148
1676.64255	0.03185
1675.35678	0.03220
1674.07101	0.03250
1672.78524	0.03272
1671.49947	0.03288
1670.21371	0.03304
1668.92794	0.03328
1667.64217	0.03361
1666.35640	0.03399
1665.07063	0.03436
1663.78486	0.03470
1662.49909	0.03506
1661.21332	0.03541
1659.92756	0.03576
1658.64179	0.03606
1657.35602	0.03629
1656.07025	0.03642
1654.78448	0.03647
1653.49871	0.03654
1652.21294	0.03671
1650.92717	0.03697
1649.64140	0.03723
1648.35564	0.03745
1647.06987	0.03764
1645.78410	0.03781
1644.49833	0.03797
1643.21256	0.03810
1641.92679	0.03821
1640.64102	0.03830
1639.35525	0.03837
1638.06949	0.03842
1636.78372	0.03846
1635.49795	0.03854
1634.21218	0.03868
1632.92641	0.03886
1631.64064	0.03904
1630.35487	0.03921
1629.06910	0.03933
1627.78333	0.03940
1626.49757	0.03944
1625.21180	0.03949
1623.92603	0.03958
1622.64026	0.03973
1621.35449	0.03986
1620.06872	0.03994
1618.78295	0.03999
1617.49718	0.04011
1616.21142	0.04034
1614.92565	0.04067
1613.63988	0.04098
1612.35411	0.04122
1611.06834	0.04139
1609.78257	0.04156
1608.49680	0.04177
1607.21103	0.04204
1605.92526	0.04233
1604.63950	0.04263
1603.35373	0.04295
1602.06796	0.04327
1600.78219	0.04359
1599.49642	0.04386
1598.21065	0.04407
1596.92488	0.04423
1595.63911	0.04439
1594.35335	0.04458
1593.06758	0.04483
1591.78181	0.04514
1590.49604	0.04546
1589.21027	0.04575
1587.92450	0.04601
1586.63873	0.04627
1585.35296	0.04654
1584.06719	0.04684
1582.78143	0.04715
1581.49566	0.04747
1580.20989	0.04777
1578.92412	0.04803
1577.63835	0.04831
1576.35258	0.04867
1575.06681	0.04912
1573.78104	0.04963
1572.49528	0.05014
1571.20951	0.05064
1569.92374	0.05116
1568.63797	0.05169
1567.35220	0.05220
1566.06643	0.05263
1564.78066	0.05296
1563.49489	0.05320
1562.20912	0.05338
1560.92336	0.05359
1559.63759	0.05390
1558.35182	0.05433
1557.06605	0.05483
1555.78028	0.05532
1554.49451	0.05576
1553.20874	0.05615
1551.92297	0.05648
1550.63721	0.05672
1549.35144	0.05684
1548.06567	0.05684
1546.77990	0.05671
1545.49413	0.05648
1544.20836	0.05614
1542.92259	0.05575
1541.63682	0.05538
1540.35105	0.05514
1539.06529	0.05507
1537.77952	0.05510
1536.49375	0.05513
1535.20798	0.05515
1533.92221	0.05522
1532.63644	0.05539
1531.35067	0.05561
1530.06490	0.05584
1528.77914	0.05605
1527.49337	0.05628
1526.20760	0.05658
1524.92183	0.05698
1523.63606	0.05749
1522.35029	0.05817
1521.06452	0.05902
1519.77875	0.06000
1518.49298	0.06107
1517.20722	0.06222
1515.92145	0.06350
1514.63568	0.06490
1513.34991	0.06634
1512.06414	0.06772
1510.77837	0.06903
1509.49260	0.07031
1508.20683	0.07166
1506.92107	0.07317
1505.63530	0.07482
1504.34953	0.07647
1503.06376	0.07795
1501.77799	0.07918
1500.49222	0.08022
1499.20645	0.08119
1497.92068	0.08218
1496.63491	0.08317
1495.34915	0.08411
1494.06338	0.08499
1492.77761	0.08581
1491.49184	0.08666
1490.20607	0.08764
1488.92030	0.08880
1487.63453	0.09014
1486.34876	0.09158
1485.06299	0.09302
1483.77723	0.09444
1482.49146	0.09585
1481.20569	0.09727
1479.91992	0.09869
1478.63415	0.10008
1477.34838	0.10143
1476.06261	0.10273
1474.77684	0.10398
1473.49108	0.10517
1472.20531	0.10627
1470.91954	0.10727
1469.63377	0.10816
1468.34800	0.10893
1467.06223	0.10958
1465.77646	0.11016
1464.49069	0.11072
1463.20492	0.11131
1461.91916	0.11193
1460.63339	0.11257
1459.34762	0.11322
1458.06185	0.11387
1456.77608	0.11452
1455.49031	0.11515
1454.20454	0.11569
1452.91877	0.11613
1451.63301	0.11647
1450.34724	0.11672
1449.06147	0.11685
1447.77570	0.11683
1446.48993	0.11662
1445.20416	0.11624
1443.91839	0.11573
1442.63262	0.11516
1441.34685	0.11458
1440.06109	0.11401
1438.77532	0.11352
1437.48955	0.11321
1436.20378	0.11320
1434.91801	0.11352
1433.63224	0.11416
1432.34647	0.11507
1431.06070	0.11627
1429.77494	0.11776
1428.48917	0.11951
1427.20340	0.12145
1425.91763	0.12344
1424.63186	0.12540
1423.34609	0.12726
1422.06032	0.12901
1420.77455	0.13069
1419.48878	0.13232
1418.20302	0.13383
1416.91725	0.13512
1415.63148	0.13611
1414.34571	0.13678
1413.05994	0.13714
1411.77417	0.13719
1410.48840	0.13693
1409.20263	0.13633
1407.91687	0.13538
1406.63110	0.13404
1405.34533	0.13237
1404.05956	0.13044
1402.77379	0.12834
1401.48802	0.12606
1400.20225	0.12359
1398.91648	0.12093
1397.63071	0.11816
1396.34495	0.11533
1395.05918	0.11248
1393.77341	0.10962
1392.48764	0.10677
1391.20187	0.10394
1389.91610	0.10117
1388.63033	0.09847
1387.34456	0.09586
1386.05880	0.09331
1384.77303	0.09080
1383.48726	0.08835
1382.20149	0.08598
1380.91572	0.08370
1379.62995	0.08144
1378.34418	0.07912
1377.05841	0.07667
1375.77264	0.07411
1374.48688	0.07146
1373.20111	0.06879
1371.91534	0.06617
1370.62957	0.06370
1369.34380	0.06142
1368.05803	0.05934
1366.77226	0.05741
1365.48649	0.05561
1364.20073	0.05387
1362.91496	0.05218
1361.62919	0.05053
1360.34342	0.04896
1359.05765	0.04752
1357.77188	0.04624
1356.48611	0.04512
1355.20034	0.04411
1353.91457	0.04318
1352.62881	0.04227
1351.34304	0.04136
1350.05727	0.04051
1348.77150	0.03977
1347.48573	0.03911
1346.19996	0.03847
1344.91419	0.03781
1343.62842	0.03712
1342.34266	0.03646
1341.05689	0.03588
1339.77112	0.03539
1338.48535	0.03496
1337.19958	0.03455
1335.91381	0.03417
1334.62804	0.03379
1333.34227	0.03343
1332.05650	0.03307
1330.77074	0.03272
1329.48497	0.03240
1328.19920	0.03212
1326.91343	0.03187
1325.62766	0.03165
1324.34189	0.03146
1323.05612	0.03130
1321.77035	0.03113
1320.48459	0.03092
1319.19882	0.03066
1317.91305	0.03036
1316.62728	0.03007
1315.34151	0.02978
1314.05574	0.02951
1312.76997	0.02926
1311.48420	0.02905
1310.19843	0.02887
1308.91267	0.02870
1307.62690	0.02855
1306.34113	0.02841
1305.05536	0.02827
1303.76959	0.02810
1302.48382	0.02789
1301.19805	0.02769
1299.91228	0.02752
1298.62652	0.02737
1297.34075	0.02722
1296.05498	0.02705
1294.76921	0.02687
1293.48344	0.02670
1292.19767	0.02656
1290.91190	0.02642
1289.62613	0.02630
1288.34036	0.02618
1287.05460	0.02603
1285.76883	0.02583
1284.48306	0.02558
1283.19729	0.02535
1281.91152	0.02518
1280.62575	0.02507
1279.33998	0.02498
1278.05421	0.02488
1276.76845	0.02477
1275.48268	0.02465
1274.19691	0.02451
1272.91114	0.02434
1271.62537	0.02415
1270.33960	0.02395
1269.05383	0.02381
1267.76806	0.02375
1266.48229	0.02375
1265.19653	0.02376
1263.91076	0.02373
1262.62499	0.02361
1261.33922	0.02345
1260.05345	0.02326
1258.76768	0.02307
1257.48191	0.02291
1256.19614	0.02281
1254.91037	0.02273
1253.62461	0.02267
1252.33884	0.02259
1251.05307	0.02247
1249.76730	0.02232
1248.48153	0.02213
1247.19576	0.02197
1245.90999	0.02187
1244.62422	0.02184
1243.33846	0.02184
1242.05269	0.02182
1240.76692	0.02175
1239.48115	0.02162
1238.19538	0.02147
1236.90961	0.02135
1235.62384	0.02130
1234.33807	0.02129
1233.05230	0.02127
1231.76654	0.02117
1230.48077	0.02101
1229.19500	0.02082
1227.90923	0.02066
1226.62346	0.02056
1225.33769	0.02049
1224.05192	0.02041
1222.76615	0.02030
1221.48039	0.02015
1220.19462	0.02002
1218.90885	0.01992
1217.62308	0.01985
1216.33731	0.01978
1215.05154	0.01972
1213.76577	0.01970
1212.48000	0.01970
1211.19423	0.01971
1209.90847	0.01968
1208.62270	0.01960
1207.33693	0.01951
1206.05116	0.01942
1204.76539	0.01934
1203.47962	0.01931
1202.19385	0.01933
1200.90808	0.01937
1199.62232	0.01936
1198.33655	0.01934
1197.05078	0.01928
1195.76501	0.01921
1194.47924	0.01916
1193.19347	0.01916
1191.90770	0.01922
1190.62193	0.01932
1189.33616	0.01941
1188.05040	0.01947
1186.76463	0.01951
1185.47886	0.01956
1184.19309	0.01963
1182.90732	0.01972
1181.62155	0.01981
1180.33578	0.01988
1179.05001	0.01995
1177.76425	0.02001
1176.47848	0.02007
1175.19271	0.02015
1173.90694	0.02028
1172.62117	0.02045
1171.33540	0.02061
1170.04963	0.02075
1168.76386	0.02089
1167.47809	0.02107
1166.19233	0.02133
1164.90656	0.02164
1163.62079	0.02196
1162.33502	0.02228
1161.04925	0.02262
1159.76348	0.02298
1158.47771	0.02335
1157.19194	0.02373
1155.90618	0.02415
1154.62041	0.02459
1153.33464	0.02508
1152.04887	0.02561
1150.76310	0.02620
1149.47733	0.02683
1148.19156	0.02746
1146.90579	0.02815
1145.62002	0.02895
1144.33426	0.02989
1143.04849	0.03092
1141.76272	0.03200
1140.47695	0.03316
1139.19118	0.03443
1137.90541	0.03581
1136.61964	0.03732
1135.33387	0.03900
1134.04811	0.04086
1132.76234	0.04289
1131.47657	0.04516
1130.19080	0.04775
1128.90503	0.05074
1127.61926	0.05410
1126.33349	0.05772
1125.04772	0.06148
1123.76195	0.06532
1122.47619	0.06927
1121.19042	0.07333
1119.90465	0.07750
1118.61888	0.08181
1117.33311	0.08626
1116.04734	0.09081
1114.76157	0.09532
1113.47580	0.09972
1112.19004	0.10404
1110.90427	0.10834
1109.61850	0.11263
1108.33273	0.11683
1107.04696	0.12089
1105.76119	0.12477
1104.47542	0.12853
1103.18965	0.13222
1101.90388	0.13586
1100.61812	0.13942
1099.33235	0.14285
1098.04658	0.14614
1096.76081	0.14926
1095.47504	0.15219
1094.18927	0.15498
1092.90350	0.15767
1091.61773	0.16028
1090.33197	0.16280
1089.04620	0.16522
1087.76043	0.16758
1086.47466	0.16992
1085.18889	0.17227
1083.90312	0.17464
1082.61735	0.17711
1081.33158	0.17976
1080.04581	0.18262
1078.76005	0.18565
1077.47428	0.18883
1076.18851	0.19216
1074.90274	0.19567
1073.61697	0.19938
1072.33120	0.20331
1071.04543	0.20748
1069.75966	0.21186
1068.47390	0.21635
1067.18813	0.22085
1065.90236	0.22534
1064.61659	0.22991
1063.33082	0.23463
1062.04505	0.23949
1060.75928	0.24437
1059.47351	0.24911
1058.18774	0.25367
1056.90198	0.25811
1055.61621	0.26254
1054.33044	0.26704
1053.04467	0.27162
1051.75890	0.27633
1050.47313	0.28116
1049.18736	0.28614
1047.90159	0.29123
1046.61583	0.29647
1045.33006	0.30189
1044.04429	0.30751
1042.75852	0.31326
1041.47275	0.31904
1040.18698	0.32485
1038.90121	0.33070
1037.61544	0.33664
1036.32967	0.34263
1035.04391	0.34856
1033.75814	0.35428
1032.47237	0.35968
1031.18660	0.36468
1029.90083	0.36923
1028.61506	0.37329
1027.32929	0.37682
1026.04352	0.37978
1024.75775	0.38212
1023.47199	0.38381
1022.18622	0.38485
1020.90045	0.38521
1019.61468	0.38485
1018.32891	0.38372
1017.04314	0.38179
1015.75737	0.37905
1014.47160	0.37553
1013.18584	0.37123
1011.90007	0.36615
1010.61430	0.36027
1009.32853	0.35353
1008.04276	0.34593
1006.75699	0.33755
1005.47122	0.32851
1004.18545	0.31891
1002.89968	0.30881
1001.61392	0.29827
1000.32815	0.28741
999.04238	0.27637
997.75661	0.26526
996.47084	0.25417
995.18507	0.24317
993.89930	0.23234
992.61353	0.22175
991.32777	0.21146
990.04200	0.20156
988.75623	0.19211
987.47046	0.18317
986.18469	0.17479
984.89892	0.16697
983.61315	0.15970
982.32738	0.15296
981.04161	0.14674
979.75585	0.14101
978.47008	0.13580
977.18431	0.13115
975.89854	0.12713
974.61277	0.12376
973.32700	0.12103
972.04123	0.11897
970.75546	0.11766
969.46970	0.11717
968.18393	0.11747
966.89816	0.11845
965.61239	0.11992
964.32662	0.12153
963.04085	0.12294
961.75508	0.12381
960.46931	0.12392
959.18354	0.12312
957.89778	0.12136
956.61201	0.11873
955.32624	0.11548
954.04047	0.11192
952.75470	0.10833
951.46893	0.10489
950.18316	0.10167
948.89739	0.09858
947.61163	0.09550
946.32586	0.09236
945.04009	0.08926
943.75432	0.08634
942.46855	0.08367
941.18278	0.08118
939.89701	0.07883
938.61124	0.07661
937.32547	0.07456
936.03971	0.07270
934.75394	0.07098
933.46817	0.06939
932.18240	0.06789
930.89663	0.06650
929.61086	0.06520
928.32509	0.06400
927.03932	0.06288
925.75356	0.06185
924.46779	0.06089
923.18202	0.06000
921.89625	0.05921
920.61048	0.05851
919.32471	0.05787
918.03894	0.05724
916.75317	0.05659
915.46740	0.05594
914.18164	0.05531
912.89587	0.05473
911.61010	0.05421
910.32433	0.05374
909.03856	0.05333
907.75279	0.05296
906.46702	0.05257
905.18125	0.05212
903.89549	0.05162
902.60972	0.05115
901.32395	0.05078
900.03818	0.05051
898.75241	0.05024
897.46664	0.04990
896.18087	0.04953
894.89510	0.04918
893.60933	0.04893
892.32357	0.04882
891.03780	0.04894
889.75203	0.04936
888.46626	0.05011
887.18049	0.05123
885.89472	0.05288
884.60895	0.05535
883.32318	0.05876
882.03742	0.06283
880.75165	0.06687
879.46588	0.07018
878.18011	0.07251
876.89434	0.07423
875.60857	0.07595
874.32280	0.07792
873.03703	0.07974
871.75126	0.08069
870.46550	0.08031
869.17973	0.07863
867.89396	0.07603
866.60819	0.07291
865.32242	0.06961
864.03665	0.06633
862.75088	0.06324
861.46511	0.06041
860.17935	0.05792
858.89358	0.05581
857.60781	0.05411
856.32204	0.05278
855.03627	0.05173
853.75050	0.05086
852.46473	0.05008
851.17896	0.04931
849.89319	0.04852
848.60743	0.04778
847.32166	0.04717
846.03589	0.04670
844.75012	0.04631
843.46435	0.04593
842.17858	0.04550
840.89281	0.04504
839.60704	0.04458
838.32128	0.04417
837.03551	0.04387
835.74974	0.04367
834.46397	0.04352
833.17820	0.04334
831.89243	0.04309
830.60666	0.04281
829.32089	0.04256
828.03512	0.04239
826.74936	0.04232
825.46359	0.04233
824.17782	0.04235
822.89205	0.04232
821.60628	0.04220
820.32051	0.04198
819.03474	0.04171
817.74897	0.04149
816.46321	0.04138
815.17744	0.04138
813.89167	0.04144
812.60590	0.04149
811.32013	0.04150
810.03436	0.04146
808.74859	0.04138
807.46282	0.04128
806.17705	0.04115
804.89129	0.04098
803.60552	0.04081
802.31975	0.04068
801.03398	0.04060
799.74821	0.04053
798.46244	0.04048
797.17667	0.04044
795.89090	0.04037
794.60513	0.04023
793.31937	0.04003
792.03360	0.03986
790.74783	0.03981
789.46206	0.03986
788.17629	0.03994
786.89052	0.04004
785.60475	0.04015
784.31898	0.04024
783.03322	0.04024
781.74745	0.04010
780.46168	0.03983
779.17591	0.03954
777.89014	0.03934
776.60437	0.03926
775.31860	0.03928
774.03283	0.03938
772.74706	0.03952
771.46130	0.03961
770.17553	0.03959
768.88976	0.03945
767.60399	0.03933
766.31822	0.03934
765.03245	0.03946
763.74668	0.03957
762.46091	0.03965
761.17515	0.03972
759.88938	0.03981
758.60361	0.03985
757.31784	0.03980
756.03207	0.03971
754.74630	0.03965
753.46053	0.03966
752.17476	0.03972
750.88899	0.03978
749.60323	0.03980
748.31746	0.03979
747.03169	0.03977
745.74592	0.03972
744.46015	0.03962
743.17438	0.03945
741.88861	0.03925
740.60284	0.03906
739.31708	0.03890
738.03131	0.03880
736.74554	0.03876
735.45977	0.03871
734.17400	0.03861
732.88823	0.03849
731.60246	0.03848
730.31669	0.03860
729.03092	0.03877
727.74516	0.03890
726.45939	0.03894
725.17362	0.03893
723.88785	0.03888
722.60208	0.03895
721.31631	0.03908
720.03054	0.03921
718.74477	0.03934
717.45901	0.03945
716.17324	0.03947
714.88747	0.03936
713.60170	0.03911
712.31593	0.03880
711.03016	0.03854
709.74439	0.03837
708.45862	0.03827
707.17285	0.03822
705.88709	0.03817
704.60132	0.03815
703.31555	0.03817
702.02978	0.03821
700.74401	0.03826
699.45824	0.03828
698.17247	0.03827
696.88670	0.03823
695.60094	0.03817
694.31517	0.03810
693.02940	0.03803
691.74363	0.03798
690.45786	0.03795
689.17209	0.03792
687.88632	0.03789
686.60055	0.03785
685.31478	0.03780
684.02902	0.03775
682.74325	0.03764
681.45748	0.03747
680.17171	0.03727
678.88594	0.03710
677.60017	0.03702
676.31440	0.03703
675.02863	0.03712
673.74287	0.03725
672.45710	0.03737
671.17133	0.03747
669.88556	0.03754
668.59979	0.03761
667.31402	0.03766
666.02825	0.03765
664.74248	0.03753
663.45671	0.03734
662.17095	0.03715
660.88518	0.03699
659.59941	0.03686
658.31364	0.03672
657.02787	0.03659
655.74210	0.03650
654.45633	0.03646
653.17056	0.03643
651.88480	0.03639
650.59903	0.03633
649.31326	0.03630
648.02749	0.03632
646.74172	0.03642
645.45595	0.03660
644.17018	0.03681
642.88441	0.03700
641.59864	0.03711
640.31288	0.03720
639.02711	0.03734
637.74134	0.03762
636.45557	0.03803
635.16980	0.03855
633.88403	0.03915
632.59826	0.03979
631.31249	0.04051
630.02673	0.04146
628.74096	0.04262
627.45519	0.04347
626.16942	0.04489
624.88365	0.04667
623.59788	0.04852
622.31211	0.05041
621.02634	0.05240
619.74057	0.05469
618.45481	0.05783
617.16904	0.06226
615.88327	0.06762
614.59750	0.07323
613.31173	0.07910
612.02596	0.08588
610.74019	0.09360
609.45442	0.10106
608.16866	0.10735
606.88289	0.11308
605.59712	0.11912
604.31135	0.12499
603.02558	0.12911
601.73981	0.13030
600.45404	0.12864
599.16827	0.12502
597.88250	0.12045
596.59674	0.11572
595.31097	0.11137
594.02520	0.10769
592.73943	0.10481
591.45366	0.10282
590.16789	0.10174
588.88212	0.10158
587.59635	0.10230
586.31059	0.10374
585.02482	0.10569
583.73905	0.10792
582.45328	0.11040
581.16751	0.11327
579.88174	0.11660
578.59597	0.12029
577.31020	0.12414
576.02443	0.12795
574.73867	0.13163
573.45290	0.13517
572.16713	0.13866
570.88136	0.14229
569.59559	0.14638
568.30982	0.15120
567.02405	0.15672
565.73828	0.16250
564.45251	0.16780
563.16675	0.17173
561.88098	0.17349
560.59521	0.17261
559.30944	0.16908
558.02367	0.16323
556.73790	0.15560
555.45213	0.14685
554.16636	0.13762
552.88060	0.12847
551.59483	0.11981
550.30906	0.11190
549.02329	0.10483
547.73752	0.09857
546.45175	0.09307
545.16598	0.08829
543.88021	0.08419
542.59444	0.08061
541.30868	0.07736
540.02291	0.07427
538.73714	0.07136
537.45137	0.06869
536.16560	0.06629
534.87983	0.06408
533.59406	0.06199
532.30829	0.06002
531.02253	0.05824
529.73676	0.05670
528.45099	0.05537
527.16522	0.05412
525.87945	0.05282
524.59368	0.05146
523.30791	0.05011
522.02214	0.04887
520.73637	0.04777
519.45061	0.04679
518.16484	0.04587
516.87907	0.04497
515.59330	0.04406
514.30753	0.04318
513.02176	0.04236
511.73599	0.04165
510.45022	0.04107
509.16446	0.04054
507.87869	0.04000
506.59292	0.03937
505.30715	0.03867
504.02138	0.03796
502.73561	0.03734
501.44984	0.03688
500.16407	0.03657
498.87830	0.03633
497.59254	0.03608
496.30677	0.03582
495.02100	0.03557
493.73523	0.03533
492.44946	0.03506
491.16369	0.03474
489.87792	0.03441
488.59215	0.03415
487.30639	0.03402
486.02062	0.03398
484.73485	0.03399
483.44908	0.03404
482.16331	0.03419
480.87754	0.03442
479.59177	0.03472
478.30600	0.03507
477.02023	0.03550
475.73447	0.03596
474.44870	0.03640
473.16293	0.03671
471.87716	0.03684
470.59139	0.03679
469.30562	0.03661
468.01985	0.03637
466.73408	0.03611
465.44832	0.03585
464.16255	0.03557
462.87678	0.03524
461.59101	0.03486
460.30524	0.03445
459.01947	0.03404
457.73370	0.03368
456.44793	0.03337
455.16216	0.03309
453.87640	0.03281
452.59063	0.03247
451.30486	0.03207
450.01909	0.03167
448.73332	0.03137
447.44755	0.03117
446.16178	0.03106
444.87601	0.03099
443.59025	0.03092
442.30448	0.03084
441.01871	0.03072
439.73294	0.03060
438.44717	0.03051
437.16140	0.03047
435.87563	0.03047
434.58986	0.03048
433.30409	0.03045
432.01833	0.03040
430.73256	0.03032
429.44679	0.03020
428.16102	0.03004
426.87525	0.02986
425.58948	0.02968
424.30371	0.02953
423.01794	0.02939
421.73218	0.02924
420.44641	0.02908
419.16064	0.02894
417.87487	0.02882
416.58910	0.02876
415.30333	0.02874
414.01756	0.02874
412.73179	0.02871
411.44602	0.02866
410.16026	0.02862
408.87449	0.02860
407.58872	0.02863
406.30295	0.02870
405.01718	0.02882
403.73141	0.02900
402.44564	0.02918
401.15987	0.02932
399.87411	0.02943
