3997.45528	0.05011
3996.16951	0.05014
3994.88374	0.05011
3993.59798	0.05019
3992.31221	0.05039
3991.02644	0.05030
3989.74067	0.04953
3988.45490	0.04833
3987.16913	0.04743
3985.88336	0.04743
3984.59759	0.04830
3983.31183	0.04949
3982.02606	0.05040
3980.74029	0.05073
3979.45452	0.05047
3978.16875	0.04978
3976.88298	0.04895
3975.59721	0.04824
3974.31144	0.04788
3973.02567	0.04797
3971.73991	0.04841
3970.45414	0.04896
3969.16837	0.04943
3967.88260	0.04987
3966.59683	0.05041
3965.31106	0.05093
3964.02529	0.05115
3962.73952	0.05102
3961.45376	0.05079
3960.16799	0.05063
3958.88222	0.05051
3957.59645	0.05042
3956.31068	0.05048
3955.02491	0.05063
3953.73914	0.05062
3952.45337	0.05019
3951.16760	0.04943
3949.88184	0.04865
3948.59607	0.04817
3947.31030	0.04799
3946.02453	0.04789
3944.73876	0.04774
3943.45299	0.04779
3942.16722	0.04826
3940.88145	0.04897
3939.59569	0.04953
3938.30992	0.04990
3937.02415	0.05027
3935.73838	0.05054
3934.45261	0.05047
3933.16684	0.05012
3931.88107	0.04986
3930.59530	0.04986
3929.30953	0.04994
3928.02377	0.04982
3926.73800	0.04944
3925.45223	0.04896
3924.16646	0.04854
3922.88069	0.04810
3921.59492	0.04754
3920.30915	0.04695
3919.02338	0.04660
3917.73762	0.04671
3916.45185	0.04722
3915.16608	0.04768
3913.88031	0.04766
3912.59454	0.04733
3911.30877	0.04718
3910.02300	0.04739
3908.73723	0.04761
3907.45146	0.04744
3906.16570	0.04695
3904.87993	0.04666
3903.59416	0.04705
3902.30839	0.04799
3901.02262	0.04885
3899.73685	0.04922
3898.45108	0.04924
3897.16531	0.04916
3895.87955	0.04901
3894.59378	0.04859
3893.30801	0.04778
3892.02224	0.04692
3890.73647	0.04667
3889.45070	0.04708
3888.16493	0.04738
3886.87916	0.04723
3885.59339	0.04724
3884.30763	0.04765
3883.02186	0.04789
3881.73609	0.04744
3880.45032	0.04670
3879.16455	0.04614
3877.87878	0.04573
3876.59301	0.04543
3875.30724	0.04570
3874.02148	0.04677
3872.73571	0.04787
3871.44994	0.04804
3870.16417	0.04760
3868.87840	0.04744
3867.59263	0.04744
3866.30686	0.04709
3865.02109	0.04666
3863.73532	0.04667
3862.44956	0.04697
3861.16379	0.04718
3859.87802	0.04734
3858.59225	0.04769
3857.30648	0.04806
3856.02071	0.04795
3854.73494	0.04741
3853.44917	0.04734
3852.16341	0.04822
3850.87764	0.04944
3849.59187	0.05040
3848.30610	0.05095
3847.02033	0.05096
3845.73456	0.05038
3844.44879	0.04955
3843.16302	0.04900
3841.87725	0.04875
3840.59149	0.04817
3839.30572	0.04700
3838.01995	0.04594
3836.73418	0.04579
3835.44841	0.04635
3834.16264	0.04683
3832.87687	0.04685
3831.59110	0.04653
3830.30534	0.04604
3829.01957	0.04552
3827.73380	0.04527
3826.44803	0.04563
3825.16226	0.04647
3823.87649	0.04704
3822.59072	0.04703
3821.30495	0.04709
3820.01918	0.04767
3818.73342	0.04799
3817.44765	0.04735
3816.16188	0.04640
3814.87611	0.04593
3813.59034	0.04563
3812.30457	0.04521
3811.01880	0.04514
3809.73303	0.04554
3808.44726	0.04595
3807.16150	0.04647
3805.87573	0.04746
3804.58996	0.04830
3803.30419	0.04815
3802.01842	0.04749
3800.73265	0.04745
3799.44688	0.04782
3798.16111	0.04765
3796.87535	0.04698
3795.58958	0.04654
3794.30381	0.04628
3793.01804	0.04564
3791.73227	0.04456
3790.44650	0.04357
3789.16073	0.04311
3787.87496	0.04310
3786.58919	0.04315
3785.30343	0.04315
3784.01766	0.04344
3782.73189	0.04424
3781.44612	0.04528
3780.16035	0.04612
3778.87458	0.04650
3777.58881	0.04630
3776.30304	0.04553
3775.01728	0.04455
3773.73151	0.04373
3772.44574	0.04318
3771.15997	0.04297
3769.87420	0.04332
3768.58843	0.04411
3767.30266	0.04471
3766.01689	0.04486
3764.73112	0.04486
3763.44536	0.04496
3762.15959	0.04498
3760.87382	0.04481
3759.58805	0.04450
3758.30228	0.04412
3757.01651	0.04388
3755.73074	0.04393
3754.44497	0.04414
3753.15921	0.04443
3751.87344	0.04489
3750.58767	0.04549
3749.30190	0.04617
3748.01613	0.04666
3746.73036	0.04618
3745.44459	0.04490
3744.15882	0.04422
3742.87305	0.04443
3741.58729	0.04429
3740.30152	0.04355
3739.01575	0.04328
3737.72998	0.04403
3736.44421	0.04530
3735.15844	0.04611
3733.87267	0.04572
3732.58690	0.04435
3731.30114	0.04297
3730.01537	0.04203
3728.72960	0.04123
3727.44383	0.04077
3726.15806	0.04120
3724.87229	0.04235
3723.58652	0.04338
3722.30075	0.04368
3721.01498	0.04322
3719.72922	0.04235
3718.44345	0.04149
3717.15768	0.04112
3715.87191	0.04139
3714.58614	0.04191
3713.30037	0.04226
3712.01460	0.04226
3710.72883	0.04209
3709.44307	0.04194
3708.15730	0.04184
3706.87153	0.04194
3705.58576	0.04229
3704.29999	0.04276
3703.01422	0.04317
3701.72845	0.04331
3700.44268	0.04311
3699.15691	0.04263
3697.87115	0.04211
3696.58538	0.04179
3695.29961	0.04158
3694.01384	0.04127
3692.72807	0.04093
3691.44230	0.04080
3690.15653	0.04098
3688.87076	0.04162
3687.58500	0.04277
3686.29923	0.04384
3685.01346	0.04407
3683.72769	0.04361
3682.44192	0.04317
3681.15615	0.04313
3679.87038	0.04337
3678.58461	0.04329
3677.29884	0.04243
3676.01308	0.04145
3674.72731	0.04135
3673.44154	0.04180
3672.15577	0.04182
3670.87000	0.04172
3669.58423	0.04248
3668.29846	0.04380
3667.01269	0.04460
3665.72693	0.04456
3664.44116	0.04410
3663.15539	0.04367
3661.86962	0.04351
3660.58385	0.04374
3659.29808	0.04418
3658.01231	0.04453
3656.72654	0.04487
3655.44077	0.04556
3654.15501	0.04641
3652.86924	0.04676
3651.58347	0.04639
3650.29770	0.04578
3649.01193	0.04537
3647.72616	0.04513
3646.44039	0.04482
3645.15462	0.04446
3643.86886	0.04426
3642.58309	0.04439
3641.29732	0.04471
3640.01155	0.04488
3638.72578	0.04475
3637.44001	0.04455
3636.15424	0.04446
3634.86847	0.04456
3633.58270	0.04477
3632.29694	0.04480
3631.01117	0.04448
3629.72540	0.04432
3628.43963	0.04516
3627.15386	0.04683
3625.86809	0.04829
3624.58232	0.04900
3623.29655	0.04916
3622.01079	0.04886
3620.72502	0.04825
3619.43925	0.04786
3618.15348	0.04823
3616.86771	0.04912
3615.58194	0.04969
3614.29617	0.04945
3613.01040	0.04854
3611.72463	0.04738
3610.43887	0.04624
3609.15310	0.04556
3607.86733	0.04567
3606.58156	0.04643
3605.29579	0.04727
3604.01002	0.04781
3602.72425	0.04804
3601.43848	0.04815
3600.15272	0.04841
3598.86695	0.04899
3597.58118	0.04972
3596.29541	0.05019
3595.00964	0.05024
3593.72387	0.05018
3592.43810	0.05034
3591.15233	0.05093
3589.86656	0.05172
3588.58080	0.05234
3587.29503	0.05259
3586.00926	0.05242
3584.72349	0.05200
3583.43772	0.05171
3582.15195	0.05175
3580.86618	0.05196
3579.58041	0.05203
3578.29464	0.05180
3577.00888	0.05150
3575.72311	0.05149
3574.43734	0.05188
3573.15157	0.05252
3571.86580	0.05320
3570.58003	0.05376
3569.29426	0.05415
3568.00849	0.05453
3566.72273	0.05519
3565.43696	0.05612
3564.15119	0.05692
3562.86542	0.05713
3561.57965	0.05671
3560.29388	0.05602
3559.00811	0.05556
3557.72234	0.05563
3556.43657	0.05615
3555.15081	0.05674
3553.86504	0.05699
3552.57927	0.05684
3551.29350	0.05656
3550.00773	0.05647
3548.72196	0.05663
3547.43619	0.05702
3546.15042	0.05761
3544.86466	0.05827
3543.57889	0.05875
3542.29312	0.05881
3541.00735	0.05846
3539.72158	0.05798
3538.43581	0.05770
3537.15004	0.05774
3535.86427	0.05798
3534.57850	0.05829
3533.29274	0.05871
3532.00697	0.05938
3530.72120	0.06023
3529.43543	0.06099
3528.14966	0.06146
3526.86389	0.06175
3525.57812	0.06212
3524.29235	0.06270
3523.00659	0.06338
3521.72082	0.06391
3520.43505	0.06405
3519.14928	0.06377
3517.86351	0.06327
3516.57774	0.06274
3515.29197	0.06239
3514.00620	0.06236
3512.72043	0.06276
3511.43467	0.06345
3510.14890	0.06416
3508.86313	0.06466
3507.57736	0.06493
3506.29159	0.06515
3505.00582	0.06556
3503.72005	0.06627
3502.43428	0.06707
3501.14852	0.06750
3499.86275	0.06723
3498.57698	0.06637
3497.29121	0.06539
3496.00544	0.06477
3494.71967	0.06457
3493.43390	0.06460
3492.14813	0.06466
3490.86236	0.06487
3489.57660	0.06545
3488.29083	0.06644
3487.00506	0.06752
3485.71929	0.06819
3484.43352	0.06826
3483.14775	0.06786
3481.86198	0.06728
3480.57621	0.06670
3479.29045	0.06629
3478.00468	0.06618
3476.71891	0.06640
3475.43314	0.06675
3474.14737	0.06697
3472.86160	0.06704
3471.57583	0.06713
3470.29006	0.06736
3469.00429	0.06765
3467.71853	0.06786
3466.43276	0.06799
3465.14699	0.06813
3463.86122	0.06830
3462.57545	0.06853
3461.28968	0.06882
3460.00391	0.06914
3458.71814	0.06937
3457.43238	0.06940
3456.14661	0.06921
3454.86084	0.06890
3453.57507	0.06863
3452.28930	0.06858
3451.00353	0.06884
3449.71776	0.06929
3448.43199	0.06972
3447.14622	0.07013
3445.86046	0.07064
3444.57469	0.07125
3443.28892	0.07178
3442.00315	0.07200
3440.71738	0.07184
3439.43161	0.07140
3438.14584	0.07092
3436.86007	0.07060
3435.57431	0.07055
3434.28854	0.07069
3433.00277	0.07084
3431.71700	0.07088
3430.43123	0.07076
3429.14546	0.07049
3427.85969	0.07016
3426.57392	0.06990
3425.28815	0.06992
3424.00239	0.07031
3422.71662	0.07099
3421.43085	0.07177
3420.14508	0.07251
3418.85931	0.07312
3417.57354	0.07349
3416.28777	0.07355
3415.00200	0.07338
3413.71624	0.07312
3412.43047	0.07288
3411.14470	0.07271
3409.85893	0.07273
3408.57316	0.07304
3407.28739	0.07354
3406.00162	0.07394
3404.71585	0.07411
3403.43008	0.07424
3402.14432	0.07463
3400.85855	0.07523
3399.57278	0.07566
3398.28701	0.07559
3397.00124	0.07512
3395.71547	0.07459
3394.42970	0.07428
3393.14393	0.07416
3391.85817	0.07409
3390.57240	0.07398
3389.28663	0.07387
3388.00086	0.07380
3386.71509	0.07376
3385.42932	0.07376
3384.14355	0.07390
3382.85778	0.07431
3381.57201	0.07503
3380.28625	0.07587
3379.00048	0.07651
3377.71471	0.07661
3376.42894	0.07614
3375.14317	0.07540
3373.85740	0.07490
3372.57163	0.07491
3371.28586	0.07535
3370.00010	0.07588
3368.71433	0.07623
3367.42856	0.07638
3366.14279	0.07644
3364.85702	0.07640
3363.57125	0.07622
3362.28548	0.07593
3360.99971	0.07570
3359.71394	0.07563
3358.42818	0.07563
3357.14241	0.07564
3355.85664	0.07575
3354.57087	0.07610
3353.28510	0.07667
3351.99933	0.07721
3350.71356	0.07747
3349.42779	0.07738
3348.14202	0.07708
3346.85626	0.07680
3345.57049	0.07664
3344.28472	0.07655
3342.99895	0.07651
3341.71318	0.07658
3340.42741	0.07675
3339.14164	0.07691
3337.85587	0.07693
3336.57011	0.07685
3335.28434	0.07685
3333.99857	0.07704
3332.71280	0.07735
3331.42703	0.07754
3330.14126	0.07744
3328.85549	0.07707
3327.56972	0.07666
3326.28395	0.07645
3324.99819	0.07656
3323.71242	0.07692
3322.42665	0.07729
3321.14088	0.07747
3319.85511	0.07740
3318.56934	0.07723
3317.28357	0.07714
3315.99780	0.07715
3314.71204	0.07711
3313.42627	0.07684
3312.14050	0.07633
3310.85473	0.07587
3309.56896	0.07576
3308.28319	0.07599
3306.99742	0.07628
3305.71165	0.07647
3304.42588	0.07663
3303.14012	0.07689
3301.85435	0.07711
3300.56858	0.07702
3299.28281	0.07657
3297.99704	0.07607
3296.71127	0.07586
3295.42550	0.07601
3294.13973	0.07627
3292.85397	0.07641
3291.56820	0.07635
3290.28243	0.07613
3288.99666	0.07580
3287.71089	0.07542
3286.42512	0.07508
3285.13935	0.07492
3283.85358	0.07499
3282.56781	0.07527
3281.28205	0.07556
3279.99628	0.07563
3278.71051	0.07541
3277.42474	0.07506
3276.13897	0.07483
3274.85320	0.07478
3273.56743	0.07472
3272.28166	0.07451
3270.99590	0.07428
3269.71013	0.07429
3268.42436	0.07467
3267.13859	0.07512
3265.85282	0.07522
3264.56705	0.07493
3263.28128	0.07463
3261.99551	0.07473
3260.70974	0.07520
3259.42398	0.07564
3258.13821	0.07564
3256.85244	0.07513
3255.56667	0.07448
3254.28090	0.07416
3252.99513	0.07436
3251.70936	0.07484
3250.42359	0.07522
3249.13783	0.07533
3247.85206	0.07525
3246.56629	0.07519
3245.28052	0.07525
3243.99475	0.07544
3242.70898	0.07567
3241.42321	0.07590
3240.13744	0.07611
3238.85167	0.07623
3237.56591	0.07622
3236.28014	0.07609
3234.99437	0.07592
3233.70860	0.07568
3232.42283	0.07529
3231.13706	0.07472
3229.85129	0.07406
3228.56552	0.07343
3227.27976	0.07292
3225.99399	0.07266
3224.70822	0.07281
3223.42245	0.07335
3222.13668	0.07397
3220.85091	0.07427
3219.56514	0.07407
3218.27937	0.07353
3216.99360	0.07298
3215.70784	0.07264
3214.42207	0.07252
3213.13630	0.07248
3211.85053	0.07245
3210.56476	0.07244
3209.27899	0.07254
3207.99322	0.07278
3206.70745	0.07315
3205.42169	0.07364
3204.13592	0.07411
3202.85015	0.07434
3201.56438	0.07416
3200.27861	0.07368
3198.99284	0.07316
3197.70707	0.07274
3196.42130	0.07236
3195.13553	0.07196
3193.84977	0.07165
3192.56400	0.07163
3191.27823	0.07191
3189.99246	0.07230
3188.70669	0.07263
3187.42092	0.07287
3186.13515	0.07307
3184.84938	0.07318
3183.56362	0.07306
3182.27785	0.07264
3180.99208	0.07207
3179.70631	0.07160
3178.42054	0.07138
3177.13477	0.07138
3175.84900	0.07147
3174.56323	0.07157
3173.27746	0.07161
3171.99170	0.07152
3170.70593	0.07128
3169.42016	0.07096
3168.13439	0.07071
3166.84862	0.07063
3165.56285	0.07071
3164.27708	0.07085
3162.99131	0.07094
3161.70555	0.07091
3160.41978	0.07067
3159.13401	0.07022
3157.84824	0.06962
3156.56247	0.06902
3155.27670	0.06862
3153.99093	0.06852
3152.70516	0.06862
3151.41939	0.06869
3150.13363	0.06864
3148.84786	0.06854
3147.56209	0.06855
3146.27632	0.06873
3144.99055	0.06899
3143.70478	0.06927
3142.41901	0.06955
3141.13324	0.06980
3139.84748	0.06991
3138.56171	0.06978
3137.27594	0.06943
3135.99017	0.06899
3134.70440	0.06856
3133.41863	0.06818
3132.13286	0.06784
3130.84709	0.06754
3129.56132	0.06728
3128.27556	0.06702
3126.98979	0.06680
3125.70402	0.06674
3124.41825	0.06695
3123.13248	0.06740
3121.84671	0.06786
3120.56094	0.06812
3119.27517	0.06817
3117.98940	0.06812
3116.70364	0.06802
3115.41787	0.06788
3114.13210	0.06769
3112.84633	0.06751
3111.56056	0.06733
3110.27479	0.06709
3108.98902	0.06683
3107.70325	0.06667
3106.41749	0.06668
3105.13172	0.06678
3103.84595	0.06680
3102.56018	0.06667
3101.27441	0.06644
3099.98864	0.06616
3098.70287	0.06582
3097.41710	0.06549
3096.13133	0.06529
3094.84557	0.06533
3093.55980	0.06556
3092.27403	0.06584
3090.98826	0.06600
3089.70249	0.06597
3088.41672	0.06577
3087.13095	0.06544
3085.84518	0.06499
3084.55942	0.06447
3083.27365	0.06399
3081.98788	0.06367
3080.70211	0.06351
3079.41634	0.06340
3078.13057	0.06332
3076.84480	0.06338
3075.55903	0.06365
3074.27326	0.06413
3072.98750	0.06465
3071.70173	0.06494
3070.41596	0.06480
3069.13019	0.06433
3067.84442	0.06385
3066.55865	0.06361
3065.27288	0.06360
3063.98711	0.06366
3062.70135	0.06376
3061.41558	0.06396
3060.12981	0.06418
3058.84404	0.06425
3057.55827	0.06405
3056.27250	0.06371
3054.98673	0.06343
3053.70096	0.06328
3052.41519	0.06318
3051.12943	0.06309
3049.84366	0.06302
3048.55789	0.06301
3047.27212	0.06306
3045.98635	0.06319
3044.70058	0.06339
3043.41481	0.06355
3042.12904	0.06352
3040.84328	0.06320
3039.55751	0.06267
3038.27174	0.06210
3036.98597	0.06160
3035.70020	0.06123
3034.41443	0.06105
3033.12866	0.06107
3031.84289	0.06123
3030.55712	0.06135
3029.27136	0.06131
3027.98559	0.06116
3026.69982	0.06102
3025.41405	0.06098
3024.12828	0.06101
3022.84251	0.06097
3021.55674	0.06077
3020.27097	0.06045
3018.98521	0.06018
3017.69944	0.06006
3016.41367	0.06001
3015.12790	0.05990
3013.84213	0.05968
3012.55636	0.05939
3011.27059	0.05916
3009.98482	0.05910
3008.69905	0.05927
3007.41329	0.05959
3006.12752	0.05985
3004.84175	0.05990
3003.55598	0.05979
3002.27021	0.05971
3000.98444	0.05971
2999.69867	0.05963
2998.41290	0.05930
2997.12714	0.05881
2995.84137	0.05851
2994.55560	0.05862
2993.26983	0.05906
2991.98406	0.05952
2990.69829	0.05967
2989.41252	0.05943
2988.12675	0.05896
2986.84098	0.05863
2985.55522	0.05874
2984.26945	0.05925
2982.98368	0.05980
2981.69791	0.06013
2980.41214	0.06030
2979.12637	0.06050
2977.84060	0.06079
2976.55483	0.06113
2975.26907	0.06153
2973.98330	0.06211
2972.69753	0.06300
2971.41176	0.06424
2970.12599	0.06565
2968.84022	0.06697
2967.55445	0.06805
2966.26868	0.06895
2964.98291	0.06981
2963.69715	0.07075
2962.41138	0.07174
2961.12561	0.07268
2959.83984	0.07343
2958.55407	0.07400
2957.26830	0.07449
2955.98253	0.07498
2954.69676	0.07543
2953.41100	0.07572
2952.12523	0.07578
2950.83946	0.07558
2949.55369	0.07522
2948.26792	0.07484
2946.98215	0.07460
2945.69638	0.07456
2944.41061	0.07468
2943.12484	0.07486
2941.83908	0.07495
2940.55331	0.07491
2939.26754	0.07488
2937.98177	0.07509
2936.69600	0.07565
2935.41023	0.07643
2934.12446	0.07718
2932.83869	0.07773
2931.55293	0.07812
2930.26716	0.07857
2928.98139	0.07916
2927.69562	0.07983
2926.40985	0.08039
2925.12408	0.08071
2923.83831	0.08082
2922.55254	0.08079
2921.26677	0.08066
2919.98101	0.08034
2918.69524	0.07972
2917.40947	0.07885
2916.12370	0.07801
2914.83793	0.07749
2913.55216	0.07732
2912.26639	0.07732
2910.98062	0.07719
2909.69486	0.07681
2908.40909	0.07625
2907.12332	0.07564
2905.83755	0.07510
2904.55178	0.07455
2903.26601	0.07389
2901.98024	0.07311
2900.69447	0.07234
2899.40870	0.07172
2898.12294	0.07119
2896.83717	0.07061
2895.55140	0.06991
2894.26563	0.06920
2892.97986	0.06860
2891.69409	0.06814
2890.40832	0.06769
2889.12255	0.06711
2887.83678	0.06643
2886.55102	0.06583
2885.26525	0.06537
2883.97948	0.06499
2882.69371	0.06467
2881.40794	0.06446
2880.12217	0.06435
2878.83640	0.06432
2877.55063	0.06440
2876.26487	0.06469
2874.97910	0.06514
2873.69333	0.06557
2872.40756	0.06589
2871.12179	0.06618
2869.83602	0.06651
2868.55025	0.06681
2867.26448	0.06697
2865.97871	0.06697
2864.69295	0.06692
2863.40718	0.06691
2862.12141	0.06696
2860.83564	0.06705
2859.54987	0.06711
2858.26410	0.06707
2856.97833	0.06692
2855.69256	0.06672
2854.40680	0.06654
2853.12103	0.06646
2851.83526	0.06641
2850.54949	0.06624
2849.26372	0.06581
2847.97795	0.06514
2846.69218	0.06437
2845.40641	0.06361
2844.12064	0.06281
2842.83488	0.06192
2841.54911	0.06103
2840.26334	0.06029
2838.97757	0.05974
2837.69180	0.05923
2836.40603	0.05856
2835.12026	0.05771
2833.83449	0.05683
2832.54873	0.05614
2831.26296	0.05577
2829.97719	0.05561
2828.69142	0.05540
2827.40565	0.05498
2826.11988	0.05447
2824.83411	0.05412
2823.54834	0.05397
2822.26257	0.05386
2820.97681	0.05358
2819.69104	0.05316
2818.40527	0.05271
2817.11950	0.05237
2815.83373	0.05219
2814.54796	0.05219
2813.26219	0.05230
2811.97642	0.05241
2810.69066	0.05242
2809.40489	0.05230
2808.11912	0.05208
2806.83335	0.05186
2805.54758	0.05170
2804.26181	0.05158
2802.97604	0.05143
2801.69027	0.05120
2800.40450	0.05089
2799.11874	0.05053
2797.83297	0.05019
2796.54720	0.04994
2795.26143	0.04978
2793.97566	0.04973
2792.68989	0.04974
2791.40412	0.04975
2790.11835	0.04970
2788.83259	0.04952
2787.54682	0.04929
2786.26105	0.04913
2784.97528	0.04910
2783.68951	0.04910
2782.40374	0.04903
2781.11797	0.04885
2779.83220	0.04865
2778.54643	0.04850
2777.26067	0.04837
2775.97490	0.04818
2774.68913	0.04792
2773.40336	0.04768
2772.11759	0.04755
2770.83182	0.04748
2769.54605	0.04740
2768.26028	0.04730
2766.97452	0.04726
2765.68875	0.04736
2764.40298	0.04757
2763.11721	0.04770
2761.83144	0.04764
2760.54567	0.04742
2759.25990	0.04714
2757.97413	0.04688
2756.68836	0.04666
2755.40260	0.04653
2754.11683	0.04653
2752.83106	0.04662
2751.54529	0.04668
2750.25952	0.04666
2748.97375	0.04654
2747.68798	0.04634
2746.40221	0.04609
2745.11645	0.04590
2743.83068	0.04581
2742.54491	0.04581
2741.25914	0.04585
2739.97337	0.04591
2738.68760	0.04602
2737.40183	0.04612
2736.11606	0.04609
2734.83029	0.04588
2733.54453	0.04563
2732.25876	0.04551
2730.97299	0.04555
2729.68722	0.04567
2728.40145	0.04574
2727.11568	0.04568
2725.82991	0.04546
2724.54414	0.04518
2723.25838	0.04500
2721.97261	0.04499
2720.68684	0.04500
2719.40107	0.04494
2718.11530	0.04484
2716.82953	0.04483
2715.54376	0.04492
2714.25799	0.04500
2712.97222	0.04495
2711.68646	0.04474
2710.40069	0.04445
2709.11492	0.04416
2707.82915	0.04396
2706.54338	0.04390
2705.25761	0.04399
2703.97184	0.04416
2702.68607	0.04432
2701.40031	0.04434
2700.11454	0.04418
2698.82877	0.04389
2697.54300	0.04365
2696.25723	0.04362
2694.97146	0.04376
2693.68569	0.04391
2692.39992	0.04389
2691.11415	0.04369
2689.82839	0.04345
2688.54262	0.04326
2687.25685	0.04311
2685.97108	0.04296
2684.68531	0.04280
2683.39954	0.04265
2682.11377	0.04251
2680.82800	0.04235
2679.54224	0.04221
2678.25647	0.04205
2676.97070	0.04186
2675.68493	0.04167
2674.39916	0.04163
2673.11339	0.04189
2671.82762	0.04238
2670.54185	0.04286
2669.25608	0.04307
2667.97032	0.04297
2666.68455	0.04270
2665.39878	0.04245
2664.11301	0.04230
2662.82724	0.04218
2661.54147	0.04204
2660.25570	0.04188
2658.96993	0.04172
2657.68417	0.04160
2656.39840	0.04153
2655.11263	0.04151
2653.82686	0.04152
2652.54109	0.04149
2651.25532	0.04139
2649.96955	0.04125
2648.68378	0.04115
2647.39801	0.04106
2646.11225	0.04088
2644.82648	0.04051
2643.54071	0.04006
2642.25494	0.03975
2640.96917	0.03970
2639.68340	0.03980
2638.39763	0.03981
2637.11186	0.03965
2635.82609	0.03937
2634.54033	0.03910
2633.25456	0.03886
2631.96879	0.03867
2630.68302	0.03848
2629.39725	0.03825
2628.11148	0.03792
2626.82571	0.03752
2625.53994	0.03719
2624.25418	0.03704
2622.96841	0.03704
2621.68264	0.03701
2620.39687	0.03682
2619.11110	0.03656
2617.82533	0.03644
2616.53956	0.03651
2615.25379	0.03660
2613.96802	0.03657
2612.68226	0.03643
2611.39649	0.03625
2610.11072	0.03605
2608.82495	0.03585
2607.53918	0.03576
2606.25341	0.03583
2604.96764	0.03599
2603.68187	0.03598
2602.39611	0.03562
2601.11034	0.03504
2599.82457	0.03459
2598.53880	0.03452
2597.25303	0.03476
2595.96726	0.03503
2594.68149	0.03510
2593.39572	0.03497
2592.10995	0.03476
2590.82419	0.03454
2589.53842	0.03427
2588.25265	0.03392
2586.96688	0.03365
2585.68111	0.03368
2584.39534	0.03404
2583.10957	0.03448
2581.82380	0.03472
2580.53804	0.03468
2579.25227	0.03450
2577.96650	0.03426
2576.68073	0.03394
2575.39496	0.03360
2574.10919	0.03340
2572.82342	0.03352
2571.53765	0.03385
2570.25188	0.03413
2568.96612	0.03421
2567.68035	0.03412
2566.39458	0.03393
2565.10881	0.03368
2563.82304	0.03343
2562.53727	0.03325
2561.25150	0.03306
2559.96573	0.03276
2558.67997	0.03241
2557.39420	0.03222
2556.10843	0.03228
2554.82266	0.03239
2553.53689	0.03237
2552.25112	0.03225
2550.96535	0.03222
2549.67958	0.03233
2548.39381	0.03240
2547.10805	0.03236
2545.82228	0.03232
2544.53651	0.03238
2543.25074	0.03245
2541.96497	0.03239
2540.67920	0.03224
2539.39343	0.03217
2538.10766	0.03219
2536.82190	0.03213
2535.53613	0.03192
2534.25036	0.03170
2532.96459	0.03165
2531.67882	0.03176
2530.39305	0.03181
2529.10728	0.03167
2527.82151	0.03143
2526.53574	0.03133
2525.24998	0.03149
2523.96421	0.03182
2522.67844	0.03209
2521.39267	0.03212
2520.10690	0.03189
2518.82113	0.03152
2517.53536	0.03117
2516.24959	0.03089
2514.96383	0.03074
2513.67806	0.03081
2512.39229	0.03112
2511.10652	0.03144
2509.82075	0.03153
2508.53498	0.03139
2507.24921	0.03114
2505.96344	0.03084
2504.67767	0.03052
2503.39191	0.03027
2502.10614	0.03018
2500.82037	0.03023
2499.53460	0.03031
2498.24883	0.03035
2496.96306	0.03031
2495.67729	0.03015
2494.39152	0.02988
2493.10576	0.02963
2491.81999	0.02958
2490.53422	0.02974
2489.24845	0.02999
2487.96268	0.03020
2486.67691	0.03039
2485.39114	0.03055
2484.10537	0.03061
2482.81960	0.03059
2481.53384	0.03065
2480.24807	0.03086
2478.96230	0.03107
2477.67653	0.03101
2476.39076	0.03070
2475.10499	0.03030
2473.81922	0.02993
2472.53345	0.02954
2471.24769	0.02915
2469.96192	0.02892
2468.67615	0.02896
2467.39038	0.02922
2466.10461	0.02960
2464.81884	0.02997
2463.53307	0.03028
2462.24730	0.03052
2460.96153	0.03074
2459.67577	0.03087
2458.39000	0.03074
2457.10423	0.03034
2455.81846	0.02987
2454.53269	0.02968
2453.24692	0.02983
2451.96115	0.03008
2450.67538	0.03009
2449.38962	0.02981
2448.10385	0.02943
2446.81808	0.02916
2445.53231	0.02897
2444.24654	0.02883
2442.96077	0.02882
2441.67500	0.02899
2440.38923	0.02919
2439.10346	0.02917
2437.81770	0.02893
2436.53193	0.02871
2435.24616	0.02872
2433.96039	0.02896
2432.67462	0.02929
2431.38885	0.02960
2430.10308	0.02978
2428.81731	0.02969
2427.53155	0.02931
2426.24578	0.02880
2424.96001	0.02841
2423.67424	0.02825
2422.38847	0.02828
2421.10270	0.02845
2419.81693	0.02871
2418.53116	0.02896
2417.24539	0.02905
2415.95963	0.02900
2414.67386	0.02897
2413.38809	0.02908
2412.10232	0.02923
2410.81655	0.02923
2409.53078	0.02905
2408.24501	0.02885
2406.95924	0.02879
2405.67347	0.02888
2404.38771	0.02897
2403.10194	0.02898
2401.81617	0.02898
2400.53040	0.02911
2399.24463	0.02928
2397.95886	0.02931
2396.67309	0.02914
2395.38732	0.02883
2394.10156	0.02849
2392.81579	0.02817
2391.53002	0.02785
2390.24425	0.02751
2388.95848	0.02718
2387.67271	0.02694
2386.38694	0.02682
2385.10117	0.02682
2383.81540	0.02691
2382.52964	0.02708
2381.24387	0.02730
2379.95810	0.02756
2378.67233	0.02776
2377.38656	0.02783
2376.10079	0.02787
2374.81502	0.02773
2373.52925	0.02710
2372.24349	0.02605
2370.95772	0.02478
2369.67195	0.02388
2368.38618	0.02332
2367.10041	0.02257
2365.81464	0.02187
2364.52887	0.02194
2363.24310	0.02258
2361.95733	0.02312
2360.67157	0.02352
2359.38580	0.02415
2358.10003	0.02473
2356.81426	0.02512
2355.52849	0.02573
2354.24272	0.02663
2352.95695	0.02760
2351.67118	0.02779
2350.38542	0.02669
2349.09965	0.02578
2347.81388	0.02662
2346.52811	0.02819
2345.24234	0.02873
2343.95657	0.02831
2342.67080	0.02805
2341.38503	0.02794
2340.09926	0.02752
2338.81350	0.02688
2337.52773	0.02614
2336.24196	0.02570
2334.95619	0.02547
2333.67042	0.02528
2332.38465	0.02538
2331.09888	0.02541
2329.81311	0.02512
2328.52735	0.02490
2327.24158	0.02476
2325.95581	0.02481
2324.67004	0.02533
2323.38427	0.02598
2322.09850	0.02658
2320.81273	0.02728
2319.52696	0.02774
2318.24119	0.02777
2316.95543	0.02762
2315.66966	0.02752
2314.38389	0.02749
2313.09812	0.02740
2311.81235	0.02728
2310.52658	0.02721
2309.24081	0.02725
2307.95504	0.02746
2306.66928	0.02771
2305.38351	0.02774
2304.09774	0.02754
2302.81197	0.02731
2301.52620	0.02719
2300.24043	0.02717
2298.95466	0.02715
2297.66889	0.02700
2296.38312	0.02671
2295.09736	0.02644
2293.81159	0.02635
2292.52582	0.02648
2291.24005	0.02671
2289.95428	0.02685
2288.66851	0.02683
2287.38274	0.02668
2286.09697	0.02653
2284.81121	0.02641
2283.52544	0.02630
2282.23967	0.02611
2280.95390	0.02572
2279.66813	0.02513
2278.38236	0.02448
2277.09659	0.02398
2275.81082	0.02374
2274.52505	0.02376
2273.23929	0.02393
2271.95352	0.02398
2270.66775	0.02367
2269.38198	0.02301
2268.09621	0.02227
2266.81044	0.02183
2265.52467	0.02189
2264.23890	0.02234
2262.95314	0.02290
2261.66737	0.02334
2260.38160	0.02362
2259.09583	0.02379
2257.81006	0.02389
2256.52429	0.02383
2255.23852	0.02351
2253.95275	0.02294
2252.66698	0.02236
2251.38122	0.02201
2250.09545	0.02195
2248.80968	0.02197
2247.52391	0.02189
2246.23814	0.02185
2244.95237	0.02197
2243.66660	0.02197
2242.38083	0.02152
2241.09507	0.02079
2239.80930	0.02044
2238.52353	0.02081
2237.23776	0.02144
2235.95199	0.02161
2234.66622	0.02103
2233.38045	0.02000
2232.09468	0.01905
2230.80891	0.01848
2229.52315	0.01823
2228.23738	0.01813
2226.95161	0.01821
2225.66584	0.01870
2224.38007	0.01964
2223.09430	0.02059
2221.80853	0.02102
2220.52276	0.02080
2219.23700	0.02022
2217.95123	0.01965
2216.66546	0.01930
2215.37969	0.01909
2214.09392	0.01882
2212.80815	0.01834
2211.52238	0.01766
2210.23661	0.01698
2208.95084	0.01647
2207.66508	0.01622
2206.37931	0.01628
2205.09354	0.01653
2203.80777	0.01661
2202.52200	0.01623
2201.23623	0.01559
2199.95046	0.01520
2198.66469	0.01533
2197.37893	0.01556
2196.09316	0.01521
2194.80739	0.01409
2193.52162	0.01281
2192.23585	0.01233
2190.95008	0.01313
2189.66431	0.01489
2188.37854	0.01670
2187.09277	0.01776
2185.80701	0.01792
2184.52124	0.01759
2183.23547	0.01717
2181.94970	0.01671
2180.66393	0.01604
2179.37816	0.01506
2178.09239	0.01387
2176.80662	0.01285
2175.52085	0.01260
2174.23509	0.01343
2172.94932	0.01487
2171.66355	0.01597
2170.37778	0.01607
2169.09201	0.01511
2167.80624	0.01324
2166.52047	0.01074
2165.23470	0.00811
2163.94894	0.00605
2162.66317	0.00493
2161.37740	0.00449
2160.09163	0.00419
2158.80586	0.00401
2157.52009	0.00445
2156.23432	0.00564
2154.94855	0.00703
2153.66278	0.00792
2152.37702	0.00816
2151.09125	0.00808
2149.80548	0.00810
2148.51971	0.00845
2147.23394	0.00897
2145.94817	0.00927
2144.66240	0.00928
2143.37663	0.00945
2142.09087	0.01013
2140.80510	0.01095
2139.51933	0.01123
2138.23356	0.01082
2136.94779	0.01022
2135.66202	0.00990
2134.37625	0.01014
2133.09048	0.01116
2131.80471	0.01284
2130.51895	0.01460
2129.23318	0.01576
2127.94741	0.01624
2126.66164	0.01636
2125.37587	0.01634
2124.09010	0.01618
2122.80433	0.01592
2121.51856	0.01573
2120.23280	0.01567
2118.94703	0.01568
2117.66126	0.01579
2116.37549	0.01607
2115.08972	0.01641
2113.80395	0.01657
2112.51818	0.01646
2111.23241	0.01618
2109.94664	0.01578
2108.66088	0.01521
2107.37511	0.01460
2106.08934	0.01430
2104.80357	0.01456
2103.51780	0.01525
2102.23203	0.01594
2100.94626	0.01625
2099.66049	0.01651
2098.37473	0.01627
2097.08896	0.01572
2095.80319	0.01513
2094.51742	0.01468
2093.23165	0.01455
2091.94588	0.01488
2090.66011	0.01554
2089.37434	0.01610
2088.08857	0.01614
2086.80281	0.01560
2085.51704	0.01482
2084.23127	0.01427
2082.94550	0.01426
2081.65973	0.01471
2080.37396	0.01523
2079.08819	0.01535
2077.80242	0.01487
2076.51666	0.01410
2075.23089	0.01360
2073.94512	0.01372
2072.65935	0.01425
2071.37358	0.01465
2070.08781	0.01451
2068.80204	0.01391
2067.51627	0.01325
2066.23050	0.01281
2064.94474	0.01251
2063.65897	0.01215
2062.37320	0.01183
2061.08743	0.01186
2059.80166	0.01233
2058.51589	0.01288
2057.23012	0.01299
2055.94435	0.01257
2054.65859	0.01197
2053.37282	0.01153
2052.08705	0.01123
2050.80128	0.01086
2049.51551	0.01041
2048.22974	0.01002
2046.94397	0.00972
2045.65820	0.00923
2044.37243	0.00831
2043.08667	0.00714
2041.80090	0.00614
2040.51513	0.00564
2039.22936	0.00569
2037.94359	0.00605
2036.65782	0.00631
2035.37205	0.00603
2034.08628	0.00521
2032.80052	0.00437
2031.51475	0.00409
2030.22898	0.00442
2028.94321	0.00488
2027.65744	0.00502
2026.37167	0.00483
2025.08590	0.00473
2023.80013	0.00515
2022.51436	0.00620
2021.22860	0.00753
2019.94283	0.00856
2018.65706	0.00898
2017.37129	0.00895
2016.08552	0.00891
2014.79975	0.00923
2013.51398	0.00987
2012.22821	0.01045
2010.94245	0.01057
2009.65668	0.01028
2008.37091	0.00992
2007.08514	0.00965
2005.79937	0.00928
2004.51360	0.00873
2003.22783	0.00836
2001.94206	0.00866
2000.65629	0.00964
1999.37053	0.01080
1998.08476	0.01164
1996.79899	0.01199
1995.51322	0.01201
1994.22745	0.01193
1992.94168	0.01201
1991.65591	0.01238
1990.37014	0.01293
1989.08438	0.01341
1987.79861	0.01352
1986.51284	0.01302
1985.22707	0.01197
1983.94130	0.01082
1982.65553	0.01028
1981.36976	0.01065
1980.08399	0.01140
1978.79822	0.01162
1977.51246	0.01094
1976.22669	0.00981
1974.94092	0.00900
1973.65515	0.00894
1972.36938	0.00958
1971.08361	0.01056
1969.79784	0.01136
1968.51207	0.01160
1967.22631	0.01129
1965.94054	0.01081
1964.65477	0.01055
1963.36900	0.01060
1962.08323	0.01077
1960.79746	0.01087
1959.51169	0.01094
1958.22592	0.01118
1956.94015	0.01166
1955.65439	0.01222
1954.36862	0.01264
1953.08285	0.01295
1951.79708	0.01328
1950.51131	0.01369
1949.22554	0.01401
1947.93977	0.01407
1946.65400	0.01383
1945.36823	0.01336
1944.08247	0.01288
1942.79670	0.01270
1941.51093	0.01292
1940.22516	0.01337
1938.93939	0.01377
1937.65362	0.01407
1936.36785	0.01443
1935.08208	0.01490
1933.79632	0.01542
1932.51055	0.01585
1931.22478	0.01613
1929.93901	0.01623
1928.65324	0.01614
1927.36747	0.01588
1926.08170	0.01555
1924.79593	0.01535
1923.51016	0.01543
1922.22440	0.01577
1920.93863	0.01616
1919.65286	0.01635
1918.36709	0.01636
1917.08132	0.01630
1915.79555	0.01613
1914.50978	0.01580
1913.22401	0.01549
1911.93825	0.01543
1910.65248	0.01568
1909.36671	0.01604
1908.08094	0.01627
1906.79517	0.01628
1905.50940	0.01617
1904.22363	0.01610
1902.93786	0.01608
1901.65209	0.01607
1900.36633	0.01604
1899.08056	0.01602
1897.79479	0.01609
1896.50902	0.01625
1895.22325	0.01640
1893.93748	0.01641
1892.65171	0.01617
1891.36594	0.01576
1890.08018	0.01543
1888.79441	0.01536
1887.50864	0.01550
1886.22287	0.01565
1884.93710	0.01572
1883.65133	0.01578
1882.36556	0.01592
1881.07979	0.01614
1879.79402	0.01634
1878.50826	0.01639
1877.22249	0.01632
1875.93672	0.01623
1874.65095	0.01623
1873.36518	0.01633
1872.07941	0.01645
1870.79364	0.01653
1869.50787	0.01662
1868.22211	0.01673
1866.93634	0.01673
1865.65057	0.01652
1864.36480	0.01618
1863.07903	0.01592
1861.79326	0.01585
1860.50749	0.01594
1859.22172	0.01610
1857.93595	0.01626
1856.65019	0.01636
1855.36442	0.01638
1854.07865	0.01640
1852.79288	0.01645
1851.50711	0.01654
1850.22134	0.01663
1848.93557	0.01670
1847.64980	0.01677
1846.36404	0.01676
1845.07827	0.01668
1843.79250	0.01671
1842.50673	0.01683
1841.22096	0.01682
1839.93519	0.01654
1838.64942	0.01617
1837.36365	0.01599
1836.07788	0.01613
1834.79212	0.01654
1833.50635	0.01698
1832.22058	0.01717
1830.93481	0.01708
1829.64904	0.01695
1828.36327	0.01692
1827.07750	0.01692
1825.79173	0.01689
1824.50597	0.01691
1823.22020	0.01700
1821.93443	0.01703
1820.64866	0.01695
1819.36289	0.01685
1818.07712	0.01684
1816.79135	0.01697
1815.50558	0.01714
1814.21981	0.01720
1812.93405	0.01710
1811.64828	0.01695
1810.36251	0.01691
1809.07674	0.01702
1807.79097	0.01715
1806.50520	0.01720
1805.21943	0.01718
1803.93366	0.01713
1802.64790	0.01708
1801.36213	0.01708
1800.07636	0.01714
1798.79059	0.01727
1797.50482	0.01747
1796.21905	0.01771
1794.93328	0.01784
1793.64751	0.01778
1792.36174	0.01762
1791.07598	0.01750
1789.79021	0.01742
1788.50444	0.01735
1787.21867	0.01733
1785.93290	0.01739
1784.64713	0.01753
1783.36136	0.01767
1782.07559	0.01772
1780.78983	0.01772
1779.50406	0.01775
1778.21829	0.01786
1776.93252	0.01801
1775.64675	0.01810
1774.36098	0.01807
1773.07521	0.01807
1771.78944	0.01829
1770.50367	0.01855
1769.21791	0.01856
1767.93214	0.01838
1766.64637	0.01828
1765.36060	0.01827
1764.07483	0.01818
1762.78906	0.01806
1761.50329	0.01810
1760.21752	0.01827
1758.93176	0.01833
1757.64599	0.01825
1756.36022	0.01827
1755.07445	0.01846
1753.78868	0.01856
1752.50291	0.01843
1751.21714	0.01832
1749.93137	0.01844
1748.64560	0.01869
1747.35984	0.01889
1746.07407	0.01902
1744.78830	0.01912
1743.50253	0.01917
1742.21676	0.01912
1740.93099	0.01900
1739.64522	0.01905
1738.35945	0.01940
1737.07369	0.01973
1735.78792	0.01969
1734.50215	0.01952
1733.21638	0.01963
1731.93061	0.01990
1730.64484	0.01989
1729.35907	0.01965
1728.07330	0.01953
1726.78753	0.01959
1725.50177	0.01971
1724.21600	0.01986
1722.93023	0.02015
1721.64446	0.02054
1720.35869	0.02079
1719.07292	0.02080
1717.78715	0.02084
1716.50138	0.02112
1715.21561	0.02148
1713.92985	0.02169
1712.64408	0.02180
1711.35831	0.02195
1710.07254	0.02214
1708.78677	0.02229
1707.50100	0.02237
1706.21523	0.02255
1704.92946	0.02310
1703.64370	0.02384
1702.35793	0.02429
1701.07216	0.02451
1699.78639	0.02504
1698.50062	0.02565
1697.21485	0.02572
1695.92908	0.02539
1694.64331	0.02540
1693.35754	0.02571
1692.07178	0.02583
1690.78601	0.02586
1689.50024	0.02621
1688.21447	0.02683
1686.92870	0.02723
1685.64293	0.02723
1684.35716	0.02734
1683.07139	0.02785
1681.78563	0.02839
1680.49986	0.02864
1679.21409	0.02881
1677.92832	0.02900
1676.64255	0.02911
1675.35678	0.02928
1674.07101	0.02967
1672.78524	0.03008
1671.49947	0.03023
1670.21371	0.03025
1668.92794	0.03046
1667.64217	0.03096
1666.35640	0.03147
1665.07063	0.03175
1663.78486	0.03187
1662.49909	0.03207
1661.21332	0.03242
1659.92756	0.03282
1658.64179	0.03326
1657.35602	0.03375
1656.07025	0.03403
1654.78448	0.03383
1653.49871	0.03362
1652.21294	0.03409
1650.92717	0.03495
1649.64140	0.03530
1648.35564	0.03493
1647.06987	0.03443
1645.78410	0.03433
1644.49833	0.03451
1643.21256	0.03460
1641.92679	0.03456
1640.64102	0.03458
1639.35525	0.03471
1638.06949	0.03471
1636.78372	0.03448
1635.49795	0.03434
1634.21218	0.03452
1632.92641	0.03479
1631.64064	0.03484
1630.35487	0.03466
1629.06910	0.03449
1627.78333	0.03445
1626.49757	0.03451
1625.21180	0.03452
1623.92603	0.03449
1622.64026	0.03457
1621.35449	0.03479
1620.06872	0.03493
1618.78295	0.03476
1617.49718	0.03451
1616.21142	0.03457
1614.92565	0.03490
1613.63988	0.03510
1612.35411	0.03502
1611.06834	0.03490
1609.78257	0.03496
1608.49680	0.03516
1607.21103	0.03540
1605.92526	0.03557
1604.63950	0.03567
1603.35373	0.03572
1602.06796	0.03578
1600.78219	0.03590
1599.49642	0.03608
1598.21065	0.03634
1596.92488	0.03666
1595.63911	0.03703
1594.35335	0.03740
1593.06758	0.03772
1591.78181	0.03801
1590.49604	0.03829
1589.21027	0.03860
1587.92450	0.03896
1586.63873	0.03933
1585.35296	0.03970
1584.06719	0.04008
1582.78143	0.04051
1581.49566	0.04103
1580.20989	0.04164
1578.92412	0.04218
1577.63835	0.04250
1576.35258	0.04288
1575.06681	0.04364
1573.78104	0.04451
1572.49528	0.04504
1571.20951	0.04523
1569.92374	0.04546
1568.63797	0.04597
1567.35220	0.04658
1566.06643	0.04713
1564.78066	0.04774
1563.49489	0.04850
1562.20912	0.04915
1560.92336	0.04946
1559.63759	0.04975
1558.35182	0.05044
1557.06605	0.05128
1555.78028	0.05169
1554.49451	0.05168
1553.20874	0.05172
1551.92297	0.05194
1550.63721	0.05215
1549.35144	0.05233
1548.06567	0.05249
1546.77990	0.05256
1545.49413	0.05258
1544.20836	0.05261
1542.92259	0.05252
1541.63682	0.05213
1540.35105	0.05156
1539.06529	0.05121
1537.77952	0.05113
1536.49375	0.05090
1535.20798	0.05027
1533.92221	0.04959
1532.63644	0.04927
1531.35067	0.04921
1530.06490	0.04913
1528.77914	0.04898
1527.49337	0.04891
1526.20760	0.04907
1524.92183	0.04946
1523.63606	0.04984
1522.35029	0.05015
1521.06452	0.05064
1519.77875	0.05135
1518.49298	0.05198
1517.20722	0.05242
1515.92145	0.05293
1514.63568	0.05362
1513.34991	0.05443
1512.06414	0.05537
1510.77837	0.05648
1509.49260	0.05756
1508.20683	0.05841
1506.92107	0.05922
1505.63530	0.06035
1504.34953	0.06162
1503.06376	0.06260
1501.77799	0.06323
1500.49222	0.06379
1499.20645	0.06444
1497.92068	0.06511
1496.63491	0.06577
1495.34915	0.06649
1494.06338	0.06717
1492.77761	0.06765
1491.49184	0.06801
1490.20607	0.06852
1488.92030	0.06925
1487.63453	0.07005
1486.34876	0.07083
1485.06299	0.07159
1483.77723	0.07236
1482.49146	0.07321
1481.20569	0.07422
1479.91992	0.07537
1478.63415	0.07654
1477.34838	0.07764
1476.06261	0.07866
1474.77684	0.07953
1473.49108	0.08027
1472.20531	0.08104
1470.91954	0.08190
1469.63377	0.08273
1468.34800	0.08339
1467.06223	0.08386
1465.77646	0.08428
1464.49069	0.08480
1463.20492	0.08549
1461.91916	0.08629
1460.63339	0.08703
1459.34762	0.08756
1458.06185	0.08792
1456.77608	0.08841
1455.49031	0.08912
1454.20454	0.08971
1452.91877	0.08994
1451.63301	0.08997
1450.34724	0.09002
1449.06147	0.09007
1447.77570	0.09006
1446.48993	0.08998
1445.20416	0.08975
1443.91839	0.08939
1442.63262	0.08902
1441.34685	0.08877
1440.06109	0.08860
1438.77532	0.08835
1437.48955	0.08806
1436.20378	0.08802
1434.91801	0.08829
1433.63224	0.08866
1432.34647	0.08901
1431.06070	0.08949
1429.77494	0.09028
1428.48917	0.09138
1427.20340	0.09265
1425.91763	0.09401
1424.63186	0.09546
1423.34609	0.09705
1422.06032	0.09857
1420.77455	0.09980
1419.48878	0.10085
1418.20302	0.10195
1416.91725	0.10305
1415.63148	0.10391
1414.34571	0.10447
1413.05994	0.10479
1411.77417	0.10490
1410.48840	0.10482
1409.20263	0.10455
1407.91687	0.10403
1406.63110	0.10320
1405.34533	0.10209
1404.05956	0.10083
1402.77379	0.09943
1401.48802	0.09788
1400.20225	0.09616
1398.91648	0.09437
1397.63071	0.09252
1396.34495	0.09052
1395.05918	0.08840
1393.77341	0.08630
1392.48764	0.08426
1391.20187	0.08221
1389.91610	0.08014
1388.63033	0.07810
1387.34456	0.07621
1386.05880	0.07446
1384.77303	0.07275
1383.48726	0.07104
1382.20149	0.06936
1380.91572	0.06775
1379.62995	0.06617
1378.34418	0.06455
1377.05841	0.06285
1375.77264	0.06103
1374.48688	0.05912
1373.20111	0.05723
1371.91534	0.05540
1370.62957	0.05362
1369.34380	0.05193
1368.05803	0.05037
1366.77226	0.04892
1365.48649	0.04751
1364.20073	0.04612
1362.91496	0.04478
1361.62919	0.04356
1360.34342	0.04243
1359.05765	0.04137
1357.77188	0.04036
1356.48611	0.03944
1355.20034	0.03859
1353.91457	0.03782
1352.62881	0.03712
1351.34304	0.03645
1350.05727	0.03579
1348.77150	0.03514
1347.48573	0.03449
1346.19996	0.03387
1344.91419	0.03329
1343.62842	0.03279
1342.34266	0.03235
1341.05689	0.03196
1339.77112	0.03161
1338.48535	0.03130
1337.19958	0.03097
1335.91381	0.03056
1334.62804	0.03011
1333.34227	0.02968
1332.05650	0.02935
1330.77074	0.02911
1329.48497	0.02892
1328.19920	0.02873
1326.91343	0.02851
1325.62766	0.02827
1324.34189	0.02804
1323.05612	0.02786
1321.77035	0.02771
1320.48459	0.02754
1319.19882	0.02734
1317.91305	0.02714
1316.62728	0.02695
1315.34151	0.02677
1314.05574	0.02657
1312.76997	0.02633
1311.48420	0.02611
1310.19843	0.02594
1308.91267	0.02582
1307.62690	0.02572
1306.34113	0.02556
1305.05536	0.02535
1303.76959	0.02510
1302.48382	0.02484
1301.19805	0.02459
1299.91228	0.02440
1298.62652	0.02428
1297.34075	0.02422
1296.05498	0.02416
1294.76921	0.02406
1293.48344	0.02393
1292.19767	0.02377
1290.91190	0.02361
1289.62613	0.02346
1288.34036	0.02331
1287.05460	0.02316
1285.76883	0.02300
1284.48306	0.02286
1283.19729	0.02275
1281.91152	0.02267
1280.62575	0.02260
1279.33998	0.02253
1278.05421	0.02248
1276.76845	0.02245
1275.48268	0.02246
1274.19691	0.02250
1272.91114	0.02263
1271.62537	0.02293
1270.33960	0.02347
1269.05383	0.02429
1267.76806	0.02537
1266.48229	0.02669
1265.19653	0.02816
1263.91076	0.02959
1262.62499	0.03068
1261.33922	0.03118
1260.05345	0.03100
1258.76768	0.03021
1257.48191	0.02899
1256.19614	0.02755
1254.91037	0.02610
1253.62461	0.02477
1252.33884	0.02361
1251.05307	0.02264
1249.76730	0.02186
1248.48153	0.02129
1247.19576	0.02091
1245.90999	0.02065
1244.62422	0.02043
1243.33846	0.02020
1242.05269	0.01996
1240.76692	0.01973
1239.48115	0.01953
1238.19538	0.01936
1236.90961	0.01922
1235.62384	0.01909
1234.33807	0.01898
1233.05230	0.01887
1231.76654	0.01876
1230.48077	0.01863
1229.19500	0.01848
1227.90923	0.01830
1226.62346	0.01811
1225.33769	0.01793
1224.05192	0.01777
1222.76615	0.01766
1221.48039	0.01758
1220.19462	0.01751
1218.90885	0.01746
1217.62308	0.01744
1216.33731	0.01745
1215.05154	0.01745
1213.76577	0.01739
1212.48000	0.01728
1211.19423	0.01714
1209.90847	0.01701
1208.62270	0.01691
1207.33693	0.01682
1206.05116	0.01675
1204.76539	0.01672
1203.47962	0.01670
1202.19385	0.01666
1200.90808	0.01655
1199.62232	0.01638
1198.33655	0.01628
1197.05078	0.01621
1195.76501	0.01621
1194.47924	0.01625
1193.19347	0.01628
1191.90770	0.01625
1190.62193	0.01616
1189.33616	0.01606
1188.05040	0.01599
1186.76463	0.01595
1185.47886	0.01594
1184.19309	0.01595
1182.90732	0.01593
1181.62155	0.01588
1180.33578	0.01581
1179.05001	0.01578
1177.76425	0.01584
1176.47848	0.01598
1175.19271	0.01612
1173.90694	0.01620
1172.62117	0.01623
1171.33540	0.01627
1170.04963	0.01635
1168.76386	0.01648
1167.47809	0.01665
1166.19233	0.01685
1164.90656	0.01708
1163.62079	0.01732
1162.33502	0.01757
1161.04925	0.01782
1159.76348	0.01804
1158.47771	0.01824
1157.19194	0.01844
1155.90618	0.01869
1154.62041	0.01900
1153.33464	0.01932
1152.04887	0.01960
1150.76310	0.01984
1149.47733	0.02015
1148.19156	0.02063
1146.90579	0.02130
1145.62002	0.02208
1144.33426	0.02288
1143.04849	0.02364
1141.76272	0.02440
1140.47695	0.02523
1139.19118	0.02623
1137.90541	0.02739
1136.61964	0.02867
1135.33387	0.03005
1134.04811	0.03150
1132.76234	0.03304
1131.47657	0.03472
1130.19080	0.03661
1128.90503	0.03885
1127.61926	0.04149
1126.33349	0.04447
1125.04772	0.04762
1123.76195	0.05080
1122.47619	0.05404
1121.19042	0.05743
1119.90465	0.06106
1118.61888	0.06488
1117.33311	0.06873
1116.04734	0.07249
1114.76157	0.07613
1113.47580	0.07969
1112.19004	0.08323
1110.90427	0.08677
1109.61850	0.09034
1108.33273	0.09390
1107.04696	0.09736
1105.76119	0.10065
1104.47542	0.10379
1103.18965	0.10687
1101.90388	0.10990
1100.61812	0.11283
1099.33235	0.11558
1098.04658	0.11814
1096.76081	0.12055
1095.47504	0.12277
1094.18927	0.12479
1092.90350	0.12658
1091.61773	0.12821
1090.33197	0.12972
1089.04620	0.13111
1087.76043	0.13241
1086.47466	0.13369
1085.18889	0.13503
1083.90312	0.13649
1082.61735	0.13807
1081.33158	0.13979
1080.04581	0.14174
1078.76005	0.14398
1077.47428	0.14645
1076.18851	0.14907
1074.90274	0.15178
1073.61697	0.15457
1072.33120	0.15746
1071.04543	0.16045
1069.75966	0.16354
1068.47390	0.16669
1067.18813	0.16994
1065.90236	0.17327
1064.61659	0.17669
1063.33082	0.18011
1062.04505	0.18348
1060.75928	0.18678
1059.47351	0.19006
1058.18774	0.19337
1056.90198	0.19669
1055.61621	0.20003
1054.33044	0.20338
1053.04467	0.20679
1051.75890	0.21029
1050.47313	0.21392
1049.18736	0.21768
1047.90159	0.22153
1046.61583	0.22548
1045.33006	0.22954
1044.04429	0.23373
1042.75852	0.23804
1041.47275	0.24241
1040.18698	0.24677
1038.90121	0.25110
1037.61544	0.25542
1036.32967	0.25972
1035.04391	0.26394
1033.75814	0.26798
1032.47237	0.27180
1031.18660	0.27538
1029.90083	0.27866
1028.61506	0.28158
1027.32929	0.28405
1026.04352	0.28603
1024.75775	0.28754
1023.47199	0.28862
1022.18622	0.28930
1020.90045	0.28958
1019.61468	0.28947
1018.32891	0.28893
1017.04314	0.28789
1015.75737	0.28630
1014.47160	0.28417
1013.18584	0.28154
1011.90007	0.27839
1010.61430	0.27468
1009.32853	0.27042
1008.04276	0.26564
1006.75699	0.26037
1005.47122	0.25458
1004.18545	0.24829
1002.89968	0.24153
1001.61392	0.23444
1000.32815	0.22717
999.04238	0.21979
997.75661	0.21231
996.47084	0.20473
995.18507	0.19707
993.89930	0.18942
992.61353	0.18189
991.32777	0.17456
990.04200	0.16748
988.75623	0.16066
987.47046	0.15416
986.18469	0.14804
984.89892	0.14233
983.61315	0.13697
982.32738	0.13189
981.04161	0.12704
979.75585	0.12246
978.47008	0.11826
977.18431	0.11448
975.89854	0.11110
974.61277	0.10805
973.32700	0.10534
972.04123	0.10312
970.75546	0.10158
969.46970	0.10084
968.18393	0.10084
966.89816	0.10139
965.61239	0.10232
964.32662	0.10338
963.04085	0.10432
961.75508	0.10490
960.46931	0.10493
959.18354	0.10432
957.89778	0.10305
956.61201	0.10112
955.32624	0.09867
954.04047	0.09590
952.75470	0.09311
951.46893	0.09046
950.18316	0.08800
948.89739	0.08565
947.61163	0.08331
946.32586	0.08097
945.04009	0.07864
943.75432	0.07639
942.46855	0.07427
941.18278	0.07231
939.89701	0.07050
938.61124	0.06882
937.32547	0.06722
936.03971	0.06572
934.75394	0.06430
933.46817	0.06295
932.18240	0.06168
930.89663	0.06052
929.61086	0.05950
928.32509	0.05862
927.03932	0.05785
925.75356	0.05711
924.46779	0.05635
923.18202	0.05558
921.89625	0.05483
920.61048	0.05414
919.32471	0.05351
918.03894	0.05289
916.75317	0.05221
915.46740	0.05148
914.18164	0.05079
912.89587	0.05023
911.61010	0.04982
910.32433	0.04947
909.03856	0.04906
907.75279	0.04854
906.46702	0.04800
905.18125	0.04752
903.89549	0.04714
902.60972	0.04683
901.32395	0.04652
900.03818	0.04618
898.75241	0.04580
897.46664	0.04540
896.18087	0.04503
894.89510	0.04475
893.60933	0.04461
892.32357	0.04464
891.03780	0.04484
889.75203	0.04518
888.46626	0.04569
887.18049	0.04643
885.89472	0.04755
884.60895	0.04920
883.32318	0.05143
882.03742	0.05397
880.75165	0.05638
879.46588	0.05831
878.18011	0.05977
876.89434	0.06114
875.60857	0.06274
874.32280	0.06452
873.03703	0.06608
871.75126	0.06696
870.46550	0.06698
869.17973	0.06620
867.89396	0.06480
866.60819	0.06296
865.32242	0.06090
864.03665	0.05879
862.75088	0.05672
861.46511	0.05472
860.17935	0.05291
858.89358	0.05138
857.60781	0.05016
856.32204	0.04914
855.03627	0.04820
853.75050	0.04729
852.46473	0.04646
851.17896	0.04580
849.89319	0.04528
848.60743	0.04486
847.32166	0.04446
846.03589	0.04408
844.75012	0.04376
843.46435	0.04349
842.17858	0.04325
840.89281	0.04301
839.60704	0.04281
838.32128	0.04267
837.03551	0.04255
835.74974	0.04243
834.46397	0.04232
833.17820	0.04223
831.89243	0.04216
830.60666	0.04212
829.32089	0.04216
828.03512	0.04238
826.74936	0.04283
825.46359	0.04346
824.17782	0.04421
822.89205	0.04503
821.60628	0.04584
820.32051	0.04653
819.03474	0.04700
817.74897	0.04727
816.46321	0.04745
815.17744	0.04764
813.89167	0.04790
812.60590	0.04826
811.32013	0.04872
810.03436	0.04928
808.74859	0.04989
807.46282	0.05052
806.17705	0.05114
804.89129	0.05175
803.60552	0.05224
802.31975	0.05250
801.03398	0.05246
799.74821	0.05217
798.46244	0.05175
797.17667	0.05129
795.89090	0.05081
794.60513	0.05026
793.31937	0.04957
792.03360	0.04875
790.74783	0.04783
789.46206	0.04682
788.17629	0.04576
786.89052	0.04468
785.60475	0.04367
784.31898	0.04275
783.03322	0.04195
781.74745	0.04125
780.46168	0.04063
779.17591	0.04006
777.89014	0.03955
776.60437	0.03915
775.31860	0.03887
774.03283	0.03870
772.74706	0.03856
771.46130	0.03841
770.17553	0.03828
768.88976	0.03820
767.60399	0.03816
766.31822	0.03812
765.03245	0.03804
763.74668	0.03793
762.46091	0.03780
761.17515	0.03770
759.88938	0.03766
758.60361	0.03770
757.31784	0.03778
756.03207	0.03783
754.74630	0.03783
753.46053	0.03778
752.17476	0.03772
750.88899	0.03762
749.60323	0.03744
748.31746	0.03720
747.03169	0.03695
745.74592	0.03681
744.46015	0.03679
743.17438	0.03683
741.88861	0.03681
740.60284	0.03672
739.31708	0.03664
738.03131	0.03656
736.74554	0.03643
735.45977	0.03624
734.17400	0.03609
732.88823	0.03607
731.60246	0.03618
730.31669	0.03633
729.03092	0.03645
727.74516	0.03651
726.45939	0.03647
725.17362	0.03631
723.88785	0.03609
722.60208	0.03595
721.31631	0.03600
720.03054	0.03613
718.74477	0.03623
717.45901	0.03634
716.17324	0.03640
714.88747	0.03637
713.60170	0.03627
712.31593	0.03616
711.03016	0.03609
709.74439	0.03607
708.45862	0.03611
707.17285	0.03615
705.88709	0.03617
704.60132	0.03615
703.31555	0.03608
702.02978	0.03600
700.74401	0.03592
699.45824	0.03587
698.17247	0.03584
696.88670	0.03578
695.60094	0.03568
694.31517	0.03552
693.02940	0.03532
691.74363	0.03516
690.45786	0.03506
689.17209	0.03501
687.88632	0.03497
686.60055	0.03487
685.31478	0.03474
684.02902	0.03459
682.74325	0.03445
681.45748	0.03434
680.17171	0.03428
678.88594	0.03428
677.60017	0.03434
676.31440	0.03442
675.02863	0.03443
673.74287	0.03424
672.45710	0.03374
671.17133	0.03320
669.88556	0.03352
668.59979	0.03475
667.31402	0.03478
666.02825	0.03388
664.74248	0.03373
663.45671	0.03393
662.17095	0.03391
660.88518	0.03367
659.59941	0.03340
658.31364	0.03315
657.02787	0.03295
655.74210	0.03280
654.45633	0.03268
653.17056	0.03261
651.88480	0.03261
650.59903	0.03271
649.31326	0.03290
648.02749	0.03314
646.74172	0.03338
645.45595	0.03361
644.17018	0.03382
642.88441	0.03402
641.59864	0.03425
640.31288	0.03450
639.02711	0.03477
637.74134	0.03503
636.45557	0.03530
635.16980	0.03563
633.88403	0.03606
632.59826	0.03662
631.31249	0.03735
630.02673	0.03829
628.74096	0.03905
627.45519	0.03926
626.16942	0.04082
624.88365	0.04369
623.59788	0.04721
622.31211	0.05052
621.02634	0.05270
619.74057	0.05375
618.45481	0.05472
617.16904	0.05652
615.88327	0.05920
614.59750	0.06251
613.31173	0.06646
612.02596	0.07147
610.74019	0.07780
609.45442	0.08498
608.16866	0.09187
606.88289	0.09768
605.59712	0.10238
604.31135	0.10606
603.02558	0.10844
601.73981	0.10916
600.45404	0.10826
599.16827	0.10608
597.88250	0.10304
596.59674	0.09942
595.31097	0.09549
594.02520	0.09161
592.73943	0.08827
591.45366	0.08583
590.16789	0.08439
588.88212	0.08386
587.59635	0.08404
586.31059	0.08482
585.02482	0.08611
583.73905	0.08787
582.45328	0.09008
581.16751	0.09272
579.88174	0.09571
578.59597	0.09888
577.31020	0.10200
576.02443	0.10495
574.73867	0.10775
573.45290	0.11047
572.16713	0.11327
570.88136	0.11633
569.59559	0.11988
568.30982	0.12403
567.02405	0.12870
565.73828	0.13350
564.45251	0.13783
563.16675	0.14109
561.88098	0.14283
560.59521	0.14280
559.30944	0.14087
558.02367	0.13702
556.73790	0.13150
555.45213	0.12483
554.16636	0.11772
552.88060	0.11082
551.59483	0.10449
550.30906	0.09876
549.02329	0.09354
547.73752	0.08872
546.45175	0.08422
545.16598	0.07999
543.88021	0.07610
542.59444	0.07263
541.30868	0.06964
540.02291	0.06702
538.73714	0.06464
537.45137	0.06238
536.16560	0.06021
534.87983	0.05820
533.59406	0.05640
532.30829	0.05479
531.02253	0.05331
529.73676	0.05192
528.45099	0.05064
527.16522	0.04944
525.87945	0.04828
524.59368	0.04716
523.30791	0.04612
522.02214	0.04516
520.73637	0.04425
519.45061	0.04336
518.16484	0.04248
516.87907	0.04158
515.59330	0.04068
514.30753	0.03982
513.02176	0.03904
511.73599	0.03835
510.45022	0.03772
509.16446	0.03714
507.87869	0.03660
506.59292	0.03608
505.30715	0.03556
504.02138	0.03501
502.73561	0.03443
501.44984	0.03387
500.16407	0.03336
498.87830	0.03295
497.59254	0.03266
496.30677	0.03247
495.02100	0.03229
493.73523	0.03207
492.44946	0.03183
491.16369	0.03162
489.87792	0.03143
488.59215	0.03120
487.30639	0.03093
486.02062	0.03067
484.73485	0.03047
483.44908	0.03036
482.16331	0.03033
480.87754	0.03038
479.59177	0.03046
478.30600	0.03059
477.02023	0.03077
475.73447	0.03101
474.44870	0.03127
473.16293	0.03152
471.87716	0.03174
470.59139	0.03187
469.30562	0.03182
468.01985	0.03160
466.73408	0.03129
465.44832	0.03094
464.16255	0.03055
462.87678	0.03010
461.59101	0.02965
460.30524	0.02925
459.01947	0.02889
457.73370	0.02852
456.44793	0.02810
455.16216	0.02765
453.87640	0.02722
452.59063	0.02690
451.30486	0.02667
450.01909	0.02650
448.73332	0.02635
447.44755	0.02624
446.16178	0.02612
444.87601	0.02597
443.59025	0.02580
442.30448	0.02566
441.01871	0.02557
439.73294	0.02550
438.44717	0.02538
437.16140	0.02521
435.87563	0.02501
434.58986	0.02481
433.30409	0.02464
432.01833	0.02458
430.73256	0.02465
429.44679	0.02477
428.16102	0.02483
426.87525	0.02479
425.58948	0.02469
424.30371	0.02461
423.01794	0.02456
421.73218	0.02449
420.44641	0.02439
419.16064	0.02432
417.87487	0.02433
416.58910	0.02433
415.30333	0.02427
414.01756	0.02420
412.73179	0.02422
411.44602	0.02434
410.16026	0.02450
408.87449	0.02468
407.58872	0.02489
406.30295	0.02510
405.01718	0.02530
403.73141	0.02545
402.44564	0.02556
401.15987	0.02562
399.87411	0.02564
