3997.45528	0.04681
3996.16951	0.04670
3994.88374	0.04677
3993.59798	0.04687
3992.31221	0.04680
3991.02644	0.04657
3989.74067	0.04643
3988.45490	0.04664
3987.16913	0.04732
3985.88336	0.04832
3984.59759	0.04935
3983.31183	0.05027
3982.02606	0.05107
3980.74029	0.05165
3979.45452	0.05176
3978.16875	0.05124
3976.88298	0.05026
3975.59721	0.04927
3974.31144	0.04865
3973.02567	0.04838
3971.73991	0.04813
3970.45414	0.04765
3969.16837	0.04704
3967.88260	0.04666
3966.59683	0.04682
3965.31106	0.04745
3964.02529	0.04821
3962.73952	0.04873
3961.45376	0.04890
3960.16799	0.04890
3958.88222	0.04893
3957.59645	0.04892
3956.31068	0.04862
3955.02491	0.04799
3953.73914	0.04726
3952.45337	0.04678
3951.16760	0.04678
3949.88184	0.04728
3948.59607	0.04799
3947.31030	0.04852
3946.02453	0.04867
3944.73876	0.04857
3943.45299	0.04847
3942.16722	0.04847
3940.88145	0.04851
3939.59569	0.04847
3938.30992	0.04828
3937.02415	0.04799
3935.73838	0.04784
3934.45261	0.04799
3933.16684	0.04832
3931.88107	0.04844
3930.59530	0.04809
3929.30953	0.04735
3928.02377	0.04651
3926.73800	0.04580
3925.45223	0.04532
3924.16646	0.04516
3922.88069	0.04538
3921.59492	0.04588
3920.30915	0.04641
3919.02338	0.04679
3917.73762	0.04694
3916.45185	0.04687
3915.16608	0.04674
3913.88031	0.04670
3912.59454	0.04676
3911.30877	0.04678
3910.02300	0.04662
3908.73723	0.04632
3907.45146	0.04600
3906.16570	0.04575
3904.87993	0.04559
3903.59416	0.04558
3902.30839	0.04582
3901.02262	0.04640
3899.73685	0.04718
3898.45108	0.04779
3897.16531	0.04795
3895.87955	0.04769
3894.59378	0.04734
3893.30801	0.04715
3892.02224	0.04708
3890.73647	0.04704
3889.45070	0.04727
3888.16493	0.04808
3886.87916	0.04927
3885.59339	0.05001
3884.30763	0.04975
3883.02186	0.04878
3881.73609	0.04785
3880.45032	0.04738
3879.16455	0.04719
3877.87878	0.04703
3876.59301	0.04686
3875.30724	0.04683
3874.02148	0.04699
3872.73571	0.04732
3871.44994	0.04765
3870.16417	0.04776
3868.87840	0.04761
3867.59263	0.04744
3866.30686	0.04736
3865.02109	0.04712
3863.73532	0.04653
3862.44956	0.04585
3861.16379	0.04544
3859.87802	0.04538
3858.59225	0.04545
3857.30648	0.04552
3856.02071	0.04560
3854.73494	0.04556
3853.44917	0.04518
3852.16341	0.04459
3850.87764	0.04421
3849.59187	0.04427
3848.30610	0.04457
3847.02033	0.04490
3845.73456	0.04522
3844.44879	0.04555
3843.16302	0.04581
3841.87725	0.04588
3840.59149	0.04585
3839.30572	0.04588
3838.01995	0.04591
3836.73418	0.04580
3835.44841	0.04563
3834.16264	0.04568
3832.87687	0.04600
3831.59110	0.04635
3830.30534	0.04642
3829.01957	0.04618
3827.73380	0.04586
3826.44803	0.04573
3825.16226	0.04582
3823.87649	0.04597
3822.59072	0.04600
3821.30495	0.04586
3820.01918	0.04580
3818.73342	0.04605
3817.44765	0.04632
3816.16188	0.04602
3814.87611	0.04502
3813.59034	0.04396
3812.30457	0.04341
3811.01880	0.04343
3809.73303	0.04382
3808.44726	0.04429
3807.16150	0.04437
3805.87573	0.04383
3804.58996	0.04320
3803.30419	0.04329
3802.01842	0.04413
3800.73265	0.04493
3799.44688	0.04506
3798.16111	0.04463
3796.87535	0.04408
3795.58958	0.04376
3794.30381	0.04393
3793.01804	0.04462
3791.73227	0.04551
3790.44650	0.04604
3789.16073	0.04588
3787.87496	0.04524
3786.58919	0.04460
3785.30343	0.04420
3784.01766	0.04391
3782.73189	0.04356
3781.44612	0.04322
3780.16035	0.04295
3778.87458	0.04261
3777.58881	0.04208
3776.30304	0.04153
3775.01728	0.04136
3773.73151	0.04181
3772.44574	0.04265
3771.15997	0.04332
3769.87420	0.04335
3768.58843	0.04278
3767.30266	0.04209
3766.01689	0.04169
3764.73112	0.04171
3763.44536	0.04218
3762.15959	0.04308
3760.87382	0.04422
3759.58805	0.04523
3758.30228	0.04564
3757.01651	0.04523
3755.73074	0.04433
3754.44497	0.04370
3753.15921	0.04381
3751.87344	0.04440
3750.58767	0.04477
3749.30190	0.04439
3748.01613	0.04342
3746.73036	0.04258
3745.44459	0.04232
3744.15882	0.04240
3742.87305	0.04249
3741.58729	0.04259
3740.30152	0.04275
3739.01575	0.04297
3737.72998	0.04325
3736.44421	0.04348
3735.15844	0.04352
3733.87267	0.04336
3732.58690	0.04305
3731.30114	0.04261
3730.01537	0.04217
3728.72960	0.04193
3727.44383	0.04191
3726.15806	0.04194
3724.87229	0.04187
3723.58652	0.04161
3722.30075	0.04112
3721.01498	0.04055
3719.72922	0.04033
3718.44345	0.04086
3717.15768	0.04205
3715.87191	0.04337
3714.58614	0.04425
3713.30037	0.04442
3712.01460	0.04397
3710.72883	0.04319
3709.44307	0.04238
3708.15730	0.04159
3706.87153	0.04079
3705.58576	0.04012
3704.29999	0.03993
3703.01422	0.04035
3701.72845	0.04107
3700.44268	0.04155
3699.15691	0.04148
3697.87115	0.04100
3696.58538	0.04047
3695.29961	0.04024
3694.01384	0.04027
3692.72807	0.04021
3691.44230	0.03991
3690.15653	0.03958
3688.87076	0.03941
3687.58500	0.03935
3686.29923	0.03939
3685.01346	0.03955
3683.72769	0.03982
3682.44192	0.04013
3681.15615	0.04044
3679.87038	0.04082
3678.58461	0.04129
3677.29884	0.04171
3676.01308	0.04169
3674.72731	0.04102
3673.44154	0.04010
3672.15577	0.03965
3670.87000	0.03997
3669.58423	0.04088
3668.29846	0.04205
3667.01269	0.04308
3665.72693	0.04363
3664.44116	0.04366
3663.15539	0.04353
3661.86962	0.04352
3660.58385	0.04352
3659.29808	0.04327
3658.01231	0.04284
3656.72654	0.04245
3655.44077	0.04221
3654.15501	0.04213
3652.86924	0.04232
3651.58347	0.04293
3650.29770	0.04393
3649.01193	0.04501
3647.72616	0.04583
3646.44039	0.04627
3645.15462	0.04640
3643.86886	0.04632
3642.58309	0.04616
3641.29732	0.04616
3640.01155	0.04651
3638.72578	0.04709
3637.44001	0.04747
3636.15424	0.04734
3634.86847	0.04674
3633.58270	0.04599
3632.29694	0.04552
3631.01117	0.04571
3629.72540	0.04650
3628.43963	0.04737
3627.15386	0.04787
3625.86809	0.04797
3624.58232	0.04790
3623.29655	0.04769
3622.01079	0.04728
3620.72502	0.04668
3619.43925	0.04616
3618.15348	0.04601
3616.86771	0.04639
3615.58194	0.04718
3614.29617	0.04806
3613.01040	0.04875
3611.72463	0.04917
3610.43887	0.04948
3609.15310	0.04980
3607.86733	0.05004
3606.58156	0.05009
3605.29579	0.04996
3604.01002	0.04973
3602.72425	0.04952
3601.43848	0.04950
3600.15272	0.04984
3598.86695	0.05055
3597.58118	0.05132
3596.29541	0.05173
3595.00964	0.05166
3593.72387	0.05144
3592.43810	0.05140
3591.15233	0.05158
3589.86656	0.05189
3588.58080	0.05215
3587.29503	0.05225
3586.00926	0.05216
3584.72349	0.05207
3583.43772	0.05226
3582.15195	0.05295
3580.86618	0.05407
3579.58041	0.05522
3578.29464	0.05600
3577.00888	0.05628
3575.72311	0.05631
3574.43734	0.05647
3573.15157	0.05687
3571.86580	0.05736
3570.58003	0.05774
3569.29426	0.05786
3568.00849	0.05769
3566.72273	0.05731
3565.43696	0.05690
3564.15119	0.05667
3562.86542	0.05663
3561.57965	0.05662
3560.29388	0.05656
3559.00811	0.05656
3557.72234	0.05673
3556.43657	0.05702
3555.15081	0.05732
3553.86504	0.05758
3552.57927	0.05777
3551.29350	0.05792
3550.00773	0.05807
3548.72196	0.05833
3547.43619	0.05869
3546.15042	0.05896
3544.86466	0.05895
3543.57889	0.05872
3542.29312	0.05862
3541.00735	0.05895
3539.72158	0.05969
3538.43581	0.06046
3537.15004	0.06084
3535.86427	0.06070
3534.57850	0.06021
3533.29274	0.05965
3532.00697	0.05932
3530.72120	0.05947
3529.43543	0.06018
3528.14966	0.06119
3526.86389	0.06202
3525.57812	0.06229
3524.29235	0.06200
3523.00659	0.06139
3521.72082	0.06072
3520.43505	0.06016
3519.14928	0.05993
3517.86351	0.06024
3516.57774	0.06108
3515.29197	0.06211
3514.00620	0.06290
3512.72043	0.06329
3511.43467	0.06340
3510.14890	0.06338
3508.86313	0.06333
3507.57736	0.06337
3506.29159	0.06374
3505.00582	0.06449
3503.72005	0.06538
3502.43428	0.06592
3501.14852	0.06590
3499.86275	0.06553
3498.57698	0.06522
3497.29121	0.06521
3496.00544	0.06539
3494.71967	0.06554
3493.43390	0.06552
3492.14813	0.06541
3490.86236	0.06534
3489.57660	0.06535
3488.29083	0.06531
3487.00506	0.06513
3485.71929	0.06497
3484.43352	0.06513
3483.14775	0.06577
3481.86198	0.06671
3480.57621	0.06759
3479.29045	0.06806
3478.00468	0.06802
3476.71891	0.06764
3475.43314	0.06728
3474.14737	0.06722
3472.86160	0.06746
3471.57583	0.06773
3470.29006	0.06784
3469.00429	0.06788
3467.71853	0.06799
3466.43276	0.06820
3465.14699	0.06848
3463.86122	0.06886
3462.57545	0.06940
3461.28968	0.06996
3460.00391	0.07028
3458.71814	0.07022
3457.43238	0.06993
3456.14661	0.06967
3454.86084	0.06959
3453.57507	0.06965
3452.28930	0.06973
3451.00353	0.06982
3449.71776	0.06999
3448.43199	0.07031
3447.14622	0.07071
3445.86046	0.07099
3444.57469	0.07101
3443.28892	0.07081
3442.00315	0.07061
3440.71738	0.07060
3439.43161	0.07089
3438.14584	0.07147
3436.86007	0.07218
3435.57431	0.07284
3434.28854	0.07340
3433.00277	0.07396
3431.71700	0.07463
3430.43123	0.07527
3429.14546	0.07558
3427.85969	0.07527
3426.57392	0.07435
3425.28815	0.07317
3424.00239	0.07224
3422.71662	0.07190
3421.43085	0.07220
3420.14508	0.07290
3418.85931	0.07372
3417.57354	0.07437
3416.28777	0.07463
3415.00200	0.07442
3413.71624	0.07393
3412.43047	0.07344
3411.14470	0.07319
3409.85893	0.07318
3408.57316	0.07333
3407.28739	0.07360
3406.00162	0.07392
3404.71585	0.07416
3403.43008	0.07421
3402.14432	0.07407
3400.85855	0.07392
3399.57278	0.07390
3398.28701	0.07402
3397.00124	0.07421
3395.71547	0.07438
3394.42970	0.07449
3393.14393	0.07453
3391.85817	0.07458
3390.57240	0.07472
3389.28663	0.07500
3388.00086	0.07542
3386.71509	0.07587
3385.42932	0.07616
3384.14355	0.07613
3382.85778	0.07581
3381.57201	0.07539
3380.28625	0.07506
3379.00048	0.07493
3377.71471	0.07502
3376.42894	0.07525
3375.14317	0.07548
3373.85740	0.07553
3372.57163	0.07532
3371.28586	0.07496
3370.00010	0.07468
3368.71433	0.07465
3367.42856	0.07482
3366.14279	0.07500
3364.85702	0.07512
3363.57125	0.07525
3362.28548	0.07547
3360.99971	0.07574
3359.71394	0.07604
3358.42818	0.07641
3357.14241	0.07683
3355.85664	0.07714
3354.57087	0.07720
3353.28510	0.07699
3351.99933	0.07662
3350.71356	0.07623
3349.42779	0.07589
3348.14202	0.07565
3346.85626	0.07554
3345.57049	0.07561
3344.28472	0.07585
3342.99895	0.07613
3341.71318	0.07631
3340.42741	0.07635
3339.14164	0.07631
3337.85587	0.07626
3336.57011	0.07620
3335.28434	0.07617
3333.99857	0.07620
3332.71280	0.07630
3331.42703	0.07644
3330.14126	0.07654
3328.85549	0.07650
3327.56972	0.07623
3326.28395	0.07576
3324.99819	0.07535
3323.71242	0.07530
3322.42665	0.07567
3321.14088	0.07617
3319.85511	0.07638
3318.56934	0.07611
3317.28357	0.07554
3315.99780	0.07502
3314.71204	0.07480
3313.42627	0.07480
3312.14050	0.07490
3310.85473	0.07510
3309.56896	0.07550
3308.28319	0.07606
3306.99742	0.07661
3305.71165	0.07696
3304.42588	0.07705
3303.14012	0.07688
3301.85435	0.07648
3300.56858	0.07597
3299.28281	0.07555
3297.99704	0.07540
3296.71127	0.07553
3295.42550	0.07580
3294.13973	0.07603
3292.85397	0.07618
3291.56820	0.07625
3290.28243	0.07624
3288.99666	0.07615
3287.71089	0.07596
3286.42512	0.07567
3285.13935	0.07534
3283.85358	0.07512
3282.56781	0.07514
3281.28205	0.07532
3279.99628	0.07546
3278.71051	0.07550
3277.42474	0.07552
3276.13897	0.07560
3274.85320	0.07569
3273.56743	0.07573
3272.28166	0.07571
3270.99590	0.07562
3269.71013	0.07548
3268.42436	0.07527
3267.13859	0.07505
3265.85282	0.07491
3264.56705	0.07490
3263.28128	0.07491
3261.99551	0.07481
3260.70974	0.07465
3259.42398	0.07470
3258.13821	0.07510
3256.85244	0.07565
3255.56667	0.07597
3254.28090	0.07585
3252.99513	0.07543
3251.70936	0.07498
3250.42359	0.07464
3249.13783	0.07444
3247.85206	0.07430
3246.56629	0.07412
3245.28052	0.07386
3243.99475	0.07361
3242.70898	0.07351
3241.42321	0.07365
3240.13744	0.07389
3238.85167	0.07401
3237.56591	0.07388
3236.28014	0.07352
3234.99437	0.07308
3233.70860	0.07275
3232.42283	0.07269
3231.13706	0.07301
3229.85129	0.07362
3228.56552	0.07427
3227.27976	0.07470
3225.99399	0.07486
3224.70822	0.07480
3223.42245	0.07450
3222.13668	0.07390
3220.85091	0.07313
3219.56514	0.07251
3218.27937	0.07231
3216.99360	0.07245
3215.70784	0.07269
3214.42207	0.07283
3213.13630	0.07283
3211.85053	0.07275
3210.56476	0.07263
3209.27899	0.07257
3207.99322	0.07263
3206.70745	0.07278
3205.42169	0.07287
3204.13592	0.07273
3202.85015	0.07236
3201.56438	0.07195
3200.27861	0.07172
3198.99284	0.07174
3197.70707	0.07188
3196.42130	0.07196
3195.13553	0.07183
3193.84977	0.07147
3192.56400	0.07108
3191.27823	0.07089
3189.99246	0.07096
3188.70669	0.07110
3187.42092	0.07111
3186.13515	0.07096
3184.84938	0.07080
3183.56362	0.07075
3182.27785	0.07086
3180.99208	0.07102
3179.70631	0.07106
3178.42054	0.07087
3177.13477	0.07057
3175.84900	0.07042
3174.56323	0.07050
3173.27746	0.07064
3171.99170	0.07060
3170.70593	0.07029
3169.42016	0.06988
3168.13439	0.06963
3166.84862	0.06959
3165.56285	0.06969
3164.27708	0.06978
3162.99131	0.06984
3161.70555	0.06989
3160.41978	0.06998
3159.13401	0.07009
3157.84824	0.07015
3156.56247	0.07008
3155.27670	0.06992
3153.99093	0.06978
3152.70516	0.06972
3151.41939	0.06968
3150.13363	0.06964
3148.84786	0.06961
3147.56209	0.06960
3146.27632	0.06955
3144.99055	0.06938
3143.70478	0.06914
3142.41901	0.06891
3141.13324	0.06870
3139.84748	0.06849
3138.56171	0.06828
3137.27594	0.06813
3135.99017	0.06810
3134.70440	0.06818
3133.41863	0.06826
3132.13286	0.06816
3130.84709	0.06784
3129.56132	0.06737
3128.27556	0.06686
3126.98979	0.06637
3125.70402	0.06592
3124.41825	0.06564
3123.13248	0.06554
3121.84671	0.06548
3120.56094	0.06528
3119.27517	0.06502
3117.98940	0.06494
3116.70364	0.06521
3115.41787	0.06566
3114.13210	0.06594
3112.84633	0.06589
3111.56056	0.06560
3110.27479	0.06535
3108.98902	0.06527
3107.70325	0.06535
3106.41749	0.06545
3105.13172	0.06549
3103.84595	0.06552
3102.56018	0.06556
3101.27441	0.06556
3099.98864	0.06536
3098.70287	0.06489
3097.41710	0.06431
3096.13133	0.06391
3094.84557	0.06387
3093.55980	0.06417
3092.27403	0.06462
3090.98826	0.06502
3089.70249	0.06521
3088.41672	0.06517
3087.13095	0.06504
3085.84518	0.06498
3084.55942	0.06504
3083.27365	0.06516
3081.98788	0.06518
3080.70211	0.06504
3079.41634	0.06474
3078.13057	0.06431
3076.84480	0.06385
3075.55903	0.06348
3074.27326	0.06334
3072.98750	0.06344
3071.70173	0.06367
3070.41596	0.06386
3069.13019	0.06388
3067.84442	0.06369
3066.55865	0.06331
3065.27288	0.06283
3063.98711	0.06241
3062.70135	0.06223
3061.41558	0.06234
3060.12981	0.06262
3058.84404	0.06287
3057.55827	0.06294
3056.27250	0.06285
3054.98673	0.06274
3053.70096	0.06275
3052.41519	0.06290
3051.12943	0.06308
3049.84366	0.06304
3048.55789	0.06269
3047.27212	0.06220
3045.98635	0.06189
3044.70058	0.06191
3043.41481	0.06209
3042.12904	0.06213
3040.84328	0.06191
3039.55751	0.06157
3038.27174	0.06135
3036.98597	0.06131
3035.70020	0.06125
3034.41443	0.06105
3033.12866	0.06078
3031.84289	0.06063
3030.55712	0.06067
3029.27136	0.06082
3027.98559	0.06096
3026.69982	0.06105
3025.41405	0.06107
3024.12828	0.06096
3022.84251	0.06066
3021.55674	0.06022
3020.27097	0.05986
3018.98521	0.05977
3017.69944	0.05995
3016.41367	0.06015
3015.12790	0.06006
3013.84213	0.05963
3012.55636	0.05908
3011.27059	0.05872
3009.98482	0.05869
3008.69905	0.05883
3007.41329	0.05889
3006.12752	0.05880
3004.84175	0.05872
3003.55598	0.05874
3002.27021	0.05874
3000.98444	0.05855
2999.69867	0.05812
2998.41290	0.05768
2997.12714	0.05753
2995.84137	0.05774
2994.55560	0.05821
2993.26983	0.05870
2991.98406	0.05903
2990.69829	0.05912
2989.41252	0.05906
2988.12675	0.05909
2986.84098	0.05937
2985.55522	0.05987
2984.26945	0.06037
2982.98368	0.06073
2981.69791	0.06102
2980.41214	0.06141
2979.12637	0.06200
2977.84060	0.06268
2976.55483	0.06341
2975.26907	0.06427
2973.98330	0.06538
2972.69753	0.06675
2971.41176	0.06822
2970.12599	0.06962
2968.84022	0.07086
2967.55445	0.07203
2966.26868	0.07328
2964.98291	0.07469
2963.69715	0.07615
2962.41138	0.07754
2961.12561	0.07887
2959.83984	0.08028
2958.55407	0.08171
2957.26830	0.08298
2955.98253	0.08394
2954.69676	0.08464
2953.41100	0.08520
2952.12523	0.08572
2950.83946	0.08616
2949.55369	0.08640
2948.26792	0.08642
2946.98215	0.08629
2945.69638	0.08612
2944.41061	0.08591
2943.12484	0.08570
2941.83908	0.08559
2940.55331	0.08576
2939.26754	0.08627
2937.98177	0.08710
2936.69600	0.08817
2935.41023	0.08936
2934.12446	0.09057
2932.83869	0.09169
2931.55293	0.09263
2930.26716	0.09337
2928.98139	0.09404
2927.69562	0.09487
2926.40985	0.09584
2925.12408	0.09670
2923.83831	0.09723
2922.55254	0.09743
2921.26677	0.09736
2919.98101	0.09696
2918.69524	0.09613
2917.40947	0.09497
2916.12370	0.09367
2914.83793	0.09242
2913.55216	0.09136
2912.26639	0.09056
2910.98062	0.08997
2909.69486	0.08943
2908.40909	0.08877
2907.12332	0.08790
2905.83755	0.08688
2904.55178	0.08582
2903.26601	0.08485
2901.98024	0.08402
2900.69447	0.08329
2899.40870	0.08259
2898.12294	0.08188
2896.83717	0.08116
2895.55140	0.08045
2894.26563	0.07973
2892.97986	0.07896
2891.69409	0.07816
2890.40832	0.07735
2889.12255	0.07647
2887.83678	0.07551
2886.55102	0.07453
2885.26525	0.07368
2883.97948	0.07301
2882.69371	0.07247
2881.40794	0.07207
2880.12217	0.07197
2878.83640	0.07231
2877.55063	0.07296
2876.26487	0.07364
2874.97910	0.07424
2873.69333	0.07482
2872.40756	0.07546
2871.12179	0.07611
2869.83602	0.07665
2868.55025	0.07697
2867.26448	0.07704
2865.97871	0.07696
2864.69295	0.07685
2863.40718	0.07674
2862.12141	0.07653
2860.83564	0.07624
2859.54987	0.07600
2858.26410	0.07587
2856.97833	0.07581
2855.69256	0.07575
2854.40680	0.07569
2853.12103	0.07564
2851.83526	0.07548
2850.54949	0.07506
2849.26372	0.07439
2847.97795	0.07357
2846.69218	0.07268
2845.40641	0.07174
2844.12064	0.07069
2842.83488	0.06952
2841.54911	0.06825
2840.26334	0.06695
2838.97757	0.06570
2837.69180	0.06461
2836.40603	0.06368
2835.12026	0.06280
2833.83449	0.06181
2832.54873	0.06068
2831.26296	0.05959
2829.97719	0.05870
2828.69142	0.05807
2827.40565	0.05760
2826.11988	0.05720
2824.83411	0.05677
2823.54834	0.05627
2822.26257	0.05572
2820.97681	0.05516
2819.69104	0.05461
2818.40527	0.05407
2817.11950	0.05362
2815.83373	0.05335
2814.54796	0.05331
2813.26219	0.05340
2811.97642	0.05346
2810.69066	0.05333
2809.40489	0.05297
2808.11912	0.05246
2806.83335	0.05196
2805.54758	0.05158
2804.26181	0.05135
2802.97604	0.05125
2801.69027	0.05121
2800.40450	0.05113
2799.11874	0.05096
2797.83297	0.05076
2796.54720	0.05065
2795.26143	0.05063
2793.97566	0.05055
2792.68989	0.05033
2791.40412	0.05000
2790.11835	0.04967
2788.83259	0.04937
2787.54682	0.04917
2786.26105	0.04914
2784.97528	0.04927
2783.68951	0.04939
2782.40374	0.04933
2781.11797	0.04908
2779.83220	0.04878
2778.54643	0.04857
2777.26067	0.04842
2775.97490	0.04826
2774.68913	0.04809
2773.40336	0.04799
2772.11759	0.04799
2770.83182	0.04801
2769.54605	0.04800
2768.26028	0.04796
2766.97452	0.04788
2765.68875	0.04776
2764.40298	0.04758
2763.11721	0.04742
2761.83144	0.04730
2760.54567	0.04718
2759.25990	0.04697
2757.97413	0.04666
2756.68836	0.04634
2755.40260	0.04611
2754.11683	0.04596
2752.83106	0.04585
2751.54529	0.04578
2750.25952	0.04576
2748.97375	0.04576
2747.68798	0.04574
2746.40221	0.04570
2745.11645	0.04570
2743.83068	0.04578
2742.54491	0.04586
2741.25914	0.04590
2739.97337	0.04591
2738.68760	0.04596
2737.40183	0.04596
2736.11606	0.04583
2734.83029	0.04561
2733.54453	0.04552
2732.25876	0.04562
2730.97299	0.04579
2729.68722	0.04578
2728.40145	0.04550
2727.11568	0.04505
2725.82991	0.04461
2724.54414	0.04436
2723.25838	0.04440
2721.97261	0.04463
2720.68684	0.04484
2719.40107	0.04490
2718.11530	0.04482
2716.82953	0.04468
2715.54376	0.04456
2714.25799	0.04443
2712.97222	0.04429
2711.68646	0.04414
2710.40069	0.04399
2709.11492	0.04387
2707.82915	0.04376
2706.54338	0.04363
2705.25761	0.04346
2703.97184	0.04331
2702.68607	0.04324
2701.40031	0.04329
2700.11454	0.04342
2698.82877	0.04357
2697.54300	0.04369
2696.25723	0.04375
2694.97146	0.04371
2693.68569	0.04357
2692.39992	0.04338
2691.11415	0.04318
2689.82839	0.04297
2688.54262	0.04276
2687.25685	0.04259
2685.97108	0.04256
2684.68531	0.04269
2683.39954	0.04287
2682.11377	0.04289
2680.82800	0.04267
2679.54224	0.04236
2678.25647	0.04214
2676.97070	0.04214
2675.68493	0.04228
2674.39916	0.04240
2673.11339	0.04241
2671.82762	0.04232
2670.54185	0.04219
2669.25608	0.04206
2667.97032	0.04198
2666.68455	0.04194
2665.39878	0.04188
2664.11301	0.04173
2662.82724	0.04150
2661.54147	0.04128
2660.25570	0.04111
2658.96993	0.04102
2657.68417	0.04098
2656.39840	0.04101
2655.11263	0.04107
2653.82686	0.04107
2652.54109	0.04100
2651.25532	0.04085
2649.96955	0.04072
2648.68378	0.04064
2647.39801	0.04061
2646.11225	0.04059
2644.82648	0.04055
2643.54071	0.04045
2642.25494	0.04030
2640.96917	0.04010
2639.68340	0.03986
2638.39763	0.03961
2637.11186	0.03939
2635.82609	0.03923
2634.54033	0.03905
2633.25456	0.03873
2631.96879	0.03824
2630.68302	0.03773
2629.39725	0.03741
2628.11148	0.03740
2626.82571	0.03772
2625.53994	0.03822
2624.25418	0.03867
2622.96841	0.03883
2621.68264	0.03858
2620.39687	0.03807
2619.11110	0.03752
2617.82533	0.03711
2616.53956	0.03679
2615.25379	0.03645
2613.96802	0.03607
2612.68226	0.03581
2611.39649	0.03577
2610.11072	0.03591
2608.82495	0.03606
2607.53918	0.03616
2606.25341	0.03624
2604.96764	0.03633
2603.68187	0.03634
2602.39611	0.03609
2601.11034	0.03552
2599.82457	0.03476
2598.53880	0.03411
2597.25303	0.03379
2595.96726	0.03388
2594.68149	0.03433
2593.39572	0.03494
2592.10995	0.03544
2590.82419	0.03559
2589.53842	0.03537
2588.25265	0.03499
2586.96688	0.03469
2585.68111	0.03459
2584.39534	0.03469
2583.10957	0.03489
2581.82380	0.03506
2580.53804	0.03516
2579.25227	0.03518
2577.96650	0.03508
2576.68073	0.03474
2575.39496	0.03417
2574.10919	0.03360
2572.82342	0.03321
2571.53765	0.03295
2570.25188	0.03269
2568.96612	0.03250
2567.68035	0.03256
2566.39458	0.03289
2565.10881	0.03329
2563.82304	0.03355
2562.53727	0.03360
2561.25150	0.03350
2559.96573	0.03330
2558.67997	0.03306
2557.39420	0.03284
2556.10843	0.03270
2554.82266	0.03266
2553.53689	0.03264
2552.25112	0.03259
2550.96535	0.03255
2549.67958	0.03265
2548.39381	0.03290
2547.10805	0.03313
2545.82228	0.03309
2544.53651	0.03266
2543.25074	0.03199
2541.96497	0.03141
2540.67920	0.03118
2539.39343	0.03125
2538.10766	0.03135
2536.82190	0.03131
2535.53613	0.03120
2534.25036	0.03115
2532.96459	0.03123
2531.67882	0.03142
2530.39305	0.03161
2529.10728	0.03174
2527.82151	0.03172
2526.53574	0.03157
2525.24998	0.03140
2523.96421	0.03136
2522.67844	0.03148
2521.39267	0.03162
2520.10690	0.03161
2518.82113	0.03142
2517.53536	0.03116
2516.24959	0.03088
2514.96383	0.03056
2513.67806	0.03023
2512.39229	0.02996
2511.10652	0.02984
2509.82075	0.02989
2508.53498	0.03002
2507.24921	0.03018
2505.96344	0.03033
2504.67767	0.03051
2503.39191	0.03074
2502.10614	0.03099
2500.82037	0.03114
2499.53460	0.03110
2498.24883	0.03087
2496.96306	0.03062
2495.67729	0.03053
2494.39152	0.03066
2493.10576	0.03079
2491.81999	0.03066
2490.53422	0.03015
2489.24845	0.02949
2487.96268	0.02908
2486.67691	0.02917
2485.39114	0.02961
2484.10537	0.02992
2482.81960	0.02984
2481.53384	0.02950
2480.24807	0.02917
2478.96230	0.02897
2477.67653	0.02886
2476.39076	0.02879
2475.10499	0.02883
2473.81922	0.02908
2472.53345	0.02956
2471.24769	0.03009
2469.96192	0.03032
2468.67615	0.03006
2467.39038	0.02955
2466.10461	0.02928
2464.81884	0.02954
2463.53307	0.03012
2462.24730	0.03061
2460.96153	0.03089
2459.67577	0.03101
2458.39000	0.03103
2457.10423	0.03088
2455.81846	0.03052
2454.53269	0.02999
2453.24692	0.02940
2451.96115	0.02882
2450.67538	0.02841
2449.38962	0.02827
2448.10385	0.02837
2446.81808	0.02858
2445.53231	0.02887
2444.24654	0.02921
2442.96077	0.02948
2441.67500	0.02949
2440.38923	0.02924
2439.10346	0.02884
2437.81770	0.02841
2436.53193	0.02805
2435.24616	0.02787
2433.96039	0.02794
2432.67462	0.02822
2431.38885	0.02859
2430.10308	0.02896
2428.81731	0.02920
2427.53155	0.02918
2426.24578	0.02887
2424.96001	0.02845
2423.67424	0.02809
2422.38847	0.02781
2421.10270	0.02752
2419.81693	0.02723
2418.53116	0.02712
2417.24539	0.02731
2415.95963	0.02763
2414.67386	0.02781
2413.38809	0.02781
2412.10232	0.02783
2410.81655	0.02803
2409.53078	0.02829
2408.24501	0.02837
2406.95924	0.02820
2405.67347	0.02789
2404.38771	0.02762
2403.10194	0.02742
2401.81617	0.02726
2400.53040	0.02716
2399.24463	0.02711
2397.95886	0.02702
2396.67309	0.02685
2395.38732	0.02667
2394.10156	0.02665
2392.81579	0.02684
2391.53002	0.02715
2390.24425	0.02745
2388.95848	0.02764
2387.67271	0.02772
2386.38694	0.02775
2385.10117	0.02778
2383.81540	0.02779
2382.52964	0.02777
2381.24387	0.02770
2379.95810	0.02759
2378.67233	0.02751
2377.38656	0.02751
2376.10079	0.02758
2374.81502	0.02768
2373.52925	0.02770
2372.24349	0.02757
2370.95772	0.02737
2369.67195	0.02724
2368.38618	0.02722
2367.10041	0.02728
2365.81464	0.02740
2364.52887	0.02755
2363.24310	0.02769
2361.95733	0.02774
2360.67157	0.02764
2359.38580	0.02752
2358.10003	0.02751
2356.81426	0.02765
2355.52849	0.02790
2354.24272	0.02819
2352.95695	0.02838
2351.67118	0.02836
2350.38542	0.02832
2349.09965	0.02843
2347.81388	0.02859
2346.52811	0.02845
2345.24234	0.02821
2343.95657	0.02839
2342.67080	0.02884
2341.38503	0.02880
2340.09926	0.02827
2338.81350	0.02824
2337.52773	0.02872
2336.24196	0.02853
2334.95619	0.02791
2333.67042	0.02815
2332.38465	0.02879
2331.09888	0.02850
2329.81311	0.02805
2328.52735	0.02836
2327.24158	0.02839
2325.95581	0.02829
2324.67004	0.02883
2323.38427	0.02909
2322.09850	0.02877
2320.81273	0.02867
2319.52696	0.02838
2318.24119	0.02793
2316.95543	0.02776
2315.66966	0.02754
2314.38389	0.02741
2313.09812	0.02759
2311.81235	0.02775
2310.52658	0.02791
2309.24081	0.02798
2307.95504	0.02778
2306.66928	0.02740
2305.38351	0.02682
2304.09774	0.02631
2302.81197	0.02603
2301.52620	0.02594
2300.24043	0.02596
2298.95466	0.02601
2297.66889	0.02608
2296.38312	0.02612
2295.09736	0.02602
2293.81159	0.02577
2292.52582	0.02544
2291.24005	0.02520
2289.95428	0.02516
2288.66851	0.02538
2287.38274	0.02582
2286.09697	0.02626
2284.81121	0.02639
2283.52544	0.02599
2282.23967	0.02520
2280.95390	0.02438
2279.66813	0.02388
2278.38236	0.02377
2277.09659	0.02382
2275.81082	0.02378
2274.52505	0.02354
2273.23929	0.02321
2271.95352	0.02289
2270.66775	0.02264
2269.38198	0.02246
2268.09621	0.02245
2266.81044	0.02273
2265.52467	0.02320
2264.23890	0.02346
2262.95314	0.02313
2261.66737	0.02222
2260.38160	0.02111
2259.09583	0.02023
2257.81006	0.01981
2256.52429	0.01987
2255.23852	0.02027
2253.95275	0.02072
2252.66698	0.02090
2251.38122	0.02067
2250.09545	0.02016
2248.80968	0.01974
2247.52391	0.01978
2246.23814	0.02023
2244.95237	0.02068
2243.66660	0.02068
2242.38083	0.02011
2241.09507	0.01924
2239.80930	0.01861
2238.52353	0.01872
2237.23776	0.01952
2235.95199	0.02038
2234.66622	0.02060
2233.38045	0.02003
2232.09468	0.01907
2230.80891	0.01817
2229.52315	0.01765
2228.23738	0.01759
2226.95161	0.01776
2225.66584	0.01781
2224.38007	0.01764
2223.09430	0.01753
2221.80853	0.01773
2220.52276	0.01814
2219.23700	0.01847
2217.95123	0.01863
2216.66546	0.01879
2215.37969	0.01902
2214.09392	0.01905
2212.80815	0.01851
2211.52238	0.01748
2210.23661	0.01653
2208.95084	0.01615
2207.66508	0.01632
2206.37931	0.01670
2205.09354	0.01693
2203.80777	0.01677
2202.52200	0.01613
2201.23623	0.01533
2199.95046	0.01488
2198.66469	0.01499
2197.37893	0.01538
2196.09316	0.01566
2194.80739	0.01580
2193.52162	0.01605
2192.23585	0.01652
2190.95008	0.01683
2189.66431	0.01635
2188.37854	0.01495
2187.09277	0.01331
2185.80701	0.01240
2184.52124	0.01261
2183.23547	0.01333
2181.94970	0.01367
2180.66393	0.01339
2179.37816	0.01303
2178.09239	0.01312
2176.80662	0.01347
2175.52085	0.01350
2174.23509	0.01297
2172.94932	0.01218
2171.66355	0.01144
2170.37778	0.01085
2169.09201	0.01048
2167.80624	0.01050
2166.52047	0.01094
2165.23470	0.01153
2163.94894	0.01180
2162.66317	0.01132
2161.37740	0.01000
2160.09163	0.00835
2158.80586	0.00726
2157.52009	0.00713
2156.23432	0.00759
2154.94855	0.00822
2153.66278	0.00892
2152.37702	0.00952
2151.09125	0.00970
2149.80548	0.00940
2148.51971	0.00903
2147.23394	0.00889
2145.94817	0.00885
2144.66240	0.00873
2143.37663	0.00891
2142.09087	0.00988
2140.80510	0.01151
2139.51933	0.01305
2138.23356	0.01388
2136.94779	0.01399
2135.66202	0.01372
2134.37625	0.01325
2133.09048	0.01264
2131.80471	0.01207
2130.51895	0.01187
2129.23318	0.01224
2127.94741	0.01310
2126.66164	0.01426
2125.37587	0.01547
2124.09010	0.01642
2122.80433	0.01683
2121.51856	0.01667
2120.23280	0.01628
2118.94703	0.01603
2117.66126	0.01601
2116.37549	0.01605
2115.08972	0.01591
2113.80395	0.01556
2112.51818	0.01515
2111.23241	0.01483
2109.94664	0.01451
2108.66088	0.01401
2107.37511	0.01345
2106.08934	0.01322
2104.80357	0.01360
2103.51780	0.01441
2102.23203	0.01519
2100.94626	0.01559
2099.66049	0.01605
2098.37473	0.01586
2097.08896	0.01527
2095.80319	0.01468
2094.51742	0.01421
2093.23165	0.01393
2091.94588	0.01393
2090.66011	0.01420
2089.37434	0.01458
2088.08857	0.01482
2086.80281	0.01475
2085.51704	0.01439
2084.23127	0.01392
2082.94550	0.01354
2081.65973	0.01338
2080.37396	0.01347
2079.08819	0.01380
2077.80242	0.01424
2076.51666	0.01458
2075.23089	0.01471
2073.94512	0.01472
2072.65935	0.01470
2071.37358	0.01453
2070.08781	0.01404
2068.80204	0.01325
2067.51627	0.01241
2066.23050	0.01173
2064.94474	0.01126
2063.65897	0.01091
2062.37320	0.01063
2061.08743	0.01043
2059.80166	0.01032
2058.51589	0.01027
2057.23012	0.01024
2055.94435	0.01032
2054.65859	0.01060
2053.37282	0.01093
2052.08705	0.01103
2050.80128	0.01078
2049.51551	0.01026
2048.22974	0.00963
2046.94397	0.00892
2045.65820	0.00817
2044.37243	0.00755
2043.08667	0.00724
2041.80090	0.00719
2040.51513	0.00721
2039.22936	0.00726
2037.94359	0.00755
2036.65782	0.00817
2035.37205	0.00885
2034.08628	0.00911
2032.80052	0.00861
2031.51475	0.00743
2030.22898	0.00627
2028.94321	0.00598
2027.65744	0.00686
2026.37167	0.00815
2025.08590	0.00874
2023.80013	0.00845
2022.51436	0.00805
2021.22860	0.00817
2019.94283	0.00853
2018.65706	0.00851
2017.37129	0.00807
2016.08552	0.00771
2014.79975	0.00780
2013.51398	0.00825
2012.22821	0.00872
2010.94245	0.00881
2009.65668	0.00829
2008.37091	0.00734
2007.08514	0.00656
2005.79937	0.00643
2004.51360	0.00698
2003.22783	0.00795
2001.94206	0.00907
2000.65629	0.01010
1999.37053	0.01082
1998.08476	0.01112
1996.79899	0.01107
1995.51322	0.01081
1994.22745	0.01041
1992.94168	0.01003
1991.65591	0.00995
1990.37014	0.01032
1989.08438	0.01092
1987.79861	0.01130
1986.51284	0.01131
1985.22707	0.01134
1983.94130	0.01190
1982.65553	0.01294
1981.36976	0.01374
1980.08399	0.01368
1978.79822	0.01296
1977.51246	0.01226
1976.22669	0.01190
1974.94092	0.01153
1973.65515	0.01070
1972.36938	0.00948
1971.08361	0.00831
1969.79784	0.00765
1968.51207	0.00769
1967.22631	0.00841
1965.94054	0.00959
1964.65477	0.01082
1963.36900	0.01164
1962.08323	0.01191
1960.79746	0.01178
1959.51169	0.01158
1958.22592	0.01146
1956.94015	0.01136
1955.65439	0.01111
1954.36862	0.01060
1953.08285	0.00999
1951.79708	0.00967
1950.51131	0.00995
1949.22554	0.01078
1947.93977	0.01180
1946.65400	0.01261
1945.36823	0.01305
1944.08247	0.01317
1942.79670	0.01313
1941.51093	0.01310
1940.22516	0.01317
1938.93939	0.01336
1937.65362	0.01361
1936.36785	0.01388
1935.08208	0.01415
1933.79632	0.01434
1932.51055	0.01432
1931.22478	0.01407
1929.93901	0.01369
1928.65324	0.01340
1927.36747	0.01336
1926.08170	0.01367
1924.79593	0.01426
1923.51016	0.01485
1922.22440	0.01518
1920.93863	0.01521
1919.65286	0.01514
1918.36709	0.01520
1917.08132	0.01544
1915.79555	0.01573
1914.50978	0.01587
1913.22401	0.01577
1911.93825	0.01550
1910.65248	0.01527
1909.36671	0.01525
1908.08094	0.01536
1906.79517	0.01541
1905.50940	0.01532
1904.22363	0.01521
1902.93786	0.01528
1901.65209	0.01554
1900.36633	0.01581
1899.08056	0.01590
1897.79479	0.01577
1896.50902	0.01553
1895.22325	0.01533
1893.93748	0.01524
1892.65171	0.01527
1891.36594	0.01541
1890.08018	0.01558
1888.79441	0.01561
1887.50864	0.01544
1886.22287	0.01515
1884.93710	0.01488
1883.65133	0.01468
1882.36556	0.01453
1881.07979	0.01448
1879.79402	0.01459
1878.50826	0.01485
1877.22249	0.01509
1875.93672	0.01512
1874.65095	0.01497
1873.36518	0.01479
1872.07941	0.01474
1870.79364	0.01483
1869.50787	0.01496
1868.22211	0.01503
1866.93634	0.01503
1865.65057	0.01499
1864.36480	0.01497
1863.07903	0.01501
1861.79326	0.01513
1860.50749	0.01533
1859.22172	0.01554
1857.93595	0.01568
1856.65019	0.01573
1855.36442	0.01569
1854.07865	0.01558
1852.79288	0.01541
1851.50711	0.01524
1850.22134	0.01511
1848.93557	0.01502
1847.64980	0.01499
1846.36404	0.01507
1845.07827	0.01527
1843.79250	0.01549
1842.50673	0.01562
1841.22096	0.01562
1839.93519	0.01547
1838.64942	0.01518
1837.36365	0.01480
1836.07788	0.01453
1834.79212	0.01456
1833.50635	0.01487
1832.22058	0.01531
1830.93481	0.01565
1829.64904	0.01579
1828.36327	0.01582
1827.07750	0.01591
1825.79173	0.01610
1824.50597	0.01625
1823.22020	0.01628
1821.93443	0.01623
1820.64866	0.01618
1819.36289	0.01618
1818.07712	0.01619
1816.79135	0.01621
1815.50558	0.01622
1814.21981	0.01619
1812.93405	0.01608
1811.64828	0.01592
1810.36251	0.01581
1809.07674	0.01585
1807.79097	0.01602
1806.50520	0.01621
1805.21943	0.01631
1803.93366	0.01630
1802.64790	0.01626
1801.36213	0.01624
1800.07636	0.01625
1798.79059	0.01626
1797.50482	0.01624
1796.21905	0.01623
1794.93328	0.01628
1793.64751	0.01638
1792.36174	0.01648
1791.07598	0.01655
1789.79021	0.01658
1788.50444	0.01658
1787.21867	0.01653
1785.93290	0.01647
1784.64713	0.01643
1783.36136	0.01646
1782.07559	0.01655
1780.78983	0.01664
1779.50406	0.01672
1778.21829	0.01680
1776.93252	0.01689
1775.64675	0.01696
1774.36098	0.01698
1773.07521	0.01694
1771.78944	0.01685
1770.50367	0.01682
1769.21791	0.01693
1767.93214	0.01714
1766.64637	0.01732
1765.36060	0.01745
1764.07483	0.01756
1762.78906	0.01764
1761.50329	0.01766
1760.21752	0.01762
1758.93176	0.01759
1757.64599	0.01760
1756.36022	0.01761
1755.07445	0.01759
1753.78868	0.01758
1752.50291	0.01759
1751.21714	0.01757
1749.93137	0.01750
1748.64560	0.01743
1747.35984	0.01742
1746.07407	0.01746
1744.78830	0.01752
1743.50253	0.01758
1742.21676	0.01768
1740.93099	0.01782
1739.64522	0.01795
1738.35945	0.01805
1737.07369	0.01818
1735.78792	0.01841
1734.50215	0.01863
1733.21638	0.01870
1731.93061	0.01864
1730.64484	0.01861
1729.35907	0.01868
1728.07330	0.01880
1726.78753	0.01893
1725.50177	0.01903
1724.21600	0.01911
1722.93023	0.01917
1721.64446	0.01925
1720.35869	0.01939
1719.07292	0.01962
1717.78715	0.01987
1716.50138	0.02007
1715.21561	0.02025
1713.92985	0.02045
1712.64408	0.02074
1711.35831	0.02110
1710.07254	0.02153
1708.78677	0.02198
1707.50100	0.02240
1706.21523	0.02274
1704.92946	0.02297
1703.64370	0.02315
1702.35793	0.02341
1701.07216	0.02375
1699.78639	0.02406
1698.50062	0.02436
1697.21485	0.02474
1695.92908	0.02515
1694.64331	0.02541
1693.35754	0.02556
1692.07178	0.02572
1690.78601	0.02589
1689.50024	0.02603
1688.21447	0.02619
1686.92870	0.02651
1685.64293	0.02696
1684.35716	0.02735
1683.07139	0.02757
1681.78563	0.02774
1680.49986	0.02799
1679.21409	0.02831
1677.92832	0.02869
1676.64255	0.02911
1675.35678	0.02947
1674.07101	0.02974
1672.78524	0.02998
1671.49947	0.03029
1670.21371	0.03067
1668.92794	0.03104
1667.64217	0.03138
1666.35640	0.03175
1665.07063	0.03219
1663.78486	0.03263
1662.49909	0.03296
1661.21332	0.03318
1659.92756	0.03336
1658.64179	0.03358
1657.35602	0.03385
1656.07025	0.03422
1654.78448	0.03469
1653.49871	0.03506
1652.21294	0.03511
1650.92717	0.03492
1649.64140	0.03482
1648.35564	0.03497
1647.06987	0.03523
1645.78410	0.03540
1644.49833	0.03542
1643.21256	0.03536
1641.92679	0.03530
1640.64102	0.03528
1639.35525	0.03530
1638.06949	0.03536
1636.78372	0.03539
1635.49795	0.03528
1634.21218	0.03505
1632.92641	0.03486
1631.64064	0.03482
1630.35487	0.03489
1629.06910	0.03494
1627.78333	0.03494
1626.49757	0.03492
1625.21180	0.03494
1623.92603	0.03499
1622.64026	0.03498
1621.35449	0.03489
1620.06872	0.03484
1618.78295	0.03494
1617.49718	0.03512
1616.21142	0.03524
1614.92565	0.03525
1613.63988	0.03527
1612.35411	0.03542
1611.06834	0.03566
1609.78257	0.03588
1608.49680	0.03602
1607.21103	0.03610
1605.92526	0.03620
1604.63950	0.03639
1603.35373	0.03667
1602.06796	0.03699
1600.78219	0.03728
1599.49642	0.03750
1598.21065	0.03769
1596.92488	0.03790
1595.63911	0.03818
1594.35335	0.03853
1593.06758	0.03891
1591.78181	0.03927
1590.49604	0.03961
1589.21027	0.03999
1587.92450	0.04043
1586.63873	0.04091
1585.35296	0.04137
1584.06719	0.04182
1582.78143	0.04226
1581.49566	0.04273
1580.20989	0.04325
1578.92412	0.04384
1577.63835	0.04449
1576.35258	0.04512
1575.06681	0.04564
1573.78104	0.04610
1572.49528	0.04665
1571.20951	0.04729
1569.92374	0.04794
1568.63797	0.04853
1567.35220	0.04906
1566.06643	0.04957
1564.78066	0.05005
1563.49489	0.05052
1562.20912	0.05111
1560.92336	0.05187
1559.63759	0.05266
1558.35182	0.05326
1557.06605	0.05363
1555.78028	0.05393
1554.49451	0.05428
1553.20874	0.05468
1551.92297	0.05510
1550.63721	0.05551
1549.35144	0.05583
1548.06567	0.05601
1546.77990	0.05606
1545.49413	0.05604
1544.20836	0.05600
1542.92259	0.05595
1541.63682	0.05592
1540.35105	0.05582
1539.06529	0.05555
1537.77952	0.05516
1536.49375	0.05484
1535.20798	0.05468
1533.92221	0.05463
1532.63644	0.05457
1531.35067	0.05453
1530.06490	0.05461
1528.77914	0.05489
1527.49337	0.05534
1526.20760	0.05589
1524.92183	0.05649
1523.63606	0.05717
1522.35029	0.05790
1521.06452	0.05862
1519.77875	0.05930
1518.49298	0.06004
1517.20722	0.06090
1515.92145	0.06186
1514.63568	0.06292
1513.34991	0.06409
1512.06414	0.06536
1510.77837	0.06671
1509.49260	0.06820
1508.20683	0.06980
1506.92107	0.07137
1505.63530	0.07270
1504.34953	0.07376
1503.06376	0.07474
1501.77799	0.07578
1500.49222	0.07686
1499.20645	0.07791
1497.92068	0.07890
1496.63491	0.07979
1495.34915	0.08056
1494.06338	0.08127
1492.77761	0.08202
1491.49184	0.08286
1490.20607	0.08373
1488.92030	0.08459
1487.63453	0.08548
1486.34876	0.08646
1485.06299	0.08756
1483.77723	0.08877
1482.49146	0.09002
1481.20569	0.09126
1479.91992	0.09246
1478.63415	0.09363
1477.34838	0.09478
1476.06261	0.09588
1474.77684	0.09694
1473.49108	0.09796
1472.20531	0.09894
1470.91954	0.09982
1469.63377	0.10062
1468.34800	0.10136
1467.06223	0.10205
1465.77646	0.10270
1464.49069	0.10330
1463.20492	0.10384
1461.91916	0.10435
1460.63339	0.10493
1459.34762	0.10563
1458.06185	0.10642
1456.77608	0.10716
1455.49031	0.10777
1454.20454	0.10831
1452.91877	0.10886
1451.63301	0.10940
1450.34724	0.10987
1449.06147	0.11024
1447.77570	0.11055
1446.48993	0.11077
1445.20416	0.11086
1443.91839	0.11078
1442.63262	0.11049
1441.34685	0.11008
1440.06109	0.10968
1438.77532	0.10940
1437.48955	0.10927
1436.20378	0.10922
1434.91801	0.10928
1433.63224	0.10955
1432.34647	0.11009
1431.06070	0.11086
1429.77494	0.11182
1428.48917	0.11294
1427.20340	0.11424
1425.91763	0.11569
1424.63186	0.11721
1423.34609	0.11877
1422.06032	0.12036
1420.77455	0.12194
1419.48878	0.12340
1418.20302	0.12465
1416.91725	0.12566
1415.63148	0.12649
1414.34571	0.12718
1413.05994	0.12771
1411.77417	0.12804
1410.48840	0.12813
1409.20263	0.12791
1407.91687	0.12737
1406.63110	0.12656
1405.34533	0.12554
1404.05956	0.12435
1402.77379	0.12295
1401.48802	0.12134
1400.20225	0.11952
1398.91648	0.11753
1397.63071	0.11543
1396.34495	0.11329
1395.05918	0.11112
1393.77341	0.10887
1392.48764	0.10653
1391.20187	0.10417
1389.91610	0.10187
1388.63033	0.09969
1387.34456	0.09759
1386.05880	0.09553
1384.77303	0.09347
1383.48726	0.09145
1382.20149	0.08945
1380.91572	0.08744
1379.62995	0.08538
1378.34418	0.08323
1377.05841	0.08101
1375.77264	0.07870
1374.48688	0.07630
1373.20111	0.07377
1371.91534	0.07111
1370.62957	0.06844
1369.34380	0.06589
1368.05803	0.06357
1366.77226	0.06147
1365.48649	0.05952
1364.20073	0.05766
1362.91496	0.05581
1361.62919	0.05399
1360.34342	0.05226
1359.05765	0.05069
1357.77188	0.04929
1356.48611	0.04801
1355.20034	0.04679
1353.91457	0.04564
1352.62881	0.04458
1351.34304	0.04360
1350.05727	0.04267
1348.77150	0.04177
1347.48573	0.04091
1346.19996	0.04010
1344.91419	0.03936
1343.62842	0.03869
1342.34266	0.03808
1341.05689	0.03753
1339.77112	0.03703
1338.48535	0.03657
1337.19958	0.03613
1335.91381	0.03567
1334.62804	0.03520
1333.34227	0.03471
1332.05650	0.03425
1330.77074	0.03383
1329.48497	0.03344
1328.19920	0.03306
1326.91343	0.03270
1325.62766	0.03238
1324.34189	0.03212
1323.05612	0.03189
1321.77035	0.03167
1320.48459	0.03143
1319.19882	0.03120
1317.91305	0.03097
1316.62728	0.03074
1315.34151	0.03048
1314.05574	0.03018
1312.76997	0.02987
1311.48420	0.02958
1310.19843	0.02932
1308.91267	0.02912
1307.62690	0.02893
1306.34113	0.02872
1305.05536	0.02848
1303.76959	0.02825
1302.48382	0.02804
1301.19805	0.02785
1299.91228	0.02763
1298.62652	0.02735
1297.34075	0.02704
1296.05498	0.02676
1294.76921	0.02655
1293.48344	0.02642
1292.19767	0.02631
1290.91190	0.02619
1289.62613	0.02602
1288.34036	0.02581
1287.05460	0.02556
1285.76883	0.02530
1284.48306	0.02504
1283.19729	0.02477
1281.91152	0.02451
1280.62575	0.02429
1279.33998	0.02413
1278.05421	0.02404
1276.76845	0.02401
1275.48268	0.02398
1274.19691	0.02389
1272.91114	0.02374
1271.62537	0.02355
1270.33960	0.02337
1269.05383	0.02319
1267.76806	0.02301
1266.48229	0.02283
1265.19653	0.02268
1263.91076	0.02256
1262.62499	0.02247
1261.33922	0.02240
1260.05345	0.02234
1258.76768	0.02227
1257.48191	0.02218
1256.19614	0.02207
1254.91037	0.02196
1253.62461	0.02186
1252.33884	0.02178
1251.05307	0.02167
1249.76730	0.02154
1248.48153	0.02139
1247.19576	0.02124
1245.90999	0.02113
1244.62422	0.02104
1243.33846	0.02095
1242.05269	0.02086
1240.76692	0.02076
1239.48115	0.02063
1238.19538	0.02051
1236.90961	0.02041
1235.62384	0.02032
1234.33807	0.02025
1233.05230	0.02018
1231.76654	0.02010
1230.48077	0.02000
1229.19500	0.01986
1227.90923	0.01969
1226.62346	0.01951
1225.33769	0.01935
1224.05192	0.01922
1222.76615	0.01912
1221.48039	0.01903
1220.19462	0.01896
1218.90885	0.01890
1217.62308	0.01883
1216.33731	0.01875
1215.05154	0.01867
1213.76577	0.01861
1212.48000	0.01857
1211.19423	0.01852
1209.90847	0.01846
1208.62270	0.01839
1207.33693	0.01831
1206.05116	0.01824
1204.76539	0.01818
1203.47962	0.01818
1202.19385	0.01822
1200.90808	0.01825
1199.62232	0.01819
1198.33655	0.01816
1197.05078	0.01810
1195.76501	0.01803
1194.47924	0.01799
1193.19347	0.01799
1191.90770	0.01801
1190.62193	0.01799
1189.33616	0.01791
1188.05040	0.01779
1186.76463	0.01769
1185.47886	0.01767
1184.19309	0.01770
1182.90732	0.01774
1181.62155	0.01772
1180.33578	0.01766
1179.05001	0.01760
1177.76425	0.01757
1176.47848	0.01760
1175.19271	0.01766
1173.90694	0.01775
1172.62117	0.01785
1171.33540	0.01795
1170.04963	0.01802
1168.76386	0.01810
1167.47809	0.01821
1166.19233	0.01835
1164.90656	0.01848
1163.62079	0.01860
1162.33502	0.01873
1161.04925	0.01888
1159.76348	0.01907
1158.47771	0.01931
1157.19194	0.01961
1155.90618	0.01994
1154.62041	0.02020
1153.33464	0.02041
1152.04887	0.02062
1150.76310	0.02091
1149.47733	0.02129
1148.19156	0.02172
1146.90579	0.02219
1145.62002	0.02275
1144.33426	0.02345
1143.04849	0.02426
1141.76272	0.02514
1140.47695	0.02605
1139.19118	0.02704
1137.90541	0.02815
1136.61964	0.02941
1135.33387	0.03078
1134.04811	0.03223
1132.76234	0.03380
1131.47657	0.03558
1130.19080	0.03760
1128.90503	0.03985
1127.61926	0.04229
1126.33349	0.04492
1125.04772	0.04777
1123.76195	0.05085
1122.47619	0.05408
1121.19042	0.05738
1119.90465	0.06069
1118.61888	0.06401
1117.33311	0.06733
1116.04734	0.07062
1114.76157	0.07388
1113.47580	0.07712
1112.19004	0.08032
1110.90427	0.08349
1109.61850	0.08661
1108.33273	0.08965
1107.04696	0.09254
1105.76119	0.09524
1104.47542	0.09778
1103.18965	0.10026
1101.90388	0.10275
1100.61812	0.10525
1099.33235	0.10767
1098.04658	0.10989
1096.76081	0.11189
1095.47504	0.11375
1094.18927	0.11556
1092.90350	0.11740
1091.61773	0.11923
1090.33197	0.12098
1089.04620	0.12260
1087.76043	0.12409
1086.47466	0.12547
1085.18889	0.12685
1083.90312	0.12832
1082.61735	0.12994
1081.33158	0.13169
1080.04581	0.13355
1078.76005	0.13554
1077.47428	0.13765
1076.18851	0.13985
1074.90274	0.14213
1073.61697	0.14453
1072.33120	0.14709
1071.04543	0.14977
1069.75966	0.15247
1068.47390	0.15510
1067.18813	0.15770
1065.90236	0.16036
1064.61659	0.16309
1063.33082	0.16586
1062.04505	0.16865
1060.75928	0.17147
1059.47351	0.17434
1058.18774	0.17722
1056.90198	0.18005
1055.61621	0.18279
1054.33044	0.18541
1053.04467	0.18799
1051.75890	0.19059
1050.47313	0.19326
1049.18736	0.19603
1047.90159	0.19885
1046.61583	0.20173
1045.33006	0.20467
1044.04429	0.20769
1042.75852	0.21081
1041.47275	0.21397
1040.18698	0.21709
1038.90121	0.22017
1037.61544	0.22323
1036.32967	0.22634
1035.04391	0.22948
1033.75814	0.23258
1032.47237	0.23553
1031.18660	0.23823
1029.90083	0.24063
1028.61506	0.24276
1027.32929	0.24467
1026.04352	0.24641
1024.75775	0.24794
1023.47199	0.24917
1022.18622	0.25005
1020.90045	0.25058
1019.61468	0.25084
1018.32891	0.25085
1017.04314	0.25058
1015.75737	0.24994
1014.47160	0.24884
1013.18584	0.24730
1011.90007	0.24538
1010.61430	0.24312
1009.32853	0.24048
1008.04276	0.23740
1006.75699	0.23386
1005.47122	0.22993
1004.18545	0.22569
1002.89968	0.22119
1001.61392	0.21642
1000.32815	0.21139
999.04238	0.20614
997.75661	0.20072
996.47084	0.19515
995.18507	0.18943
993.89930	0.18359
992.61353	0.17774
991.32777	0.17197
990.04200	0.16635
988.75623	0.16086
987.47046	0.15549
986.18469	0.15025
984.89892	0.14519
983.61315	0.14042
982.32738	0.13595
981.04161	0.13173
979.75585	0.12768
978.47008	0.12379
977.18431	0.12010
975.89854	0.11675
974.61277	0.11384
973.32700	0.11143
972.04123	0.10952
970.75546	0.10809
969.46970	0.10711
968.18393	0.10664
966.89816	0.10670
965.61239	0.10723
964.32662	0.10809
963.04085	0.10906
961.75508	0.10992
960.46931	0.11043
959.18354	0.11037
957.89778	0.10960
956.61201	0.10811
955.32624	0.10610
954.04047	0.10379
952.75470	0.10138
951.46893	0.09895
950.18316	0.09647
948.89739	0.09394
947.61163	0.09142
946.32586	0.08901
945.04009	0.08675
943.75432	0.08459
942.46855	0.08243
941.18278	0.08026
939.89701	0.07811
938.61124	0.07608
937.32547	0.07424
936.03971	0.07258
934.75394	0.07102
933.46817	0.06952
932.18240	0.06807
930.89663	0.06670
929.61086	0.06540
928.32509	0.06417
927.03932	0.06306
925.75356	0.06207
924.46779	0.06116
923.18202	0.06025
921.89625	0.05932
920.61048	0.05845
919.32471	0.05767
918.03894	0.05692
916.75317	0.05616
915.46740	0.05538
914.18164	0.05460
912.89587	0.05386
911.61010	0.05319
910.32433	0.05262
909.03856	0.05213
907.75279	0.05169
906.46702	0.05124
905.18125	0.05078
903.89549	0.05031
902.60972	0.04981
901.32395	0.04927
900.03818	0.04872
898.75241	0.04822
897.46664	0.04780
896.18087	0.04748
894.89510	0.04731
893.60933	0.04729
892.32357	0.04736
891.03780	0.04742
889.75203	0.04751
888.46626	0.04776
887.18049	0.04844
885.89472	0.04983
884.60895	0.05214
883.32318	0.05536
882.03742	0.05914
880.75165	0.06285
879.46588	0.06589
878.18011	0.06803
876.89434	0.06956
875.60857	0.07095
874.32280	0.07245
873.03703	0.07388
871.75126	0.07482
870.46550	0.07491
869.17973	0.07408
867.89396	0.07245
866.60819	0.07019
865.32242	0.06748
864.03665	0.06454
862.75088	0.06165
861.46511	0.05902
860.17935	0.05675
858.89358	0.05478
857.60781	0.05308
856.32204	0.05160
855.03627	0.05034
853.75050	0.04928
852.46473	0.04842
851.17896	0.04772
849.89319	0.04710
848.60743	0.04650
847.32166	0.04589
846.03589	0.04531
844.75012	0.04478
843.46435	0.04429
842.17858	0.04382
840.89281	0.04340
839.60704	0.04303
838.32128	0.04269
837.03551	0.04235
835.74974	0.04202
834.46397	0.04173
833.17820	0.04145
831.89243	0.04113
830.60666	0.04075
829.32089	0.04033
828.03512	0.03995
826.74936	0.03964
825.46359	0.03943
824.17782	0.03926
822.89205	0.03911
821.60628	0.03896
820.32051	0.03885
819.03474	0.03880
817.74897	0.03883
816.46321	0.03889
815.17744	0.03891
813.89167	0.03882
812.60590	0.03861
811.32013	0.03831
810.03436	0.03801
808.74859	0.03776
807.46282	0.03761
806.17705	0.03754
804.89129	0.03749
803.60552	0.03742
802.31975	0.03729
801.03398	0.03712
799.74821	0.03693
798.46244	0.03677
797.17667	0.03665
795.89090	0.03654
794.60513	0.03639
793.31937	0.03622
792.03360	0.03608
790.74783	0.03601
789.46206	0.03598
788.17629	0.03593
786.89052	0.03581
785.60475	0.03564
784.31898	0.03549
783.03322	0.03541
781.74745	0.03544
780.46168	0.03552
779.17591	0.03557
777.89014	0.03553
776.60437	0.03540
775.31860	0.03524
774.03283	0.03513
772.74706	0.03507
771.46130	0.03504
770.17553	0.03496
768.88976	0.03481
767.60399	0.03461
766.31822	0.03445
765.03245	0.03442
763.74668	0.03452
762.46091	0.03467
761.17515	0.03476
759.88938	0.03477
758.60361	0.03474
757.31784	0.03473
756.03207	0.03474
754.74630	0.03479
753.46053	0.03488
752.17476	0.03503
750.88899	0.03513
749.60323	0.03510
748.31746	0.03496
747.03169	0.03482
745.74592	0.03475
744.46015	0.03473
743.17438	0.03469
741.88861	0.03454
740.60284	0.03426
739.31708	0.03392
738.03131	0.03366
736.74554	0.03352
735.45977	0.03346
734.17400	0.03335
732.88823	0.03322
731.60246	0.03317
730.31669	0.03322
729.03092	0.03331
727.74516	0.03338
726.45939	0.03346
725.17362	0.03357
723.88785	0.03365
722.60208	0.03364
721.31631	0.03356
720.03054	0.03346
718.74477	0.03339
717.45901	0.03333
716.17324	0.03326
714.88747	0.03315
713.60170	0.03299
712.31593	0.03282
711.03016	0.03269
709.74439	0.03263
708.45862	0.03260
707.17285	0.03255
705.88709	0.03248
704.60132	0.03238
703.31555	0.03228
702.02978	0.03218
700.74401	0.03210
699.45824	0.03204
698.17247	0.03203
696.88670	0.03206
695.60094	0.03213
694.31517	0.03222
693.02940	0.03226
691.74363	0.03220
690.45786	0.03205
689.17209	0.03188
687.88632	0.03176
686.60055	0.03170
685.31478	0.03167
684.02902	0.03162
682.74325	0.03153
681.45748	0.03140
680.17171	0.03127
678.88594	0.03118
677.60017	0.03113
676.31440	0.03112
675.02863	0.03113
673.74287	0.03115
672.45710	0.03116
671.17133	0.03119
669.88556	0.03126
668.59979	0.03138
667.31402	0.03149
666.02825	0.03147
664.74248	0.03133
663.45671	0.03112
662.17095	0.03088
660.88518	0.03065
659.59941	0.03043
658.31364	0.03025
657.02787	0.03011
655.74210	0.03001
654.45633	0.02995
653.17056	0.02993
651.88480	0.02993
650.59903	0.02992
649.31326	0.02985
648.02749	0.02972
646.74172	0.02957
645.45595	0.02952
644.17018	0.02962
642.88441	0.02987
641.59864	0.03014
640.31288	0.03035
639.02711	0.03050
637.74134	0.03066
636.45557	0.03090
635.16980	0.03126
633.88403	0.03167
632.59826	0.03208
631.31249	0.03255
630.02673	0.03339
628.74096	0.03442
627.45519	0.03428
626.16942	0.03548
624.88365	0.03804
623.59788	0.04151
622.31211	0.04549
621.02634	0.04918
619.74057	0.05199
618.45481	0.05404
617.16904	0.05573
615.88327	0.05713
614.59750	0.05838
613.31173	0.06028
612.02596	0.06404
610.74019	0.07003
609.45442	0.07693
608.16866	0.08276
606.88289	0.08670
605.59712	0.08933
604.31135	0.09155
603.02558	0.09360
601.73981	0.09509
600.45404	0.09541
599.16827	0.09427
597.88250	0.09187
596.59674	0.08880
595.31097	0.08578
594.02520	0.08327
592.73943	0.08136
591.45366	0.07992
590.16789	0.07889
588.88212	0.07834
587.59635	0.07836
586.31059	0.07900
585.02482	0.08020
583.73905	0.08180
582.45328	0.08365
581.16751	0.08566
579.88174	0.08775
578.59597	0.08989
577.31020	0.09203
576.02443	0.09420
574.73867	0.09646
573.45290	0.09884
572.16713	0.10130
570.88136	0.10377
569.59559	0.10630
568.30982	0.10910
567.02405	0.11231
565.73828	0.11571
564.45251	0.11884
563.16675	0.12117
561.88098	0.12234
560.59521	0.12211
559.30944	0.12048
558.02367	0.11757
556.73790	0.11368
555.45213	0.10915
554.16636	0.10428
552.88060	0.09931
551.59483	0.09444
550.30906	0.08977
549.02329	0.08535
547.73752	0.08119
546.45175	0.07734
545.16598	0.07389
543.88021	0.07083
542.59444	0.06806
541.30868	0.06547
540.02291	0.06307
538.73714	0.06092
537.45137	0.05903
536.16560	0.05728
534.87983	0.05554
533.59406	0.05376
532.30829	0.05202
531.02253	0.05046
529.73676	0.04912
528.45099	0.04794
527.16522	0.04681
525.87945	0.04566
524.59368	0.04452
523.30791	0.04344
522.02214	0.04248
520.73637	0.04163
519.45061	0.04088
518.16484	0.04018
516.87907	0.03948
515.59330	0.03872
514.30753	0.03788
513.02176	0.03701
511.73599	0.03621
510.45022	0.03556
509.16446	0.03504
507.87869	0.03454
506.59292	0.03395
505.30715	0.03332
504.02138	0.03275
502.73561	0.03232
501.44984	0.03202
500.16407	0.03176
498.87830	0.03147
497.59254	0.03113
496.30677	0.03074
495.02100	0.03031
493.73523	0.02989
492.44946	0.02953
491.16369	0.02925
489.87792	0.02905
488.59215	0.02890
487.30639	0.02877
486.02062	0.02869
484.73485	0.02868
483.44908	0.02872
482.16331	0.02876
480.87754	0.02875
479.59177	0.02867
478.30600	0.02858
477.02023	0.02858
475.73447	0.02878
474.44870	0.02915
473.16293	0.02956
471.87716	0.02989
470.59139	0.03003
469.30562	0.02997
468.01985	0.02974
466.73408	0.02941
465.44832	0.02902
464.16255	0.02863
462.87678	0.02827
461.59101	0.02796
460.30524	0.02771
459.01947	0.02746
457.73370	0.02713
456.44793	0.02670
455.16216	0.02623
453.87640	0.02585
452.59063	0.02559
451.30486	0.02543
450.01909	0.02530
448.73332	0.02518
447.44755	0.02505
446.16178	0.02491
444.87601	0.02476
443.59025	0.02461
442.30448	0.02447
441.01871	0.02435
439.73294	0.02423
438.44717	0.02414
437.16140	0.02406
435.87563	0.02396
434.58986	0.02384
433.30409	0.02372
432.01833	0.02364
430.73256	0.02362
429.44679	0.02362
428.16102	0.02360
426.87525	0.02354
425.58948	0.02345
424.30371	0.02332
423.01794	0.02315
421.73218	0.02299
420.44641	0.02287
419.16064	0.02278
417.87487	0.02271
416.58910	0.02266
415.30333	0.02263
414.01756	0.02258
412.73179	0.02250
411.44602	0.02241
410.16026	0.02233
408.87449	0.02226
407.58872	0.02220
406.30295	0.02216
405.01718	0.02214
403.73141	0.02219
402.44564	0.02232
401.15987	0.02252
399.87411	0.02273
