3997.45528	0.05695
3996.16951	0.05702
3994.88374	0.05694
3993.59798	0.05668
3992.31221	0.05632
3991.02644	0.05581
3989.74067	0.05522
3988.45490	0.05492
3987.16913	0.05523
3985.88336	0.05594
3984.59759	0.05635
3983.31183	0.05598
3982.02606	0.05503
3980.74029	0.05420
3979.45452	0.05405
3978.16875	0.05453
3976.88298	0.05510
3975.59721	0.05534
3974.31144	0.05519
3973.02567	0.05480
3971.73991	0.05424
3970.45414	0.05357
3969.16837	0.05311
3967.88260	0.05327
3966.59683	0.05405
3965.31106	0.05506
3964.02529	0.05578
3962.73952	0.05595
3961.45376	0.05561
3960.16799	0.05494
3958.88222	0.05422
3957.59645	0.05374
3956.31068	0.05373
3955.02491	0.05431
3953.73914	0.05530
3952.45337	0.05625
3951.16760	0.05661
3949.88184	0.05623
3948.59607	0.05554
3947.31030	0.05505
3946.02453	0.05499
3944.73876	0.05523
3943.45299	0.05546
3942.16722	0.05536
3940.88145	0.05470
3939.59569	0.05377
3938.30992	0.05324
3937.02415	0.05356
3935.73838	0.05444
3934.45261	0.05521
3933.16684	0.05555
3931.88107	0.05564
3930.59530	0.05570
3929.30953	0.05576
3928.02377	0.05572
3926.73800	0.05547
3925.45223	0.05493
3924.16646	0.05416
3922.88069	0.05339
3921.59492	0.05298
3920.30915	0.05313
3919.02338	0.05360
3917.73762	0.05392
3916.45185	0.05385
3915.16608	0.05350
3913.88031	0.05321
3912.59454	0.05322
3911.30877	0.05355
3910.02300	0.05394
3908.73723	0.05411
3907.45146	0.05397
3906.16570	0.05369
3904.87993	0.05347
3903.59416	0.05328
3902.30839	0.05293
3901.02262	0.05235
3899.73685	0.05191
3898.45108	0.05201
3897.16531	0.05248
3895.87955	0.05284
3894.59378	0.05280
3893.30801	0.05253
3892.02224	0.05252
3890.73647	0.05311
3889.45070	0.05393
3888.16493	0.05415
3886.87916	0.05349
3885.59339	0.05259
3884.30763	0.05200
3883.02186	0.05174
3881.73609	0.05174
3880.45032	0.05226
3879.16455	0.05319
3877.87878	0.05372
3876.59301	0.05322
3875.30724	0.05206
3874.02148	0.05122
3872.73571	0.05115
3871.44994	0.05157
3870.16417	0.05225
3868.87840	0.05300
3867.59263	0.05329
3866.30686	0.05278
3865.02109	0.05186
3863.73532	0.05112
3862.44956	0.05073
3861.16379	0.05063
3859.87802	0.05079
3858.59225	0.05104
3857.30648	0.05094
3856.02071	0.05030
3854.73494	0.04975
3853.44917	0.05025
3852.16341	0.05174
3850.87764	0.05305
3849.59187	0.05325
3848.30610	0.05245
3847.02033	0.05120
3845.73456	0.05003
3844.44879	0.04934
3843.16302	0.04934
3841.87725	0.04988
3840.59149	0.05042
3839.30572	0.05066
3838.01995	0.05082
3836.73418	0.05125
3835.44841	0.05178
3834.16264	0.05187
3832.87687	0.05133
3831.59110	0.05048
3830.30534	0.04985
3829.01957	0.04972
3827.73380	0.04996
3826.44803	0.05019
3825.16226	0.05002
3823.87649	0.04926
3822.59072	0.04839
3821.30495	0.04827
3820.01918	0.04906
3818.73342	0.04989
3817.44765	0.05013
3816.16188	0.05032
3814.87611	0.05102
3813.59034	0.05181
3812.30457	0.05205
3811.01880	0.05177
3809.73303	0.05127
3808.44726	0.05077
3807.16150	0.05064
3805.87573	0.05110
3804.58996	0.05158
3803.30419	0.05148
3802.01842	0.05104
3800.73265	0.05087
3799.44688	0.05072
3798.16111	0.04995
3796.87535	0.04868
3795.58958	0.04768
3794.30381	0.04726
3793.01804	0.04722
3791.73227	0.04736
3790.44650	0.04752
3789.16073	0.04758
3787.87496	0.04740
3786.58919	0.04707
3785.30343	0.04675
3784.01766	0.04654
3782.73189	0.04633
3781.44612	0.04596
3780.16035	0.04559
3778.87458	0.04561
3777.58881	0.04609
3776.30304	0.04674
3775.01728	0.04719
3773.73151	0.04733
3772.44574	0.04734
3771.15997	0.04762
3769.87420	0.04836
3768.58843	0.04918
3767.30266	0.04941
3766.01689	0.04891
3764.73112	0.04815
3763.44536	0.04757
3762.15959	0.04730
3760.87382	0.04735
3759.58805	0.04768
3758.30228	0.04805
3757.01651	0.04819
3755.73074	0.04797
3754.44497	0.04732
3753.15921	0.04642
3751.87344	0.04575
3750.58767	0.04582
3749.30190	0.04684
3748.01613	0.04839
3746.73036	0.04949
3745.44459	0.04981
3744.15882	0.05008
3742.87305	0.05064
3741.58729	0.05096
3740.30152	0.05084
3739.01575	0.05055
3737.72998	0.05034
3736.44421	0.05029
3735.15844	0.05042
3733.87267	0.05058
3732.58690	0.05069
3731.30114	0.05084
3730.01537	0.05089
3728.72960	0.05055
3727.44383	0.05000
3726.15806	0.04965
3724.87229	0.04952
3723.58652	0.04928
3722.30075	0.04893
3721.01498	0.04884
3719.72922	0.04916
3718.44345	0.04959
3717.15768	0.04987
3715.87191	0.04979
3714.58614	0.04938
3713.30037	0.04894
3712.01460	0.04871
3710.72883	0.04868
3709.44307	0.04865
3708.15730	0.04849
3706.87153	0.04838
3705.58576	0.04842
3704.29999	0.04858
3703.01422	0.04895
3701.72845	0.04956
3700.44268	0.05022
3699.15691	0.05049
3697.87115	0.05027
3696.58538	0.04998
3695.29961	0.04997
3694.01384	0.05023
3692.72807	0.05059
3691.44230	0.05073
3690.15653	0.05030
3688.87076	0.04944
3687.58500	0.04869
3686.29923	0.04841
3685.01346	0.04848
3683.72769	0.04871
3682.44192	0.04891
3681.15615	0.04882
3679.87038	0.04827
3678.58461	0.04718
3677.29884	0.04589
3676.01308	0.04526
3674.72731	0.04575
3673.44154	0.04655
3672.15577	0.04651
3670.87000	0.04575
3669.58423	0.04531
3668.29846	0.04560
3667.01269	0.04614
3665.72693	0.04655
3664.44116	0.04677
3663.15539	0.04688
3661.86962	0.04695
3660.58385	0.04694
3659.29808	0.04664
3658.01231	0.04596
3656.72654	0.04528
3655.44077	0.04523
3654.15501	0.04586
3652.86924	0.04657
3651.58347	0.04694
3650.29770	0.04706
3649.01193	0.04726
3647.72616	0.04773
3646.44039	0.04845
3645.15462	0.04930
3643.86886	0.05011
3642.58309	0.05069
3641.29732	0.05084
3640.01155	0.05047
3638.72578	0.04973
3637.44001	0.04902
3636.15424	0.04877
3634.86847	0.04929
3633.58270	0.05050
3632.29694	0.05183
3631.01117	0.05250
3629.72540	0.05232
3628.43963	0.05189
3627.15386	0.05158
3625.86809	0.05136
3624.58232	0.05127
3623.29655	0.05155
3622.01079	0.05211
3620.72502	0.05280
3619.43925	0.05351
3618.15348	0.05413
3616.86771	0.05445
3615.58194	0.05439
3614.29617	0.05417
3613.01040	0.05401
3611.72463	0.05396
3610.43887	0.05392
3609.15310	0.05394
3607.86733	0.05399
3606.58156	0.05389
3605.29579	0.05354
3604.01002	0.05328
3602.72425	0.05364
3601.43848	0.05469
3600.15272	0.05597
3598.86695	0.05668
3597.58118	0.05655
3596.29541	0.05588
3595.00964	0.05528
3593.72387	0.05513
3592.43810	0.05544
3591.15233	0.05596
3589.86656	0.05638
3588.58080	0.05664
3587.29503	0.05687
3586.00926	0.05700
3584.72349	0.05684
3583.43772	0.05647
3582.15195	0.05621
3580.86618	0.05631
3579.58041	0.05676
3578.29464	0.05738
3577.00888	0.05808
3575.72311	0.05877
3574.43734	0.05925
3573.15157	0.05936
3571.86580	0.05923
3570.58003	0.05914
3569.29426	0.05917
3568.00849	0.05919
3566.72273	0.05904
3565.43696	0.05864
3564.15119	0.05810
3562.86542	0.05766
3561.57965	0.05755
3560.29388	0.05771
3559.00811	0.05800
3557.72234	0.05840
3556.43657	0.05905
3555.15081	0.05992
3553.86504	0.06079
3552.57927	0.06149
3551.29350	0.06195
3550.00773	0.06218
3548.72196	0.06221
3547.43619	0.06215
3546.15042	0.06217
3544.86466	0.06224
3543.57889	0.06216
3542.29312	0.06185
3541.00735	0.06145
3539.72158	0.06120
3538.43581	0.06117
3537.15004	0.06124
3535.86427	0.06129
3534.57850	0.06142
3533.29274	0.06174
3532.00697	0.06222
3530.72120	0.06269
3529.43543	0.06297
3528.14966	0.06313
3526.86389	0.06330
3525.57812	0.06358
3524.29235	0.06398
3523.00659	0.06444
3521.72082	0.06489
3520.43505	0.06514
3519.14928	0.06509
3517.86351	0.06488
3516.57774	0.06482
3515.29197	0.06510
3514.00620	0.06555
3512.72043	0.06578
3511.43467	0.06559
3510.14890	0.06507
3508.86313	0.06453
3507.57736	0.06414
3506.29159	0.06398
3505.00582	0.06405
3503.72005	0.06436
3502.43428	0.06491
3501.14852	0.06562
3499.86275	0.06634
3498.57698	0.06690
3497.29121	0.06725
3496.00544	0.06745
3494.71967	0.06761
3493.43390	0.06776
3492.14813	0.06778
3490.86236	0.06759
3489.57660	0.06730
3488.29083	0.06716
3487.00506	0.06727
3485.71929	0.06747
3484.43352	0.06751
3483.14775	0.06732
3481.86198	0.06709
3480.57621	0.06709
3479.29045	0.06749
3478.00468	0.06820
3476.71891	0.06893
3475.43314	0.06936
3474.14737	0.06940
3472.86160	0.06920
3471.57583	0.06900
3470.29006	0.06898
3469.00429	0.06918
3467.71853	0.06943
3466.43276	0.06950
3465.14699	0.06923
3463.86122	0.06873
3462.57545	0.06829
3461.28968	0.06810
3460.00391	0.06820
3458.71814	0.06853
3457.43238	0.06899
3456.14661	0.06944
3454.86084	0.06974
3453.57507	0.06984
3452.28930	0.06988
3451.00353	0.07000
3449.71776	0.07028
3448.43199	0.07063
3447.14622	0.07098
3445.86046	0.07136
3444.57469	0.07179
3443.28892	0.07222
3442.00315	0.07247
3440.71738	0.07247
3439.43161	0.07231
3438.14584	0.07209
3436.86007	0.07177
3435.57431	0.07130
3434.28854	0.07079
3433.00277	0.07052
3431.71700	0.07071
3430.43123	0.07127
3429.14546	0.07187
3427.85969	0.07224
3426.57392	0.07241
3425.28815	0.07251
3424.00239	0.07257
3422.71662	0.07261
3421.43085	0.07278
3420.14508	0.07324
3418.85931	0.07389
3417.57354	0.07432
3416.28777	0.07427
3415.00200	0.07382
3413.71624	0.07332
3412.43047	0.07301
3411.14470	0.07284
3409.85893	0.07266
3408.57316	0.07244
3407.28739	0.07240
3406.00162	0.07274
3404.71585	0.07343
3403.43008	0.07422
3402.14432	0.07492
3400.85855	0.07544
3399.57278	0.07575
3398.28701	0.07578
3397.00124	0.07549
3395.71547	0.07501
3394.42970	0.07449
3393.14393	0.07410
3391.85817	0.07397
3390.57240	0.07422
3389.28663	0.07478
3388.00086	0.07537
3386.71509	0.07565
3385.42932	0.07555
3384.14355	0.07531
3382.85778	0.07519
3381.57201	0.07528
3380.28625	0.07553
3379.00048	0.07582
3377.71471	0.07595
3376.42894	0.07573
3375.14317	0.07520
3373.85740	0.07472
3372.57163	0.07468
3371.28586	0.07517
3370.00010	0.07585
3368.71433	0.07629
3367.42856	0.07630
3366.14279	0.07600
3364.85702	0.07561
3363.57125	0.07525
3362.28548	0.07492
3360.99971	0.07463
3359.71394	0.07447
3358.42818	0.07450
3357.14241	0.07474
3355.85664	0.07511
3354.57087	0.07549
3353.28510	0.07579
3351.99933	0.07594
3350.71356	0.07596
3349.42779	0.07593
3348.14202	0.07593
3346.85626	0.07596
3345.57049	0.07593
3344.28472	0.07576
3342.99895	0.07547
3341.71318	0.07525
3340.42741	0.07517
3339.14164	0.07508
3337.85587	0.07478
3336.57011	0.07434
3335.28434	0.07403
3333.99857	0.07404
3332.71280	0.07426
3331.42703	0.07439
3330.14126	0.07428
3328.85549	0.07404
3327.56972	0.07389
3326.28395	0.07397
3324.99819	0.07417
3323.71242	0.07425
3322.42665	0.07404
3321.14088	0.07363
3319.85511	0.07325
3318.56934	0.07312
3317.28357	0.07327
3315.99780	0.07354
3314.71204	0.07368
3313.42627	0.07357
3312.14050	0.07329
3310.85473	0.07306
3309.56896	0.07305
3308.28319	0.07332
3306.99742	0.07379
3305.71165	0.07424
3304.42588	0.07444
3303.14012	0.07436
3301.85435	0.07417
3300.56858	0.07400
3299.28281	0.07383
3297.99704	0.07361
3296.71127	0.07341
3295.42550	0.07336
3294.13973	0.07343
3292.85397	0.07349
3291.56820	0.07343
3290.28243	0.07334
3288.99666	0.07330
3287.71089	0.07325
3286.42512	0.07300
3285.13935	0.07246
3283.85358	0.07182
3282.56781	0.07135
3281.28205	0.07114
3279.99628	0.07108
3278.71051	0.07103
3277.42474	0.07104
3276.13897	0.07124
3274.85320	0.07167
3273.56743	0.07213
3272.28166	0.07244
3270.99590	0.07253
3269.71013	0.07249
3268.42436	0.07234
3267.13859	0.07213
3265.85282	0.07200
3264.56705	0.07208
3263.28128	0.07231
3261.99551	0.07248
3260.70974	0.07244
3259.42398	0.07224
3258.13821	0.07202
3256.85244	0.07187
3255.56667	0.07180
3254.28090	0.07175
3252.99513	0.07170
3251.70936	0.07165
3250.42359	0.07162
3249.13783	0.07155
3247.85206	0.07141
3246.56629	0.07128
3245.28052	0.07130
3243.99475	0.07152
3242.70898	0.07182
3241.42321	0.07197
3240.13744	0.07176
3238.85167	0.07120
3237.56591	0.07050
3236.28014	0.06993
3234.99437	0.06964
3233.70860	0.06968
3232.42283	0.06996
3231.13706	0.07023
3229.85129	0.07023
3228.56552	0.07001
3227.27976	0.06994
3225.99399	0.07026
3224.70822	0.07076
3223.42245	0.07105
3222.13668	0.07095
3220.85091	0.07059
3219.56514	0.07009
3218.27937	0.06946
3216.99360	0.06874
3215.70784	0.06814
3214.42207	0.06789
3213.13630	0.06804
3211.85053	0.06844
3210.56476	0.06877
3209.27899	0.06881
3207.99322	0.06856
3206.70745	0.06824
3205.42169	0.06807
3204.13592	0.06807
3202.85015	0.06812
3201.56438	0.06821
3200.27861	0.06837
3198.99284	0.06854
3197.70707	0.06863
3196.42130	0.06862
3195.13553	0.06859
3193.84977	0.06859
3192.56400	0.06859
3191.27823	0.06856
3189.99246	0.06844
3188.70669	0.06821
3187.42092	0.06790
3186.13515	0.06756
3184.84938	0.06730
3183.56362	0.06715
3182.27785	0.06709
3180.99208	0.06702
3179.70631	0.06686
3178.42054	0.06658
3177.13477	0.06625
3175.84900	0.06599
3174.56323	0.06587
3173.27746	0.06585
3171.99170	0.06581
3170.70593	0.06572
3169.42016	0.06561
3168.13439	0.06556
3166.84862	0.06555
3165.56285	0.06549
3164.27708	0.06529
3162.99131	0.06499
3161.70555	0.06477
3160.41978	0.06480
3159.13401	0.06504
3157.84824	0.06528
3156.56247	0.06529
3155.27670	0.06507
3153.99093	0.06478
3152.70516	0.06464
3151.41939	0.06470
3150.13363	0.06482
3148.84786	0.06488
3147.56209	0.06487
3146.27632	0.06486
3144.99055	0.06485
3143.70478	0.06473
3142.41901	0.06441
3141.13324	0.06391
3139.84748	0.06340
3138.56171	0.06307
3137.27594	0.06303
3135.99017	0.06321
3134.70440	0.06343
3133.41863	0.06357
3132.13286	0.06361
3130.84709	0.06355
3129.56132	0.06343
3128.27556	0.06329
3126.98979	0.06320
3125.70402	0.06317
3124.41825	0.06312
3123.13248	0.06291
3121.84671	0.06245
3120.56094	0.06187
3119.27517	0.06144
3117.98940	0.06141
3116.70364	0.06181
3115.41787	0.06240
3114.13210	0.06285
3112.84633	0.06301
3111.56056	0.06291
3110.27479	0.06268
3108.98902	0.06239
3107.70325	0.06204
3106.41749	0.06168
3105.13172	0.06141
3103.84595	0.06131
3102.56018	0.06135
3101.27441	0.06136
3099.98864	0.06122
3098.70287	0.06091
3097.41710	0.06062
3096.13133	0.06049
3094.84557	0.06045
3093.55980	0.06035
3092.27403	0.06011
3090.98826	0.05983
3089.70249	0.05964
3088.41672	0.05966
3087.13095	0.05994
3085.84518	0.06041
3084.55942	0.06086
3083.27365	0.06105
3081.98788	0.06092
3080.70211	0.06058
3079.41634	0.06024
3078.13057	0.06000
3076.84480	0.05988
3075.55903	0.05976
3074.27326	0.05956
3072.98750	0.05926
3071.70173	0.05897
3070.41596	0.05881
3069.13019	0.05875
3067.84442	0.05871
3066.55865	0.05866
3065.27288	0.05870
3063.98711	0.05885
3062.70135	0.05897
3061.41558	0.05885
3060.12981	0.05846
3058.84404	0.05795
3057.55827	0.05748
3056.27250	0.05714
3054.98673	0.05694
3053.70096	0.05693
3052.41519	0.05707
3051.12943	0.05725
3049.84366	0.05728
3048.55789	0.05706
3047.27212	0.05672
3045.98635	0.05644
3044.70058	0.05633
3043.41481	0.05638
3042.12904	0.05642
3040.84328	0.05636
3039.55751	0.05623
3038.27174	0.05614
3036.98597	0.05614
3035.70020	0.05619
3034.41443	0.05625
3033.12866	0.05632
3031.84289	0.05638
3030.55712	0.05631
3029.27136	0.05604
3027.98559	0.05566
3026.69982	0.05535
3025.41405	0.05521
3024.12828	0.05520
3022.84251	0.05520
3021.55674	0.05512
3020.27097	0.05492
3018.98521	0.05462
3017.69944	0.05432
3016.41367	0.05414
3015.12790	0.05407
3013.84213	0.05398
3012.55636	0.05379
3011.27059	0.05358
3009.98482	0.05346
3008.69905	0.05346
3007.41329	0.05348
3006.12752	0.05348
3004.84175	0.05349
3003.55598	0.05365
3002.27021	0.05403
3000.98444	0.05455
2999.69867	0.05496
2998.41290	0.05499
2997.12714	0.05460
2995.84137	0.05402
2994.55560	0.05357
2993.26983	0.05345
2991.98406	0.05368
2990.69829	0.05414
2989.41252	0.05465
2988.12675	0.05508
2986.84098	0.05530
2985.55522	0.05523
2984.26945	0.05495
2982.98368	0.05464
2981.69791	0.05448
2980.41214	0.05454
2979.12637	0.05480
2977.84060	0.05522
2976.55483	0.05581
2975.26907	0.05656
2973.98330	0.05737
2972.69753	0.05807
2971.41176	0.05863
2970.12599	0.05919
2968.84022	0.05997
2967.55445	0.06098
2966.26868	0.06205
2964.98291	0.06305
2963.69715	0.06396
2962.41138	0.06478
2961.12561	0.06548
2959.83984	0.06612
2958.55407	0.06689
2957.26830	0.06791
2955.98253	0.06906
2954.69676	0.07003
2953.41100	0.07060
2952.12523	0.07077
2950.83946	0.07063
2949.55369	0.07030
2948.26792	0.06986
2946.98215	0.06939
2945.69638	0.06900
2944.41061	0.06876
2943.12484	0.06877
2941.83908	0.06902
2940.55331	0.06944
2939.26754	0.06997
2937.98177	0.07062
2936.69600	0.07142
2935.41023	0.07227
2934.12446	0.07310
2932.83869	0.07391
2931.55293	0.07471
2930.26716	0.07542
2928.98139	0.07597
2927.69562	0.07641
2926.40985	0.07684
2925.12408	0.07731
2923.83831	0.07773
2922.55254	0.07798
2921.26677	0.07789
2919.98101	0.07735
2918.69524	0.07640
2917.40947	0.07532
2916.12370	0.07445
2914.83793	0.07387
2913.55216	0.07335
2912.26639	0.07259
2910.98062	0.07160
2909.69486	0.07058
2908.40909	0.06966
2907.12332	0.06877
2905.83755	0.06791
2904.55178	0.06721
2903.26601	0.06683
2901.98024	0.06675
2900.69447	0.06666
2899.40870	0.06630
2898.12294	0.06566
2896.83717	0.06497
2895.55140	0.06442
2894.26563	0.06403
2892.97986	0.06367
2891.69409	0.06322
2890.40832	0.06266
2889.12255	0.06205
2887.83678	0.06148
2886.55102	0.06106
2885.26525	0.06083
2883.97948	0.06078
2882.69371	0.06081
2881.40794	0.06080
2880.12217	0.06076
2878.83640	0.06076
2877.55063	0.06089
2876.26487	0.06115
2874.97910	0.06146
2873.69333	0.06174
2872.40756	0.06196
2871.12179	0.06205
2869.83602	0.06201
2868.55025	0.06195
2867.26448	0.06198
2865.97871	0.06210
2864.69295	0.06219
2863.40718	0.06214
2862.12141	0.06196
2860.83564	0.06173
2859.54987	0.06155
2858.26410	0.06146
2856.97833	0.06142
2855.69256	0.06133
2854.40680	0.06115
2853.12103	0.06096
2851.83526	0.06082
2850.54949	0.06062
2849.26372	0.06022
2847.97795	0.05959
2846.69218	0.05879
2845.40641	0.05788
2844.12064	0.05693
2842.83488	0.05599
2841.54911	0.05512
2840.26334	0.05439
2838.97757	0.05377
2837.69180	0.05318
2836.40603	0.05251
2835.12026	0.05169
2833.83449	0.05082
2832.54873	0.05005
2831.26296	0.04953
2829.97719	0.04924
2828.69142	0.04907
2827.40565	0.04888
2826.11988	0.04858
2824.83411	0.04820
2823.54834	0.04781
2822.26257	0.04750
2820.97681	0.04723
2819.69104	0.04692
2818.40527	0.04654
2817.11950	0.04616
2815.83373	0.04589
2814.54796	0.04577
2813.26219	0.04579
2811.97642	0.04590
2810.69066	0.04601
2809.40489	0.04604
2808.11912	0.04593
2806.83335	0.04572
2805.54758	0.04547
2804.26181	0.04520
2802.97604	0.04497
2801.69027	0.04487
2800.40450	0.04489
2799.11874	0.04493
2797.83297	0.04483
2796.54720	0.04459
2795.26143	0.04432
2793.97566	0.04412
2792.68989	0.04398
2791.40412	0.04382
2790.11835	0.04358
2788.83259	0.04329
2787.54682	0.04304
2786.26105	0.04289
2784.97528	0.04283
2783.68951	0.04284
2782.40374	0.04289
2781.11797	0.04297
2779.83220	0.04302
2778.54643	0.04300
2777.26067	0.04294
2775.97490	0.04291
2774.68913	0.04288
2773.40336	0.04280
2772.11759	0.04268
2770.83182	0.04256
2769.54605	0.04245
2768.26028	0.04231
2766.97452	0.04214
2765.68875	0.04199
2764.40298	0.04188
2763.11721	0.04178
2761.83144	0.04166
2760.54567	0.04146
2759.25990	0.04125
2757.97413	0.04111
2756.68836	0.04111
2755.40260	0.04118
2754.11683	0.04116
2752.83106	0.04104
2751.54529	0.04090
2750.25952	0.04081
2748.97375	0.04074
2747.68798	0.04069
2746.40221	0.04069
2745.11645	0.04077
2743.83068	0.04088
2742.54491	0.04099
2741.25914	0.04107
2739.97337	0.04104
2738.68760	0.04087
2737.40183	0.04068
2736.11606	0.04060
2734.83029	0.04058
2733.54453	0.04047
2732.25876	0.04021
2730.97299	0.03993
2729.68722	0.03980
2728.40145	0.03987
2727.11568	0.04011
2725.82991	0.04038
2724.54414	0.04055
2723.25838	0.04053
2721.97261	0.04036
2720.68684	0.04015
2719.40107	0.03996
2718.11530	0.03981
2716.82953	0.03970
2715.54376	0.03968
2714.25799	0.03975
2712.97222	0.03989
2711.68646	0.04002
2710.40069	0.04008
2709.11492	0.03998
2707.82915	0.03972
2706.54338	0.03937
2705.25761	0.03903
2703.97184	0.03875
2702.68607	0.03856
2701.40031	0.03848
2700.11454	0.03850
2698.82877	0.03855
2697.54300	0.03857
2696.25723	0.03856
2694.97146	0.03854
2693.68569	0.03850
2692.39992	0.03841
2691.11415	0.03830
2689.82839	0.03826
2688.54262	0.03835
2687.25685	0.03848
2685.97108	0.03851
2684.68531	0.03832
2683.39954	0.03796
2682.11377	0.03761
2680.82800	0.03741
2679.54224	0.03738
2678.25647	0.03743
2676.97070	0.03746
2675.68493	0.03742
2674.39916	0.03729
2673.11339	0.03708
2671.82762	0.03688
2670.54185	0.03683
2669.25608	0.03701
2667.97032	0.03734
2666.68455	0.03764
2665.39878	0.03775
2664.11301	0.03767
2662.82724	0.03753
2661.54147	0.03745
2660.25570	0.03745
2658.96993	0.03745
2657.68417	0.03734
2656.39840	0.03713
2655.11263	0.03691
2653.82686	0.03676
2652.54109	0.03671
2651.25532	0.03672
2649.96955	0.03677
2648.68378	0.03684
2647.39801	0.03682
2646.11225	0.03663
2644.82648	0.03626
2643.54071	0.03588
2642.25494	0.03564
2640.96917	0.03558
2639.68340	0.03560
2638.39763	0.03560
2637.11186	0.03551
2635.82609	0.03536
2634.54033	0.03521
2633.25456	0.03514
2631.96879	0.03516
2630.68302	0.03519
2629.39725	0.03513
2628.11148	0.03497
2626.82571	0.03475
2625.53994	0.03448
2624.25418	0.03413
2622.96841	0.03367
2621.68264	0.03324
2620.39687	0.03303
2619.11110	0.03305
2617.82533	0.03309
2616.53956	0.03305
2615.25379	0.03296
2613.96802	0.03281
2612.68226	0.03253
2611.39649	0.03217
2610.11072	0.03194
2608.82495	0.03199
2607.53918	0.03222
2606.25341	0.03241
2604.96764	0.03244
2603.68187	0.03233
2602.39611	0.03218
2601.11034	0.03200
2599.82457	0.03176
2598.53880	0.03152
2597.25303	0.03141
2595.96726	0.03144
2594.68149	0.03146
2593.39572	0.03132
2592.10995	0.03108
2590.82419	0.03096
2589.53842	0.03107
2588.25265	0.03127
2586.96688	0.03133
2585.68111	0.03116
2584.39534	0.03095
2583.10957	0.03095
2581.82380	0.03118
2580.53804	0.03142
2579.25227	0.03143
2577.96650	0.03114
2576.68073	0.03070
2575.39496	0.03034
2574.10919	0.03018
2572.82342	0.03009
2571.53765	0.02996
2570.25188	0.02986
2568.96612	0.02998
2567.68035	0.03031
2566.39458	0.03066
2565.10881	0.03090
2563.82304	0.03104
2562.53727	0.03110
2561.25150	0.03100
2559.96573	0.03065
2558.67997	0.03007
2557.39420	0.02946
2556.10843	0.02908
2554.82266	0.02906
2553.53689	0.02934
2552.25112	0.02968
2550.96535	0.02987
2549.67958	0.02981
2548.39381	0.02956
2547.10805	0.02929
2545.82228	0.02904
2544.53651	0.02880
2543.25074	0.02867
2541.96497	0.02879
2540.67920	0.02912
2539.39343	0.02933
2538.10766	0.02914
2536.82190	0.02860
2535.53613	0.02806
2534.25036	0.02780
2532.96459	0.02784
2531.67882	0.02799
2530.39305	0.02816
2529.10728	0.02834
2527.82151	0.02853
2526.53574	0.02867
2525.24998	0.02870
2523.96421	0.02866
2522.67844	0.02864
2521.39267	0.02873
2520.10690	0.02897
2518.82113	0.02924
2517.53536	0.02933
2516.24959	0.02912
2514.96383	0.02870
2513.67806	0.02823
2512.39229	0.02785
2511.10652	0.02762
2509.82075	0.02757
2508.53498	0.02766
2507.24921	0.02771
2505.96344	0.02759
2504.67767	0.02741
2503.39191	0.02739
2502.10614	0.02759
2500.82037	0.02792
2499.53460	0.02826
2498.24883	0.02850
2496.96306	0.02853
2495.67729	0.02833
2494.39152	0.02800
2493.10576	0.02768
2491.81999	0.02739
2490.53422	0.02713
2489.24845	0.02693
2487.96268	0.02684
2486.67691	0.02684
2485.39114	0.02692
2484.10537	0.02707
2482.81960	0.02725
2481.53384	0.02739
2480.24807	0.02745
2478.96230	0.02739
2477.67653	0.02714
2476.39076	0.02677
2475.10499	0.02649
2473.81922	0.02646
2472.53345	0.02659
2471.24769	0.02668
2469.96192	0.02664
2468.67615	0.02658
2467.39038	0.02661
2466.10461	0.02675
2464.81884	0.02692
2463.53307	0.02708
2462.24730	0.02719
2460.96153	0.02715
2459.67577	0.02691
2458.39000	0.02660
2457.10423	0.02654
2455.81846	0.02685
2454.53269	0.02730
2453.24692	0.02754
2451.96115	0.02746
2450.67538	0.02728
2449.38962	0.02731
2448.10385	0.02762
2446.81808	0.02785
2445.53231	0.02759
2444.24654	0.02682
2442.96077	0.02594
2441.67500	0.02541
2440.38923	0.02536
2439.10346	0.02555
2437.81770	0.02560
2436.53193	0.02533
2435.24616	0.02491
2433.96039	0.02466
2432.67462	0.02471
2431.38885	0.02497
2430.10308	0.02527
2428.81731	0.02555
2427.53155	0.02572
2426.24578	0.02563
2424.96001	0.02527
2423.67424	0.02488
2422.38847	0.02482
2421.10270	0.02518
2419.81693	0.02570
2418.53116	0.02601
2417.24539	0.02603
2415.95963	0.02593
2414.67386	0.02586
2413.38809	0.02579
2412.10232	0.02575
2410.81655	0.02587
2409.53078	0.02614
2408.24501	0.02634
2406.95924	0.02628
2405.67347	0.02599
2404.38771	0.02563
2403.10194	0.02526
2401.81617	0.02497
2400.53040	0.02470
2399.24463	0.02131
2397.95886	0.01940
2396.67309	0.01998
2395.38732	0.02170
2394.10156	0.02358
2392.81579	0.02531
2391.53002	0.02692
2390.24425	0.02849
2388.95848	0.03014
2387.67271	0.03190
2386.38694	0.03372
2385.10117	0.03542
2383.81540	0.03669
2382.52964	0.03728
2381.24387	0.03713
2379.95810	0.03655
2378.67233	0.03588
2377.38656	0.03530
2376.10079	0.03526
2374.81502	0.03580
2373.52925	0.03662
2372.24349	0.03771
2370.95772	0.03894
2369.67195	0.04110
2368.38618	0.04403
2367.10041	0.04648
2365.81464	0.04796
2364.52887	0.04892
2363.24310	0.04890
2361.95733	0.04773
2360.67157	0.04667
2359.38580	0.04741
2358.10003	0.04921
2356.81426	0.05126
2355.52849	0.05353
2354.24272	0.05527
2352.95695	0.05657
2351.67118	0.05691
2350.38542	0.05535
2349.09965	0.05397
2347.81388	0.05452
2346.52811	0.05471
2345.24234	0.05297
2343.95657	0.05102
2342.67080	0.05075
2341.38503	0.05127
2340.09926	0.05125
2338.81350	0.05075
2337.52773	0.05009
2336.24196	0.05044
2334.95619	0.05119
2333.67042	0.05108
2332.38465	0.05083
2331.09888	0.05083
2329.81311	0.05129
2328.52735	0.05269
2327.24158	0.05339
2325.95581	0.05204
2324.67004	0.04889
2323.38427	0.04430
2322.09850	0.03960
2320.81273	0.03659
2319.52696	0.03513
2318.24119	0.03446
2316.95543	0.03427
2315.66966	0.03411
2314.38389	0.03366
2313.09812	0.03290
2311.81235	0.03220
2310.52658	0.03177
2309.24081	0.03143
2307.95504	0.03123
2306.66928	0.03126
2305.38351	0.03141
2304.09774	0.03159
2302.81197	0.03173
2301.52620	0.03180
2300.24043	0.03188
2298.95466	0.03202
2297.66889	0.03214
2296.38312	0.03198
2295.09736	0.03146
2293.81159	0.03065
2292.52582	0.02981
2291.24005	0.02918
2289.95428	0.02867
2288.66851	0.02798
2287.38274	0.02688
2286.09697	0.02542
2284.81121	0.02396
2283.52544	0.02291
2282.23967	0.02241
2280.95390	0.02225
2279.66813	0.02207
2278.38236	0.02169
2277.09659	0.02128
2275.81082	0.02106
2274.52505	0.02107
2273.23929	0.02113
2271.95352	0.02108
2270.66775	0.02094
2269.38198	0.02088
2268.09621	0.02104
2266.81044	0.02137
2265.52467	0.02173
2264.23890	0.02199
2262.95314	0.02220
2261.66737	0.02249
2260.38160	0.02283
2259.09583	0.02301
2257.81006	0.02286
2256.52429	0.02240
2255.23852	0.02193
2253.95275	0.02183
2252.66698	0.02220
2251.38122	0.02259
2250.09545	0.02182
2248.80968	0.01948
2247.52391	0.01854
2246.23814	0.01850
2244.95237	0.01940
2243.66660	0.02051
2242.38083	0.02106
2241.09507	0.02088
2239.80930	0.02031
2238.52353	0.01975
2237.23776	0.01940
2235.95199	0.01920
2234.66622	0.01890
2233.38045	0.01828
2232.09468	0.01742
2230.80891	0.01671
2229.52315	0.01646
2228.23738	0.01668
2226.95161	0.01707
2225.66584	0.01725
2224.38007	0.01698
2223.09430	0.01630
2221.80853	0.01555
2220.52276	0.01514
2219.23700	0.01529
2217.95123	0.01589
2216.66546	0.01665
2215.37969	0.01726
2214.09392	0.01754
2212.80815	0.01740
2211.52238	0.01676
2210.23661	0.01575
2208.95084	0.01488
2207.66508	0.01484
2206.37931	0.01573
2205.09354	0.01678
2203.80777	0.01706
2202.52200	0.01644
2201.23623	0.01558
2199.95046	0.01489
2198.66469	0.01418
2197.37893	0.01320
2196.09316	0.01216
2194.80739	0.01153
2193.52162	0.01150
2192.23585	0.01198
2190.95008	0.01279
2189.66431	0.01362
2188.37854	0.01408
2187.09277	0.01398
2185.80701	0.01358
2184.52124	0.01327
2183.23547	0.01323
2181.94970	0.01315
2180.66393	0.01263
2179.37816	0.01173
2178.09239	0.01096
2176.80662	0.01069
2175.52085	0.01077
2174.23509	0.01083
2172.94932	0.01071
2171.66355	0.01054
2170.37778	0.01032
2169.09201	0.00999
2167.80624	0.00967
2166.52047	0.00966
2165.23470	0.01003
2163.94894	0.01034
2162.66317	0.00992
2161.37740	0.00861
2160.09163	0.00678
2158.80586	0.00497
2157.52009	0.00349
2156.23432	0.00263
2154.94855	0.00276
2153.66278	0.00394
2152.37702	0.00568
2151.09125	0.00726
2149.80548	0.00822
2148.51971	0.00865
2147.23394	0.00897
2145.94817	0.00949
2144.66240	0.01016
2143.37663	0.01064
2142.09087	0.01069
2140.80510	0.01044
2139.51933	0.01018
2138.23356	0.01003
2136.94779	0.00990
2135.66202	0.00980
2134.37625	0.00989
2133.09048	0.01025
2131.80471	0.01067
2130.51895	0.01106
2129.23318	0.01158
2127.94741	0.01242
2126.66164	0.01336
2125.37587	0.01390
2124.09010	0.01369
2122.80433	0.01291
2121.51856	0.01211
2120.23280	0.01183
2118.94703	0.01215
2117.66126	0.01278
2116.37549	0.01333
2115.08972	0.01373
2113.80395	0.01411
2112.51818	0.01448
2111.23241	0.01463
2109.94664	0.01441
2108.66088	0.01390
2107.37511	0.01337
2106.08934	0.01299
2104.80357	0.01272
2103.51780	0.01248
2102.23203	0.01239
2100.94626	0.01258
2099.66049	0.01270
2098.37473	0.01272
2097.08896	0.01241
2095.80319	0.01186
2094.51742	0.01150
2093.23165	0.01168
2091.94588	0.01232
2090.66011	0.01294
2089.37434	0.01311
2088.08857	0.01278
2086.80281	0.01225
2085.51704	0.01186
2084.23127	0.01173
2082.94550	0.01171
2081.65973	0.01158
2080.37396	0.01126
2079.08819	0.01084
2077.80242	0.01050
2076.51666	0.01033
2075.23089	0.01025
2073.94512	0.01015
2072.65935	0.00996
2071.37358	0.00967
2070.08781	0.00935
2068.80204	0.00904
2067.51627	0.00874
2066.23050	0.00850
2064.94474	0.00845
2063.65897	0.00868
2062.37320	0.00906
2061.08743	0.00929
2059.80166	0.00910
2058.51589	0.00839
2057.23012	0.00734
2055.94435	0.00634
2054.65859	0.00579
2053.37282	0.00583
2052.08705	0.00632
2050.80128	0.00698
2049.51551	0.00739
2048.22974	0.00719
2046.94397	0.00636
2045.65820	0.00523
2044.37243	0.00422
2043.08667	0.00360
2041.80090	0.00352
2040.51513	0.00410
2039.22936	0.00509
2037.94359	0.00581
2036.65782	0.00569
2035.37205	0.00492
2034.08628	0.00421
2032.80052	0.00402
2031.51475	0.00417
2030.22898	0.00425
2028.94321	0.00419
2027.65744	0.00423
2026.37167	0.00445
2025.08590	0.00468
2023.80013	0.00476
2022.51436	0.00487
2021.22860	0.00528
2019.94283	0.00596
2018.65706	0.00660
2017.37129	0.00695
2016.08552	0.00707
2014.79975	0.00706
2013.51398	0.00690
2012.22821	0.00656
2010.94245	0.00611
2009.65668	0.00574
2008.37091	0.00551
2007.08514	0.00541
2005.79937	0.00541
2004.51360	0.00554
2003.22783	0.00585
2001.94206	0.00647
2000.65629	0.00751
1999.37053	0.00888
1998.08476	0.01019
1996.79899	0.01097
1995.51322	0.01106
1994.22745	0.01073
1992.94168	0.01038
1991.65591	0.01015
1990.37014	0.00994
1989.08438	0.00960
1987.79861	0.00927
1986.51284	0.00926
1985.22707	0.00966
1983.94130	0.01009
1982.65553	0.00999
1981.36976	0.00915
1980.08399	0.00797
1978.79822	0.00715
1977.51246	0.00708
1976.22669	0.00759
1974.94092	0.00827
1973.65515	0.00872
1972.36938	0.00872
1971.08361	0.00830
1969.79784	0.00786
1968.51207	0.00788
1967.22631	0.00849
1965.94054	0.00927
1964.65477	0.00974
1963.36900	0.00982
1962.08323	0.00979
1960.79746	0.00987
1959.51169	0.01003
1958.22592	0.01022
1956.94015	0.01038
1955.65439	0.01053
1954.36862	0.01073
1953.08285	0.01106
1951.79708	0.01138
1950.51131	0.01130
1949.22554	0.01065
1947.93977	0.00982
1946.65400	0.00950
1945.36823	0.01008
1944.08247	0.01130
1942.79670	0.01248
1941.51093	0.01302
1940.22516	0.01278
1938.93939	0.01208
1937.65362	0.01135
1936.36785	0.01087
1935.08208	0.01071
1933.79632	0.01089
1932.51055	0.01131
1931.22478	0.01181
1929.93901	0.01230
1928.65324	0.01285
1927.36747	0.01346
1926.08170	0.01398
1924.79593	0.01423
1923.51016	0.01418
1922.22440	0.01396
1920.93863	0.01367
1919.65286	0.01327
1918.36709	0.01284
1917.08132	0.01260
1915.79555	0.01268
1914.50978	0.01302
1913.22401	0.01335
1911.93825	0.01347
1910.65248	0.01337
1909.36671	0.01329
1908.08094	0.01335
1906.79517	0.01345
1905.50940	0.01337
1904.22363	0.01311
1902.93786	0.01290
1901.65209	0.01295
1900.36633	0.01328
1899.08056	0.01375
1897.79479	0.01413
1896.50902	0.01432
1895.22325	0.01433
1893.93748	0.01424
1892.65171	0.01413
1891.36594	0.01402
1890.08018	0.01398
1888.79441	0.01400
1887.50864	0.01401
1886.22287	0.01393
1884.93710	0.01375
1883.65133	0.01351
1882.36556	0.01321
1881.07979	0.01289
1879.79402	0.01263
1878.50826	0.01255
1877.22249	0.01268
1875.93672	0.01299
1874.65095	0.01338
1873.36518	0.01371
1872.07941	0.01382
1870.79364	0.01370
1869.50787	0.01352
1868.22211	0.01349
1866.93634	0.01367
1865.65057	0.01393
1864.36480	0.01419
1863.07903	0.01443
1861.79326	0.01459
1860.50749	0.01458
1859.22172	0.01439
1857.93595	0.01413
1856.65019	0.01393
1855.36442	0.01388
1854.07865	0.01397
1852.79288	0.01413
1851.50711	0.01424
1850.22134	0.01426
1848.93557	0.01419
1847.64980	0.01407
1846.36404	0.01388
1845.07827	0.01363
1843.79250	0.01347
1842.50673	0.01344
1841.22096	0.01348
1839.93519	0.01355
1838.64942	0.01372
1837.36365	0.01404
1836.07788	0.01441
1834.79212	0.01470
1833.50635	0.01480
1832.22058	0.01472
1830.93481	0.01457
1829.64904	0.01446
1828.36327	0.01439
1827.07750	0.01422
1825.79173	0.01401
1824.50597	0.01396
1823.22020	0.01413
1821.93443	0.01430
1820.64866	0.01431
1819.36289	0.01418
1818.07712	0.01411
1816.79135	0.01421
1815.50558	0.01444
1814.21981	0.01470
1812.93405	0.01492
1811.64828	0.01512
1810.36251	0.01527
1809.07674	0.01536
1807.79097	0.01538
1806.50520	0.01536
1805.21943	0.01533
1803.93366	0.01528
1802.64790	0.01522
1801.36213	0.01521
1800.07636	0.01528
1798.79059	0.01537
1797.50482	0.01541
1796.21905	0.01538
1794.93328	0.01527
1793.64751	0.01513
1792.36174	0.01508
1791.07598	0.01518
1789.79021	0.01533
1788.50444	0.01535
1787.21867	0.01521
1785.93290	0.01500
1784.64713	0.01486
1783.36136	0.01488
1782.07559	0.01501
1780.78983	0.01516
1779.50406	0.01533
1778.21829	0.01551
1776.93252	0.01568
1775.64675	0.01581
1774.36098	0.01586
1773.07521	0.01591
1771.78944	0.01610
1770.50367	0.01636
1769.21791	0.01650
1767.93214	0.01654
1766.64637	0.01660
1765.36060	0.01665
1764.07483	0.01656
1762.78906	0.01636
1761.50329	0.01622
1760.21752	0.01621
1758.93176	0.01623
1757.64599	0.01626
1756.36022	0.01639
1755.07445	0.01656
1753.78868	0.01656
1752.50291	0.01639
1751.21714	0.01628
1749.93137	0.01640
1748.64560	0.01660
1747.35984	0.01668
1746.07407	0.01659
1744.78830	0.01647
1743.50253	0.01641
1742.21676	0.01642
1740.93099	0.01649
1739.64522	0.01668
1738.35945	0.01697
1737.07369	0.01712
1735.78792	0.01696
1734.50215	0.01678
1733.21638	0.01695
1731.93061	0.01737
1730.64484	0.01767
1729.35907	0.01775
1728.07330	0.01776
1726.78753	0.01782
1725.50177	0.01792
1724.21600	0.01807
1722.93023	0.01829
1721.64446	0.01852
1720.35869	0.01861
1719.07292	0.01859
1717.78715	0.01870
1716.50138	0.01913
1715.21561	0.01976
1713.92985	0.02034
1712.64408	0.02078
1711.35831	0.02109
1710.07254	0.02131
1708.78677	0.02147
1707.50100	0.02162
1706.21523	0.02187
1704.92946	0.02230
1703.64370	0.02270
1702.35793	0.02279
1701.07216	0.02276
1699.78639	0.02304
1698.50062	0.02358
1697.21485	0.02396
1695.92908	0.02422
1694.64331	0.02470
1693.35754	0.02530
1692.07178	0.02562
1690.78601	0.02571
1689.50024	0.02583
1688.21447	0.02598
1686.92870	0.02589
1685.64293	0.02560
1684.35716	0.02559
1683.07139	0.02614
1681.78563	0.02691
1680.49986	0.02749
1679.21409	0.02781
1677.92832	0.02796
1676.64255	0.02804
1675.35678	0.02827
1674.07101	0.02874
1672.78524	0.02923
1671.49947	0.02948
1670.21371	0.02956
1668.92794	0.02971
1667.64217	0.03003
1666.35640	0.03040
1665.07063	0.03064
1663.78486	0.03082
1662.49909	0.03107
1661.21332	0.03142
1659.92756	0.03179
1658.64179	0.03210
1657.35602	0.03231
1656.07025	0.03219
1654.78448	0.03169
1653.49871	0.03133
1652.21294	0.03169
1650.92717	0.03255
1649.64140	0.03310
1648.35564	0.03304
1647.06987	0.03276
1645.78410	0.03273
1644.49833	0.03296
1643.21256	0.03320
1641.92679	0.03330
1640.64102	0.03333
1639.35525	0.03332
1638.06949	0.03320
1636.78372	0.03300
1635.49795	0.03296
1634.21218	0.03322
1632.92641	0.03359
1631.64064	0.03381
1630.35487	0.03383
1629.06910	0.03376
1627.78333	0.03370
1626.49757	0.03362
1625.21180	0.03349
1623.92603	0.03336
1622.64026	0.03339
1621.35449	0.03353
1620.06872	0.03357
1618.78295	0.03333
1617.49718	0.03305
1616.21142	0.03311
1614.92565	0.03354
1613.63988	0.03399
1612.35411	0.03421
1611.06834	0.03426
1609.78257	0.03432
1608.49680	0.03445
1607.21103	0.03463
1605.92526	0.03484
1604.63950	0.03500
1603.35373	0.03512
1602.06796	0.03519
1600.78219	0.03522
1599.49642	0.03526
1598.21065	0.03534
1596.92488	0.03548
1595.63911	0.03565
1594.35335	0.03582
1593.06758	0.03595
1591.78181	0.03605
1590.49604	0.03615
1589.21027	0.03628
1587.92450	0.03645
1586.63873	0.03665
1585.35296	0.03682
1584.06719	0.03696
1582.78143	0.03710
1581.49566	0.03731
1580.20989	0.03760
1578.92412	0.03784
1577.63835	0.03796
1576.35258	0.03817
1575.06681	0.03869
1573.78104	0.03930
1572.49528	0.03964
1571.20951	0.03967
1569.92374	0.03969
1568.63797	0.03992
1567.35220	0.04027
1566.06643	0.04062
1564.78066	0.04100
1563.49489	0.04139
1562.20912	0.04155
1560.92336	0.04136
1559.63759	0.04116
1558.35182	0.04142
1557.06605	0.04204
1555.78028	0.04258
1554.49451	0.04291
1553.20874	0.04321
1551.92297	0.04352
1550.63721	0.04374
1549.35144	0.04390
1548.06567	0.04404
1546.77990	0.04417
1545.49413	0.04429
1544.20836	0.04441
1542.92259	0.04445
1541.63682	0.04437
1540.35105	0.04438
1539.06529	0.04477
1537.77952	0.04546
1536.49375	0.04600
1535.20798	0.04614
1533.92221	0.04616
1532.63644	0.04643
1531.35067	0.04699
1530.06490	0.04764
1528.77914	0.04829
1527.49337	0.04899
1526.20760	0.04982
1524.92183	0.05073
1523.63606	0.05159
1522.35029	0.05242
1521.06452	0.05347
1519.77875	0.05478
1518.49298	0.05612
1517.20722	0.05740
1515.92145	0.05873
1514.63568	0.06021
1513.34991	0.06181
1512.06414	0.06348
1510.77837	0.06516
1509.49260	0.06667
1508.20683	0.06796
1506.92107	0.06930
1505.63530	0.07099
1504.34953	0.07288
1503.06376	0.07454
1501.77799	0.07584
1500.49222	0.07691
1499.20645	0.07792
1497.92068	0.07892
1496.63491	0.07999
1495.34915	0.08115
1494.06338	0.08230
1492.77761	0.08323
1491.49184	0.08397
1490.20607	0.08474
1488.92030	0.08570
1487.63453	0.08687
1486.34876	0.08821
1485.06299	0.08964
1483.77723	0.09106
1482.49146	0.09244
1481.20569	0.09384
1479.91992	0.09528
1478.63415	0.09673
1477.34838	0.09815
1476.06261	0.09949
1474.77684	0.10073
1473.49108	0.10184
1472.20531	0.10292
1470.91954	0.10396
1469.63377	0.10486
1468.34800	0.10551
1467.06223	0.10593
1465.77646	0.10625
1464.49069	0.10661
1463.20492	0.10706
1461.91916	0.10755
1460.63339	0.10795
1459.34762	0.10819
1458.06185	0.10843
1456.77608	0.10898
1455.49031	0.10990
1454.20454	0.11081
1452.91877	0.11142
1451.63301	0.11174
1450.34724	0.11194
1449.06147	0.11210
1447.77570	0.11220
1446.48993	0.11225
1445.20416	0.11218
1443.91839	0.11195
1442.63262	0.11158
1441.34685	0.11112
1440.06109	0.11057
1438.77532	0.10993
1437.48955	0.10939
1436.20378	0.10923
1434.91801	0.10950
1433.63224	0.11004
1432.34647	0.11073
1431.06070	0.11165
1429.77494	0.11285
1428.48917	0.11430
1427.20340	0.11588
1425.91763	0.11751
1424.63186	0.11915
1423.34609	0.12075
1422.06032	0.12221
1420.77455	0.12349
1419.48878	0.12471
1418.20302	0.12595
1416.91725	0.12702
1415.63148	0.12774
1414.34571	0.12812
1413.05994	0.12826
1411.77417	0.12821
1410.48840	0.12792
1409.20263	0.12734
1407.91687	0.12640
1406.63110	0.12511
1405.34533	0.12357
1404.05956	0.12188
1402.77379	0.12002
1401.48802	0.11793
1400.20225	0.11560
1398.91648	0.11315
1397.63071	0.11071
1396.34495	0.10824
1395.05918	0.10573
1393.77341	0.10326
1392.48764	0.10084
1391.20187	0.09844
1389.91610	0.09600
1388.63033	0.09356
1387.34456	0.09121
1386.05880	0.08900
1384.77303	0.08686
1383.48726	0.08470
1382.20149	0.08251
1380.91572	0.08032
1379.62995	0.07814
1378.34418	0.07596
1377.05841	0.07374
1375.77264	0.07145
1374.48688	0.06907
1373.20111	0.06667
1371.91534	0.06430
1370.62957	0.06199
1369.34380	0.05980
1368.05803	0.05781
1366.77226	0.05598
1365.48649	0.05422
1364.20073	0.05245
1362.91496	0.05070
1361.62919	0.04909
1360.34342	0.04763
1359.05765	0.04630
1357.77188	0.04504
1356.48611	0.04384
1355.20034	0.04272
1353.91457	0.04170
1352.62881	0.04076
1351.34304	0.03992
1350.05727	0.03915
1348.77150	0.03843
1347.48573	0.03773
1346.19996	0.03702
1344.91419	0.03633
1343.62842	0.03569
1342.34266	0.03511
1341.05689	0.03460
1339.77112	0.03414
1338.48535	0.03371
1337.19958	0.03327
1335.91381	0.03281
1334.62804	0.03232
1333.34227	0.03185
1332.05650	0.03143
1330.77074	0.03107
1329.48497	0.03076
1328.19920	0.03046
1326.91343	0.03017
1325.62766	0.02990
1324.34189	0.02966
1323.05612	0.02942
1321.77035	0.02915
1320.48459	0.02888
1319.19882	0.02862
1317.91305	0.02838
1316.62728	0.02814
1315.34151	0.02785
1314.05574	0.02756
1312.76997	0.02729
1311.48420	0.02707
1310.19843	0.02690
1308.91267	0.02674
1307.62690	0.02655
1306.34113	0.02633
1305.05536	0.02611
1303.76959	0.02593
1302.48382	0.02583
1301.19805	0.02574
1299.91228	0.02561
1298.62652	0.02538
1297.34075	0.02511
1296.05498	0.02485
1294.76921	0.02466
1293.48344	0.02450
1292.19767	0.02435
1290.91190	0.02418
1289.62613	0.02399
1288.34036	0.02381
1287.05460	0.02367
1285.76883	0.02355
1284.48306	0.02344
1283.19729	0.02332
1281.91152	0.02320
1280.62575	0.02308
1279.33998	0.02295
1278.05421	0.02282
1276.76845	0.02267
1275.48268	0.02252
1274.19691	0.02235
1272.91114	0.02220
1271.62537	0.02207
1270.33960	0.02197
1269.05383	0.02186
1267.76806	0.02174
1266.48229	0.02161
1265.19653	0.02148
1263.91076	0.02138
1262.62499	0.02129
1261.33922	0.02119
1260.05345	0.02104
1258.76768	0.02088
1257.48191	0.02072
1256.19614	0.02059
1254.91037	0.02052
1253.62461	0.02050
1252.33884	0.02052
1251.05307	0.02052
1249.76730	0.02047
1248.48153	0.02037
1247.19576	0.02025
1245.90999	0.02015
1244.62422	0.02006
1243.33846	0.01996
1242.05269	0.01984
1240.76692	0.01971
1239.48115	0.01959
1238.19538	0.01950
1236.90961	0.01943
1235.62384	0.01937
1234.33807	0.01930
1233.05230	0.01921
1231.76654	0.01911
1230.48077	0.01900
1229.19500	0.01891
1227.90923	0.01883
1226.62346	0.01875
1225.33769	0.01865
1224.05192	0.01851
1222.76615	0.01837
1221.48039	0.01825
1220.19462	0.01817
1218.90885	0.01812
1217.62308	0.01806
1216.33731	0.01800
1215.05154	0.01794
1213.76577	0.01791
1212.48000	0.01789
1211.19423	0.01789
1209.90847	0.01788
1208.62270	0.01784
1207.33693	0.01776
1206.05116	0.01766
1204.76539	0.01755
1203.47962	0.01745
1202.19385	0.01741
1200.90808	0.01744
1199.62232	0.01752
1198.33655	0.01755
1197.05078	0.01754
1195.76501	0.01750
1194.47924	0.01743
1193.19347	0.01732
1191.90770	0.01718
1190.62193	0.01709
1189.33616	0.01708
1188.05040	0.01712
1186.76463	0.01717
1185.47886	0.01718
1184.19309	0.01717
1182.90732	0.01717
1181.62155	0.01718
1180.33578	0.01720
1179.05001	0.01724
1177.76425	0.01731
1176.47848	0.01737
1175.19271	0.01743
1173.90694	0.01751
1172.62117	0.01762
1171.33540	0.01774
1170.04963	0.01784
1168.76386	0.01788
1167.47809	0.01786
1166.19233	0.01783
1164.90656	0.01785
1163.62079	0.01797
1162.33502	0.01818
1161.04925	0.01842
1159.76348	0.01864
1158.47771	0.01883
1157.19194	0.01897
1155.90618	0.01906
1154.62041	0.01916
1153.33464	0.01938
1152.04887	0.01975
1150.76310	0.02022
1149.47733	0.02068
1148.19156	0.02110
1146.90579	0.02155
1145.62002	0.02206
1144.33426	0.02268
1143.04849	0.02340
1141.76272	0.02423
1140.47695	0.02518
1139.19118	0.02630
1137.90541	0.02759
1136.61964	0.02902
1135.33387	0.03054
1134.04811	0.03219
1132.76234	0.03410
1131.47657	0.03645
1130.19080	0.03926
1128.90503	0.04241
1127.61926	0.04577
1126.33349	0.04927
1125.04772	0.05295
1123.76195	0.05681
1122.47619	0.06080
1121.19042	0.06488
1119.90465	0.06903
1118.61888	0.07324
1117.33311	0.07743
1116.04734	0.08153
1114.76157	0.08548
1113.47580	0.08934
1112.19004	0.09317
1110.90427	0.09696
1109.61850	0.10062
1108.33273	0.10401
1107.04696	0.10707
1105.76119	0.10989
1104.47542	0.11267
1103.18965	0.11551
1101.90388	0.11840
1100.61812	0.12125
1099.33235	0.12400
1098.04658	0.12666
1096.76081	0.12920
1095.47504	0.13160
1094.18927	0.13380
1092.90350	0.13581
1091.61773	0.13769
1090.33197	0.13953
1089.04620	0.14140
1087.76043	0.14335
1086.47466	0.14536
1085.18889	0.14738
1083.90312	0.14940
1082.61735	0.15147
1081.33158	0.15367
1080.04581	0.15609
1078.76005	0.15877
1077.47428	0.16168
1076.18851	0.16478
1074.90274	0.16801
1073.61697	0.17135
1072.33120	0.17479
1071.04543	0.17831
1069.75966	0.18195
1068.47390	0.18574
1067.18813	0.18976
1065.90236	0.19399
1064.61659	0.19835
1063.33082	0.20273
1062.04505	0.20712
1060.75928	0.21157
1059.47351	0.21607
1058.18774	0.22054
1056.90198	0.22485
1055.61621	0.22902
1054.33044	0.23318
1053.04467	0.23748
1051.75890	0.24197
1050.47313	0.24665
1049.18736	0.25149
1047.90159	0.25646
1046.61583	0.26153
1045.33006	0.26665
1044.04429	0.27183
1042.75852	0.27712
1041.47275	0.28255
1040.18698	0.28811
1038.90121	0.29370
1037.61544	0.29929
1036.32967	0.30488
1035.04391	0.31050
1033.75814	0.31606
1032.47237	0.32138
1031.18660	0.32635
1029.90083	0.33089
1028.61506	0.33492
1027.32929	0.33837
1026.04352	0.34127
1024.75775	0.34372
1023.47199	0.34578
1022.18622	0.34731
1020.90045	0.34810
1019.61468	0.34800
1018.32891	0.34704
1017.04314	0.34526
1015.75737	0.34264
1014.47160	0.33913
1013.18584	0.33475
1011.90007	0.32956
1010.61430	0.32358
1009.32853	0.31677
1008.04276	0.30909
1006.75699	0.30060
1005.47122	0.29142
1004.18545	0.28171
1002.89968	0.27152
1001.61392	0.26093
1000.32815	0.25003
999.04238	0.23897
997.75661	0.22789
996.47084	0.21698
995.18507	0.20638
993.89930	0.19616
992.61353	0.18630
991.32777	0.17681
990.04200	0.16775
988.75623	0.15920
987.47046	0.15124
986.18469	0.14385
984.89892	0.13697
983.61315	0.13055
982.32738	0.12461
981.04161	0.11917
979.75585	0.11417
978.47008	0.10956
977.18431	0.10534
975.89854	0.10168
974.61277	0.09874
973.32700	0.09655
972.04123	0.09509
970.75546	0.09429
969.46970	0.09419
968.18393	0.09476
966.89816	0.09590
965.61239	0.09742
964.32662	0.09903
963.04085	0.10041
961.75508	0.10126
960.46931	0.10138
959.18354	0.10069
957.89778	0.09916
956.61201	0.09684
955.32624	0.09387
954.04047	0.09053
952.75470	0.08713
951.46893	0.08390
950.18316	0.08088
948.89739	0.07805
947.61163	0.07532
946.32586	0.07270
945.04009	0.07019
943.75432	0.06780
942.46855	0.06553
941.18278	0.06340
939.89701	0.06142
938.61124	0.05962
937.32547	0.05802
936.03971	0.05661
934.75394	0.05538
933.46817	0.05424
932.18240	0.05314
930.89663	0.05209
929.61086	0.05111
928.32509	0.05022
927.03932	0.04941
925.75356	0.04865
924.46779	0.04796
923.18202	0.04733
921.89625	0.04670
920.61048	0.04605
919.32471	0.04539
918.03894	0.04477
916.75317	0.04421
915.46740	0.04368
914.18164	0.04314
912.89587	0.04261
911.61010	0.04216
910.32433	0.04183
909.03856	0.04159
907.75279	0.04140
906.46702	0.04119
905.18125	0.04092
903.89549	0.04060
902.60972	0.04026
901.32395	0.03992
900.03818	0.03961
898.75241	0.03936
897.46664	0.03921
896.18087	0.03919
894.89510	0.03926
893.60933	0.03935
892.32357	0.03949
891.03780	0.03978
889.75203	0.04034
888.46626	0.04127
887.18049	0.04263
885.89472	0.04457
884.60895	0.04724
883.32318	0.05066
882.03742	0.05457
880.75165	0.05841
879.46588	0.06161
878.18011	0.06397
876.89434	0.06586
875.60857	0.06778
874.32280	0.06984
873.03703	0.07156
871.75126	0.07233
870.46550	0.07179
869.17973	0.07001
867.89396	0.06726
866.60819	0.06386
865.32242	0.06018
864.03665	0.05659
862.75088	0.05336
861.46511	0.05057
860.17935	0.04818
858.89358	0.04617
857.60781	0.04457
856.32204	0.04335
855.03627	0.04242
853.75050	0.04163
852.46473	0.04091
851.17896	0.04024
849.89319	0.03963
848.60743	0.03910
847.32166	0.03866
846.03589	0.03828
844.75012	0.03793
843.46435	0.03756
842.17858	0.03717
840.89281	0.03678
839.60704	0.03643
838.32128	0.03615
837.03551	0.03596
835.74974	0.03586
834.46397	0.03578
833.17820	0.03568
831.89243	0.03552
830.60666	0.03533
829.32089	0.03512
828.03512	0.03492
826.74936	0.03473
825.46359	0.03456
824.17782	0.03437
822.89205	0.03419
821.60628	0.03409
820.32051	0.03413
819.03474	0.03424
817.74897	0.03431
816.46321	0.03425
815.17744	0.03406
813.89167	0.03383
812.60590	0.03368
811.32013	0.03364
810.03436	0.03364
808.74859	0.03361
807.46282	0.03350
806.17705	0.03338
804.89129	0.03330
803.60552	0.03329
802.31975	0.03331
801.03398	0.03334
799.74821	0.03334
798.46244	0.03333
797.17667	0.03329
795.89090	0.03318
794.60513	0.03300
793.31937	0.03281
792.03360	0.03268
790.74783	0.03267
789.46206	0.03273
788.17629	0.03281
786.89052	0.03286
785.60475	0.03287
784.31898	0.03284
783.03322	0.03280
781.74745	0.03276
780.46168	0.03267
779.17591	0.03252
777.89014	0.03233
776.60437	0.03216
775.31860	0.03210
774.03283	0.03217
772.74706	0.03227
771.46130	0.03232
770.17553	0.03225
768.88976	0.03214
767.60399	0.03210
766.31822	0.03218
765.03245	0.03233
763.74668	0.03244
762.46091	0.03244
761.17515	0.03237
759.88938	0.03232
758.60361	0.03238
757.31784	0.03258
756.03207	0.03287
754.74630	0.03314
753.46053	0.03332
752.17476	0.03336
750.88899	0.03326
749.60323	0.03309
748.31746	0.03294
747.03169	0.03286
745.74592	0.03282
744.46015	0.03279
743.17438	0.03274
741.88861	0.03263
740.60284	0.03246
739.31708	0.03229
738.03131	0.03224
736.74554	0.03235
735.45977	0.03252
734.17400	0.03262
732.88823	0.03267
731.60246	0.03272
730.31669	0.03280
729.03092	0.03289
727.74516	0.03295
726.45939	0.03298
725.17362	0.03308
723.88785	0.03374
722.60208	0.03341
721.31631	0.03241
720.03054	0.03149
718.74477	0.03089
717.45901	0.03073
716.17324	0.03087
714.88747	0.03122
713.60170	0.03169
712.31593	0.03214
711.03016	0.03246
709.74439	0.03263
708.45862	0.03273
707.17285	0.03283
705.88709	0.03296
704.60132	0.03305
703.31555	0.03310
702.02978	0.03310
700.74401	0.03306
699.45824	0.03294
698.17247	0.03268
696.88670	0.03230
695.60094	0.03192
694.31517	0.03164
693.02940	0.03153
691.74363	0.03153
690.45786	0.03153
689.17209	0.03149
687.88632	0.03143
686.60055	0.03140
685.31478	0.03147
684.02902	0.03161
682.74325	0.03179
681.45748	0.03196
680.17171	0.03209
678.88594	0.03221
677.60017	0.03239
676.31440	0.03267
675.02863	0.03287
673.74287	0.03239
672.45710	0.03043
671.17133	0.02738
669.88556	0.02608
668.59979	0.02829
667.31402	0.02962
666.02825	0.02899
664.74248	0.03006
663.45671	0.03192
662.17095	0.03278
660.88518	0.03266
659.59941	0.03220
658.31364	0.03182
657.02787	0.03158
655.74210	0.03143
654.45633	0.03130
653.17056	0.03118
651.88480	0.03107
650.59903	0.03104
649.31326	0.03111
648.02749	0.03126
646.74172	0.03142
645.45595	0.03154
644.17018	0.03162
642.88441	0.03171
641.59864	0.03191
640.31288	0.03226
639.02711	0.03273
637.74134	0.03327
636.45557	0.03376
635.16980	0.03417
633.88403	0.03455
632.59826	0.03498
631.31249	0.03547
630.02673	0.03593
628.74096	0.03640
627.45519	0.03710
626.16942	0.03735
624.88365	0.03769
623.59788	0.03882
622.31211	0.04108
621.02634	0.04448
619.74057	0.04878
618.45481	0.05330
617.16904	0.05702
615.88327	0.05946
614.59750	0.06116
613.31173	0.06324
612.02596	0.06673
610.74019	0.07243
609.45442	0.08052
608.16866	0.09002
606.88289	0.09920
605.59712	0.10661
604.31135	0.11157
603.02558	0.11414
601.73981	0.11475
600.45404	0.11381
599.16827	0.11155
597.88250	0.10828
596.59674	0.10448
595.31097	0.10068
594.02520	0.09725
592.73943	0.09434
591.45366	0.09197
590.16789	0.09018
588.88212	0.08915
587.59635	0.08905
586.31059	0.08989
585.02482	0.09156
583.73905	0.09391
582.45328	0.09680
581.16751	0.10008
579.88174	0.10356
578.59597	0.10710
577.31020	0.11054
576.02443	0.11377
574.73867	0.11675
573.45290	0.11957
572.16713	0.12244
570.88136	0.12574
569.59559	0.12987
568.30982	0.13502
567.02405	0.14093
565.73828	0.14695
564.45251	0.15229
563.16675	0.15615
561.88098	0.15790
560.59521	0.15714
559.30944	0.15374
558.02367	0.14797
556.73790	0.14040
555.45213	0.13175
554.16636	0.12270
552.88060	0.11379
551.59483	0.10539
550.30906	0.09769
549.02329	0.09080
547.73752	0.08475
546.45175	0.07952
545.16598	0.07504
543.88021	0.07112
542.59444	0.06756
541.30868	0.06426
540.02291	0.06128
538.73714	0.05875
537.45137	0.05670
536.16560	0.05497
534.87983	0.05329
533.59406	0.05149
532.30829	0.04961
531.02253	0.04781
529.73676	0.04625
528.45099	0.04491
527.16522	0.04371
525.87945	0.04257
524.59368	0.04152
523.30791	0.04068
522.02214	0.04008
520.73637	0.03964
519.45061	0.03915
518.16484	0.03849
516.87907	0.03768
515.59330	0.03685
514.30753	0.03607
513.02176	0.03535
511.73599	0.03467
510.45022	0.03407
509.16446	0.03362
507.87869	0.03331
506.59292	0.03301
505.30715	0.03255
504.02138	0.03193
502.73561	0.03131
501.44984	0.03084
500.16407	0.03052
498.87830	0.03025
497.59254	0.02997
496.30677	0.02969
495.02100	0.02945
493.73523	0.02921
492.44946	0.02894
491.16369	0.02865
489.87792	0.02840
488.59215	0.02822
487.30639	0.02811
486.02062	0.02804
484.73485	0.02800
483.44908	0.02799
482.16331	0.02804
480.87754	0.02813
479.59177	0.02826
478.30600	0.02845
477.02023	0.02874
475.73447	0.02915
474.44870	0.02961
473.16293	0.03005
471.87716	0.03037
470.59139	0.03052
469.30562	0.03045
468.01985	0.03020
466.73408	0.02984
465.44832	0.02946
464.16255	0.02913
462.87678	0.02884
461.59101	0.02857
460.30524	0.02827
459.01947	0.02789
457.73370	0.02744
456.44793	0.02696
455.16216	0.02645
453.87640	0.02595
452.59063	0.02551
451.30486	0.02522
450.01909	0.02509
448.73332	0.02508
447.44755	0.02510
446.16178	0.02510
444.87601	0.02504
443.59025	0.02495
442.30448	0.02486
441.01871	0.02479
439.73294	0.02476
438.44717	0.02477
437.16140	0.02480
435.87563	0.02479
434.58986	0.02473
433.30409	0.02464
432.01833	0.02455
430.73256	0.02453
429.44679	0.02456
428.16102	0.02459
426.87525	0.02455
425.58948	0.02440
424.30371	0.02418
423.01794	0.02395
421.73218	0.02378
420.44641	0.02370
419.16064	0.02373
417.87487	0.02378
416.58910	0.02378
415.30333	0.02375
414.01756	0.02375
412.73179	0.02380
411.44602	0.02387
410.16026	0.02391
408.87449	0.02397
407.58872	0.02408
406.30295	0.02425
405.01718	0.02443
403.73141	0.02458
402.44564	0.02469
401.15987	0.02475
399.87411	0.02477
