3997.45528	0.00612
3996.16951	0.00570
3994.88374	0.00536
3993.59798	0.00514
3992.31221	0.00505
3991.02644	0.00512
3989.74067	0.00538
3988.45490	0.00581
3987.16913	0.00631
3985.88336	0.00670
3984.59759	0.00683
3983.31183	0.00670
3982.02606	0.00645
3980.74029	0.00628
3979.45452	0.00644
3978.16875	0.00713
3976.88298	0.00832
3975.59721	0.00961
3974.31144	0.01053
3973.02567	0.01096
3971.73991	0.01119
3970.45414	0.01155
3969.16837	0.01203
3967.88260	0.01237
3966.59683	0.01233
3965.31106	0.01187
3964.02529	0.01115
3962.73952	0.01043
3961.45376	0.00999
3960.16799	0.00998
3958.88222	0.01033
3957.59645	0.01092
3956.31068	0.01156
3955.02491	0.01208
3953.73914	0.01237
3952.45337	0.01249
3951.16760	0.01267
3949.88184	0.01305
3948.59607	0.01353
3947.31030	0.01382
3946.02453	0.01373
3944.73876	0.01329
3943.45299	0.01278
3942.16722	0.01255
3940.88145	0.01271
3939.59569	0.01312
3938.30992	0.01355
3937.02415	0.01386
3935.73838	0.01399
3934.45261	0.01387
3933.16684	0.01347
3931.88107	0.01295
3930.59530	0.01265
3929.30953	0.01278
3928.02377	0.01320
3926.73800	0.01351
3925.45223	0.01362
3924.16646	0.01384
3922.88069	0.01439
3921.59492	0.01496
3920.30915	0.01508
3919.02338	0.01464
3917.73762	0.01407
3916.45185	0.01393
3915.16608	0.01434
3913.88031	0.01498
3912.59454	0.01549
3911.30877	0.01577
3910.02300	0.01589
3908.73723	0.01602
3907.45146	0.01612
3906.16570	0.01591
3904.87993	0.01531
3903.59416	0.01462
3902.30839	0.01418
3901.02262	0.01395
3899.73685	0.01378
3898.45108	0.01379
3897.16531	0.01418
3895.87955	0.01490
3894.59378	0.01563
3893.30801	0.01605
3892.02224	0.01626
3890.73647	0.01661
3889.45070	0.01699
3888.16493	0.01679
3886.87916	0.01602
3885.59339	0.01571
3884.30763	0.01659
3883.02186	0.01806
3881.73609	0.01895
3880.45032	0.01881
3879.16455	0.01812
3877.87878	0.01741
3876.59301	0.01695
3875.30724	0.01693
3874.02148	0.01727
3872.73571	0.01748
3871.44994	0.01717
3870.16417	0.01682
3868.87840	0.01718
3867.59263	0.01803
3866.30686	0.01848
3865.02109	0.01808
3863.73532	0.01710
3862.44956	0.01618
3861.16379	0.01607
3859.87802	0.01720
3858.59225	0.01918
3857.30648	0.02074
3856.02071	0.02063
3854.73494	0.01894
3853.44917	0.01722
3852.16341	0.01683
3850.87764	0.01765
3849.59187	0.01882
3848.30610	0.01981
3847.02033	0.02045
3845.73456	0.02074
3844.44879	0.02082
3843.16302	0.02086
3841.87725	0.02076
3840.59149	0.02008
3839.30572	0.01874
3838.01995	0.01747
3836.73418	0.01718
3835.44841	0.01787
3834.16264	0.01884
3832.87687	0.01947
3831.59110	0.01967
3830.30534	0.01956
3829.01957	0.01928
3827.73380	0.01906
3826.44803	0.01913
3825.16226	0.01936
3823.87649	0.01919
3822.59072	0.01855
3821.30495	0.01830
3820.01918	0.01903
3818.73342	0.02000
3817.44765	0.02015
3816.16188	0.01967
3814.87611	0.01937
3813.59034	0.01928
3812.30457	0.01888
3811.01880	0.01800
3809.73303	0.01681
3808.44726	0.01572
3807.16150	0.01556
3805.87573	0.01678
3804.58996	0.01839
3803.30419	0.01894
3802.01842	0.01829
3800.73265	0.01760
3799.44688	0.01753
3798.16111	0.01773
3796.87535	0.01789
3795.58958	0.01816
3794.30381	0.01860
3793.01804	0.01905
3791.73227	0.01938
3790.44650	0.01956
3789.16073	0.01961
3787.87496	0.01962
3786.58919	0.01969
3785.30343	0.01982
3784.01766	0.01994
3782.73189	0.01995
3781.44612	0.01978
3780.16035	0.01954
3778.87458	0.01934
3777.58881	0.01919
3776.30304	0.01909
3775.01728	0.01920
3773.73151	0.01949
3772.44574	0.01953
3771.15997	0.01895
3769.87420	0.01801
3768.58843	0.01726
3767.30266	0.01698
3766.01689	0.01717
3764.73112	0.01771
3763.44536	0.01830
3762.15959	0.01858
3760.87382	0.01846
3759.58805	0.01824
3758.30228	0.01833
3757.01651	0.01894
3755.73074	0.01985
3754.44497	0.02045
3753.15921	0.02035
3751.87344	0.01975
3750.58767	0.01931
3749.30190	0.01958
3748.01613	0.02034
3746.73036	0.02050
3745.44459	0.01961
3744.15882	0.01858
3742.87305	0.01828
3741.58729	0.01847
3740.30152	0.01860
3739.01575	0.01834
3737.72998	0.01759
3736.44421	0.01664
3735.15844	0.01602
3733.87267	0.01573
3732.58690	0.01551
3731.30114	0.01527
3730.01537	0.01503
3728.72960	0.01477
3727.44383	0.01458
3726.15806	0.01462
3724.87229	0.01478
3723.58652	0.01469
3722.30075	0.01414
3721.01498	0.01330
3719.72922	0.01269
3718.44345	0.01307
3717.15768	0.01470
3715.87191	0.01683
3714.58614	0.01829
3713.30037	0.01850
3712.01460	0.01788
3710.72883	0.01712
3709.44307	0.01646
3708.15730	0.01598
3706.87153	0.01564
3705.58576	0.01542
3704.29999	0.01525
3703.01422	0.01511
3701.72845	0.01499
3700.44268	0.01481
3699.15691	0.01466
3697.87115	0.01479
3696.58538	0.01542
3695.29961	0.01626
3694.01384	0.01675
3692.72807	0.01673
3691.44230	0.01629
3690.15653	0.01554
3688.87076	0.01475
3687.58500	0.01441
3686.29923	0.01467
3685.01346	0.01527
3683.72769	0.01603
3682.44192	0.01709
3681.15615	0.01862
3679.87038	0.02044
3678.58461	0.02186
3677.29884	0.02235
3676.01308	0.02249
3674.72731	0.02315
3673.44154	0.02396
3672.15577	0.02373
3670.87000	0.02241
3669.58423	0.02124
3668.29846	0.02097
3667.01269	0.02126
3665.72693	0.02154
3664.44116	0.02165
3663.15539	0.02174
3661.86962	0.02196
3660.58385	0.02237
3659.29808	0.02289
3658.01231	0.02347
3656.72654	0.02428
3655.44077	0.02557
3654.15501	0.02707
3652.86924	0.02807
3651.58347	0.02803
3650.29770	0.02710
3649.01193	0.02595
3647.72616	0.02531
3646.44039	0.02548
3645.15462	0.02627
3643.86886	0.02727
3642.58309	0.02805
3641.29732	0.02840
3640.01155	0.02828
3638.72578	0.02790
3637.44001	0.02754
3636.15424	0.02751
3634.86847	0.02810
3633.58270	0.02946
3632.29694	0.03105
3631.01117	0.03193
3629.72540	0.03186
3628.43963	0.03143
3627.15386	0.03121
3625.86809	0.03121
3624.58232	0.03141
3623.29655	0.03176
3622.01079	0.03208
3620.72502	0.03213
3619.43925	0.03218
3618.15348	0.03257
3616.86771	0.03332
3615.58194	0.03421
3614.29617	0.03518
3613.01040	0.03627
3611.72463	0.03713
3610.43887	0.03733
3609.15310	0.03686
3607.86733	0.03631
3606.58156	0.03617
3605.29579	0.03648
3604.01002	0.03701
3602.72425	0.03760
3601.43848	0.03823
3600.15272	0.03895
3598.86695	0.03975
3597.58118	0.04053
3596.29541	0.04125
3595.00964	0.04187
3593.72387	0.04242
3592.43810	0.04293
3591.15233	0.04323
3589.86656	0.04318
3588.58080	0.04300
3587.29503	0.04306
3586.00926	0.04352
3584.72349	0.04430
3583.43772	0.04525
3582.15195	0.04629
3580.86618	0.04739
3579.58041	0.04846
3578.29464	0.04947
3577.00888	0.05033
3575.72311	0.05084
3574.43734	0.05091
3573.15157	0.05073
3571.86580	0.05065
3570.58003	0.05079
3569.29426	0.05101
3568.00849	0.05115
3566.72273	0.05129
3565.43696	0.05168
3564.15119	0.05243
3562.86542	0.05338
3561.57965	0.05424
3560.29388	0.05482
3559.00811	0.05522
3557.72234	0.05569
3556.43657	0.05637
3555.15081	0.05710
3553.86504	0.05761
3552.57927	0.05776
3551.29350	0.05770
3550.00773	0.05774
3548.72196	0.05802
3547.43619	0.05846
3546.15042	0.05887
3544.86466	0.05908
3543.57889	0.05903
3542.29312	0.05891
3541.00735	0.05903
3539.72158	0.05960
3538.43581	0.06061
3537.15004	0.06179
3535.86427	0.06281
3534.57850	0.06342
3533.29274	0.06356
3532.00697	0.06339
3530.72120	0.06324
3529.43543	0.06337
3528.14966	0.06384
3526.86389	0.06452
3525.57812	0.06527
3524.29235	0.06604
3523.00659	0.06683
3521.72082	0.06745
3520.43505	0.06756
3519.14928	0.06714
3517.86351	0.06669
3516.57774	0.06686
3515.29197	0.06790
3514.00620	0.06949
3512.72043	0.07096
3511.43467	0.07180
3510.14890	0.07199
3508.86313	0.07189
3507.57736	0.07193
3506.29159	0.07226
3505.00582	0.07273
3503.72005	0.07310
3502.43428	0.07336
3501.14852	0.07376
3499.86275	0.07444
3498.57698	0.07524
3497.29121	0.07578
3496.00544	0.07601
3494.71967	0.07620
3493.43390	0.07659
3492.14813	0.07703
3490.86236	0.07720
3489.57660	0.07703
3488.29083	0.07679
3487.00506	0.07688
3485.71929	0.07743
3484.43352	0.07825
3483.14775	0.07900
3481.86198	0.07947
3480.57621	0.07971
3479.29045	0.07992
3478.00468	0.08025
3476.71891	0.08068
3475.43314	0.08106
3474.14737	0.08130
3472.86160	0.08145
3471.57583	0.08168
3470.29006	0.08207
3469.00429	0.08252
3467.71853	0.08284
3466.43276	0.08293
3465.14699	0.08281
3463.86122	0.08261
3462.57545	0.08250
3461.28968	0.08261
3460.00391	0.08294
3458.71814	0.08345
3457.43238	0.08417
3456.14661	0.08507
3454.86084	0.08593
3453.57507	0.08644
3452.28930	0.08656
3451.00353	0.08655
3449.71776	0.08665
3448.43199	0.08684
3447.14622	0.08694
3445.86046	0.08695
3444.57469	0.08705
3443.28892	0.08742
3442.00315	0.08813
3440.71738	0.08900
3439.43161	0.08971
3438.14584	0.08998
3436.86007	0.08974
3435.57431	0.08920
3434.28854	0.08875
3433.00277	0.08864
3431.71700	0.08895
3430.43123	0.08953
3429.14546	0.09016
3427.85969	0.09068
3426.57392	0.09110
3425.28815	0.09154
3424.00239	0.09202
3422.71662	0.09234
3421.43085	0.09238
3420.14508	0.09233
3418.85931	0.09251
3417.57354	0.09290
3416.28777	0.09317
3415.00200	0.09314
3413.71624	0.09312
3412.43047	0.09354
3411.14470	0.09444
3409.85893	0.09536
3408.57316	0.09588
3407.28739	0.09600
3406.00162	0.09602
3404.71585	0.09611
3403.43008	0.09625
3402.14432	0.09629
3400.85855	0.09618
3399.57278	0.09598
3398.28701	0.09578
3397.00124	0.09564
3395.71547	0.09564
3394.42970	0.09589
3393.14393	0.09634
3391.85817	0.09685
3390.57240	0.09721
3389.28663	0.09731
3388.00086	0.09724
3386.71509	0.09714
3385.42932	0.09705
3384.14355	0.09694
3382.85778	0.09679
3381.57201	0.09668
3380.28625	0.09670
3379.00048	0.09680
3377.71471	0.09688
3376.42894	0.09685
3375.14317	0.09681
3373.85740	0.09692
3372.57163	0.09727
3371.28586	0.09777
3370.00010	0.09832
3368.71433	0.09882
3367.42856	0.09917
3366.14279	0.09923
3364.85702	0.09895
3363.57125	0.09847
3362.28548	0.09807
3360.99971	0.09790
3359.71394	0.09794
3358.42818	0.09800
3357.14241	0.09804
3355.85664	0.09819
3354.57087	0.09862
3353.28510	0.09922
3351.99933	0.09969
3350.71356	0.09973
3349.42779	0.09933
3348.14202	0.09874
3346.85626	0.09826
3345.57049	0.09807
3344.28472	0.09814
3342.99895	0.09829
3341.71318	0.09838
3340.42741	0.09843
3339.14164	0.09848
3337.85587	0.09849
3336.57011	0.09845
3335.28434	0.09836
3333.99857	0.09828
3332.71280	0.09824
3331.42703	0.09815
3330.14126	0.09792
3328.85549	0.09758
3327.56972	0.09737
3326.28395	0.09753
3324.99819	0.09808
3323.71242	0.09876
3322.42665	0.09926
3321.14088	0.09945
3319.85511	0.09944
3318.56934	0.09930
3317.28357	0.09901
3315.99780	0.09859
3314.71204	0.09817
3313.42627	0.09793
3312.14050	0.09794
3310.85473	0.09803
3309.56896	0.09798
3308.28319	0.09771
3306.99742	0.09727
3305.71165	0.09686
3304.42588	0.09659
3303.14012	0.09645
3301.85435	0.09639
3300.56858	0.09645
3299.28281	0.09668
3297.99704	0.09696
3296.71127	0.09709
3295.42550	0.09702
3294.13973	0.09693
3292.85397	0.09703
3291.56820	0.09731
3290.28243	0.09756
3288.99666	0.09757
3287.71089	0.09726
3286.42512	0.09682
3285.13935	0.09655
3283.85358	0.09662
3282.56781	0.09684
3281.28205	0.09686
3279.99628	0.09653
3278.71051	0.09608
3277.42474	0.09583
3276.13897	0.09589
3274.85320	0.09609
3273.56743	0.09617
3272.28166	0.09601
3270.99590	0.09572
3269.71013	0.09548
3268.42436	0.09541
3267.13859	0.09543
3265.85282	0.09543
3264.56705	0.09536
3263.28128	0.09525
3261.99551	0.09514
3260.70974	0.09503
3259.42398	0.09501
3258.13821	0.09520
3256.85244	0.09561
3255.56667	0.09604
3254.28090	0.09615
3252.99513	0.09581
3251.70936	0.09520
3250.42359	0.09465
3249.13783	0.09435
3247.85206	0.09427
3246.56629	0.09431
3245.28052	0.09449
3243.99475	0.09482
3242.70898	0.09513
3241.42321	0.09521
3240.13744	0.09499
3238.85167	0.09457
3237.56591	0.09410
3236.28014	0.09373
3234.99437	0.09363
3233.70860	0.09380
3232.42283	0.09406
3231.13706	0.09413
3229.85129	0.09393
3228.56552	0.09359
3227.27976	0.09329
3225.99399	0.09308
3224.70822	0.09294
3223.42245	0.09286
3222.13668	0.09283
3220.85091	0.09281
3219.56514	0.09278
3218.27937	0.09269
3216.99360	0.09254
3215.70784	0.09234
3214.42207	0.09219
3213.13630	0.09222
3211.85053	0.09243
3210.56476	0.09266
3209.27899	0.09268
3207.99322	0.09233
3206.70745	0.09170
3205.42169	0.09104
3204.13592	0.09060
3202.85015	0.09045
3201.56438	0.09051
3200.27861	0.09066
3198.99284	0.09083
3197.70707	0.09104
3196.42130	0.09124
3195.13553	0.09140
3193.84977	0.09145
3192.56400	0.09138
3191.27823	0.09124
3189.99246	0.09108
3188.70669	0.09097
3187.42092	0.09089
3186.13515	0.09075
3184.84938	0.09044
3183.56362	0.09003
3182.27785	0.08974
3180.99208	0.08971
3179.70631	0.08987
3178.42054	0.08995
3177.13477	0.08971
3175.84900	0.08917
3174.56323	0.08863
3173.27746	0.08842
3171.99170	0.08863
3170.70593	0.08896
3169.42016	0.08902
3168.13439	0.08870
3166.84862	0.08823
3165.56285	0.08793
3164.27708	0.08785
3162.99131	0.08779
3161.70555	0.08754
3160.41978	0.08713
3159.13401	0.08677
3157.84824	0.08662
3156.56247	0.08662
3155.27670	0.08660
3153.99093	0.08645
3152.70516	0.08621
3151.41939	0.08599
3150.13363	0.08582
3148.84786	0.08572
3147.56209	0.08566
3146.27632	0.08563
3144.99055	0.08557
3143.70478	0.08547
3142.41901	0.08530
3141.13324	0.08508
3139.84748	0.08486
3138.56171	0.08466
3137.27594	0.08445
3135.99017	0.08418
3134.70440	0.08395
3133.41863	0.08383
3132.13286	0.08378
3130.84709	0.08359
3129.56132	0.08323
3128.27556	0.08288
3126.98979	0.08278
3125.70402	0.08287
3124.41825	0.08293
3123.13248	0.08286
3121.84671	0.08274
3120.56094	0.08259
3119.27517	0.08228
3117.98940	0.08174
3116.70364	0.08115
3115.41787	0.08078
3114.13210	0.08072
3112.84633	0.08088
3111.56056	0.08118
3110.27479	0.08158
3108.98902	0.08200
3107.70325	0.08221
3106.41749	0.08210
3105.13172	0.08169
3103.84595	0.08115
3102.56018	0.08074
3101.27441	0.08069
3099.98864	0.08105
3098.70287	0.08160
3097.41710	0.08191
3096.13133	0.08171
3094.84557	0.08110
3093.55980	0.08038
3092.27403	0.07981
3090.98826	0.07952
3089.70249	0.07956
3088.41672	0.07979
3087.13095	0.08000
3085.84518	0.08000
3084.55942	0.07987
3083.27365	0.07974
3081.98788	0.07963
3080.70211	0.07944
3079.41634	0.07918
3078.13057	0.07894
3076.84480	0.07875
3075.55903	0.07850
3074.27326	0.07807
3072.98750	0.07757
3071.70173	0.07723
3070.41596	0.07722
3069.13019	0.07748
3067.84442	0.07784
3066.55865	0.07809
3065.27288	0.07815
3063.98711	0.07802
3062.70135	0.07779
3061.41558	0.07752
3060.12981	0.07725
3058.84404	0.07699
3057.55827	0.07678
3056.27250	0.07662
3054.98673	0.07645
3053.70096	0.07618
3052.41519	0.07581
3051.12943	0.07543
3049.84366	0.07512
3048.55789	0.07487
3047.27212	0.07466
3045.98635	0.07447
3044.70058	0.07430
3043.41481	0.07416
3042.12904	0.07407
3040.84328	0.07404
3039.55751	0.07409
3038.27174	0.07416
3036.98597	0.07419
3035.70020	0.07416
3034.41443	0.07408
3033.12866	0.07402
3031.84289	0.07404
3030.55712	0.07418
3029.27136	0.07437
3027.98559	0.07447
3026.69982	0.07437
3025.41405	0.07408
3024.12828	0.07369
3022.84251	0.07341
3021.55674	0.07336
3020.27097	0.07347
3018.98521	0.07353
3017.69944	0.07342
3016.41367	0.07320
3015.12790	0.07296
3013.84213	0.07277
3012.55636	0.07257
3011.27059	0.07236
3009.98482	0.07221
3008.69905	0.07217
3007.41329	0.07221
3006.12752	0.07223
3004.84175	0.07213
3003.55598	0.07193
3002.27021	0.07170
3000.98444	0.07152
2999.69867	0.07140
2998.41290	0.07132
2997.12714	0.07130
2995.84137	0.07136
2994.55560	0.07150
2993.26983	0.07168
2991.98406	0.07191
2990.69829	0.07210
2989.41252	0.07214
2988.12675	0.07205
2986.84098	0.07207
2985.55522	0.07245
2984.26945	0.07316
2982.98368	0.07389
2981.69791	0.07451
2980.41214	0.07510
2979.12637	0.07580
2977.84060	0.07663
2976.55483	0.07757
2975.26907	0.07856
2973.98330	0.07954
2972.69753	0.08052
2971.41176	0.08162
2970.12599	0.08291
2968.84022	0.08438
2967.55445	0.08592
2966.26868	0.08747
2964.98291	0.08898
2963.69715	0.09042
2962.41138	0.09181
2961.12561	0.09324
2959.83984	0.09470
2958.55407	0.09607
2957.26830	0.09721
2955.98253	0.09804
2954.69676	0.09855
2953.41100	0.09881
2952.12523	0.09891
2950.83946	0.09899
2949.55369	0.09912
2948.26792	0.09920
2946.98215	0.09906
2945.69638	0.09857
2944.41061	0.09794
2943.12484	0.09755
2941.83908	0.09772
2940.55331	0.09843
2939.26754	0.09942
2937.98177	0.10046
2936.69600	0.10143
2935.41023	0.10237
2934.12446	0.10341
2932.83869	0.10468
2931.55293	0.10611
2930.26716	0.10746
2928.98139	0.10853
2927.69562	0.10936
2926.40985	0.11013
2925.12408	0.11088
2923.83831	0.11138
2922.55254	0.11140
2921.26677	0.11093
2919.98101	0.11008
2918.69524	0.10892
2917.40947	0.10746
2916.12370	0.10580
2914.83793	0.10415
2913.55216	0.10268
2912.26639	0.10140
2910.98062	0.10028
2909.69486	0.09931
2908.40909	0.09850
2907.12332	0.09780
2905.83755	0.09707
2904.55178	0.09623
2903.26601	0.09528
2901.98024	0.09430
2900.69447	0.09332
2899.40870	0.09236
2898.12294	0.09140
2896.83717	0.09050
2895.55140	0.08970
2894.26563	0.08895
2892.97986	0.08806
2891.69409	0.08693
2890.40832	0.08573
2889.12255	0.08479
2887.83678	0.08426
2886.55102	0.08404
2885.26525	0.08385
2883.97948	0.08351
2882.69371	0.08306
2881.40794	0.08271
2880.12217	0.08267
2878.83640	0.08302
2877.55063	0.08365
2876.26487	0.08438
2874.97910	0.08507
2873.69333	0.08569
2872.40756	0.08624
2871.12179	0.08667
2869.83602	0.08693
2868.55025	0.08700
2867.26448	0.08693
2865.97871	0.08683
2864.69295	0.08679
2863.40718	0.08688
2862.12141	0.08710
2860.83564	0.08732
2859.54987	0.08744
2858.26410	0.08749
2856.97833	0.08743
2855.69256	0.08711
2854.40680	0.08641
2853.12103	0.08543
2851.83526	0.08446
2850.54949	0.08366
2849.26372	0.08289
2847.97795	0.08191
2846.69218	0.08064
2845.40641	0.07916
2844.12064	0.07766
2842.83488	0.07633
2841.54911	0.07529
2840.26334	0.07450
2838.97757	0.07373
2837.69180	0.07275
2836.40603	0.07155
2835.12026	0.07028
2833.83449	0.06910
2832.54873	0.06802
2831.26296	0.06704
2829.97719	0.06621
2828.69142	0.06557
2827.40565	0.06509
2826.11988	0.06468
2824.83411	0.06428
2823.54834	0.06390
2822.26257	0.06358
2820.97681	0.06332
2819.69104	0.06305
2818.40527	0.06269
2817.11950	0.06225
2815.83373	0.06183
2814.54796	0.06151
2813.26219	0.06125
2811.97642	0.06103
2810.69066	0.06081
2809.40489	0.06061
2808.11912	0.06041
2806.83335	0.06017
2805.54758	0.05991
2804.26181	0.05970
2802.97604	0.05956
2801.69027	0.05951
2800.40450	0.05954
2799.11874	0.05964
2797.83297	0.05973
2796.54720	0.05968
2795.26143	0.05942
2793.97566	0.05899
2792.68989	0.05856
2791.40412	0.05826
2790.11835	0.05815
2788.83259	0.05814
2787.54682	0.05812
2786.26105	0.05797
2784.97528	0.05768
2783.68951	0.05732
2782.40374	0.05701
2781.11797	0.05676
2779.83220	0.05654
2778.54643	0.05632
2777.26067	0.05607
2775.97490	0.05579
2774.68913	0.05552
2773.40336	0.05532
2772.11759	0.05523
2770.83182	0.05521
2769.54605	0.05521
2768.26028	0.05519
2766.97452	0.05520
2765.68875	0.05532
2764.40298	0.05554
2763.11721	0.05572
2761.83144	0.05564
2760.54567	0.05532
2759.25990	0.05500
2757.97413	0.05492
2756.68836	0.05504
2755.40260	0.05513
2754.11683	0.05501
2752.83106	0.05474
2751.54529	0.05447
2750.25952	0.05430
2748.97375	0.05421
2747.68798	0.05415
2746.40221	0.05409
2745.11645	0.05402
2743.83068	0.05394
2742.54491	0.05380
2741.25914	0.05356
2739.97337	0.05328
2738.68760	0.05310
2737.40183	0.05308
2736.11606	0.05320
2734.83029	0.05332
2733.54453	0.05337
2732.25876	0.05331
2730.97299	0.05313
2729.68722	0.05286
2728.40145	0.05264
2727.11568	0.05263
2725.82991	0.05282
2724.54414	0.05296
2723.25838	0.05284
2721.97261	0.05255
2720.68684	0.05237
2719.40107	0.05241
2718.11530	0.05254
2716.82953	0.05256
2715.54376	0.05248
2714.25799	0.05240
2712.97222	0.05232
2711.68646	0.05218
2710.40069	0.05193
2709.11492	0.05164
2707.82915	0.05141
2706.54338	0.05133
2705.25761	0.05139
2703.97184	0.05144
2702.68607	0.05135
2701.40031	0.05115
2700.11454	0.05094
2698.82877	0.05083
2697.54300	0.05081
2696.25723	0.05085
2694.97146	0.05090
2693.68569	0.05092
2692.39992	0.05086
2691.11415	0.05073
2689.82839	0.05056
2688.54262	0.05039
2687.25685	0.05022
2685.97108	0.05000
2684.68531	0.04973
2683.39954	0.04944
2682.11377	0.04920
2680.82800	0.04906
2679.54224	0.04901
2678.25647	0.04900
2676.97070	0.04902
2675.68493	0.04909
2674.39916	0.04923
2673.11339	0.04940
2671.82762	0.04954
2670.54185	0.04961
2669.25608	0.04963
2667.97032	0.04957
2666.68455	0.04941
2665.39878	0.04917
2664.11301	0.04902
2662.82724	0.04907
2661.54147	0.04927
2660.25570	0.04951
2658.96993	0.04966
2657.68417	0.04974
2656.39840	0.04974
2655.11263	0.04966
2653.82686	0.04949
2652.54109	0.04926
2651.25532	0.04904
2649.96955	0.04883
2648.68378	0.04863
2647.39801	0.04847
2646.11225	0.04834
2644.82648	0.04811
2643.54071	0.04771
2642.25494	0.04725
2640.96917	0.04695
2639.68340	0.04691
2638.39763	0.04693
2637.11186	0.04675
2635.82609	0.04632
2634.54033	0.04580
2633.25456	0.04544
2631.96879	0.04533
2630.68302	0.04538
2629.39725	0.04538
2628.11148	0.04523
2626.82571	0.04496
2625.53994	0.04464
2624.25418	0.04434
2622.96841	0.04407
2621.68264	0.04385
2620.39687	0.04368
2619.11110	0.04352
2617.82533	0.04332
2616.53956	0.04305
2615.25379	0.04279
2613.96802	0.04260
2612.68226	0.04247
2611.39649	0.04231
2610.11072	0.04217
2608.82495	0.04212
2607.53918	0.04214
2606.25341	0.04208
2604.96764	0.04190
2603.68187	0.04165
2602.39611	0.04135
2601.11034	0.04097
2599.82457	0.04054
2598.53880	0.04018
2597.25303	0.04004
2595.96726	0.04008
2594.68149	0.04011
2593.39572	0.03996
2592.10995	0.03965
2590.82419	0.03933
2589.53842	0.03914
2588.25265	0.03913
2586.96688	0.03925
2585.68111	0.03945
2584.39534	0.03964
2583.10957	0.03976
2581.82380	0.03977
2580.53804	0.03966
2579.25227	0.03943
2577.96650	0.03912
2576.68073	0.03885
2575.39496	0.03872
2574.10919	0.03871
2572.82342	0.03869
2571.53765	0.03845
2570.25188	0.03793
2568.96612	0.03728
2567.68035	0.03684
2566.39458	0.03686
2565.10881	0.03726
2563.82304	0.03771
2562.53727	0.03793
2561.25150	0.03791
2559.96573	0.03779
2558.67997	0.03769
2557.39420	0.03759
2556.10843	0.03751
2554.82266	0.03748
2553.53689	0.03750
2552.25112	0.03750
2550.96535	0.03741
2549.67958	0.03722
2548.39381	0.03694
2547.10805	0.03665
2545.82228	0.03643
2544.53651	0.03627
2543.25074	0.03611
2541.96497	0.03591
2540.67920	0.03571
2539.39343	0.03559
2538.10766	0.03554
2536.82190	0.03544
2535.53613	0.03518
2534.25036	0.03484
2532.96459	0.03465
2531.67882	0.03478
2530.39305	0.03521
2529.10728	0.03578
2527.82151	0.03624
2526.53574	0.03642
2525.24998	0.03631
2523.96421	0.03608
2522.67844	0.03588
2521.39267	0.03568
2520.10690	0.03537
2518.82113	0.03491
2517.53536	0.03447
2516.24959	0.03422
2514.96383	0.03418
2513.67806	0.03424
2512.39229	0.03429
2511.10652	0.03430
2509.82075	0.03434
2508.53498	0.03448
2507.24921	0.03466
2505.96344	0.03479
2504.67767	0.03491
2503.39191	0.03512
2502.10614	0.03541
2500.82037	0.03557
2499.53460	0.03551
2498.24883	0.03535
2496.96306	0.03524
2495.67729	0.03515
2494.39152	0.03503
2493.10576	0.03487
2491.81999	0.03469
2490.53422	0.03446
2489.24845	0.03422
2487.96268	0.03414
2486.67691	0.03426
2485.39114	0.03443
2484.10537	0.03452
2482.81960	0.03448
2481.53384	0.03435
2480.24807	0.03417
2478.96230	0.03403
2477.67653	0.03398
2476.39076	0.03394
2475.10499	0.03375
2473.81922	0.03341
2472.53345	0.03314
2471.24769	0.03315
2469.96192	0.03337
2468.67615	0.03357
2467.39038	0.03369
2466.10461	0.03386
2464.81884	0.03416
2463.53307	0.03439
2462.24730	0.03431
2460.96153	0.03391
2459.67577	0.03351
2458.39000	0.03336
2457.10423	0.03346
2455.81846	0.03361
2454.53269	0.03365
2453.24692	0.03361
2451.96115	0.03364
2450.67538	0.03380
2449.38962	0.03398
2448.10385	0.03399
2446.81808	0.03378
2445.53231	0.03346
2444.24654	0.03316
2442.96077	0.03292
2441.67500	0.03273
2440.38923	0.03262
2439.10346	0.03256
2437.81770	0.03244
2436.53193	0.03218
2435.24616	0.03190
2433.96039	0.03178
2432.67462	0.03183
2431.38885	0.03192
2430.10308	0.03193
2428.81731	0.03188
2427.53155	0.03184
2426.24578	0.03183
2424.96001	0.03178
2423.67424	0.03168
2422.38847	0.03159
2421.10270	0.03159
2419.81693	0.03171
2418.53116	0.03179
2417.24539	0.03165
2415.95963	0.03128
2414.67386	0.03084
2413.38809	0.03053
2412.10232	0.03052
2410.81655	0.03083
2409.53078	0.03128
2408.24501	0.03163
2406.95924	0.03173
2405.67347	0.03160
2404.38771	0.03138
2403.10194	0.03121
2401.81617	0.03122
2400.53040	0.03150
2399.24463	0.03282
2397.95886	0.03386
2396.67309	0.03415
2395.38732	0.03391
2394.10156	0.03333
2392.81579	0.03258
2391.53002	0.03179
2390.24425	0.03117
2388.95848	0.03087
2387.67271	0.03095
2386.38694	0.03134
2385.10117	0.03186
2383.81540	0.03235
2382.52964	0.03276
2381.24387	0.03314
2379.95810	0.03351
2378.67233	0.03390
2377.38656	0.03430
2376.10079	0.03448
2374.81502	0.03437
2373.52925	0.03396
2372.24349	0.03316
2370.95772	0.03205
2369.67195	0.03051
2368.38618	0.02878
2367.10041	0.02727
2365.81464	0.02571
2364.52887	0.02358
2363.24310	0.02135
2361.95733	0.01994
2360.67157	0.01950
2359.38580	0.01935
2358.10003	0.01914
2356.81426	0.01841
2355.52849	0.01692
2354.24272	0.01550
2352.95695	0.01518
2351.67118	0.01699
2350.38542	0.02117
2349.09965	0.02576
2347.81388	0.02863
2346.52811	0.02985
2345.24234	0.03022
2343.95657	0.02981
2342.67080	0.02872
2341.38503	0.02780
2340.09926	0.02745
2338.81350	0.02721
2337.52773	0.02677
2336.24196	0.02578
2334.95619	0.02464
2333.67042	0.02398
2332.38465	0.02366
2331.09888	0.02378
2329.81311	0.02435
2328.52735	0.02502
2327.24158	0.02602
2325.95581	0.02738
2324.67004	0.02863
2323.38427	0.02965
2322.09850	0.03023
2320.81273	0.03003
2319.52696	0.02943
2318.24119	0.02891
2316.95543	0.02864
2315.66966	0.02868
2314.38389	0.02896
2313.09812	0.02923
2311.81235	0.02925
2310.52658	0.02907
2309.24081	0.02894
2307.95504	0.02890
2306.66928	0.02883
2305.38351	0.02868
2304.09774	0.02848
2302.81197	0.02831
2301.52620	0.02824
2300.24043	0.02832
2298.95466	0.02849
2297.66889	0.02865
2296.38312	0.02871
2295.09736	0.02865
2293.81159	0.02858
2292.52582	0.02863
2291.24005	0.02881
2289.95428	0.02905
2288.66851	0.02926
2287.38274	0.02940
2286.09697	0.02952
2284.81121	0.02964
2283.52544	0.02972
2282.23967	0.02972
2280.95390	0.02954
2279.66813	0.02912
2278.38236	0.02847
2277.09659	0.02775
2275.81082	0.02714
2274.52505	0.02667
2273.23929	0.02618
2271.95352	0.02558
2270.66775	0.02505
2269.38198	0.02484
2268.09621	0.02493
2266.81044	0.02507
2265.52467	0.02497
2264.23890	0.02464
2262.95314	0.02430
2261.66737	0.02414
2260.38160	0.02425
2259.09583	0.02448
2257.81006	0.02460
2256.52429	0.02447
2255.23852	0.02413
2253.95275	0.02376
2252.66698	0.02345
2251.38122	0.02322
2250.09545	0.02321
2248.80968	0.02340
2247.52391	0.02307
2246.23814	0.02257
2244.95237	0.02201
2243.66660	0.02153
2242.38083	0.02123
2241.09507	0.02107
2239.80930	0.02100
2238.52353	0.02097
2237.23776	0.02092
2235.95199	0.02084
2234.66622	0.02071
2233.38045	0.02056
2232.09468	0.02036
2230.80891	0.01996
2229.52315	0.01926
2228.23738	0.01840
2226.95161	0.01783
2225.66584	0.01795
2224.38007	0.01857
2223.09430	0.01900
2221.80853	0.01867
2220.52276	0.01777
2219.23700	0.01712
2217.95123	0.01739
2216.66546	0.01839
2215.37969	0.01920
2214.09392	0.01904
2212.80815	0.01789
2211.52238	0.01660
2210.23661	0.01602
2208.95084	0.01624
2207.66508	0.01661
2206.37931	0.01644
2205.09354	0.01570
2203.80777	0.01495
2202.52200	0.01460
2201.23623	0.01453
2199.95046	0.01432
2198.66469	0.01382
2197.37893	0.01332
2196.09316	0.01320
2194.80739	0.01354
2193.52162	0.01408
2192.23585	0.01441
2190.95008	0.01423
2189.66431	0.01349
2188.37854	0.01233
2187.09277	0.01112
2185.80701	0.01032
2184.52124	0.01025
2183.23547	0.01085
2181.94970	0.01170
2180.66393	0.01237
2179.37816	0.01250
2178.09239	0.01190
2176.80662	0.01070
2175.52085	0.00948
2174.23509	0.00885
2172.94932	0.00895
2171.66355	0.00940
2170.37778	0.00977
2169.09201	0.00984
2167.80624	0.00965
2166.52047	0.00942
2165.23470	0.00954
2163.94894	0.01004
2162.66317	0.01015
2161.37740	0.00877
2160.09163	0.00588
2158.80586	0.00300
2157.52009	0.00171
2156.23432	0.00212
2154.94855	0.00342
2153.66278	0.00487
2152.37702	0.00617
2151.09125	0.00722
2149.80548	0.00816
2148.51971	0.00919
2147.23394	0.01019
2145.94817	0.01077
2144.66240	0.01074
2143.37663	0.01047
2142.09087	0.01058
2140.80510	0.01128
2139.51933	0.01223
2138.23356	0.01284
2136.94779	0.01276
2135.66202	0.01211
2134.37625	0.01130
2133.09048	0.01077
2131.80471	0.01066
2130.51895	0.01088
2129.23318	0.01125
2127.94741	0.01171
2126.66164	0.01229
2125.37587	0.01296
2124.09010	0.01358
2122.80433	0.01413
2121.51856	0.01475
2120.23280	0.01545
2118.94703	0.01597
2117.66126	0.01609
2116.37549	0.01591
2115.08972	0.01579
2113.80395	0.01602
2112.51818	0.01659
2111.23241	0.01721
2109.94664	0.01755
2108.66088	0.01760
2107.37511	0.01759
2106.08934	0.01770
2104.80357	0.01783
2103.51780	0.01770
2102.23203	0.01726
2100.94626	0.01671
2099.66049	0.01650
2098.37473	0.01590
2097.08896	0.01502
2095.80319	0.01433
2094.51742	0.01424
2093.23165	0.01477
2091.94588	0.01547
2090.66011	0.01589
2089.37434	0.01592
2088.08857	0.01587
2086.80281	0.01600
2085.51704	0.01619
2084.23127	0.01609
2082.94550	0.01559
2081.65973	0.01512
2080.37396	0.01517
2079.08819	0.01573
2077.80242	0.01617
2076.51666	0.01589
2075.23089	0.01484
2073.94512	0.01346
2072.65935	0.01234
2071.37358	0.01180
2070.08781	0.01188
2068.80204	0.01239
2067.51627	0.01297
2066.23050	0.01330
2064.94474	0.01328
2063.65897	0.01305
2062.37320	0.01275
2061.08743	0.01248
2059.80166	0.01227
2058.51589	0.01209
2057.23012	0.01189
2055.94435	0.01167
2054.65859	0.01163
2053.37282	0.01204
2052.08705	0.01280
2050.80128	0.01328
2049.51551	0.01287
2048.22974	0.01147
2046.94397	0.00958
2045.65820	0.00787
2044.37243	0.00681
2043.08667	0.00659
2041.80090	0.00704
2040.51513	0.00768
2039.22936	0.00786
2037.94359	0.00727
2036.65782	0.00631
2035.37205	0.00583
2034.08628	0.00625
2032.80052	0.00702
2031.51475	0.00711
2030.22898	0.00598
2028.94321	0.00410
2027.65744	0.00253
2026.37167	0.00210
2025.08590	0.00291
2023.80013	0.00434
2022.51436	0.00555
2021.22860	0.00613
2019.94283	0.00630
2018.65706	0.00645
2017.37129	0.00674
2016.08552	0.00702
2014.79975	0.00707
2013.51398	0.00691
2012.22821	0.00682
2010.94245	0.00695
2009.65668	0.00716
2008.37091	0.00721
2007.08514	0.00718
2005.79937	0.00740
2004.51360	0.00799
2003.22783	0.00874
2001.94206	0.00940
2000.65629	0.00993
1999.37053	0.01043
1998.08476	0.01094
1996.79899	0.01138
1995.51322	0.01169
1994.22745	0.01179
1992.94168	0.01164
1991.65591	0.01135
1990.37014	0.01110
1989.08438	0.01102
1987.79861	0.01115
1986.51284	0.01148
1985.22707	0.01199
1983.94130	0.01262
1982.65553	0.01323
1981.36976	0.01359
1980.08399	0.01348
1978.79822	0.01286
1977.51246	0.01195
1976.22669	0.01107
1974.94092	0.01047
1973.65515	0.01025
1972.36938	0.01052
1971.08361	0.01127
1969.79784	0.01218
1968.51207	0.01269
1967.22631	0.01251
1965.94054	0.01187
1964.65477	0.01119
1963.36900	0.01075
1962.08323	0.01063
1960.79746	0.01086
1959.51169	0.01139
1958.22592	0.01200
1956.94015	0.01252
1955.65439	0.01296
1954.36862	0.01347
1953.08285	0.01402
1951.79708	0.01438
1950.51131	0.01436
1949.22554	0.01402
1947.93977	0.01364
1946.65400	0.01347
1945.36823	0.01354
1944.08247	0.01364
1942.79670	0.01362
1941.51093	0.01356
1940.22516	0.01377
1938.93939	0.01440
1937.65362	0.01527
1936.36785	0.01597
1935.08208	0.01626
1933.79632	0.01619
1932.51055	0.01603
1931.22478	0.01593
1929.93901	0.01587
1928.65324	0.01570
1927.36747	0.01538
1926.08170	0.01500
1924.79593	0.01469
1923.51016	0.01460
1922.22440	0.01483
1920.93863	0.01528
1919.65286	0.01572
1918.36709	0.01592
1917.08132	0.01589
1915.79555	0.01577
1914.50978	0.01580
1913.22401	0.01605
1911.93825	0.01634
1910.65248	0.01644
1909.36671	0.01632
1908.08094	0.01619
1906.79517	0.01629
1905.50940	0.01661
1904.22363	0.01697
1902.93786	0.01721
1901.65209	0.01733
1900.36633	0.01740
1899.08056	0.01746
1897.79479	0.01748
1896.50902	0.01748
1895.22325	0.01745
1893.93748	0.01741
1892.65171	0.01733
1891.36594	0.01728
1890.08018	0.01736
1888.79441	0.01762
1887.50864	0.01795
1886.22287	0.01815
1884.93710	0.01811
1883.65133	0.01790
1882.36556	0.01766
1881.07979	0.01745
1879.79402	0.01723
1878.50826	0.01698
1877.22249	0.01679
1875.93672	0.01681
1874.65095	0.01707
1873.36518	0.01752
1872.07941	0.01800
1870.79364	0.01837
1869.50787	0.01857
1868.22211	0.01860
1866.93634	0.01853
1865.65057	0.01844
1864.36480	0.01842
1863.07903	0.01850
1861.79326	0.01859
1860.50749	0.01861
1859.22172	0.01856
1857.93595	0.01846
1856.65019	0.01835
1855.36442	0.01822
1854.07865	0.01806
1852.79288	0.01791
1851.50711	0.01782
1850.22134	0.01788
1848.93557	0.01817
1847.64980	0.01860
1846.36404	0.01894
1845.07827	0.01900
1843.79250	0.01884
1842.50673	0.01858
1841.22096	0.01828
1839.93519	0.01799
1838.64942	0.01786
1837.36365	0.01791
1836.07788	0.01802
1834.79212	0.01810
1833.50635	0.01813
1832.22058	0.01813
1830.93481	0.01813
1829.64904	0.01821
1828.36327	0.01837
1827.07750	0.01850
1825.79173	0.01855
1824.50597	0.01859
1823.22020	0.01867
1821.93443	0.01876
1820.64866	0.01874
1819.36289	0.01853
1818.07712	0.01818
1816.79135	0.01788
1815.50558	0.01783
1814.21981	0.01805
1812.93405	0.01837
1811.64828	0.01859
1810.36251	0.01868
1809.07674	0.01872
1807.79097	0.01878
1806.50520	0.01889
1805.21943	0.01904
1803.93366	0.01917
1802.64790	0.01923
1801.36213	0.01921
1800.07636	0.01917
1798.79059	0.01917
1797.50482	0.01929
1796.21905	0.01953
1794.93328	0.01981
1793.64751	0.02001
1792.36174	0.02012
1791.07598	0.02021
1789.79021	0.02028
1788.50444	0.02027
1787.21867	0.02017
1785.93290	0.02003
1784.64713	0.01996
1783.36136	0.01997
1782.07559	0.02000
1780.78983	0.02001
1779.50406	0.02007
1778.21829	0.02026
1776.93252	0.02062
1775.64675	0.02103
1774.36098	0.02125
1773.07521	0.02126
1771.78944	0.02121
1770.50367	0.02122
1769.21791	0.02123
1767.93214	0.02129
1766.64637	0.02145
1765.36060	0.02166
1764.07483	0.02173
1762.78906	0.02167
1761.50329	0.02165
1760.21752	0.02176
1758.93176	0.02186
1757.64599	0.02188
1756.36022	0.02195
1755.07445	0.02214
1753.78868	0.02232
1752.50291	0.02233
1751.21714	0.02221
1749.93137	0.02210
1748.64560	0.02203
1747.35984	0.02205
1746.07407	0.02215
1744.78830	0.02234
1743.50253	0.02255
1742.21676	0.02270
1740.93099	0.02278
1739.64522	0.02298
1738.35945	0.02347
1737.07369	0.02401
1735.78792	0.02425
1734.50215	0.02416
1733.21638	0.02405
1731.93061	0.02406
1730.64484	0.02406
1729.35907	0.02402
1728.07330	0.02404
1726.78753	0.02413
1725.50177	0.02427
1724.21600	0.02453
1722.93023	0.02498
1721.64446	0.02565
1720.35869	0.02633
1719.07292	0.02680
1717.78715	0.02709
1716.50138	0.02734
1715.21561	0.02762
1713.92985	0.02793
1712.64408	0.02828
1711.35831	0.02868
1710.07254	0.02911
1708.78677	0.02956
1707.50100	0.03004
1706.21523	0.03062
1704.92946	0.03145
1703.64370	0.03243
1702.35793	0.03320
1701.07216	0.03371
1699.78639	0.03421
1698.50062	0.03467
1697.21485	0.03478
1695.92908	0.03463
1694.64331	0.03466
1693.35754	0.03494
1692.07178	0.03530
1690.78601	0.03573
1689.50024	0.03639
1688.21447	0.03720
1686.92870	0.03781
1685.64293	0.03803
1684.35716	0.03811
1683.07139	0.03834
1681.78563	0.03869
1680.49986	0.03910
1679.21409	0.03964
1677.92832	0.04026
1676.64255	0.04078
1675.35678	0.04122
1674.07101	0.04172
1672.78524	0.04223
1671.49947	0.04257
1670.21371	0.04279
1668.92794	0.04306
1667.64217	0.04351
1666.35640	0.04406
1665.07063	0.04455
1663.78486	0.04495
1662.49909	0.04532
1661.21332	0.04572
1659.92756	0.04617
1658.64179	0.04681
1657.35602	0.04771
1656.07025	0.04859
1654.78448	0.04902
1653.49871	0.04901
1652.21294	0.04902
1650.92717	0.04926
1649.64140	0.04948
1648.35564	0.04942
1647.06987	0.04920
1645.78410	0.04899
1644.49833	0.04886
1643.21256	0.04882
1641.92679	0.04889
1640.64102	0.04917
1639.35525	0.04958
1638.06949	0.04983
1636.78372	0.04973
1635.49795	0.04939
1634.21218	0.04910
1632.92641	0.04897
1631.64064	0.04897
1630.35487	0.04905
1629.06910	0.04921
1627.78333	0.04941
1626.49757	0.04957
1625.21180	0.04962
1623.92603	0.04955
1622.64026	0.04951
1621.35449	0.04964
1620.06872	0.04985
1618.78295	0.04992
1617.49718	0.04982
1616.21142	0.04973
1614.92565	0.04974
1613.63988	0.04978
1612.35411	0.04983
1611.06834	0.04999
1609.78257	0.05028
1608.49680	0.05063
1607.21103	0.05096
1605.92526	0.05125
1604.63950	0.05149
1603.35373	0.05168
1602.06796	0.05183
1600.78219	0.05199
1599.49642	0.05219
1598.21065	0.05241
1596.92488	0.05261
1595.63911	0.05276
1594.35335	0.05291
1593.06758	0.05312
1591.78181	0.05341
1590.49604	0.05375
1589.21027	0.05414
1587.92450	0.05456
1586.63873	0.05501
1585.35296	0.05545
1584.06719	0.05587
1582.78143	0.05628
1581.49566	0.05680
1580.20989	0.05750
1578.92412	0.05821
1577.63835	0.05870
1576.35258	0.05901
1575.06681	0.05939
1573.78104	0.05991
1572.49528	0.06041
1571.20951	0.06080
1569.92374	0.06117
1568.63797	0.06158
1567.35220	0.06196
1566.06643	0.06232
1564.78066	0.06287
1563.49489	0.06375
1562.20912	0.06473
1560.92336	0.06538
1559.63759	0.06566
1558.35182	0.06583
1557.06605	0.06601
1555.78028	0.06607
1554.49451	0.06604
1553.20874	0.06609
1551.92297	0.06626
1550.63721	0.06645
1549.35144	0.06667
1548.06567	0.06695
1546.77990	0.06727
1545.49413	0.06762
1544.20836	0.06800
1542.92259	0.06826
1541.63682	0.06819
1540.35105	0.06782
1539.06529	0.06743
1537.77952	0.06726
1536.49375	0.06721
1535.20798	0.06714
1533.92221	0.06713
1532.63644	0.06739
1531.35067	0.06791
1530.06490	0.06860
1528.77914	0.06941
1527.49337	0.07034
1526.20760	0.07143
1524.92183	0.07265
1523.63606	0.07390
1522.35029	0.07511
1521.06452	0.07643
1519.77875	0.07791
1518.49298	0.07941
1517.20722	0.08091
1515.92145	0.08253
1514.63568	0.08436
1513.34991	0.08636
1512.06414	0.08860
1510.77837	0.09107
1509.49260	0.09356
1508.20683	0.09579
1506.92107	0.09774
1505.63530	0.09959
1504.34953	0.10142
1503.06376	0.10315
1501.77799	0.10482
1500.49222	0.10651
1499.20645	0.10817
1497.92068	0.10967
1496.63491	0.11105
1495.34915	0.11243
1494.06338	0.11388
1492.77761	0.11532
1491.49184	0.11672
1490.20607	0.11813
1488.92030	0.11958
1487.63453	0.12111
1486.34876	0.12276
1485.06299	0.12462
1483.77723	0.12665
1482.49146	0.12878
1481.20569	0.13096
1479.91992	0.13311
1478.63415	0.13521
1477.34838	0.13725
1476.06261	0.13921
1474.77684	0.14100
1473.49108	0.14250
1472.20531	0.14375
1470.91954	0.14485
1469.63377	0.14581
1468.34800	0.14658
1467.06223	0.14715
1465.77646	0.14755
1464.49069	0.14792
1463.20492	0.14842
1461.91916	0.14916
1460.63339	0.15009
1459.34762	0.15101
1458.06185	0.15177
1456.77608	0.15246
1455.49031	0.15318
1454.20454	0.15387
1452.91877	0.15446
1451.63301	0.15502
1450.34724	0.15556
1449.06147	0.15601
1447.77570	0.15627
1446.48993	0.15629
1445.20416	0.15607
1443.91839	0.15566
1442.63262	0.15521
1441.34685	0.15480
1440.06109	0.15441
1438.77532	0.15394
1437.48955	0.15343
1436.20378	0.15313
1434.91801	0.15324
1433.63224	0.15378
1432.34647	0.15471
1431.06070	0.15605
1429.77494	0.15777
1428.48917	0.15980
1427.20340	0.16203
1425.91763	0.16441
1424.63186	0.16692
1423.34609	0.16954
1422.06032	0.17210
1420.77455	0.17441
1419.48878	0.17644
1418.20302	0.17824
1416.91725	0.17978
1415.63148	0.18097
1414.34571	0.18181
1413.05994	0.18234
1411.77417	0.18255
1410.48840	0.18243
1409.20263	0.18197
1407.91687	0.18108
1406.63110	0.17971
1405.34533	0.17788
1404.05956	0.17571
1402.77379	0.17329
1401.48802	0.17063
1400.20225	0.16770
1398.91648	0.16458
1397.63071	0.16128
1396.34495	0.15778
1395.05918	0.15409
1393.77341	0.15034
1392.48764	0.14662
1391.20187	0.14294
1389.91610	0.13925
1388.63033	0.13558
1387.34456	0.13201
1386.05880	0.12858
1384.77303	0.12530
1383.48726	0.12209
1382.20149	0.11890
1380.91572	0.11570
1379.62995	0.11244
1378.34418	0.10913
1377.05841	0.10572
1375.77264	0.10214
1374.48688	0.09838
1373.20111	0.09453
1371.91534	0.09072
1370.62957	0.08707
1369.34380	0.08367
1368.05803	0.08062
1366.77226	0.07786
1365.48649	0.07525
1364.20073	0.07266
1362.91496	0.07008
1361.62919	0.06761
1360.34342	0.06533
1359.05765	0.06325
1357.77188	0.06131
1356.48611	0.05948
1355.20034	0.05779
1353.91457	0.05625
1352.62881	0.05486
1351.34304	0.05361
1350.05727	0.05245
1348.77150	0.05135
1347.48573	0.05028
1346.19996	0.04925
1344.91419	0.04828
1343.62842	0.04739
1342.34266	0.04657
1341.05689	0.04580
1339.77112	0.04506
1338.48535	0.04437
1337.19958	0.04373
1335.91381	0.04313
1334.62804	0.04255
1333.34227	0.04197
1332.05650	0.04142
1330.77074	0.04091
1329.48497	0.04044
1328.19920	0.03999
1326.91343	0.03952
1325.62766	0.03906
1324.34189	0.03862
1323.05612	0.03824
1321.77035	0.03791
1320.48459	0.03760
1319.19882	0.03727
1317.91305	0.03691
1316.62728	0.03653
1315.34151	0.03615
1314.05574	0.03580
1312.76997	0.03550
1311.48420	0.03525
1310.19843	0.03501
1308.91267	0.03478
1307.62690	0.03453
1306.34113	0.03426
1305.05536	0.03399
1303.76959	0.03374
1302.48382	0.03352
1301.19805	0.03331
1299.91228	0.03308
1298.62652	0.03284
1297.34075	0.03258
1296.05498	0.03232
1294.76921	0.03207
1293.48344	0.03185
1292.19767	0.03168
1290.91190	0.03152
1289.62613	0.03134
1288.34036	0.03117
1287.05460	0.03101
1285.76883	0.03086
1284.48306	0.03069
1283.19729	0.03049
1281.91152	0.03026
1280.62575	0.03002
1279.33998	0.02979
1278.05421	0.02956
1276.76845	0.02934
1275.48268	0.02914
1274.19691	0.02895
1272.91114	0.02878
1271.62537	0.02864
1270.33960	0.02854
1269.05383	0.02845
1267.76806	0.02835
1266.48229	0.02821
1265.19653	0.02805
1263.91076	0.02789
1262.62499	0.02775
1261.33922	0.02763
1260.05345	0.02750
1258.76768	0.02736
1257.48191	0.02720
1256.19614	0.02709
1254.91037	0.02703
1253.62461	0.02702
1252.33884	0.02697
1251.05307	0.02685
1249.76730	0.02668
1248.48153	0.02650
1247.19576	0.02634
1245.90999	0.02619
1244.62422	0.02602
1243.33846	0.02584
1242.05269	0.02569
1240.76692	0.02558
1239.48115	0.02549
1238.19538	0.02542
1236.90961	0.02533
1235.62384	0.02522
1234.33807	0.02508
1233.05230	0.02493
1231.76654	0.02479
1230.48077	0.02472
1229.19500	0.02469
1227.90923	0.02466
1226.62346	0.02459
1225.33769	0.02449
1224.05192	0.02440
1222.76615	0.02432
1221.48039	0.02422
1220.19462	0.02409
1218.90885	0.02394
1217.62308	0.02380
1216.33731	0.02370
1215.05154	0.02365
1213.76577	0.02365
1212.48000	0.02367
1211.19423	0.02369
1209.90847	0.02369
1208.62270	0.02366
1207.33693	0.02363
1206.05116	0.02361
1204.76539	0.02360
1203.47962	0.02358
1202.19385	0.02352
1200.90808	0.02341
1199.62232	0.02324
1198.33655	0.02315
1197.05078	0.02312
1195.76501	0.02316
1194.47924	0.02322
1193.19347	0.02328
1191.90770	0.02332
1190.62193	0.02334
1189.33616	0.02333
1188.05040	0.02333
1186.76463	0.02339
1185.47886	0.02350
1184.19309	0.02360
1182.90732	0.02363
1181.62155	0.02360
1180.33578	0.02355
1179.05001	0.02352
1177.76425	0.02356
1176.47848	0.02368
1175.19271	0.02387
1173.90694	0.02405
1172.62117	0.02417
1171.33540	0.02423
1170.04963	0.02426
1168.76386	0.02434
1167.47809	0.02452
1166.19233	0.02480
1164.90656	0.02514
1163.62079	0.02545
1162.33502	0.02572
1161.04925	0.02593
1159.76348	0.02612
1158.47771	0.02635
1157.19194	0.02662
1155.90618	0.02694
1154.62041	0.02727
1153.33464	0.02764
1152.04887	0.02809
1150.76310	0.02862
1149.47733	0.02919
1148.19156	0.02980
1146.90579	0.03046
1145.62002	0.03120
1144.33426	0.03203
1143.04849	0.03298
1141.76272	0.03407
1140.47695	0.03531
1139.19118	0.03670
1137.90541	0.03824
1136.61964	0.03995
1135.33387	0.04185
1134.04811	0.04394
1132.76234	0.04627
1131.47657	0.04892
1130.19080	0.05190
1128.90503	0.05515
1127.61926	0.05865
1126.33349	0.06242
1125.04772	0.06647
1123.76195	0.07081
1122.47619	0.07540
1121.19042	0.08018
1119.90465	0.08508
1118.61888	0.09005
1117.33311	0.09505
1116.04734	0.10013
1114.76157	0.10527
1113.47580	0.11042
1112.19004	0.11550
1110.90427	0.12049
1109.61850	0.12539
1108.33273	0.13018
1107.04696	0.13482
1105.76119	0.13931
1104.47542	0.14371
1103.18965	0.14807
1101.90388	0.15239
1100.61812	0.15663
1099.33235	0.16076
1098.04658	0.16477
1096.76081	0.16864
1095.47504	0.17231
1094.18927	0.17576
1092.90350	0.17900
1091.61773	0.18208
1090.33197	0.18503
1089.04620	0.18788
1087.76043	0.19061
1086.47466	0.19323
1085.18889	0.19580
1083.90312	0.19841
1082.61735	0.20112
1081.33158	0.20404
1080.04581	0.20722
1078.76005	0.21067
1077.47428	0.21438
1076.18851	0.21836
1074.90274	0.22261
1073.61697	0.22712
1072.33120	0.23186
1071.04543	0.23676
1069.75966	0.24179
1068.47390	0.24694
1067.18813	0.25221
1065.90236	0.25757
1064.61659	0.26299
1063.33082	0.26846
1062.04505	0.27403
1060.75928	0.27967
1059.47351	0.28538
1058.18774	0.29110
1056.90198	0.29680
1055.61621	0.30244
1054.33044	0.30797
1053.04467	0.31346
1051.75890	0.31899
1050.47313	0.32460
1049.18736	0.33037
1047.90159	0.33634
1046.61583	0.34257
1045.33006	0.34901
1044.04429	0.35550
1042.75852	0.36198
1041.47275	0.36850
1040.18698	0.37522
1038.90121	0.38221
1037.61544	0.38945
1036.32967	0.39680
1035.04391	0.40411
1033.75814	0.41124
1032.47237	0.41808
1031.18660	0.42463
1029.90083	0.43091
1028.61506	0.43685
1027.32929	0.44231
1026.04352	0.44711
1024.75775	0.45116
1023.47199	0.45450
1022.18622	0.45724
1020.90045	0.45944
1019.61468	0.46105
1018.32891	0.46188
1017.04314	0.46173
1015.75737	0.46044
1014.47160	0.45797
1013.18584	0.45435
1011.90007	0.44963
1010.61430	0.44380
1009.32853	0.43687
1008.04276	0.42887
1006.75699	0.41983
1005.47122	0.40979
1004.18545	0.39886
1002.89968	0.38719
1001.61392	0.37493
1000.32815	0.36218
999.04238	0.34903
997.75661	0.33554
996.47084	0.32185
995.18507	0.30811
993.89930	0.29456
992.61353	0.28138
991.32777	0.26869
990.04200	0.25649
988.75623	0.24482
987.47046	0.23374
986.18469	0.22327
984.89892	0.21331
983.61315	0.20379
982.32738	0.19474
981.04161	0.18631
979.75585	0.17862
978.47008	0.17169
977.18431	0.16549
975.89854	0.16001
974.61277	0.15531
973.32700	0.15148
972.04123	0.14857
970.75546	0.14660
969.46970	0.14561
968.18393	0.14566
966.89816	0.14669
965.61239	0.14851
964.32662	0.15073
963.04085	0.15285
961.75508	0.15435
960.46931	0.15481
959.18354	0.15398
957.89778	0.15185
956.61201	0.14863
955.32624	0.14466
954.04047	0.14030
952.75470	0.13577
951.46893	0.13123
950.18316	0.12680
948.89739	0.12259
947.61163	0.11860
946.32586	0.11479
945.04009	0.11106
943.75432	0.10729
942.46855	0.10353
941.18278	0.09994
939.89701	0.09672
938.61124	0.09390
937.32547	0.09136
936.03971	0.08896
934.75394	0.08661
933.46817	0.08435
932.18240	0.08225
930.89663	0.08035
929.61086	0.07867
928.32509	0.07713
927.03932	0.07568
925.75356	0.07429
924.46779	0.07298
923.18202	0.07176
921.89625	0.07063
920.61048	0.06957
919.32471	0.06857
918.03894	0.06763
916.75317	0.06677
915.46740	0.06597
914.18164	0.06519
912.89587	0.06436
911.61010	0.06347
910.32433	0.06257
909.03856	0.06172
907.75279	0.06099
906.46702	0.06035
905.18125	0.05976
903.89549	0.05921
902.60972	0.05873
901.32395	0.05835
900.03818	0.05801
898.75241	0.05765
897.46664	0.05721
896.18087	0.05675
894.89510	0.05632
893.60933	0.05599
892.32357	0.05586
891.03780	0.05603
889.75203	0.05659
888.46626	0.05758
887.18049	0.05903
885.89472	0.06115
884.60895	0.06429
883.32318	0.06870
882.03742	0.07415
880.75165	0.07983
879.46588	0.08474
878.18011	0.08848
876.89434	0.09148
875.60857	0.09449
874.32280	0.09773
873.03703	0.10063
871.75126	0.10229
870.46550	0.10214
869.17973	0.10017
867.89396	0.09668
866.60819	0.09210
865.32242	0.08690
864.03665	0.08161
862.75088	0.07671
861.46511	0.07246
860.17935	0.06892
858.89358	0.06604
857.60781	0.06369
856.32204	0.06178
855.03627	0.06024
853.75050	0.05896
852.46473	0.05785
851.17896	0.05685
849.89319	0.05595
848.60743	0.05516
847.32166	0.05448
846.03589	0.05391
844.75012	0.05343
843.46435	0.05300
842.17858	0.05258
840.89281	0.05212
839.60704	0.05160
838.32128	0.05109
837.03551	0.05065
835.74974	0.05026
834.46397	0.04987
833.17820	0.04950
831.89243	0.04919
830.60666	0.04899
829.32089	0.04888
828.03512	0.04879
826.74936	0.04866
825.46359	0.04850
824.17782	0.04834
822.89205	0.04818
821.60628	0.04800
820.32051	0.04783
819.03474	0.04768
817.74897	0.04759
816.46321	0.04753
815.17744	0.04746
813.89167	0.04734
812.60590	0.04717
811.32013	0.04696
810.03436	0.04672
808.74859	0.04650
807.46282	0.04634
806.17705	0.04628
804.89129	0.04631
803.60552	0.04640
802.31975	0.04651
801.03398	0.04658
799.74821	0.04654
798.46244	0.04637
797.17667	0.04611
795.89090	0.04587
794.60513	0.04574
793.31937	0.04570
792.03360	0.04568
790.74783	0.04562
789.46206	0.04553
788.17629	0.04545
786.89052	0.04540
785.60475	0.04537
784.31898	0.04531
783.03322	0.04521
781.74745	0.04512
780.46168	0.04506
779.17591	0.04496
777.89014	0.04478
776.60437	0.04461
775.31860	0.04456
774.03283	0.04465
772.74706	0.04474
771.46130	0.04474
770.17553	0.04464
768.88976	0.04454
767.60399	0.04447
766.31822	0.04444
765.03245	0.04444
763.74668	0.04448
762.46091	0.04456
761.17515	0.04468
759.88938	0.04487
758.60361	0.04510
757.31784	0.04532
756.03207	0.04543
754.74630	0.04539
753.46053	0.04525
752.17476	0.04511
750.88899	0.04504
749.60323	0.04503
748.31746	0.04504
747.03169	0.04498
745.74592	0.04482
744.46015	0.04462
743.17438	0.04443
741.88861	0.04427
740.60284	0.04414
739.31708	0.04405
738.03131	0.04397
736.74554	0.04388
735.45977	0.04375
734.17400	0.04362
732.88823	0.04356
731.60246	0.04360
730.31669	0.04369
729.03092	0.04378
727.74516	0.04385
726.45939	0.04394
725.17362	0.04407
723.88785	0.04410
722.60208	0.04438
721.31631	0.04476
720.03054	0.04501
718.74477	0.04506
717.45901	0.04492
716.17324	0.04472
714.88747	0.04454
713.60170	0.04438
712.31593	0.04422
711.03016	0.04403
709.74439	0.04385
708.45862	0.04368
707.17285	0.04353
705.88709	0.04340
704.60132	0.04331
703.31555	0.04326
702.02978	0.04325
700.74401	0.04330
699.45824	0.04339
698.17247	0.04355
696.88670	0.04374
695.60094	0.04395
694.31517	0.04412
693.02940	0.04423
691.74363	0.04426
690.45786	0.04421
689.17209	0.04409
687.88632	0.04394
686.60055	0.04375
685.31478	0.04355
684.02902	0.04334
682.74325	0.04317
681.45748	0.04303
680.17171	0.04291
678.88594	0.04280
677.60017	0.04269
676.31440	0.04262
675.02863	0.04266
673.74287	0.04305
672.45710	0.04405
671.17133	0.04536
669.88556	0.04574
668.59979	0.04462
667.31402	0.04411
666.02825	0.04450
664.74248	0.04410
663.45671	0.04326
662.17095	0.04268
660.88518	0.04243
659.59941	0.04233
658.31364	0.04226
657.02787	0.04222
655.74210	0.04222
654.45633	0.04229
653.17056	0.04238
651.88480	0.04246
650.59903	0.04251
649.31326	0.04252
648.02749	0.04254
646.74172	0.04257
645.45595	0.04262
644.17018	0.04271
642.88441	0.04288
641.59864	0.04314
640.31288	0.04347
639.02711	0.04386
637.74134	0.04426
636.45557	0.04468
635.16980	0.04512
633.88403	0.04561
632.59826	0.04623
631.31249	0.04712
630.02673	0.04841
628.74096	0.04970
627.45519	0.05048
626.16942	0.05246
624.88365	0.05518
623.59788	0.05811
622.31211	0.06140
621.02634	0.06509
619.74057	0.06880
618.45481	0.07238
617.16904	0.07635
615.88327	0.08119
614.59750	0.08688
613.31173	0.09324
612.02596	0.10049
610.74019	0.10901
609.45442	0.11831
608.16866	0.12699
606.88289	0.13410
605.59712	0.13991
604.31135	0.14498
603.02558	0.14921
601.73981	0.15184
600.45404	0.15214
599.16827	0.14998
597.88250	0.14594
596.59674	0.14094
595.31097	0.13586
594.02520	0.13129
592.73943	0.12752
591.45366	0.12461
590.16789	0.12261
588.88212	0.12161
587.59635	0.12159
586.31059	0.12246
585.02482	0.12412
583.73905	0.12658
582.45328	0.12981
581.16751	0.13368
579.88174	0.13795
578.59597	0.14241
577.31020	0.14692
576.02443	0.15141
574.73867	0.15581
573.45290	0.16001
572.16713	0.16401
570.88136	0.16809
569.59559	0.17282
568.30982	0.17874
567.02405	0.18590
565.73828	0.19364
564.45251	0.20079
563.16675	0.20614
561.88098	0.20888
560.59521	0.20865
559.30944	0.20545
558.02367	0.19953
556.73790	0.19136
555.45213	0.18151
554.16636	0.17064
552.88060	0.15951
551.59483	0.14884
550.30906	0.13906
549.02329	0.13030
547.73752	0.12253
546.45175	0.11565
545.16598	0.10954
543.88021	0.10406
542.59444	0.09910
541.30868	0.09466
540.02291	0.09076
538.73714	0.08732
537.45137	0.08420
536.16560	0.08131
534.87983	0.07864
533.59406	0.07619
532.30829	0.07391
531.02253	0.07174
529.73676	0.06968
528.45099	0.06777
527.16522	0.06604
525.87945	0.06447
524.59368	0.06299
523.30791	0.06152
522.02214	0.06003
520.73637	0.05858
519.45061	0.05730
518.16484	0.05623
516.87907	0.05526
515.59330	0.05427
514.30753	0.05325
513.02176	0.05229
511.73599	0.05147
510.45022	0.05074
509.16446	0.05001
507.87869	0.04922
506.59292	0.04839
505.30715	0.04757
504.02138	0.04672
502.73561	0.04585
501.44984	0.04500
500.16407	0.04427
498.87830	0.04369
497.59254	0.04321
496.30677	0.04273
495.02100	0.04223
493.73523	0.04178
492.44946	0.04144
491.16369	0.04122
489.87792	0.04104
488.59215	0.04084
487.30639	0.04061
486.02062	0.04038
484.73485	0.04018
483.44908	0.04004
482.16331	0.04002
480.87754	0.04015
479.59177	0.04041
478.30600	0.04075
477.02023	0.04109
475.73447	0.04144
474.44870	0.04185
473.16293	0.04229
471.87716	0.04268
470.59139	0.04288
469.30562	0.04282
468.01985	0.04257
466.73408	0.04225
465.44832	0.04188
464.16255	0.04147
462.87678	0.04097
461.59101	0.04042
460.30524	0.03987
459.01947	0.03934
457.73370	0.03885
456.44793	0.03838
455.16216	0.03791
453.87640	0.03744
452.59063	0.03699
451.30486	0.03654
450.01909	0.03604
448.73332	0.03549
447.44755	0.03493
446.16178	0.03445
444.87601	0.03409
443.59025	0.03386
442.30448	0.03372
441.01871	0.03360
439.73294	0.03344
438.44717	0.03324
437.16140	0.03302
435.87563	0.03283
434.58986	0.03267
433.30409	0.03254
432.01833	0.03244
430.73256	0.03236
429.44679	0.03225
428.16102	0.03210
426.87525	0.03189
425.58948	0.03160
424.30371	0.03128
423.01794	0.03099
421.73218	0.03075
420.44641	0.03056
419.16064	0.03040
417.87487	0.03025
416.58910	0.03007
415.30333	0.02986
414.01756	0.02964
412.73179	0.02947
411.44602	0.02934
410.16026	0.02923
408.87449	0.02916
407.58872	0.02918
406.30295	0.02927
405.01718	0.02939
403.73141	0.02949
402.44564	0.02957
401.15987	0.02965
399.87411	0.02975
