3997.45528	0.05787
3996.16951	0.05801
3994.88374	0.05832
3993.59798	0.05872
3992.31221	0.05896
3991.02644	0.05873
3989.74067	0.05804
3988.45490	0.05724
3987.16913	0.05661
3985.88336	0.05614
3984.59759	0.05575
3983.31183	0.05567
3982.02606	0.05607
3980.74029	0.05676
3979.45452	0.05726
3978.16875	0.05734
3976.88298	0.05719
3975.59721	0.05714
3974.31144	0.05736
3973.02567	0.05768
3971.73991	0.05782
3970.45414	0.05758
3969.16837	0.05706
3967.88260	0.05659
3966.59683	0.05637
3965.31106	0.05633
3964.02529	0.05625
3962.73952	0.05607
3961.45376	0.05599
3960.16799	0.05614
3958.88222	0.05634
3957.59645	0.05635
3956.31068	0.05616
3955.02491	0.05602
3953.73914	0.05617
3952.45337	0.05662
3951.16760	0.05707
3949.88184	0.05717
3948.59607	0.05684
3947.31030	0.05639
3946.02453	0.05614
3944.73876	0.05608
3943.45299	0.05596
3942.16722	0.05557
3940.88145	0.05496
3939.59569	0.05434
3938.30992	0.05395
3937.02415	0.05390
3935.73838	0.05407
3934.45261	0.05436
3933.16684	0.05475
3931.88107	0.05528
3930.59530	0.05586
3929.30953	0.05630
3928.02377	0.05642
3926.73800	0.05610
3925.45223	0.05544
3924.16646	0.05477
3922.88069	0.05447
3921.59492	0.05467
3920.30915	0.05507
3919.02338	0.05519
3917.73762	0.05483
3916.45185	0.05428
3915.16608	0.05395
3913.88031	0.05394
3912.59454	0.05406
3911.30877	0.05416
3910.02300	0.05430
3908.73723	0.05463
3907.45146	0.05521
3906.16570	0.05591
3904.87993	0.05645
3903.59416	0.05652
3902.30839	0.05595
3901.02262	0.05490
3899.73685	0.05379
3898.45108	0.05302
3897.16531	0.05261
3895.87955	0.05238
3894.59378	0.05221
3893.30801	0.05214
3892.02224	0.05230
3890.73647	0.05279
3889.45070	0.05343
3888.16493	0.05379
3886.87916	0.05371
3885.59339	0.05360
3884.30763	0.05389
3883.02186	0.05447
3881.73609	0.05495
3880.45032	0.05515
3879.16455	0.05512
3877.87878	0.05480
3876.59301	0.05424
3875.30724	0.05385
3874.02148	0.05408
3872.73571	0.05478
3871.44994	0.05539
3870.16417	0.05572
3868.87840	0.05595
3867.59263	0.05599
3866.30686	0.05563
3865.02109	0.05505
3863.73532	0.05473
3862.44956	0.05482
3861.16379	0.05508
3859.87802	0.05522
3858.59225	0.05514
3857.30648	0.05481
3856.02071	0.05410
3854.73494	0.05307
3853.44917	0.05228
3852.16341	0.05222
3850.87764	0.05276
3849.59187	0.05340
3848.30610	0.05376
3847.02033	0.05376
3845.73456	0.05347
3844.44879	0.05307
3843.16302	0.05282
3841.87725	0.05301
3840.59149	0.05348
3839.30572	0.05373
3838.01995	0.05341
3836.73418	0.05266
3835.44841	0.05191
3834.16264	0.05163
3832.87687	0.05202
3831.59110	0.05287
3830.30534	0.05363
3829.01957	0.05391
3827.73380	0.05380
3826.44803	0.05374
3825.16226	0.05386
3823.87649	0.05380
3822.59072	0.05329
3821.30495	0.05267
3820.01918	0.05244
3818.73342	0.05253
3817.44765	0.05246
3816.16188	0.05204
3814.87611	0.05135
3813.59034	0.05057
3812.30457	0.05006
3811.01880	0.05018
3809.73303	0.05066
3808.44726	0.05087
3807.16150	0.05067
3805.87573	0.05059
3804.58996	0.05091
3803.30419	0.05133
3802.01842	0.05151
3800.73265	0.05146
3799.44688	0.05124
3798.16111	0.05091
3796.87535	0.05074
3795.58958	0.05091
3794.30381	0.05118
3793.01804	0.05113
3791.73227	0.05061
3790.44650	0.04993
3789.16073	0.04958
3787.87496	0.04979
3786.58919	0.05036
3785.30343	0.05089
3784.01766	0.05118
3782.73189	0.05128
3781.44612	0.05128
3780.16035	0.05113
3778.87458	0.05072
3777.58881	0.05002
3776.30304	0.04924
3775.01728	0.04881
3773.73151	0.04904
3772.44574	0.04982
3771.15997	0.05070
3769.87420	0.05130
3768.58843	0.05141
3767.30266	0.05108
3766.01689	0.05049
3764.73112	0.04988
3763.44536	0.04931
3762.15959	0.04880
3760.87382	0.04852
3759.58805	0.04866
3758.30228	0.04920
3757.01651	0.04990
3755.73074	0.05043
3754.44497	0.05046
3753.15921	0.04990
3751.87344	0.04908
3750.58767	0.04854
3749.30190	0.04869
3748.01613	0.04936
3746.73036	0.04977
3745.44459	0.04955
3744.15882	0.04929
3742.87305	0.04953
3741.58729	0.05009
3740.30152	0.05058
3739.01575	0.05074
3737.72998	0.05040
3736.44421	0.04980
3735.15844	0.04936
3733.87267	0.04917
3732.58690	0.04892
3731.30114	0.04835
3730.01537	0.04746
3728.72960	0.04664
3727.44383	0.04640
3726.15806	0.04695
3724.87229	0.04795
3723.58652	0.04881
3722.30075	0.04916
3721.01498	0.04893
3719.72922	0.04840
3718.44345	0.04812
3717.15768	0.04847
3715.87191	0.04906
3714.58614	0.04903
3713.30037	0.04802
3712.01460	0.04651
3710.72883	0.04532
3709.44307	0.04484
3708.15730	0.04500
3706.87153	0.04561
3705.58576	0.04647
3704.29999	0.04718
3703.01422	0.04745
3701.72845	0.04734
3700.44268	0.04713
3699.15691	0.04703
3697.87115	0.04730
3696.58538	0.04804
3695.29961	0.04887
3694.01384	0.04946
3692.72807	0.04977
3691.44230	0.04958
3690.15653	0.04851
3688.87076	0.04679
3687.58500	0.04536
3686.29923	0.04483
3685.01346	0.04516
3683.72769	0.04583
3682.44192	0.04615
3681.15615	0.04586
3679.87038	0.04522
3678.58461	0.04464
3677.29884	0.04440
3676.01308	0.04469
3674.72731	0.04543
3673.44154	0.04603
3672.15577	0.04581
3670.87000	0.04501
3669.58423	0.04458
3668.29846	0.04500
3667.01269	0.04589
3665.72693	0.04662
3664.44116	0.04694
3663.15539	0.04706
3661.86962	0.04724
3660.58385	0.04752
3659.29808	0.04763
3658.01231	0.04734
3656.72654	0.04666
3655.44077	0.04593
3654.15501	0.04544
3652.86924	0.04522
3651.58347	0.04515
3650.29770	0.04522
3649.01193	0.04549
3647.72616	0.04606
3646.44039	0.04687
3645.15462	0.04769
3643.86886	0.04820
3642.58309	0.04825
3641.29732	0.04798
3640.01155	0.04771
3638.72578	0.04749
3637.44001	0.04716
3636.15424	0.04667
3634.86847	0.04631
3633.58270	0.04644
3632.29694	0.04689
3631.01117	0.04706
3629.72540	0.04677
3628.43963	0.04646
3627.15386	0.04657
3625.86809	0.04713
3624.58232	0.04804
3623.29655	0.04913
3622.01079	0.04989
3620.72502	0.04984
3619.43925	0.04907
3618.15348	0.04823
3616.86771	0.04789
3615.58194	0.04810
3614.29617	0.04851
3613.01040	0.04879
3611.72463	0.04876
3610.43887	0.04847
3609.15310	0.04834
3607.86733	0.04874
3606.58156	0.04959
3605.29579	0.05035
3604.01002	0.05058
3602.72425	0.05036
3601.43848	0.05010
3600.15272	0.05014
3598.86695	0.05037
3597.58118	0.05053
3596.29541	0.05039
3595.00964	0.05001
3593.72387	0.04954
3592.43810	0.04931
3591.15233	0.04942
3589.86656	0.04957
3588.58080	0.04957
3587.29503	0.04953
3586.00926	0.04961
3584.72349	0.04974
3583.43772	0.04993
3582.15195	0.05023
3580.86618	0.05062
3579.58041	0.05105
3578.29464	0.05143
3577.00888	0.05165
3575.72311	0.05170
3574.43734	0.05166
3573.15157	0.05172
3571.86580	0.05202
3570.58003	0.05250
3569.29426	0.05288
3568.00849	0.05296
3566.72273	0.05268
3565.43696	0.05217
3564.15119	0.05164
3562.86542	0.05128
3561.57965	0.05112
3560.29388	0.05109
3559.00811	0.05111
3557.72234	0.05120
3556.43657	0.05144
3555.15081	0.05178
3553.86504	0.05216
3552.57927	0.05255
3551.29350	0.05300
3550.00773	0.05347
3548.72196	0.05386
3547.43619	0.05406
3546.15042	0.05402
3544.86466	0.05378
3543.57889	0.05354
3542.29312	0.05355
3541.00735	0.05393
3539.72158	0.05444
3538.43581	0.05468
3537.15004	0.05448
3535.86427	0.05402
3534.57850	0.05363
3533.29274	0.05352
3532.00697	0.05372
3530.72120	0.05411
3529.43543	0.05445
3528.14966	0.05454
3526.86389	0.05443
3525.57812	0.05440
3524.29235	0.05459
3523.00659	0.05483
3521.72082	0.05485
3520.43505	0.05465
3519.14928	0.05462
3517.86351	0.05506
3516.57774	0.05584
3515.29197	0.05653
3514.00620	0.05679
3512.72043	0.05676
3511.43467	0.05681
3510.14890	0.05718
3508.86313	0.05777
3507.57736	0.05821
3506.29159	0.05825
3505.00582	0.05792
3503.72005	0.05746
3502.43428	0.05714
3501.14852	0.05706
3499.86275	0.05709
3498.57698	0.05710
3497.29121	0.05705
3496.00544	0.05697
3494.71967	0.05687
3493.43390	0.05678
3492.14813	0.05678
3490.86236	0.05694
3489.57660	0.05722
3488.29083	0.05749
3487.00506	0.05771
3485.71929	0.05794
3484.43352	0.05823
3483.14775	0.05857
3481.86198	0.05889
3480.57621	0.05912
3479.29045	0.05921
3478.00468	0.05910
3476.71891	0.05885
3475.43314	0.05863
3474.14737	0.05864
3472.86160	0.05881
3471.57583	0.05888
3470.29006	0.05876
3469.00429	0.05863
3467.71853	0.05872
3466.43276	0.05897
3465.14699	0.05909
3463.86122	0.05886
3462.57545	0.05835
3461.28968	0.05784
3460.00391	0.05766
3458.71814	0.05797
3457.43238	0.05863
3456.14661	0.05922
3454.86084	0.05938
3453.57507	0.05918
3452.28930	0.05899
3451.00353	0.05914
3449.71776	0.05959
3448.43199	0.05999
3447.14622	0.06013
3445.86046	0.06007
3444.57469	0.06001
3443.28892	0.05996
3442.00315	0.05984
3440.71738	0.05959
3439.43161	0.05930
3438.14584	0.05915
3436.86007	0.05920
3435.57431	0.05943
3434.28854	0.05975
3433.00277	0.06005
3431.71700	0.06030
3430.43123	0.06050
3429.14546	0.06074
3427.85969	0.06105
3426.57392	0.06141
3425.28815	0.06174
3424.00239	0.06196
3422.71662	0.06201
3421.43085	0.06184
3420.14508	0.06145
3418.85931	0.06095
3417.57354	0.06054
3416.28777	0.06040
3415.00200	0.06065
3413.71624	0.06127
3412.43047	0.06208
3411.14470	0.06272
3409.85893	0.06286
3408.57316	0.06245
3407.28739	0.06189
3406.00162	0.06170
3404.71585	0.06202
3403.43008	0.06257
3402.14432	0.06294
3400.85855	0.06299
3399.57278	0.06294
3398.28701	0.06309
3397.00124	0.06347
3395.71547	0.06372
3394.42970	0.06358
3393.14393	0.06313
3391.85817	0.06267
3390.57240	0.06247
3389.28663	0.06265
3388.00086	0.06322
3386.71509	0.06406
3385.42932	0.06495
3384.14355	0.06560
3382.85778	0.06580
3381.57201	0.06549
3380.28625	0.06483
3379.00048	0.06414
3377.71471	0.06371
3376.42894	0.06364
3375.14317	0.06395
3373.85740	0.06457
3372.57163	0.06530
3371.28586	0.06585
3370.00010	0.06600
3368.71433	0.06579
3367.42856	0.06546
3366.14279	0.06520
3364.85702	0.06514
3363.57125	0.06534
3362.28548	0.06586
3360.99971	0.06658
3359.71394	0.06724
3358.42818	0.06758
3357.14241	0.06756
3355.85664	0.06731
3354.57087	0.06708
3353.28510	0.06704
3351.99933	0.06723
3350.71356	0.06754
3349.42779	0.06786
3348.14202	0.06813
3346.85626	0.06839
3345.57049	0.06866
3344.28472	0.06886
3342.99895	0.06890
3341.71318	0.06875
3340.42741	0.06856
3339.14164	0.06863
3337.85587	0.06912
3336.57011	0.06990
3335.28434	0.07058
3333.99857	0.07086
3332.71280	0.07079
3331.42703	0.07063
3330.14126	0.07061
3328.85549	0.07081
3327.56972	0.07108
3326.28395	0.07127
3324.99819	0.07130
3323.71242	0.07127
3322.42665	0.07130
3321.14088	0.07134
3319.85511	0.07119
3318.56934	0.07084
3317.28357	0.07052
3315.99780	0.07051
3314.71204	0.07083
3313.42627	0.07122
3312.14050	0.07147
3310.85473	0.07158
3309.56896	0.07169
3308.28319	0.07183
3306.99742	0.07192
3305.71165	0.07196
3304.42588	0.07202
3303.14012	0.07215
3301.85435	0.07231
3300.56858	0.07241
3299.28281	0.07244
3297.99704	0.07246
3296.71127	0.07248
3295.42550	0.07254
3294.13973	0.07270
3292.85397	0.07296
3291.56820	0.07321
3290.28243	0.07328
3288.99666	0.07315
3287.71089	0.07295
3286.42512	0.07281
3285.13935	0.07276
3283.85358	0.07281
3282.56781	0.07300
3281.28205	0.07329
3279.99628	0.07352
3278.71051	0.07352
3277.42474	0.07322
3276.13897	0.07279
3274.85320	0.07249
3273.56743	0.07259
3272.28166	0.07310
3270.99590	0.07364
3269.71013	0.07374
3268.42436	0.07322
3267.13859	0.07238
3265.85282	0.07177
3264.56705	0.07171
3263.28128	0.07200
3261.99551	0.07228
3260.70974	0.07237
3259.42398	0.07239
3258.13821	0.07251
3256.85244	0.07270
3255.56667	0.07286
3254.28090	0.07293
3252.99513	0.07294
3251.70936	0.07292
3250.42359	0.07280
3249.13783	0.07253
3247.85206	0.07221
3246.56629	0.07208
3245.28052	0.07234
3243.99475	0.07293
3242.70898	0.07353
3241.42321	0.07383
3240.13744	0.07379
3238.85167	0.07354
3237.56591	0.07324
3236.28014	0.07284
3234.99437	0.07227
3233.70860	0.07162
3232.42283	0.07110
3231.13706	0.07083
3229.85129	0.07074
3228.56552	0.07071
3227.27976	0.07072
3225.99399	0.07083
3224.70822	0.07099
3223.42245	0.07115
3222.13668	0.07138
3220.85091	0.07174
3219.56514	0.07217
3218.27937	0.07245
3216.99360	0.07250
3215.70784	0.07245
3214.42207	0.07243
3213.13630	0.07245
3211.85053	0.07244
3210.56476	0.07238
3209.27899	0.07237
3207.99322	0.07245
3206.70745	0.07256
3205.42169	0.07253
3204.13592	0.07224
3202.85015	0.07170
3201.56438	0.07118
3200.27861	0.07100
3198.99284	0.07126
3197.70707	0.07177
3196.42130	0.07228
3195.13553	0.07257
3193.84977	0.07257
3192.56400	0.07232
3191.27823	0.07193
3189.99246	0.07154
3188.70669	0.07114
3187.42092	0.07070
3186.13515	0.07027
3184.84938	0.07006
3183.56362	0.07022
3182.27785	0.07059
3180.99208	0.07089
3179.70631	0.07096
3178.42054	0.07087
3177.13477	0.07076
3175.84900	0.07069
3174.56323	0.07063
3173.27746	0.07052
3171.99170	0.07031
3170.70593	0.06996
3169.42016	0.06954
3168.13439	0.06920
3166.84862	0.06906
3165.56285	0.06907
3164.27708	0.06910
3162.99131	0.06907
3161.70555	0.06904
3160.41978	0.06916
3159.13401	0.06945
3157.84824	0.06981
3156.56247	0.07004
3155.27670	0.07007
3153.99093	0.06995
3152.70516	0.06976
3151.41939	0.06955
3150.13363	0.06931
3148.84786	0.06899
3147.56209	0.06863
3146.27632	0.06833
3144.99055	0.06823
3143.70478	0.06834
3142.41901	0.06851
3141.13324	0.06857
3139.84748	0.06835
3138.56171	0.06788
3137.27594	0.06741
3135.99017	0.06723
3134.70440	0.06736
3133.41863	0.06752
3132.13286	0.06744
3130.84709	0.06708
3129.56132	0.06669
3128.27556	0.06652
3126.98979	0.06660
3125.70402	0.06677
3124.41825	0.06684
3123.13248	0.06673
3121.84671	0.06656
3120.56094	0.06647
3119.27517	0.06656
3117.98940	0.06673
3116.70364	0.06682
3115.41787	0.06677
3114.13210	0.06669
3112.84633	0.06679
3111.56056	0.06711
3110.27479	0.06747
3108.98902	0.06765
3107.70325	0.06760
3106.41749	0.06740
3105.13172	0.06713
3103.84595	0.06684
3102.56018	0.06658
3101.27441	0.06646
3099.98864	0.06654
3098.70287	0.06673
3097.41710	0.06693
3096.13133	0.06702
3094.84557	0.06697
3093.55980	0.06682
3092.27403	0.06664
3090.98826	0.06645
3089.70249	0.06627
3088.41672	0.06610
3087.13095	0.06599
3085.84518	0.06596
3084.55942	0.06603
3083.27365	0.06617
3081.98788	0.06638
3080.70211	0.06665
3079.41634	0.06691
3078.13057	0.06706
3076.84480	0.06704
3075.55903	0.06695
3074.27326	0.06699
3072.98750	0.06723
3071.70173	0.06750
3070.41596	0.06750
3069.13019	0.06711
3067.84442	0.06649
3066.55865	0.06596
3065.27288	0.06568
3063.98711	0.06558
3062.70135	0.06550
3061.41558	0.06537
3060.12981	0.06520
3058.84404	0.06498
3057.55827	0.06472
3056.27250	0.06447
3054.98673	0.06434
3053.70096	0.06439
3052.41519	0.06460
3051.12943	0.06486
3049.84366	0.06505
3048.55789	0.06507
3047.27212	0.06489
3045.98635	0.06459
3044.70058	0.06428
3043.41481	0.06404
3042.12904	0.06394
3040.84328	0.06404
3039.55751	0.06436
3038.27174	0.06477
3036.98597	0.06501
3035.70020	0.06487
3034.41443	0.06443
3033.12866	0.06396
3031.84289	0.06368
3030.55712	0.06362
3029.27136	0.06357
3027.98559	0.06333
3026.69982	0.06288
3025.41405	0.06240
3024.12828	0.06210
3022.84251	0.06203
3021.55674	0.06207
3020.27097	0.06202
3018.98521	0.06181
3017.69944	0.06151
3016.41367	0.06123
3015.12790	0.06098
3013.84213	0.06076
3012.55636	0.06063
3011.27059	0.06074
3009.98482	0.06106
3008.69905	0.06143
3007.41329	0.06163
3006.12752	0.06157
3004.84175	0.06130
3003.55598	0.06095
3002.27021	0.06067
3000.98444	0.06052
2999.69867	0.06044
2998.41290	0.06040
2997.12714	0.06028
2995.84137	0.06013
2994.55560	0.06006
2993.26983	0.06012
2991.98406	0.06021
2990.69829	0.06025
2989.41252	0.06020
2988.12675	0.06011
2986.84098	0.06001
2985.55522	0.06001
2984.26945	0.06020
2982.98368	0.06048
2981.69791	0.06070
2980.41214	0.06078
2979.12637	0.06078
2977.84060	0.06078
2976.55483	0.06083
2975.26907	0.06097
2973.98330	0.06118
2972.69753	0.06133
2971.41176	0.06137
2970.12599	0.06133
2968.84022	0.06127
2967.55445	0.06120
2966.26868	0.06120
2964.98291	0.06139
2963.69715	0.06182
2962.41138	0.06239
2961.12561	0.06286
2959.83984	0.06307
2958.55407	0.06299
2957.26830	0.06274
2955.98253	0.06253
2954.69676	0.06247
2953.41100	0.06257
2952.12523	0.06269
2950.83946	0.06270
2949.55369	0.06252
2948.26792	0.06226
2946.98215	0.06210
2945.69638	0.06211
2944.41061	0.06221
2943.12484	0.06222
2941.83908	0.06201
2940.55331	0.06161
2939.26754	0.06117
2937.98177	0.06086
2936.69600	0.06074
2935.41023	0.06077
2934.12446	0.06084
2932.83869	0.06082
2931.55293	0.06071
2930.26716	0.06054
2928.98139	0.06033
2927.69562	0.06009
2926.40985	0.05979
2925.12408	0.05940
2923.83831	0.05897
2922.55254	0.05863
2921.26677	0.05851
2919.98101	0.05864
2918.69524	0.05891
2917.40947	0.05917
2916.12370	0.05943
2914.83793	0.05971
2913.55216	0.06000
2912.26639	0.06021
2910.98062	0.06031
2909.69486	0.06031
2908.40909	0.06029
2907.12332	0.06029
2905.83755	0.06040
2904.55178	0.06066
2903.26601	0.06095
2901.98024	0.06108
2900.69447	0.06094
2899.40870	0.06061
2898.12294	0.06033
2896.83717	0.06028
2895.55140	0.06043
2894.26563	0.06059
2892.97986	0.06060
2891.69409	0.06049
2890.40832	0.06039
2889.12255	0.06032
2887.83678	0.06017
2886.55102	0.05986
2885.26525	0.05947
2883.97948	0.05923
2882.69371	0.05927
2881.40794	0.05949
2880.12217	0.05970
2878.83640	0.05984
2877.55063	0.06001
2876.26487	0.06020
2874.97910	0.06027
2873.69333	0.06008
2872.40756	0.05976
2871.12179	0.05955
2869.83602	0.05953
2868.55025	0.05950
2867.26448	0.05928
2865.97871	0.05883
2864.69295	0.05820
2863.40718	0.05748
2862.12141	0.05685
2860.83564	0.05648
2859.54987	0.05646
2858.26410	0.05659
2856.97833	0.05661
2855.69256	0.05639
2854.40680	0.05600
2853.12103	0.05559
2851.83526	0.05526
2850.54949	0.05504
2849.26372	0.05492
2847.97795	0.05492
2846.69218	0.05505
2845.40641	0.05530
2844.12064	0.05559
2842.83488	0.05584
2841.54911	0.05603
2840.26334	0.05621
2838.97757	0.05638
2837.69180	0.05646
2836.40603	0.05636
2835.12026	0.05606
2833.83449	0.05564
2832.54873	0.05522
2831.26296	0.05492
2829.97719	0.05475
2828.69142	0.05467
2827.40565	0.05459
2826.11988	0.05452
2824.83411	0.05446
2823.54834	0.05439
2822.26257	0.05429
2820.97681	0.05423
2819.69104	0.05420
2818.40527	0.05416
2817.11950	0.05398
2815.83373	0.05363
2814.54796	0.05316
2813.26219	0.05271
2811.97642	0.05239
2810.69066	0.05218
2809.40489	0.05207
2808.11912	0.05210
2806.83335	0.05234
2805.54758	0.05274
2804.26181	0.05308
2802.97604	0.05312
2801.69027	0.05280
2800.40450	0.05228
2799.11874	0.05180
2797.83297	0.05150
2796.54720	0.05139
2795.26143	0.05140
2793.97566	0.05143
2792.68989	0.05139
2791.40412	0.05130
2790.11835	0.05116
2788.83259	0.05105
2787.54682	0.05100
2786.26105	0.05105
2784.97528	0.05120
2783.68951	0.05138
2782.40374	0.05150
2781.11797	0.05149
2779.83220	0.05131
2778.54643	0.05097
2777.26067	0.05060
2775.97490	0.05033
2774.68913	0.05030
2773.40336	0.05050
2772.11759	0.05084
2770.83182	0.05114
2769.54605	0.05127
2768.26028	0.05119
2766.97452	0.05091
2765.68875	0.05053
2764.40298	0.05021
2763.11721	0.05001
2761.83144	0.04988
2760.54567	0.04967
2759.25990	0.04935
2757.97413	0.04900
2756.68836	0.04874
2755.40260	0.04864
2754.11683	0.04869
2752.83106	0.04883
2751.54529	0.04894
2750.25952	0.04894
2748.97375	0.04884
2747.68798	0.04873
2746.40221	0.04867
2745.11645	0.04864
2743.83068	0.04865
2742.54491	0.04874
2741.25914	0.04891
2739.97337	0.04906
2738.68760	0.04909
2737.40183	0.04896
2736.11606	0.04875
2734.83029	0.04852
2733.54453	0.04838
2732.25876	0.04833
2730.97299	0.04830
2729.68722	0.04824
2728.40145	0.04812
2727.11568	0.04800
2725.82991	0.04792
2724.54414	0.04789
2723.25838	0.04790
2721.97261	0.04795
2720.68684	0.04802
2719.40107	0.04811
2718.11530	0.04822
2716.82953	0.04826
2715.54376	0.04813
2714.25799	0.04784
2712.97222	0.04753
2711.68646	0.04735
2710.40069	0.04732
2709.11492	0.04740
2707.82915	0.04751
2706.54338	0.04760
2705.25761	0.04759
2703.97184	0.04747
2702.68607	0.04731
2701.40031	0.04718
2700.11454	0.04710
2698.82877	0.04702
2697.54300	0.04687
2696.25723	0.04665
2694.97146	0.04639
2693.68569	0.04618
2692.39992	0.04606
2691.11415	0.04601
2689.82839	0.04599
2688.54262	0.04602
2687.25685	0.04606
2685.97108	0.04602
2684.68531	0.04584
2683.39954	0.04556
2682.11377	0.04530
2680.82800	0.04520
2679.54224	0.04528
2678.25647	0.04549
2676.97070	0.04575
2675.68493	0.04598
2674.39916	0.04604
2673.11339	0.04589
2671.82762	0.04560
2670.54185	0.04534
2669.25608	0.04524
2667.97032	0.04529
2666.68455	0.04540
2665.39878	0.04546
2664.11301	0.04547
2662.82724	0.04547
2661.54147	0.04556
2660.25570	0.04577
2658.96993	0.04604
2657.68417	0.04624
2656.39840	0.04625
2655.11263	0.04603
2653.82686	0.04572
2652.54109	0.04551
2651.25532	0.04548
2649.96955	0.04555
2648.68378	0.04558
2647.39801	0.04545
2646.11225	0.04509
2644.82648	0.04464
2643.54071	0.04429
2642.25494	0.04417
2640.96917	0.04415
2639.68340	0.04404
2638.39763	0.04372
2637.11186	0.04327
2635.82609	0.04284
2634.54033	0.04251
2633.25456	0.04228
2631.96879	0.04211
2630.68302	0.04203
2629.39725	0.04212
2628.11148	0.04237
2626.82571	0.04261
2625.53994	0.04263
2624.25418	0.04241
2622.96841	0.04209
2621.68264	0.04184
2620.39687	0.04168
2619.11110	0.04150
2617.82533	0.04126
2616.53956	0.04098
2615.25379	0.04068
2613.96802	0.04042
2612.68226	0.04029
2611.39649	0.04027
2610.11072	0.04027
2608.82495	0.04024
2607.53918	0.04021
2606.25341	0.04023
2604.96764	0.04023
2603.68187	0.04015
2602.39611	0.03993
2601.11034	0.03957
2599.82457	0.03916
2598.53880	0.03886
2597.25303	0.03869
2595.96726	0.03850
2594.68149	0.03816
2593.39572	0.03780
2592.10995	0.03767
2590.82419	0.03791
2589.53842	0.03836
2588.25265	0.03861
2586.96688	0.03840
2585.68111	0.03782
2584.39534	0.03725
2583.10957	0.03705
2581.82380	0.03724
2580.53804	0.03755
2579.25227	0.03772
2577.96650	0.03767
2576.68073	0.03745
2575.39496	0.03719
2574.10919	0.03697
2572.82342	0.03681
2571.53765	0.03671
2570.25188	0.03661
2568.96612	0.03648
2567.68035	0.03631
2566.39458	0.03619
2565.10881	0.03619
2563.82304	0.03628
2562.53727	0.03630
2561.25150	0.03614
2559.96573	0.03576
2558.67997	0.03533
2557.39420	0.03508
2556.10843	0.03516
2554.82266	0.03545
2553.53689	0.03576
2552.25112	0.03601
2550.96535	0.03624
2549.67958	0.03641
2548.39381	0.03643
2547.10805	0.03627
2545.82228	0.03605
2544.53651	0.03586
2543.25074	0.03566
2541.96497	0.03540
2540.67920	0.03520
2539.39343	0.03518
2538.10766	0.03535
2536.82190	0.03557
2535.53613	0.03564
2534.25036	0.03546
2532.96459	0.03500
2531.67882	0.03434
2530.39305	0.03371
2529.10728	0.03339
2527.82151	0.03351
2526.53574	0.03392
2525.24998	0.03433
2523.96421	0.03456
2522.67844	0.03465
2521.39267	0.03464
2520.10690	0.03458
2518.82113	0.03462
2517.53536	0.03495
2516.24959	0.03547
2514.96383	0.03579
2513.67806	0.03557
2512.39229	0.03495
2511.10652	0.03435
2509.82075	0.03402
2508.53498	0.03394
2507.24921	0.03403
2505.96344	0.03426
2504.67767	0.03447
2503.39191	0.03450
2502.10614	0.03433
2500.82037	0.03417
2499.53460	0.03416
2498.24883	0.03424
2496.96306	0.03422
2495.67729	0.03403
2494.39152	0.03369
2493.10576	0.03328
2491.81999	0.03294
2490.53422	0.03282
2489.24845	0.03293
2487.96268	0.03310
2486.67691	0.03316
2485.39114	0.03316
2484.10537	0.03327
2482.81960	0.03346
2481.53384	0.03355
2480.24807	0.03343
2478.96230	0.03323
2477.67653	0.03317
2476.39076	0.03324
2475.10499	0.03324
2473.81922	0.03307
2472.53345	0.03281
2471.24769	0.03272
2469.96192	0.03286
2468.67615	0.03308
2467.39038	0.03326
2466.10461	0.03338
2464.81884	0.03347
2463.53307	0.03345
2462.24730	0.03320
2460.96153	0.03283
2459.67577	0.03255
2458.39000	0.03254
2457.10423	0.03269
2455.81846	0.03280
2454.53269	0.03271
2453.24692	0.03250
2451.96115	0.03230
2450.67538	0.03216
2449.38962	0.03197
2448.10385	0.03162
2446.81808	0.03115
2445.53231	0.03070
2444.24654	0.03042
2442.96077	0.03041
2441.67500	0.03070
2440.38923	0.03128
2439.10346	0.03203
2437.81770	0.03270
2436.53193	0.03305
2435.24616	0.03296
2433.96039	0.03259
2432.67462	0.03220
2431.38885	0.03195
2430.10308	0.03179
2428.81731	0.03163
2427.53155	0.03143
2426.24578	0.03121
2424.96001	0.03103
2423.67424	0.03103
2422.38847	0.03135
2421.10270	0.03195
2419.81693	0.03252
2418.53116	0.03270
2417.24539	0.03245
2415.95963	0.03202
2414.67386	0.03167
2413.38809	0.03147
2412.10232	0.03136
2410.81655	0.03129
2409.53078	0.03131
2408.24501	0.03141
2406.95924	0.03148
2405.67347	0.03143
2404.38771	0.03125
2403.10194	0.03100
2401.81617	0.03079
2400.53040	0.03071
2399.24463	0.03081
2397.95886	0.03079
2396.67309	0.03069
2395.38732	0.03050
2394.10156	0.03028
2392.81579	0.03017
2391.53002	0.03026
2390.24425	0.03050
2388.95848	0.03072
2387.67271	0.03079
2386.38694	0.03078
2385.10117	0.03080
2383.81540	0.03088
2382.52964	0.03097
2381.24387	0.03108
2379.95810	0.03117
2378.67233	0.03147
2377.38656	0.03160
2376.10079	0.03119
2374.81502	0.03062
2373.52925	0.03122
2372.24349	0.03263
2370.95772	0.03345
2369.67195	0.03327
2368.38618	0.03269
2367.10041	0.03260
2365.81464	0.03289
2364.52887	0.03335
2363.24310	0.03378
2361.95733	0.03435
2360.67157	0.03543
2359.38580	0.03632
2358.10003	0.03638
2356.81426	0.03552
2355.52849	0.03388
2354.24272	0.03183
2352.95695	0.03036
2351.67118	0.03078
2350.38542	0.03191
2349.09965	0.03216
2347.81388	0.03212
2346.52811	0.03314
2345.24234	0.03397
2343.95657	0.03278
2342.67080	0.03000
2341.38503	0.03064
2340.09926	0.03393
2338.81350	0.03388
2337.52773	0.03096
2336.24196	0.03183
2334.95619	0.03454
2333.67042	0.03346
2332.38465	0.03016
2331.09888	0.03190
2329.81311	0.03303
2328.52735	0.03140
2327.24158	0.03261
2325.95581	0.03485
2324.67004	0.03477
2323.38427	0.03387
2322.09850	0.03434
2320.81273	0.03343
2319.52696	0.03286
2318.24119	0.03291
2316.95543	0.03250
2315.66966	0.03261
2314.38389	0.03263
2313.09812	0.03224
2311.81235	0.03230
2310.52658	0.03198
2309.24081	0.03137
2307.95504	0.03111
2306.66928	0.03079
2305.38351	0.03064
2304.09774	0.03041
2302.81197	0.03013
2301.52620	0.03012
2300.24043	0.03019
2298.95466	0.03030
2297.66889	0.03028
2296.38312	0.03013
2295.09736	0.02995
2293.81159	0.02983
2292.52582	0.02992
2291.24005	0.03014
2289.95428	0.03037
2288.66851	0.03044
2287.38274	0.03033
2286.09697	0.03013
2284.81121	0.02984
2283.52544	0.02936
2282.23967	0.02873
2280.95390	0.02818
2279.66813	0.02792
2278.38236	0.02796
2277.09659	0.02814
2275.81082	0.02838
2274.52505	0.02851
2273.23929	0.02840
2271.95352	0.02799
2270.66775	0.02745
2269.38198	0.02696
2268.09621	0.02662
2266.81044	0.02646
2265.52467	0.02638
2264.23890	0.02619
2262.95314	0.02589
2261.66737	0.02570
2260.38160	0.02571
2259.09583	0.02584
2257.81006	0.02582
2256.52429	0.02544
2255.23852	0.02479
2253.95275	0.02430
2252.66698	0.02421
2251.38122	0.02432
2250.09545	0.02440
2248.80968	0.02452
2247.52391	0.02444
2246.23814	0.02449
2244.95237	0.02459
2243.66660	0.02464
2242.38083	0.02461
2241.09507	0.02457
2239.80930	0.02457
2238.52353	0.02467
2237.23776	0.02492
2235.95199	0.02523
2234.66622	0.02530
2233.38045	0.02478
2232.09468	0.02373
2230.80891	0.02268
2229.52315	0.02209
2228.23738	0.02185
2226.95161	0.02158
2225.66584	0.02116
2224.38007	0.02078
2223.09430	0.02068
2221.80853	0.02086
2220.52276	0.02116
2219.23700	0.02146
2217.95123	0.02168
2216.66546	0.02182
2215.37969	0.02186
2214.09392	0.02174
2212.80815	0.02136
2211.52238	0.02058
2210.23661	0.01938
2208.95084	0.01815
2207.66508	0.01752
2206.37931	0.01784
2205.09354	0.01869
2203.80777	0.01920
2202.52200	0.01893
2201.23623	0.01816
2199.95046	0.01749
2198.66469	0.01715
2197.37893	0.01694
2196.09316	0.01650
2194.80739	0.01580
2193.52162	0.01518
2192.23585	0.01510
2190.95008	0.01566
2189.66431	0.01663
2188.37854	0.01763
2187.09277	0.01838
2185.80701	0.01875
2184.52124	0.01876
2183.23547	0.01843
2181.94970	0.01780
2180.66393	0.01708
2179.37816	0.01652
2178.09239	0.01616
2176.80662	0.01578
2175.52085	0.01528
2174.23509	0.01498
2172.94932	0.01526
2171.66355	0.01605
2170.37778	0.01686
2169.09201	0.01716
2167.80624	0.01678
2166.52047	0.01608
2165.23470	0.01562
2163.94894	0.01550
2162.66317	0.01509
2161.37740	0.01360
2160.09163	0.01109
2158.80586	0.00858
2157.52009	0.00728
2156.23432	0.00749
2154.94855	0.00847
2153.66278	0.00921
2152.37702	0.00938
2151.09125	0.00945
2149.80548	0.01010
2148.51971	0.01142
2147.23394	0.01284
2145.94817	0.01366
2144.66240	0.01361
2143.37663	0.01303
2142.09087	0.01259
2140.80510	0.01276
2139.51933	0.01351
2138.23356	0.01431
2136.94779	0.01462
2135.66202	0.01438
2134.37625	0.01408
2133.09048	0.01425
2131.80471	0.01493
2130.51895	0.01572
2129.23318	0.01619
2127.94741	0.01624
2126.66164	0.01611
2125.37587	0.01615
2124.09010	0.01652
2122.80433	0.01712
2121.51856	0.01772
2120.23280	0.01815
2118.94703	0.01841
2117.66126	0.01862
2116.37549	0.01890
2115.08972	0.01920
2113.80395	0.01938
2112.51818	0.01943
2111.23241	0.01946
2109.94664	0.01947
2108.66088	0.01919
2107.37511	0.01844
2106.08934	0.01748
2104.80357	0.01681
2103.51780	0.01674
2102.23203	0.01715
2100.94626	0.01767
2099.66049	0.01816
2098.37473	0.01817
2097.08896	0.01765
2095.80319	0.01693
2094.51742	0.01636
2093.23165	0.01622
2091.94588	0.01651
2090.66011	0.01703
2089.37434	0.01749
2088.08857	0.01768
2086.80281	0.01748
2085.51704	0.01700
2084.23127	0.01655
2082.94550	0.01648
2081.65973	0.01683
2080.37396	0.01739
2079.08819	0.01798
2077.80242	0.01856
2076.51666	0.01905
2075.23089	0.01922
2073.94512	0.01883
2072.65935	0.01793
2071.37358	0.01690
2070.08781	0.01612
2068.80204	0.01580
2067.51627	0.01584
2066.23050	0.01594
2064.94474	0.01584
2063.65897	0.01551
2062.37320	0.01513
2061.08743	0.01486
2059.80166	0.01465
2058.51589	0.01436
2057.23012	0.01406
2055.94435	0.01406
2054.65859	0.01455
2053.37282	0.01526
2052.08705	0.01561
2050.80128	0.01511
2049.51551	0.01378
2048.22974	0.01219
2046.94397	0.01108
2045.65820	0.01085
2044.37243	0.01128
2043.08667	0.01177
2041.80090	0.01186
2040.51513	0.01155
2039.22936	0.01102
2037.94359	0.01019
2036.65782	0.00878
2035.37205	0.00685
2034.08628	0.00516
2032.80052	0.00461
2031.51475	0.00530
2030.22898	0.00650
2028.94321	0.00750
2027.65744	0.00821
2026.37167	0.00869
2025.08590	0.00859
2023.80013	0.00751
2022.51436	0.00588
2021.22860	0.00495
2019.94283	0.00558
2018.65706	0.00734
2017.37129	0.00908
2016.08552	0.01009
2014.79975	0.01040
2013.51398	0.01037
2012.22821	0.01029
2010.94245	0.01035
2009.65668	0.01060
2008.37091	0.01088
2007.08514	0.01101
2005.79937	0.01102
2004.51360	0.01108
2003.22783	0.01123
2001.94206	0.01136
2000.65629	0.01131
1999.37053	0.01106
1998.08476	0.01084
1996.79899	0.01099
1995.51322	0.01163
1994.22745	0.01243
1992.94168	0.01301
1991.65591	0.01336
1990.37014	0.01385
1989.08438	0.01462
1987.79861	0.01522
1986.51284	0.01500
1985.22707	0.01389
1983.94130	0.01258
1982.65553	0.01207
1981.36976	0.01288
1980.08399	0.01458
1978.79822	0.01608
1977.51246	0.01642
1976.22669	0.01560
1974.94092	0.01443
1973.65515	0.01373
1972.36938	0.01372
1971.08361	0.01394
1969.79784	0.01384
1968.51207	0.01321
1967.22631	0.01232
1965.94054	0.01150
1964.65477	0.01091
1963.36900	0.01052
1962.08323	0.01046
1960.79746	0.01090
1959.51169	0.01175
1958.22592	0.01264
1956.94015	0.01324
1955.65439	0.01349
1954.36862	0.01348
1953.08285	0.01326
1951.79708	0.01290
1950.51131	0.01253
1949.22554	0.01229
1947.93977	0.01220
1946.65400	0.01219
1945.36823	0.01229
1944.08247	0.01262
1942.79670	0.01327
1941.51093	0.01407
1940.22516	0.01469
1938.93939	0.01495
1937.65362	0.01492
1936.36785	0.01475
1935.08208	0.01453
1933.79632	0.01428
1932.51055	0.01411
1931.22478	0.01415
1929.93901	0.01444
1928.65324	0.01485
1927.36747	0.01521
1926.08170	0.01546
1924.79593	0.01566
1923.51016	0.01589
1922.22440	0.01608
1920.93863	0.01614
1919.65286	0.01598
1918.36709	0.01567
1917.08132	0.01539
1915.79555	0.01529
1914.50978	0.01542
1913.22401	0.01568
1911.93825	0.01596
1910.65248	0.01621
1909.36671	0.01646
1908.08094	0.01673
1906.79517	0.01697
1905.50940	0.01712
1904.22363	0.01715
1902.93786	0.01707
1901.65209	0.01690
1900.36633	0.01672
1899.08056	0.01665
1897.79479	0.01681
1896.50902	0.01721
1895.22325	0.01770
1893.93748	0.01805
1892.65171	0.01803
1891.36594	0.01767
1890.08018	0.01723
1888.79441	0.01702
1887.50864	0.01705
1886.22287	0.01710
1884.93710	0.01697
1883.65133	0.01670
1882.36556	0.01645
1881.07979	0.01632
1879.79402	0.01633
1878.50826	0.01641
1877.22249	0.01656
1875.93672	0.01681
1874.65095	0.01710
1873.36518	0.01732
1872.07941	0.01733
1870.79364	0.01718
1869.50787	0.01706
1868.22211	0.01704
1866.93634	0.01704
1865.65057	0.01692
1864.36480	0.01669
1863.07903	0.01648
1861.79326	0.01640
1860.50749	0.01646
1859.22172	0.01661
1857.93595	0.01681
1856.65019	0.01701
1855.36442	0.01717
1854.07865	0.01727
1852.79288	0.01732
1851.50711	0.01733
1850.22134	0.01733
1848.93557	0.01732
1847.64980	0.01730
1846.36404	0.01721
1845.07827	0.01709
1843.79250	0.01702
1842.50673	0.01702
1841.22096	0.01706
1839.93519	0.01709
1838.64942	0.01709
1837.36365	0.01704
1836.07788	0.01698
1834.79212	0.01697
1833.50635	0.01703
1832.22058	0.01714
1830.93481	0.01726
1829.64904	0.01743
1828.36327	0.01761
1827.07750	0.01766
1825.79173	0.01755
1824.50597	0.01734
1823.22020	0.01715
1821.93443	0.01700
1820.64866	0.01684
1819.36289	0.01663
1818.07712	0.01647
1816.79135	0.01649
1815.50558	0.01674
1814.21981	0.01711
1812.93405	0.01741
1811.64828	0.01756
1810.36251	0.01758
1809.07674	0.01754
1807.79097	0.01748
1806.50520	0.01739
1805.21943	0.01725
1803.93366	0.01705
1802.64790	0.01684
1801.36213	0.01670
1800.07636	0.01667
1798.79059	0.01672
1797.50482	0.01683
1796.21905	0.01701
1794.93328	0.01722
1793.64751	0.01737
1792.36174	0.01744
1791.07598	0.01745
1789.79021	0.01744
1788.50444	0.01742
1787.21867	0.01739
1785.93290	0.01733
1784.64713	0.01723
1783.36136	0.01711
1782.07559	0.01695
1780.78983	0.01682
1779.50406	0.01679
1778.21829	0.01687
1776.93252	0.01699
1775.64675	0.01704
1774.36098	0.01693
1773.07521	0.01678
1771.78944	0.01678
1770.50367	0.01694
1769.21791	0.01711
1767.93214	0.01720
1766.64637	0.01725
1765.36060	0.01723
1764.07483	0.01710
1762.78906	0.01688
1761.50329	0.01670
1760.21752	0.01662
1758.93176	0.01658
1757.64599	0.01654
1756.36022	0.01649
1755.07445	0.01647
1753.78868	0.01640
1752.50291	0.01625
1751.21714	0.01609
1749.93137	0.01596
1748.64560	0.01585
1747.35984	0.01573
1746.07407	0.01563
1744.78830	0.01559
1743.50253	0.01561
1742.21676	0.01560
1740.93099	0.01548
1739.64522	0.01531
1738.35945	0.01519
1737.07369	0.01509
1735.78792	0.01492
1734.50215	0.01472
1733.21638	0.01466
1731.93061	0.01472
1730.64484	0.01479
1729.35907	0.01487
1728.07330	0.01502
1726.78753	0.01524
1725.50177	0.01548
1724.21600	0.01573
1722.93023	0.01599
1721.64446	0.01626
1720.35869	0.01645
1719.07292	0.01654
1717.78715	0.01662
1716.50138	0.01680
1715.21561	0.01710
1713.92985	0.01749
1712.64408	0.01794
1711.35831	0.01846
1710.07254	0.01903
1708.78677	0.01965
1707.50100	0.02032
1706.21523	0.02104
1704.92946	0.02186
1703.64370	0.02275
1702.35793	0.02354
1701.07216	0.02428
1699.78639	0.02517
1698.50062	0.02621
1697.21485	0.02720
1695.92908	0.02816
1694.64331	0.02929
1693.35754	0.03057
1692.07178	0.03181
1690.78601	0.03301
1689.50024	0.03425
1688.21447	0.03551
1686.92870	0.03663
1685.64293	0.03754
1684.35716	0.03842
1683.07139	0.03945
1681.78563	0.04057
1680.49986	0.04168
1679.21409	0.04279
1677.92832	0.04386
1676.64255	0.04486
1675.35678	0.04587
1674.07101	0.04704
1672.78524	0.04828
1671.49947	0.04944
1670.21371	0.05048
1668.92794	0.05150
1667.64217	0.05256
1666.35640	0.05364
1665.07063	0.05463
1663.78486	0.05552
1662.49909	0.05641
1661.21332	0.05737
1659.92756	0.05841
1658.64179	0.05954
1657.35602	0.06071
1656.07025	0.06175
1654.78448	0.06245
1653.49871	0.06286
1652.21294	0.06325
1650.92717	0.06373
1649.64140	0.06417
1648.35564	0.06448
1647.06987	0.06476
1645.78410	0.06506
1644.49833	0.06534
1643.21256	0.06552
1641.92679	0.06556
1640.64102	0.06554
1639.35525	0.06548
1638.06949	0.06527
1636.78372	0.06485
1635.49795	0.06432
1634.21218	0.06379
1632.92641	0.06324
1631.64064	0.06255
1630.35487	0.06170
1629.06910	0.06076
1627.78333	0.05978
1626.49757	0.05879
1625.21180	0.05775
1623.92603	0.05669
1622.64026	0.05570
1621.35449	0.05482
1620.06872	0.05394
1618.78295	0.05294
1617.49718	0.05185
1616.21142	0.05084
1614.92565	0.04999
1613.63988	0.04919
1612.35411	0.04834
1611.06834	0.04743
1609.78257	0.04652
1608.49680	0.04567
1607.21103	0.04495
1605.92526	0.04440
1604.63950	0.04396
1603.35373	0.04357
1602.06796	0.04319
1600.78219	0.04280
1599.49642	0.04244
1598.21065	0.04217
1596.92488	0.04197
1595.63911	0.04185
1594.35335	0.04178
1593.06758	0.04175
1591.78181	0.04175
1590.49604	0.04177
1589.21027	0.04180
1587.92450	0.04187
1586.63873	0.04200
1585.35296	0.04220
1584.06719	0.04250
1582.78143	0.04287
1581.49566	0.04333
1580.20989	0.04382
1578.92412	0.04425
1577.63835	0.04454
1576.35258	0.04482
1575.06681	0.04528
1573.78104	0.04594
1572.49528	0.04664
1571.20951	0.04730
1569.92374	0.04793
1568.63797	0.04857
1567.35220	0.04920
1566.06643	0.04976
1564.78066	0.05031
1563.49489	0.05091
1562.20912	0.05147
1560.92336	0.05190
1559.63759	0.05224
1558.35182	0.05267
1557.06605	0.05318
1555.78028	0.05367
1554.49451	0.05411
1553.20874	0.05455
1551.92297	0.05498
1550.63721	0.05536
1549.35144	0.05572
1548.06567	0.05609
1546.77990	0.05641
1545.49413	0.05668
1544.20836	0.05696
1542.92259	0.05723
1541.63682	0.05739
1540.35105	0.05741
1539.06529	0.05738
1537.77952	0.05740
1536.49375	0.05741
1535.20798	0.05738
1533.92221	0.05736
1532.63644	0.05742
1531.35067	0.05755
1530.06490	0.05770
1528.77914	0.05786
1527.49337	0.05801
1526.20760	0.05818
1524.92183	0.05836
1523.63606	0.05850
1522.35029	0.05860
1521.06452	0.05876
1519.77875	0.05901
1518.49298	0.05929
1517.20722	0.05953
1515.92145	0.05979
1514.63568	0.06011
1513.34991	0.06048
1512.06414	0.06092
1510.77837	0.06142
1509.49260	0.06186
1508.20683	0.06217
1506.92107	0.06240
1505.63530	0.06271
1504.34953	0.06311
1503.06376	0.06350
1501.77799	0.06384
1500.49222	0.06415
1499.20645	0.06442
1497.92068	0.06459
1496.63491	0.06471
1495.34915	0.06485
1494.06338	0.06502
1492.77761	0.06518
1491.49184	0.06531
1490.20607	0.06547
1488.92030	0.06571
1487.63453	0.06605
1486.34876	0.06648
1485.06299	0.06697
1483.77723	0.06752
1482.49146	0.06813
1481.20569	0.06882
1479.91992	0.06960
1478.63415	0.07048
1477.34838	0.07144
1476.06261	0.07240
1474.77684	0.07327
1473.49108	0.07400
1472.20531	0.07466
1470.91954	0.07531
1469.63377	0.07592
1468.34800	0.07646
1467.06223	0.07693
1465.77646	0.07742
1464.49069	0.07800
1463.20492	0.07872
1461.91916	0.07954
1460.63339	0.08037
1459.34762	0.08109
1458.06185	0.08169
1456.77608	0.08231
1455.49031	0.08301
1454.20454	0.08371
1452.91877	0.08429
1451.63301	0.08473
1450.34724	0.08506
1449.06147	0.08527
1447.77570	0.08536
1446.48993	0.08529
1445.20416	0.08506
1443.91839	0.08472
1442.63262	0.08434
1441.34685	0.08400
1440.06109	0.08369
1438.77532	0.08335
1437.48955	0.08302
1436.20378	0.08280
1434.91801	0.08279
1433.63224	0.08297
1432.34647	0.08330
1431.06070	0.08381
1429.77494	0.08450
1428.48917	0.08537
1427.20340	0.08636
1425.91763	0.08738
1424.63186	0.08838
1423.34609	0.08940
1422.06032	0.09042
1420.77455	0.09141
1419.48878	0.09237
1418.20302	0.09330
1416.91725	0.09410
1415.63148	0.09470
1414.34571	0.09512
1413.05994	0.09542
1411.77417	0.09559
1410.48840	0.09562
1409.20263	0.09550
1407.91687	0.09524
1406.63110	0.09485
1405.34533	0.09431
1404.05956	0.09360
1402.77379	0.09269
1401.48802	0.09158
1400.20225	0.09032
1398.91648	0.08897
1397.63071	0.08755
1396.34495	0.08604
1395.05918	0.08445
1393.77341	0.08283
1392.48764	0.08122
1391.20187	0.07961
1389.91610	0.07799
1388.63033	0.07634
1387.34456	0.07470
1386.05880	0.07311
1384.77303	0.07153
1383.48726	0.06994
1382.20149	0.06833
1380.91572	0.06672
1379.62995	0.06512
1378.34418	0.06351
1377.05841	0.06185
1375.77264	0.06018
1374.48688	0.05853
1373.20111	0.05693
1371.91534	0.05539
1370.62957	0.05389
1369.34380	0.05245
1368.05803	0.05110
1366.77226	0.04984
1365.48649	0.04864
1364.20073	0.04747
1362.91496	0.04633
1361.62919	0.04524
1360.34342	0.04422
1359.05765	0.04329
1357.77188	0.04246
1356.48611	0.04174
1355.20034	0.04110
1353.91457	0.04048
1352.62881	0.03988
1351.34304	0.03933
1350.05727	0.03886
1348.77150	0.03846
1347.48573	0.03810
1346.19996	0.03777
1344.91419	0.03746
1343.62842	0.03718
1342.34266	0.03692
1341.05689	0.03665
1339.77112	0.03638
1338.48535	0.03610
1337.19958	0.03582
1335.91381	0.03556
1334.62804	0.03531
1333.34227	0.03507
1332.05650	0.03482
1330.77074	0.03456
1329.48497	0.03429
1328.19920	0.03400
1326.91343	0.03368
1325.62766	0.03337
1324.34189	0.03309
1323.05612	0.03283
1321.77035	0.03260
1320.48459	0.03237
1319.19882	0.03215
1317.91305	0.03194
1316.62728	0.03172
1315.34151	0.03147
1314.05574	0.03117
1312.76997	0.03082
1311.48420	0.03045
1310.19843	0.03009
1308.91267	0.02978
1307.62690	0.02952
1306.34113	0.02928
1305.05536	0.02905
1303.76959	0.02880
1302.48382	0.02855
1301.19805	0.02831
1299.91228	0.02809
1298.62652	0.02792
1297.34075	0.02777
1296.05498	0.02759
1294.76921	0.02738
1293.48344	0.02716
1292.19767	0.02701
1290.91190	0.02694
1289.62613	0.02694
1288.34036	0.02697
1287.05460	0.02699
1285.76883	0.02698
1284.48306	0.02695
1283.19729	0.02691
1281.91152	0.02686
1280.62575	0.02679
1279.33998	0.02669
1278.05421	0.02656
1276.76845	0.02640
1275.48268	0.02623
1274.19691	0.02607
1272.91114	0.02592
1271.62537	0.02577
1270.33960	0.02562
1269.05383	0.02549
1267.76806	0.02540
1266.48229	0.02533
1265.19653	0.02526
1263.91076	0.02516
1262.62499	0.02508
1261.33922	0.02503
1260.05345	0.02505
1258.76768	0.02511
1257.48191	0.02516
1256.19614	0.02517
1254.91037	0.02515
1253.62461	0.02512
1252.33884	0.02508
1251.05307	0.02506
1249.76730	0.02505
1248.48153	0.02504
1247.19576	0.02503
1245.90999	0.02501
1244.62422	0.02497
1243.33846	0.02489
1242.05269	0.02479
1240.76692	0.02468
1239.48115	0.02456
1238.19538	0.02444
1236.90961	0.02430
1235.62384	0.02415
1234.33807	0.02401
1233.05230	0.02387
1231.76654	0.02372
1230.48077	0.02352
1229.19500	0.02326
1227.90923	0.02296
1226.62346	0.02264
1225.33769	0.02232
1224.05192	0.02204
1222.76615	0.02177
1221.48039	0.02152
1220.19462	0.02127
1218.90885	0.02102
1217.62308	0.02078
1216.33731	0.02057
1215.05154	0.02041
1213.76577	0.02027
1212.48000	0.02014
1211.19423	0.01999
1209.90847	0.01984
1208.62270	0.01973
1207.33693	0.01966
1206.05116	0.01962
1204.76539	0.01956
1203.47962	0.01946
1202.19385	0.01934
1200.90808	0.01920
1199.62232	0.01909
1198.33655	0.01901
1197.05078	0.01895
1195.76501	0.01888
1194.47924	0.01877
1193.19347	0.01863
1191.90770	0.01846
1190.62193	0.01830
1189.33616	0.01812
1188.05040	0.01791
1186.76463	0.01767
1185.47886	0.01744
1184.19309	0.01730
1182.90732	0.01726
1181.62155	0.01729
1180.33578	0.01734
1179.05001	0.01738
1177.76425	0.01739
1176.47848	0.01738
1175.19271	0.01735
1173.90694	0.01731
1172.62117	0.01732
1171.33540	0.01740
1170.04963	0.01755
1168.76386	0.01770
1167.47809	0.01783
1166.19233	0.01792
1164.90656	0.01799
1163.62079	0.01805
1162.33502	0.01815
1161.04925	0.01830
1159.76348	0.01850
1158.47771	0.01873
1157.19194	0.01895
1155.90618	0.01918
1154.62041	0.01942
1153.33464	0.01967
1152.04887	0.01989
1150.76310	0.02009
1149.47733	0.02030
1148.19156	0.02057
1146.90579	0.02092
1145.62002	0.02136
1144.33426	0.02187
1143.04849	0.02245
1141.76272	0.02307
1140.47695	0.02378
1139.19118	0.02457
1137.90541	0.02545
1136.61964	0.02636
1135.33387	0.02730
1134.04811	0.02835
1132.76234	0.02955
1131.47657	0.03089
1130.19080	0.03236
1128.90503	0.03399
1127.61926	0.03584
1126.33349	0.03794
1125.04772	0.04024
1123.76195	0.04270
1122.47619	0.04525
1121.19042	0.04788
1119.90465	0.05059
1118.61888	0.05338
1117.33311	0.05626
1116.04734	0.05918
1114.76157	0.06212
1113.47580	0.06507
1112.19004	0.06802
1110.90427	0.07096
1109.61850	0.07387
1108.33273	0.07677
1107.04696	0.07966
1105.76119	0.08252
1104.47542	0.08529
1103.18965	0.08796
1101.90388	0.09057
1100.61812	0.09311
1099.33235	0.09556
1098.04658	0.09790
1096.76081	0.10014
1095.47504	0.10224
1094.18927	0.10422
1092.90350	0.10609
1091.61773	0.10789
1090.33197	0.10962
1089.04620	0.11127
1087.76043	0.11288
1086.47466	0.11450
1085.18889	0.11618
1083.90312	0.11795
1082.61735	0.11976
1081.33158	0.12164
1080.04581	0.12362
1078.76005	0.12575
1077.47428	0.12800
1076.18851	0.13035
1074.90274	0.13279
1073.61697	0.13533
1072.33120	0.13799
1071.04543	0.14072
1069.75966	0.14346
1068.47390	0.14621
1067.18813	0.14902
1065.90236	0.15191
1064.61659	0.15487
1063.33082	0.15789
1062.04505	0.16098
1060.75928	0.16412
1059.47351	0.16723
1058.18774	0.17027
1056.90198	0.17322
1055.61621	0.17614
1054.33044	0.17905
1053.04467	0.18198
1051.75890	0.18490
1050.47313	0.18782
1049.18736	0.19077
1047.90159	0.19383
1046.61583	0.19703
1045.33006	0.20033
1044.04429	0.20366
1042.75852	0.20693
1041.47275	0.21014
1040.18698	0.21334
1038.90121	0.21658
1037.61544	0.21990
1036.32967	0.22321
1035.04391	0.22644
1033.75814	0.22947
1032.47237	0.23225
1031.18660	0.23475
1029.90083	0.23702
1028.61506	0.23912
1027.32929	0.24109
1026.04352	0.24289
1024.75775	0.24440
1023.47199	0.24554
1022.18622	0.24630
1020.90045	0.24669
1019.61468	0.24670
1018.32891	0.24630
1017.04314	0.24546
1015.75737	0.24421
1014.47160	0.24255
1013.18584	0.24049
1011.90007	0.23800
1010.61430	0.23506
1009.32853	0.23178
1008.04276	0.22824
1006.75699	0.22446
1005.47122	0.22037
1004.18545	0.21596
1002.89968	0.21127
1001.61392	0.20638
1000.32815	0.20134
999.04238	0.19616
997.75661	0.19087
996.47084	0.18548
995.18507	0.18000
993.89930	0.17449
992.61353	0.16902
991.32777	0.16365
990.04200	0.15837
988.75623	0.15319
987.47046	0.14817
986.18469	0.14336
984.89892	0.13873
983.61315	0.13424
982.32738	0.12987
981.04161	0.12564
979.75585	0.12164
978.47008	0.11789
977.18431	0.11444
975.89854	0.11130
974.61277	0.10844
973.32700	0.10589
972.04123	0.10371
970.75546	0.10206
969.46970	0.10101
968.18393	0.10046
966.89816	0.10030
965.61239	0.10040
964.32662	0.10074
963.04085	0.10121
961.75508	0.10160
960.46931	0.10164
959.18354	0.10118
957.89778	0.10018
956.61201	0.09872
955.32624	0.09694
954.04047	0.09496
952.75470	0.09292
951.46893	0.09089
950.18316	0.08887
948.89739	0.08684
947.61163	0.08480
946.32586	0.08281
945.04009	0.08091
943.75432	0.07909
942.46855	0.07729
941.18278	0.07552
939.89701	0.07382
938.61124	0.07224
937.32547	0.07078
936.03971	0.06934
934.75394	0.06791
933.46817	0.06654
932.18240	0.06527
930.89663	0.06410
929.61086	0.06296
928.32509	0.06186
927.03932	0.06087
925.75356	0.06002
924.46779	0.05929
923.18202	0.05856
921.89625	0.05778
920.61048	0.05698
919.32471	0.05622
918.03894	0.05550
916.75317	0.05482
915.46740	0.05416
914.18164	0.05353
912.89587	0.05288
911.61010	0.05222
910.32433	0.05161
909.03856	0.05111
907.75279	0.05067
906.46702	0.05019
905.18125	0.04961
903.89549	0.04900
902.60972	0.04844
901.32395	0.04794
900.03818	0.04749
898.75241	0.04710
897.46664	0.04679
896.18087	0.04655
894.89510	0.04635
893.60933	0.04614
892.32357	0.04595
891.03780	0.04577
889.75203	0.04568
888.46626	0.04575
887.18049	0.04605
885.89472	0.04670
884.60895	0.04785
883.32318	0.04956
882.03742	0.05171
880.75165	0.05391
879.46588	0.05573
878.18011	0.05703
876.89434	0.05805
875.60857	0.05915
874.32280	0.06044
873.03703	0.06166
871.75126	0.06244
870.46550	0.06253
869.17973	0.06190
867.89396	0.06070
866.60819	0.05914
865.32242	0.05744
864.03665	0.05575
862.75088	0.05414
861.46511	0.05266
860.17935	0.05133
858.89358	0.05012
857.60781	0.04900
856.32204	0.04795
855.03627	0.04702
853.75050	0.04621
852.46473	0.04550
851.17896	0.04486
849.89319	0.04429
848.60743	0.04383
847.32166	0.04345
846.03589	0.04306
844.75012	0.04259
843.46435	0.04209
842.17858	0.04165
840.89281	0.04134
839.60704	0.04114
838.32128	0.04097
837.03551	0.04073
835.74974	0.04040
834.46397	0.04007
833.17820	0.03983
831.89243	0.03970
830.60666	0.03958
829.32089	0.03942
828.03512	0.03924
826.74936	0.03905
825.46359	0.03883
824.17782	0.03856
822.89205	0.03831
821.60628	0.03814
820.32051	0.03806
819.03474	0.03799
817.74897	0.03787
816.46321	0.03773
815.17744	0.03761
813.89167	0.03751
812.60590	0.03738
811.32013	0.03719
810.03436	0.03695
808.74859	0.03670
807.46282	0.03653
806.17705	0.03645
804.89129	0.03644
803.60552	0.03645
802.31975	0.03646
801.03398	0.03648
799.74821	0.03650
798.46244	0.03650
797.17667	0.03644
795.89090	0.03636
794.60513	0.03627
793.31937	0.03621
792.03360	0.03619
790.74783	0.03620
789.46206	0.03619
788.17629	0.03613
786.89052	0.03603
785.60475	0.03595
784.31898	0.03590
783.03322	0.03588
781.74745	0.03582
780.46168	0.03571
779.17591	0.03560
777.89014	0.03556
776.60437	0.03560
775.31860	0.03568
774.03283	0.03574
772.74706	0.03577
771.46130	0.03578
770.17553	0.03576
768.88976	0.03572
767.60399	0.03566
766.31822	0.03561
765.03245	0.03560
763.74668	0.03562
762.46091	0.03565
761.17515	0.03567
759.88938	0.03570
758.60361	0.03577
757.31784	0.03590
756.03207	0.03606
754.74630	0.03620
753.46053	0.03624
752.17476	0.03616
750.88899	0.03603
749.60323	0.03590
748.31746	0.03582
747.03169	0.03577
745.74592	0.03571
744.46015	0.03560
743.17438	0.03547
741.88861	0.03538
740.60284	0.03534
739.31708	0.03528
738.03131	0.03519
736.74554	0.03510
735.45977	0.03509
734.17400	0.03515
732.88823	0.03523
731.60246	0.03531
730.31669	0.03544
729.03092	0.03562
727.74516	0.03579
726.45939	0.03585
725.17362	0.03577
723.88785	0.03562
722.60208	0.03555
721.31631	0.03561
720.03054	0.03575
718.74477	0.03588
717.45901	0.03595
716.17324	0.03593
714.88747	0.03584
713.60170	0.03576
712.31593	0.03571
711.03016	0.03572
709.74439	0.03576
708.45862	0.03580
707.17285	0.03580
705.88709	0.03577
704.60132	0.03574
703.31555	0.03574
702.02978	0.03580
700.74401	0.03586
699.45824	0.03590
698.17247	0.03590
696.88670	0.03587
695.60094	0.03587
694.31517	0.03589
693.02940	0.03592
691.74363	0.03592
690.45786	0.03588
689.17209	0.03582
687.88632	0.03569
686.60055	0.03551
685.31478	0.03529
684.02902	0.03512
682.74325	0.03507
681.45748	0.03505
680.17171	0.03500
678.88594	0.03491
677.60017	0.03484
676.31440	0.03492
675.02863	0.03504
673.74287	0.03511
672.45710	0.03509
671.17133	0.03505
669.88556	0.03512
668.59979	0.03520
667.31402	0.03507
666.02825	0.03499
664.74248	0.03483
663.45671	0.03463
662.17095	0.03446
660.88518	0.03432
659.59941	0.03421
658.31364	0.03413
657.02787	0.03404
655.74210	0.03390
654.45633	0.03374
653.17056	0.03363
651.88480	0.03358
650.59903	0.03358
649.31326	0.03360
648.02749	0.03360
646.74172	0.03358
645.45595	0.03356
644.17018	0.03356
642.88441	0.03361
641.59864	0.03372
640.31288	0.03385
639.02711	0.03396
637.74134	0.03406
636.45557	0.03417
635.16980	0.03432
633.88403	0.03450
632.59826	0.03473
631.31249	0.03502
630.02673	0.03549
628.74096	0.03632
627.45519	0.03700
626.16942	0.03809
624.88365	0.03943
623.59788	0.04064
622.31211	0.04153
621.02634	0.04234
619.74057	0.04383
618.45481	0.04656
617.16904	0.05030
615.88327	0.05405
614.59750	0.05680
613.31173	0.05842
612.02596	0.06000
610.74019	0.06316
609.45442	0.06856
608.16866	0.07518
606.88289	0.08149
605.59712	0.08668
604.31135	0.09058
603.02558	0.09319
601.73981	0.09451
600.45404	0.09459
599.16827	0.09351
597.88250	0.09147
596.59674	0.08882
595.31097	0.08601
594.02520	0.08344
592.73943	0.08135
591.45366	0.07985
590.16789	0.07893
588.88212	0.07855
587.59635	0.07871
586.31059	0.07945
585.02482	0.08074
583.73905	0.08248
582.45328	0.08456
581.16751	0.08686
579.88174	0.08933
578.59597	0.09191
577.31020	0.09450
576.02443	0.09705
574.73867	0.09958
573.45290	0.10212
572.16713	0.10471
570.88136	0.10744
569.59559	0.11044
568.30982	0.11379
567.02405	0.11742
565.73828	0.12106
564.45251	0.12432
563.16675	0.12672
561.88098	0.12781
560.59521	0.12735
559.30944	0.12538
558.02367	0.12218
556.73790	0.11806
555.45213	0.11332
554.16636	0.10822
552.88060	0.10308
551.59483	0.09818
550.30906	0.09368
549.02329	0.08962
547.73752	0.08593
546.45175	0.08254
545.16598	0.07939
543.88021	0.07645
542.59444	0.07370
541.30868	0.07115
540.02291	0.06887
538.73714	0.06692
537.45137	0.06528
536.16560	0.06383
534.87983	0.06244
533.59406	0.06103
532.30829	0.05959
531.02253	0.05814
529.73676	0.05674
528.45099	0.05542
527.16522	0.05418
525.87945	0.05300
524.59368	0.05185
523.30791	0.05080
522.02214	0.04988
520.73637	0.04909
519.45061	0.04835
518.16484	0.04760
516.87907	0.04682
515.59330	0.04604
514.30753	0.04527
513.02176	0.04449
511.73599	0.04369
510.45022	0.04291
509.16446	0.04221
507.87869	0.04163
506.59292	0.04114
505.30715	0.04071
504.02138	0.04026
502.73561	0.03972
501.44984	0.03905
500.16407	0.03829
498.87830	0.03755
497.59254	0.03693
496.30677	0.03646
495.02100	0.03609
493.73523	0.03578
492.44946	0.03550
491.16369	0.03528
489.87792	0.03512
488.59215	0.03500
487.30639	0.03481
486.02062	0.03450
484.73485	0.03411
483.44908	0.03378
482.16331	0.03364
480.87754	0.03369
479.59177	0.03387
478.30600	0.03405
477.02023	0.03418
475.73447	0.03424
474.44870	0.03425
473.16293	0.03424
471.87716	0.03422
470.59139	0.03412
469.30562	0.03390
468.01985	0.03363
466.73408	0.03338
465.44832	0.03319
464.16255	0.03299
462.87678	0.03267
461.59101	0.03223
460.30524	0.03177
459.01947	0.03140
457.73370	0.03113
456.44793	0.03085
455.16216	0.03047
453.87640	0.03002
452.59063	0.02963
451.30486	0.02938
450.01909	0.02924
448.73332	0.02913
447.44755	0.02897
446.16178	0.02877
444.87601	0.02858
443.59025	0.02839
442.30448	0.02821
441.01871	0.02803
439.73294	0.02783
438.44717	0.02763
437.16140	0.02743
435.87563	0.02725
434.58986	0.02708
433.30409	0.02696
432.01833	0.02687
430.73256	0.02681
429.44679	0.02670
428.16102	0.02649
426.87525	0.02620
425.58948	0.02591
424.30371	0.02572
423.01794	0.02561
421.73218	0.02555
420.44641	0.02550
419.16064	0.02546
417.87487	0.02540
416.58910	0.02524
415.30333	0.02497
414.01756	0.02468
412.73179	0.02449
411.44602	0.02442
410.16026	0.02444
408.87449	0.02447
407.58872	0.02445
406.30295	0.02439
405.01718	0.02430
403.73141	0.02421
402.44564	0.02416
401.15987	0.02417
399.87411	0.02423
