3997.45528	0.02454
3996.16951	0.02499
3994.88374	0.02568
3993.59798	0.02649
3992.31221	0.02723
3991.02644	0.02783
3989.74067	0.02827
3988.45490	0.02839
3987.16913	0.02803
3985.88336	0.02726
3984.59759	0.02650
3983.31183	0.02610
3982.02606	0.02611
3980.74029	0.02633
3979.45452	0.02660
3978.16875	0.02693
3976.88298	0.02728
3975.59721	0.02752
3974.31144	0.02750
3973.02567	0.02723
3971.73991	0.02690
3970.45414	0.02667
3969.16837	0.02658
3967.88260	0.02653
3966.59683	0.02636
3965.31106	0.02606
3964.02529	0.02580
3962.73952	0.02585
3961.45376	0.02625
3960.16799	0.02666
3958.88222	0.02665
3957.59645	0.02615
3956.31068	0.02557
3955.02491	0.02538
3953.73914	0.02567
3952.45337	0.02613
3951.16760	0.02641
3949.88184	0.02649
3948.59607	0.02654
3947.31030	0.02668
3946.02453	0.02675
3944.73876	0.02655
3943.45299	0.02617
3942.16722	0.02591
3940.88145	0.02594
3939.59569	0.02612
3938.30992	0.02622
3937.02415	0.02620
3935.73838	0.02617
3934.45261	0.02619
3933.16684	0.02612
3931.88107	0.02582
3930.59530	0.02533
3929.30953	0.02491
3928.02377	0.02477
3926.73800	0.02487
3925.45223	0.02508
3924.16646	0.02543
3922.88069	0.02597
3921.59492	0.02652
3920.30915	0.02678
3919.02338	0.02673
3917.73762	0.02669
3916.45185	0.02688
3915.16608	0.02721
3913.88031	0.02742
3912.59454	0.02736
3911.30877	0.02706
3910.02300	0.02664
3908.73723	0.02615
3907.45146	0.02563
3906.16570	0.02510
3904.87993	0.02461
3903.59416	0.02429
3902.30839	0.02430
3901.02262	0.02468
3899.73685	0.02521
3898.45108	0.02556
3897.16531	0.02561
3895.87955	0.02547
3894.59378	0.02531
3893.30801	0.02511
3892.02224	0.02493
3890.73647	0.02503
3889.45070	0.02561
3888.16493	0.02635
3886.87916	0.02658
3885.59339	0.02595
3884.30763	0.02476
3883.02186	0.02365
3881.73609	0.02305
3880.45032	0.02303
3879.16455	0.02351
3877.87878	0.02435
3876.59301	0.02545
3875.30724	0.02672
3874.02148	0.02808
3872.73571	0.02931
3871.44994	0.03004
3870.16417	0.03003
3868.87840	0.02940
3867.59263	0.02851
3866.30686	0.02763
3865.02109	0.02691
3863.73532	0.02647
3862.44956	0.02634
3861.16379	0.02638
3859.87802	0.02645
3858.59225	0.02650
3857.30648	0.02656
3856.02071	0.02661
3854.73494	0.02676
3853.44917	0.02711
3852.16341	0.02760
3850.87764	0.02787
3849.59187	0.02765
3848.30610	0.02706
3847.02033	0.02644
3845.73456	0.02605
3844.44879	0.02591
3843.16302	0.02592
3841.87725	0.02598
3840.59149	0.02597
3839.30572	0.02566
3838.01995	0.02492
3836.73418	0.02394
3835.44841	0.02316
3834.16264	0.02303
3832.87687	0.02364
3831.59110	0.02461
3830.30534	0.02545
3829.01957	0.02594
3827.73380	0.02619
3826.44803	0.02641
3825.16226	0.02658
3823.87649	0.02658
3822.59072	0.02644
3821.30495	0.02624
3820.01918	0.02595
3818.73342	0.02543
3817.44765	0.02475
3816.16188	0.02429
3814.87611	0.02443
3813.59034	0.02508
3812.30457	0.02567
3811.01880	0.02568
3809.73303	0.02506
3808.44726	0.02428
3807.16150	0.02381
3805.87573	0.02376
3804.58996	0.02392
3803.30419	0.02406
3802.01842	0.02417
3800.73265	0.02443
3799.44688	0.02503
3798.16111	0.02595
3796.87535	0.02693
3795.58958	0.02759
3794.30381	0.02763
3793.01804	0.02709
3791.73227	0.02628
3790.44650	0.02555
3789.16073	0.02513
3787.87496	0.02507
3786.58919	0.02530
3785.30343	0.02571
3784.01766	0.02607
3782.73189	0.02615
3781.44612	0.02581
3780.16035	0.02520
3778.87458	0.02473
3777.58881	0.02472
3776.30304	0.02511
3775.01728	0.02552
3773.73151	0.02562
3772.44574	0.02534
3771.15997	0.02484
3769.87420	0.02437
3768.58843	0.02402
3767.30266	0.02375
3766.01689	0.02350
3764.73112	0.02341
3763.44536	0.02370
3762.15959	0.02436
3760.87382	0.02508
3759.58805	0.02547
3758.30228	0.02540
3757.01651	0.02509
3755.73074	0.02487
3754.44497	0.02486
3753.15921	0.02480
3751.87344	0.02439
3750.58767	0.02367
3749.30190	0.02309
3748.01613	0.02297
3746.73036	0.02314
3745.44459	0.02322
3744.15882	0.02311
3742.87305	0.02315
3741.58729	0.02358
3740.30152	0.02420
3739.01575	0.02457
3737.72998	0.02451
3736.44421	0.02428
3735.15844	0.02420
3733.87267	0.02436
3732.58690	0.02463
3731.30114	0.02490
3730.01537	0.02513
3728.72960	0.02530
3727.44383	0.02539
3726.15806	0.02546
3724.87229	0.02556
3723.58652	0.02573
3722.30075	0.02598
3721.01498	0.02626
3719.72922	0.02638
3718.44345	0.02614
3717.15768	0.02550
3715.87191	0.02472
3714.58614	0.02416
3713.30037	0.02387
3712.01460	0.02360
3710.72883	0.02324
3709.44307	0.02301
3708.15730	0.02312
3706.87153	0.02353
3705.58576	0.02395
3704.29999	0.02416
3703.01422	0.02408
3701.72845	0.02379
3700.44268	0.02340
3699.15691	0.02291
3697.87115	0.02231
3696.58538	0.02173
3695.29961	0.02143
3694.01384	0.02157
3692.72807	0.02203
3691.44230	0.02262
3690.15653	0.02327
3688.87076	0.02400
3687.58500	0.02467
3686.29923	0.02497
3685.01346	0.02470
3683.72769	0.02398
3682.44192	0.02314
3681.15615	0.02253
3679.87038	0.02236
3678.58461	0.02265
3677.29884	0.02315
3676.01308	0.02342
3674.72731	0.02316
3673.44154	0.02249
3672.15577	0.02195
3670.87000	0.02203
3669.58423	0.02266
3668.29846	0.02338
3667.01269	0.02391
3665.72693	0.02431
3664.44116	0.02455
3663.15539	0.02440
3661.86962	0.02376
3660.58385	0.02299
3659.29808	0.02258
3658.01231	0.02261
3656.72654	0.02276
3655.44077	0.02281
3654.15501	0.02291
3652.86924	0.02340
3651.58347	0.02440
3650.29770	0.02571
3649.01193	0.02679
3647.72616	0.02715
3646.44039	0.02668
3645.15462	0.02571
3643.86886	0.02481
3642.58309	0.02440
3641.29732	0.02456
3640.01155	0.02499
3638.72578	0.02534
3637.44001	0.02553
3636.15424	0.02572
3634.86847	0.02604
3633.58270	0.02644
3632.29694	0.02688
3631.01117	0.02750
3629.72540	0.02840
3628.43963	0.02938
3627.15386	0.03001
3625.86809	0.03002
3624.58232	0.02953
3623.29655	0.02892
3622.01079	0.02854
3620.72502	0.02850
3619.43925	0.02870
3618.15348	0.02894
3616.86771	0.02910
3615.58194	0.02930
3614.29617	0.02972
3613.01040	0.03041
3611.72463	0.03121
3610.43887	0.03188
3609.15310	0.03227
3607.86733	0.03251
3606.58156	0.03273
3605.29579	0.03284
3604.01002	0.03263
3602.72425	0.03216
3601.43848	0.03181
3600.15272	0.03194
3598.86695	0.03257
3597.58118	0.03330
3596.29541	0.03370
3595.00964	0.03361
3593.72387	0.03323
3592.43810	0.03289
3591.15233	0.03291
3589.86656	0.03343
3588.58080	0.03420
3587.29503	0.03474
3586.00926	0.03476
3584.72349	0.03441
3583.43772	0.03405
3582.15195	0.03398
3580.86618	0.03422
3579.58041	0.03457
3578.29464	0.03484
3577.00888	0.03498
3575.72311	0.03516
3574.43734	0.03546
3573.15157	0.03574
3571.86580	0.03584
3570.58003	0.03584
3569.29426	0.03603
3568.00849	0.03642
3566.72273	0.03677
3565.43696	0.03690
3564.15119	0.03691
3562.86542	0.03691
3561.57965	0.03692
3560.29388	0.03694
3559.00811	0.03699
3557.72234	0.03713
3556.43657	0.03737
3555.15081	0.03773
3553.86504	0.03817
3552.57927	0.03851
3551.29350	0.03853
3550.00773	0.03826
3548.72196	0.03793
3547.43619	0.03784
3546.15042	0.03814
3544.86466	0.03885
3543.57889	0.03980
3542.29312	0.04072
3541.00735	0.04124
3539.72158	0.04122
3538.43581	0.04085
3537.15004	0.04048
3535.86427	0.04032
3534.57850	0.04035
3533.29274	0.04052
3532.00697	0.04078
3530.72120	0.04109
3529.43543	0.04135
3528.14966	0.04149
3526.86389	0.04152
3525.57812	0.04150
3524.29235	0.04150
3523.00659	0.04163
3521.72082	0.04189
3520.43505	0.04214
3519.14928	0.04231
3517.86351	0.04250
3516.57774	0.04285
3515.29197	0.04335
3514.00620	0.04383
3512.72043	0.04412
3511.43467	0.04420
3510.14890	0.04414
3508.86313	0.04405
3507.57736	0.04401
3506.29159	0.04403
3505.00582	0.04416
3503.72005	0.04451
3502.43428	0.04517
3501.14852	0.04605
3499.86275	0.04682
3498.57698	0.04710
3497.29121	0.04664
3496.00544	0.04567
3494.71967	0.04484
3493.43390	0.04477
3492.14813	0.04549
3490.86236	0.04642
3489.57660	0.04697
3488.29083	0.04706
3487.00506	0.04705
3485.71929	0.04722
3484.43352	0.04750
3483.14775	0.04771
3481.86198	0.04771
3480.57621	0.04752
3479.29045	0.04724
3478.00468	0.04705
3476.71891	0.04716
3475.43314	0.04759
3474.14737	0.04814
3472.86160	0.04852
3471.57583	0.04862
3470.29006	0.04853
3469.00429	0.04843
3467.71853	0.04844
3466.43276	0.04854
3465.14699	0.04862
3463.86122	0.04870
3462.57545	0.04888
3461.28968	0.04920
3460.00391	0.04965
3458.71814	0.05016
3457.43238	0.05066
3456.14661	0.05096
3454.86084	0.05076
3453.57507	0.04997
3452.28930	0.04895
3451.00353	0.04826
3449.71776	0.04829
3448.43199	0.04892
3447.14622	0.04969
3445.86046	0.05021
3444.57469	0.05033
3443.28892	0.05021
3442.00315	0.05014
3440.71738	0.05031
3439.43161	0.05064
3438.14584	0.05091
3436.86007	0.05092
3435.57431	0.05070
3434.28854	0.05045
3433.00277	0.05035
3431.71700	0.05050
3430.43123	0.05090
3429.14546	0.05145
3427.85969	0.05199
3426.57392	0.05237
3425.28815	0.05254
3424.00239	0.05252
3422.71662	0.05242
3421.43085	0.05236
3420.14508	0.05240
3418.85931	0.05244
3417.57354	0.05233
3416.28777	0.05202
3415.00200	0.05162
3413.71624	0.05133
3412.43047	0.05128
3411.14470	0.05156
3409.85893	0.05208
3408.57316	0.05265
3407.28739	0.05304
3406.00162	0.05315
3404.71585	0.05306
3403.43008	0.05300
3402.14432	0.05311
3400.85855	0.05335
3399.57278	0.05361
3398.28701	0.05379
3397.00124	0.05389
3395.71547	0.05400
3394.42970	0.05420
3393.14393	0.05454
3391.85817	0.05501
3390.57240	0.05552
3389.28663	0.05585
3388.00086	0.05586
3386.71509	0.05559
3385.42932	0.05528
3384.14355	0.05512
3382.85778	0.05512
3381.57201	0.05511
3380.28625	0.05494
3379.00048	0.05465
3377.71471	0.05450
3376.42894	0.05465
3375.14317	0.05507
3373.85740	0.05552
3372.57163	0.05578
3371.28586	0.05582
3370.00010	0.05579
3368.71433	0.05582
3367.42856	0.05594
3366.14279	0.05605
3364.85702	0.05599
3363.57125	0.05575
3362.28548	0.05550
3360.99971	0.05547
3359.71394	0.05571
3358.42818	0.05607
3357.14241	0.05635
3355.85664	0.05656
3354.57087	0.05683
3353.28510	0.05724
3351.99933	0.05765
3350.71356	0.05781
3349.42779	0.05757
3348.14202	0.05697
3346.85626	0.05622
3345.57049	0.05550
3344.28472	0.05491
3342.99895	0.05452
3341.71318	0.05446
3340.42741	0.05481
3339.14164	0.05540
3337.85587	0.05591
3336.57011	0.05608
3335.28434	0.05594
3333.99857	0.05571
3332.71280	0.05563
3331.42703	0.05579
3330.14126	0.05609
3328.85549	0.05635
3327.56972	0.05643
3326.28395	0.05634
3324.99819	0.05619
3323.71242	0.05604
3322.42665	0.05592
3321.14088	0.05583
3319.85511	0.05585
3318.56934	0.05601
3317.28357	0.05621
3315.99780	0.05633
3314.71204	0.05638
3313.42627	0.05649
3312.14050	0.05671
3310.85473	0.05683
3309.56896	0.05663
3308.28319	0.05612
3306.99742	0.05562
3305.71165	0.05541
3304.42588	0.05547
3303.14012	0.05555
3301.85435	0.05541
3300.56858	0.05506
3299.28281	0.05472
3297.99704	0.05464
3296.71127	0.05482
3295.42550	0.05508
3294.13973	0.05526
3292.85397	0.05529
3291.56820	0.05515
3290.28243	0.05486
3288.99666	0.05452
3287.71089	0.05432
3286.42512	0.05436
3285.13935	0.05464
3283.85358	0.05500
3282.56781	0.05528
3281.28205	0.05538
3279.99628	0.05531
3278.71051	0.05507
3277.42474	0.05472
3276.13897	0.05438
3274.85320	0.05418
3273.56743	0.05413
3272.28166	0.05418
3270.99590	0.05428
3269.71013	0.05439
3268.42436	0.05437
3267.13859	0.05401
3265.85282	0.05338
3264.56705	0.05283
3263.28128	0.05271
3261.99551	0.05301
3260.70974	0.05349
3259.42398	0.05392
3258.13821	0.05420
3256.85244	0.05422
3255.56667	0.05400
3254.28090	0.05368
3252.99513	0.05353
3251.70936	0.05374
3250.42359	0.05422
3249.13783	0.05474
3247.85206	0.05497
3246.56629	0.05477
3245.28052	0.05425
3243.99475	0.05375
3242.70898	0.05360
3241.42321	0.05390
3240.13744	0.05441
3238.85167	0.05475
3237.56591	0.05470
3236.28014	0.05438
3234.99437	0.05404
3233.70860	0.05385
3232.42283	0.05379
3231.13706	0.05380
3229.85129	0.05381
3228.56552	0.05376
3227.27976	0.05362
3225.99399	0.05341
3224.70822	0.05326
3223.42245	0.05331
3222.13668	0.05357
3220.85091	0.05386
3219.56514	0.05395
3218.27937	0.05381
3216.99360	0.05361
3215.70784	0.05358
3214.42207	0.05375
3213.13630	0.05388
3211.85053	0.05376
3210.56476	0.05337
3209.27899	0.05298
3207.99322	0.05284
3206.70745	0.05298
3205.42169	0.05319
3204.13592	0.05329
3202.85015	0.05325
3201.56438	0.05314
3200.27861	0.05299
3198.99284	0.05279
3197.70707	0.05260
3196.42130	0.05251
3195.13553	0.05251
3193.84977	0.05249
3192.56400	0.05238
3191.27823	0.05232
3189.99246	0.05241
3188.70669	0.05261
3187.42092	0.05271
3186.13515	0.05259
3184.84938	0.05234
3183.56362	0.05209
3182.27785	0.05192
3180.99208	0.05170
3179.70631	0.05136
3178.42054	0.05094
3177.13477	0.05059
3175.84900	0.05040
3174.56323	0.05037
3173.27746	0.05051
3171.99170	0.05082
3170.70593	0.05119
3169.42016	0.05142
3168.13439	0.05139
3166.84862	0.05119
3165.56285	0.05101
3164.27708	0.05092
3162.99131	0.05087
3161.70555	0.05076
3160.41978	0.05063
3159.13401	0.05050
3157.84824	0.05035
3156.56247	0.05015
3155.27670	0.04999
3153.99093	0.05000
3152.70516	0.05023
3151.41939	0.05056
3150.13363	0.05076
3148.84786	0.05067
3147.56209	0.05031
3146.27632	0.04988
3144.99055	0.04962
3143.70478	0.04952
3142.41901	0.04930
3141.13324	0.04880
3139.84748	0.04820
3138.56171	0.04790
3137.27594	0.04811
3135.99017	0.04861
3134.70440	0.04902
3133.41863	0.04915
3132.13286	0.04908
3130.84709	0.04900
3129.56132	0.04904
3128.27556	0.04919
3126.98979	0.04933
3125.70402	0.04933
3124.41825	0.04912
3123.13248	0.04880
3121.84671	0.04854
3120.56094	0.04845
3119.27517	0.04854
3117.98940	0.04868
3116.70364	0.04871
3115.41787	0.04856
3114.13210	0.04831
3112.84633	0.04810
3111.56056	0.04803
3110.27479	0.04800
3108.98902	0.04790
3107.70325	0.04773
3106.41749	0.04765
3105.13172	0.04772
3103.84595	0.04786
3102.56018	0.04795
3101.27441	0.04799
3099.98864	0.04803
3098.70287	0.04802
3097.41710	0.04789
3096.13133	0.04763
3094.84557	0.04738
3093.55980	0.04729
3092.27403	0.04738
3090.98826	0.04750
3089.70249	0.04745
3088.41672	0.04719
3087.13095	0.04685
3085.84518	0.04659
3084.55942	0.04649
3083.27365	0.04653
3081.98788	0.04669
3080.70211	0.04694
3079.41634	0.04718
3078.13057	0.04728
3076.84480	0.04720
3075.55903	0.04702
3074.27326	0.04682
3072.98750	0.04663
3071.70173	0.04647
3070.41596	0.04635
3069.13019	0.04627
3067.84442	0.04614
3066.55865	0.04591
3065.27288	0.04567
3063.98711	0.04557
3062.70135	0.04569
3061.41558	0.04589
3060.12981	0.04605
3058.84404	0.04609
3057.55827	0.04603
3056.27250	0.04591
3054.98673	0.04574
3053.70096	0.04555
3052.41519	0.04538
3051.12943	0.04529
3049.84366	0.04524
3048.55789	0.04515
3047.27212	0.04497
3045.98635	0.04480
3044.70058	0.04469
3043.41481	0.04459
3042.12904	0.04440
3040.84328	0.04413
3039.55751	0.04391
3038.27174	0.04382
3036.98597	0.04376
3035.70020	0.04362
3034.41443	0.04343
3033.12866	0.04332
3031.84289	0.04332
3030.55712	0.04332
3029.27136	0.04323
3027.98559	0.04319
3026.69982	0.04338
3025.41405	0.04380
3024.12828	0.04416
3022.84251	0.04414
3021.55674	0.04365
3020.27097	0.04293
3018.98521	0.04236
3017.69944	0.04218
3016.41367	0.04242
3015.12790	0.04289
3013.84213	0.04332
3012.55636	0.04354
3011.27059	0.04347
3009.98482	0.04316
3008.69905	0.04280
3007.41329	0.04260
3006.12752	0.04267
3004.84175	0.04288
3003.55598	0.04305
3002.27021	0.04303
3000.98444	0.04284
2999.69867	0.04258
2998.41290	0.04239
2997.12714	0.04233
2995.84137	0.04229
2994.55560	0.04209
2993.26983	0.04167
2991.98406	0.04121
2990.69829	0.04097
2989.41252	0.04105
2988.12675	0.04133
2986.84098	0.04158
2985.55522	0.04166
2984.26945	0.04168
2982.98368	0.04180
2981.69791	0.04214
2980.41214	0.04258
2979.12637	0.04289
2977.84060	0.04295
2976.55483	0.04284
2975.26907	0.04272
2973.98330	0.04275
2972.69753	0.04296
2971.41176	0.04330
2970.12599	0.04361
2968.84022	0.04372
2967.55445	0.04362
2966.26868	0.04348
2964.98291	0.04348
2963.69715	0.04369
2962.41138	0.04406
2961.12561	0.04450
2959.83984	0.04493
2958.55407	0.04537
2957.26830	0.04578
2955.98253	0.04611
2954.69676	0.04626
2953.41100	0.04628
2952.12523	0.04629
2950.83946	0.04635
2949.55369	0.04639
2948.26792	0.04629
2946.98215	0.04606
2945.69638	0.04570
2944.41061	0.04528
2943.12484	0.04492
2941.83908	0.04478
2940.55331	0.04487
2939.26754	0.04507
2937.98177	0.04519
2936.69600	0.04518
2935.41023	0.04515
2934.12446	0.04528
2932.83869	0.04564
2931.55293	0.04613
2930.26716	0.04656
2928.98139	0.04678
2927.69562	0.04679
2926.40985	0.04667
2925.12408	0.04650
2923.83831	0.04631
2922.55254	0.04606
2921.26677	0.04570
2919.98101	0.04530
2918.69524	0.04497
2917.40947	0.04477
2916.12370	0.04467
2914.83793	0.04459
2913.55216	0.04451
2912.26639	0.04440
2910.98062	0.04419
2909.69486	0.04389
2908.40909	0.04359
2907.12332	0.04345
2905.83755	0.04342
2904.55178	0.04340
2903.26601	0.04329
2901.98024	0.04308
2900.69447	0.04274
2899.40870	0.04224
2898.12294	0.04166
2896.83717	0.04121
2895.55140	0.04106
2894.26563	0.04116
2892.97986	0.04126
2891.69409	0.04112
2890.40832	0.04075
2889.12255	0.04037
2887.83678	0.04020
2886.55102	0.04024
2885.26525	0.04032
2883.97948	0.04029
2882.69371	0.04015
2881.40794	0.04000
2880.12217	0.03999
2878.83640	0.04016
2877.55063	0.04039
2876.26487	0.04046
2874.97910	0.04025
2873.69333	0.03991
2872.40756	0.03975
2871.12179	0.03996
2869.83602	0.04045
2868.55025	0.04092
2867.26448	0.04111
2865.97871	0.04101
2864.69295	0.04076
2863.40718	0.04052
2862.12141	0.04030
2860.83564	0.04005
2859.54987	0.03973
2858.26410	0.03942
2856.97833	0.03914
2855.69256	0.03890
2854.40680	0.03868
2853.12103	0.03847
2851.83526	0.03827
2850.54949	0.03807
2849.26372	0.03793
2847.97795	0.03788
2846.69218	0.03783
2845.40641	0.03765
2844.12064	0.03733
2842.83488	0.03705
2841.54911	0.03693
2840.26334	0.03688
2838.97757	0.03671
2837.69180	0.03634
2836.40603	0.03590
2835.12026	0.03547
2833.83449	0.03506
2832.54873	0.03470
2831.26296	0.03449
2829.97719	0.03450
2828.69142	0.03466
2827.40565	0.03481
2826.11988	0.03489
2824.83411	0.03494
2823.54834	0.03491
2822.26257	0.03476
2820.97681	0.03451
2819.69104	0.03427
2818.40527	0.03410
2817.11950	0.03393
2815.83373	0.03368
2814.54796	0.03336
2813.26219	0.03304
2811.97642	0.03283
2810.69066	0.03275
2809.40489	0.03280
2808.11912	0.03292
2806.83335	0.03297
2805.54758	0.03291
2804.26181	0.03281
2802.97604	0.03275
2801.69027	0.03271
2800.40450	0.03256
2799.11874	0.03232
2797.83297	0.03212
2796.54720	0.03209
2795.26143	0.03226
2793.97566	0.03253
2792.68989	0.03276
2791.40412	0.03278
2790.11835	0.03256
2788.83259	0.03220
2787.54682	0.03188
2786.26105	0.03164
2784.97528	0.03142
2783.68951	0.03121
2782.40374	0.03111
2781.11797	0.03120
2779.83220	0.03143
2778.54643	0.03160
2777.26067	0.03157
2775.97490	0.03141
2774.68913	0.03129
2773.40336	0.03136
2772.11759	0.03159
2770.83182	0.03178
2769.54605	0.03174
2768.26028	0.03140
2766.97452	0.03091
2765.68875	0.03050
2764.40298	0.03034
2763.11721	0.03040
2761.83144	0.03054
2760.54567	0.03064
2759.25990	0.03065
2757.97413	0.03059
2756.68836	0.03047
2755.40260	0.03031
2754.11683	0.03013
2752.83106	0.02997
2751.54529	0.02990
2750.25952	0.02997
2748.97375	0.03019
2747.68798	0.03045
2746.40221	0.03055
2745.11645	0.03041
2743.83068	0.03014
2742.54491	0.02992
2741.25914	0.02983
2739.97337	0.02981
2738.68760	0.02977
2737.40183	0.02972
2736.11606	0.02972
2734.83029	0.02978
2733.54453	0.02985
2732.25876	0.02986
2730.97299	0.02984
2729.68722	0.02983
2728.40145	0.02983
2727.11568	0.02980
2725.82991	0.02971
2724.54414	0.02959
2723.25838	0.02946
2721.97261	0.02931
2720.68684	0.02906
2719.40107	0.02871
2718.11530	0.02836
2716.82953	0.02820
2715.54376	0.02827
2714.25799	0.02841
2712.97222	0.02847
2711.68646	0.02837
2710.40069	0.02823
2709.11492	0.02817
2707.82915	0.02825
2706.54338	0.02838
2705.25761	0.02843
2703.97184	0.02834
2702.68607	0.02827
2701.40031	0.02836
2700.11454	0.02859
2698.82877	0.02873
2697.54300	0.02862
2696.25723	0.02831
2694.97146	0.02801
2693.68569	0.02784
2692.39992	0.02775
2691.11415	0.02764
2689.82839	0.02746
2688.54262	0.02726
2687.25685	0.02713
2685.97108	0.02717
2684.68531	0.02737
2683.39954	0.02763
2682.11377	0.02781
2680.82800	0.02783
2679.54224	0.02773
2678.25647	0.02760
2676.97070	0.02748
2675.68493	0.02740
2674.39916	0.02735
2673.11339	0.02735
2671.82762	0.02736
2670.54185	0.02735
2669.25608	0.02732
2667.97032	0.02734
2666.68455	0.02742
2665.39878	0.02755
2664.11301	0.02767
2662.82724	0.02775
2661.54147	0.02773
2660.25570	0.02760
2658.96993	0.02743
2657.68417	0.02734
2656.39840	0.02736
2655.11263	0.02739
2653.82686	0.02732
2652.54109	0.02713
2651.25532	0.02688
2649.96955	0.02671
2648.68378	0.02672
2647.39801	0.02688
2646.11225	0.02698
2644.82648	0.02686
2643.54071	0.02651
2642.25494	0.02610
2640.96917	0.02583
2639.68340	0.02581
2638.39763	0.02590
2637.11186	0.02591
2635.82609	0.02578
2634.54033	0.02564
2633.25456	0.02561
2631.96879	0.02560
2630.68302	0.02545
2629.39725	0.02510
2628.11148	0.02470
2626.82571	0.02444
2625.53994	0.02437
2624.25418	0.02442
2622.96841	0.02451
2621.68264	0.02462
2620.39687	0.02472
2619.11110	0.02477
2617.82533	0.02475
2616.53956	0.02468
2615.25379	0.02458
2613.96802	0.02441
2612.68226	0.02417
2611.39649	0.02399
2610.11072	0.02401
2608.82495	0.02420
2607.53918	0.02438
2606.25341	0.02435
2604.96764	0.02406
2603.68187	0.02363
2602.39611	0.02318
2601.11034	0.02287
2599.82457	0.02278
2598.53880	0.02284
2597.25303	0.02287
2595.96726	0.02275
2594.68149	0.02255
2593.39572	0.02238
2592.10995	0.02232
2590.82419	0.02238
2589.53842	0.02251
2588.25265	0.02259
2586.96688	0.02250
2585.68111	0.02222
2584.39534	0.02183
2583.10957	0.02144
2581.82380	0.02114
2580.53804	0.02103
2579.25227	0.02121
2577.96650	0.02163
2576.68073	0.02209
2575.39496	0.02232
2574.10919	0.02216
2572.82342	0.02169
2571.53765	0.02119
2570.25188	0.02089
2568.96612	0.02079
2567.68035	0.02076
2566.39458	0.02066
2565.10881	0.02054
2563.82304	0.02061
2562.53727	0.02095
2561.25150	0.02133
2559.96573	0.02140
2558.67997	0.02111
2557.39420	0.02076
2556.10843	0.02066
2554.82266	0.02077
2553.53689	0.02083
2552.25112	0.02063
2550.96535	0.02029
2549.67958	0.02013
2548.39381	0.02039
2547.10805	0.02089
2545.82228	0.02127
2544.53651	0.02132
2543.25074	0.02121
2541.96497	0.02124
2540.67920	0.02150
2539.39343	0.02180
2538.10766	0.02188
2536.82190	0.02160
2535.53613	0.02103
2534.25036	0.02038
2532.96459	0.01996
2531.67882	0.01986
2530.39305	0.01994
2529.10728	0.01992
2527.82151	0.01972
2526.53574	0.01956
2525.24998	0.01975
2523.96421	0.02026
2522.67844	0.02066
2521.39267	0.02054
2520.10690	0.01995
2518.82113	0.01938
2517.53536	0.01929
2516.24959	0.01972
2514.96383	0.02038
2513.67806	0.02096
2512.39229	0.02124
2511.10652	0.02112
2509.82075	0.02066
2508.53498	0.02008
2507.24921	0.01965
2505.96344	0.01950
2504.67767	0.01955
2503.39191	0.01965
2502.10614	0.01970
2500.82037	0.01964
2499.53460	0.01951
2498.24883	0.01937
2496.96306	0.01918
2495.67729	0.01894
2494.39152	0.01879
2493.10576	0.01886
2491.81999	0.01912
2490.53422	0.01938
2489.24845	0.01948
2487.96268	0.01948
2486.67691	0.01951
2485.39114	0.01960
2484.10537	0.01974
2482.81960	0.01985
2481.53384	0.01982
2480.24807	0.01953
2478.96230	0.01901
2477.67653	0.01852
2476.39076	0.01831
2475.10499	0.01840
2473.81922	0.01857
2472.53345	0.01862
2471.24769	0.01852
2469.96192	0.01843
2468.67615	0.01850
2467.39038	0.01873
2466.10461	0.01900
2464.81884	0.01915
2463.53307	0.01914
2462.24730	0.01912
2460.96153	0.01921
2459.67577	0.01938
2458.39000	0.01952
2457.10423	0.01954
2455.81846	0.01948
2454.53269	0.01947
2453.24692	0.01956
2451.96115	0.01965
2450.67538	0.01965
2449.38962	0.01966
2448.10385	0.01986
2446.81808	0.02016
2445.53231	0.02026
2444.24654	0.01999
2442.96077	0.01949
2441.67500	0.01901
2440.38923	0.01866
2439.10346	0.01842
2437.81770	0.01829
2436.53193	0.01831
2435.24616	0.01850
2433.96039	0.01878
2432.67462	0.01896
2431.38885	0.01894
2430.10308	0.01870
2428.81731	0.01835
2427.53155	0.01801
2426.24578	0.01776
2424.96001	0.01760
2423.67424	0.01753
2422.38847	0.01758
2421.10270	0.01780
2419.81693	0.01809
2418.53116	0.01827
2417.24539	0.01825
2415.95963	0.01808
2414.67386	0.01782
2413.38809	0.01752
2412.10232	0.01727
2410.81655	0.01723
2409.53078	0.01743
2408.24501	0.01775
2406.95924	0.01802
2405.67347	0.01810
2404.38771	0.01796
2403.10194	0.01768
2401.81617	0.01743
2400.53040	0.01737
2399.24463	0.01748
2397.95886	0.01772
2396.67309	0.01795
2395.38732	0.01810
2394.10156	0.01814
2392.81579	0.01810
2391.53002	0.01804
2390.24425	0.01801
2388.95848	0.01796
2387.67271	0.01783
2386.38694	0.01759
2385.10117	0.01732
2383.81540	0.01713
2382.52964	0.01706
2381.24387	0.01705
2379.95810	0.01721
2378.67233	0.01748
2377.38656	0.01778
2376.10079	0.01816
2374.81502	0.01846
2373.52925	0.01773
2372.24349	0.01742
2370.95772	0.01750
2369.67195	0.01760
2368.38618	0.01756
2367.10041	0.01737
2365.81464	0.01718
2364.52887	0.01717
2363.24310	0.01737
2361.95733	0.01765
2360.67157	0.01782
2359.38580	0.01781
2358.10003	0.01777
2356.81426	0.01791
2355.52849	0.01821
2354.24272	0.01850
2352.95695	0.01875
2351.67118	0.01875
2350.38542	0.01870
2349.09965	0.01854
2347.81388	0.01815
2346.52811	0.01788
2345.24234	0.01777
2343.95657	0.01783
2342.67080	0.01789
2341.38503	0.01765
2340.09926	0.01772
2338.81350	0.01749
2337.52773	0.01701
2336.24196	0.01709
2334.95619	0.01737
2333.67042	0.01760
2332.38465	0.01782
2331.09888	0.01789
2329.81311	0.01777
2328.52735	0.01769
2327.24158	0.01825
2325.95581	0.01903
2324.67004	0.01952
2323.38427	0.01960
2322.09850	0.01958
2320.81273	0.01927
2319.52696	0.01896
2318.24119	0.01883
2316.95543	0.01883
2315.66966	0.01892
2314.38389	0.01893
2313.09812	0.01873
2311.81235	0.01863
2310.52658	0.01849
2309.24081	0.01816
2307.95504	0.01786
2306.66928	0.01762
2305.38351	0.01748
2304.09774	0.01753
2302.81197	0.01770
2301.52620	0.01786
2300.24043	0.01788
2298.95466	0.01773
2297.66889	0.01748
2296.38312	0.01728
2295.09736	0.01736
2293.81159	0.01772
2292.52582	0.01809
2291.24005	0.01828
2289.95428	0.01821
2288.66851	0.01799
2287.38274	0.01771
2286.09697	0.01738
2284.81121	0.01710
2283.52544	0.01692
2282.23967	0.01677
2280.95390	0.01650
2279.66813	0.01605
2278.38236	0.01551
2277.09659	0.01506
2275.81082	0.01482
2274.52505	0.01489
2273.23929	0.01527
2271.95352	0.01578
2270.66775	0.01614
2269.38198	0.01608
2268.09621	0.01558
2266.81044	0.01483
2265.52467	0.01403
2264.23890	0.01338
2262.95314	0.01315
2261.66737	0.01351
2260.38160	0.01436
2259.09583	0.01520
2257.81006	0.01556
2256.52429	0.01533
2255.23852	0.01481
2253.95275	0.01439
2252.66698	0.01418
2251.38122	0.01401
2250.09545	0.01372
2248.80968	0.01335
2247.52391	0.01292
2246.23814	0.01283
2244.95237	0.01304
2243.66660	0.01331
2242.38083	0.01342
2241.09507	0.01330
2239.80930	0.01307
2238.52353	0.01289
2237.23776	0.01283
2235.95199	0.01278
2234.66622	0.01259
2233.38045	0.01224
2232.09468	0.01185
2230.80891	0.01162
2229.52315	0.01167
2228.23738	0.01198
2226.95161	0.01229
2225.66584	0.01219
2224.38007	0.01150
2223.09430	0.01053
2221.80853	0.00988
2220.52276	0.00993
2219.23700	0.01054
2217.95123	0.01125
2216.66546	0.01163
2215.37969	0.01161
2214.09392	0.01137
2212.80815	0.01113
2211.52238	0.01083
2210.23661	0.01022
2208.95084	0.00939
2207.66508	0.00887
2206.37931	0.00909
2205.09354	0.00971
2203.80777	0.00995
2202.52200	0.00939
2201.23623	0.00847
2199.95046	0.00793
2198.66469	0.00815
2197.37893	0.00895
2196.09316	0.00989
2194.80739	0.01068
2193.52162	0.01127
2192.23585	0.01161
2190.95008	0.01148
2189.66431	0.01073
2188.37854	0.00968
2187.09277	0.00897
2185.80701	0.00880
2184.52124	0.00876
2183.23547	0.00840
2181.94970	0.00791
2180.66393	0.00784
2179.37816	0.00831
2178.09239	0.00877
2176.80662	0.00872
2175.52085	0.00835
2174.23509	0.00825
2172.94932	0.00861
2171.66355	0.00911
2170.37778	0.00938
2169.09201	0.00933
2167.80624	0.00905
2166.52047	0.00862
2165.23470	0.00823
2163.94894	0.00800
2162.66317	0.00758
2161.37740	0.00618
2160.09163	0.00346
2158.80586	0.00043
2157.52009	-0.00102
2156.23432	-0.00002
2154.94855	0.00244
2153.66278	0.00467
2152.37702	0.00572
2151.09125	0.00579
2149.80548	0.00557
2148.51971	0.00558
2147.23394	0.00598
2145.94817	0.00655
2144.66240	0.00691
2143.37663	0.00692
2142.09087	0.00676
2140.80510	0.00668
2139.51933	0.00672
2138.23356	0.00664
2136.94779	0.00634
2135.66202	0.00596
2134.37625	0.00587
2133.09048	0.00618
2131.80471	0.00657
2130.51895	0.00666
2129.23318	0.00647
2127.94741	0.00637
2126.66164	0.00662
2125.37587	0.00720
2124.09010	0.00779
2122.80433	0.00809
2121.51856	0.00798
2120.23280	0.00769
2118.94703	0.00759
2117.66126	0.00793
2116.37549	0.00863
2115.08972	0.00938
2113.80395	0.00986
2112.51818	0.01000
2111.23241	0.01005
2109.94664	0.01022
2108.66088	0.01038
2107.37511	0.01014
2106.08934	0.00949
2104.80357	0.00881
2103.51780	0.00840
2102.23203	0.00813
2100.94626	0.00779
2099.66049	0.00812
2098.37473	0.00807
2097.08896	0.00775
2095.80319	0.00748
2094.51742	0.00737
2093.23165	0.00744
2091.94588	0.00760
2090.66011	0.00773
2089.37434	0.00770
2088.08857	0.00748
2086.80281	0.00707
2085.51704	0.00656
2084.23127	0.00619
2082.94550	0.00631
2081.65973	0.00710
2080.37396	0.00832
2079.08819	0.00946
2077.80242	0.01004
2076.51666	0.00993
2075.23089	0.00931
2073.94512	0.00850
2072.65935	0.00780
2071.37358	0.00738
2070.08781	0.00730
2068.80204	0.00749
2067.51627	0.00775
2066.23050	0.00782
2064.94474	0.00756
2063.65897	0.00707
2062.37320	0.00659
2061.08743	0.00627
2059.80166	0.00618
2058.51589	0.00625
2057.23012	0.00632
2055.94435	0.00629
2054.65859	0.00622
2053.37282	0.00630
2052.08705	0.00662
2050.80128	0.00702
2049.51551	0.00723
2048.22974	0.00703
2046.94397	0.00628
2045.65820	0.00510
2044.37243	0.00384
2043.08667	0.00296
2041.80090	0.00267
2040.51513	0.00276
2039.22936	0.00297
2037.94359	0.00320
2036.65782	0.00351
2035.37205	0.00390
2034.08628	0.00427
2032.80052	0.00464
2031.51475	0.00505
2030.22898	0.00541
2028.94321	0.00549
2027.65744	0.00512
2026.37167	0.00448
2025.08590	0.00387
2023.80013	0.00346
2022.51436	0.00319
2021.22860	0.00307
2019.94283	0.00331
2018.65706	0.00406
2017.37129	0.00506
2016.08552	0.00565
2014.79975	0.00538
2013.51398	0.00453
2012.22821	0.00385
2010.94245	0.00381
2009.65668	0.00424
2008.37091	0.00462
2007.08514	0.00468
2005.79937	0.00463
2004.51360	0.00481
2003.22783	0.00527
2001.94206	0.00567
2000.65629	0.00569
1999.37053	0.00534
1998.08476	0.00491
1996.79899	0.00465
1995.51322	0.00465
1994.22745	0.00499
1992.94168	0.00571
1991.65591	0.00669
1990.37014	0.00757
1989.08438	0.00797
1987.79861	0.00776
1986.51284	0.00722
1985.22707	0.00685
1983.94130	0.00702
1982.65553	0.00782
1981.36976	0.00904
1980.08399	0.01016
1978.79822	0.01050
1977.51246	0.00961
1976.22669	0.00784
1974.94092	0.00620
1973.65515	0.00560
1972.36938	0.00610
1971.08361	0.00701
1969.79784	0.00756
1968.51207	0.00751
1967.22631	0.00717
1965.94054	0.00693
1964.65477	0.00692
1963.36900	0.00691
1962.08323	0.00672
1960.79746	0.00635
1959.51169	0.00597
1958.22592	0.00563
1956.94015	0.00539
1955.65439	0.00550
1954.36862	0.00628
1953.08285	0.00759
1951.79708	0.00879
1950.51131	0.00924
1949.22554	0.00891
1947.93977	0.00833
1946.65400	0.00808
1945.36823	0.00837
1944.08247	0.00903
1942.79670	0.00976
1941.51093	0.01032
1940.22516	0.01050
1938.93939	0.01016
1937.65362	0.00930
1936.36785	0.00823
1935.08208	0.00746
1933.79632	0.00738
1932.51055	0.00793
1931.22478	0.00869
1929.93901	0.00920
1928.65324	0.00930
1927.36747	0.00912
1926.08170	0.00889
1924.79593	0.00876
1923.51016	0.00877
1922.22440	0.00894
1920.93863	0.00924
1919.65286	0.00960
1918.36709	0.00984
1917.08132	0.00983
1915.79555	0.00963
1914.50978	0.00938
1913.22401	0.00928
1911.93825	0.00933
1910.65248	0.00944
1909.36671	0.00950
1908.08094	0.00950
1906.79517	0.00953
1905.50940	0.00967
1904.22363	0.00987
1902.93786	0.01003
1901.65209	0.01010
1900.36633	0.01012
1899.08056	0.01011
1897.79479	0.01007
1896.50902	0.01003
1895.22325	0.01004
1893.93748	0.01012
1892.65171	0.01017
1891.36594	0.01011
1890.08018	0.00999
1888.79441	0.00991
1887.50864	0.00993
1886.22287	0.01007
1884.93710	0.01026
1883.65133	0.01044
1882.36556	0.01053
1881.07979	0.01055
1879.79402	0.01052
1878.50826	0.01046
1877.22249	0.01039
1875.93672	0.01029
1874.65095	0.01016
1873.36518	0.01004
1872.07941	0.00998
1870.79364	0.00998
1869.50787	0.01000
1868.22211	0.01001
1866.93634	0.01005
1865.65057	0.01013
1864.36480	0.01023
1863.07903	0.01028
1861.79326	0.01024
1860.50749	0.01015
1859.22172	0.01009
1857.93595	0.01011
1856.65019	0.01017
1855.36442	0.01019
1854.07865	0.01020
1852.79288	0.01026
1851.50711	0.01038
1850.22134	0.01055
1848.93557	0.01074
1847.64980	0.01087
1846.36404	0.01088
1845.07827	0.01076
1843.79250	0.01057
1842.50673	0.01045
1841.22096	0.01043
1839.93519	0.01045
1838.64942	0.01040
1837.36365	0.01024
1836.07788	0.01002
1834.79212	0.00987
1833.50635	0.00987
1832.22058	0.01001
1830.93481	0.01021
1829.64904	0.01041
1828.36327	0.01060
1827.07750	0.01077
1825.79173	0.01090
1824.50597	0.01099
1823.22020	0.01100
1821.93443	0.01093
1820.64866	0.01079
1819.36289	0.01057
1818.07712	0.01031
1816.79135	0.01009
1815.50558	0.01001
1814.21981	0.01011
1812.93405	0.01035
1811.64828	0.01063
1810.36251	0.01082
1809.07674	0.01087
1807.79097	0.01082
1806.50520	0.01070
1805.21943	0.01057
1803.93366	0.01051
1802.64790	0.01052
1801.36213	0.01058
1800.07636	0.01070
1798.79059	0.01087
1797.50482	0.01110
1796.21905	0.01131
1794.93328	0.01140
1793.64751	0.01134
1792.36174	0.01122
1791.07598	0.01113
1789.79021	0.01111
1788.50444	0.01116
1787.21867	0.01128
1785.93290	0.01144
1784.64713	0.01157
1783.36136	0.01165
1782.07559	0.01169
1780.78983	0.01170
1779.50406	0.01171
1778.21829	0.01169
1776.93252	0.01162
1775.64675	0.01150
1774.36098	0.01138
1773.07521	0.01135
1771.78944	0.01145
1770.50367	0.01160
1769.21791	0.01173
1767.93214	0.01181
1766.64637	0.01188
1765.36060	0.01196
1764.07483	0.01205
1762.78906	0.01213
1761.50329	0.01218
1760.21752	0.01220
1758.93176	0.01219
1757.64599	0.01215
1756.36022	0.01209
1755.07445	0.01205
1753.78868	0.01206
1752.50291	0.01212
1751.21714	0.01223
1749.93137	0.01233
1748.64560	0.01242
1747.35984	0.01248
1746.07407	0.01257
1744.78830	0.01271
1743.50253	0.01290
1742.21676	0.01310
1740.93099	0.01324
1739.64522	0.01327
1738.35945	0.01320
1737.07369	0.01311
1735.78792	0.01307
1734.50215	0.01310
1733.21638	0.01320
1731.93061	0.01332
1730.64484	0.01345
1729.35907	0.01357
1728.07330	0.01369
1726.78753	0.01378
1725.50177	0.01388
1724.21600	0.01401
1722.93023	0.01422
1721.64446	0.01447
1720.35869	0.01473
1719.07292	0.01495
1717.78715	0.01515
1716.50138	0.01535
1715.21561	0.01553
1713.92985	0.01572
1712.64408	0.01592
1711.35831	0.01615
1710.07254	0.01640
1708.78677	0.01668
1707.50100	0.01696
1706.21523	0.01721
1704.92946	0.01744
1703.64370	0.01766
1702.35793	0.01788
1701.07216	0.01811
1699.78639	0.01835
1698.50062	0.01860
1697.21485	0.01886
1695.92908	0.01912
1694.64331	0.01937
1693.35754	0.01967
1692.07178	0.02001
1690.78601	0.02038
1689.50024	0.02072
1688.21447	0.02102
1686.92870	0.02130
1685.64293	0.02157
1684.35716	0.02184
1683.07139	0.02212
1681.78563	0.02240
1680.49986	0.02268
1679.21409	0.02296
1677.92832	0.02325
1676.64255	0.02357
1675.35678	0.02391
1674.07101	0.02426
1672.78524	0.02461
1671.49947	0.02494
1670.21371	0.02523
1668.92794	0.02548
1667.64217	0.02573
1666.35640	0.02604
1665.07063	0.02643
1663.78486	0.02681
1662.49909	0.02715
1661.21332	0.02742
1659.92756	0.02762
1658.64179	0.02774
1657.35602	0.02781
1656.07025	0.02788
1654.78448	0.02804
1653.49871	0.02829
1652.21294	0.02858
1650.92717	0.02882
1649.64140	0.02898
1648.35564	0.02910
1647.06987	0.02920
1645.78410	0.02930
1644.49833	0.02938
1643.21256	0.02945
1641.92679	0.02950
1640.64102	0.02956
1639.35525	0.02964
1638.06949	0.02975
1636.78372	0.02986
1635.49795	0.02996
1634.21218	0.03003
1632.92641	0.03011
1631.64064	0.03021
1630.35487	0.03035
1629.06910	0.03048
1627.78333	0.03058
1626.49757	0.03063
1625.21180	0.03065
1623.92603	0.03067
1622.64026	0.03069
1621.35449	0.03075
1620.06872	0.03083
1618.78295	0.03092
1617.49718	0.03102
1616.21142	0.03114
1614.92565	0.03129
1613.63988	0.03147
1612.35411	0.03168
1611.06834	0.03190
1609.78257	0.03213
1608.49680	0.03232
1607.21103	0.03246
1605.92526	0.03256
1604.63950	0.03266
1603.35373	0.03281
1602.06796	0.03302
1600.78219	0.03324
1599.49642	0.03343
1598.21065	0.03359
1596.92488	0.03376
1595.63911	0.03396
1594.35335	0.03418
1593.06758	0.03438
1591.78181	0.03455
1590.49604	0.03468
1589.21027	0.03482
1587.92450	0.03498
1586.63873	0.03517
1585.35296	0.03537
1584.06719	0.03556
1582.78143	0.03571
1581.49566	0.03584
1580.20989	0.03599
1578.92412	0.03619
1577.63835	0.03643
1576.35258	0.03667
1575.06681	0.03690
1573.78104	0.03708
1572.49528	0.03724
1571.20951	0.03737
1569.92374	0.03752
1568.63797	0.03769
1567.35220	0.03790
1566.06643	0.03810
1564.78066	0.03828
1563.49489	0.03844
1562.20912	0.03859
1560.92336	0.03877
1559.63759	0.03895
1558.35182	0.03910
1557.06605	0.03921
1555.78028	0.03932
1554.49451	0.03945
1553.20874	0.03959
1551.92297	0.03974
1550.63721	0.03987
1549.35144	0.04000
1548.06567	0.04010
1546.77990	0.04011
1545.49413	0.04003
1544.20836	0.03987
1542.92259	0.03970
1541.63682	0.03954
1540.35105	0.03941
1539.06529	0.03931
1537.77952	0.03926
1536.49375	0.03925
1535.20798	0.03931
1533.92221	0.03942
1532.63644	0.03957
1531.35067	0.03977
1530.06490	0.04002
1528.77914	0.04032
1527.49337	0.04066
1526.20760	0.04102
1524.92183	0.04141
1523.63606	0.04188
1522.35029	0.04247
1521.06452	0.04317
1519.77875	0.04392
1518.49298	0.04468
1517.20722	0.04545
1515.92145	0.04627
1514.63568	0.04715
1513.34991	0.04808
1512.06414	0.04903
1510.77837	0.04998
1509.49260	0.05095
1508.20683	0.05197
1506.92107	0.05305
1505.63530	0.05415
1504.34953	0.05521
1503.06376	0.05618
1501.77799	0.05705
1500.49222	0.05784
1499.20645	0.05859
1497.92068	0.05932
1496.63491	0.06002
1495.34915	0.06068
1494.06338	0.06128
1492.77761	0.06183
1491.49184	0.06236
1490.20607	0.06293
1488.92030	0.06357
1487.63453	0.06428
1486.34876	0.06506
1485.06299	0.06590
1483.77723	0.06677
1482.49146	0.06768
1481.20569	0.06863
1479.91992	0.06959
1478.63415	0.07052
1477.34838	0.07137
1476.06261	0.07215
1474.77684	0.07289
1473.49108	0.07360
1472.20531	0.07426
1470.91954	0.07484
1469.63377	0.07532
1468.34800	0.07570
1467.06223	0.07599
1465.77646	0.07623
1464.49069	0.07646
1463.20492	0.07674
1461.91916	0.07710
1460.63339	0.07751
1459.34762	0.07793
1458.06185	0.07833
1456.77608	0.07873
1455.49031	0.07916
1454.20454	0.07959
1452.91877	0.07995
1451.63301	0.08021
1450.34724	0.08038
1449.06147	0.08046
1447.77570	0.08045
1446.48993	0.08035
1445.20416	0.08017
1443.91839	0.07996
1442.63262	0.07973
1441.34685	0.07952
1440.06109	0.07937
1438.77532	0.07931
1437.48955	0.07937
1436.20378	0.07956
1434.91801	0.07990
1433.63224	0.08041
1432.34647	0.08110
1431.06070	0.08196
1429.77494	0.08297
1428.48917	0.08409
1427.20340	0.08528
1425.91763	0.08649
1424.63186	0.08772
1423.34609	0.08894
1422.06032	0.09015
1420.77455	0.09128
1419.48878	0.09229
1418.20302	0.09315
1416.91725	0.09383
1415.63148	0.09434
1414.34571	0.09469
1413.05994	0.09486
1411.77417	0.09482
1410.48840	0.09454
1409.20263	0.09401
1407.91687	0.09328
1406.63110	0.09241
1405.34533	0.09146
1404.05956	0.09041
1402.77379	0.08922
1401.48802	0.08783
1400.20225	0.08623
1398.91648	0.08446
1397.63071	0.08256
1396.34495	0.08061
1395.05918	0.07864
1393.77341	0.07668
1392.48764	0.07472
1391.20187	0.07278
1389.91610	0.07087
1388.63033	0.06901
1387.34456	0.06717
1386.05880	0.06533
1384.77303	0.06345
1383.48726	0.06156
1382.20149	0.05970
1380.91572	0.05789
1379.62995	0.05610
1378.34418	0.05430
1377.05841	0.05248
1375.77264	0.05064
1374.48688	0.04885
1373.20111	0.04713
1371.91534	0.04548
1370.62957	0.04389
1369.34380	0.04235
1368.05803	0.04091
1366.77226	0.03959
1365.48649	0.03838
1364.20073	0.03723
1362.91496	0.03611
1361.62919	0.03502
1360.34342	0.03396
1359.05765	0.03294
1357.77188	0.03200
1356.48611	0.03117
1355.20034	0.03044
1353.91457	0.02979
1352.62881	0.02917
1351.34304	0.02856
1350.05727	0.02797
1348.77150	0.02738
1347.48573	0.02680
1346.19996	0.02624
1344.91419	0.02571
1343.62842	0.02524
1342.34266	0.02482
1341.05689	0.02445
1339.77112	0.02413
1338.48535	0.02385
1337.19958	0.02359
1335.91381	0.02333
1334.62804	0.02304
1333.34227	0.02274
1332.05650	0.02243
1330.77074	0.02213
1329.48497	0.02186
1328.19920	0.02160
1326.91343	0.02133
1325.62766	0.02105
1324.34189	0.02080
1323.05612	0.02063
1321.77035	0.02053
1320.48459	0.02044
1319.19882	0.02029
1317.91305	0.02011
1316.62728	0.01992
1315.34151	0.01976
1314.05574	0.01959
1312.76997	0.01939
1311.48420	0.01919
1310.19843	0.01903
1308.91267	0.01890
1307.62690	0.01875
1306.34113	0.01858
1305.05536	0.01838
1303.76959	0.01821
1302.48382	0.01809
1301.19805	0.01798
1299.91228	0.01786
1298.62652	0.01772
1297.34075	0.01758
1296.05498	0.01744
1294.76921	0.01734
1293.48344	0.01729
1292.19767	0.01727
1290.91190	0.01725
1289.62613	0.01717
1288.34036	0.01705
1287.05460	0.01691
1285.76883	0.01681
1284.48306	0.01675
1283.19729	0.01671
1281.91152	0.01664
1280.62575	0.01654
1279.33998	0.01643
1278.05421	0.01632
1276.76845	0.01621
1275.48268	0.01610
1274.19691	0.01597
1272.91114	0.01586
1271.62537	0.01579
1270.33960	0.01576
1269.05383	0.01573
1267.76806	0.01569
1266.48229	0.01563
1265.19653	0.01557
1263.91076	0.01552
1262.62499	0.01550
1261.33922	0.01549
1260.05345	0.01547
1258.76768	0.01542
1257.48191	0.01534
1256.19614	0.01525
1254.91037	0.01517
1253.62461	0.01511
1252.33884	0.01508
1251.05307	0.01506
1249.76730	0.01504
1248.48153	0.01501
1247.19576	0.01494
1245.90999	0.01483
1244.62422	0.01467
1243.33846	0.01450
1242.05269	0.01437
1240.76692	0.01429
1239.48115	0.01425
1238.19538	0.01424
1236.90961	0.01423
1235.62384	0.01422
1234.33807	0.01420
1233.05230	0.01417
1231.76654	0.01413
1230.48077	0.01410
1229.19500	0.01406
1227.90923	0.01404
1226.62346	0.01401
1225.33769	0.01397
1224.05192	0.01390
1222.76615	0.01381
1221.48039	0.01371
1220.19462	0.01363
1218.90885	0.01356
1217.62308	0.01349
1216.33731	0.01344
1215.05154	0.01342
1213.76577	0.01342
1212.48000	0.01341
1211.19423	0.01338
1209.90847	0.01336
1208.62270	0.01337
1207.33693	0.01344
1206.05116	0.01353
1204.76539	0.01360
1203.47962	0.01363
1202.19385	0.01363
1200.90808	0.01359
1199.62232	0.01347
1198.33655	0.01345
1197.05078	0.01344
1195.76501	0.01345
1194.47924	0.01351
1193.19347	0.01357
1191.90770	0.01358
1190.62193	0.01355
1189.33616	0.01351
1188.05040	0.01350
1186.76463	0.01352
1185.47886	0.01358
1184.19309	0.01367
1182.90732	0.01380
1181.62155	0.01396
1180.33578	0.01412
1179.05001	0.01426
1177.76425	0.01434
1176.47848	0.01439
1175.19271	0.01443
1173.90694	0.01450
1172.62117	0.01463
1171.33540	0.01479
1170.04963	0.01496
1168.76386	0.01514
1167.47809	0.01532
1166.19233	0.01552
1164.90656	0.01574
1163.62079	0.01597
1162.33502	0.01624
1161.04925	0.01652
1159.76348	0.01683
1158.47771	0.01716
1157.19194	0.01752
1155.90618	0.01790
1154.62041	0.01828
1153.33464	0.01867
1152.04887	0.01909
1150.76310	0.01956
1149.47733	0.02008
1148.19156	0.02065
1146.90579	0.02127
1145.62002	0.02198
1144.33426	0.02283
1143.04849	0.02377
1141.76272	0.02476
1140.47695	0.02576
1139.19118	0.02675
1137.90541	0.02778
1136.61964	0.02892
1135.33387	0.03023
1134.04811	0.03173
1132.76234	0.03342
1131.47657	0.03530
1130.19080	0.03739
1128.90503	0.03965
1127.61926	0.04202
1126.33349	0.04446
1125.04772	0.04703
1123.76195	0.04976
1122.47619	0.05263
1121.19042	0.05559
1119.90465	0.05858
1118.61888	0.06161
1117.33311	0.06467
1116.04734	0.06776
1114.76157	0.07086
1113.47580	0.07394
1112.19004	0.07700
1110.90427	0.08007
1109.61850	0.08312
1108.33273	0.08613
1107.04696	0.08907
1105.76119	0.09197
1104.47542	0.09483
1103.18965	0.09766
1101.90388	0.10038
1100.61812	0.10295
1099.33235	0.10534
1098.04658	0.10760
1096.76081	0.10981
1095.47504	0.11199
1094.18927	0.11415
1092.90350	0.11625
1091.61773	0.11827
1090.33197	0.12021
1089.04620	0.12208
1087.76043	0.12392
1086.47466	0.12575
1085.18889	0.12758
1083.90312	0.12942
1082.61735	0.13131
1081.33158	0.13331
1080.04581	0.13545
1078.76005	0.13775
1077.47428	0.14016
1076.18851	0.14266
1074.90274	0.14522
1073.61697	0.14786
1072.33120	0.15060
1071.04543	0.15344
1069.75966	0.15636
1068.47390	0.15937
1067.18813	0.16245
1065.90236	0.16559
1064.61659	0.16876
1063.33082	0.17193
1062.04505	0.17506
1060.75928	0.17814
1059.47351	0.18113
1058.18774	0.18408
1056.90198	0.18705
1055.61621	0.19008
1054.33044	0.19315
1053.04467	0.19625
1051.75890	0.19937
1050.47313	0.20250
1049.18736	0.20570
1047.90159	0.20896
1046.61583	0.21226
1045.33006	0.21552
1044.04429	0.21877
1042.75852	0.22204
1041.47275	0.22541
1040.18698	0.22888
1038.90121	0.23240
1037.61544	0.23590
1036.32967	0.23934
1035.04391	0.24267
1033.75814	0.24585
1032.47237	0.24881
1031.18660	0.25145
1029.90083	0.25372
1028.61506	0.25564
1027.32929	0.25729
1026.04352	0.25871
1024.75775	0.25988
1023.47199	0.26075
1022.18622	0.26126
1020.90045	0.26138
1019.61468	0.26107
1018.32891	0.26033
1017.04314	0.25913
1015.75737	0.25740
1014.47160	0.25514
1013.18584	0.25240
1011.90007	0.24928
1010.61430	0.24577
1009.32853	0.24183
1008.04276	0.23747
1006.75699	0.23277
1005.47122	0.22781
1004.18545	0.22261
1002.89968	0.21717
1001.61392	0.21144
1000.32815	0.20540
999.04238	0.19908
997.75661	0.19256
996.47084	0.18596
995.18507	0.17938
993.89930	0.17289
992.61353	0.16647
991.32777	0.16009
990.04200	0.15377
988.75623	0.14754
987.47046	0.14145
986.18469	0.13555
984.89892	0.12988
983.61315	0.12452
982.32738	0.11949
981.04161	0.11476
979.75585	0.11028
978.47008	0.10602
977.18431	0.10206
975.89854	0.09852
974.61277	0.09551
973.32700	0.09313
972.04123	0.09138
970.75546	0.09022
969.46970	0.08958
968.18393	0.08942
966.89816	0.08970
965.61239	0.09033
964.32662	0.09115
963.04085	0.09195
961.75508	0.09248
960.46931	0.09251
959.18354	0.09189
957.89778	0.09059
956.61201	0.08870
955.32624	0.08641
954.04047	0.08389
952.75470	0.08129
951.46893	0.07871
950.18316	0.07621
948.89739	0.07380
947.61163	0.07145
946.32586	0.06914
945.04009	0.06695
943.75432	0.06494
942.46855	0.06307
941.18278	0.06123
939.89701	0.05938
938.61124	0.05755
937.32547	0.05584
936.03971	0.05429
934.75394	0.05294
933.46817	0.05176
932.18240	0.05070
930.89663	0.04967
929.61086	0.04861
928.32509	0.04752
927.03932	0.04648
925.75356	0.04554
924.46779	0.04472
923.18202	0.04400
921.89625	0.04332
920.61048	0.04269
919.32471	0.04212
918.03894	0.04160
916.75317	0.04110
915.46740	0.04058
914.18164	0.04007
912.89587	0.03965
911.61010	0.03930
910.32433	0.03893
909.03856	0.03849
907.75279	0.03800
906.46702	0.03754
905.18125	0.03714
903.89549	0.03684
902.60972	0.03665
901.32395	0.03651
900.03818	0.03634
898.75241	0.03612
897.46664	0.03591
896.18087	0.03577
894.89510	0.03570
893.60933	0.03566
892.32357	0.03563
891.03780	0.03565
889.75203	0.03578
888.46626	0.03611
887.18049	0.03674
885.89472	0.03779
884.60895	0.03945
883.32318	0.04180
882.03742	0.04466
880.75165	0.04759
879.46588	0.05008
878.18011	0.05189
876.89434	0.05320
875.60857	0.05439
874.32280	0.05563
873.03703	0.05678
871.75126	0.05746
870.46550	0.05738
869.17973	0.05647
867.89396	0.05491
866.60819	0.05294
865.32242	0.05076
864.03665	0.04850
862.75088	0.04632
861.46511	0.04439
860.17935	0.04280
858.89358	0.04147
857.60781	0.04030
856.32204	0.03918
855.03627	0.03812
853.75050	0.03718
852.46473	0.03641
851.17896	0.03581
849.89319	0.03533
848.60743	0.03490
847.32166	0.03446
846.03589	0.03401
844.75012	0.03361
843.46435	0.03334
842.17858	0.03318
840.89281	0.03305
839.60704	0.03286
838.32128	0.03258
837.03551	0.03223
835.74974	0.03188
834.46397	0.03164
833.17820	0.03155
831.89243	0.03160
830.60666	0.03168
829.32089	0.03169
828.03512	0.03160
826.74936	0.03142
825.46359	0.03121
824.17782	0.03105
822.89205	0.03097
821.60628	0.03095
820.32051	0.03093
819.03474	0.03085
817.74897	0.03072
816.46321	0.03062
815.17744	0.03063
813.89167	0.03070
812.60590	0.03075
811.32013	0.03070
810.03436	0.03057
808.74859	0.03040
807.46282	0.03026
806.17705	0.03020
804.89129	0.03023
803.60552	0.03029
802.31975	0.03032
801.03398	0.03027
799.74821	0.03016
798.46244	0.03006
797.17667	0.03000
795.89090	0.02993
794.60513	0.02983
793.31937	0.02969
792.03360	0.02958
790.74783	0.02959
789.46206	0.02968
788.17629	0.02980
786.89052	0.02986
785.60475	0.02984
784.31898	0.02970
783.03322	0.02949
781.74745	0.02927
780.46168	0.02914
779.17591	0.02916
777.89014	0.02930
776.60437	0.02946
775.31860	0.02955
774.03283	0.02955
772.74706	0.02951
771.46130	0.02948
770.17553	0.02947
768.88976	0.02949
767.60399	0.02948
766.31822	0.02948
765.03245	0.02952
763.74668	0.02963
762.46091	0.02976
761.17515	0.02988
759.88938	0.02998
758.60361	0.03007
757.31784	0.03012
756.03207	0.03009
754.74630	0.03000
753.46053	0.02992
752.17476	0.02991
750.88899	0.02997
749.60323	0.03003
748.31746	0.03004
747.03169	0.02998
745.74592	0.02987
744.46015	0.02976
743.17438	0.02961
741.88861	0.02943
740.60284	0.02926
739.31708	0.02919
738.03131	0.02928
736.74554	0.02948
735.45977	0.02969
734.17400	0.02978
732.88823	0.02967
731.60246	0.02944
730.31669	0.02927
729.03092	0.02926
727.74516	0.02937
726.45939	0.02947
725.17362	0.02949
723.88785	0.02943
722.60208	0.02945
721.31631	0.02954
720.03054	0.02964
718.74477	0.02969
717.45901	0.02968
716.17324	0.02961
714.88747	0.02950
713.60170	0.02938
712.31593	0.02931
711.03016	0.02932
709.74439	0.02938
708.45862	0.02941
707.17285	0.02938
705.88709	0.02929
704.60132	0.02920
703.31555	0.02918
702.02978	0.02923
700.74401	0.02932
699.45824	0.02940
698.17247	0.02946
696.88670	0.02952
695.60094	0.02954
694.31517	0.02954
693.02940	0.02950
691.74363	0.02946
690.45786	0.02944
689.17209	0.02939
687.88632	0.02935
686.60055	0.02930
685.31478	0.02920
684.02902	0.02907
682.74325	0.02889
681.45748	0.02875
680.17171	0.02868
678.88594	0.02865
677.60017	0.02865
676.31440	0.02866
675.02863	0.02873
673.74287	0.02886
672.45710	0.02900
671.17133	0.02915
669.88556	0.02928
668.59979	0.02937
667.31402	0.02940
666.02825	0.02937
664.74248	0.02924
663.45671	0.02898
662.17095	0.02869
660.88518	0.02846
659.59941	0.02832
658.31364	0.02826
657.02787	0.02827
655.74210	0.02831
654.45633	0.02834
653.17056	0.02834
651.88480	0.02832
650.59903	0.02831
649.31326	0.02832
648.02749	0.02835
646.74172	0.02836
645.45595	0.02834
644.17018	0.02834
642.88441	0.02842
641.59864	0.02859
640.31288	0.02888
639.02711	0.02921
637.74134	0.02954
636.45557	0.02988
635.16980	0.03023
633.88403	0.03057
632.59826	0.03087
631.31249	0.03130
630.02673	0.03239
628.74096	0.03397
627.45519	0.03421
626.16942	0.03608
624.88365	0.03897
623.59788	0.04194
622.31211	0.04510
621.02634	0.04871
619.74057	0.05243
618.45481	0.05554
617.16904	0.05749
615.88327	0.05817
614.59750	0.05826
613.31173	0.05932
612.02596	0.06308
610.74019	0.06979
609.45442	0.07758
608.16866	0.08411
606.88289	0.08868
605.59712	0.09203
604.31135	0.09463
603.02558	0.09616
601.73981	0.09620
600.45404	0.09491
599.16827	0.09288
597.88250	0.09058
596.59674	0.08814
595.31097	0.08567
594.02520	0.08339
592.73943	0.08160
591.45366	0.08049
590.16789	0.08001
588.88212	0.08001
587.59635	0.08043
586.31059	0.08132
585.02482	0.08272
583.73905	0.08456
582.45328	0.08675
581.16751	0.08920
579.88174	0.09184
578.59597	0.09461
577.31020	0.09741
576.02443	0.10009
574.73867	0.10257
573.45290	0.10490
572.16713	0.10731
570.88136	0.11004
569.59559	0.11318
568.30982	0.11661
567.02405	0.12006
565.73828	0.12327
564.45251	0.12598
563.16675	0.12790
561.88098	0.12873
560.59521	0.12816
559.30944	0.12600
558.02367	0.12231
556.73790	0.11746
555.45213	0.11192
554.16636	0.10609
552.88060	0.10028
551.59483	0.09476
550.30906	0.08968
549.02329	0.08508
547.73752	0.08082
546.45175	0.07680
545.16598	0.07301
543.88021	0.06957
542.59444	0.06652
541.30868	0.06381
540.02291	0.06131
538.73714	0.05894
537.45137	0.05671
536.16560	0.05470
534.87983	0.05292
533.59406	0.05136
532.30829	0.04992
531.02253	0.04852
529.73676	0.04710
528.45099	0.04567
527.16522	0.04432
525.87945	0.04313
524.59368	0.04212
523.30791	0.04123
522.02214	0.04037
520.73637	0.03949
519.45061	0.03861
518.16484	0.03777
516.87907	0.03698
515.59330	0.03625
514.30753	0.03553
513.02176	0.03481
511.73599	0.03409
510.45022	0.03343
509.16446	0.03285
507.87869	0.03232
506.59292	0.03179
505.30715	0.03121
504.02138	0.03066
502.73561	0.03023
501.44984	0.02993
500.16407	0.02970
498.87830	0.02944
497.59254	0.02908
496.30677	0.02865
495.02100	0.02825
493.73523	0.02794
492.44946	0.02775
491.16369	0.02766
489.87792	0.02759
488.59215	0.02748
487.30639	0.02730
486.02062	0.02708
484.73485	0.02691
483.44908	0.02684
482.16331	0.02689
480.87754	0.02704
479.59177	0.02720
478.30600	0.02737
477.02023	0.02755
475.73447	0.02775
474.44870	0.02794
473.16293	0.02808
471.87716	0.02816
470.59139	0.02819
469.30562	0.02817
468.01985	0.02806
466.73408	0.02789
465.44832	0.02771
464.16255	0.02752
462.87678	0.02730
461.59101	0.02704
460.30524	0.02673
459.01947	0.02640
457.73370	0.02603
456.44793	0.02563
455.16216	0.02527
453.87640	0.02499
452.59063	0.02480
451.30486	0.02462
450.01909	0.02445
448.73332	0.02432
447.44755	0.02426
446.16178	0.02422
444.87601	0.02410
443.59025	0.02384
442.30448	0.02351
441.01871	0.02325
439.73294	0.02311
438.44717	0.02313
437.16140	0.02325
435.87563	0.02338
434.58986	0.02342
433.30409	0.02333
432.01833	0.02319
430.73256	0.02309
429.44679	0.02308
428.16102	0.02309
426.87525	0.02307
425.58948	0.02297
424.30371	0.02281
423.01794	0.02261
421.73218	0.02244
420.44641	0.02230
419.16064	0.02223
417.87487	0.02223
416.58910	0.02226
415.30333	0.02228
414.01756	0.02226
412.73179	0.02220
411.44602	0.02214
410.16026	0.02213
408.87449	0.02217
407.58872	0.02227
406.30295	0.02239
405.01718	0.02251
403.73141	0.02263
402.44564	0.02273
401.15987	0.02284
399.87411	0.02295
