3997.45528	0.07313
3996.16951	0.07278
3994.88374	0.07314
3993.59798	0.07397
3992.31221	0.07460
3991.02644	0.07477
3989.74067	0.07459
3988.45490	0.07423
3987.16913	0.07383
3985.88336	0.07355
3984.59759	0.07358
3983.31183	0.07391
3982.02606	0.07432
3980.74029	0.07449
3979.45452	0.07423
3978.16875	0.07355
3976.88298	0.07266
3975.59721	0.07197
3974.31144	0.07187
3973.02567	0.07241
3971.73991	0.07321
3970.45414	0.07376
3969.16837	0.07380
3967.88260	0.07340
3966.59683	0.07284
3965.31106	0.07240
3964.02529	0.07225
3962.73952	0.07234
3961.45376	0.07245
3960.16799	0.07247
3958.88222	0.07252
3957.59645	0.07269
3956.31068	0.07283
3955.02491	0.07270
3953.73914	0.07233
3952.45337	0.07202
3951.16760	0.07197
3949.88184	0.07209
3948.59607	0.07216
3947.31030	0.07210
3946.02453	0.07192
3944.73876	0.07165
3943.45299	0.07145
3942.16722	0.07155
3940.88145	0.07208
3939.59569	0.07281
3938.30992	0.07328
3937.02415	0.07321
3935.73838	0.07271
3934.45261	0.07211
3933.16684	0.07166
3931.88107	0.07134
3930.59530	0.07109
3929.30953	0.07090
3928.02377	0.07086
3926.73800	0.07090
3925.45223	0.07094
3924.16646	0.07095
3922.88069	0.07102
3921.59492	0.07123
3920.30915	0.07156
3919.02338	0.07193
3917.73762	0.07224
3916.45185	0.07237
3915.16608	0.07225
3913.88031	0.07192
3912.59454	0.07162
3911.30877	0.07169
3910.02300	0.07225
3908.73723	0.07298
3907.45146	0.07336
3906.16570	0.07319
3904.87993	0.07286
3903.59416	0.07286
3902.30839	0.07321
3901.02262	0.07349
3899.73685	0.07344
3898.45108	0.07321
3897.16531	0.07306
3895.87955	0.07311
3894.59378	0.07324
3893.30801	0.07331
3892.02224	0.07315
3890.73647	0.07271
3889.45070	0.07209
3888.16493	0.07147
3886.87916	0.07091
3885.59339	0.07031
3884.30763	0.06966
3883.02186	0.06923
3881.73609	0.06936
3880.45032	0.07009
3879.16455	0.07102
3877.87878	0.07166
3876.59301	0.07181
3875.30724	0.07157
3874.02148	0.07117
3872.73571	0.07075
3871.44994	0.07042
3870.16417	0.07024
3868.87840	0.07020
3867.59263	0.07018
3866.30686	0.07013
3865.02109	0.07010
3863.73532	0.07016
3862.44956	0.07027
3861.16379	0.07030
3859.87802	0.07019
3858.59225	0.06994
3857.30648	0.06963
3856.02071	0.06928
3854.73494	0.06890
3853.44917	0.06841
3852.16341	0.06783
3850.87764	0.06734
3849.59187	0.06721
3848.30610	0.06750
3847.02033	0.06804
3845.73456	0.06861
3844.44879	0.06911
3843.16302	0.06946
3841.87725	0.06953
3840.59149	0.06930
3839.30572	0.06900
3838.01995	0.06884
3836.73418	0.06884
3835.44841	0.06880
3834.16264	0.06849
3832.87687	0.06788
3831.59110	0.06715
3830.30534	0.06659
3829.01957	0.06645
3827.73380	0.06675
3826.44803	0.06732
3825.16226	0.06796
3823.87649	0.06849
3822.59072	0.06881
3821.30495	0.06884
3820.01918	0.06861
3818.73342	0.06832
3817.44765	0.06820
3816.16188	0.06835
3814.87611	0.06861
3813.59034	0.06881
3812.30457	0.06887
3811.01880	0.06879
3809.73303	0.06851
3808.44726	0.06801
3807.16150	0.06750
3805.87573	0.06737
3804.58996	0.06782
3803.30419	0.06858
3802.01842	0.06909
3800.73265	0.06904
3799.44688	0.06858
3798.16111	0.06814
3796.87535	0.06799
3795.58958	0.06805
3794.30381	0.06799
3793.01804	0.06755
3791.73227	0.06669
3790.44650	0.06573
3789.16073	0.06511
3787.87496	0.06502
3786.58919	0.06534
3785.30343	0.06576
3784.01766	0.06606
3782.73189	0.06622
3781.44612	0.06628
3780.16035	0.06620
3778.87458	0.06591
3777.58881	0.06554
3776.30304	0.06544
3775.01728	0.06587
3773.73151	0.06681
3772.44574	0.06791
3771.15997	0.06864
3769.87420	0.06861
3768.58843	0.06771
3767.30266	0.06632
3766.01689	0.06514
3764.73112	0.06471
3763.44536	0.06505
3762.15959	0.06573
3760.87382	0.06633
3759.58805	0.06662
3758.30228	0.06649
3757.01651	0.06585
3755.73074	0.06473
3754.44497	0.06349
3753.15921	0.06262
3751.87344	0.06239
3750.58767	0.06266
3749.30190	0.06303
3748.01613	0.06326
3746.73036	0.06336
3745.44459	0.06352
3744.15882	0.06392
3742.87305	0.06461
3741.58729	0.06549
3740.30152	0.06634
3739.01575	0.06678
3737.72998	0.06651
3736.44421	0.06552
3735.15844	0.06423
3733.87267	0.06319
3732.58690	0.06269
3731.30114	0.06263
3730.01537	0.06265
3728.72960	0.06242
3727.44383	0.06199
3726.15806	0.06175
3724.87229	0.06200
3723.58652	0.06252
3722.30075	0.06277
3721.01498	0.06248
3719.72922	0.06189
3718.44345	0.06139
3717.15768	0.06116
3715.87191	0.06122
3714.58614	0.06162
3713.30037	0.06246
3712.01460	0.06364
3710.72883	0.06481
3709.44307	0.06552
3708.15730	0.06554
3706.87153	0.06493
3705.58576	0.06396
3704.29999	0.06290
3703.01422	0.06194
3701.72845	0.06126
3700.44268	0.06099
3699.15691	0.06117
3697.87115	0.06158
3696.58538	0.06191
3695.29961	0.06200
3694.01384	0.06190
3692.72807	0.06167
3691.44230	0.06131
3690.15653	0.06089
3688.87076	0.06057
3687.58500	0.06055
3686.29923	0.06083
3685.01346	0.06127
3683.72769	0.06167
3682.44192	0.06179
3681.15615	0.06149
3679.87038	0.06096
3678.58461	0.06067
3677.29884	0.06093
3676.01308	0.06154
3674.72731	0.06204
3673.44154	0.06216
3672.15577	0.06212
3670.87000	0.06229
3669.58423	0.06273
3668.29846	0.06323
3667.01269	0.06363
3665.72693	0.06401
3664.44116	0.06453
3663.15539	0.06511
3661.86962	0.06554
3660.58385	0.06581
3659.29808	0.06619
3658.01231	0.06684
3656.72654	0.06752
3655.44077	0.06767
3654.15501	0.06697
3652.86924	0.06573
3651.58347	0.06465
3650.29770	0.06424
3649.01193	0.06453
3647.72616	0.06521
3646.44039	0.06595
3645.15462	0.06658
3643.86886	0.06702
3642.58309	0.06725
3641.29732	0.06734
3640.01155	0.06743
3638.72578	0.06763
3637.44001	0.06797
3636.15424	0.06837
3634.86847	0.06873
3633.58270	0.06896
3632.29694	0.06892
3631.01117	0.06855
3629.72540	0.06807
3628.43963	0.06783
3627.15386	0.06800
3625.86809	0.06850
3624.58232	0.06918
3623.29655	0.06998
3622.01079	0.07083
3620.72502	0.07157
3619.43925	0.07208
3618.15348	0.07228
3616.86771	0.07224
3615.58194	0.07207
3614.29617	0.07194
3613.01040	0.07201
3611.72463	0.07228
3610.43887	0.07268
3609.15310	0.07317
3607.86733	0.07381
3606.58156	0.07453
3605.29579	0.07510
3604.01002	0.07527
3602.72425	0.07516
3601.43848	0.07516
3600.15272	0.07562
3598.86695	0.07650
3597.58118	0.07750
3596.29541	0.07823
3595.00964	0.07848
3593.72387	0.07834
3592.43810	0.07815
3591.15233	0.07818
3589.86656	0.07837
3588.58080	0.07852
3587.29503	0.07860
3586.00926	0.07881
3584.72349	0.07934
3583.43772	0.08024
3582.15195	0.08136
3580.86618	0.08234
3579.58041	0.08285
3578.29464	0.08285
3577.00888	0.08275
3575.72311	0.08289
3574.43734	0.08319
3573.15157	0.08336
3571.86580	0.08343
3570.58003	0.08382
3569.29426	0.08480
3568.00849	0.08603
3566.72273	0.08690
3565.43696	0.08716
3564.15119	0.08706
3562.86542	0.08682
3561.57965	0.08640
3560.29388	0.08571
3559.00811	0.08494
3557.72234	0.08441
3556.43657	0.08427
3555.15081	0.08436
3553.86504	0.08456
3552.57927	0.08501
3551.29350	0.08592
3550.00773	0.08723
3548.72196	0.08847
3547.43619	0.08926
3546.15042	0.08953
3544.86466	0.08953
3543.57889	0.08948
3542.29312	0.08944
3541.00735	0.08943
3539.72158	0.08951
3538.43581	0.08973
3537.15004	0.09007
3535.86427	0.09046
3534.57850	0.09082
3533.29274	0.09114
3532.00697	0.09144
3530.72120	0.09175
3529.43543	0.09206
3528.14966	0.09235
3526.86389	0.09261
3525.57812	0.09288
3524.29235	0.09326
3523.00659	0.09379
3521.72082	0.09436
3520.43505	0.09482
3519.14928	0.09506
3517.86351	0.09508
3516.57774	0.09495
3515.29197	0.09469
3514.00620	0.09439
3512.72043	0.09414
3511.43467	0.09406
3510.14890	0.09427
3508.86313	0.09481
3507.57736	0.09557
3506.29159	0.09630
3505.00582	0.09675
3503.72005	0.09688
3502.43428	0.09688
3501.14852	0.09697
3499.86275	0.09722
3498.57698	0.09752
3497.29121	0.09776
3496.00544	0.09798
3494.71967	0.09829
3493.43390	0.09865
3492.14813	0.09885
3490.86236	0.09872
3489.57660	0.09831
3488.29083	0.09792
3487.00506	0.09789
3485.71929	0.09838
3484.43352	0.09931
3483.14775	0.10052
3481.86198	0.10171
3480.57621	0.10247
3479.29045	0.10257
3478.00468	0.10218
3476.71891	0.10178
3475.43314	0.10171
3474.14737	0.10200
3472.86160	0.10247
3471.57583	0.10296
3470.29006	0.10341
3469.00429	0.10377
3467.71853	0.10395
3466.43276	0.10392
3465.14699	0.10382
3463.86122	0.10387
3462.57545	0.10419
3461.28968	0.10465
3460.00391	0.10513
3458.71814	0.10560
3457.43238	0.10604
3456.14661	0.10631
3454.86084	0.10623
3453.57507	0.10583
3452.28930	0.10536
3451.00353	0.10505
3449.71776	0.10500
3448.43199	0.10519
3447.14622	0.10562
3445.86046	0.10626
3444.57469	0.10703
3443.28892	0.10784
3442.00315	0.10855
3440.71738	0.10899
3439.43161	0.10902
3438.14584	0.10871
3436.86007	0.10832
3435.57431	0.10816
3434.28854	0.10833
3433.00277	0.10869
3431.71700	0.10893
3430.43123	0.10892
3429.14546	0.10880
3427.85969	0.10886
3426.57392	0.10917
3425.28815	0.10954
3424.00239	0.10982
3422.71662	0.11003
3421.43085	0.11028
3420.14508	0.11061
3418.85931	0.11100
3417.57354	0.11143
3416.28777	0.11189
3415.00200	0.11226
3413.71624	0.11238
3412.43047	0.11221
3411.14470	0.11187
3409.85893	0.11164
3408.57316	0.11169
3407.28739	0.11200
3406.00162	0.11235
3404.71585	0.11256
3403.43008	0.11255
3402.14432	0.11237
3400.85855	0.11218
3399.57278	0.11207
3398.28701	0.11200
3397.00124	0.11190
3395.71547	0.11189
3394.42970	0.11212
3393.14393	0.11253
3391.85817	0.11280
3390.57240	0.11277
3389.28663	0.11268
3388.00086	0.11288
3386.71509	0.11338
3385.42932	0.11383
3384.14355	0.11390
3382.85778	0.11366
3381.57201	0.11338
3380.28625	0.11328
3379.00048	0.11330
3377.71471	0.11327
3376.42894	0.11313
3375.14317	0.11297
3373.85740	0.11291
3372.57163	0.11293
3371.28586	0.11304
3370.00010	0.11328
3368.71433	0.11362
3367.42856	0.11397
3366.14279	0.11430
3364.85702	0.11462
3363.57125	0.11492
3362.28548	0.11510
3360.99971	0.11508
3359.71394	0.11486
3358.42818	0.11448
3357.14241	0.11406
3355.85664	0.11378
3354.57087	0.11382
3353.28510	0.11414
3351.99933	0.11452
3350.71356	0.11477
3349.42779	0.11488
3348.14202	0.11491
3346.85626	0.11483
3345.57049	0.11461
3344.28472	0.11430
3342.99895	0.11407
3341.71318	0.11394
3340.42741	0.11376
3339.14164	0.11339
3337.85587	0.11301
3336.57011	0.11297
3335.28434	0.11340
3333.99857	0.11408
3332.71280	0.11470
3331.42703	0.11507
3330.14126	0.11518
3328.85549	0.11514
3327.56972	0.11502
3326.28395	0.11482
3324.99819	0.11445
3323.71242	0.11392
3322.42665	0.11343
3321.14088	0.11313
3319.85511	0.11293
3318.56934	0.11273
3317.28357	0.11259
3315.99780	0.11271
3314.71204	0.11307
3313.42627	0.11345
3312.14050	0.11361
3310.85473	0.11360
3309.56896	0.11362
3308.28319	0.11370
3306.99742	0.11366
3305.71165	0.11340
3304.42588	0.11300
3303.14012	0.11263
3301.85435	0.11239
3300.56858	0.11225
3299.28281	0.11221
3297.99704	0.11227
3296.71127	0.11236
3295.42550	0.11239
3294.13973	0.11228
3292.85397	0.11206
3291.56820	0.11191
3290.28243	0.11203
3288.99666	0.11245
3287.71089	0.11288
3286.42512	0.11301
3285.13935	0.11278
3283.85358	0.11240
3282.56781	0.11210
3281.28205	0.11194
3279.99628	0.11176
3278.71051	0.11143
3277.42474	0.11096
3276.13897	0.11053
3274.85320	0.11037
3273.56743	0.11059
3272.28166	0.11112
3270.99590	0.11171
3269.71013	0.11210
3268.42436	0.11214
3267.13859	0.11188
3265.85282	0.11152
3264.56705	0.11124
3263.28128	0.11113
3261.99551	0.11109
3260.70974	0.11103
3259.42398	0.11096
3258.13821	0.11105
3256.85244	0.11138
3255.56667	0.11184
3254.28090	0.11214
3252.99513	0.11208
3251.70936	0.11178
3250.42359	0.11153
3249.13783	0.11151
3247.85206	0.11163
3246.56629	0.11172
3245.28052	0.11168
3243.99475	0.11154
3242.70898	0.11135
3241.42321	0.11113
3240.13744	0.11087
3238.85167	0.11058
3237.56591	0.11027
3236.28014	0.10994
3234.99437	0.10966
3233.70860	0.10949
3232.42283	0.10945
3231.13706	0.10951
3229.85129	0.10963
3228.56552	0.10974
3227.27976	0.10973
3225.99399	0.10949
3224.70822	0.10906
3223.42245	0.10860
3222.13668	0.10824
3220.85091	0.10799
3219.56514	0.10781
3218.27937	0.10773
3216.99360	0.10786
3215.70784	0.10818
3214.42207	0.10851
3213.13630	0.10857
3211.85053	0.10824
3210.56476	0.10766
3209.27899	0.10714
3207.99322	0.10689
3206.70745	0.10690
3205.42169	0.10704
3204.13592	0.10728
3202.85015	0.10756
3201.56438	0.10778
3200.27861	0.10778
3198.99284	0.10753
3197.70707	0.10718
3196.42130	0.10690
3195.13553	0.10672
3193.84977	0.10643
3192.56400	0.10584
3191.27823	0.10507
3189.99246	0.10446
3188.70669	0.10429
3187.42092	0.10455
3186.13515	0.10498
3184.84938	0.10535
3183.56362	0.10559
3182.27785	0.10578
3180.99208	0.10595
3179.70631	0.10603
3178.42054	0.10591
3177.13477	0.10553
3175.84900	0.10506
3174.56323	0.10470
3173.27746	0.10458
3171.99170	0.10465
3170.70593	0.10478
3169.42016	0.10480
3168.13439	0.10461
3166.84862	0.10415
3165.56285	0.10350
3164.27708	0.10285
3162.99131	0.10242
3161.70555	0.10228
3160.41978	0.10241
3159.13401	0.10267
3157.84824	0.10288
3156.56247	0.10284
3155.27670	0.10248
3153.99093	0.10196
3152.70516	0.10155
3151.41939	0.10136
3150.13363	0.10131
3148.84786	0.10126
3147.56209	0.10111
3146.27632	0.10090
3144.99055	0.10074
3143.70478	0.10075
3142.41901	0.10092
3141.13324	0.10108
3139.84748	0.10108
3138.56171	0.10091
3137.27594	0.10074
3135.99017	0.10068
3134.70440	0.10064
3133.41863	0.10048
3132.13286	0.10021
3130.84709	0.09999
3129.56132	0.09994
3128.27556	0.10001
3126.98979	0.10006
3125.70402	0.10004
3124.41825	0.09995
3123.13248	0.09976
3121.84671	0.09946
3120.56094	0.09914
3119.27517	0.09889
3117.98940	0.09867
3116.70364	0.09836
3115.41787	0.09791
3114.13210	0.09741
3112.84633	0.09701
3111.56056	0.09680
3110.27479	0.09677
3108.98902	0.09684
3107.70325	0.09693
3106.41749	0.09699
3105.13172	0.09691
3103.84595	0.09656
3102.56018	0.09598
3101.27441	0.09546
3099.98864	0.09525
3098.70287	0.09538
3097.41710	0.09560
3096.13133	0.09575
3094.84557	0.09580
3093.55980	0.09580
3092.27403	0.09570
3090.98826	0.09545
3089.70249	0.09511
3088.41672	0.09481
3087.13095	0.09470
3085.84518	0.09479
3084.55942	0.09499
3083.27365	0.09513
3081.98788	0.09513
3080.70211	0.09504
3079.41634	0.09496
3078.13057	0.09491
3076.84480	0.09481
3075.55903	0.09456
3074.27326	0.09417
3072.98750	0.09380
3071.70173	0.09360
3070.41596	0.09360
3069.13019	0.09371
3067.84442	0.09382
3066.55865	0.09386
3065.27288	0.09377
3063.98711	0.09346
3062.70135	0.09291
3061.41558	0.09226
3060.12981	0.09176
3058.84404	0.09157
3057.55827	0.09160
3056.27250	0.09159
3054.98673	0.09144
3053.70096	0.09125
3052.41519	0.09114
3051.12943	0.09105
3049.84366	0.09080
3048.55789	0.09040
3047.27212	0.09003
3045.98635	0.08991
3044.70058	0.09003
3043.41481	0.09022
3042.12904	0.09031
3040.84328	0.09017
3039.55751	0.08976
3038.27174	0.08914
3036.98597	0.08858
3035.70020	0.08830
3034.41443	0.08827
3033.12866	0.08826
3031.84289	0.08810
3030.55712	0.08793
3029.27136	0.08793
3027.98559	0.08809
3026.69982	0.08819
3025.41405	0.08806
3024.12828	0.08778
3022.84251	0.08757
3021.55674	0.08754
3020.27097	0.08765
3018.98521	0.08775
3017.69944	0.08775
3016.41367	0.08760
3015.12790	0.08731
3013.84213	0.08696
3012.55636	0.08660
3011.27059	0.08631
3009.98482	0.08611
3008.69905	0.08598
3007.41329	0.08583
3006.12752	0.08558
3004.84175	0.08525
3003.55598	0.08498
3002.27021	0.08488
3000.98444	0.08498
2999.69867	0.08519
2998.41290	0.08537
2997.12714	0.08545
2995.84137	0.08552
2994.55560	0.08570
2993.26983	0.08594
2991.98406	0.08607
2990.69829	0.08607
2989.41252	0.08609
2988.12675	0.08628
2986.84098	0.08661
2985.55522	0.08698
2984.26945	0.08727
2982.98368	0.08742
2981.69791	0.08750
2980.41214	0.08764
2979.12637	0.08802
2977.84060	0.08875
2976.55483	0.08985
2975.26907	0.09128
2973.98330	0.09290
2972.69753	0.09455
2971.41176	0.09617
2970.12599	0.09784
2968.84022	0.09963
2967.55445	0.10154
2966.26868	0.10347
2964.98291	0.10535
2963.69715	0.10709
2962.41138	0.10870
2961.12561	0.11023
2959.83984	0.11183
2958.55407	0.11357
2957.26830	0.11528
2955.98253	0.11665
2954.69676	0.11756
2953.41100	0.11811
2952.12523	0.11845
2950.83946	0.11863
2949.55369	0.11863
2948.26792	0.11846
2946.98215	0.11820
2945.69638	0.11789
2944.41061	0.11756
2943.12484	0.11731
2941.83908	0.11727
2940.55331	0.11759
2939.26754	0.11839
2937.98177	0.11964
2936.69600	0.12123
2935.41023	0.12302
2934.12446	0.12490
2932.83869	0.12678
2931.55293	0.12854
2930.26716	0.13009
2928.98139	0.13141
2927.69562	0.13261
2926.40985	0.13373
2925.12408	0.13465
2923.83831	0.13516
2922.55254	0.13517
2921.26677	0.13478
2919.98101	0.13416
2918.69524	0.13338
2917.40947	0.13237
2916.12370	0.13100
2914.83793	0.12929
2913.55216	0.12740
2912.26639	0.12557
2910.98062	0.12395
2909.69486	0.12250
2908.40909	0.12118
2907.12332	0.11995
2905.83755	0.11877
2904.55178	0.11757
2903.26601	0.11637
2901.98024	0.11531
2900.69447	0.11455
2899.40870	0.11404
2898.12294	0.11348
2896.83717	0.11253
2895.55140	0.11112
2894.26563	0.10949
2892.97986	0.10798
2891.69409	0.10673
2890.40832	0.10569
2889.12255	0.10479
2887.83678	0.10401
2886.55102	0.10336
2885.26525	0.10279
2883.97948	0.10226
2882.69371	0.10177
2881.40794	0.10142
2880.12217	0.10134
2878.83640	0.10149
2877.55063	0.10178
2876.26487	0.10215
2874.97910	0.10269
2873.69333	0.10342
2872.40756	0.10423
2871.12179	0.10498
2869.83602	0.10561
2868.55025	0.10609
2867.26448	0.10641
2865.97871	0.10661
2864.69295	0.10684
2863.40718	0.10716
2862.12141	0.10744
2860.83564	0.10748
2859.54987	0.10728
2858.26410	0.10705
2856.97833	0.10701
2855.69256	0.10712
2854.40680	0.10713
2853.12103	0.10680
2851.83526	0.10605
2850.54949	0.10495
2849.26372	0.10361
2847.97795	0.10207
2846.69218	0.10040
2845.40641	0.09870
2844.12064	0.09715
2842.83488	0.09583
2841.54911	0.09459
2840.26334	0.09326
2838.97757	0.09182
2837.69180	0.09040
2836.40603	0.08906
2835.12026	0.08772
2833.83449	0.08629
2832.54873	0.08490
2831.26296	0.08373
2829.97719	0.08282
2828.69142	0.08207
2827.40565	0.08135
2826.11988	0.08063
2824.83411	0.07995
2823.54834	0.07933
2822.26257	0.07877
2820.97681	0.07830
2819.69104	0.07795
2818.40527	0.07770
2817.11950	0.07749
2815.83373	0.07724
2814.54796	0.07688
2813.26219	0.07640
2811.97642	0.07591
2810.69066	0.07551
2809.40489	0.07521
2808.11912	0.07499
2806.83335	0.07484
2805.54758	0.07472
2804.26181	0.07453
2802.97604	0.07421
2801.69027	0.07381
2800.40450	0.07344
2799.11874	0.07319
2797.83297	0.07308
2796.54720	0.07299
2795.26143	0.07284
2793.97566	0.07255
2792.68989	0.07221
2791.40412	0.07192
2790.11835	0.07172
2788.83259	0.07154
2787.54682	0.07129
2786.26105	0.07101
2784.97528	0.07084
2783.68951	0.07088
2782.40374	0.07102
2781.11797	0.07103
2779.83220	0.07076
2778.54643	0.07033
2777.26067	0.07001
2775.97490	0.06995
2774.68913	0.07005
2773.40336	0.07005
2772.11759	0.06984
2770.83182	0.06959
2769.54605	0.06947
2768.26028	0.06943
2766.97452	0.06924
2765.68875	0.06884
2764.40298	0.06844
2763.11721	0.06826
2761.83144	0.06826
2760.54567	0.06827
2759.25990	0.06817
2757.97413	0.06803
2756.68836	0.06795
2755.40260	0.06791
2754.11683	0.06783
2752.83106	0.06764
2751.54529	0.06737
2750.25952	0.06713
2748.97375	0.06705
2747.68798	0.06713
2746.40221	0.06722
2745.11645	0.06710
2743.83068	0.06670
2742.54491	0.06622
2741.25914	0.06594
2739.97337	0.06603
2738.68760	0.06636
2737.40183	0.06664
2736.11606	0.06667
2734.83029	0.06647
2733.54453	0.06622
2732.25876	0.06609
2730.97299	0.06616
2729.68722	0.06635
2728.40145	0.06643
2727.11568	0.06624
2725.82991	0.06581
2724.54414	0.06539
2723.25838	0.06519
2721.97261	0.06524
2720.68684	0.06538
2719.40107	0.06546
2718.11530	0.06536
2716.82953	0.06509
2715.54376	0.06473
2714.25799	0.06437
2712.97222	0.06406
2711.68646	0.06385
2710.40069	0.06378
2709.11492	0.06379
2707.82915	0.06376
2706.54338	0.06354
2705.25761	0.06317
2703.97184	0.06284
2702.68607	0.06270
2701.40031	0.06272
2700.11454	0.06270
2698.82877	0.06254
2697.54300	0.06231
2696.25723	0.06217
2694.97146	0.06223
2693.68569	0.06243
2692.39992	0.06259
2691.11415	0.06259
2689.82839	0.06246
2688.54262	0.06233
2687.25685	0.06224
2685.97108	0.06220
2684.68531	0.06215
2683.39954	0.06206
2682.11377	0.06193
2680.82800	0.06175
2679.54224	0.06151
2678.25647	0.06122
2676.97070	0.06095
2675.68493	0.06085
2674.39916	0.06098
2673.11339	0.06124
2671.82762	0.06140
2670.54185	0.06136
2669.25608	0.06114
2667.97032	0.06086
2666.68455	0.06064
2665.39878	0.06054
2664.11301	0.06056
2662.82724	0.06061
2661.54147	0.06058
2660.25570	0.06044
2658.96993	0.06026
2657.68417	0.06012
2656.39840	0.06003
2655.11263	0.05991
2653.82686	0.05967
2652.54109	0.05935
2651.25532	0.05906
2649.96955	0.05889
2648.68378	0.05883
2647.39801	0.05885
2646.11225	0.05889
2644.82648	0.05887
2643.54071	0.05867
2642.25494	0.05832
2640.96917	0.05795
2639.68340	0.05770
2638.39763	0.05752
2637.11186	0.05730
2635.82609	0.05697
2634.54033	0.05660
2633.25456	0.05631
2631.96879	0.05622
2630.68302	0.05630
2629.39725	0.05637
2628.11148	0.05621
2626.82571	0.05574
2625.53994	0.05512
2624.25418	0.05458
2622.96841	0.05425
2621.68264	0.05412
2620.39687	0.05408
2619.11110	0.05407
2617.82533	0.05404
2616.53956	0.05393
2615.25379	0.05368
2613.96802	0.05327
2612.68226	0.05281
2611.39649	0.05250
2610.11072	0.05250
2608.82495	0.05271
2607.53918	0.05294
2606.25341	0.05303
2604.96764	0.05298
2603.68187	0.05282
2602.39611	0.05258
2601.11034	0.05226
2599.82457	0.05192
2598.53880	0.05165
2597.25303	0.05149
2595.96726	0.05134
2594.68149	0.05113
2593.39572	0.05084
2592.10995	0.05059
2590.82419	0.05047
2589.53842	0.05049
2588.25265	0.05058
2586.96688	0.05065
2585.68111	0.05061
2584.39534	0.05043
2583.10957	0.05019
2581.82380	0.05000
2580.53804	0.04989
2579.25227	0.04982
2577.96650	0.04972
2576.68073	0.04950
2575.39496	0.04913
2574.10919	0.04864
2572.82342	0.04816
2571.53765	0.04781
2570.25188	0.04770
2568.96612	0.04783
2567.68035	0.04812
2566.39458	0.04845
2565.10881	0.04866
2563.82304	0.04865
2562.53727	0.04842
2561.25150	0.04805
2559.96573	0.04767
2558.67997	0.04740
2557.39420	0.04724
2556.10843	0.04714
2554.82266	0.04702
2553.53689	0.04692
2552.25112	0.04691
2550.96535	0.04699
2549.67958	0.04708
2548.39381	0.04706
2547.10805	0.04694
2545.82228	0.04690
2544.53651	0.04702
2543.25074	0.04728
2541.96497	0.04764
2540.67920	0.04806
2539.39343	0.04839
2538.10766	0.04839
2536.82190	0.04793
2535.53613	0.04716
2534.25036	0.04636
2532.96459	0.04575
2531.67882	0.04540
2530.39305	0.04524
2529.10728	0.04515
2527.82151	0.04505
2526.53574	0.04497
2525.24998	0.04502
2523.96421	0.04531
2522.67844	0.04579
2521.39267	0.04619
2520.10690	0.04623
2518.82113	0.04591
2517.53536	0.04549
2516.24959	0.04519
2514.96383	0.04490
2513.67806	0.04446
2512.39229	0.04403
2511.10652	0.04397
2509.82075	0.04436
2508.53498	0.04491
2507.24921	0.04531
2505.96344	0.04552
2504.67767	0.04565
2503.39191	0.04570
2502.10614	0.04556
2500.82037	0.04532
2499.53460	0.04515
2498.24883	0.04513
2496.96306	0.04514
2495.67729	0.04500
2494.39152	0.04461
2493.10576	0.04411
2491.81999	0.04374
2490.53422	0.04369
2489.24845	0.04386
2487.96268	0.04404
2486.67691	0.04411
2485.39114	0.04413
2484.10537	0.04418
2482.81960	0.04422
2481.53384	0.04420
2480.24807	0.04416
2478.96230	0.04423
2477.67653	0.04442
2476.39076	0.04460
2475.10499	0.04457
2473.81922	0.04430
2472.53345	0.04391
2471.24769	0.04364
2469.96192	0.04364
2468.67615	0.04385
2467.39038	0.04402
2466.10461	0.04399
2464.81884	0.04379
2463.53307	0.04359
2462.24730	0.04350
2460.96153	0.04348
2459.67577	0.04344
2458.39000	0.04332
2457.10423	0.04320
2455.81846	0.04311
2454.53269	0.04304
2453.24692	0.04292
2451.96115	0.04281
2450.67538	0.04279
2449.38962	0.04287
2448.10385	0.04294
2446.81808	0.04298
2445.53231	0.04302
2444.24654	0.04298
2442.96077	0.04279
2441.67500	0.04247
2440.38923	0.04212
2439.10346	0.04175
2437.81770	0.04138
2436.53193	0.04115
2435.24616	0.04122
2433.96039	0.04146
2432.67462	0.04154
2431.38885	0.04131
2430.10308	0.04094
2428.81731	0.04072
2427.53155	0.04074
2426.24578	0.04088
2424.96001	0.04109
2423.67424	0.04141
2422.38847	0.04179
2421.10270	0.04200
2419.81693	0.04185
2418.53116	0.04143
2417.24539	0.04099
2415.95963	0.04074
2414.67386	0.04069
2413.38809	0.04069
2412.10232	0.04065
2410.81655	0.04060
2409.53078	0.04070
2408.24501	0.04097
2406.95924	0.04127
2405.67347	0.04147
2404.38771	0.04153
2403.10194	0.04153
2401.81617	0.04146
2400.53040	0.04135
2399.24463	0.04130
2397.95886	0.04136
2396.67309	0.04152
2395.38732	0.04165
2394.10156	0.04161
2392.81579	0.04146
2391.53002	0.04131
2390.24425	0.04123
2388.95848	0.04115
2387.67271	0.04102
2386.38694	0.04091
2385.10117	0.04091
2383.81540	0.04107
2382.52964	0.04133
2381.24387	0.04145
2379.95810	0.04124
2378.67233	0.04073
2377.38656	0.04019
2376.10079	0.03991
2374.81502	0.03996
2373.52925	0.04019
2372.24349	0.04045
2370.95772	0.04064
2369.67195	0.04073
2368.38618	0.04071
2367.10041	0.04062
2365.81464	0.04056
2364.52887	0.04061
2363.24310	0.04076
2361.95733	0.04097
2360.67157	0.04124
2359.38580	0.04152
2358.10003	0.04176
2356.81426	0.04189
2355.52849	0.04193
2354.24272	0.04190
2352.95695	0.04176
2351.67118	0.04150
2350.38542	0.04124
2349.09965	0.04115
2347.81388	0.04127
2346.52811	0.04151
2345.24234	0.04171
2343.95657	0.04176
2342.67080	0.04171
2341.38503	0.04164
2340.09926	0.04164
2338.81350	0.04171
2337.52773	0.04177
2336.24196	0.04176
2334.95619	0.04167
2333.67042	0.04156
2332.38465	0.04144
2331.09888	0.04132
2329.81311	0.04126
2328.52735	0.04136
2327.24158	0.04168
2325.95581	0.04213
2324.67004	0.04247
2323.38427	0.04247
2322.09850	0.04214
2320.81273	0.04171
2319.52696	0.04141
2318.24119	0.04129
2316.95543	0.04121
2315.66966	0.04100
2314.38389	0.04068
2313.09812	0.04037
2311.81235	0.04016
2310.52658	0.04003
2309.24081	0.03986
2307.95504	0.03958
2306.66928	0.03922
2305.38351	0.03888
2304.09774	0.03863
2302.81197	0.03851
2301.52620	0.03857
2300.24043	0.03879
2298.95466	0.03903
2297.66889	0.03909
2296.38312	0.03888
2295.09736	0.03857
2293.81159	0.03839
2292.52582	0.03837
2291.24005	0.03837
2289.95428	0.03829
2288.66851	0.03818
2287.38274	0.03811
2286.09697	0.03795
2284.81121	0.03752
2283.52544	0.03690
2282.23967	0.03640
2280.95390	0.03615
2279.66813	0.03595
2278.38236	0.03556
2277.09659	0.03506
2275.81082	0.03477
2274.52505	0.03484
2273.23929	0.03503
2271.95352	0.03504
2270.66775	0.03485
2269.38198	0.03460
2268.09621	0.03438
2266.81044	0.03410
2265.52467	0.03369
2264.23890	0.03322
2262.95314	0.03276
2261.66737	0.03233
2260.38160	0.03194
2259.09583	0.03171
2257.81006	0.03177
2256.52429	0.03206
2255.23852	0.03231
2253.95275	0.03234
2252.66698	0.03220
2251.38122	0.03207
2250.09545	0.03212
2248.80968	0.03233
2247.52391	0.03226
2246.23814	0.03207
2244.95237	0.03192
2243.66660	0.03182
2242.38083	0.03150
2241.09507	0.03064
2239.80930	0.02939
2238.52353	0.02836
2237.23776	0.02795
2235.95199	0.02794
2234.66622	0.02787
2233.38045	0.02756
2232.09468	0.02720
2230.80891	0.02694
2229.52315	0.02684
2228.23738	0.02691
2226.95161	0.02719
2225.66584	0.02761
2224.38007	0.02789
2223.09430	0.02775
2221.80853	0.02718
2220.52276	0.02653
2219.23700	0.02628
2217.95123	0.02669
2216.66546	0.02746
2215.37969	0.02790
2214.09392	0.02745
2212.80815	0.02614
2211.52238	0.02452
2210.23661	0.02335
2208.95084	0.02311
2207.66508	0.02375
2206.37931	0.02455
2205.09354	0.02473
2203.80777	0.02410
2202.52200	0.02320
2201.23623	0.02275
2199.95046	0.02297
2198.66469	0.02345
2197.37893	0.02371
2196.09316	0.02369
2194.80739	0.02372
2193.52162	0.02383
2192.23585	0.02375
2190.95008	0.02345
2189.66431	0.02339
2188.37854	0.02386
2187.09277	0.02438
2185.80701	0.02432
2184.52124	0.02371
2183.23547	0.02318
2181.94970	0.02303
2180.66393	0.02285
2179.37816	0.02205
2178.09239	0.02063
2176.80662	0.01921
2175.52085	0.01844
2174.23509	0.01844
2172.94932	0.01882
2171.66355	0.01913
2170.37778	0.01902
2169.09201	0.01828
2167.80624	0.01697
2166.52047	0.01550
2165.23470	0.01433
2163.94894	0.01350
2162.66317	0.01276
2161.37740	0.01201
2160.09163	0.01146
2158.80586	0.01140
2157.52009	0.01204
2156.23432	0.01323
2154.94855	0.01460
2153.66278	0.01581
2152.37702	0.01677
2151.09125	0.01753
2149.80548	0.01815
2148.51971	0.01877
2147.23394	0.01962
2145.94817	0.02070
2144.66240	0.02159
2143.37663	0.02175
2142.09087	0.02105
2140.80510	0.01995
2139.51933	0.01902
2138.23356	0.01851
2136.94779	0.01838
2135.66202	0.01867
2134.37625	0.01949
2133.09048	0.02063
2131.80471	0.02155
2130.51895	0.02193
2129.23318	0.02195
2127.94741	0.02205
2126.66164	0.02249
2125.37587	0.02318
2124.09010	0.02379
2122.80433	0.02398
2121.51856	0.02373
2120.23280	0.02343
2118.94703	0.02354
2117.66126	0.02402
2116.37549	0.02436
2115.08972	0.02413
2113.80395	0.02341
2112.51818	0.02266
2111.23241	0.02225
2109.94664	0.02228
2108.66088	0.02269
2107.37511	0.02338
2106.08934	0.02406
2104.80357	0.02434
2103.51780	0.02404
2102.23203	0.02335
2100.94626	0.02264
2099.66049	0.02205
2098.37473	0.02155
2097.08896	0.02111
2095.80319	0.02078
2094.51742	0.02068
2093.23165	0.02084
2091.94588	0.02117
2090.66011	0.02152
2089.37434	0.02176
2088.08857	0.02189
2086.80281	0.02202
2085.51704	0.02220
2084.23127	0.02237
2082.94550	0.02238
2081.65973	0.02221
2080.37396	0.02191
2079.08819	0.02148
2077.80242	0.02087
2076.51666	0.02020
2075.23089	0.01977
2073.94512	0.01974
2072.65935	0.01984
2071.37358	0.01965
2070.08781	0.01906
2068.80204	0.01838
2067.51627	0.01795
2066.23050	0.01781
2064.94474	0.01781
2063.65897	0.01782
2062.37320	0.01783
2061.08743	0.01780
2059.80166	0.01763
2058.51589	0.01731
2057.23012	0.01692
2055.94435	0.01654
2054.65859	0.01625
2053.37282	0.01609
2052.08705	0.01607
2050.80128	0.01623
2049.51551	0.01666
2048.22974	0.01738
2046.94397	0.01809
2045.65820	0.01821
2044.37243	0.01737
2043.08667	0.01580
2041.80090	0.01408
2040.51513	0.01260
2039.22936	0.01130
2037.94359	0.01015
2036.65782	0.00946
2035.37205	0.00955
2034.08628	0.01030
2032.80052	0.01112
2031.51475	0.01151
2030.22898	0.01142
2028.94321	0.01111
2027.65744	0.01084
2026.37167	0.01082
2025.08590	0.01113
2023.80013	0.01162
2022.51436	0.01197
2021.22860	0.01193
2019.94283	0.01162
2018.65706	0.01128
2017.37129	0.01094
2016.08552	0.01045
2014.79975	0.00987
2013.51398	0.00945
2012.22821	0.00926
2010.94245	0.00907
2009.65668	0.00877
2008.37091	0.00877
2007.08514	0.00948
2005.79937	0.01083
2004.51360	0.01230
2003.22783	0.01352
2001.94206	0.01443
2000.65629	0.01518
1999.37053	0.01581
1998.08476	0.01625
1996.79899	0.01639
1995.51322	0.01621
1994.22745	0.01588
1992.94168	0.01564
1991.65591	0.01560
1990.37014	0.01570
1989.08438	0.01580
1987.79861	0.01587
1986.51284	0.01605
1985.22707	0.01646
1983.94130	0.01710
1982.65553	0.01778
1981.36976	0.01816
1980.08399	0.01789
1978.79822	0.01694
1977.51246	0.01565
1976.22669	0.01451
1974.94092	0.01380
1973.65515	0.01344
1972.36938	0.01325
1971.08361	0.01302
1969.79784	0.01262
1968.51207	0.01219
1967.22631	0.01200
1965.94054	0.01221
1964.65477	0.01261
1963.36900	0.01295
1962.08323	0.01325
1960.79746	0.01371
1959.51169	0.01436
1958.22592	0.01499
1956.94015	0.01543
1955.65439	0.01577
1954.36862	0.01621
1953.08285	0.01674
1951.79708	0.01713
1950.51131	0.01720
1949.22554	0.01713
1947.93977	0.01719
1946.65400	0.01752
1945.36823	0.01800
1944.08247	0.01849
1942.79670	0.01889
1941.51093	0.01916
1940.22516	0.01919
1938.93939	0.01893
1937.65362	0.01848
1936.36785	0.01807
1935.08208	0.01798
1933.79632	0.01830
1932.51055	0.01895
1931.22478	0.01977
1929.93901	0.02064
1928.65324	0.02139
1927.36747	0.02186
1926.08170	0.02197
1924.79593	0.02180
1923.51016	0.02159
1922.22440	0.02152
1920.93863	0.02159
1919.65286	0.02166
1918.36709	0.02165
1917.08132	0.02160
1915.79555	0.02160
1914.50978	0.02164
1913.22401	0.02168
1911.93825	0.02164
1910.65248	0.02152
1909.36671	0.02142
1908.08094	0.02150
1906.79517	0.02191
1905.50940	0.02256
1904.22363	0.02314
1902.93786	0.02334
1901.65209	0.02319
1900.36633	0.02298
1899.08056	0.02294
1897.79479	0.02302
1896.50902	0.02302
1895.22325	0.02281
1893.93748	0.02249
1892.65171	0.02223
1891.36594	0.02215
1890.08018	0.02222
1888.79441	0.02234
1887.50864	0.02238
1886.22287	0.02235
1884.93710	0.02227
1883.65133	0.02220
1882.36556	0.02216
1881.07979	0.02218
1879.79402	0.02226
1878.50826	0.02237
1877.22249	0.02250
1875.93672	0.02264
1874.65095	0.02278
1873.36518	0.02290
1872.07941	0.02292
1870.79364	0.02282
1869.50787	0.02264
1868.22211	0.02246
1866.93634	0.02235
1865.65057	0.02231
1864.36480	0.02229
1863.07903	0.02222
1861.79326	0.02212
1860.50749	0.02207
1859.22172	0.02211
1857.93595	0.02218
1856.65019	0.02216
1855.36442	0.02200
1854.07865	0.02180
1852.79288	0.02174
1851.50711	0.02188
1850.22134	0.02214
1848.93557	0.02240
1847.64980	0.02257
1846.36404	0.02265
1845.07827	0.02270
1843.79250	0.02278
1842.50673	0.02288
1841.22096	0.02294
1839.93519	0.02294
1838.64942	0.02291
1837.36365	0.02291
1836.07788	0.02298
1834.79212	0.02314
1833.50635	0.02336
1832.22058	0.02355
1830.93481	0.02366
1829.64904	0.02364
1828.36327	0.02354
1827.07750	0.02343
1825.79173	0.02338
1824.50597	0.02339
1823.22020	0.02337
1821.93443	0.02326
1820.64866	0.02303
1819.36289	0.02276
1818.07712	0.02259
1816.79135	0.02262
1815.50558	0.02283
1814.21981	0.02308
1812.93405	0.02327
1811.64828	0.02338
1810.36251	0.02346
1809.07674	0.02356
1807.79097	0.02369
1806.50520	0.02382
1805.21943	0.02388
1803.93366	0.02388
1802.64790	0.02384
1801.36213	0.02383
1800.07636	0.02390
1798.79059	0.02403
1797.50482	0.02413
1796.21905	0.02413
1794.93328	0.02404
1793.64751	0.02395
1792.36174	0.02395
1791.07598	0.02407
1789.79021	0.02428
1788.50444	0.02453
1787.21867	0.02477
1785.93290	0.02491
1784.64713	0.02492
1783.36136	0.02482
1782.07559	0.02468
1780.78983	0.02459
1779.50406	0.02462
1778.21829	0.02473
1776.93252	0.02482
1775.64675	0.02484
1774.36098	0.02478
1773.07521	0.02474
1771.78944	0.02479
1770.50367	0.02492
1769.21791	0.02511
1767.93214	0.02525
1766.64637	0.02530
1765.36060	0.02527
1764.07483	0.02522
1762.78906	0.02524
1761.50329	0.02533
1760.21752	0.02543
1758.93176	0.02549
1757.64599	0.02554
1756.36022	0.02564
1755.07445	0.02580
1753.78868	0.02591
1752.50291	0.02590
1751.21714	0.02578
1749.93137	0.02569
1748.64560	0.02573
1747.35984	0.02589
1746.07407	0.02607
1744.78830	0.02617
1743.50253	0.02619
1742.21676	0.02620
1740.93099	0.02628
1739.64522	0.02643
1738.35945	0.02659
1737.07369	0.02670
1735.78792	0.02675
1734.50215	0.02680
1733.21638	0.02691
1731.93061	0.02709
1730.64484	0.02731
1729.35907	0.02755
1728.07330	0.02777
1726.78753	0.02792
1725.50177	0.02798
1724.21600	0.02802
1722.93023	0.02809
1721.64446	0.02824
1720.35869	0.02842
1719.07292	0.02861
1717.78715	0.02883
1716.50138	0.02910
1715.21561	0.02943
1713.92985	0.02980
1712.64408	0.03018
1711.35831	0.03058
1710.07254	0.03100
1708.78677	0.03143
1707.50100	0.03183
1706.21523	0.03216
1704.92946	0.03241
1703.64370	0.03263
1702.35793	0.03290
1701.07216	0.03325
1699.78639	0.03363
1698.50062	0.03399
1697.21485	0.03434
1695.92908	0.03472
1694.64331	0.03514
1693.35754	0.03553
1692.07178	0.03585
1690.78601	0.03611
1689.50024	0.03638
1688.21447	0.03668
1686.92870	0.03698
1685.64293	0.03725
1684.35716	0.03748
1683.07139	0.03773
1681.78563	0.03801
1680.49986	0.03831
1679.21409	0.03859
1677.92832	0.03888
1676.64255	0.03917
1675.35678	0.03949
1674.07101	0.03980
1672.78524	0.04005
1671.49947	0.04026
1670.21371	0.04050
1668.92794	0.04083
1667.64217	0.04122
1666.35640	0.04158
1665.07063	0.04188
1663.78486	0.04216
1662.49909	0.04251
1661.21332	0.04294
1659.92756	0.04337
1658.64179	0.04375
1657.35602	0.04404
1656.07025	0.04424
1654.78448	0.04437
1653.49871	0.04445
1652.21294	0.04452
1650.92717	0.04464
1649.64140	0.04482
1648.35564	0.04507
1647.06987	0.04533
1645.78410	0.04554
1644.49833	0.04567
1643.21256	0.04575
1641.92679	0.04579
1640.64102	0.04582
1639.35525	0.04586
1638.06949	0.04590
1636.78372	0.04599
1635.49795	0.04614
1634.21218	0.04631
1632.92641	0.04646
1631.64064	0.04658
1630.35487	0.04670
1629.06910	0.04683
1627.78333	0.04691
1626.49757	0.04691
1625.21180	0.04687
1623.92603	0.04685
1622.64026	0.04691
1621.35449	0.04700
1620.06872	0.04711
1618.78295	0.04723
1617.49718	0.04741
1616.21142	0.04766
1614.92565	0.04794
1613.63988	0.04818
1612.35411	0.04836
1611.06834	0.04849
1609.78257	0.04861
1608.49680	0.04877
1607.21103	0.04898
1605.92526	0.04925
1604.63950	0.04956
1603.35373	0.04987
1602.06796	0.05017
1600.78219	0.05043
1599.49642	0.05067
1598.21065	0.05091
1596.92488	0.05118
1595.63911	0.05147
1594.35335	0.05180
1593.06758	0.05216
1591.78181	0.05253
1590.49604	0.05289
1589.21027	0.05322
1587.92450	0.05353
1586.63873	0.05384
1585.35296	0.05419
1584.06719	0.05460
1582.78143	0.05509
1581.49566	0.05561
1580.20989	0.05615
1578.92412	0.05668
1577.63835	0.05721
1576.35258	0.05778
1575.06681	0.05837
1573.78104	0.05893
1572.49528	0.05944
1571.20951	0.05996
1569.92374	0.06054
1568.63797	0.06120
1567.35220	0.06186
1566.06643	0.06245
1564.78066	0.06292
1563.49489	0.06331
1562.20912	0.06366
1560.92336	0.06404
1559.63759	0.06448
1558.35182	0.06499
1557.06605	0.06556
1555.78028	0.06620
1554.49451	0.06688
1553.20874	0.06757
1551.92297	0.06819
1550.63721	0.06868
1549.35144	0.06904
1548.06567	0.06926
1546.77990	0.06936
1545.49413	0.06933
1544.20836	0.06917
1542.92259	0.06894
1541.63682	0.06871
1540.35105	0.06855
1539.06529	0.06847
1537.77952	0.06843
1536.49375	0.06842
1535.20798	0.06841
1533.92221	0.06846
1532.63644	0.06858
1531.35067	0.06878
1530.06490	0.06907
1528.77914	0.06947
1527.49337	0.07000
1526.20760	0.07065
1524.92183	0.07139
1523.63606	0.07223
1522.35029	0.07323
1521.06452	0.07441
1519.77875	0.07575
1518.49298	0.07721
1517.20722	0.07878
1515.92145	0.08048
1514.63568	0.08231
1513.34991	0.08421
1512.06414	0.08612
1510.77837	0.08801
1509.49260	0.08991
1508.20683	0.09192
1506.92107	0.09412
1505.63530	0.09640
1504.34953	0.09859
1503.06376	0.10055
1501.77799	0.10227
1500.49222	0.10384
1499.20645	0.10537
1497.92068	0.10687
1496.63491	0.10833
1495.34915	0.10968
1494.06338	0.11090
1492.77761	0.11204
1491.49184	0.11322
1490.20607	0.11454
1488.92030	0.11606
1487.63453	0.11777
1486.34876	0.11960
1485.06299	0.12150
1483.77723	0.12346
1482.49146	0.12548
1481.20569	0.12755
1479.91992	0.12965
1478.63415	0.13170
1477.34838	0.13367
1476.06261	0.13552
1474.77684	0.13726
1473.49108	0.13891
1472.20531	0.14051
1470.91954	0.14206
1469.63377	0.14348
1468.34800	0.14474
1467.06223	0.14580
1465.77646	0.14670
1464.49069	0.14747
1463.20492	0.14820
1461.91916	0.14896
1460.63339	0.14981
1459.34762	0.15074
1458.06185	0.15172
1456.77608	0.15269
1455.49031	0.15358
1454.20454	0.15435
1452.91877	0.15497
1451.63301	0.15548
1450.34724	0.15590
1449.06147	0.15620
1447.77570	0.15635
1446.48993	0.15628
1445.20416	0.15595
1443.91839	0.15535
1442.63262	0.15453
1441.34685	0.15359
1440.06109	0.15266
1438.77532	0.15187
1437.48955	0.15133
1436.20378	0.15113
1434.91801	0.15130
1433.63224	0.15185
1432.34647	0.15278
1431.06070	0.15409
1429.77494	0.15581
1428.48917	0.15792
1427.20340	0.16036
1425.91763	0.16299
1424.63186	0.16564
1423.34609	0.16821
1422.06032	0.17064
1420.77455	0.17297
1419.48878	0.17525
1418.20302	0.17740
1416.91725	0.17928
1415.63148	0.18079
1414.34571	0.18189
1413.05994	0.18263
1411.77417	0.18300
1410.48840	0.18295
1409.20263	0.18242
1407.91687	0.18138
1406.63110	0.17984
1405.34533	0.17790
1404.05956	0.17563
1402.77379	0.17306
1401.48802	0.17017
1400.20225	0.16695
1398.91648	0.16346
1397.63071	0.15979
1396.34495	0.15603
1395.05918	0.15222
1393.77341	0.14836
1392.48764	0.14450
1391.20187	0.14071
1389.91610	0.13703
1388.63033	0.13349
1387.34456	0.13006
1386.05880	0.12672
1384.77303	0.12344
1383.48726	0.12022
1382.20149	0.11710
1380.91572	0.11405
1379.62995	0.11101
1378.34418	0.10785
1377.05841	0.10451
1375.77264	0.10098
1374.48688	0.09729
1373.20111	0.09351
1371.91534	0.08974
1370.62957	0.08611
1369.34380	0.08271
1368.05803	0.07959
1366.77226	0.07672
1365.48649	0.07406
1364.20073	0.07154
1362.91496	0.06912
1361.62919	0.06678
1360.34342	0.06456
1359.05765	0.06250
1357.77188	0.06065
1356.48611	0.05899
1355.20034	0.05750
1353.91457	0.05613
1352.62881	0.05483
1351.34304	0.05363
1350.05727	0.05253
1348.77150	0.05152
1347.48573	0.05056
1346.19996	0.04963
1344.91419	0.04871
1343.62842	0.04782
1342.34266	0.04697
1341.05689	0.04615
1339.77112	0.04535
1338.48535	0.04456
1337.19958	0.04381
1335.91381	0.04312
1334.62804	0.04253
1333.34227	0.04203
1332.05650	0.04156
1330.77074	0.04111
1329.48497	0.04067
1328.19920	0.04028
1326.91343	0.03993
1325.62766	0.03964
1324.34189	0.03937
1323.05612	0.03911
1321.77035	0.03885
1320.48459	0.03857
1319.19882	0.03824
1317.91305	0.03788
1316.62728	0.03749
1315.34151	0.03710
1314.05574	0.03676
1312.76997	0.03646
1311.48420	0.03619
1310.19843	0.03592
1308.91267	0.03566
1307.62690	0.03538
1306.34113	0.03510
1305.05536	0.03481
1303.76959	0.03454
1302.48382	0.03433
1301.19805	0.03416
1299.91228	0.03399
1298.62652	0.03377
1297.34075	0.03349
1296.05498	0.03320
1294.76921	0.03296
1293.48344	0.03275
1292.19767	0.03254
1290.91190	0.03233
1289.62613	0.03214
1288.34036	0.03200
1287.05460	0.03186
1285.76883	0.03167
1284.48306	0.03140
1283.19729	0.03108
1281.91152	0.03079
1280.62575	0.03056
1279.33998	0.03037
1278.05421	0.03018
1276.76845	0.02997
1275.48268	0.02978
1274.19691	0.02960
1272.91114	0.02941
1271.62537	0.02918
1270.33960	0.02893
1269.05383	0.02872
1267.76806	0.02861
1266.48229	0.02858
1265.19653	0.02853
1263.91076	0.02839
1262.62499	0.02817
1261.33922	0.02792
1260.05345	0.02770
1258.76768	0.02753
1257.48191	0.02739
1256.19614	0.02725
1254.91037	0.02710
1253.62461	0.02694
1252.33884	0.02679
1251.05307	0.02664
1249.76730	0.02649
1248.48153	0.02634
1247.19576	0.02620
1245.90999	0.02607
1244.62422	0.02597
1243.33846	0.02588
1242.05269	0.02580
1240.76692	0.02572
1239.48115	0.02561
1238.19538	0.02546
1236.90961	0.02530
1235.62384	0.02519
1234.33807	0.02513
1233.05230	0.02508
1231.76654	0.02501
1230.48077	0.02490
1229.19500	0.02475
1227.90923	0.02462
1226.62346	0.02451
1225.33769	0.02443
1224.05192	0.02435
1222.76615	0.02424
1221.48039	0.02411
1220.19462	0.02399
1218.90885	0.02389
1217.62308	0.02381
1216.33731	0.02374
1215.05154	0.02370
1213.76577	0.02368
1212.48000	0.02367
1211.19423	0.02363
1209.90847	0.02357
1208.62270	0.02347
1207.33693	0.02335
1206.05116	0.02322
1204.76539	0.02308
1203.47962	0.02297
1202.19385	0.02294
1200.90808	0.02297
1199.62232	0.02302
1198.33655	0.02305
1197.05078	0.02302
1195.76501	0.02295
1194.47924	0.02284
1193.19347	0.02272
1191.90770	0.02263
1190.62193	0.02260
1189.33616	0.02263
1188.05040	0.02268
1186.76463	0.02274
1185.47886	0.02278
1184.19309	0.02283
1182.90732	0.02287
1181.62155	0.02294
1180.33578	0.02303
1179.05001	0.02316
1177.76425	0.02328
1176.47848	0.02333
1175.19271	0.02331
1173.90694	0.02330
1172.62117	0.02336
1171.33540	0.02349
1170.04963	0.02365
1168.76386	0.02383
1167.47809	0.02405
1166.19233	0.02433
1164.90656	0.02464
1163.62079	0.02495
1162.33502	0.02523
1161.04925	0.02551
1159.76348	0.02584
1158.47771	0.02627
1157.19194	0.02678
1155.90618	0.02730
1154.62041	0.02778
1153.33464	0.02821
1152.04887	0.02869
1150.76310	0.02925
1149.47733	0.02987
1148.19156	0.03054
1146.90579	0.03128
1145.62002	0.03218
1144.33426	0.03325
1143.04849	0.03443
1141.76272	0.03570
1140.47695	0.03712
1139.19118	0.03876
1137.90541	0.04061
1136.61964	0.04263
1135.33387	0.04476
1134.04811	0.04699
1132.76234	0.04938
1131.47657	0.05200
1130.19080	0.05496
1128.90503	0.05829
1127.61926	0.06199
1126.33349	0.06599
1125.04772	0.07021
1123.76195	0.07461
1122.47619	0.07917
1121.19042	0.08392
1119.90465	0.08890
1118.61888	0.09410
1117.33311	0.09944
1116.04734	0.10481
1114.76157	0.11009
1113.47580	0.11523
1112.19004	0.12031
1110.90427	0.12536
1109.61850	0.13040
1108.33273	0.13537
1107.04696	0.14023
1105.76119	0.14494
1104.47542	0.14947
1103.18965	0.15384
1101.90388	0.15814
1100.61812	0.16246
1099.33235	0.16682
1098.04658	0.17108
1096.76081	0.17507
1095.47504	0.17875
1094.18927	0.18223
1092.90350	0.18564
1091.61773	0.18902
1090.33197	0.19230
1089.04620	0.19537
1087.76043	0.19827
1086.47466	0.20110
1085.18889	0.20395
1083.90312	0.20686
1082.61735	0.20981
1081.33158	0.21286
1080.04581	0.21608
1078.76005	0.21949
1077.47428	0.22316
1076.18851	0.22712
1074.90274	0.23141
1073.61697	0.23599
1072.33120	0.24078
1071.04543	0.24569
1069.75966	0.25071
1068.47390	0.25590
1067.18813	0.26132
1065.90236	0.26692
1064.61659	0.27260
1063.33082	0.27833
1062.04505	0.28410
1060.75928	0.28993
1059.47351	0.29581
1058.18774	0.30169
1056.90198	0.30747
1055.61621	0.31314
1054.33044	0.31874
1053.04467	0.32436
1051.75890	0.33013
1050.47313	0.33611
1049.18736	0.34230
1047.90159	0.34867
1046.61583	0.35522
1045.33006	0.36196
1044.04429	0.36891
1042.75852	0.37600
1041.47275	0.38320
1040.18698	0.39055
1038.90121	0.39815
1037.61544	0.40601
1036.32967	0.41400
1035.04391	0.42199
1033.75814	0.42991
1032.47237	0.43769
1031.18660	0.44523
1029.90083	0.45241
1028.61506	0.45913
1027.32929	0.46534
1026.04352	0.47101
1024.75775	0.47607
1023.47199	0.48043
1022.18622	0.48412
1020.90045	0.48721
1019.61468	0.48975
1018.32891	0.49168
1017.04314	0.49283
1015.75737	0.49303
1014.47160	0.49217
1013.18584	0.49018
1011.90007	0.48705
1010.61430	0.48284
1009.32853	0.47764
1008.04276	0.47149
1006.75699	0.46435
1005.47122	0.45617
1004.18545	0.44691
1002.89968	0.43663
1001.61392	0.42544
1000.32815	0.41354
999.04238	0.40109
997.75661	0.38823
996.47084	0.37504
995.18507	0.36167
993.89930	0.34832
992.61353	0.33519
991.32777	0.32233
990.04200	0.30967
988.75623	0.29712
987.47046	0.28474
986.18469	0.27270
984.89892	0.26123
983.61315	0.25044
982.32738	0.24028
981.04161	0.23069
979.75585	0.22165
978.47008	0.21326
977.18431	0.20566
975.89854	0.19893
974.61277	0.19306
973.32700	0.18805
972.04123	0.18397
970.75546	0.18095
969.46970	0.17912
968.18393	0.17850
966.89816	0.17900
965.61239	0.18042
964.32662	0.18242
963.04085	0.18452
961.75508	0.18618
960.46931	0.18686
959.18354	0.18622
957.89778	0.18419
956.61201	0.18092
955.32624	0.17672
954.04047	0.17192
952.75470	0.16685
951.46893	0.16177
950.18316	0.15683
948.89739	0.15206
947.61163	0.14743
946.32586	0.14286
945.04009	0.13839
943.75432	0.13408
942.46855	0.12995
941.18278	0.12594
939.89701	0.12201
938.61124	0.11821
937.32547	0.11469
936.03971	0.11149
934.75394	0.10855
933.46817	0.10581
932.18240	0.10327
930.89663	0.10095
929.61086	0.09884
928.32509	0.09688
927.03932	0.09500
925.75356	0.09317
924.46779	0.09140
923.18202	0.08975
921.89625	0.08827
920.61048	0.08696
919.32471	0.08569
918.03894	0.08441
916.75317	0.08311
915.46740	0.08189
914.18164	0.08081
912.89587	0.07983
911.61010	0.07888
910.32433	0.07796
909.03856	0.07710
907.75279	0.07632
906.46702	0.07556
905.18125	0.07476
903.89549	0.07392
902.60972	0.07308
901.32395	0.07234
900.03818	0.07170
898.75241	0.07112
897.46664	0.07054
896.18087	0.06997
894.89510	0.06946
893.60933	0.06904
892.32357	0.06876
891.03780	0.06870
889.75203	0.06892
888.46626	0.06952
887.18049	0.07067
885.89472	0.07270
884.60895	0.07603
883.32318	0.08079
882.03742	0.08657
880.75165	0.09234
879.46588	0.09705
878.18011	0.10033
876.89434	0.10273
875.60857	0.10521
874.32280	0.10814
873.03703	0.11096
871.75126	0.11267
870.46550	0.11263
869.17973	0.11084
867.89396	0.10763
866.60819	0.10343
865.32242	0.09868
864.03665	0.09383
862.75088	0.08924
861.46511	0.08513
860.17935	0.08155
858.89358	0.07848
857.60781	0.07590
856.32204	0.07384
855.03627	0.07223
853.75050	0.07093
852.46473	0.06976
851.17896	0.06862
849.89319	0.06753
848.60743	0.06653
847.32166	0.06565
846.03589	0.06489
844.75012	0.06418
843.46435	0.06350
842.17858	0.06282
840.89281	0.06216
839.60704	0.06151
838.32128	0.06090
837.03551	0.06036
835.74974	0.05987
834.46397	0.05942
833.17820	0.05901
831.89243	0.05861
830.60666	0.05818
829.32089	0.05777
828.03512	0.05744
826.74936	0.05721
825.46359	0.05700
824.17782	0.05675
822.89205	0.05645
821.60628	0.05616
820.32051	0.05594
819.03474	0.05580
817.74897	0.05569
816.46321	0.05558
815.17744	0.05543
813.89167	0.05525
812.60590	0.05508
811.32013	0.05495
810.03436	0.05484
808.74859	0.05472
807.46282	0.05457
806.17705	0.05434
804.89129	0.05406
803.60552	0.05374
802.31975	0.05344
801.03398	0.05314
799.74821	0.05284
798.46244	0.05257
797.17667	0.05237
795.89090	0.05226
794.60513	0.05215
793.31937	0.05195
792.03360	0.05168
790.74783	0.05142
789.46206	0.05125
788.17629	0.05118
786.89052	0.05118
785.60475	0.05123
784.31898	0.05129
783.03322	0.05126
781.74745	0.05104
780.46168	0.05065
779.17591	0.05021
777.89014	0.04987
776.60437	0.04970
775.31860	0.04968
774.03283	0.04973
772.74706	0.04981
771.46130	0.04991
770.17553	0.04997
768.88976	0.04997
767.60399	0.04994
766.31822	0.04996
765.03245	0.05002
763.74668	0.05006
762.46091	0.05008
761.17515	0.05011
759.88938	0.05020
758.60361	0.05028
757.31784	0.05032
756.03207	0.05036
754.74630	0.05041
753.46053	0.05047
752.17476	0.05050
750.88899	0.05047
749.60323	0.05037
748.31746	0.05022
747.03169	0.05009
745.74592	0.04995
744.46015	0.04977
743.17438	0.04950
741.88861	0.04918
740.60284	0.04890
739.31708	0.04866
738.03131	0.04848
736.74554	0.04834
735.45977	0.04824
734.17400	0.04815
732.88823	0.04808
731.60246	0.04805
730.31669	0.04808
729.03092	0.04810
727.74516	0.04809
726.45939	0.04804
725.17362	0.04802
723.88785	0.04802
722.60208	0.04818
721.31631	0.04837
720.03054	0.04846
718.74477	0.04842
717.45901	0.04827
716.17324	0.04807
714.88747	0.04783
713.60170	0.04759
712.31593	0.04735
711.03016	0.04713
709.74439	0.04695
708.45862	0.04681
707.17285	0.04672
705.88709	0.04666
704.60132	0.04662
703.31555	0.04658
702.02978	0.04654
700.74401	0.04648
699.45824	0.04640
698.17247	0.04632
696.88670	0.04623
695.60094	0.04616
694.31517	0.04611
693.02940	0.04607
691.74363	0.04606
690.45786	0.04610
689.17209	0.04618
687.88632	0.04626
686.60055	0.04624
685.31478	0.04608
684.02902	0.04584
682.74325	0.04560
681.45748	0.04540
680.17171	0.04527
678.88594	0.04518
677.60017	0.04512
676.31440	0.04508
675.02863	0.04509
673.74287	0.04519
672.45710	0.04535
671.17133	0.04557
669.88556	0.04582
668.59979	0.04601
667.31402	0.04604
666.02825	0.04585
664.74248	0.04548
663.45671	0.04506
662.17095	0.04471
660.88518	0.04443
659.59941	0.04420
658.31364	0.04401
657.02787	0.04387
655.74210	0.04382
654.45633	0.04385
653.17056	0.04391
651.88480	0.04396
650.59903	0.04394
649.31326	0.04388
648.02749	0.04383
646.74172	0.04389
645.45595	0.04409
644.17018	0.04438
642.88441	0.04466
641.59864	0.04486
640.31288	0.04505
639.02711	0.04529
637.74134	0.04562
636.45557	0.04603
635.16980	0.04652
633.88403	0.04711
632.59826	0.04783
631.31249	0.04866
630.02673	0.04957
628.74096	0.05053
627.45519	0.05155
626.16942	0.05270
624.88365	0.05424
623.59788	0.05665
622.31211	0.06014
621.02634	0.06421
619.74057	0.06812
618.45481	0.07200
617.16904	0.07664
615.88327	0.08225
614.59750	0.08794
613.31173	0.09304
612.02596	0.09832
610.74019	0.10529
609.45442	0.11408
608.16866	0.12305
606.88289	0.13101
605.59712	0.13846
604.31135	0.14601
603.02558	0.15272
601.73981	0.15682
600.45404	0.15744
599.16827	0.15519
597.88250	0.15128
596.59674	0.14671
595.31097	0.14206
594.02520	0.13765
592.73943	0.13375
591.45366	0.13066
590.16789	0.12861
588.88212	0.12773
587.59635	0.12804
586.31059	0.12942
585.02482	0.13171
583.73905	0.13465
582.45328	0.13799
581.16751	0.14162
579.88174	0.14554
578.59597	0.14985
577.31020	0.15457
576.02443	0.15949
574.73867	0.16427
573.45290	0.16875
572.16713	0.17308
570.88136	0.17764
569.59559	0.18288
568.30982	0.18915
567.02405	0.19654
565.73828	0.20469
564.45251	0.21278
563.16675	0.21970
561.88098	0.22441
560.59521	0.22611
559.30944	0.22443
558.02367	0.21943
556.73790	0.21165
555.45213	0.20193
554.16636	0.19116
552.88060	0.18003
551.59483	0.16907
550.30906	0.15867
549.02329	0.14916
547.73752	0.14067
546.45175	0.13309
545.16598	0.12619
543.88021	0.11982
542.59444	0.11397
541.30868	0.10865
540.02291	0.10382
538.73714	0.09938
537.45137	0.09531
536.16560	0.09166
534.87983	0.08846
533.59406	0.08557
532.30829	0.08279
531.02253	0.08002
529.73676	0.07731
528.45099	0.07481
527.16522	0.07259
525.87945	0.07059
524.59368	0.06868
523.30791	0.06685
522.02214	0.06506
520.73637	0.06331
519.45061	0.06159
518.16484	0.05994
516.87907	0.05841
515.59330	0.05704
514.30753	0.05581
513.02176	0.05472
511.73599	0.05373
510.45022	0.05281
509.16446	0.05193
507.87869	0.05104
506.59292	0.05013
505.30715	0.04914
504.02138	0.04811
502.73561	0.04713
501.44984	0.04633
500.16407	0.04571
498.87830	0.04523
497.59254	0.04478
496.30677	0.04427
495.02100	0.04372
493.73523	0.04321
492.44946	0.04279
491.16369	0.04245
489.87792	0.04213
488.59215	0.04182
487.30639	0.04154
486.02062	0.04133
484.73485	0.04120
483.44908	0.04115
482.16331	0.04120
480.87754	0.04133
479.59177	0.04155
478.30600	0.04185
477.02023	0.04221
475.73447	0.04255
474.44870	0.04281
473.16293	0.04299
471.87716	0.04311
470.59139	0.04319
469.30562	0.04313
468.01985	0.04286
466.73408	0.04240
465.44832	0.04189
464.16255	0.04144
462.87678	0.04102
461.59101	0.04054
460.30524	0.03998
459.01947	0.03938
457.73370	0.03880
456.44793	0.03830
455.16216	0.03783
453.87640	0.03735
452.59063	0.03682
451.30486	0.03626
450.01909	0.03575
448.73332	0.03537
447.44755	0.03511
446.16178	0.03492
444.87601	0.03473
443.59025	0.03451
442.30448	0.03426
441.01871	0.03404
439.73294	0.03388
438.44717	0.03383
437.16140	0.03386
435.87563	0.03393
434.58986	0.03391
433.30409	0.03377
432.01833	0.03351
430.73256	0.03324
429.44679	0.03302
428.16102	0.03288
426.87525	0.03277
425.58948	0.03262
424.30371	0.03238
423.01794	0.03209
421.73218	0.03178
420.44641	0.03151
419.16064	0.03132
417.87487	0.03122
416.58910	0.03118
415.30333	0.03117
414.01756	0.03112
412.73179	0.03106
411.44602	0.03101
410.16026	0.03099
408.87449	0.03102
407.58872	0.03109
406.30295	0.03122
405.01718	0.03142
403.73141	0.03163
402.44564	0.03179
401.15987	0.03184
399.87411	0.03183
