3997.45528	-0.02558
3996.16951	-0.02511
3994.88374	-0.02492
3993.59798	-0.02513
3992.31221	-0.02560
3991.02644	-0.02599
3989.74067	-0.02596
3988.45490	-0.02540
3987.16913	-0.02461
3985.88336	-0.02410
3984.59759	-0.02415
3983.31183	-0.02450
3982.02606	-0.02459
3980.74029	-0.02408
3979.45452	-0.02310
3978.16875	-0.02203
3976.88298	-0.02121
3975.59721	-0.02074
3974.31144	-0.02039
3973.02567	-0.01980
3971.73991	-0.01882
3970.45414	-0.01773
3969.16837	-0.01711
3967.88260	-0.01726
3966.59683	-0.01806
3965.31106	-0.01906
3964.02529	-0.01984
3962.73952	-0.02011
3961.45376	-0.01978
3960.16799	-0.01900
3958.88222	-0.01803
3957.59645	-0.01715
3956.31068	-0.01648
3955.02491	-0.01606
3953.73914	-0.01581
3952.45337	-0.01572
3951.16760	-0.01580
3949.88184	-0.01606
3948.59607	-0.01636
3947.31030	-0.01650
3946.02453	-0.01635
3944.73876	-0.01603
3943.45299	-0.01569
3942.16722	-0.01542
3940.88145	-0.01530
3939.59569	-0.01536
3938.30992	-0.01558
3937.02415	-0.01587
3935.73838	-0.01619
3934.45261	-0.01652
3933.16684	-0.01681
3931.88107	-0.01694
3930.59530	-0.01687
3929.30953	-0.01658
3928.02377	-0.01607
3926.73800	-0.01531
3925.45223	-0.01432
3924.16646	-0.01317
3922.88069	-0.01221
3921.59492	-0.01188
3920.30915	-0.01229
3919.02338	-0.01313
3917.73762	-0.01384
3916.45185	-0.01401
3915.16608	-0.01368
3913.88031	-0.01322
3912.59454	-0.01289
3911.30877	-0.01280
3910.02300	-0.01299
3908.73723	-0.01347
3907.45146	-0.01414
3906.16570	-0.01481
3904.87993	-0.01516
3903.59416	-0.01504
3902.30839	-0.01461
3901.02262	-0.01426
3899.73685	-0.01413
3898.45108	-0.01401
3897.16531	-0.01370
3895.87955	-0.01314
3894.59378	-0.01252
3893.30801	-0.01213
3892.02224	-0.01199
3890.73647	-0.01180
3889.45070	-0.01158
3888.16493	-0.01182
3886.87916	-0.01248
3885.59339	-0.01273
3884.30763	-0.01209
3883.02186	-0.01115
3881.73609	-0.01072
3880.45032	-0.01088
3879.16455	-0.01125
3877.87878	-0.01161
3876.59301	-0.01184
3875.30724	-0.01166
3874.02148	-0.01104
3872.73571	-0.01048
3871.44994	-0.01050
3870.16417	-0.01082
3868.87840	-0.01083
3867.59263	-0.01051
3866.30686	-0.01017
3865.02109	-0.00993
3863.73532	-0.00992
3862.44956	-0.01025
3861.16379	-0.01059
3859.87802	-0.01038
3858.59225	-0.00959
3857.30648	-0.00898
3856.02071	-0.00916
3854.73494	-0.00961
3853.44917	-0.00914
3852.16341	-0.00752
3850.87764	-0.00587
3849.59187	-0.00520
3848.30610	-0.00549
3847.02033	-0.00624
3845.73456	-0.00707
3844.44879	-0.00784
3843.16302	-0.00848
3841.87725	-0.00899
3840.59149	-0.00951
3839.30572	-0.00987
3838.01995	-0.00969
3836.73418	-0.00879
3835.44841	-0.00768
3834.16264	-0.00702
3832.87687	-0.00701
3831.59110	-0.00740
3830.30534	-0.00789
3829.01957	-0.00826
3827.73380	-0.00840
3826.44803	-0.00833
3825.16226	-0.00830
3823.87649	-0.00854
3822.59072	-0.00872
3821.30495	-0.00807
3820.01918	-0.00657
3818.73342	-0.00530
3817.44765	-0.00510
3816.16188	-0.00548
3814.87611	-0.00568
3813.59034	-0.00598
3812.30457	-0.00692
3811.01880	-0.00833
3809.73303	-0.00965
3808.44726	-0.01036
3807.16150	-0.00998
3805.87573	-0.00862
3804.58996	-0.00735
3803.30419	-0.00701
3802.01842	-0.00715
3800.73265	-0.00676
3799.44688	-0.00594
3798.16111	-0.00560
3796.87535	-0.00603
3795.58958	-0.00674
3794.30381	-0.00732
3793.01804	-0.00764
3791.73227	-0.00766
3790.44650	-0.00739
3789.16073	-0.00695
3787.87496	-0.00652
3786.58919	-0.00624
3785.30343	-0.00616
3784.01766	-0.00620
3782.73189	-0.00621
3781.44612	-0.00607
3780.16035	-0.00570
3778.87458	-0.00515
3777.58881	-0.00468
3776.30304	-0.00455
3775.01728	-0.00467
3773.73151	-0.00486
3772.44574	-0.00511
3771.15997	-0.00550
3769.87420	-0.00589
3768.58843	-0.00606
3767.30266	-0.00598
3766.01689	-0.00569
3764.73112	-0.00541
3763.44536	-0.00559
3762.15959	-0.00642
3760.87382	-0.00741
3759.58805	-0.00779
3758.30228	-0.00733
3757.01651	-0.00652
3755.73074	-0.00613
3754.44497	-0.00662
3753.15921	-0.00763
3751.87344	-0.00828
3750.58767	-0.00806
3749.30190	-0.00724
3748.01613	-0.00662
3746.73036	-0.00700
3745.44459	-0.00804
3744.15882	-0.00836
3742.87305	-0.00760
3741.58729	-0.00696
3740.30152	-0.00723
3739.01575	-0.00799
3737.72998	-0.00856
3736.44421	-0.00860
3735.15844	-0.00833
3733.87267	-0.00817
3732.58690	-0.00840
3731.30114	-0.00880
3730.01537	-0.00923
3728.72960	-0.01002
3727.44383	-0.01113
3726.15806	-0.01214
3724.87229	-0.01269
3723.58652	-0.01275
3722.30075	-0.01268
3721.01498	-0.01268
3719.72922	-0.01238
3718.44345	-0.01151
3717.15768	-0.01013
3715.87191	-0.00884
3714.58614	-0.00815
3713.30037	-0.00811
3712.01460	-0.00868
3710.72883	-0.00957
3709.44307	-0.01041
3708.15730	-0.01112
3706.87153	-0.01153
3705.58576	-0.01158
3704.29999	-0.01131
3703.01422	-0.01075
3701.72845	-0.01005
3700.44268	-0.00939
3699.15691	-0.00890
3697.87115	-0.00857
3696.58538	-0.00830
3695.29961	-0.00810
3694.01384	-0.00794
3692.72807	-0.00782
3691.44230	-0.00756
3690.15653	-0.00715
3688.87076	-0.00678
3687.58500	-0.00649
3686.29923	-0.00633
3685.01346	-0.00644
3683.72769	-0.00656
3682.44192	-0.00647
3681.15615	-0.00635
3679.87038	-0.00643
3678.58461	-0.00670
3677.29884	-0.00680
3676.01308	-0.00612
3674.72731	-0.00467
3673.44154	-0.00355
3672.15577	-0.00375
3670.87000	-0.00463
3669.58423	-0.00493
3668.29846	-0.00452
3667.01269	-0.00420
3665.72693	-0.00434
3664.44116	-0.00458
3663.15539	-0.00449
3661.86962	-0.00409
3660.58385	-0.00369
3659.29808	-0.00355
3658.01231	-0.00355
3656.72654	-0.00316
3655.44077	-0.00198
3654.15501	-0.00041
3652.86924	0.00067
3651.58347	0.00075
3650.29770	0.00015
3649.01193	-0.00044
3647.72616	-0.00047
3646.44039	0.00017
3645.15462	0.00105
3643.86886	0.00157
3642.58309	0.00145
3641.29732	0.00095
3640.01155	0.00049
3638.72578	0.00035
3637.44001	0.00051
3636.15424	0.00074
3634.86847	0.00086
3633.58270	0.00082
3632.29694	0.00065
3631.01117	0.00040
3629.72540	0.00029
3628.43963	0.00073
3627.15386	0.00152
3625.86809	0.00204
3624.58232	0.00203
3623.29655	0.00196
3622.01079	0.00216
3620.72502	0.00280
3619.43925	0.00378
3618.15348	0.00494
3616.86771	0.00593
3615.58194	0.00642
3614.29617	0.00657
3613.01040	0.00687
3611.72463	0.00735
3610.43887	0.00753
3609.15310	0.00720
3607.86733	0.00673
3606.58156	0.00657
3605.29579	0.00678
3604.01002	0.00735
3602.72425	0.00836
3601.43848	0.00955
3600.15272	0.01038
3598.86695	0.01044
3597.58118	0.00984
3596.29541	0.00891
3595.00964	0.00834
3593.72387	0.00849
3592.43810	0.00900
3591.15233	0.00954
3589.86656	0.00993
3588.58080	0.01018
3587.29503	0.01068
3586.00926	0.01137
3584.72349	0.01182
3583.43772	0.01200
3582.15195	0.01215
3580.86618	0.01242
3579.58041	0.01264
3578.29464	0.01269
3577.00888	0.01273
3575.72311	0.01300
3574.43734	0.01352
3573.15157	0.01406
3571.86580	0.01444
3570.58003	0.01459
3569.29426	0.01454
3568.00849	0.01442
3566.72273	0.01441
3565.43696	0.01469
3564.15119	0.01548
3562.86542	0.01670
3561.57965	0.01799
3560.29388	0.01895
3559.00811	0.01943
3557.72234	0.01963
3556.43657	0.01981
3555.15081	0.02002
3553.86504	0.02010
3552.57927	0.02005
3551.29350	0.02009
3550.00773	0.02038
3548.72196	0.02078
3547.43619	0.02095
3546.15042	0.02065
3544.86466	0.01985
3543.57889	0.01884
3542.29312	0.01814
3541.00735	0.01821
3539.72158	0.01910
3538.43581	0.02041
3537.15004	0.02167
3535.86427	0.02267
3534.57850	0.02344
3533.29274	0.02394
3532.00697	0.02418
3530.72120	0.02422
3529.43543	0.02428
3528.14966	0.02456
3526.86389	0.02506
3525.57812	0.02564
3524.29235	0.02608
3523.00659	0.02623
3521.72082	0.02605
3520.43505	0.02558
3519.14928	0.02504
3517.86351	0.02478
3516.57774	0.02513
3515.29197	0.02612
3514.00620	0.02741
3512.72043	0.02843
3511.43467	0.02879
3510.14890	0.02849
3508.86313	0.02783
3507.57736	0.02718
3506.29159	0.02681
3505.00582	0.02687
3503.72005	0.02724
3502.43428	0.02765
3501.14852	0.02793
3499.86275	0.02823
3498.57698	0.02883
3497.29121	0.02975
3496.00544	0.03075
3494.71967	0.03149
3493.43390	0.03183
3492.14813	0.03184
3490.86236	0.03168
3489.57660	0.03148
3488.29083	0.03127
3487.00506	0.03106
3485.71929	0.03101
3484.43352	0.03128
3483.14775	0.03188
3481.86198	0.03260
3480.57621	0.03315
3479.29045	0.03338
3478.00468	0.03342
3476.71891	0.03350
3475.43314	0.03371
3474.14737	0.03397
3472.86160	0.03413
3471.57583	0.03414
3470.29006	0.03405
3469.00429	0.03397
3467.71853	0.03400
3466.43276	0.03413
3465.14699	0.03431
3463.86122	0.03455
3462.57545	0.03483
3461.28968	0.03511
3460.00391	0.03527
3458.71814	0.03526
3457.43238	0.03519
3456.14661	0.03518
3454.86084	0.03528
3453.57507	0.03540
3452.28930	0.03553
3451.00353	0.03574
3449.71776	0.03608
3448.43199	0.03641
3447.14622	0.03650
3445.86046	0.03636
3444.57469	0.03622
3443.28892	0.03642
3442.00315	0.03710
3440.71738	0.03800
3439.43161	0.03869
3438.14584	0.03888
3436.86007	0.03857
3435.57431	0.03800
3434.28854	0.03755
3433.00277	0.03741
3431.71700	0.03757
3430.43123	0.03786
3429.14546	0.03823
3427.85969	0.03875
3426.57392	0.03955
3425.28815	0.04058
3424.00239	0.04152
3422.71662	0.04203
3421.43085	0.04201
3420.14508	0.04177
3418.85931	0.04166
3417.57354	0.04173
3416.28777	0.04179
3415.00200	0.04166
3413.71624	0.04140
3412.43047	0.04126
3411.14470	0.04144
3409.85893	0.04187
3408.57316	0.04231
3407.28739	0.04257
3406.00162	0.04268
3404.71585	0.04276
3403.43008	0.04284
3402.14432	0.04277
3400.85855	0.04241
3399.57278	0.04178
3398.28701	0.04119
3397.00124	0.04094
3395.71547	0.04116
3394.42970	0.04176
3393.14393	0.04247
3391.85817	0.04305
3390.57240	0.04339
3389.28663	0.04354
3388.00086	0.04368
3386.71509	0.04394
3385.42932	0.04428
3384.14355	0.04440
3382.85778	0.04409
3381.57201	0.04343
3380.28625	0.04276
3379.00048	0.04243
3377.71471	0.04254
3376.42894	0.04294
3375.14317	0.04337
3373.85740	0.04370
3372.57163	0.04396
3371.28586	0.04427
3370.00010	0.04463
3368.71433	0.04496
3367.42856	0.04518
3366.14279	0.04526
3364.85702	0.04523
3363.57125	0.04513
3362.28548	0.04498
3360.99971	0.04480
3359.71394	0.04467
3358.42818	0.04463
3357.14241	0.04467
3355.85664	0.04480
3354.57087	0.04507
3353.28510	0.04549
3351.99933	0.04586
3350.71356	0.04596
3349.42779	0.04576
3348.14202	0.04548
3346.85626	0.04529
3345.57049	0.04519
3344.28472	0.04517
3342.99895	0.04530
3341.71318	0.04566
3340.42741	0.04615
3339.14164	0.04643
3337.85587	0.04628
3336.57011	0.04580
3335.28434	0.04539
3333.99857	0.04530
3332.71280	0.04543
3331.42703	0.04545
3330.14126	0.04515
3328.85549	0.04470
3327.56972	0.04446
3326.28395	0.04474
3324.99819	0.04553
3323.71242	0.04652
3322.42665	0.04734
3321.14088	0.04775
3319.85511	0.04778
3318.56934	0.04753
3317.28357	0.04714
3315.99780	0.04663
3314.71204	0.04608
3313.42627	0.04567
3312.14050	0.04563
3310.85473	0.04591
3309.56896	0.04620
3308.28319	0.04618
3306.99742	0.04585
3305.71165	0.04552
3304.42588	0.04537
3303.14012	0.04524
3301.85435	0.04494
3300.56858	0.04450
3299.28281	0.04423
3297.99704	0.04437
3296.71127	0.04483
3295.42550	0.04540
3294.13973	0.04586
3292.85397	0.04609
3291.56820	0.04603
3290.28243	0.04576
3288.99666	0.04539
3287.71089	0.04504
3286.42512	0.04486
3285.13935	0.04497
3283.85358	0.04539
3282.56781	0.04591
3281.28205	0.04619
3279.99628	0.04605
3278.71051	0.04561
3277.42474	0.04522
3276.13897	0.04511
3274.85320	0.04529
3273.56743	0.04563
3272.28166	0.04600
3270.99590	0.04634
3269.71013	0.04663
3268.42436	0.04678
3267.13859	0.04668
3265.85282	0.04643
3264.56705	0.04620
3263.28128	0.04607
3261.99551	0.04599
3260.70974	0.04589
3259.42398	0.04597
3258.13821	0.04640
3256.85244	0.04710
3255.56667	0.04760
3254.28090	0.04747
3252.99513	0.04675
3251.70936	0.04585
3250.42359	0.04517
3249.13783	0.04484
3247.85206	0.04479
3246.56629	0.04495
3245.28052	0.04528
3243.99475	0.04566
3242.70898	0.04595
3241.42321	0.04602
3240.13744	0.04589
3238.85167	0.04569
3237.56591	0.04552
3236.28014	0.04549
3234.99437	0.04561
3233.70860	0.04585
3232.42283	0.04603
3231.13706	0.04600
3229.85129	0.04580
3228.56552	0.04564
3227.27976	0.04568
3225.99399	0.04587
3224.70822	0.04599
3223.42245	0.04588
3222.13668	0.04553
3220.85091	0.04507
3219.56514	0.04468
3218.27937	0.04450
3216.99360	0.04449
3215.70784	0.04459
3214.42207	0.04479
3213.13630	0.04515
3211.85053	0.04567
3210.56476	0.04613
3209.27899	0.04624
3207.99322	0.04585
3206.70745	0.04517
3205.42169	0.04464
3204.13592	0.04456
3202.85015	0.04488
3201.56438	0.04525
3200.27861	0.04537
3198.99284	0.04524
3197.70707	0.04504
3196.42130	0.04496
3195.13553	0.04500
3193.84977	0.04507
3192.56400	0.04511
3191.27823	0.04515
3189.99246	0.04518
3188.70669	0.04516
3187.42092	0.04507
3186.13515	0.04492
3184.84938	0.04477
3183.56362	0.04463
3182.27785	0.04458
3180.99208	0.04463
3179.70631	0.04470
3178.42054	0.04475
3177.13477	0.04477
3175.84900	0.04484
3174.56323	0.04493
3173.27746	0.04497
3171.99170	0.04485
3170.70593	0.04459
3169.42016	0.04430
3168.13439	0.04409
3166.84862	0.04408
3165.56285	0.04428
3164.27708	0.04459
3162.99131	0.04485
3161.70555	0.04491
3160.41978	0.04479
3159.13401	0.04462
3157.84824	0.04453
3156.56247	0.04448
3155.27670	0.04439
3153.99093	0.04417
3152.70516	0.04384
3151.41939	0.04352
3150.13363	0.04332
3148.84786	0.04332
3147.56209	0.04349
3146.27632	0.04372
3144.99055	0.04390
3143.70478	0.04396
3142.41901	0.04385
3141.13324	0.04361
3139.84748	0.04331
3138.56171	0.04307
3137.27594	0.04295
3135.99017	0.04293
3134.70440	0.04301
3133.41863	0.04314
3132.13286	0.04320
3130.84709	0.04299
3129.56132	0.04250
3128.27556	0.04198
3126.98979	0.04175
3125.70402	0.04192
3124.41825	0.04237
3123.13248	0.04292
3121.84671	0.04345
3120.56094	0.04374
3119.27517	0.04363
3117.98940	0.04316
3116.70364	0.04263
3115.41787	0.04232
3114.13210	0.04224
3112.84633	0.04220
3111.56056	0.04215
3110.27479	0.04221
3108.98902	0.04247
3107.70325	0.04279
3106.41749	0.04298
3105.13172	0.04305
3103.84595	0.04316
3102.56018	0.04338
3101.27441	0.04363
3099.98864	0.04373
3098.70287	0.04356
3097.41710	0.04310
3096.13133	0.04251
3094.84557	0.04201
3093.55980	0.04176
3092.27403	0.04176
3090.98826	0.04189
3089.70249	0.04205
3088.41672	0.04216
3087.13095	0.04220
3085.84518	0.04219
3084.55942	0.04221
3083.27365	0.04228
3081.98788	0.04233
3080.70211	0.04229
3079.41634	0.04210
3078.13057	0.04182
3076.84480	0.04153
3075.55903	0.04129
3074.27326	0.04109
3072.98750	0.04087
3071.70173	0.04058
3070.41596	0.04028
3069.13019	0.04009
3067.84442	0.04018
3066.55865	0.04054
3065.27288	0.04097
3063.98711	0.04124
3062.70135	0.04126
3061.41558	0.04109
3060.12981	0.04090
3058.84404	0.04081
3057.55827	0.04085
3056.27250	0.04094
3054.98673	0.04101
3053.70096	0.04105
3052.41519	0.04107
3051.12943	0.04111
3049.84366	0.04109
3048.55789	0.04099
3047.27212	0.04081
3045.98635	0.04064
3044.70058	0.04049
3043.41481	0.04031
3042.12904	0.04001
3040.84328	0.03959
3039.55751	0.03917
3038.27174	0.03891
3036.98597	0.03893
3035.70020	0.03919
3034.41443	0.03955
3033.12866	0.03989
3031.84289	0.04021
3030.55712	0.04053
3029.27136	0.04077
3027.98559	0.04074
3026.69982	0.04036
3025.41405	0.03982
3024.12828	0.03940
3022.84251	0.03932
3021.55674	0.03952
3020.27097	0.03980
3018.98521	0.03998
3017.69944	0.04003
3016.41367	0.03999
3015.12790	0.03990
3013.84213	0.03981
3012.55636	0.03976
3011.27059	0.03976
3009.98482	0.03979
3008.69905	0.03989
3007.41329	0.04007
3006.12752	0.04024
3004.84175	0.04019
3003.55598	0.03975
3002.27021	0.03903
3000.98444	0.03830
2999.69867	0.03788
2998.41290	0.03796
2997.12714	0.03839
2995.84137	0.03894
2994.55560	0.03934
2993.26983	0.03940
2991.98406	0.03916
2990.69829	0.03884
2989.41252	0.03866
2988.12675	0.03870
2986.84098	0.03895
2985.55522	0.03940
2984.26945	0.03994
2982.98368	0.04042
2981.69791	0.04076
2980.41214	0.04106
2979.12637	0.04143
2977.84060	0.04194
2976.55483	0.04252
2975.26907	0.04309
2973.98330	0.04363
2972.69753	0.04420
2971.41176	0.04487
2970.12599	0.04563
2968.84022	0.04643
2967.55445	0.04728
2966.26868	0.04823
2964.98291	0.04921
2963.69715	0.05008
2962.41138	0.05077
2961.12561	0.05142
2959.83984	0.05218
2958.55407	0.05305
2957.26830	0.05394
2955.98253	0.05473
2954.69676	0.05532
2953.41100	0.05566
2952.12523	0.05572
2950.83946	0.05560
2949.55369	0.05551
2948.26792	0.05561
2946.98215	0.05588
2945.69638	0.05612
2944.41061	0.05614
2943.12484	0.05591
2941.83908	0.05555
2940.55331	0.05531
2939.26754	0.05538
2937.98177	0.05586
2936.69600	0.05663
2935.41023	0.05748
2934.12446	0.05826
2932.83869	0.05895
2931.55293	0.05964
2930.26716	0.06036
2928.98139	0.06108
2927.69562	0.06181
2926.40985	0.06252
2925.12408	0.06314
2923.83831	0.06353
2922.55254	0.06365
2921.26677	0.06353
2919.98101	0.06322
2918.69524	0.06277
2917.40947	0.06217
2916.12370	0.06142
2914.83793	0.06057
2913.55216	0.05971
2912.26639	0.05898
2910.98062	0.05844
2909.69486	0.05804
2908.40909	0.05763
2907.12332	0.05712
2905.83755	0.05649
2904.55178	0.05583
2903.26601	0.05525
2901.98024	0.05480
2900.69447	0.05446
2899.40870	0.05417
2898.12294	0.05393
2896.83717	0.05373
2895.55140	0.05353
2894.26563	0.05316
2892.97986	0.05248
2891.69409	0.05153
2890.40832	0.05061
2889.12255	0.05002
2887.83678	0.04981
2886.55102	0.04978
2885.26525	0.04965
2883.97948	0.04928
2882.69371	0.04876
2881.40794	0.04828
2880.12217	0.04803
2878.83640	0.04817
2877.55063	0.04867
2876.26487	0.04936
2874.97910	0.05006
2873.69333	0.05061
2872.40756	0.05098
2871.12179	0.05117
2869.83602	0.05123
2868.55025	0.05120
2867.26448	0.05110
2865.97871	0.05095
2864.69295	0.05084
2863.40718	0.05086
2862.12141	0.05108
2860.83564	0.05148
2859.54987	0.05192
2858.26410	0.05222
2856.97833	0.05221
2855.69256	0.05184
2854.40680	0.05128
2853.12103	0.05081
2851.83526	0.05060
2850.54949	0.05054
2849.26372	0.05035
2847.97795	0.04986
2846.69218	0.04909
2845.40641	0.04818
2844.12064	0.04723
2842.83488	0.04634
2841.54911	0.04559
2840.26334	0.04500
2838.97757	0.04446
2837.69180	0.04389
2836.40603	0.04332
2835.12026	0.04284
2833.83449	0.04242
2832.54873	0.04198
2831.26296	0.04147
2829.97719	0.04095
2828.69142	0.04052
2827.40565	0.04023
2826.11988	0.04003
2824.83411	0.03981
2823.54834	0.03951
2822.26257	0.03921
2820.97681	0.03900
2819.69104	0.03886
2818.40527	0.03869
2817.11950	0.03848
2815.83373	0.03828
2814.54796	0.03811
2813.26219	0.03796
2811.97642	0.03778
2810.69066	0.03762
2809.40489	0.03754
2808.11912	0.03751
2806.83335	0.03744
2805.54758	0.03726
2804.26181	0.03697
2802.97604	0.03665
2801.69027	0.03640
2800.40450	0.03628
2799.11874	0.03631
2797.83297	0.03638
2796.54720	0.03640
2795.26143	0.03629
2793.97566	0.03604
2792.68989	0.03574
2791.40412	0.03549
2790.11835	0.03541
2788.83259	0.03553
2787.54682	0.03574
2786.26105	0.03592
2784.97528	0.03596
2783.68951	0.03586
2782.40374	0.03571
2781.11797	0.03558
2779.83220	0.03549
2778.54643	0.03537
2777.26067	0.03513
2775.97490	0.03482
2774.68913	0.03463
2773.40336	0.03470
2772.11759	0.03495
2770.83182	0.03514
2769.54605	0.03511
2768.26028	0.03492
2766.97452	0.03472
2765.68875	0.03466
2764.40298	0.03475
2763.11721	0.03490
2761.83144	0.03493
2760.54567	0.03476
2759.25990	0.03452
2757.97413	0.03439
2756.68836	0.03443
2755.40260	0.03444
2754.11683	0.03424
2752.83106	0.03391
2751.54529	0.03367
2750.25952	0.03364
2748.97375	0.03378
2747.68798	0.03396
2746.40221	0.03409
2745.11645	0.03416
2743.83068	0.03421
2742.54491	0.03420
2741.25914	0.03404
2739.97337	0.03376
2738.68760	0.03352
2737.40183	0.03346
2736.11606	0.03353
2734.83029	0.03360
2733.54453	0.03361
2732.25876	0.03351
2730.97299	0.03328
2729.68722	0.03296
2728.40145	0.03276
2727.11568	0.03283
2725.82991	0.03308
2724.54414	0.03326
2723.25838	0.03323
2721.97261	0.03307
2720.68684	0.03295
2719.40107	0.03294
2718.11530	0.03295
2716.82953	0.03292
2715.54376	0.03286
2714.25799	0.03281
2712.97222	0.03277
2711.68646	0.03271
2710.40069	0.03263
2709.11492	0.03256
2707.82915	0.03252
2706.54338	0.03254
2705.25761	0.03260
2703.97184	0.03266
2702.68607	0.03261
2701.40031	0.03237
2700.11454	0.03202
2698.82877	0.03170
2697.54300	0.03154
2696.25723	0.03157
2694.97146	0.03172
2693.68569	0.03193
2692.39992	0.03217
2691.11415	0.03243
2689.82839	0.03261
2688.54262	0.03263
2687.25685	0.03243
2685.97108	0.03209
2684.68531	0.03173
2683.39954	0.03143
2682.11377	0.03123
2680.82800	0.03115
2679.54224	0.03118
2678.25647	0.03125
2676.97070	0.03127
2675.68493	0.03124
2674.39916	0.03120
2673.11339	0.03120
2671.82762	0.03130
2670.54185	0.03151
2669.25608	0.03179
2667.97032	0.03199
2666.68455	0.03196
2665.39878	0.03169
2664.11301	0.03135
2662.82724	0.03117
2661.54147	0.03121
2660.25570	0.03141
2658.96993	0.03158
2657.68417	0.03160
2656.39840	0.03143
2655.11263	0.03114
2653.82686	0.03085
2652.54109	0.03062
2651.25532	0.03044
2649.96955	0.03031
2648.68378	0.03018
2647.39801	0.03004
2646.11225	0.02987
2644.82648	0.02969
2643.54071	0.02950
2642.25494	0.02932
2640.96917	0.02920
2639.68340	0.02915
2638.39763	0.02908
2637.11186	0.02887
2635.82609	0.02847
2634.54033	0.02800
2633.25456	0.02769
2631.96879	0.02769
2630.68302	0.02790
2629.39725	0.02810
2628.11148	0.02809
2626.82571	0.02786
2625.53994	0.02755
2624.25418	0.02725
2622.96841	0.02698
2621.68264	0.02668
2620.39687	0.02642
2619.11110	0.02631
2617.82533	0.02638
2616.53956	0.02653
2615.25379	0.02666
2613.96802	0.02667
2612.68226	0.02652
2611.39649	0.02627
2610.11072	0.02603
2608.82495	0.02590
2607.53918	0.02585
2606.25341	0.02575
2604.96764	0.02556
2603.68187	0.02531
2602.39611	0.02504
2601.11034	0.02474
2599.82457	0.02445
2598.53880	0.02423
2597.25303	0.02417
2595.96726	0.02421
2594.68149	0.02429
2593.39572	0.02438
2592.10995	0.02452
2590.82419	0.02472
2589.53842	0.02491
2588.25265	0.02502
2586.96688	0.02505
2585.68111	0.02500
2584.39534	0.02491
2583.10957	0.02480
2581.82380	0.02468
2580.53804	0.02457
2579.25227	0.02443
2577.96650	0.02422
2576.68073	0.02396
2575.39496	0.02376
2574.10919	0.02371
2572.82342	0.02371
2571.53765	0.02357
2570.25188	0.02318
2568.96612	0.02272
2567.68035	0.02251
2566.39458	0.02267
2565.10881	0.02299
2563.82304	0.02319
2562.53727	0.02328
2561.25150	0.02344
2559.96573	0.02369
2558.67997	0.02376
2557.39420	0.02346
2556.10843	0.02299
2554.82266	0.02273
2553.53689	0.02287
2552.25112	0.02324
2550.96535	0.02348
2549.67958	0.02333
2548.39381	0.02282
2547.10805	0.02223
2545.82228	0.02180
2544.53651	0.02154
2543.25074	0.02134
2541.96497	0.02119
2540.67920	0.02118
2539.39343	0.02129
2538.10766	0.02137
2536.82190	0.02128
2535.53613	0.02108
2534.25036	0.02101
2532.96459	0.02117
2531.67882	0.02140
2530.39305	0.02144
2529.10728	0.02132
2527.82151	0.02128
2526.53574	0.02144
2525.24998	0.02169
2523.96421	0.02190
2522.67844	0.02199
2521.39267	0.02190
2520.10690	0.02161
2518.82113	0.02124
2517.53536	0.02101
2516.24959	0.02100
2514.96383	0.02103
2513.67806	0.02093
2512.39229	0.02072
2511.10652	0.02061
2509.82075	0.02072
2508.53498	0.02099
2507.24921	0.02130
2505.96344	0.02164
2504.67767	0.02205
2503.39191	0.02244
2502.10614	0.02259
2500.82037	0.02237
2499.53460	0.02196
2498.24883	0.02171
2496.96306	0.02179
2495.67729	0.02206
2494.39152	0.02232
2493.10576	0.02244
2491.81999	0.02233
2490.53422	0.02196
2489.24845	0.02155
2487.96268	0.02142
2486.67691	0.02164
2485.39114	0.02186
2484.10537	0.02170
2482.81960	0.02118
2481.53384	0.02069
2480.24807	0.02053
2478.96230	0.02069
2477.67653	0.02089
2476.39076	0.02094
2475.10499	0.02088
2473.81922	0.02085
2472.53345	0.02090
2471.24769	0.02100
2469.96192	0.02105
2468.67615	0.02102
2467.39038	0.02104
2466.10461	0.02124
2464.81884	0.02151
2463.53307	0.02157
2462.24730	0.02129
2460.96153	0.02090
2459.67577	0.02078
2458.39000	0.02105
2457.10423	0.02156
2455.81846	0.02199
2454.53269	0.02214
2453.24692	0.02206
2451.96115	0.02198
2450.67538	0.02199
2449.38962	0.02198
2448.10385	0.02177
2446.81808	0.02142
2445.53231	0.02114
2444.24654	0.02108
2442.96077	0.02117
2441.67500	0.02123
2440.38923	0.02109
2439.10346	0.02076
2437.81770	0.02039
2436.53193	0.02012
2435.24616	0.01999
2433.96039	0.01998
2432.67462	0.02008
2431.38885	0.02019
2430.10308	0.02023
2428.81731	0.02017
2427.53155	0.02013
2426.24578	0.02018
2424.96001	0.02025
2423.67424	0.02021
2422.38847	0.02008
2421.10270	0.01996
2419.81693	0.01993
2418.53116	0.02001
2417.24539	0.02008
2415.95963	0.02003
2414.67386	0.01987
2413.38809	0.01975
2412.10232	0.01984
2410.81655	0.02019
2409.53078	0.02062
2408.24501	0.02093
2406.95924	0.02107
2405.67347	0.02114
2404.38771	0.02124
2403.10194	0.02136
2401.81617	0.02143
2400.53040	0.02146
2399.24463	0.02244
2397.95886	0.02296
2396.67309	0.02273
2395.38732	0.02214
2394.10156	0.02148
2392.81579	0.02086
2391.53002	0.02028
2390.24425	0.01973
2388.95848	0.01919
2387.67271	0.01864
2386.38694	0.01810
2385.10117	0.01763
2383.81540	0.01726
2382.52964	0.01705
2381.24387	0.01696
2379.95810	0.01701
2378.67233	0.01706
2377.38656	0.01688
2376.10079	0.01680
2374.81502	0.01675
2373.52925	0.01636
2372.24349	0.01557
2370.95772	0.01432
2369.67195	0.01338
2368.38618	0.01272
2367.10041	0.01137
2365.81464	0.00942
2364.52887	0.00796
2363.24310	0.00680
2361.95733	0.00543
2360.67157	0.00454
2359.38580	0.00536
2358.10003	0.00725
2356.81426	0.00917
2355.52849	0.01079
2354.24272	0.01177
2352.95695	0.01208
2351.67118	0.01101
2350.38542	0.00821
2349.09965	0.00640
2347.81388	0.00833
2346.52811	0.01185
2345.24234	0.01337
2343.95657	0.01297
2342.67080	0.01292
2341.38503	0.01341
2340.09926	0.01356
2338.81350	0.01341
2337.52773	0.01292
2336.24196	0.01265
2334.95619	0.01242
2333.67042	0.01209
2332.38465	0.01233
2331.09888	0.01270
2329.81311	0.01281
2328.52735	0.01335
2327.24158	0.01406
2325.95581	0.01485
2324.67004	0.01620
2323.38427	0.01763
2322.09850	0.01867
2320.81273	0.01937
2319.52696	0.01919
2318.24119	0.01825
2316.95543	0.01754
2315.66966	0.01756
2314.38389	0.01811
2313.09812	0.01858
2311.81235	0.01880
2310.52658	0.01886
2309.24081	0.01882
2307.95504	0.01885
2306.66928	0.01896
2305.38351	0.01888
2304.09774	0.01866
2302.81197	0.01847
2301.52620	0.01831
2300.24043	0.01807
2298.95466	0.01782
2297.66889	0.01767
2296.38312	0.01758
2295.09736	0.01752
2293.81159	0.01742
2292.52582	0.01736
2291.24005	0.01743
2289.95428	0.01756
2288.66851	0.01758
2287.38274	0.01744
2286.09697	0.01725
2284.81121	0.01722
2283.52544	0.01749
2282.23967	0.01803
2280.95390	0.01856
2279.66813	0.01883
2278.38236	0.01870
2277.09659	0.01825
2275.81082	0.01765
2274.52505	0.01702
2273.23929	0.01640
2271.95352	0.01582
2270.66775	0.01536
2269.38198	0.01516
2268.09621	0.01524
2266.81044	0.01539
2265.52467	0.01543
2264.23890	0.01532
2262.95314	0.01513
2261.66737	0.01496
2260.38160	0.01482
2259.09583	0.01466
2257.81006	0.01459
2256.52429	0.01463
2255.23852	0.01469
2253.95275	0.01464
2252.66698	0.01454
2251.38122	0.01455
2250.09545	0.01480
2248.80968	0.01506
2247.52391	0.01429
2246.23814	0.01321
2244.95237	0.01250
2243.66660	0.01247
2242.38083	0.01293
2241.09507	0.01331
2239.80930	0.01325
2238.52353	0.01279
2237.23776	0.01233
2235.95199	0.01210
2234.66622	0.01202
2233.38045	0.01198
2232.09468	0.01223
2230.80891	0.01300
2229.52315	0.01398
2228.23738	0.01449
2226.95161	0.01422
2225.66584	0.01354
2224.38007	0.01296
2223.09430	0.01250
2221.80853	0.01187
2220.52276	0.01107
2219.23700	0.01054
2217.95123	0.01062
2216.66546	0.01101
2215.37969	0.01110
2214.09392	0.01053
2212.80815	0.00955
2211.52238	0.00869
2210.23661	0.00833
2208.95084	0.00852
2207.66508	0.00906
2206.37931	0.00972
2205.09354	0.01024
2203.80777	0.01029
2202.52200	0.00964
2201.23623	0.00850
2199.95046	0.00743
2198.66469	0.00674
2197.37893	0.00636
2196.09316	0.00624
2194.80739	0.00661
2193.52162	0.00757
2192.23585	0.00862
2190.95008	0.00900
2189.66431	0.00833
2188.37854	0.00699
2187.09277	0.00576
2185.80701	0.00514
2184.52124	0.00496
2183.23547	0.00479
2181.94970	0.00450
2180.66393	0.00431
2179.37816	0.00439
2178.09239	0.00458
2176.80662	0.00451
2175.52085	0.00394
2174.23509	0.00307
2172.94932	0.00255
2171.66355	0.00300
2170.37778	0.00450
2169.09201	0.00646
2167.80624	0.00792
2166.52047	0.00809
2165.23470	0.00695
2163.94894	0.00525
2162.66317	0.00392
2161.37740	0.00317
2160.09163	0.00245
2158.80586	0.00122
2157.52009	-0.00026
2156.23432	-0.00116
2154.94855	-0.00092
2153.66278	0.00044
2152.37702	0.00242
2151.09125	0.00436
2149.80548	0.00577
2148.51971	0.00654
2147.23394	0.00684
2145.94817	0.00684
2144.66240	0.00661
2143.37663	0.00639
2142.09087	0.00668
2140.80510	0.00774
2139.51933	0.00917
2138.23356	0.01013
2136.94779	0.01006
2135.66202	0.00915
2134.37625	0.00811
2133.09048	0.00765
2131.80471	0.00799
2130.51895	0.00876
2129.23318	0.00934
2127.94741	0.00940
2126.66164	0.00910
2125.37587	0.00886
2124.09010	0.00889
2122.80433	0.00911
2121.51856	0.00941
2120.23280	0.00975
2118.94703	0.01010
2117.66126	0.01022
2116.37549	0.00994
2115.08972	0.00948
2113.80395	0.00925
2112.51818	0.00934
2111.23241	0.00947
2109.94664	0.00953
2108.66088	0.00978
2107.37511	0.01048
2106.08934	0.01138
2104.80357	0.01196
2103.51780	0.01199
2102.23203	0.01168
2100.94626	0.01133
2099.66049	0.01123
2098.37473	0.01062
2097.08896	0.00956
2095.80319	0.00863
2094.51742	0.00835
2093.23165	0.00876
2091.94588	0.00940
2090.66011	0.00971
2089.37434	0.00952
2088.08857	0.00916
2086.80281	0.00895
2085.51704	0.00897
2084.23127	0.00906
2082.94550	0.00921
2081.65973	0.00952
2080.37396	0.00999
2079.08819	0.01029
2077.80242	0.01006
2076.51666	0.00931
2075.23089	0.00839
2073.94512	0.00775
2072.65935	0.00753
2071.37358	0.00761
2070.08781	0.00785
2068.80204	0.00822
2067.51627	0.00869
2066.23050	0.00901
2064.94474	0.00892
2063.65897	0.00846
2062.37320	0.00791
2061.08743	0.00755
2059.80166	0.00738
2058.51589	0.00724
2057.23012	0.00698
2055.94435	0.00659
2054.65859	0.00614
2053.37282	0.00576
2052.08705	0.00556
2050.80128	0.00562
2049.51551	0.00588
2048.22974	0.00611
2046.94397	0.00595
2045.65820	0.00523
2044.37243	0.00418
2043.08667	0.00332
2041.80090	0.00306
2040.51513	0.00332
2039.22936	0.00364
2037.94359	0.00363
2036.65782	0.00327
2035.37205	0.00283
2034.08628	0.00258
2032.80052	0.00257
2031.51475	0.00258
2030.22898	0.00229
2028.94321	0.00166
2027.65744	0.00106
2026.37167	0.00090
2025.08590	0.00121
2023.80013	0.00167
2022.51436	0.00202
2021.22860	0.00229
2019.94283	0.00268
2018.65706	0.00331
2017.37129	0.00420
2016.08552	0.00508
2014.79975	0.00555
2013.51398	0.00545
2012.22821	0.00515
2010.94245	0.00512
2009.65668	0.00534
2008.37091	0.00531
2007.08514	0.00480
2005.79937	0.00420
2004.51360	0.00406
2003.22783	0.00446
2001.94206	0.00501
2000.65629	0.00533
1999.37053	0.00547
1998.08476	0.00573
1996.79899	0.00632
1995.51322	0.00703
1994.22745	0.00751
1992.94168	0.00757
1991.65591	0.00731
1990.37014	0.00689
1989.08438	0.00654
1987.79861	0.00656
1986.51284	0.00717
1985.22707	0.00814
1983.94130	0.00894
1982.65553	0.00912
1981.36976	0.00864
1980.08399	0.00779
1978.79822	0.00695
1977.51246	0.00644
1976.22669	0.00641
1974.94092	0.00675
1973.65515	0.00717
1972.36938	0.00742
1971.08361	0.00745
1969.79784	0.00742
1968.51207	0.00753
1967.22631	0.00791
1965.94054	0.00845
1964.65477	0.00884
1963.36900	0.00885
1962.08323	0.00856
1960.79746	0.00833
1959.51169	0.00839
1958.22592	0.00858
1956.94015	0.00858
1955.65439	0.00844
1954.36862	0.00858
1953.08285	0.00930
1951.79708	0.01033
1950.51131	0.01107
1949.22554	0.01111
1947.93977	0.01054
1946.65400	0.00978
1945.36823	0.00921
1944.08247	0.00904
1942.79670	0.00931
1941.51093	0.00989
1940.22516	0.01052
1938.93939	0.01097
1937.65362	0.01127
1936.36785	0.01162
1935.08208	0.01209
1933.79632	0.01248
1932.51055	0.01255
1931.22478	0.01226
1929.93901	0.01184
1928.65324	0.01153
1927.36747	0.01136
1926.08170	0.01122
1924.79593	0.01105
1923.51016	0.01093
1922.22440	0.01102
1920.93863	0.01126
1919.65286	0.01149
1918.36709	0.01160
1917.08132	0.01168
1915.79555	0.01182
1914.50978	0.01205
1913.22401	0.01227
1911.93825	0.01231
1910.65248	0.01207
1909.36671	0.01174
1908.08094	0.01163
1906.79517	0.01190
1905.50940	0.01239
1904.22363	0.01277
1902.93786	0.01286
1901.65209	0.01277
1900.36633	0.01272
1899.08056	0.01278
1897.79479	0.01286
1896.50902	0.01282
1895.22325	0.01270
1893.93748	0.01268
1892.65171	0.01277
1891.36594	0.01285
1890.08018	0.01281
1888.79441	0.01272
1887.50864	0.01277
1886.22287	0.01301
1884.93710	0.01333
1883.65133	0.01352
1882.36556	0.01344
1881.07979	0.01316
1879.79402	0.01288
1878.50826	0.01276
1877.22249	0.01286
1875.93672	0.01312
1874.65095	0.01343
1873.36518	0.01371
1872.07941	0.01390
1870.79364	0.01396
1869.50787	0.01389
1868.22211	0.01371
1866.93634	0.01349
1865.65057	0.01332
1864.36480	0.01327
1863.07903	0.01331
1861.79326	0.01335
1860.50749	0.01328
1859.22172	0.01319
1857.93595	0.01320
1856.65019	0.01338
1855.36442	0.01360
1854.07865	0.01369
1852.79288	0.01357
1851.50711	0.01332
1850.22134	0.01310
1848.93557	0.01305
1847.64980	0.01316
1846.36404	0.01329
1845.07827	0.01341
1843.79250	0.01357
1842.50673	0.01376
1841.22096	0.01379
1839.93519	0.01362
1838.64942	0.01342
1837.36365	0.01335
1836.07788	0.01338
1834.79212	0.01341
1833.50635	0.01344
1832.22058	0.01347
1830.93481	0.01353
1829.64904	0.01366
1828.36327	0.01378
1827.07750	0.01378
1825.79173	0.01368
1824.50597	0.01361
1823.22020	0.01366
1821.93443	0.01378
1820.64866	0.01384
1819.36289	0.01374
1818.07712	0.01352
1816.79135	0.01336
1815.50558	0.01340
1814.21981	0.01363
1812.93405	0.01387
1811.64828	0.01399
1810.36251	0.01398
1809.07674	0.01393
1807.79097	0.01392
1806.50520	0.01399
1805.21943	0.01413
1803.93366	0.01428
1802.64790	0.01439
1801.36213	0.01446
1800.07636	0.01449
1798.79059	0.01451
1797.50482	0.01455
1796.21905	0.01465
1794.93328	0.01477
1793.64751	0.01485
1792.36174	0.01494
1791.07598	0.01508
1789.79021	0.01520
1788.50444	0.01519
1787.21867	0.01505
1785.93290	0.01485
1784.64713	0.01473
1783.36136	0.01472
1782.07559	0.01477
1780.78983	0.01485
1779.50406	0.01496
1778.21829	0.01512
1776.93252	0.01534
1775.64675	0.01559
1774.36098	0.01576
1773.07521	0.01582
1771.78944	0.01584
1770.50367	0.01583
1769.21791	0.01573
1767.93214	0.01561
1766.64637	0.01560
1765.36060	0.01568
1764.07483	0.01575
1762.78906	0.01580
1761.50329	0.01591
1760.21752	0.01606
1758.93176	0.01614
1757.64599	0.01611
1756.36022	0.01610
1755.07445	0.01621
1753.78868	0.01631
1752.50291	0.01632
1751.21714	0.01628
1749.93137	0.01625
1748.64560	0.01621
1747.35984	0.01614
1746.07407	0.01611
1744.78830	0.01615
1743.50253	0.01622
1742.21676	0.01629
1740.93099	0.01637
1739.64522	0.01656
1738.35945	0.01693
1737.07369	0.01730
1735.78792	0.01746
1734.50215	0.01752
1733.21638	0.01768
1731.93061	0.01782
1730.64484	0.01771
1729.35907	0.01743
1728.07330	0.01724
1726.78753	0.01722
1725.50177	0.01730
1724.21600	0.01743
1722.93023	0.01766
1721.64446	0.01804
1720.35869	0.01849
1719.07292	0.01891
1717.78715	0.01932
1716.50138	0.01973
1715.21561	0.02002
1713.92985	0.02009
1712.64408	0.02004
1711.35831	0.02003
1710.07254	0.02015
1708.78677	0.02040
1707.50100	0.02069
1706.21523	0.02103
1704.92946	0.02155
1703.64370	0.02218
1702.35793	0.02265
1701.07216	0.02297
1699.78639	0.02337
1698.50062	0.02372
1697.21485	0.02369
1695.92908	0.02336
1694.64331	0.02314
1693.35754	0.02311
1692.07178	0.02308
1690.78601	0.02312
1689.50024	0.02344
1688.21447	0.02395
1686.92870	0.02439
1685.64293	0.02460
1684.35716	0.02475
1683.07139	0.02490
1681.78563	0.02487
1680.49986	0.02467
1679.21409	0.02458
1677.92832	0.02473
1676.64255	0.02499
1675.35678	0.02530
1674.07101	0.02566
1672.78524	0.02598
1671.49947	0.02613
1670.21371	0.02616
1668.92794	0.02624
1667.64217	0.02640
1666.35640	0.02655
1665.07063	0.02662
1663.78486	0.02665
1662.49909	0.02675
1661.21332	0.02692
1659.92756	0.02715
1658.64179	0.02750
1657.35602	0.02804
1656.07025	0.02857
1654.78448	0.02881
1653.49871	0.02887
1652.21294	0.02904
1650.92717	0.02929
1649.64140	0.02930
1648.35564	0.02902
1647.06987	0.02873
1645.78410	0.02860
1644.49833	0.02857
1643.21256	0.02852
1641.92679	0.02849
1640.64102	0.02860
1639.35525	0.02886
1638.06949	0.02910
1636.78372	0.02921
1635.49795	0.02928
1634.21218	0.02939
1632.92641	0.02945
1631.64064	0.02938
1630.35487	0.02931
1629.06910	0.02936
1627.78333	0.02956
1626.49757	0.02981
1625.21180	0.02998
1623.92603	0.03006
1622.64026	0.03018
1621.35449	0.03040
1620.06872	0.03063
1618.78295	0.03074
1617.49718	0.03078
1616.21142	0.03089
1614.92565	0.03101
1613.63988	0.03100
1612.35411	0.03089
1611.06834	0.03088
1609.78257	0.03105
1608.49680	0.03132
1607.21103	0.03156
1605.92526	0.03173
1604.63950	0.03185
1603.35373	0.03197
1602.06796	0.03211
1600.78219	0.03226
1599.49642	0.03240
1598.21065	0.03249
1596.92488	0.03252
1595.63911	0.03252
1594.35335	0.03253
1593.06758	0.03257
1591.78181	0.03264
1590.49604	0.03269
1589.21027	0.03274
1587.92450	0.03283
1586.63873	0.03297
1585.35296	0.03311
1584.06719	0.03320
1582.78143	0.03325
1581.49566	0.03335
1580.20989	0.03357
1578.92412	0.03381
1577.63835	0.03394
1576.35258	0.03402
1575.06681	0.03421
1573.78104	0.03446
1572.49528	0.03457
1571.20951	0.03458
1569.92374	0.03463
1568.63797	0.03479
1567.35220	0.03492
1566.06643	0.03496
1564.78066	0.03506
1563.49489	0.03540
1562.20912	0.03587
1560.92336	0.03625
1559.63759	0.03651
1558.35182	0.03676
1557.06605	0.03687
1555.78028	0.03663
1554.49451	0.03619
1553.20874	0.03584
1551.92297	0.03568
1550.63721	0.03560
1549.35144	0.03561
1548.06567	0.03571
1546.77990	0.03588
1545.49413	0.03613
1544.20836	0.03645
1542.92259	0.03672
1541.63682	0.03674
1540.35105	0.03653
1539.06529	0.03631
1537.77952	0.03617
1536.49375	0.03597
1535.20798	0.03564
1533.92221	0.03537
1532.63644	0.03533
1531.35067	0.03547
1530.06490	0.03567
1528.77914	0.03590
1527.49337	0.03621
1526.20760	0.03664
1524.92183	0.03715
1523.63606	0.03762
1522.35029	0.03803
1521.06452	0.03851
1519.77875	0.03907
1518.49298	0.03958
1517.20722	0.04000
1515.92145	0.04051
1514.63568	0.04120
1513.34991	0.04200
1512.06414	0.04294
1510.77837	0.04402
1509.49260	0.04513
1508.20683	0.04610
1506.92107	0.04691
1505.63530	0.04763
1504.34953	0.04825
1503.06376	0.04869
1501.77799	0.04907
1500.49222	0.04959
1499.20645	0.05022
1497.92068	0.05080
1496.63491	0.05126
1495.34915	0.05168
1494.06338	0.05211
1492.77761	0.05251
1491.49184	0.05293
1490.20607	0.05344
1488.92030	0.05400
1487.63453	0.05456
1486.34876	0.05512
1485.06299	0.05577
1483.77723	0.05651
1482.49146	0.05733
1481.20569	0.05820
1479.91992	0.05911
1478.63415	0.06003
1477.34838	0.06099
1476.06261	0.06197
1474.77684	0.06287
1473.49108	0.06364
1472.20531	0.06431
1470.91954	0.06495
1469.63377	0.06554
1468.34800	0.06602
1467.06223	0.06641
1465.77646	0.06677
1464.49069	0.06716
1463.20492	0.06761
1461.91916	0.06811
1460.63339	0.06864
1459.34762	0.06914
1458.06185	0.06957
1456.77608	0.06998
1455.49031	0.07038
1454.20454	0.07061
1452.91877	0.07065
1451.63301	0.07067
1450.34724	0.07078
1449.06147	0.07088
1447.77570	0.07086
1446.48993	0.07069
1445.20416	0.07038
1443.91839	0.06997
1442.63262	0.06959
1441.34685	0.06934
1440.06109	0.06923
1438.77532	0.06913
1437.48955	0.06900
1436.20378	0.06893
1434.91801	0.06898
1433.63224	0.06910
1432.34647	0.06931
1431.06070	0.06973
1429.77494	0.07042
1428.48917	0.07132
1427.20340	0.07233
1425.91763	0.07337
1424.63186	0.07447
1423.34609	0.07565
1422.06032	0.07681
1420.77455	0.07784
1419.48878	0.07874
1418.20302	0.07952
1416.91725	0.08009
1415.63148	0.08034
1414.34571	0.08036
1413.05994	0.08028
1411.77417	0.08015
1410.48840	0.07994
1409.20263	0.07960
1407.91687	0.07910
1406.63110	0.07841
1405.34533	0.07756
1404.05956	0.07663
1402.77379	0.07563
1401.48802	0.07448
1400.20225	0.07321
1398.91648	0.07185
1397.63071	0.07046
1396.34495	0.06897
1395.05918	0.06741
1393.77341	0.06588
1392.48764	0.06442
1391.20187	0.06298
1389.91610	0.06157
1388.63033	0.06025
1387.34456	0.05907
1386.05880	0.05799
1384.77303	0.05692
1383.48726	0.05583
1382.20149	0.05476
1380.91572	0.05374
1379.62995	0.05276
1378.34418	0.05173
1377.05841	0.05059
1375.77264	0.04930
1374.48688	0.04789
1373.20111	0.04642
1371.91534	0.04493
1370.62957	0.04346
1369.34380	0.04207
1368.05803	0.04083
1366.77226	0.03978
1365.48649	0.03881
1364.20073	0.03785
1362.91496	0.03687
1361.62919	0.03591
1360.34342	0.03500
1359.05765	0.03415
1357.77188	0.03336
1356.48611	0.03262
1355.20034	0.03195
1353.91457	0.03134
1352.62881	0.03077
1351.34304	0.03025
1350.05727	0.02974
1348.77150	0.02925
1347.48573	0.02879
1346.19996	0.02837
1344.91419	0.02797
1343.62842	0.02759
1342.34266	0.02722
1341.05689	0.02685
1339.77112	0.02651
1338.48535	0.02622
1337.19958	0.02598
1335.91381	0.02575
1334.62804	0.02552
1333.34227	0.02528
1332.05650	0.02503
1330.77074	0.02480
1329.48497	0.02459
1328.19920	0.02441
1326.91343	0.02423
1325.62766	0.02403
1324.34189	0.02381
1323.05612	0.02356
1321.77035	0.02332
1320.48459	0.02311
1319.19882	0.02297
1317.91305	0.02288
1316.62728	0.02279
1315.34151	0.02267
1314.05574	0.02252
1312.76997	0.02238
1311.48420	0.02225
1310.19843	0.02212
1308.91267	0.02197
1307.62690	0.02181
1306.34113	0.02166
1305.05536	0.02154
1303.76959	0.02147
1302.48382	0.02141
1301.19805	0.02133
1299.91228	0.02121
1298.62652	0.02106
1297.34075	0.02092
1296.05498	0.02080
1294.76921	0.02071
1293.48344	0.02065
1292.19767	0.02061
1290.91190	0.02057
1289.62613	0.02052
1288.34036	0.02044
1287.05460	0.02037
1285.76883	0.02028
1284.48306	0.02017
1283.19729	0.02005
1281.91152	0.01992
1280.62575	0.01981
1279.33998	0.01968
1278.05421	0.01954
1276.76845	0.01940
1275.48268	0.01926
1274.19691	0.01914
1272.91114	0.01905
1271.62537	0.01901
1270.33960	0.01899
1269.05383	0.01896
1267.76806	0.01890
1266.48229	0.01880
1265.19653	0.01868
1263.91076	0.01856
1262.62499	0.01846
1261.33922	0.01836
1260.05345	0.01827
1258.76768	0.01818
1257.48191	0.01813
1256.19614	0.01812
1254.91037	0.01811
1253.62461	0.01808
1252.33884	0.01802
1251.05307	0.01795
1249.76730	0.01791
1248.48153	0.01787
1247.19576	0.01780
1245.90999	0.01766
1244.62422	0.01749
1243.33846	0.01733
1242.05269	0.01724
1240.76692	0.01719
1239.48115	0.01715
1238.19538	0.01709
1236.90961	0.01705
1235.62384	0.01704
1234.33807	0.01707
1233.05230	0.01708
1231.76654	0.01705
1230.48077	0.01698
1229.19500	0.01691
1227.90923	0.01686
1226.62346	0.01684
1225.33769	0.01683
1224.05192	0.01682
1222.76615	0.01679
1221.48039	0.01674
1220.19462	0.01667
1218.90885	0.01658
1217.62308	0.01649
1216.33731	0.01641
1215.05154	0.01638
1213.76577	0.01639
1212.48000	0.01641
1211.19423	0.01642
1209.90847	0.01644
1208.62270	0.01648
1207.33693	0.01653
1206.05116	0.01656
1204.76539	0.01654
1203.47962	0.01649
1202.19385	0.01644
1200.90808	0.01637
1199.62232	0.01627
1198.33655	0.01624
1197.05078	0.01623
1195.76501	0.01624
1194.47924	0.01625
1193.19347	0.01625
1191.90770	0.01626
1190.62193	0.01630
1189.33616	0.01634
1188.05040	0.01637
1186.76463	0.01638
1185.47886	0.01640
1184.19309	0.01643
1182.90732	0.01649
1181.62155	0.01653
1180.33578	0.01654
1179.05001	0.01651
1177.76425	0.01650
1176.47848	0.01655
1175.19271	0.01666
1173.90694	0.01680
1172.62117	0.01693
1171.33540	0.01703
1170.04963	0.01714
1168.76386	0.01727
1167.47809	0.01744
1166.19233	0.01762
1164.90656	0.01780
1163.62079	0.01796
1162.33502	0.01811
1161.04925	0.01825
1159.76348	0.01840
1158.47771	0.01857
1157.19194	0.01878
1155.90618	0.01902
1154.62041	0.01928
1153.33464	0.01954
1152.04887	0.01985
1150.76310	0.02017
1149.47733	0.02051
1148.19156	0.02087
1146.90579	0.02129
1145.62002	0.02179
1144.33426	0.02236
1143.04849	0.02294
1141.76272	0.02357
1140.47695	0.02428
1139.19118	0.02512
1137.90541	0.02608
1136.61964	0.02715
1135.33387	0.02830
1134.04811	0.02953
1132.76234	0.03087
1131.47657	0.03236
1130.19080	0.03404
1128.90503	0.03590
1127.61926	0.03793
1126.33349	0.04018
1125.04772	0.04268
1123.76195	0.04545
1122.47619	0.04837
1121.19042	0.05129
1119.90465	0.05413
1118.61888	0.05693
1117.33311	0.05975
1116.04734	0.06260
1114.76157	0.06545
1113.47580	0.06827
1112.19004	0.07104
1110.90427	0.07372
1109.61850	0.07622
1108.33273	0.07854
1107.04696	0.08075
1105.76119	0.08291
1104.47542	0.08501
1103.18965	0.08700
1101.90388	0.08889
1100.61812	0.09071
1099.33235	0.09247
1098.04658	0.09411
1096.76081	0.09564
1095.47504	0.09712
1094.18927	0.09858
1092.90350	0.09999
1091.61773	0.10130
1090.33197	0.10249
1089.04620	0.10360
1087.76043	0.10468
1086.47466	0.10582
1085.18889	0.10707
1083.90312	0.10847
1082.61735	0.11000
1081.33158	0.11163
1080.04581	0.11334
1078.76005	0.11512
1077.47428	0.11694
1076.18851	0.11876
1074.90274	0.12061
1073.61697	0.12257
1072.33120	0.12469
1071.04543	0.12695
1069.75966	0.12926
1068.47390	0.13156
1067.18813	0.13387
1065.90236	0.13626
1064.61659	0.13876
1063.33082	0.14132
1062.04505	0.14387
1060.75928	0.14640
1059.47351	0.14892
1058.18774	0.15144
1056.90198	0.15391
1055.61621	0.15627
1054.33044	0.15856
1053.04467	0.16084
1051.75890	0.16317
1050.47313	0.16560
1049.18736	0.16817
1047.90159	0.17091
1046.61583	0.17381
1045.33006	0.17678
1044.04429	0.17974
1042.75852	0.18266
1041.47275	0.18557
1040.18698	0.18847
1038.90121	0.19140
1037.61544	0.19434
1036.32967	0.19726
1035.04391	0.20011
1033.75814	0.20280
1032.47237	0.20530
1031.18660	0.20756
1029.90083	0.20956
1028.61506	0.21128
1027.32929	0.21273
1026.04352	0.21388
1024.75775	0.21475
1023.47199	0.21533
1022.18622	0.21559
1020.90045	0.21553
1019.61468	0.21510
1018.32891	0.21428
1017.04314	0.21307
1015.75737	0.21148
1014.47160	0.20952
1013.18584	0.20715
1011.90007	0.20427
1010.61430	0.20085
1009.32853	0.19701
1008.04276	0.19293
1006.75699	0.18865
1005.47122	0.18410
1004.18545	0.17923
1002.89968	0.17403
1001.61392	0.16861
1000.32815	0.16305
999.04238	0.15744
997.75661	0.15183
996.47084	0.14622
995.18507	0.14057
993.89930	0.13494
992.61353	0.12943
991.32777	0.12414
990.04200	0.11913
988.75623	0.11439
987.47046	0.10989
986.18469	0.10564
984.89892	0.10165
983.61315	0.09796
982.32738	0.09455
981.04161	0.09141
979.75585	0.08851
978.47008	0.08582
977.18431	0.08333
975.89854	0.08107
974.61277	0.07913
973.32700	0.07759
972.04123	0.07643
970.75546	0.07560
969.46970	0.07510
968.18393	0.07497
966.89816	0.07525
965.61239	0.07588
964.32662	0.07666
963.04085	0.07735
961.75508	0.07772
960.46931	0.07766
959.18354	0.07715
957.89778	0.07617
956.61201	0.07475
955.32624	0.07304
954.04047	0.07120
952.75470	0.06938
951.46893	0.06758
950.18316	0.06582
948.89739	0.06411
947.61163	0.06250
946.32586	0.06094
945.04009	0.05937
943.75432	0.05777
942.46855	0.05623
941.18278	0.05481
939.89701	0.05354
938.61124	0.05240
937.32547	0.05134
936.03971	0.05034
934.75394	0.04941
933.46817	0.04857
932.18240	0.04781
930.89663	0.04709
929.61086	0.04637
928.32509	0.04567
927.03932	0.04502
925.75356	0.04444
924.46779	0.04395
923.18202	0.04351
921.89625	0.04304
920.61048	0.04253
919.32471	0.04202
918.03894	0.04159
916.75317	0.04124
915.46740	0.04089
914.18164	0.04048
912.89587	0.04007
911.61010	0.03972
910.32433	0.03943
909.03856	0.03912
907.75279	0.03875
906.46702	0.03837
905.18125	0.03806
903.89549	0.03786
902.60972	0.03771
901.32395	0.03752
900.03818	0.03726
898.75241	0.03702
897.46664	0.03684
896.18087	0.03670
894.89510	0.03650
893.60933	0.03625
892.32357	0.03600
891.03780	0.03590
889.75203	0.03602
888.46626	0.03638
887.18049	0.03695
885.89472	0.03780
884.60895	0.03906
883.32318	0.04082
882.03742	0.04291
880.75165	0.04493
879.46588	0.04653
878.18011	0.04767
876.89434	0.04863
875.60857	0.04969
874.32280	0.05087
873.03703	0.05185
871.75126	0.05232
870.46550	0.05209
869.17973	0.05123
867.89396	0.04991
866.60819	0.04828
865.32242	0.04643
864.03665	0.04449
862.75088	0.04268
861.46511	0.04118
860.17935	0.04001
858.89358	0.03906
857.60781	0.03823
856.32204	0.03749
855.03627	0.03683
853.75050	0.03627
852.46473	0.03579
851.17896	0.03533
849.89319	0.03490
848.60743	0.03454
847.32166	0.03426
846.03589	0.03404
844.75012	0.03382
843.46435	0.03360
842.17858	0.03337
840.89281	0.03316
839.60704	0.03298
838.32128	0.03285
837.03551	0.03276
835.74974	0.03266
834.46397	0.03251
833.17820	0.03233
831.89243	0.03218
830.60666	0.03210
829.32089	0.03208
828.03512	0.03206
826.74936	0.03202
825.46359	0.03192
824.17782	0.03175
822.89205	0.03154
821.60628	0.03134
820.32051	0.03125
819.03474	0.03131
817.74897	0.03145
816.46321	0.03152
815.17744	0.03145
813.89167	0.03127
812.60590	0.03109
811.32013	0.03103
810.03436	0.03108
808.74859	0.03116
807.46282	0.03120
806.17705	0.03123
804.89129	0.03127
803.60552	0.03134
802.31975	0.03138
801.03398	0.03138
799.74821	0.03136
798.46244	0.03129
797.17667	0.03115
795.89090	0.03101
794.60513	0.03097
793.31937	0.03107
792.03360	0.03122
790.74783	0.03128
789.46206	0.03122
788.17629	0.03112
786.89052	0.03108
785.60475	0.03112
784.31898	0.03117
783.03322	0.03115
781.74745	0.03108
780.46168	0.03097
779.17591	0.03082
777.89014	0.03065
776.60437	0.03050
775.31860	0.03044
774.03283	0.03046
772.74706	0.03053
771.46130	0.03061
770.17553	0.03068
768.88976	0.03074
767.60399	0.03078
766.31822	0.03076
765.03245	0.03070
763.74668	0.03065
762.46091	0.03065
761.17515	0.03067
759.88938	0.03067
758.60361	0.03065
757.31784	0.03064
756.03207	0.03066
754.74630	0.03067
753.46053	0.03065
752.17476	0.03065
750.88899	0.03069
749.60323	0.03074
748.31746	0.03073
747.03169	0.03061
745.74592	0.03044
744.46015	0.03031
743.17438	0.03027
741.88861	0.03029
740.60284	0.03032
739.31708	0.03026
738.03131	0.03008
736.74554	0.02984
735.45977	0.02967
734.17400	0.02963
732.88823	0.02972
731.60246	0.02988
730.31669	0.03003
729.03092	0.03015
727.74516	0.03023
726.45939	0.03026
725.17362	0.03020
723.88785	0.02987
722.60208	0.02983
721.31631	0.03016
720.03054	0.03045
718.74477	0.03046
717.45901	0.03041
716.17324	0.03032
714.88747	0.03016
713.60170	0.02993
712.31593	0.02969
711.03016	0.02948
709.74439	0.02929
708.45862	0.02914
707.17285	0.02901
705.88709	0.02891
704.60132	0.02882
703.31555	0.02876
702.02978	0.02871
700.74401	0.02868
699.45824	0.02868
698.17247	0.02870
696.88670	0.02872
695.60094	0.02873
694.31517	0.02870
693.02940	0.02863
691.74363	0.02854
690.45786	0.02840
689.17209	0.02822
687.88632	0.02800
686.60055	0.02776
685.31478	0.02753
684.02902	0.02733
682.74325	0.02716
681.45748	0.02702
680.17171	0.02690
678.88594	0.02680
677.60017	0.02670
676.31440	0.02662
675.02863	0.02656
673.74287	0.02647
672.45710	0.02632
671.17133	0.02654
669.88556	0.02813
668.59979	0.03052
667.31402	0.02983
666.02825	0.02736
664.74248	0.02659
663.45671	0.02681
662.17095	0.02695
660.88518	0.02688
659.59941	0.02672
658.31364	0.02654
657.02787	0.02640
655.74210	0.02635
654.45633	0.02636
653.17056	0.02640
651.88480	0.02645
650.59903	0.02651
649.31326	0.02658
648.02749	0.02663
646.74172	0.02674
645.45595	0.02693
644.17018	0.02715
642.88441	0.02733
641.59864	0.02747
640.31288	0.02758
639.02711	0.02771
637.74134	0.02789
636.45557	0.02813
635.16980	0.02843
633.88403	0.02879
632.59826	0.02922
631.31249	0.02982
630.02673	0.03070
628.74096	0.03156
627.45519	0.03198
626.16942	0.03349
624.88365	0.03562
623.59788	0.03779
622.31211	0.03998
621.02634	0.04214
619.74057	0.04390
618.45481	0.04521
617.16904	0.04664
615.88327	0.04859
614.59750	0.05090
613.31173	0.05322
612.02596	0.05574
610.74019	0.05919
609.45442	0.06394
608.16866	0.06928
606.88289	0.07403
605.59712	0.07747
604.31135	0.07954
603.02558	0.08049
601.73981	0.08063
600.45404	0.08011
599.16827	0.07892
597.88250	0.07710
596.59674	0.07489
595.31097	0.07264
594.02520	0.07057
592.73943	0.06873
591.45366	0.06720
590.16789	0.06614
588.88212	0.06571
587.59635	0.06595
586.31059	0.06674
585.02482	0.06792
583.73905	0.06941
582.45328	0.07112
581.16751	0.07298
579.88174	0.07495
578.59597	0.07703
577.31020	0.07921
576.02443	0.08139
574.73867	0.08342
573.45290	0.08522
572.16713	0.08686
570.88136	0.08855
569.59559	0.09060
568.30982	0.09325
567.02405	0.09652
565.73828	0.10005
564.45251	0.10321
563.16675	0.10540
561.88098	0.10624
560.59521	0.10561
559.30944	0.10348
558.02367	0.09995
556.73790	0.09535
555.45213	0.09017
554.16636	0.08490
552.88060	0.07986
551.59483	0.07520
550.30906	0.07098
549.02329	0.06724
547.73752	0.06397
546.45175	0.06109
545.16598	0.05842
543.88021	0.05587
542.59444	0.05347
541.30868	0.05136
540.02291	0.04965
538.73714	0.04828
537.45137	0.04712
536.16560	0.04606
534.87983	0.04509
533.59406	0.04421
532.30829	0.04334
531.02253	0.04244
529.73676	0.04151
528.45099	0.04064
527.16522	0.03989
525.87945	0.03919
524.59368	0.03845
523.30791	0.03763
522.02214	0.03678
520.73637	0.03600
519.45061	0.03539
518.16484	0.03493
516.87907	0.03454
515.59330	0.03414
514.30753	0.03370
513.02176	0.03325
511.73599	0.03275
510.45022	0.03220
509.16446	0.03168
507.87869	0.03132
506.59292	0.03113
505.30715	0.03094
504.02138	0.03055
502.73561	0.02994
501.44984	0.02934
500.16407	0.02897
498.87830	0.02886
497.59254	0.02885
496.30677	0.02877
495.02100	0.02859
493.73523	0.02840
492.44946	0.02827
491.16369	0.02819
489.87792	0.02809
488.59215	0.02793
487.30639	0.02778
486.02062	0.02767
484.73485	0.02764
483.44908	0.02771
482.16331	0.02790
480.87754	0.02822
479.59177	0.02862
478.30600	0.02901
477.02023	0.02932
475.73447	0.02956
474.44870	0.02976
473.16293	0.02994
471.87716	0.03009
470.59139	0.03020
469.30562	0.03027
468.01985	0.03031
466.73408	0.03029
465.44832	0.03015
464.16255	0.02988
462.87678	0.02954
461.59101	0.02921
460.30524	0.02894
459.01947	0.02875
457.73370	0.02865
456.44793	0.02858
455.16216	0.02849
453.87640	0.02832
452.59063	0.02810
451.30486	0.02786
450.01909	0.02762
448.73332	0.02736
447.44755	0.02708
446.16178	0.02681
444.87601	0.02656
443.59025	0.02636
442.30448	0.02619
441.01871	0.02605
439.73294	0.02594
438.44717	0.02588
437.16140	0.02587
435.87563	0.02587
434.58986	0.02586
433.30409	0.02582
432.01833	0.02578
430.73256	0.02575
429.44679	0.02572
428.16102	0.02564
426.87525	0.02553
425.58948	0.02541
424.30371	0.02533
423.01794	0.02530
421.73218	0.02526
420.44641	0.02515
419.16064	0.02501
417.87487	0.02490
416.58910	0.02479
415.30333	0.02466
414.01756	0.02450
412.73179	0.02433
411.44602	0.02420
410.16026	0.02410
408.87449	0.02403
407.58872	0.02397
406.30295	0.02392
405.01718	0.02388
403.73141	0.02388
402.44564	0.02394
401.15987	0.02404
399.87411	0.02417
