3997.45528	0.03053
3996.16951	0.02987
3994.88374	0.02996
3993.59798	0.03064
3992.31221	0.03130
3991.02644	0.03171
3989.74067	0.03210
3988.45490	0.03262
3987.16913	0.03304
3985.88336	0.03294
3984.59759	0.03215
3983.31183	0.03100
3982.02606	0.03009
3980.74029	0.02989
3979.45452	0.03042
3978.16875	0.03128
3976.88298	0.03193
3975.59721	0.03203
3974.31144	0.03165
3973.02567	0.03114
3971.73991	0.03083
3970.45414	0.03073
3969.16837	0.03060
3967.88260	0.03027
3966.59683	0.02987
3965.31106	0.02966
3964.02529	0.02977
3962.73952	0.03015
3961.45376	0.03058
3960.16799	0.03074
3958.88222	0.03042
3957.59645	0.02983
3956.31068	0.02938
3955.02491	0.02939
3953.73914	0.02977
3952.45337	0.03020
3951.16760	0.03040
3949.88184	0.03025
3948.59607	0.02984
3947.31030	0.02943
3946.02453	0.02924
3944.73876	0.02923
3943.45299	0.02917
3942.16722	0.02891
3940.88145	0.02852
3939.59569	0.02826
3938.30992	0.02829
3937.02415	0.02851
3935.73838	0.02870
3934.45261	0.02887
3933.16684	0.02919
3931.88107	0.02973
3930.59530	0.03026
3929.30953	0.03057
3928.02377	0.03069
3926.73800	0.03078
3925.45223	0.03084
3924.16646	0.03078
3922.88069	0.03052
3921.59492	0.03001
3920.30915	0.02928
3919.02338	0.02848
3917.73762	0.02786
3916.45185	0.02761
3915.16608	0.02768
3913.88031	0.02782
3912.59454	0.02781
3911.30877	0.02753
3910.02300	0.02707
3908.73723	0.02682
3907.45146	0.02725
3906.16570	0.02840
3904.87993	0.02974
3903.59416	0.03064
3902.30839	0.03084
3901.02262	0.03050
3899.73685	0.02990
3898.45108	0.02929
3897.16531	0.02891
3895.87955	0.02896
3894.59378	0.02939
3893.30801	0.02979
3892.02224	0.02977
3890.73647	0.02936
3889.45070	0.02891
3888.16493	0.02866
3886.87916	0.02871
3885.59339	0.02907
3884.30763	0.02956
3883.02186	0.02980
3881.73609	0.02959
3880.45032	0.02915
3879.16455	0.02885
3877.87878	0.02874
3876.59301	0.02863
3875.30724	0.02847
3874.02148	0.02847
3872.73571	0.02874
3871.44994	0.02917
3870.16417	0.02956
3868.87840	0.02974
3867.59263	0.02959
3866.30686	0.02922
3865.02109	0.02895
3863.73532	0.02889
3862.44956	0.02881
3861.16379	0.02850
3859.87802	0.02805
3858.59225	0.02764
3857.30648	0.02733
3856.02071	0.02716
3854.73494	0.02718
3853.44917	0.02753
3852.16341	0.02809
3850.87764	0.02861
3849.59187	0.02894
3848.30610	0.02910
3847.02033	0.02911
3845.73456	0.02900
3844.44879	0.02883
3843.16302	0.02862
3841.87725	0.02832
3840.59149	0.02789
3839.30572	0.02749
3838.01995	0.02741
3836.73418	0.02774
3835.44841	0.02819
3834.16264	0.02843
3832.87687	0.02838
3831.59110	0.02815
3830.30534	0.02781
3829.01957	0.02743
3827.73380	0.02717
3826.44803	0.02720
3825.16226	0.02755
3823.87649	0.02796
3822.59072	0.02825
3821.30495	0.02848
3820.01918	0.02869
3818.73342	0.02869
3817.44765	0.02839
3816.16188	0.02811
3814.87611	0.02809
3813.59034	0.02821
3812.30457	0.02820
3811.01880	0.02802
3809.73303	0.02777
3808.44726	0.02752
3807.16150	0.02747
3805.87573	0.02780
3804.58996	0.02839
3803.30419	0.02883
3802.01842	0.02880
3800.73265	0.02832
3799.44688	0.02770
3798.16111	0.02737
3796.87535	0.02767
3795.58958	0.02846
3794.30381	0.02915
3793.01804	0.02919
3791.73227	0.02850
3790.44650	0.02735
3789.16073	0.02623
3787.87496	0.02555
3786.58919	0.02546
3785.30343	0.02578
3784.01766	0.02623
3782.73189	0.02661
3781.44612	0.02689
3780.16035	0.02712
3778.87458	0.02739
3777.58881	0.02768
3776.30304	0.02787
3775.01728	0.02790
3773.73151	0.02777
3772.44574	0.02750
3771.15997	0.02717
3769.87420	0.02689
3768.58843	0.02679
3767.30266	0.02685
3766.01689	0.02695
3764.73112	0.02699
3763.44536	0.02690
3762.15959	0.02673
3760.87382	0.02664
3759.58805	0.02674
3758.30228	0.02693
3757.01651	0.02706
3755.73074	0.02708
3754.44497	0.02702
3753.15921	0.02701
3751.87344	0.02707
3750.58767	0.02709
3749.30190	0.02698
3748.01613	0.02679
3746.73036	0.02654
3745.44459	0.02627
3744.15882	0.02627
3742.87305	0.02662
3741.58729	0.02711
3740.30152	0.02757
3739.01575	0.02791
3737.72998	0.02805
3736.44421	0.02811
3735.15844	0.02836
3733.87267	0.02872
3732.58690	0.02878
3731.30114	0.02831
3730.01537	0.02747
3728.72960	0.02666
3727.44383	0.02621
3726.15806	0.02613
3724.87229	0.02606
3723.58652	0.02576
3722.30075	0.02537
3721.01498	0.02516
3719.72922	0.02523
3718.44345	0.02556
3717.15768	0.02614
3715.87191	0.02680
3714.58614	0.02719
3713.30037	0.02707
3712.01460	0.02669
3710.72883	0.02657
3709.44307	0.02694
3708.15730	0.02748
3706.87153	0.02767
3705.58576	0.02718
3704.29999	0.02621
3703.01422	0.02522
3701.72845	0.02461
3700.44268	0.02446
3699.15691	0.02461
3697.87115	0.02491
3696.58538	0.02531
3695.29961	0.02583
3694.01384	0.02638
3692.72807	0.02680
3691.44230	0.02690
3690.15653	0.02652
3688.87076	0.02577
3687.58500	0.02499
3686.29923	0.02447
3685.01346	0.02422
3683.72769	0.02425
3682.44192	0.02459
3681.15615	0.02531
3679.87038	0.02634
3678.58461	0.02738
3677.29884	0.02799
3676.01308	0.02808
3674.72731	0.02791
3673.44154	0.02775
3672.15577	0.02780
3670.87000	0.02823
3669.58423	0.02885
3668.29846	0.02898
3667.01269	0.02808
3665.72693	0.02640
3664.44116	0.02466
3663.15539	0.02345
3661.86962	0.02302
3660.58385	0.02325
3659.29808	0.02373
3658.01231	0.02396
3656.72654	0.02385
3655.44077	0.02378
3654.15501	0.02404
3652.86924	0.02451
3651.58347	0.02490
3650.29770	0.02514
3649.01193	0.02543
3647.72616	0.02594
3646.44039	0.02663
3645.15462	0.02725
3643.86886	0.02752
3642.58309	0.02735
3641.29732	0.02690
3640.01155	0.02647
3638.72578	0.02636
3637.44001	0.02663
3636.15424	0.02702
3634.86847	0.02711
3633.58270	0.02668
3632.29694	0.02588
3631.01117	0.02511
3629.72540	0.02479
3628.43963	0.02508
3627.15386	0.02567
3625.86809	0.02609
3624.58232	0.02624
3623.29655	0.02635
3622.01079	0.02651
3620.72502	0.02670
3619.43925	0.02689
3618.15348	0.02701
3616.86771	0.02691
3615.58194	0.02647
3614.29617	0.02594
3613.01040	0.02580
3611.72463	0.02631
3610.43887	0.02727
3609.15310	0.02819
3607.86733	0.02869
3606.58156	0.02864
3605.29579	0.02818
3604.01002	0.02766
3602.72425	0.02733
3601.43848	0.02724
3600.15272	0.02724
3598.86695	0.02725
3597.58118	0.02732
3596.29541	0.02754
3595.00964	0.02797
3593.72387	0.02858
3592.43810	0.02927
3591.15233	0.02982
3589.86656	0.03010
3588.58080	0.03002
3587.29503	0.02959
3586.00926	0.02899
3584.72349	0.02858
3583.43772	0.02860
3582.15195	0.02899
3580.86618	0.02948
3579.58041	0.02990
3578.29464	0.03022
3577.00888	0.03041
3575.72311	0.03037
3574.43734	0.03025
3573.15157	0.03045
3571.86580	0.03118
3570.58003	0.03210
3569.29426	0.03267
3568.00849	0.03266
3566.72273	0.03229
3565.43696	0.03176
3564.15119	0.03110
3562.86542	0.03042
3561.57965	0.03009
3560.29388	0.03041
3559.00811	0.03128
3557.72234	0.03224
3556.43657	0.03285
3555.15081	0.03293
3553.86504	0.03263
3552.57927	0.03230
3551.29350	0.03215
3550.00773	0.03211
3548.72196	0.03205
3547.43619	0.03217
3546.15042	0.03276
3544.86466	0.03370
3543.57889	0.03444
3542.29312	0.03460
3541.00735	0.03447
3539.72158	0.03456
3538.43581	0.03501
3537.15004	0.03554
3535.86427	0.03590
3534.57850	0.03609
3533.29274	0.03624
3532.00697	0.03626
3530.72120	0.03598
3529.43543	0.03535
3528.14966	0.03460
3526.86389	0.03404
3525.57812	0.03377
3524.29235	0.03374
3523.00659	0.03382
3521.72082	0.03401
3520.43505	0.03424
3519.14928	0.03433
3517.86351	0.03407
3516.57774	0.03351
3515.29197	0.03306
3514.00620	0.03322
3512.72043	0.03407
3511.43467	0.03522
3510.14890	0.03613
3508.86313	0.03653
3507.57736	0.03653
3506.29159	0.03642
3505.00582	0.03643
3503.72005	0.03659
3502.43428	0.03670
3501.14852	0.03650
3499.86275	0.03597
3498.57698	0.03539
3497.29121	0.03510
3496.00544	0.03523
3494.71967	0.03572
3493.43390	0.03639
3492.14813	0.03701
3490.86236	0.03740
3489.57660	0.03754
3488.29083	0.03754
3487.00506	0.03756
3485.71929	0.03760
3484.43352	0.03765
3483.14775	0.03772
3481.86198	0.03783
3480.57621	0.03794
3479.29045	0.03797
3478.00468	0.03796
3476.71891	0.03798
3475.43314	0.03807
3474.14737	0.03820
3472.86160	0.03833
3471.57583	0.03843
3470.29006	0.03848
3469.00429	0.03856
3467.71853	0.03877
3466.43276	0.03920
3465.14699	0.03973
3463.86122	0.04012
3462.57545	0.04018
3461.28968	0.03998
3460.00391	0.03973
3458.71814	0.03958
3457.43238	0.03946
3456.14661	0.03922
3454.86084	0.03888
3453.57507	0.03859
3452.28930	0.03850
3451.00353	0.03867
3449.71776	0.03902
3448.43199	0.03942
3447.14622	0.03975
3445.86046	0.03996
3444.57469	0.04011
3443.28892	0.04025
3442.00315	0.04038
3440.71738	0.04046
3439.43161	0.04045
3438.14584	0.04037
3436.86007	0.04030
3435.57431	0.04028
3434.28854	0.04031
3433.00277	0.04031
3431.71700	0.04014
3430.43123	0.03977
3429.14546	0.03935
3427.85969	0.03911
3426.57392	0.03914
3425.28815	0.03937
3424.00239	0.03960
3422.71662	0.03973
3421.43085	0.03973
3420.14508	0.03971
3418.85931	0.03987
3417.57354	0.04032
3416.28777	0.04099
3415.00200	0.04161
3413.71624	0.04194
3412.43047	0.04189
3411.14470	0.04152
3409.85893	0.04098
3408.57316	0.04043
3407.28739	0.04010
3406.00162	0.04018
3404.71585	0.04067
3403.43008	0.04128
3402.14432	0.04166
3400.85855	0.04169
3399.57278	0.04160
3398.28701	0.04163
3397.00124	0.04181
3395.71547	0.04202
3394.42970	0.04221
3393.14393	0.04244
3391.85817	0.04272
3390.57240	0.04291
3389.28663	0.04291
3388.00086	0.04275
3386.71509	0.04264
3385.42932	0.04272
3384.14355	0.04299
3382.85778	0.04328
3381.57201	0.04344
3380.28625	0.04345
3379.00048	0.04339
3377.71471	0.04334
3376.42894	0.04328
3375.14317	0.04313
3373.85740	0.04289
3372.57163	0.04271
3371.28586	0.04281
3370.00010	0.04326
3368.71433	0.04389
3367.42856	0.04443
3366.14279	0.04474
3364.85702	0.04484
3363.57125	0.04485
3362.28548	0.04485
3360.99971	0.04475
3359.71394	0.04446
3358.42818	0.04410
3357.14241	0.04395
3355.85664	0.04420
3354.57087	0.04469
3353.28510	0.04506
3351.99933	0.04513
3350.71356	0.04491
3349.42779	0.04458
3348.14202	0.04429
3346.85626	0.04414
3345.57049	0.04415
3344.28472	0.04430
3342.99895	0.04457
3341.71318	0.04488
3340.42741	0.04508
3339.14164	0.04500
3337.85587	0.04463
3336.57011	0.04418
3335.28434	0.04390
3333.99857	0.04396
3332.71280	0.04429
3331.42703	0.04473
3330.14126	0.04509
3328.85549	0.04524
3327.56972	0.04506
3326.28395	0.04460
3324.99819	0.04418
3323.71242	0.04416
3322.42665	0.04459
3321.14088	0.04510
3319.85511	0.04527
3318.56934	0.04498
3317.28357	0.04454
3315.99780	0.04437
3314.71204	0.04456
3313.42627	0.04486
3312.14050	0.04498
3310.85473	0.04492
3309.56896	0.04487
3308.28319	0.04495
3306.99742	0.04510
3305.71165	0.04511
3304.42588	0.04487
3303.14012	0.04449
3301.85435	0.04424
3300.56858	0.04429
3299.28281	0.04449
3297.99704	0.04455
3296.71127	0.04435
3295.42550	0.04414
3294.13973	0.04428
3292.85397	0.04484
3291.56820	0.04554
3290.28243	0.04596
3288.99666	0.04598
3287.71089	0.04583
3286.42512	0.04579
3285.13935	0.04589
3283.85358	0.04595
3282.56781	0.04572
3281.28205	0.04519
3279.99628	0.04457
3278.71051	0.04416
3277.42474	0.04413
3276.13897	0.04434
3274.85320	0.04450
3273.56743	0.04442
3272.28166	0.04422
3270.99590	0.04416
3269.71013	0.04436
3268.42436	0.04471
3267.13859	0.04500
3265.85282	0.04507
3264.56705	0.04490
3263.28128	0.04454
3261.99551	0.04406
3260.70974	0.04360
3259.42398	0.04335
3258.13821	0.04343
3256.85244	0.04379
3255.56667	0.04423
3254.28090	0.04447
3252.99513	0.04440
3251.70936	0.04416
3250.42359	0.04398
3249.13783	0.04394
3247.85206	0.04397
3246.56629	0.04398
3245.28052	0.04392
3243.99475	0.04381
3242.70898	0.04366
3241.42321	0.04353
3240.13744	0.04343
3238.85167	0.04335
3237.56591	0.04326
3236.28014	0.04318
3234.99437	0.04314
3233.70860	0.04314
3232.42283	0.04313
3231.13706	0.04314
3229.85129	0.04328
3228.56552	0.04352
3227.27976	0.04373
3225.99399	0.04369
3224.70822	0.04340
3223.42245	0.04303
3222.13668	0.04275
3220.85091	0.04257
3219.56514	0.04235
3218.27937	0.04200
3216.99360	0.04169
3215.70784	0.04172
3214.42207	0.04223
3213.13630	0.04297
3211.85053	0.04350
3210.56476	0.04351
3209.27899	0.04307
3207.99322	0.04251
3206.70745	0.04221
3205.42169	0.04227
3204.13592	0.04250
3202.85015	0.04266
3201.56438	0.04268
3200.27861	0.04265
3198.99284	0.04258
3197.70707	0.04241
3196.42130	0.04212
3195.13553	0.04173
3193.84977	0.04129
3192.56400	0.04087
3191.27823	0.04053
3189.99246	0.04038
3188.70669	0.04047
3187.42092	0.04077
3186.13515	0.04114
3184.84938	0.04137
3183.56362	0.04136
3182.27785	0.04123
3180.99208	0.04120
3179.70631	0.04132
3178.42054	0.04141
3177.13477	0.04116
3175.84900	0.04049
3174.56323	0.03971
3173.27746	0.03926
3171.99170	0.03934
3170.70593	0.03976
3169.42016	0.04014
3168.13439	0.04037
3166.84862	0.04058
3165.56285	0.04089
3164.27708	0.04124
3162.99131	0.04142
3161.70555	0.04127
3160.41978	0.04085
3159.13401	0.04029
3157.84824	0.03974
3156.56247	0.03927
3155.27670	0.03894
3153.99093	0.03887
3152.70516	0.03907
3151.41939	0.03940
3150.13363	0.03965
3148.84786	0.03963
3147.56209	0.03931
3146.27632	0.03882
3144.99055	0.03845
3143.70478	0.03843
3142.41901	0.03872
3141.13324	0.03900
3139.84748	0.03898
3138.56171	0.03863
3137.27594	0.03820
3135.99017	0.03791
3134.70440	0.03782
3133.41863	0.03785
3132.13286	0.03792
3130.84709	0.03801
3129.56132	0.03810
3128.27556	0.03813
3126.98979	0.03801
3125.70402	0.03775
3124.41825	0.03746
3123.13248	0.03738
3121.84671	0.03762
3120.56094	0.03809
3119.27517	0.03858
3117.98940	0.03893
3116.70364	0.03909
3115.41787	0.03906
3114.13210	0.03888
3112.84633	0.03868
3111.56056	0.03855
3110.27479	0.03843
3108.98902	0.03815
3107.70325	0.03775
3106.41749	0.03748
3105.13172	0.03761
3103.84595	0.03805
3102.56018	0.03843
3101.27441	0.03845
3099.98864	0.03815
3098.70287	0.03781
3097.41710	0.03770
3096.13133	0.03785
3094.84557	0.03801
3093.55980	0.03799
3092.27403	0.03782
3090.98826	0.03771
3089.70249	0.03781
3088.41672	0.03802
3087.13095	0.03812
3085.84518	0.03805
3084.55942	0.03799
3083.27365	0.03807
3081.98788	0.03823
3080.70211	0.03831
3079.41634	0.03822
3078.13057	0.03796
3076.84480	0.03766
3075.55903	0.03745
3074.27326	0.03734
3072.98750	0.03722
3071.70173	0.03697
3070.41596	0.03670
3069.13019	0.03666
3067.84442	0.03694
3066.55865	0.03735
3065.27288	0.03761
3063.98711	0.03763
3062.70135	0.03756
3061.41558	0.03760
3060.12981	0.03778
3058.84404	0.03793
3057.55827	0.03785
3056.27250	0.03754
3054.98673	0.03720
3053.70096	0.03702
3052.41519	0.03702
3051.12943	0.03706
3049.84366	0.03706
3048.55789	0.03705
3047.27212	0.03709
3045.98635	0.03719
3044.70058	0.03725
3043.41481	0.03718
3042.12904	0.03696
3040.84328	0.03671
3039.55751	0.03655
3038.27174	0.03644
3036.98597	0.03624
3035.70020	0.03586
3034.41443	0.03546
3033.12866	0.03527
3031.84289	0.03540
3030.55712	0.03578
3029.27136	0.03619
3027.98559	0.03638
3026.69982	0.03625
3025.41405	0.03587
3024.12828	0.03544
3022.84251	0.03512
3021.55674	0.03507
3020.27097	0.03533
3018.98521	0.03582
3017.69944	0.03621
3016.41367	0.03622
3015.12790	0.03583
3013.84213	0.03533
3012.55636	0.03502
3011.27059	0.03493
3009.98482	0.03484
3008.69905	0.03459
3007.41329	0.03423
3006.12752	0.03397
3004.84175	0.03396
3003.55598	0.03411
3002.27021	0.03424
3000.98444	0.03428
2999.69867	0.03437
2998.41290	0.03466
2997.12714	0.03510
2995.84137	0.03543
2994.55560	0.03549
2993.26983	0.03537
2991.98406	0.03528
2990.69829	0.03533
2989.41252	0.03551
2988.12675	0.03567
2986.84098	0.03564
2985.55522	0.03541
2984.26945	0.03513
2982.98368	0.03497
2981.69791	0.03495
2980.41214	0.03491
2979.12637	0.03471
2977.84060	0.03435
2976.55483	0.03397
2975.26907	0.03376
2973.98330	0.03385
2972.69753	0.03415
2971.41176	0.03446
2970.12599	0.03466
2968.84022	0.03480
2967.55445	0.03497
2966.26868	0.03522
2964.98291	0.03552
2963.69715	0.03574
2962.41138	0.03578
2961.12561	0.03564
2959.83984	0.03549
2958.55407	0.03549
2957.26830	0.03568
2955.98253	0.03586
2954.69676	0.03587
2953.41100	0.03578
2952.12523	0.03583
2950.83946	0.03612
2949.55369	0.03647
2948.26792	0.03666
2946.98215	0.03660
2945.69638	0.03639
2944.41061	0.03611
2943.12484	0.03582
2941.83908	0.03552
2940.55331	0.03521
2939.26754	0.03494
2937.98177	0.03481
2936.69600	0.03492
2935.41023	0.03528
2934.12446	0.03576
2932.83869	0.03616
2931.55293	0.03628
2930.26716	0.03604
2928.98139	0.03558
2927.69562	0.03517
2926.40985	0.03499
2925.12408	0.03500
2923.83831	0.03505
2922.55254	0.03509
2921.26677	0.03512
2919.98101	0.03512
2918.69524	0.03508
2917.40947	0.03506
2916.12370	0.03511
2914.83793	0.03519
2913.55216	0.03520
2912.26639	0.03513
2910.98062	0.03500
2909.69486	0.03491
2908.40909	0.03486
2907.12332	0.03484
2905.83755	0.03481
2904.55178	0.03479
2903.26601	0.03473
2901.98024	0.03458
2900.69447	0.03435
2899.40870	0.03413
2898.12294	0.03395
2896.83717	0.03371
2895.55140	0.03338
2894.26563	0.03306
2892.97986	0.03295
2891.69409	0.03310
2890.40832	0.03341
2889.12255	0.03363
2887.83678	0.03362
2886.55102	0.03346
2885.26525	0.03337
2883.97948	0.03346
2882.69371	0.03357
2881.40794	0.03356
2880.12217	0.03348
2878.83640	0.03352
2877.55063	0.03372
2876.26487	0.03387
2874.97910	0.03380
2873.69333	0.03350
2872.40756	0.03313
2871.12179	0.03284
2869.83602	0.03263
2868.55025	0.03246
2867.26448	0.03231
2865.97871	0.03217
2864.69295	0.03205
2863.40718	0.03195
2862.12141	0.03185
2860.83564	0.03173
2859.54987	0.03153
2858.26410	0.03130
2856.97833	0.03117
2855.69256	0.03127
2854.40680	0.03160
2853.12103	0.03195
2851.83526	0.03202
2850.54949	0.03173
2849.26372	0.03129
2847.97795	0.03102
2846.69218	0.03102
2845.40641	0.03120
2844.12064	0.03139
2842.83488	0.03153
2841.54911	0.03156
2840.26334	0.03150
2838.97757	0.03138
2837.69180	0.03128
2836.40603	0.03123
2835.12026	0.03118
2833.83449	0.03107
2832.54873	0.03089
2831.26296	0.03072
2829.97719	0.03061
2828.69142	0.03052
2827.40565	0.03037
2826.11988	0.03020
2824.83411	0.03010
2823.54834	0.03007
2822.26257	0.02998
2820.97681	0.02974
2819.69104	0.02949
2818.40527	0.02940
2817.11950	0.02949
2815.83373	0.02963
2814.54796	0.02966
2813.26219	0.02954
2811.97642	0.02935
2810.69066	0.02916
2809.40489	0.02901
2808.11912	0.02892
2806.83335	0.02885
2805.54758	0.02878
2804.26181	0.02869
2802.97604	0.02859
2801.69027	0.02854
2800.40450	0.02860
2799.11874	0.02874
2797.83297	0.02888
2796.54720	0.02896
2795.26143	0.02896
2793.97566	0.02886
2792.68989	0.02861
2791.40412	0.02828
2790.11835	0.02803
2788.83259	0.02799
2787.54682	0.02809
2786.26105	0.02818
2784.97528	0.02817
2783.68951	0.02815
2782.40374	0.02818
2781.11797	0.02822
2779.83220	0.02817
2778.54643	0.02804
2777.26067	0.02790
2775.97490	0.02786
2774.68913	0.02791
2773.40336	0.02800
2772.11759	0.02805
2770.83182	0.02800
2769.54605	0.02788
2768.26028	0.02778
2766.97452	0.02783
2765.68875	0.02800
2764.40298	0.02816
2763.11721	0.02819
2761.83144	0.02803
2760.54567	0.02776
2759.25990	0.02752
2757.97413	0.02746
2756.68836	0.02756
2755.40260	0.02770
2754.11683	0.02775
2752.83106	0.02761
2751.54529	0.02730
2750.25952	0.02697
2748.97375	0.02677
2747.68798	0.02675
2746.40221	0.02680
2745.11645	0.02683
2743.83068	0.02685
2742.54491	0.02689
2741.25914	0.02701
2739.97337	0.02716
2738.68760	0.02728
2737.40183	0.02730
2736.11606	0.02723
2734.83029	0.02717
2733.54453	0.02716
2732.25876	0.02719
2730.97299	0.02724
2729.68722	0.02733
2728.40145	0.02738
2727.11568	0.02723
2725.82991	0.02684
2724.54414	0.02637
2723.25838	0.02606
2721.97261	0.02599
2720.68684	0.02603
2719.40107	0.02607
2718.11530	0.02607
2716.82953	0.02609
2715.54376	0.02615
2714.25799	0.02626
2712.97222	0.02638
2711.68646	0.02644
2710.40069	0.02641
2709.11492	0.02630
2707.82915	0.02618
2706.54338	0.02609
2705.25761	0.02603
2703.97184	0.02600
2702.68607	0.02598
2701.40031	0.02600
2700.11454	0.02606
2698.82877	0.02614
2697.54300	0.02619
2696.25723	0.02617
2694.97146	0.02613
2693.68569	0.02608
2692.39992	0.02602
2691.11415	0.02596
2689.82839	0.02595
2688.54262	0.02599
2687.25685	0.02607
2685.97108	0.02609
2684.68531	0.02607
2683.39954	0.02607
2682.11377	0.02615
2680.82800	0.02621
2679.54224	0.02611
2678.25647	0.02583
2676.97070	0.02550
2675.68493	0.02533
2674.39916	0.02538
2673.11339	0.02552
2671.82762	0.02562
2670.54185	0.02561
2669.25608	0.02552
2667.97032	0.02543
2666.68455	0.02536
2665.39878	0.02535
2664.11301	0.02541
2662.82724	0.02552
2661.54147	0.02566
2660.25570	0.02574
2658.96993	0.02567
2657.68417	0.02539
2656.39840	0.02503
2655.11263	0.02475
2653.82686	0.02468
2652.54109	0.02480
2651.25532	0.02498
2649.96955	0.02509
2648.68378	0.02504
2647.39801	0.02485
2646.11225	0.02458
2644.82648	0.02435
2643.54071	0.02426
2642.25494	0.02427
2640.96917	0.02432
2639.68340	0.02433
2638.39763	0.02430
2637.11186	0.02420
2635.82609	0.02409
2634.54033	0.02402
2633.25456	0.02403
2631.96879	0.02412
2630.68302	0.02420
2629.39725	0.02413
2628.11148	0.02382
2626.82571	0.02337
2625.53994	0.02302
2624.25418	0.02293
2622.96841	0.02309
2621.68264	0.02333
2620.39687	0.02347
2619.11110	0.02342
2617.82533	0.02325
2616.53956	0.02314
2615.25379	0.02323
2613.96802	0.02340
2612.68226	0.02341
2611.39649	0.02315
2610.11072	0.02280
2608.82495	0.02258
2607.53918	0.02255
2606.25341	0.02259
2604.96764	0.02253
2603.68187	0.02231
2602.39611	0.02199
2601.11034	0.02171
2599.82457	0.02153
2598.53880	0.02146
2597.25303	0.02151
2595.96726	0.02175
2594.68149	0.02202
2593.39572	0.02201
2592.10995	0.02158
2590.82419	0.02098
2589.53842	0.02059
2588.25265	0.02051
2586.96688	0.02063
2585.68111	0.02084
2584.39534	0.02109
2583.10957	0.02128
2581.82380	0.02125
2580.53804	0.02096
2579.25227	0.02057
2577.96650	0.02031
2576.68073	0.02038
2575.39496	0.02075
2574.10919	0.02118
2572.82342	0.02136
2571.53765	0.02121
2570.25188	0.02087
2568.96612	0.02055
2567.68035	0.02030
2566.39458	0.02002
2565.10881	0.01967
2563.82304	0.01939
2562.53727	0.01934
2561.25150	0.01949
2559.96573	0.01964
2558.67997	0.01965
2557.39420	0.01951
2556.10843	0.01930
2554.82266	0.01907
2553.53689	0.01895
2552.25112	0.01899
2550.96535	0.01914
2549.67958	0.01923
2548.39381	0.01922
2547.10805	0.01929
2545.82228	0.01963
2544.53651	0.02018
2543.25074	0.02060
2541.96497	0.02062
2540.67920	0.02030
2539.39343	0.01993
2538.10766	0.01970
2536.82190	0.01960
2535.53613	0.01961
2534.25036	0.01977
2532.96459	0.02003
2531.67882	0.02018
2530.39305	0.02005
2529.10728	0.01973
2527.82151	0.01949
2526.53574	0.01947
2525.24998	0.01963
2523.96421	0.01984
2522.67844	0.01997
2521.39267	0.01997
2520.10690	0.01978
2518.82113	0.01944
2517.53536	0.01912
2516.24959	0.01899
2514.96383	0.01901
2513.67806	0.01904
2512.39229	0.01904
2511.10652	0.01905
2509.82075	0.01910
2508.53498	0.01905
2507.24921	0.01882
2505.96344	0.01847
2504.67767	0.01817
2503.39191	0.01806
2502.10614	0.01814
2500.82037	0.01828
2499.53460	0.01838
2498.24883	0.01844
2496.96306	0.01856
2495.67729	0.01877
2494.39152	0.01895
2493.10576	0.01896
2491.81999	0.01882
2490.53422	0.01866
2489.24845	0.01861
2487.96268	0.01863
2486.67691	0.01863
2485.39114	0.01860
2484.10537	0.01866
2482.81960	0.01887
2481.53384	0.01916
2480.24807	0.01934
2478.96230	0.01922
2477.67653	0.01883
2476.39076	0.01837
2475.10499	0.01804
2473.81922	0.01792
2472.53345	0.01793
2471.24769	0.01798
2469.96192	0.01812
2468.67615	0.01843
2467.39038	0.01884
2466.10461	0.01914
2464.81884	0.01916
2463.53307	0.01886
2462.24730	0.01836
2460.96153	0.01789
2459.67577	0.01758
2458.39000	0.01745
2457.10423	0.01747
2455.81846	0.01763
2454.53269	0.01793
2453.24692	0.01834
2451.96115	0.01876
2450.67538	0.01914
2449.38962	0.01938
2448.10385	0.01933
2446.81808	0.01897
2445.53231	0.01842
2444.24654	0.01798
2442.96077	0.01780
2441.67500	0.01787
2440.38923	0.01803
2439.10346	0.01814
2437.81770	0.01810
2436.53193	0.01793
2435.24616	0.01773
2433.96039	0.01761
2432.67462	0.01761
2431.38885	0.01769
2430.10308	0.01772
2428.81731	0.01762
2427.53155	0.01740
2426.24578	0.01719
2424.96001	0.01717
2423.67424	0.01730
2422.38847	0.01741
2421.10270	0.01737
2419.81693	0.01724
2418.53116	0.01718
2417.24539	0.01724
2415.95963	0.01739
2414.67386	0.01762
2413.38809	0.01792
2412.10232	0.01817
2410.81655	0.01815
2409.53078	0.01779
2408.24501	0.01727
2406.95924	0.01688
2405.67347	0.01681
2404.38771	0.01702
2403.10194	0.01735
2401.81617	0.01762
2400.53040	0.01771
2399.24463	0.01765
2397.95886	0.01752
2396.67309	0.01745
2395.38732	0.01752
2394.10156	0.01775
2392.81579	0.01802
2391.53002	0.01813
2390.24425	0.01796
2388.95848	0.01762
2387.67271	0.01738
2386.38694	0.01743
2385.10117	0.01771
2383.81540	0.01795
2382.52964	0.01800
2381.24387	0.01791
2379.95810	0.01781
2378.67233	0.01774
2377.38656	0.01776
2376.10079	0.01795
2374.81502	0.01820
2373.52925	0.01817
2372.24349	0.01792
2370.95772	0.01767
2369.67195	0.01752
2368.38618	0.01755
2367.10041	0.01770
2365.81464	0.01785
2364.52887	0.01789
2363.24310	0.01784
2361.95733	0.01787
2360.67157	0.01804
2359.38580	0.01829
2358.10003	0.01842
2356.81426	0.01845
2355.52849	0.01858
2354.24272	0.01891
2352.95695	0.01925
2351.67118	0.01924
2350.38542	0.01903
2349.09965	0.01892
2347.81388	0.01888
2346.52811	0.01885
2345.24234	0.01893
2343.95657	0.01913
2342.67080	0.01948
2341.38503	0.01939
2340.09926	0.01905
2338.81350	0.01898
2337.52773	0.01912
2336.24196	0.01903
2334.95619	0.01901
2333.67042	0.01914
2332.38465	0.01930
2331.09888	0.01892
2329.81311	0.01898
2328.52735	0.01945
2327.24158	0.01987
2325.95581	0.02030
2324.67004	0.02052
2323.38427	0.02059
2322.09850	0.02030
2320.81273	0.01994
2319.52696	0.01966
2318.24119	0.01946
2316.95543	0.01925
2315.66966	0.01906
2314.38389	0.01895
2313.09812	0.01883
2311.81235	0.01868
2310.52658	0.01851
2309.24081	0.01825
2307.95504	0.01789
2306.66928	0.01757
2305.38351	0.01739
2304.09774	0.01735
2302.81197	0.01735
2301.52620	0.01732
2300.24043	0.01724
2298.95466	0.01703
2297.66889	0.01661
2296.38312	0.01616
2295.09736	0.01602
2293.81159	0.01635
2292.52582	0.01688
2291.24005	0.01712
2289.95428	0.01682
2288.66851	0.01620
2287.38274	0.01562
2286.09697	0.01532
2284.81121	0.01529
2283.52544	0.01543
2282.23967	0.01572
2280.95390	0.01609
2279.66813	0.01643
2278.38236	0.01664
2277.09659	0.01669
2275.81082	0.01661
2274.52505	0.01652
2273.23929	0.01646
2271.95352	0.01642
2270.66775	0.01622
2269.38198	0.01569
2268.09621	0.01484
2266.81044	0.01395
2265.52467	0.01332
2264.23890	0.01308
2262.95314	0.01313
2261.66737	0.01331
2260.38160	0.01352
2259.09583	0.01370
2257.81006	0.01376
2256.52429	0.01367
2255.23852	0.01355
2253.95275	0.01350
2252.66698	0.01345
2251.38122	0.01320
2250.09545	0.01270
2248.80968	0.01209
2247.52391	0.01162
2246.23814	0.01132
2244.95237	0.01133
2243.66660	0.01176
2242.38083	0.01232
2241.09507	0.01236
2239.80930	0.01161
2238.52353	0.01056
2237.23776	0.00998
2235.95199	0.01015
2234.66622	0.01065
2233.38045	0.01092
2232.09468	0.01082
2230.80891	0.01055
2229.52315	0.01039
2228.23738	0.01045
2226.95161	0.01082
2225.66584	0.01149
2224.38007	0.01220
2223.09430	0.01251
2221.80853	0.01231
2220.52276	0.01202
2219.23700	0.01206
2217.95123	0.01219
2216.66546	0.01187
2215.37969	0.01102
2214.09392	0.01009
2212.80815	0.00951
2211.52238	0.00946
2210.23661	0.00991
2208.95084	0.01058
2207.66508	0.01095
2206.37931	0.01064
2205.09354	0.00977
2203.80777	0.00892
2202.52200	0.00855
2201.23623	0.00871
2199.95046	0.00905
2198.66469	0.00922
2197.37893	0.00919
2196.09316	0.00902
2194.80739	0.00862
2193.52162	0.00790
2192.23585	0.00701
2190.95008	0.00633
2189.66431	0.00621
2188.37854	0.00668
2187.09277	0.00745
2185.80701	0.00800
2184.52124	0.00797
2183.23547	0.00743
2181.94970	0.00670
2180.66393	0.00595
2179.37816	0.00522
2178.09239	0.00467
2176.80662	0.00448
2175.52085	0.00468
2174.23509	0.00511
2172.94932	0.00561
2171.66355	0.00594
2170.37778	0.00589
2169.09201	0.00535
2167.80624	0.00447
2166.52047	0.00364
2165.23470	0.00328
2163.94894	0.00359
2162.66317	0.00444
2161.37740	0.00541
2160.09163	0.00601
2158.80586	0.00585
2157.52009	0.00499
2156.23432	0.00405
2154.94855	0.00369
2153.66278	0.00392
2152.37702	0.00420
2151.09125	0.00407
2149.80548	0.00363
2148.51971	0.00331
2147.23394	0.00335
2145.94817	0.00359
2144.66240	0.00377
2143.37663	0.00379
2142.09087	0.00387
2140.80510	0.00424
2139.51933	0.00487
2138.23356	0.00557
2136.94779	0.00619
2135.66202	0.00675
2134.37625	0.00726
2133.09048	0.00771
2131.80471	0.00807
2130.51895	0.00831
2129.23318	0.00833
2127.94741	0.00814
2126.66164	0.00794
2125.37587	0.00794
2124.09010	0.00818
2122.80433	0.00850
2121.51856	0.00881
2120.23280	0.00908
2118.94703	0.00921
2117.66126	0.00910
2116.37549	0.00879
2115.08972	0.00856
2113.80395	0.00864
2112.51818	0.00906
2111.23241	0.00959
2109.94664	0.00994
2108.66088	0.00989
2107.37511	0.00934
2106.08934	0.00845
2104.80357	0.00764
2103.51780	0.00732
2102.23203	0.00757
2100.94626	0.00800
2099.66049	0.00856
2098.37473	0.00864
2097.08896	0.00843
2095.80319	0.00824
2094.51742	0.00806
2093.23165	0.00781
2091.94588	0.00747
2090.66011	0.00720
2089.37434	0.00712
2088.08857	0.00730
2086.80281	0.00764
2085.51704	0.00804
2084.23127	0.00849
2082.94550	0.00900
2081.65973	0.00951
2080.37396	0.00983
2079.08819	0.00979
2077.80242	0.00949
2076.51666	0.00917
2075.23089	0.00895
2073.94512	0.00881
2072.65935	0.00879
2071.37358	0.00905
2070.08781	0.00958
2068.80204	0.01005
2067.51627	0.01007
2066.23050	0.00962
2064.94474	0.00902
2063.65897	0.00860
2062.37320	0.00837
2061.08743	0.00803
2059.80166	0.00735
2058.51589	0.00644
2057.23012	0.00565
2055.94435	0.00528
2054.65859	0.00537
2053.37282	0.00567
2052.08705	0.00587
2050.80128	0.00580
2049.51551	0.00558
2048.22974	0.00554
2046.94397	0.00588
2045.65820	0.00650
2044.37243	0.00705
2043.08667	0.00718
2041.80090	0.00677
2040.51513	0.00582
2039.22936	0.00437
2037.94359	0.00260
2036.65782	0.00097
2035.37205	0.00005
2034.08628	0.00009
2032.80052	0.00072
2031.51475	0.00145
2030.22898	0.00211
2028.94321	0.00281
2027.65744	0.00355
2026.37167	0.00413
2025.08590	0.00438
2023.80013	0.00426
2022.51436	0.00389
2021.22860	0.00344
2019.94283	0.00303
2018.65706	0.00266
2017.37129	0.00229
2016.08552	0.00200
2014.79975	0.00206
2013.51398	0.00261
2012.22821	0.00341
2010.94245	0.00387
2009.65668	0.00356
2008.37091	0.00272
2007.08514	0.00210
2005.79937	0.00218
2004.51360	0.00269
2003.22783	0.00307
2001.94206	0.00314
2000.65629	0.00312
1999.37053	0.00311
1998.08476	0.00304
1996.79899	0.00293
1995.51322	0.00309
1994.22745	0.00373
1992.94168	0.00464
1991.65591	0.00540
1990.37014	0.00580
1989.08438	0.00582
1987.79861	0.00557
1986.51284	0.00514
1985.22707	0.00467
1983.94130	0.00434
1982.65553	0.00430
1981.36976	0.00465
1980.08399	0.00529
1978.79822	0.00603
1977.51246	0.00660
1976.22669	0.00687
1974.94092	0.00679
1973.65515	0.00632
1972.36938	0.00554
1971.08361	0.00474
1969.79784	0.00425
1968.51207	0.00419
1967.22631	0.00444
1965.94054	0.00490
1964.65477	0.00553
1963.36900	0.00610
1962.08323	0.00633
1960.79746	0.00627
1959.51169	0.00630
1958.22592	0.00670
1956.94015	0.00724
1955.65439	0.00749
1954.36862	0.00736
1953.08285	0.00729
1951.79708	0.00773
1950.51131	0.00864
1949.22554	0.00947
1947.93977	0.00970
1946.65400	0.00932
1945.36823	0.00881
1944.08247	0.00856
1942.79670	0.00855
1941.51093	0.00851
1940.22516	0.00841
1938.93939	0.00846
1937.65362	0.00884
1936.36785	0.00940
1935.08208	0.00978
1933.79632	0.00975
1932.51055	0.00940
1931.22478	0.00897
1929.93901	0.00865
1928.65324	0.00843
1927.36747	0.00831
1926.08170	0.00833
1924.79593	0.00853
1923.51016	0.00884
1922.22440	0.00915
1920.93863	0.00935
1919.65286	0.00940
1918.36709	0.00934
1917.08132	0.00925
1915.79555	0.00918
1914.50978	0.00910
1913.22401	0.00903
1911.93825	0.00907
1910.65248	0.00923
1909.36671	0.00937
1908.08094	0.00933
1906.79517	0.00915
1905.50940	0.00905
1904.22363	0.00919
1902.93786	0.00950
1901.65209	0.00975
1900.36633	0.00977
1899.08056	0.00959
1897.79479	0.00929
1896.50902	0.00893
1895.22325	0.00866
1893.93748	0.00865
1892.65171	0.00898
1891.36594	0.00948
1890.08018	0.00987
1888.79441	0.00993
1887.50864	0.00969
1886.22287	0.00942
1884.93710	0.00930
1883.65133	0.00932
1882.36556	0.00929
1881.07979	0.00913
1879.79402	0.00896
1878.50826	0.00891
1877.22249	0.00903
1875.93672	0.00922
1874.65095	0.00939
1873.36518	0.00949
1872.07941	0.00949
1870.79364	0.00946
1869.50787	0.00950
1868.22211	0.00966
1866.93634	0.00988
1865.65057	0.01004
1864.36480	0.01007
1863.07903	0.00997
1861.79326	0.00976
1860.50749	0.00951
1859.22172	0.00930
1857.93595	0.00922
1856.65019	0.00931
1855.36442	0.00953
1854.07865	0.00978
1852.79288	0.00996
1851.50711	0.01004
1850.22134	0.01010
1848.93557	0.01017
1847.64980	0.01024
1846.36404	0.01027
1845.07827	0.01027
1843.79250	0.01032
1842.50673	0.01045
1841.22096	0.01057
1839.93519	0.01058
1838.64942	0.01043
1837.36365	0.01017
1836.07788	0.00989
1834.79212	0.00972
1833.50635	0.00973
1832.22058	0.00989
1830.93481	0.01011
1829.64904	0.01030
1828.36327	0.01043
1827.07750	0.01050
1825.79173	0.01056
1824.50597	0.01068
1823.22020	0.01082
1821.93443	0.01092
1820.64866	0.01089
1819.36289	0.01074
1818.07712	0.01050
1816.79135	0.01024
1815.50558	0.01002
1814.21981	0.00992
1812.93405	0.00994
1811.64828	0.01006
1810.36251	0.01022
1809.07674	0.01039
1807.79097	0.01052
1806.50520	0.01057
1805.21943	0.01051
1803.93366	0.01039
1802.64790	0.01028
1801.36213	0.01022
1800.07636	0.01022
1798.79059	0.01025
1797.50482	0.01031
1796.21905	0.01041
1794.93328	0.01053
1793.64751	0.01060
1792.36174	0.01062
1791.07598	0.01063
1789.79021	0.01065
1788.50444	0.01070
1787.21867	0.01076
1785.93290	0.01084
1784.64713	0.01089
1783.36136	0.01088
1782.07559	0.01076
1780.78983	0.01057
1779.50406	0.01036
1778.21829	0.01021
1776.93252	0.01017
1775.64675	0.01026
1774.36098	0.01043
1773.07521	0.01061
1771.78944	0.01079
1770.50367	0.01092
1769.21791	0.01095
1767.93214	0.01093
1766.64637	0.01092
1765.36060	0.01093
1764.07483	0.01090
1762.78906	0.01086
1761.50329	0.01085
1760.21752	0.01086
1758.93176	0.01085
1757.64599	0.01082
1756.36022	0.01086
1755.07445	0.01097
1753.78868	0.01103
1752.50291	0.01098
1751.21714	0.01085
1749.93137	0.01077
1748.64560	0.01076
1747.35984	0.01081
1746.07407	0.01087
1744.78830	0.01089
1743.50253	0.01085
1742.21676	0.01078
1740.93099	0.01071
1739.64522	0.01069
1738.35945	0.01077
1737.07369	0.01087
1735.78792	0.01091
1734.50215	0.01091
1733.21638	0.01095
1731.93061	0.01101
1730.64484	0.01102
1729.35907	0.01098
1728.07330	0.01094
1726.78753	0.01092
1725.50177	0.01089
1724.21600	0.01087
1722.93023	0.01092
1721.64446	0.01108
1720.35869	0.01129
1719.07292	0.01148
1717.78715	0.01166
1716.50138	0.01188
1715.21561	0.01207
1713.92985	0.01220
1712.64408	0.01230
1711.35831	0.01246
1710.07254	0.01271
1708.78677	0.01304
1707.50100	0.01341
1706.21523	0.01379
1704.92946	0.01425
1703.64370	0.01478
1702.35793	0.01529
1701.07216	0.01583
1699.78639	0.01650
1698.50062	0.01726
1697.21485	0.01794
1695.92908	0.01855
1694.64331	0.01922
1693.35754	0.01991
1692.07178	0.02050
1690.78601	0.02102
1689.50024	0.02159
1688.21447	0.02230
1686.92870	0.02310
1685.64293	0.02392
1684.35716	0.02478
1683.07139	0.02564
1681.78563	0.02638
1680.49986	0.02699
1679.21409	0.02755
1677.92832	0.02811
1676.64255	0.02867
1675.35678	0.02931
1674.07101	0.03006
1672.78524	0.03087
1671.49947	0.03163
1670.21371	0.03231
1668.92794	0.03295
1667.64217	0.03357
1666.35640	0.03417
1665.07063	0.03472
1663.78486	0.03520
1662.49909	0.03568
1661.21332	0.03618
1659.92756	0.03673
1658.64179	0.03739
1657.35602	0.03814
1656.07025	0.03887
1654.78448	0.03940
1653.49871	0.03972
1652.21294	0.03997
1650.92717	0.04019
1649.64140	0.04030
1648.35564	0.04032
1647.06987	0.04034
1645.78410	0.04039
1644.49833	0.04040
1643.21256	0.04036
1641.92679	0.04029
1640.64102	0.04024
1639.35525	0.04018
1638.06949	0.04002
1636.78372	0.03972
1635.49795	0.03934
1634.21218	0.03894
1632.92641	0.03855
1631.64064	0.03815
1630.35487	0.03776
1629.06910	0.03736
1627.78333	0.03691
1626.49757	0.03638
1625.21180	0.03575
1623.92603	0.03509
1622.64026	0.03449
1621.35449	0.03400
1620.06872	0.03354
1618.78295	0.03303
1617.49718	0.03245
1616.21142	0.03189
1614.92565	0.03142
1613.63988	0.03099
1612.35411	0.03058
1611.06834	0.03020
1609.78257	0.02986
1608.49680	0.02956
1607.21103	0.02929
1605.92526	0.02904
1604.63950	0.02878
1603.35373	0.02850
1602.06796	0.02825
1600.78219	0.02808
1599.49642	0.02801
1598.21065	0.02800
1596.92488	0.02801
1595.63911	0.02799
1594.35335	0.02796
1593.06758	0.02791
1591.78181	0.02786
1590.49604	0.02782
1589.21027	0.02782
1587.92450	0.02785
1586.63873	0.02792
1585.35296	0.02799
1584.06719	0.02803
1582.78143	0.02807
1581.49566	0.02814
1580.20989	0.02831
1578.92412	0.02855
1577.63835	0.02878
1576.35258	0.02899
1575.06681	0.02920
1573.78104	0.02938
1572.49528	0.02949
1571.20951	0.02960
1569.92374	0.02979
1568.63797	0.03008
1567.35220	0.03036
1566.06643	0.03060
1564.78066	0.03087
1563.49489	0.03122
1562.20912	0.03161
1560.92336	0.03198
1559.63759	0.03233
1558.35182	0.03267
1557.06605	0.03293
1555.78028	0.03301
1554.49451	0.03299
1553.20874	0.03301
1551.92297	0.03313
1550.63721	0.03329
1549.35144	0.03349
1548.06567	0.03374
1546.77990	0.03403
1545.49413	0.03436
1544.20836	0.03476
1542.92259	0.03517
1541.63682	0.03550
1540.35105	0.03572
1539.06529	0.03591
1537.77952	0.03609
1536.49375	0.03624
1535.20798	0.03638
1533.92221	0.03660
1532.63644	0.03690
1531.35067	0.03720
1530.06490	0.03743
1528.77914	0.03762
1527.49337	0.03786
1526.20760	0.03816
1524.92183	0.03848
1523.63606	0.03878
1522.35029	0.03910
1521.06452	0.03949
1519.77875	0.03996
1518.49298	0.04039
1517.20722	0.04070
1515.92145	0.04098
1514.63568	0.04130
1513.34991	0.04172
1512.06414	0.04224
1510.77837	0.04282
1509.49260	0.04338
1508.20683	0.04383
1506.92107	0.04421
1505.63530	0.04460
1504.34953	0.04496
1503.06376	0.04522
1501.77799	0.04540
1500.49222	0.04555
1499.20645	0.04572
1497.92068	0.04592
1496.63491	0.04615
1495.34915	0.04645
1494.06338	0.04678
1492.77761	0.04708
1491.49184	0.04737
1490.20607	0.04767
1488.92030	0.04801
1487.63453	0.04834
1486.34876	0.04868
1485.06299	0.04905
1483.77723	0.04948
1482.49146	0.04995
1481.20569	0.05045
1479.91992	0.05095
1478.63415	0.05143
1477.34838	0.05189
1476.06261	0.05235
1474.77684	0.05283
1473.49108	0.05328
1472.20531	0.05367
1470.91954	0.05399
1469.63377	0.05423
1468.34800	0.05439
1467.06223	0.05452
1465.77646	0.05466
1464.49069	0.05483
1463.20492	0.05506
1461.91916	0.05540
1460.63339	0.05584
1459.34762	0.05635
1458.06185	0.05685
1456.77608	0.05731
1455.49031	0.05769
1454.20454	0.05793
1452.91877	0.05805
1451.63301	0.05816
1450.34724	0.05835
1449.06147	0.05859
1447.77570	0.05882
1446.48993	0.05897
1445.20416	0.05903
1443.91839	0.05901
1442.63262	0.05896
1441.34685	0.05892
1440.06109	0.05887
1438.77532	0.05880
1437.48955	0.05874
1436.20378	0.05877
1434.91801	0.05891
1433.63224	0.05909
1432.34647	0.05933
1431.06070	0.05970
1429.77494	0.06022
1428.48917	0.06085
1427.20340	0.06150
1425.91763	0.06215
1424.63186	0.06281
1423.34609	0.06353
1422.06032	0.06428
1420.77455	0.06497
1419.48878	0.06556
1418.20302	0.06608
1416.91725	0.06652
1415.63148	0.06686
1414.34571	0.06708
1413.05994	0.06717
1411.77417	0.06717
1410.48840	0.06709
1409.20263	0.06696
1407.91687	0.06675
1406.63110	0.06641
1405.34533	0.06593
1404.05956	0.06537
1402.77379	0.06477
1401.48802	0.06409
1400.20225	0.06332
1398.91648	0.06247
1397.63071	0.06155
1396.34495	0.06052
1395.05918	0.05941
1393.77341	0.05826
1392.48764	0.05712
1391.20187	0.05599
1389.91610	0.05485
1388.63033	0.05370
1387.34456	0.05252
1386.05880	0.05132
1384.77303	0.05009
1383.48726	0.04886
1382.20149	0.04764
1380.91572	0.04647
1379.62995	0.04534
1378.34418	0.04424
1377.05841	0.04312
1375.77264	0.04194
1374.48688	0.04072
1373.20111	0.03952
1371.91534	0.03840
1370.62957	0.03738
1369.34380	0.03643
1368.05803	0.03549
1366.77226	0.03455
1365.48649	0.03360
1364.20073	0.03271
1362.91496	0.03191
1361.62919	0.03122
1360.34342	0.03058
1359.05765	0.02996
1357.77188	0.02937
1356.48611	0.02882
1355.20034	0.02834
1353.91457	0.02791
1352.62881	0.02749
1351.34304	0.02705
1350.05727	0.02660
1348.77150	0.02621
1347.48573	0.02592
1346.19996	0.02572
1344.91419	0.02558
1343.62842	0.02544
1342.34266	0.02523
1341.05689	0.02495
1339.77112	0.02462
1338.48535	0.02427
1337.19958	0.02394
1335.91381	0.02365
1334.62804	0.02342
1333.34227	0.02321
1332.05650	0.02302
1330.77074	0.02282
1329.48497	0.02258
1328.19920	0.02230
1326.91343	0.02200
1325.62766	0.02172
1324.34189	0.02153
1323.05612	0.02143
1321.77035	0.02136
1320.48459	0.02126
1319.19882	0.02109
1317.91305	0.02087
1316.62728	0.02063
1315.34151	0.02040
1314.05574	0.02022
1312.76997	0.02007
1311.48420	0.01993
1310.19843	0.01976
1308.91267	0.01956
1307.62690	0.01935
1306.34113	0.01916
1305.05536	0.01900
1303.76959	0.01885
1302.48382	0.01869
1301.19805	0.01852
1299.91228	0.01836
1298.62652	0.01821
1297.34075	0.01807
1296.05498	0.01792
1294.76921	0.01779
1293.48344	0.01769
1292.19767	0.01764
1290.91190	0.01761
1289.62613	0.01756
1288.34036	0.01747
1287.05460	0.01737
1285.76883	0.01729
1284.48306	0.01723
1283.19729	0.01720
1281.91152	0.01716
1280.62575	0.01708
1279.33998	0.01697
1278.05421	0.01687
1276.76845	0.01680
1275.48268	0.01676
1274.19691	0.01672
1272.91114	0.01669
1271.62537	0.01666
1270.33960	0.01665
1269.05383	0.01667
1267.76806	0.01670
1266.48229	0.01672
1265.19653	0.01673
1263.91076	0.01673
1262.62499	0.01670
1261.33922	0.01665
1260.05345	0.01657
1258.76768	0.01649
1257.48191	0.01645
1256.19614	0.01645
1254.91037	0.01648
1253.62461	0.01649
1252.33884	0.01649
1251.05307	0.01648
1249.76730	0.01650
1248.48153	0.01654
1247.19576	0.01657
1245.90999	0.01654
1244.62422	0.01646
1243.33846	0.01635
1242.05269	0.01625
1240.76692	0.01618
1239.48115	0.01613
1238.19538	0.01608
1236.90961	0.01601
1235.62384	0.01592
1234.33807	0.01582
1233.05230	0.01570
1231.76654	0.01556
1230.48077	0.01539
1229.19500	0.01520
1227.90923	0.01503
1226.62346	0.01490
1225.33769	0.01480
1224.05192	0.01471
1222.76615	0.01462
1221.48039	0.01451
1220.19462	0.01440
1218.90885	0.01427
1217.62308	0.01411
1216.33731	0.01391
1215.05154	0.01372
1213.76577	0.01358
1212.48000	0.01350
1211.19423	0.01346
1209.90847	0.01345
1208.62270	0.01345
1207.33693	0.01342
1206.05116	0.01336
1204.76539	0.01329
1203.47962	0.01324
1202.19385	0.01322
1200.90808	0.01320
1199.62232	0.01315
1198.33655	0.01315
1197.05078	0.01312
1195.76501	0.01300
1194.47924	0.01281
1193.19347	0.01260
1191.90770	0.01245
1190.62193	0.01238
1189.33616	0.01236
1188.05040	0.01235
1186.76463	0.01234
1185.47886	0.01236
1184.19309	0.01241
1182.90732	0.01244
1181.62155	0.01241
1180.33578	0.01232
1179.05001	0.01219
1177.76425	0.01208
1176.47848	0.01200
1175.19271	0.01197
1173.90694	0.01206
1172.62117	0.01225
1171.33540	0.01250
1170.04963	0.01273
1168.76386	0.01291
1167.47809	0.01306
1166.19233	0.01324
1164.90656	0.01345
1163.62079	0.01364
1162.33502	0.01375
1161.04925	0.01379
1159.76348	0.01383
1158.47771	0.01395
1157.19194	0.01415
1155.90618	0.01442
1154.62041	0.01472
1153.33464	0.01502
1152.04887	0.01528
1150.76310	0.01549
1149.47733	0.01570
1148.19156	0.01597
1146.90579	0.01634
1145.62002	0.01681
1144.33426	0.01736
1143.04849	0.01794
1141.76272	0.01856
1140.47695	0.01920
1139.19118	0.01990
1137.90541	0.02068
1136.61964	0.02158
1135.33387	0.02255
1134.04811	0.02355
1132.76234	0.02456
1131.47657	0.02563
1130.19080	0.02682
1128.90503	0.02818
1127.61926	0.02966
1126.33349	0.03123
1125.04772	0.03287
1123.76195	0.03464
1122.47619	0.03650
1121.19042	0.03840
1119.90465	0.04028
1118.61888	0.04218
1117.33311	0.04414
1116.04734	0.04618
1114.76157	0.04830
1113.47580	0.05048
1112.19004	0.05268
1110.90427	0.05484
1109.61850	0.05694
1108.33273	0.05904
1107.04696	0.06118
1105.76119	0.06334
1104.47542	0.06548
1103.18965	0.06754
1101.90388	0.06951
1100.61812	0.07144
1099.33235	0.07333
1098.04658	0.07521
1096.76081	0.07704
1095.47504	0.07876
1094.18927	0.08036
1092.90350	0.08187
1091.61773	0.08335
1090.33197	0.08485
1089.04620	0.08640
1087.76043	0.08798
1086.47466	0.08960
1085.18889	0.09126
1083.90312	0.09292
1082.61735	0.09450
1081.33158	0.09602
1080.04581	0.09753
1078.76005	0.09912
1077.47428	0.10081
1076.18851	0.10260
1074.90274	0.10447
1073.61697	0.10639
1072.33120	0.10833
1071.04543	0.11026
1069.75966	0.11222
1068.47390	0.11421
1067.18813	0.11623
1065.90236	0.11826
1064.61659	0.12029
1063.33082	0.12233
1062.04505	0.12434
1060.75928	0.12630
1059.47351	0.12821
1058.18774	0.13009
1056.90198	0.13193
1055.61621	0.13370
1054.33044	0.13539
1053.04467	0.13704
1051.75890	0.13871
1050.47313	0.14043
1049.18736	0.14219
1047.90159	0.14401
1046.61583	0.14589
1045.33006	0.14780
1044.04429	0.14968
1042.75852	0.15149
1041.47275	0.15324
1040.18698	0.15498
1038.90121	0.15673
1037.61544	0.15851
1036.32967	0.16031
1035.04391	0.16215
1033.75814	0.16398
1032.47237	0.16571
1031.18660	0.16724
1029.90083	0.16853
1028.61506	0.16961
1027.32929	0.17052
1026.04352	0.17129
1024.75775	0.17197
1023.47199	0.17255
1022.18622	0.17297
1020.90045	0.17313
1019.61468	0.17303
1018.32891	0.17268
1017.04314	0.17214
1015.75737	0.17142
1014.47160	0.17056
1013.18584	0.16951
1011.90007	0.16825
1010.61430	0.16673
1009.32853	0.16498
1008.04276	0.16301
1006.75699	0.16080
1005.47122	0.15836
1004.18545	0.15570
1002.89968	0.15288
1001.61392	0.14990
1000.32815	0.14677
999.04238	0.14349
997.75661	0.14005
996.47084	0.13649
995.18507	0.13288
993.89930	0.12925
992.61353	0.12563
991.32777	0.12201
990.04200	0.11841
988.75623	0.11486
987.47046	0.11137
986.18469	0.10789
984.89892	0.10439
983.61315	0.10092
982.32738	0.09756
981.04161	0.09440
979.75585	0.09146
978.47008	0.08869
977.18431	0.08603
975.89854	0.08350
974.61277	0.08112
973.32700	0.07895
972.04123	0.07706
970.75546	0.07549
969.46970	0.07427
968.18393	0.07336
966.89816	0.07278
965.61239	0.07247
964.32662	0.07237
963.04085	0.07237
961.75508	0.07236
960.46931	0.07226
959.18354	0.07197
957.89778	0.07145
956.61201	0.07067
955.32624	0.06966
954.04047	0.06845
952.75470	0.06710
951.46893	0.06570
950.18316	0.06430
948.89739	0.06291
947.61163	0.06156
946.32586	0.06021
945.04009	0.05885
943.75432	0.05749
942.46855	0.05618
941.18278	0.05496
939.89701	0.05380
938.61124	0.05266
937.32547	0.05152
936.03971	0.05043
934.75394	0.04939
933.46817	0.04841
932.18240	0.04746
930.89663	0.04653
929.61086	0.04567
928.32509	0.04490
927.03932	0.04420
925.75356	0.04349
924.46779	0.04277
923.18202	0.04204
921.89625	0.04135
920.61048	0.04070
919.32471	0.04007
918.03894	0.03945
916.75317	0.03885
915.46740	0.03827
914.18164	0.03774
912.89587	0.03728
911.61010	0.03692
910.32433	0.03660
909.03856	0.03627
907.75279	0.03590
906.46702	0.03550
905.18125	0.03517
903.89549	0.03493
902.60972	0.03467
901.32395	0.03426
900.03818	0.03368
898.75241	0.03310
897.46664	0.03263
896.18087	0.03228
894.89510	0.03196
893.60933	0.03171
892.32357	0.03159
891.03780	0.03164
889.75203	0.03180
888.46626	0.03201
887.18049	0.03231
885.89472	0.03286
884.60895	0.03382
883.32318	0.03523
882.03742	0.03692
880.75165	0.03862
879.46588	0.04011
878.18011	0.04136
876.89434	0.04252
875.60857	0.04374
874.32280	0.04501
873.03703	0.04616
871.75126	0.04691
870.46550	0.04706
869.17973	0.04658
867.89396	0.04559
866.60819	0.04432
865.32242	0.04295
864.03665	0.04155
862.75088	0.04011
861.46511	0.03870
860.17935	0.03743
858.89358	0.03637
857.60781	0.03548
856.32204	0.03468
855.03627	0.03392
853.75050	0.03323
852.46473	0.03262
851.17896	0.03206
849.89319	0.03154
848.60743	0.03110
847.32166	0.03077
846.03589	0.03048
844.75012	0.03016
843.46435	0.02985
842.17858	0.02958
840.89281	0.02935
839.60704	0.02913
838.32128	0.02891
837.03551	0.02871
835.74974	0.02855
834.46397	0.02840
833.17820	0.02822
831.89243	0.02800
830.60666	0.02777
829.32089	0.02755
828.03512	0.02740
826.74936	0.02733
825.46359	0.02731
824.17782	0.02728
822.89205	0.02720
821.60628	0.02703
820.32051	0.02675
819.03474	0.02638
817.74897	0.02601
816.46321	0.02573
815.17744	0.02560
813.89167	0.02562
812.60590	0.02578
811.32013	0.02603
810.03436	0.02623
808.74859	0.02625
807.46282	0.02608
806.17705	0.02587
804.89129	0.02574
803.60552	0.02575
802.31975	0.02581
801.03398	0.02582
799.74821	0.02571
798.46244	0.02552
797.17667	0.02536
795.89090	0.02532
794.60513	0.02535
793.31937	0.02536
792.03360	0.02527
790.74783	0.02511
789.46206	0.02492
788.17629	0.02478
786.89052	0.02475
785.60475	0.02480
784.31898	0.02486
783.03322	0.02482
781.74745	0.02470
780.46168	0.02456
779.17591	0.02446
777.89014	0.02442
776.60437	0.02444
775.31860	0.02450
774.03283	0.02457
772.74706	0.02461
771.46130	0.02462
770.17553	0.02461
768.88976	0.02458
767.60399	0.02454
766.31822	0.02450
765.03245	0.02453
763.74668	0.02462
762.46091	0.02471
761.17515	0.02471
759.88938	0.02462
758.60361	0.02451
757.31784	0.02446
756.03207	0.02449
754.74630	0.02457
753.46053	0.02464
752.17476	0.02468
750.88899	0.02466
749.60323	0.02458
748.31746	0.02448
747.03169	0.02441
745.74592	0.02439
744.46015	0.02444
743.17438	0.02452
741.88861	0.02463
740.60284	0.02471
739.31708	0.02475
738.03131	0.02472
736.74554	0.02461
735.45977	0.02442
734.17400	0.02424
732.88823	0.02414
731.60246	0.02416
730.31669	0.02422
729.03092	0.02428
727.74516	0.02429
726.45939	0.02427
725.17362	0.02424
723.88785	0.02428
722.60208	0.02439
721.31631	0.02456
720.03054	0.02474
718.74477	0.02488
717.45901	0.02495
716.17324	0.02494
714.88747	0.02490
713.60170	0.02488
712.31593	0.02491
711.03016	0.02498
709.74439	0.02507
708.45862	0.02514
707.17285	0.02515
705.88709	0.02513
704.60132	0.02509
703.31555	0.02506
702.02978	0.02507
700.74401	0.02514
699.45824	0.02527
698.17247	0.02538
696.88670	0.02540
695.60094	0.02531
694.31517	0.02516
693.02940	0.02503
691.74363	0.02499
690.45786	0.02504
689.17209	0.02512
687.88632	0.02519
686.60055	0.02520
685.31478	0.02517
684.02902	0.02511
682.74325	0.02502
681.45748	0.02493
680.17171	0.02484
678.88594	0.02476
677.60017	0.02470
676.31440	0.02465
675.02863	0.02463
673.74287	0.02466
672.45710	0.02474
671.17133	0.02484
669.88556	0.02496
668.59979	0.02505
667.31402	0.02508
666.02825	0.02503
664.74248	0.02491
663.45671	0.02472
662.17095	0.02447
660.88518	0.02421
659.59941	0.02399
658.31364	0.02383
657.02787	0.02372
655.74210	0.02365
654.45633	0.02361
653.17056	0.02362
651.88480	0.02365
650.59903	0.02370
649.31326	0.02376
648.02749	0.02382
646.74172	0.02388
645.45595	0.02389
644.17018	0.02387
642.88441	0.02386
641.59864	0.02392
640.31288	0.02402
639.02711	0.02413
637.74134	0.02421
636.45557	0.02431
635.16980	0.02451
633.88403	0.02484
632.59826	0.02521
631.31249	0.02561
630.02673	0.02622
628.74096	0.02695
627.45519	0.02690
626.16942	0.02761
624.88365	0.02888
623.59788	0.03040
622.31211	0.03231
621.02634	0.03449
619.74057	0.03627
618.45481	0.03715
617.16904	0.03738
615.88327	0.03759
614.59750	0.03809
613.31173	0.03890
612.02596	0.04035
610.74019	0.04329
609.45442	0.04810
608.16866	0.05388
606.88289	0.05915
605.59712	0.06313
604.31135	0.06590
603.02558	0.06772
601.73981	0.06857
600.45404	0.06835
599.16827	0.06720
597.88250	0.06557
596.59674	0.06394
595.31097	0.06268
594.02520	0.06189
592.73943	0.06147
591.45366	0.06126
590.16789	0.06122
588.88212	0.06143
587.59635	0.06203
586.31059	0.06305
585.02482	0.06443
583.73905	0.06600
582.45328	0.06762
581.16751	0.06920
579.88174	0.07076
578.59597	0.07235
577.31020	0.07402
576.02443	0.07575
574.73867	0.07743
573.45290	0.07898
572.16713	0.08047
570.88136	0.08210
569.59559	0.08408
568.30982	0.08646
567.02405	0.08899
565.73828	0.09131
564.45251	0.09310
563.16675	0.09416
561.88098	0.09441
560.59521	0.09380
559.30944	0.09230
558.02367	0.09003
556.73790	0.08718
555.45213	0.08396
554.16636	0.08051
552.88060	0.07695
551.59483	0.07340
550.30906	0.06999
549.02329	0.06680
547.73752	0.06391
546.45175	0.06136
545.16598	0.05915
543.88021	0.05718
542.59444	0.05533
541.30868	0.05350
540.02291	0.05167
538.73714	0.04989
537.45137	0.04822
536.16560	0.04671
534.87983	0.04536
533.59406	0.04416
532.30829	0.04312
531.02253	0.04221
529.73676	0.04136
528.45099	0.04048
527.16522	0.03950
525.87945	0.03849
524.59368	0.03757
523.30791	0.03680
522.02214	0.03614
520.73637	0.03550
519.45061	0.03485
518.16484	0.03417
516.87907	0.03347
515.59330	0.03270
514.30753	0.03191
513.02176	0.03122
511.73599	0.03075
510.45022	0.03045
509.16446	0.03015
507.87869	0.02969
506.59292	0.02903
505.30715	0.02828
504.02138	0.02757
502.73561	0.02699
501.44984	0.02657
500.16407	0.02630
498.87830	0.02615
497.59254	0.02609
496.30677	0.02603
495.02100	0.02592
493.73523	0.02576
492.44946	0.02559
491.16369	0.02546
489.87792	0.02536
488.59215	0.02526
487.30639	0.02511
486.02062	0.02489
484.73485	0.02467
483.44908	0.02447
482.16331	0.02430
480.87754	0.02415
479.59177	0.02410
478.30600	0.02419
477.02023	0.02445
475.73447	0.02479
474.44870	0.02507
473.16293	0.02517
471.87716	0.02505
470.59139	0.02478
469.30562	0.02446
468.01985	0.02420
466.73408	0.02400
465.44832	0.02382
464.16255	0.02365
462.87678	0.02347
461.59101	0.02326
460.30524	0.02303
459.01947	0.02278
457.73370	0.02257
456.44793	0.02239
455.16216	0.02222
453.87640	0.02203
452.59063	0.02183
451.30486	0.02161
450.01909	0.02140
448.73332	0.02118
447.44755	0.02100
446.16178	0.02084
444.87601	0.02071
443.59025	0.02058
442.30448	0.02045
441.01871	0.02034
439.73294	0.02025
438.44717	0.02018
437.16140	0.02012
435.87563	0.02007
434.58986	0.02001
433.30409	0.01998
432.01833	0.01995
430.73256	0.01989
429.44679	0.01979
428.16102	0.01965
426.87525	0.01950
425.58948	0.01939
424.30371	0.01931
423.01794	0.01926
421.73218	0.01920
420.44641	0.01911
419.16064	0.01900
417.87487	0.01888
416.58910	0.01876
415.30333	0.01867
414.01756	0.01860
412.73179	0.01854
411.44602	0.01849
410.16026	0.01848
408.87449	0.01851
407.58872	0.01858
406.30295	0.01865
405.01718	0.01869
403.73141	0.01870
402.44564	0.01873
401.15987	0.01879
399.87411	0.01888
