3997.45528	-0.01729
3996.16951	-0.01738
3994.88374	-0.01748
3993.59798	-0.01748
3992.31221	-0.01723
3991.02644	-0.01676
3989.74067	-0.01621
3988.45490	-0.01556
3987.16913	-0.01481
3985.88336	-0.01428
3984.59759	-0.01428
3983.31183	-0.01468
3982.02606	-0.01498
3980.74029	-0.01486
3979.45452	-0.01445
3978.16875	-0.01401
3976.88298	-0.01363
3975.59721	-0.01329
3974.31144	-0.01298
3973.02567	-0.01272
3971.73991	-0.01245
3970.45414	-0.01210
3969.16837	-0.01172
3967.88260	-0.01152
3966.59683	-0.01172
3965.31106	-0.01234
3964.02529	-0.01301
3962.73952	-0.01320
3961.45376	-0.01266
3960.16799	-0.01156
3958.88222	-0.01040
3957.59645	-0.00968
3956.31068	-0.00967
3955.02491	-0.01028
3953.73914	-0.01112
3952.45337	-0.01163
3951.16760	-0.01149
3949.88184	-0.01085
3948.59607	-0.01017
3947.31030	-0.00987
3946.02453	-0.00998
3944.73876	-0.01027
3943.45299	-0.01057
3942.16722	-0.01083
3940.88145	-0.01094
3939.59569	-0.01080
3938.30992	-0.01047
3937.02415	-0.01008
3935.73838	-0.00969
3934.45261	-0.00927
3933.16684	-0.00896
3931.88107	-0.00895
3930.59530	-0.00915
3929.30953	-0.00926
3928.02377	-0.00901
3926.73800	-0.00833
3925.45223	-0.00744
3924.16646	-0.00668
3922.88069	-0.00624
3921.59492	-0.00609
3920.30915	-0.00612
3919.02338	-0.00623
3917.73762	-0.00638
3916.45185	-0.00666
3915.16608	-0.00701
3913.88031	-0.00725
3912.59454	-0.00728
3911.30877	-0.00724
3910.02300	-0.00736
3908.73723	-0.00762
3907.45146	-0.00782
3906.16570	-0.00782
3904.87993	-0.00778
3903.59416	-0.00796
3902.30839	-0.00826
3901.02262	-0.00839
3899.73685	-0.00821
3898.45108	-0.00794
3897.16531	-0.00775
3895.87955	-0.00756
3894.59378	-0.00711
3893.30801	-0.00630
3892.02224	-0.00542
3890.73647	-0.00506
3889.45070	-0.00533
3888.16493	-0.00570
3886.87916	-0.00575
3885.59339	-0.00558
3884.30763	-0.00523
3883.02186	-0.00450
3881.73609	-0.00354
3880.45032	-0.00306
3879.16455	-0.00348
3877.87878	-0.00435
3876.59301	-0.00498
3875.30724	-0.00521
3874.02148	-0.00520
3872.73571	-0.00491
3871.44994	-0.00431
3870.16417	-0.00385
3868.87840	-0.00391
3867.59263	-0.00397
3866.30686	-0.00357
3865.02109	-0.00313
3863.73532	-0.00326
3862.44956	-0.00386
3861.16379	-0.00441
3859.87802	-0.00476
3858.59225	-0.00503
3857.30648	-0.00501
3856.02071	-0.00422
3854.73494	-0.00270
3853.44917	-0.00134
3852.16341	-0.00079
3850.87764	-0.00073
3849.59187	-0.00063
3848.30610	-0.00037
3847.02033	-0.00008
3845.73456	0.00015
3844.44879	0.00015
3843.16302	-0.00027
3841.87725	-0.00107
3840.59149	-0.00186
3839.30572	-0.00229
3838.01995	-0.00238
3836.73418	-0.00229
3835.44841	-0.00193
3834.16264	-0.00130
3832.87687	-0.00087
3831.59110	-0.00118
3830.30534	-0.00211
3829.01957	-0.00289
3827.73380	-0.00290
3826.44803	-0.00223
3825.16226	-0.00131
3823.87649	-0.00035
3822.59072	0.00040
3821.30495	0.00041
3820.01918	-0.00043
3818.73342	-0.00129
3817.44765	-0.00142
3816.16188	-0.00116
3814.87611	-0.00120
3813.59034	-0.00161
3812.30457	-0.00225
3811.01880	-0.00315
3809.73303	-0.00401
3808.44726	-0.00430
3807.16150	-0.00404
3805.87573	-0.00364
3804.58996	-0.00302
3803.30419	-0.00197
3802.01842	-0.00090
3800.73265	-0.00042
3799.44688	-0.00029
3798.16111	0.00008
3796.87535	0.00058
3795.58958	0.00067
3794.30381	0.00025
3793.01804	-0.00040
3791.73227	-0.00106
3790.44650	-0.00153
3789.16073	-0.00157
3787.87496	-0.00114
3786.58919	-0.00060
3785.30343	-0.00046
3784.01766	-0.00090
3782.73189	-0.00144
3781.44612	-0.00147
3780.16035	-0.00101
3778.87458	-0.00065
3777.58881	-0.00075
3776.30304	-0.00105
3775.01728	-0.00111
3773.73151	-0.00085
3772.44574	-0.00046
3771.15997	-0.00026
3769.87420	-0.00047
3768.58843	-0.00095
3767.30266	-0.00136
3766.01689	-0.00167
3764.73112	-0.00212
3763.44536	-0.00275
3762.15959	-0.00315
3760.87382	-0.00302
3759.58805	-0.00250
3758.30228	-0.00196
3757.01651	-0.00176
3755.73074	-0.00185
3754.44497	-0.00173
3753.15921	-0.00102
3751.87344	0.00005
3750.58767	0.00082
3749.30190	0.00062
3748.01613	-0.00032
3746.73036	-0.00078
3745.44459	-0.00025
3744.15882	0.00009
3742.87305	-0.00066
3741.58729	-0.00176
3740.30152	-0.00248
3739.01575	-0.00287
3737.72998	-0.00313
3736.44421	-0.00333
3735.15844	-0.00322
3733.87267	-0.00289
3732.58690	-0.00266
3731.30114	-0.00312
3730.01537	-0.00427
3728.72960	-0.00512
3727.44383	-0.00521
3726.15806	-0.00477
3724.87229	-0.00426
3723.58652	-0.00412
3722.30075	-0.00430
3721.01498	-0.00473
3719.72922	-0.00524
3718.44345	-0.00519
3717.15768	-0.00442
3715.87191	-0.00330
3714.58614	-0.00251
3713.30037	-0.00265
3712.01460	-0.00335
3710.72883	-0.00416
3709.44307	-0.00482
3708.15730	-0.00487
3706.87153	-0.00485
3705.58576	-0.00523
3704.29999	-0.00585
3703.01422	-0.00625
3701.72845	-0.00621
3700.44268	-0.00583
3699.15691	-0.00526
3697.87115	-0.00466
3696.58538	-0.00430
3695.29961	-0.00426
3694.01384	-0.00436
3692.72807	-0.00380
3691.44230	-0.00229
3690.15653	-0.00039
3688.87076	0.00096
3687.58500	0.00106
3686.29923	0.00022
3685.01346	-0.00039
3683.72769	-0.00041
3682.44192	-0.00004
3681.15615	0.00056
3679.87038	0.00108
3678.58461	0.00143
3677.29884	0.00193
3676.01308	0.00235
3674.72731	0.00221
3673.44154	0.00158
3672.15577	0.00104
3670.87000	0.00074
3669.58423	0.00043
3668.29846	0.00032
3667.01269	0.00082
3665.72693	0.00176
3664.44116	0.00271
3663.15539	0.00323
3661.86962	0.00329
3660.58385	0.00319
3659.29808	0.00337
3658.01231	0.00409
3656.72654	0.00505
3655.44077	0.00576
3654.15501	0.00613
3652.86924	0.00657
3651.58347	0.00729
3650.29770	0.00807
3649.01193	0.00857
3647.72616	0.00866
3646.44039	0.00835
3645.15462	0.00787
3643.86886	0.00758
3642.58309	0.00760
3641.29732	0.00783
3640.01155	0.00812
3638.72578	0.00842
3637.44001	0.00873
3636.15424	0.00902
3634.86847	0.00917
3633.58270	0.00929
3632.29694	0.00966
3631.01117	0.01042
3629.72540	0.01132
3628.43963	0.01155
3627.15386	0.01111
3625.86809	0.01065
3624.58232	0.01084
3623.29655	0.01133
3622.01079	0.01194
3620.72502	0.01241
3619.43925	0.01283
3618.15348	0.01313
3616.86771	0.01340
3615.58194	0.01398
3614.29617	0.01489
3613.01040	0.01575
3611.72463	0.01606
3610.43887	0.01590
3609.15310	0.01539
3607.86733	0.01474
3606.58156	0.01428
3605.29579	0.01448
3604.01002	0.01539
3602.72425	0.01646
3601.43848	0.01737
3600.15272	0.01810
3598.86695	0.01879
3597.58118	0.01939
3596.29541	0.02012
3595.00964	0.02065
3593.72387	0.02087
3592.43810	0.02114
3591.15233	0.02132
3589.86656	0.02133
3588.58080	0.02148
3587.29503	0.02160
3586.00926	0.02169
3584.72349	0.02185
3583.43772	0.02213
3582.15195	0.02258
3580.86618	0.02325
3579.58041	0.02406
3578.29464	0.02489
3577.00888	0.02558
3575.72311	0.02603
3574.43734	0.02621
3573.15157	0.02630
3571.86580	0.02651
3570.58003	0.02705
3569.29426	0.02795
3568.00849	0.02895
3566.72273	0.02970
3565.43696	0.03018
3564.15119	0.03054
3562.86542	0.03098
3561.57965	0.03138
3560.29388	0.03153
3559.00811	0.03141
3557.72234	0.03121
3556.43657	0.03118
3555.15081	0.03147
3553.86504	0.03198
3552.57927	0.03245
3551.29350	0.03267
3550.00773	0.03274
3548.72196	0.03287
3547.43619	0.03313
3546.15042	0.03333
3544.86466	0.03327
3543.57889	0.03300
3542.29312	0.03281
3541.00735	0.03304
3539.72158	0.03378
3538.43581	0.03493
3537.15004	0.03626
3535.86427	0.03752
3534.57850	0.03847
3533.29274	0.03890
3532.00697	0.03879
3530.72120	0.03842
3529.43543	0.03818
3528.14966	0.03831
3526.86389	0.03873
3525.57812	0.03922
3524.29235	0.03969
3523.00659	0.04024
3521.72082	0.04092
3520.43505	0.04149
3519.14928	0.04158
3517.86351	0.04113
3516.57774	0.04063
3515.29197	0.04066
3514.00620	0.04139
3512.72043	0.04245
3511.43467	0.04335
3510.14890	0.04388
3508.86313	0.04408
3507.57736	0.04409
3506.29159	0.04410
3505.00582	0.04432
3503.72005	0.04488
3502.43428	0.04566
3501.14852	0.04644
3499.86275	0.04709
3498.57698	0.04758
3497.29121	0.04783
3496.00544	0.04779
3494.71967	0.04751
3493.43390	0.04722
3492.14813	0.04718
3490.86236	0.04740
3489.57660	0.04775
3488.29083	0.04803
3487.00506	0.04819
3485.71929	0.04837
3484.43352	0.04880
3483.14775	0.04944
3481.86198	0.05004
3480.57621	0.05026
3479.29045	0.05004
3478.00468	0.04955
3476.71891	0.04913
3475.43314	0.04902
3474.14737	0.04927
3472.86160	0.04981
3471.57583	0.05041
3470.29006	0.05089
3469.00429	0.05118
3467.71853	0.05136
3466.43276	0.05150
3465.14699	0.05165
3463.86122	0.05180
3462.57545	0.05193
3461.28968	0.05200
3460.00391	0.05206
3458.71814	0.05224
3457.43238	0.05266
3456.14661	0.05331
3454.86084	0.05398
3453.57507	0.05444
3452.28930	0.05462
3451.00353	0.05462
3449.71776	0.05453
3448.43199	0.05436
3447.14622	0.05409
3445.86046	0.05389
3444.57469	0.05406
3443.28892	0.05480
3442.00315	0.05592
3440.71738	0.05692
3439.43161	0.05737
3438.14584	0.05719
3436.86007	0.05661
3435.57431	0.05605
3434.28854	0.05581
3433.00277	0.05594
3431.71700	0.05625
3430.43123	0.05657
3429.14546	0.05691
3427.85969	0.05743
3426.57392	0.05823
3425.28815	0.05918
3424.00239	0.05995
3422.71662	0.06033
3421.43085	0.06047
3420.14508	0.06070
3418.85931	0.06115
3417.57354	0.06160
3416.28777	0.06172
3415.00200	0.06145
3413.71624	0.06108
3412.43047	0.06092
3411.14470	0.06109
3409.85893	0.06148
3408.57316	0.06184
3407.28739	0.06203
3406.00162	0.06205
3404.71585	0.06202
3403.43008	0.06206
3402.14432	0.06209
3400.85855	0.06195
3399.57278	0.06155
3398.28701	0.06111
3397.00124	0.06093
3395.71547	0.06117
3394.42970	0.06175
3393.14393	0.06239
3391.85817	0.06284
3390.57240	0.06304
3389.28663	0.06317
3388.00086	0.06337
3386.71509	0.06360
3385.42932	0.06374
3384.14355	0.06372
3382.85778	0.06363
3381.57201	0.06356
3380.28625	0.06353
3379.00048	0.06347
3377.71471	0.06335
3376.42894	0.06319
3375.14317	0.06310
3373.85740	0.06320
3372.57163	0.06360
3371.28586	0.06426
3370.00010	0.06498
3368.71433	0.06551
3367.42856	0.06579
3366.14279	0.06591
3364.85702	0.06595
3363.57125	0.06596
3362.28548	0.06594
3360.99971	0.06588
3359.71394	0.06566
3358.42818	0.06520
3357.14241	0.06461
3355.85664	0.06420
3354.57087	0.06427
3353.28510	0.06479
3351.99933	0.06549
3350.71356	0.06608
3349.42779	0.06647
3348.14202	0.06669
3346.85626	0.06676
3345.57049	0.06662
3344.28472	0.06631
3342.99895	0.06597
3341.71318	0.06574
3340.42741	0.06561
3339.14164	0.06556
3337.85587	0.06559
3336.57011	0.06579
3335.28434	0.06616
3333.99857	0.06660
3332.71280	0.06693
3331.42703	0.06705
3330.14126	0.06690
3328.85549	0.06652
3327.56972	0.06605
3326.28395	0.06567
3324.99819	0.06561
3323.71242	0.06591
3322.42665	0.06648
3321.14088	0.06710
3319.85511	0.06756
3318.56934	0.06768
3317.28357	0.06743
3315.99780	0.06689
3314.71204	0.06631
3313.42627	0.06597
3312.14050	0.06597
3310.85473	0.06623
3309.56896	0.06661
3308.28319	0.06688
3306.99742	0.06687
3305.71165	0.06653
3304.42588	0.06600
3303.14012	0.06551
3301.85435	0.06520
3300.56858	0.06507
3299.28281	0.06505
3297.99704	0.06502
3296.71127	0.06501
3295.42550	0.06512
3294.13973	0.06545
3292.85397	0.06588
3291.56820	0.06611
3290.28243	0.06596
3288.99666	0.06554
3287.71089	0.06512
3286.42512	0.06495
3285.13935	0.06508
3283.85358	0.06540
3282.56781	0.06559
3281.28205	0.06543
3279.99628	0.06502
3278.71051	0.06473
3277.42474	0.06491
3276.13897	0.06550
3274.85320	0.06613
3273.56743	0.06641
3272.28166	0.06624
3270.99590	0.06579
3269.71013	0.06543
3268.42436	0.06541
3267.13859	0.06572
3265.85282	0.06610
3264.56705	0.06624
3263.28128	0.06602
3261.99551	0.06559
3260.70974	0.06521
3259.42398	0.06514
3258.13821	0.06541
3256.85244	0.06588
3255.56667	0.06627
3254.28090	0.06637
3252.99513	0.06621
3251.70936	0.06595
3250.42359	0.06571
3249.13783	0.06545
3247.85206	0.06512
3246.56629	0.06477
3245.28052	0.06452
3243.99475	0.06443
3242.70898	0.06446
3241.42321	0.06448
3240.13744	0.06436
3238.85167	0.06408
3237.56591	0.06387
3236.28014	0.06401
3234.99437	0.06460
3233.70860	0.06538
3232.42283	0.06594
3231.13706	0.06602
3229.85129	0.06571
3228.56552	0.06525
3227.27976	0.06477
3225.99399	0.06432
3224.70822	0.06391
3223.42245	0.06361
3222.13668	0.06348
3220.85091	0.06351
3219.56514	0.06366
3218.27937	0.06389
3216.99360	0.06418
3215.70784	0.06453
3214.42207	0.06485
3213.13630	0.06502
3211.85053	0.06497
3210.56476	0.06480
3209.27899	0.06463
3207.99322	0.06446
3206.70745	0.06422
3205.42169	0.06391
3204.13592	0.06366
3202.85015	0.06354
3201.56438	0.06352
3200.27861	0.06351
3198.99284	0.06351
3197.70707	0.06352
3196.42130	0.06346
3195.13553	0.06329
3193.84977	0.06307
3192.56400	0.06295
3191.27823	0.06301
3189.99246	0.06318
3188.70669	0.06329
3187.42092	0.06322
3186.13515	0.06297
3184.84938	0.06260
3183.56362	0.06218
3182.27785	0.06189
3180.99208	0.06195
3179.70631	0.06236
3178.42054	0.06287
3177.13477	0.06311
3175.84900	0.06301
3174.56323	0.06277
3173.27746	0.06263
3171.99170	0.06262
3170.70593	0.06262
3169.42016	0.06254
3168.13439	0.06241
3166.84862	0.06231
3165.56285	0.06228
3164.27708	0.06227
3162.99131	0.06218
3161.70555	0.06199
3160.41978	0.06180
3159.13401	0.06174
3157.84824	0.06180
3156.56247	0.06183
3155.27670	0.06169
3153.99093	0.06137
3152.70516	0.06103
3151.41939	0.06077
3150.13363	0.06063
3148.84786	0.06054
3147.56209	0.06048
3146.27632	0.06042
3144.99055	0.06042
3143.70478	0.06052
3142.41901	0.06071
3141.13324	0.06087
3139.84748	0.06084
3138.56171	0.06056
3137.27594	0.06008
3135.99017	0.05956
3134.70440	0.05917
3133.41863	0.05900
3132.13286	0.05899
3130.84709	0.05899
3129.56132	0.05896
3128.27556	0.05896
3126.98979	0.05905
3125.70402	0.05915
3124.41825	0.05912
3123.13248	0.05900
3121.84671	0.05885
3120.56094	0.05869
3119.27517	0.05848
3117.98940	0.05825
3116.70364	0.05813
3115.41787	0.05822
3114.13210	0.05840
3112.84633	0.05843
3111.56056	0.05823
3110.27479	0.05792
3108.98902	0.05771
3107.70325	0.05762
3106.41749	0.05756
3105.13172	0.05744
3103.84595	0.05726
3102.56018	0.05708
3101.27441	0.05700
3099.98864	0.05713
3098.70287	0.05750
3097.41710	0.05799
3096.13133	0.05833
3094.84557	0.05837
3093.55980	0.05806
3092.27403	0.05749
3090.98826	0.05683
3089.70249	0.05634
3088.41672	0.05624
3087.13095	0.05655
3085.84518	0.05703
3084.55942	0.05740
3083.27365	0.05753
3081.98788	0.05740
3080.70211	0.05706
3079.41634	0.05662
3078.13057	0.05618
3076.84480	0.05580
3075.55903	0.05549
3074.27326	0.05525
3072.98750	0.05506
3071.70173	0.05485
3070.41596	0.05458
3069.13019	0.05438
3067.84442	0.05444
3066.55865	0.05477
3065.27288	0.05520
3063.98711	0.05556
3062.70135	0.05579
3061.41558	0.05591
3060.12981	0.05588
3058.84404	0.05565
3057.55827	0.05524
3056.27250	0.05473
3054.98673	0.05426
3053.70096	0.05400
3052.41519	0.05399
3051.12943	0.05414
3049.84366	0.05427
3048.55789	0.05425
3047.27212	0.05403
3045.98635	0.05369
3044.70058	0.05330
3043.41481	0.05291
3042.12904	0.05260
3040.84328	0.05246
3039.55751	0.05255
3038.27174	0.05283
3036.98597	0.05310
3035.70020	0.05321
3034.41443	0.05313
3033.12866	0.05300
3031.84289	0.05295
3030.55712	0.05297
3029.27136	0.05293
3027.98559	0.05277
3026.69982	0.05256
3025.41405	0.05240
3024.12828	0.05232
3022.84251	0.05228
3021.55674	0.05228
3020.27097	0.05235
3018.98521	0.05244
3017.69944	0.05238
3016.41367	0.05209
3015.12790	0.05166
3013.84213	0.05136
3012.55636	0.05140
3011.27059	0.05179
3009.98482	0.05233
3008.69905	0.05271
3007.41329	0.05275
3006.12752	0.05247
3004.84175	0.05200
3003.55598	0.05149
3002.27021	0.05104
3000.98444	0.05075
2999.69867	0.05067
2998.41290	0.05086
2997.12714	0.05119
2995.84137	0.05152
2994.55560	0.05172
2993.26983	0.05173
2991.98406	0.05160
2990.69829	0.05145
2989.41252	0.05139
2988.12675	0.05142
2986.84098	0.05152
2985.55522	0.05171
2984.26945	0.05198
2982.98368	0.05235
2981.69791	0.05281
2980.41214	0.05334
2979.12637	0.05390
2977.84060	0.05442
2976.55483	0.05493
2975.26907	0.05548
2973.98330	0.05611
2972.69753	0.05685
2971.41176	0.05776
2970.12599	0.05888
2968.84022	0.06014
2967.55445	0.06138
2966.26868	0.06249
2964.98291	0.06350
2963.69715	0.06451
2962.41138	0.06550
2961.12561	0.06640
2959.83984	0.06718
2958.55407	0.06792
2957.26830	0.06867
2955.98253	0.06935
2954.69676	0.06986
2953.41100	0.07016
2952.12523	0.07032
2950.83946	0.07039
2949.55369	0.07043
2948.26792	0.07046
2946.98215	0.07050
2945.69638	0.07051
2944.41061	0.07042
2943.12484	0.07026
2941.83908	0.07018
2940.55331	0.07038
2939.26754	0.07092
2937.98177	0.07166
2936.69600	0.07241
2935.41023	0.07305
2934.12446	0.07363
2932.83869	0.07426
2931.55293	0.07504
2930.26716	0.07592
2928.98139	0.07681
2927.69562	0.07766
2926.40985	0.07848
2925.12408	0.07913
2923.83831	0.07938
2922.55254	0.07918
2921.26677	0.07875
2919.98101	0.07834
2918.69524	0.07793
2917.40947	0.07727
2916.12370	0.07625
2914.83793	0.07493
2913.55216	0.07354
2912.26639	0.07232
2910.98062	0.07142
2909.69486	0.07083
2908.40909	0.07036
2907.12332	0.06982
2905.83755	0.06914
2904.55178	0.06841
2903.26601	0.06772
2901.98024	0.06713
2900.69447	0.06660
2899.40870	0.06602
2898.12294	0.06533
2896.83717	0.06458
2895.55140	0.06389
2894.26563	0.06327
2892.97986	0.06263
2891.69409	0.06189
2890.40832	0.06117
2889.12255	0.06063
2887.83678	0.06039
2886.55102	0.06037
2885.26525	0.06036
2883.97948	0.06016
2882.69371	0.05973
2881.40794	0.05927
2880.12217	0.05903
2878.83640	0.05916
2877.55063	0.05962
2876.26487	0.06017
2874.97910	0.06058
2873.69333	0.06081
2872.40756	0.06100
2871.12179	0.06130
2869.83602	0.06166
2868.55025	0.06191
2867.26448	0.06191
2865.97871	0.06170
2864.69295	0.06147
2863.40718	0.06141
2862.12141	0.06153
2860.83564	0.06169
2859.54987	0.06182
2858.26410	0.06195
2856.97833	0.06208
2855.69256	0.06210
2854.40680	0.06193
2853.12103	0.06158
2851.83526	0.06112
2850.54949	0.06056
2849.26372	0.05983
2847.97795	0.05889
2846.69218	0.05777
2845.40641	0.05653
2844.12064	0.05530
2842.83488	0.05427
2841.54911	0.05356
2840.26334	0.05312
2838.97757	0.05270
2837.69180	0.05210
2836.40603	0.05133
2835.12026	0.05050
2833.83449	0.04966
2832.54873	0.04875
2831.26296	0.04780
2829.97719	0.04699
2828.69142	0.04647
2827.40565	0.04623
2826.11988	0.04617
2824.83411	0.04614
2823.54834	0.04599
2822.26257	0.04568
2820.97681	0.04523
2819.69104	0.04473
2818.40527	0.04425
2817.11950	0.04386
2815.83373	0.04365
2814.54796	0.04362
2813.26219	0.04364
2811.97642	0.04358
2810.69066	0.04339
2809.40489	0.04311
2808.11912	0.04281
2806.83335	0.04253
2805.54758	0.04232
2804.26181	0.04219
2802.97604	0.04210
2801.69027	0.04200
2800.40450	0.04187
2799.11874	0.04175
2797.83297	0.04167
2796.54720	0.04162
2795.26143	0.04159
2793.97566	0.04152
2792.68989	0.04141
2791.40412	0.04125
2790.11835	0.04111
2788.83259	0.04105
2787.54682	0.04104
2786.26105	0.04097
2784.97528	0.04076
2783.68951	0.04044
2782.40374	0.04017
2781.11797	0.04004
2779.83220	0.04003
2778.54643	0.04002
2777.26067	0.03984
2775.97490	0.03947
2774.68913	0.03906
2773.40336	0.03881
2772.11759	0.03875
2770.83182	0.03876
2769.54605	0.03874
2768.26028	0.03874
2766.97452	0.03886
2765.68875	0.03910
2764.40298	0.03934
2763.11721	0.03946
2761.83144	0.03941
2760.54567	0.03920
2759.25990	0.03893
2757.97413	0.03873
2756.68836	0.03868
2755.40260	0.03871
2754.11683	0.03869
2752.83106	0.03850
2751.54529	0.03818
2750.25952	0.03792
2748.97375	0.03788
2747.68798	0.03804
2746.40221	0.03821
2745.11645	0.03825
2743.83068	0.03819
2742.54491	0.03808
2741.25914	0.03792
2739.97337	0.03769
2738.68760	0.03748
2737.40183	0.03737
2736.11606	0.03738
2734.83029	0.03745
2733.54453	0.03752
2732.25876	0.03750
2730.97299	0.03735
2729.68722	0.03711
2728.40145	0.03695
2727.11568	0.03697
2725.82991	0.03707
2724.54414	0.03706
2723.25838	0.03686
2721.97261	0.03660
2720.68684	0.03644
2719.40107	0.03641
2718.11530	0.03646
2716.82953	0.03650
2715.54376	0.03655
2714.25799	0.03658
2712.97222	0.03654
2711.68646	0.03634
2710.40069	0.03603
2709.11492	0.03574
2707.82915	0.03556
2706.54338	0.03552
2705.25761	0.03562
2703.97184	0.03581
2702.68607	0.03596
2701.40031	0.03593
2700.11454	0.03563
2698.82877	0.03519
2697.54300	0.03479
2696.25723	0.03460
2694.97146	0.03463
2693.68569	0.03479
2692.39992	0.03497
2691.11415	0.03511
2689.82839	0.03518
2688.54262	0.03515
2687.25685	0.03503
2685.97108	0.03489
2684.68531	0.03478
2683.39954	0.03473
2682.11377	0.03464
2680.82800	0.03449
2679.54224	0.03425
2678.25647	0.03400
2676.97070	0.03382
2675.68493	0.03378
2674.39916	0.03388
2673.11339	0.03403
2671.82762	0.03414
2670.54185	0.03421
2669.25608	0.03428
2667.97032	0.03433
2666.68455	0.03432
2665.39878	0.03425
2664.11301	0.03418
2662.82724	0.03415
2661.54147	0.03419
2660.25570	0.03429
2658.96993	0.03441
2657.68417	0.03447
2656.39840	0.03442
2655.11263	0.03426
2653.82686	0.03399
2652.54109	0.03369
2651.25532	0.03346
2649.96955	0.03335
2648.68378	0.03326
2647.39801	0.03314
2646.11225	0.03299
2644.82648	0.03279
2643.54071	0.03248
2642.25494	0.03206
2640.96917	0.03169
2639.68340	0.03155
2638.39763	0.03164
2637.11186	0.03174
2635.82609	0.03163
2634.54033	0.03133
2633.25456	0.03100
2631.96879	0.03074
2630.68302	0.03055
2629.39725	0.03038
2628.11148	0.03029
2626.82571	0.03030
2625.53994	0.03038
2624.25418	0.03040
2622.96841	0.03021
2621.68264	0.02982
2620.39687	0.02938
2619.11110	0.02907
2617.82533	0.02891
2616.53956	0.02880
2615.25379	0.02870
2613.96802	0.02866
2612.68226	0.02866
2611.39649	0.02867
2610.11072	0.02866
2608.82495	0.02866
2607.53918	0.02865
2606.25341	0.02861
2604.96764	0.02847
2603.68187	0.02824
2602.39611	0.02789
2601.11034	0.02739
2599.82457	0.02678
2598.53880	0.02631
2597.25303	0.02623
2595.96726	0.02661
2594.68149	0.02716
2593.39572	0.02743
2592.10995	0.02726
2590.82419	0.02688
2589.53842	0.02666
2588.25265	0.02677
2586.96688	0.02704
2585.68111	0.02731
2584.39534	0.02749
2583.10957	0.02764
2581.82380	0.02771
2580.53804	0.02760
2579.25227	0.02729
2577.96650	0.02687
2576.68073	0.02651
2575.39496	0.02630
2574.10919	0.02619
2572.82342	0.02597
2571.53765	0.02552
2570.25188	0.02496
2568.96612	0.02457
2567.68035	0.02454
2566.39458	0.02479
2565.10881	0.02508
2563.82304	0.02528
2562.53727	0.02541
2561.25150	0.02554
2559.96573	0.02561
2558.67997	0.02555
2557.39420	0.02538
2556.10843	0.02526
2554.82266	0.02532
2553.53689	0.02554
2552.25112	0.02584
2550.96535	0.02601
2549.67958	0.02588
2548.39381	0.02542
2547.10805	0.02483
2545.82228	0.02439
2544.53651	0.02421
2543.25074	0.02418
2541.96497	0.02413
2540.67920	0.02402
2539.39343	0.02393
2538.10766	0.02395
2536.82190	0.02404
2535.53613	0.02411
2534.25036	0.02406
2532.96459	0.02390
2531.67882	0.02368
2530.39305	0.02350
2529.10728	0.02348
2527.82151	0.02369
2526.53574	0.02403
2525.24998	0.02437
2523.96421	0.02456
2522.67844	0.02452
2521.39267	0.02421
2520.10690	0.02371
2518.82113	0.02327
2517.53536	0.02317
2516.24959	0.02342
2514.96383	0.02376
2513.67806	0.02391
2512.39229	0.02379
2511.10652	0.02351
2509.82075	0.02325
2508.53498	0.02309
2507.24921	0.02307
2505.96344	0.02320
2504.67767	0.02348
2503.39191	0.02383
2502.10614	0.02398
2500.82037	0.02373
2499.53460	0.02328
2498.24883	0.02307
2496.96306	0.02321
2495.67729	0.02343
2494.39152	0.02353
2493.10576	0.02358
2491.81999	0.02367
2490.53422	0.02369
2489.24845	0.02363
2487.96268	0.02365
2486.67691	0.02383
2485.39114	0.02401
2484.10537	0.02396
2482.81960	0.02369
2481.53384	0.02335
2480.24807	0.02313
2478.96230	0.02308
2477.67653	0.02308
2476.39076	0.02294
2475.10499	0.02258
2473.81922	0.02221
2472.53345	0.02212
2471.24769	0.02238
2469.96192	0.02273
2468.67615	0.02284
2467.39038	0.02269
2466.10461	0.02252
2464.81884	0.02255
2463.53307	0.02272
2462.24730	0.02280
2460.96153	0.02267
2459.67577	0.02246
2458.39000	0.02244
2457.10423	0.02278
2455.81846	0.02333
2454.53269	0.02374
2453.24692	0.02376
2451.96115	0.02349
2450.67538	0.02319
2449.38962	0.02307
2448.10385	0.02314
2446.81808	0.02324
2445.53231	0.02320
2444.24654	0.02300
2442.96077	0.02273
2441.67500	0.02249
2440.38923	0.02225
2439.10346	0.02198
2437.81770	0.02162
2436.53193	0.02123
2435.24616	0.02094
2433.96039	0.02091
2432.67462	0.02111
2431.38885	0.02133
2430.10308	0.02139
2428.81731	0.02127
2427.53155	0.02116
2426.24578	0.02119
2424.96001	0.02133
2423.67424	0.02144
2422.38847	0.02145
2421.10270	0.02145
2419.81693	0.02158
2418.53116	0.02186
2417.24539	0.02215
2415.95963	0.02225
2414.67386	0.02214
2413.38809	0.02197
2412.10232	0.02186
2410.81655	0.02188
2409.53078	0.02201
2408.24501	0.02221
2406.95924	0.02236
2405.67347	0.02236
2404.38771	0.02215
2403.10194	0.02182
2401.81617	0.02151
2400.53040	0.02140
2399.24463	0.02237
2397.95886	0.02311
2396.67309	0.02319
2395.38732	0.02282
2394.10156	0.02226
2392.81579	0.02167
2391.53002	0.02117
2390.24425	0.02078
2388.95848	0.02047
2387.67271	0.02024
2386.38694	0.02009
2385.10117	0.01996
2383.81540	0.01982
2382.52964	0.01968
2381.24387	0.01965
2379.95810	0.01953
2378.67233	0.01932
2377.38656	0.01926
2376.10079	0.01879
2374.81502	0.01791
2373.52925	0.01713
2372.24349	0.01611
2370.95772	0.01536
2369.67195	0.01386
2368.38618	0.01236
2367.10041	0.01260
2365.81464	0.01366
2364.52887	0.01271
2363.24310	0.01069
2361.95733	0.01000
2360.67157	0.01083
2359.38580	0.01113
2358.10003	0.01161
2356.81426	0.01228
2355.52849	0.01195
2354.24272	0.01146
2352.95695	0.01138
2351.67118	0.01334
2350.38542	0.01866
2349.09965	0.02223
2347.81388	0.01880
2346.52811	0.01318
2345.24234	0.01165
2343.95657	0.01376
2342.67080	0.01526
2341.38503	0.01572
2340.09926	0.01641
2338.81350	0.01682
2337.52773	0.01683
2336.24196	0.01525
2334.95619	0.01376
2333.67042	0.01423
2332.38465	0.01487
2331.09888	0.01563
2329.81311	0.01701
2328.52735	0.01740
2327.24158	0.01801
2325.95581	0.01929
2324.67004	0.01988
2323.38427	0.02036
2322.09850	0.02097
2320.81273	0.02036
2319.52696	0.01985
2318.24119	0.01995
2316.95543	0.01972
2315.66966	0.01942
2314.38389	0.01927
2313.09812	0.01942
2311.81235	0.01980
2310.52658	0.01981
2309.24081	0.01992
2307.95504	0.02025
2306.66928	0.02032
2305.38351	0.02061
2304.09774	0.02067
2302.81197	0.02022
2301.52620	0.01956
2300.24043	0.01893
2298.95466	0.01862
2297.66889	0.01848
2296.38312	0.01851
2295.09736	0.01872
2293.81159	0.01911
2292.52582	0.01967
2291.24005	0.02019
2289.95428	0.02063
2288.66851	0.02089
2287.38274	0.02092
2286.09697	0.02074
2284.81121	0.02047
2283.52544	0.02021
2282.23967	0.01989
2280.95390	0.01946
2279.66813	0.01891
2278.38236	0.01845
2277.09659	0.01821
2275.81082	0.01820
2274.52505	0.01820
2273.23929	0.01799
2271.95352	0.01760
2270.66775	0.01722
2269.38198	0.01699
2268.09621	0.01682
2266.81044	0.01661
2265.52467	0.01627
2264.23890	0.01588
2262.95314	0.01557
2261.66737	0.01537
2260.38160	0.01532
2259.09583	0.01548
2257.81006	0.01565
2256.52429	0.01558
2255.23852	0.01514
2253.95275	0.01452
2252.66698	0.01403
2251.38122	0.01385
2250.09545	0.01415
2248.80968	0.01467
2247.52391	0.01445
2246.23814	0.01390
2244.95237	0.01344
2243.66660	0.01339
2242.38083	0.01373
2241.09507	0.01421
2239.80930	0.01450
2238.52353	0.01447
2237.23776	0.01421
2235.95199	0.01389
2234.66622	0.01364
2233.38045	0.01343
2232.09468	0.01331
2230.80891	0.01337
2229.52315	0.01356
2228.23738	0.01361
2226.95161	0.01331
2225.66584	0.01272
2224.38007	0.01203
2223.09430	0.01124
2221.80853	0.01038
2220.52276	0.00984
2219.23700	0.01022
2217.95123	0.01168
2216.66546	0.01361
2215.37969	0.01494
2214.09392	0.01489
2212.80815	0.01347
2211.52238	0.01145
2210.23661	0.00974
2208.95084	0.00883
2207.66508	0.00863
2206.37931	0.00881
2205.09354	0.00913
2203.80777	0.00944
2202.52200	0.00957
2201.23623	0.00936
2199.95046	0.00888
2198.66469	0.00836
2197.37893	0.00813
2196.09316	0.00836
2194.80739	0.00893
2193.52162	0.00945
2192.23585	0.00964
2190.95008	0.00936
2189.66431	0.00852
2188.37854	0.00716
2187.09277	0.00569
2185.80701	0.00463
2184.52124	0.00414
2183.23547	0.00401
2181.94970	0.00421
2180.66393	0.00499
2179.37816	0.00625
2178.09239	0.00732
2176.80662	0.00765
2175.52085	0.00744
2174.23509	0.00741
2172.94932	0.00783
2171.66355	0.00821
2170.37778	0.00790
2169.09201	0.00687
2167.80624	0.00568
2166.52047	0.00489
2165.23470	0.00462
2163.94894	0.00447
2162.66317	0.00386
2161.37740	0.00245
2160.09163	0.00053
2158.80586	-0.00113
2157.52009	-0.00194
2156.23432	-0.00189
2154.94855	-0.00124
2153.66278	-0.00013
2152.37702	0.00145
2151.09125	0.00332
2149.80548	0.00510
2148.51971	0.00628
2147.23394	0.00656
2145.94817	0.00607
2144.66240	0.00536
2143.37663	0.00507
2142.09087	0.00561
2140.80510	0.00691
2139.51933	0.00848
2138.23356	0.00961
2136.94779	0.00984
2135.66202	0.00924
2134.37625	0.00841
2133.09048	0.00797
2131.80471	0.00809
2130.51895	0.00849
2129.23318	0.00888
2127.94741	0.00918
2126.66164	0.00938
2125.37587	0.00945
2124.09010	0.00944
2122.80433	0.00960
2121.51856	0.01013
2120.23280	0.01092
2118.94703	0.01154
2117.66126	0.01168
2116.37549	0.01146
2115.08972	0.01122
2113.80395	0.01113
2112.51818	0.01105
2111.23241	0.01075
2109.94664	0.01019
2108.66088	0.00960
2107.37511	0.00935
2106.08934	0.00961
2104.80357	0.01022
2103.51780	0.01085
2102.23203	0.01121
2100.94626	0.01121
2099.66049	0.01143
2098.37473	0.01121
2097.08896	0.01074
2095.80319	0.01044
2094.51742	0.01052
2093.23165	0.01088
2091.94588	0.01117
2090.66011	0.01112
2089.37434	0.01079
2088.08857	0.01054
2086.80281	0.01054
2085.51704	0.01055
2084.23127	0.01020
2082.94550	0.00952
2081.65973	0.00897
2080.37396	0.00892
2079.08819	0.00926
2077.80242	0.00954
2076.51666	0.00949
2075.23089	0.00919
2073.94512	0.00886
2072.65935	0.00859
2071.37358	0.00832
2070.08781	0.00812
2068.80204	0.00825
2067.51627	0.00881
2066.23050	0.00949
2064.94474	0.00973
2063.65897	0.00926
2062.37320	0.00833
2061.08743	0.00748
2059.80166	0.00718
2058.51589	0.00737
2057.23012	0.00753
2055.94435	0.00715
2054.65859	0.00636
2053.37282	0.00587
2052.08705	0.00621
2050.80128	0.00713
2049.51551	0.00781
2048.22974	0.00763
2046.94397	0.00659
2045.65820	0.00516
2044.37243	0.00387
2043.08667	0.00308
2041.80090	0.00288
2040.51513	0.00315
2039.22936	0.00371
2037.94359	0.00440
2036.65782	0.00514
2035.37205	0.00584
2034.08628	0.00630
2032.80052	0.00626
2031.51475	0.00554
2030.22898	0.00429
2028.94321	0.00297
2027.65744	0.00204
2026.37167	0.00173
2025.08590	0.00205
2023.80013	0.00291
2022.51436	0.00404
2021.22860	0.00492
2019.94283	0.00507
2018.65706	0.00458
2017.37129	0.00405
2016.08552	0.00400
2014.79975	0.00441
2013.51398	0.00502
2012.22821	0.00570
2010.94245	0.00641
2009.65668	0.00684
2008.37091	0.00663
2007.08514	0.00592
2005.79937	0.00528
2004.51360	0.00510
2003.22783	0.00520
2001.94206	0.00524
2000.65629	0.00516
1999.37053	0.00521
1998.08476	0.00558
1996.79899	0.00612
1995.51322	0.00648
1994.22745	0.00646
1992.94168	0.00622
1991.65591	0.00611
1990.37014	0.00640
1989.08438	0.00709
1987.79861	0.00794
1986.51284	0.00860
1985.22707	0.00883
1983.94130	0.00876
1982.65553	0.00874
1981.36976	0.00902
1980.08399	0.00939
1978.79822	0.00943
1977.51246	0.00897
1976.22669	0.00828
1974.94092	0.00784
1973.65515	0.00784
1972.36938	0.00817
1971.08361	0.00869
1969.79784	0.00926
1968.51207	0.00970
1967.22631	0.00980
1965.94054	0.00950
1964.65477	0.00897
1963.36900	0.00845
1962.08323	0.00811
1960.79746	0.00804
1959.51169	0.00820
1958.22592	0.00842
1956.94015	0.00852
1955.65439	0.00852
1954.36862	0.00864
1953.08285	0.00902
1951.79708	0.00961
1950.51131	0.01014
1949.22554	0.01036
1947.93977	0.01016
1946.65400	0.00967
1945.36823	0.00919
1944.08247	0.00908
1942.79670	0.00947
1941.51093	0.01019
1940.22516	0.01094
1938.93939	0.01141
1937.65362	0.01148
1936.36785	0.01120
1935.08208	0.01082
1933.79632	0.01060
1932.51055	0.01067
1931.22478	0.01093
1929.93901	0.01116
1928.65324	0.01115
1927.36747	0.01091
1926.08170	0.01062
1924.79593	0.01053
1923.51016	0.01069
1922.22440	0.01099
1920.93863	0.01131
1919.65286	0.01160
1918.36709	0.01177
1917.08132	0.01167
1915.79555	0.01134
1914.50978	0.01107
1913.22401	0.01113
1911.93825	0.01149
1910.65248	0.01185
1909.36671	0.01200
1908.08094	0.01199
1906.79517	0.01197
1905.50940	0.01194
1904.22363	0.01185
1902.93786	0.01174
1901.65209	0.01177
1900.36633	0.01200
1899.08056	0.01228
1897.79479	0.01244
1896.50902	0.01240
1895.22325	0.01222
1893.93748	0.01202
1892.65171	0.01198
1891.36594	0.01220
1890.08018	0.01262
1888.79441	0.01305
1887.50864	0.01331
1886.22287	0.01335
1884.93710	0.01318
1883.65133	0.01293
1882.36556	0.01276
1881.07979	0.01274
1879.79402	0.01280
1878.50826	0.01281
1877.22249	0.01271
1875.93672	0.01258
1874.65095	0.01249
1873.36518	0.01258
1872.07941	0.01289
1870.79364	0.01334
1869.50787	0.01365
1868.22211	0.01359
1866.93634	0.01326
1865.65057	0.01292
1864.36480	0.01275
1863.07903	0.01273
1861.79326	0.01273
1860.50749	0.01267
1859.22172	0.01259
1857.93595	0.01263
1856.65019	0.01283
1855.36442	0.01313
1854.07865	0.01333
1852.79288	0.01336
1851.50711	0.01326
1850.22134	0.01320
1848.93557	0.01325
1847.64980	0.01337
1846.36404	0.01355
1845.07827	0.01368
1843.79250	0.01364
1842.50673	0.01345
1841.22096	0.01329
1839.93519	0.01325
1838.64942	0.01325
1837.36365	0.01317
1836.07788	0.01300
1834.79212	0.01282
1833.50635	0.01276
1832.22058	0.01294
1830.93481	0.01330
1829.64904	0.01363
1828.36327	0.01381
1827.07750	0.01388
1825.79173	0.01388
1824.50597	0.01382
1823.22020	0.01373
1821.93443	0.01371
1820.64866	0.01372
1819.36289	0.01364
1818.07712	0.01345
1816.79135	0.01324
1815.50558	0.01312
1814.21981	0.01316
1812.93405	0.01334
1811.64828	0.01355
1810.36251	0.01368
1809.07674	0.01370
1807.79097	0.01369
1806.50520	0.01371
1805.21943	0.01376
1803.93366	0.01385
1802.64790	0.01394
1801.36213	0.01401
1800.07636	0.01403
1798.79059	0.01403
1797.50482	0.01409
1796.21905	0.01429
1794.93328	0.01462
1793.64751	0.01494
1792.36174	0.01502
1791.07598	0.01478
1789.79021	0.01442
1788.50444	0.01422
1787.21867	0.01427
1785.93290	0.01443
1784.64713	0.01452
1783.36136	0.01451
1782.07559	0.01451
1780.78983	0.01458
1779.50406	0.01464
1778.21829	0.01467
1776.93252	0.01474
1775.64675	0.01497
1774.36098	0.01536
1773.07521	0.01566
1771.78944	0.01567
1770.50367	0.01551
1769.21791	0.01548
1767.93214	0.01554
1766.64637	0.01552
1765.36060	0.01546
1764.07483	0.01554
1762.78906	0.01574
1761.50329	0.01586
1760.21752	0.01585
1758.93176	0.01583
1757.64599	0.01589
1756.36022	0.01591
1755.07445	0.01589
1753.78868	0.01600
1752.50291	0.01624
1751.21714	0.01640
1749.93137	0.01630
1748.64560	0.01607
1747.35984	0.01592
1746.07407	0.01591
1744.78830	0.01598
1743.50253	0.01611
1742.21676	0.01631
1740.93099	0.01656
1739.64522	0.01666
1738.35945	0.01662
1737.07369	0.01678
1735.78792	0.01737
1734.50215	0.01801
1733.21638	0.01810
1731.93061	0.01767
1730.64484	0.01721
1729.35907	0.01698
1728.07330	0.01692
1726.78753	0.01696
1725.50177	0.01709
1724.21600	0.01724
1722.93023	0.01738
1721.64446	0.01764
1720.35869	0.01822
1719.07292	0.01907
1717.78715	0.01976
1716.50138	0.01994
1715.21561	0.01974
1713.92985	0.01952
1712.64408	0.01950
1711.35831	0.01968
1710.07254	0.02002
1708.78677	0.02045
1707.50100	0.02090
1706.21523	0.02127
1704.92946	0.02155
1703.64370	0.02194
1702.35793	0.02271
1701.07216	0.02361
1699.78639	0.02408
1698.50062	0.02416
1697.21485	0.02429
1695.92908	0.02444
1694.64331	0.02424
1693.35754	0.02383
1692.07178	0.02371
1690.78601	0.02397
1689.50024	0.02435
1688.21447	0.02481
1686.92870	0.02555
1685.64293	0.02646
1684.35716	0.02695
1683.07139	0.02673
1681.78563	0.02621
1680.49986	0.02595
1679.21409	0.02608
1677.92832	0.02651
1676.64255	0.02711
1675.35678	0.02758
1674.07101	0.02778
1672.78524	0.02792
1671.49947	0.02829
1670.21371	0.02877
1668.92794	0.02905
1667.64217	0.02907
1666.35640	0.02908
1665.07063	0.02934
1663.78486	0.02976
1662.49909	0.03008
1661.21332	0.03021
1659.92756	0.03025
1658.64179	0.03034
1657.35602	0.03066
1656.07025	0.03147
1654.78448	0.03275
1653.49871	0.03373
1652.21294	0.03364
1650.92717	0.03279
1649.64140	0.03220
1648.35564	0.03234
1647.06987	0.03271
1645.78410	0.03271
1644.49833	0.03231
1643.21256	0.03191
1641.92679	0.03177
1640.64102	0.03184
1639.35525	0.03207
1638.06949	0.03252
1636.78372	0.03305
1635.49795	0.03325
1634.21218	0.03291
1632.92641	0.03237
1631.64064	0.03208
1630.35487	0.03215
1629.06910	0.03239
1627.78333	0.03262
1626.49757	0.03282
1625.21180	0.03306
1623.92603	0.03325
1622.64026	0.03324
1621.35449	0.03305
1620.06872	0.03302
1618.78295	0.03336
1617.49718	0.03380
1616.21142	0.03387
1614.92565	0.03350
1613.63988	0.03309
1612.35411	0.03298
1611.06834	0.03313
1609.78257	0.03338
1608.49680	0.03362
1607.21103	0.03383
1605.92526	0.03400
1604.63950	0.03413
1603.35373	0.03422
1602.06796	0.03429
1600.78219	0.03437
1599.49642	0.03446
1598.21065	0.03457
1596.92488	0.03469
1595.63911	0.03480
1594.35335	0.03489
1593.06758	0.03496
1591.78181	0.03500
1590.49604	0.03505
1589.21027	0.03514
1587.92450	0.03529
1586.63873	0.03551
1585.35296	0.03578
1584.06719	0.03605
1582.78143	0.03630
1581.49566	0.03652
1580.20989	0.03680
1578.92412	0.03729
1577.63835	0.03796
1576.35258	0.03844
1575.06681	0.03844
1573.78104	0.03822
1572.49528	0.03831
1571.20951	0.03882
1569.92374	0.03940
1568.63797	0.03972
1567.35220	0.03981
1566.06643	0.03988
1564.78066	0.04005
1563.49489	0.04043
1562.20912	0.04129
1560.92336	0.04263
1559.63759	0.04384
1558.35182	0.04425
1557.06605	0.04394
1555.78028	0.04358
1554.49451	0.04352
1553.20874	0.04364
1551.92297	0.04380
1550.63721	0.04399
1549.35144	0.04417
1548.06567	0.04437
1546.77990	0.04466
1545.49413	0.04505
1544.20836	0.04549
1542.92259	0.04601
1541.63682	0.04663
1540.35105	0.04709
1539.06529	0.04701
1537.77952	0.04649
1536.49375	0.04610
1535.20798	0.04622
1533.92221	0.04666
1532.63644	0.04702
1531.35067	0.04726
1530.06490	0.04760
1528.77914	0.04815
1527.49337	0.04884
1526.20760	0.04955
1524.92183	0.05035
1523.63606	0.05137
1522.35029	0.05259
1521.06452	0.05369
1519.77875	0.05454
1518.49298	0.05536
1517.20722	0.05636
1515.92145	0.05749
1514.63568	0.05868
1513.34991	0.05996
1512.06414	0.06131
1510.77837	0.06280
1509.49260	0.06459
1508.20683	0.06670
1506.92107	0.06866
1505.63530	0.06993
1504.34953	0.07057
1503.06376	0.07118
1501.77799	0.07216
1500.49222	0.07346
1499.20645	0.07485
1497.92068	0.07617
1496.63491	0.07723
1495.34915	0.07796
1494.06338	0.07855
1492.77761	0.07934
1491.49184	0.08040
1490.20607	0.08153
1488.92030	0.08257
1487.63453	0.08350
1486.34876	0.08445
1485.06299	0.08550
1483.77723	0.08673
1482.49146	0.08810
1481.20569	0.08949
1479.91992	0.09086
1478.63415	0.09223
1477.34838	0.09361
1476.06261	0.09501
1474.77684	0.09642
1473.49108	0.09772
1472.20531	0.09869
1470.91954	0.09928
1469.63377	0.09971
1468.34800	0.10024
1467.06223	0.10095
1465.77646	0.10167
1464.49069	0.10220
1463.20492	0.10252
1461.91916	0.10281
1460.63339	0.10335
1459.34762	0.10427
1458.06185	0.10531
1456.77608	0.10596
1455.49031	0.10600
1454.20454	0.10576
1452.91877	0.10561
1451.63301	0.10561
1450.34724	0.10563
1449.06147	0.10554
1447.77570	0.10527
1446.48993	0.10477
1445.20416	0.10413
1443.91839	0.10347
1442.63262	0.10288
1441.34685	0.10242
1440.06109	0.10218
1438.77532	0.10225
1437.48955	0.10251
1436.20378	0.10273
1434.91801	0.10290
1433.63224	0.10328
1432.34647	0.10410
1431.06070	0.10531
1429.77494	0.10672
1428.48917	0.10825
1427.20340	0.10989
1425.91763	0.11164
1424.63186	0.11341
1423.34609	0.11516
1422.06032	0.11695
1420.77455	0.11878
1419.48878	0.12038
1418.20302	0.12148
1416.91725	0.12208
1415.63148	0.12243
1414.34571	0.12265
1413.05994	0.12273
1411.77417	0.12264
1410.48840	0.12237
1409.20263	0.12189
1407.91687	0.12115
1406.63110	0.12012
1405.34533	0.11879
1404.05956	0.11714
1402.77379	0.11525
1401.48802	0.11322
1400.20225	0.11110
1398.91648	0.10885
1397.63071	0.10649
1396.34495	0.10408
1395.05918	0.10159
1393.77341	0.09892
1392.48764	0.09612
1391.20187	0.09337
1389.91610	0.09081
1388.63033	0.08839
1387.34456	0.08597
1386.05880	0.08350
1384.77303	0.08107
1383.48726	0.07876
1382.20149	0.07657
1380.91572	0.07443
1379.62995	0.07230
1378.34418	0.07011
1377.05841	0.06787
1375.77264	0.06557
1374.48688	0.06320
1373.20111	0.06075
1371.91534	0.05828
1370.62957	0.05593
1369.34380	0.05379
1368.05803	0.05186
1366.77226	0.05010
1365.48649	0.04846
1364.20073	0.04688
1362.91496	0.04531
1361.62919	0.04376
1360.34342	0.04227
1359.05765	0.04091
1357.77188	0.03968
1356.48611	0.03856
1355.20034	0.03755
1353.91457	0.03664
1352.62881	0.03578
1351.34304	0.03497
1350.05727	0.03419
1348.77150	0.03343
1347.48573	0.03272
1346.19996	0.03208
1344.91419	0.03152
1343.62842	0.03103
1342.34266	0.03058
1341.05689	0.03012
1339.77112	0.02966
1338.48535	0.02919
1337.19958	0.02878
1335.91381	0.02843
1334.62804	0.02812
1333.34227	0.02782
1332.05650	0.02750
1330.77074	0.02718
1329.48497	0.02687
1328.19920	0.02659
1326.91343	0.02633
1325.62766	0.02608
1324.34189	0.02584
1323.05612	0.02560
1321.77035	0.02536
1320.48459	0.02511
1319.19882	0.02486
1317.91305	0.02460
1316.62728	0.02434
1315.34151	0.02414
1314.05574	0.02402
1312.76997	0.02396
1311.48420	0.02391
1310.19843	0.02383
1308.91267	0.02370
1307.62690	0.02350
1306.34113	0.02328
1305.05536	0.02307
1303.76959	0.02288
1302.48382	0.02274
1301.19805	0.02261
1299.91228	0.02249
1298.62652	0.02234
1297.34075	0.02216
1296.05498	0.02197
1294.76921	0.02178
1293.48344	0.02161
1292.19767	0.02147
1290.91190	0.02135
1289.62613	0.02123
1288.34036	0.02113
1287.05460	0.02106
1285.76883	0.02101
1284.48306	0.02095
1283.19729	0.02086
1281.91152	0.02076
1280.62575	0.02064
1279.33998	0.02051
1278.05421	0.02036
1276.76845	0.02018
1275.48268	0.02000
1274.19691	0.01984
1272.91114	0.01973
1271.62537	0.01968
1270.33960	0.01966
1269.05383	0.01962
1267.76806	0.01953
1266.48229	0.01940
1265.19653	0.01924
1263.91076	0.01909
1262.62499	0.01898
1261.33922	0.01888
1260.05345	0.01878
1258.76768	0.01867
1257.48191	0.01856
1256.19614	0.01850
1254.91037	0.01849
1253.62461	0.01850
1252.33884	0.01851
1251.05307	0.01847
1249.76730	0.01840
1248.48153	0.01828
1247.19576	0.01811
1245.90999	0.01791
1244.62422	0.01771
1243.33846	0.01755
1242.05269	0.01745
1240.76692	0.01739
1239.48115	0.01732
1238.19538	0.01725
1236.90961	0.01719
1235.62384	0.01717
1234.33807	0.01717
1233.05230	0.01716
1231.76654	0.01712
1230.48077	0.01708
1229.19500	0.01704
1227.90923	0.01703
1226.62346	0.01704
1225.33769	0.01703
1224.05192	0.01699
1222.76615	0.01690
1221.48039	0.01680
1220.19462	0.01672
1218.90885	0.01665
1217.62308	0.01659
1216.33731	0.01652
1215.05154	0.01647
1213.76577	0.01646
1212.48000	0.01648
1211.19423	0.01651
1209.90847	0.01651
1208.62270	0.01649
1207.33693	0.01648
1206.05116	0.01647
1204.76539	0.01646
1203.47962	0.01643
1202.19385	0.01641
1200.90808	0.01636
1199.62232	0.01625
1198.33655	0.01621
1197.05078	0.01618
1195.76501	0.01618
1194.47924	0.01619
1193.19347	0.01621
1191.90770	0.01625
1190.62193	0.01630
1189.33616	0.01631
1188.05040	0.01628
1186.76463	0.01624
1185.47886	0.01623
1184.19309	0.01629
1182.90732	0.01639
1181.62155	0.01650
1180.33578	0.01660
1179.05001	0.01670
1177.76425	0.01681
1176.47848	0.01691
1175.19271	0.01704
1173.90694	0.01720
1172.62117	0.01738
1171.33540	0.01755
1170.04963	0.01769
1168.76386	0.01782
1167.47809	0.01800
1166.19233	0.01826
1164.90656	0.01856
1163.62079	0.01887
1162.33502	0.01916
1161.04925	0.01944
1159.76348	0.01973
1158.47771	0.02007
1157.19194	0.02047
1155.90618	0.02089
1154.62041	0.02127
1153.33464	0.02164
1152.04887	0.02206
1150.76310	0.02259
1149.47733	0.02320
1148.19156	0.02385
1146.90579	0.02451
1145.62002	0.02519
1144.33426	0.02592
1143.04849	0.02673
1141.76272	0.02765
1140.47695	0.02871
1139.19118	0.02990
1137.90541	0.03127
1136.61964	0.03280
1135.33387	0.03444
1134.04811	0.03617
1132.76234	0.03799
1131.47657	0.04000
1130.19080	0.04225
1128.90503	0.04472
1127.61926	0.04740
1126.33349	0.05033
1125.04772	0.05354
1123.76195	0.05698
1122.47619	0.06052
1121.19042	0.06404
1119.90465	0.06746
1118.61888	0.07082
1117.33311	0.07421
1116.04734	0.07769
1114.76157	0.08126
1113.47580	0.08484
1112.19004	0.08832
1110.90427	0.09163
1109.61850	0.09477
1108.33273	0.09777
1107.04696	0.10072
1105.76119	0.10365
1104.47542	0.10661
1103.18965	0.10953
1101.90388	0.11236
1100.61812	0.11502
1099.33235	0.11753
1098.04658	0.11995
1096.76081	0.12232
1095.47504	0.12460
1094.18927	0.12676
1092.90350	0.12880
1091.61773	0.13078
1090.33197	0.13270
1089.04620	0.13454
1087.76043	0.13631
1086.47466	0.13807
1085.18889	0.13984
1083.90312	0.14165
1082.61735	0.14350
1081.33158	0.14544
1080.04581	0.14756
1078.76005	0.14987
1077.47428	0.15233
1076.18851	0.15487
1074.90274	0.15749
1073.61697	0.16025
1072.33120	0.16321
1071.04543	0.16630
1069.75966	0.16941
1068.47390	0.17246
1067.18813	0.17550
1065.90236	0.17862
1064.61659	0.18191
1063.33082	0.18534
1062.04505	0.18883
1060.75928	0.19231
1059.47351	0.19574
1058.18774	0.19910
1056.90198	0.20242
1055.61621	0.20574
1054.33044	0.20908
1053.04467	0.21240
1051.75890	0.21566
1050.47313	0.21893
1049.18736	0.22230
1047.90159	0.22588
1046.61583	0.22968
1045.33006	0.23363
1044.04429	0.23761
1042.75852	0.24154
1041.47275	0.24540
1040.18698	0.24928
1038.90121	0.25329
1037.61544	0.25745
1036.32967	0.26169
1035.04391	0.26586
1033.75814	0.26982
1032.47237	0.27346
1031.18660	0.27676
1029.90083	0.27970
1028.61506	0.28236
1027.32929	0.28478
1026.04352	0.28691
1024.75775	0.28870
1023.47199	0.29011
1022.18622	0.29116
1020.90045	0.29184
1019.61468	0.29212
1018.32891	0.29192
1017.04314	0.29120
1015.75737	0.28993
1014.47160	0.28816
1013.18584	0.28593
1011.90007	0.28324
1010.61430	0.28010
1009.32853	0.27652
1008.04276	0.27253
1006.75699	0.26812
1005.47122	0.26325
1004.18545	0.25796
1002.89968	0.25232
1001.61392	0.24638
1000.32815	0.24017
999.04238	0.23370
997.75661	0.22701
996.47084	0.22013
995.18507	0.21303
993.89930	0.20576
992.61353	0.19844
991.32777	0.19121
990.04200	0.18415
988.75623	0.17725
987.47046	0.17049
986.18469	0.16393
984.89892	0.15763
983.61315	0.15163
982.32738	0.14594
981.04161	0.14057
979.75585	0.13558
978.47008	0.13103
977.18431	0.12691
975.89854	0.12319
974.61277	0.11989
973.32700	0.11710
972.04123	0.11491
970.75546	0.11343
969.46970	0.11270
968.18393	0.11274
966.89816	0.11345
965.61239	0.11464
964.32662	0.11599
963.04085	0.11710
961.75508	0.11762
960.46931	0.11738
959.18354	0.11633
957.89778	0.11451
956.61201	0.11202
955.32624	0.10905
954.04047	0.10586
952.75470	0.10263
951.46893	0.09949
950.18316	0.09640
948.89739	0.09335
947.61163	0.09032
946.32586	0.08735
945.04009	0.08448
943.75432	0.08174
942.46855	0.07913
941.18278	0.07667
939.89701	0.07438
938.61124	0.07226
937.32547	0.07031
936.03971	0.06850
934.75394	0.06685
933.46817	0.06536
932.18240	0.06397
930.89663	0.06262
929.61086	0.06126
928.32509	0.05990
927.03932	0.05860
925.75356	0.05740
924.46779	0.05631
923.18202	0.05534
921.89625	0.05451
920.61048	0.05380
919.32471	0.05316
918.03894	0.05251
916.75317	0.05184
915.46740	0.05122
914.18164	0.05070
912.89587	0.05024
911.61010	0.04971
910.32433	0.04910
909.03856	0.04846
907.75279	0.04787
906.46702	0.04736
905.18125	0.04698
903.89549	0.04672
902.60972	0.04651
901.32395	0.04626
900.03818	0.04598
898.75241	0.04572
897.46664	0.04553
896.18087	0.04538
894.89510	0.04523
893.60933	0.04513
892.32357	0.04519
891.03780	0.04554
889.75203	0.04623
888.46626	0.04719
887.18049	0.04846
885.89472	0.05019
884.60895	0.05263
883.32318	0.05584
882.03742	0.05954
880.75165	0.06312
879.46588	0.06605
878.18011	0.06818
876.89434	0.06986
875.60857	0.07157
874.32280	0.07338
873.03703	0.07487
871.75126	0.07543
870.46550	0.07480
869.17973	0.07312
867.89396	0.07072
866.60819	0.06785
865.32242	0.06476
864.03665	0.06169
862.75088	0.05884
861.46511	0.05628
860.17935	0.05402
858.89358	0.05206
857.60781	0.05038
856.32204	0.04897
855.03627	0.04778
853.75050	0.04679
852.46473	0.04596
851.17896	0.04524
849.89319	0.04457
848.60743	0.04394
847.32166	0.04333
846.03589	0.04279
844.75012	0.04235
843.46435	0.04200
842.17858	0.04169
840.89281	0.04134
839.60704	0.04096
838.32128	0.04058
837.03551	0.04024
835.74974	0.03993
834.46397	0.03963
833.17820	0.03935
831.89243	0.03911
830.60666	0.03892
829.32089	0.03873
828.03512	0.03854
826.74936	0.03833
825.46359	0.03814
824.17782	0.03799
822.89205	0.03787
821.60628	0.03781
820.32051	0.03783
819.03474	0.03787
817.74897	0.03783
816.46321	0.03762
815.17744	0.03732
813.89167	0.03710
812.60590	0.03702
811.32013	0.03704
810.03436	0.03705
808.74859	0.03701
807.46282	0.03696
806.17705	0.03694
804.89129	0.03694
803.60552	0.03693
802.31975	0.03687
801.03398	0.03678
799.74821	0.03667
798.46244	0.03653
797.17667	0.03635
795.89090	0.03617
794.60513	0.03604
793.31937	0.03601
792.03360	0.03600
790.74783	0.03596
789.46206	0.03588
788.17629	0.03583
786.89052	0.03583
785.60475	0.03585
784.31898	0.03583
783.03322	0.03575
781.74745	0.03561
780.46168	0.03541
779.17591	0.03516
777.89014	0.03495
776.60437	0.03484
775.31860	0.03489
774.03283	0.03505
772.74706	0.03525
771.46130	0.03539
770.17553	0.03546
768.88976	0.03546
767.60399	0.03542
766.31822	0.03538
765.03245	0.03538
763.74668	0.03540
762.46091	0.03544
761.17515	0.03549
759.88938	0.03560
758.60361	0.03577
757.31784	0.03594
756.03207	0.03605
754.74630	0.03605
753.46053	0.03595
752.17476	0.03580
750.88899	0.03568
749.60323	0.03566
748.31746	0.03570
747.03169	0.03572
745.74592	0.03571
744.46015	0.03569
743.17438	0.03572
741.88861	0.03577
740.60284	0.03576
739.31708	0.03565
738.03131	0.03550
736.74554	0.03544
735.45977	0.03550
734.17400	0.03562
732.88823	0.03574
731.60246	0.03584
730.31669	0.03591
729.03092	0.03592
727.74516	0.03587
726.45939	0.03579
725.17362	0.03570
723.88785	0.03562
722.60208	0.03584
721.31631	0.03611
720.03054	0.03641
718.74477	0.03679
717.45901	0.03679
716.17324	0.03652
714.88747	0.03618
713.60170	0.03582
712.31593	0.03548
711.03016	0.03519
709.74439	0.03496
708.45862	0.03482
707.17285	0.03475
705.88709	0.03472
704.60132	0.03470
703.31555	0.03465
702.02978	0.03459
700.74401	0.03455
699.45824	0.03457
698.17247	0.03466
696.88670	0.03480
695.60094	0.03496
694.31517	0.03512
693.02940	0.03525
691.74363	0.03533
690.45786	0.03537
689.17209	0.03538
687.88632	0.03537
686.60055	0.03531
685.31478	0.03522
684.02902	0.03510
682.74325	0.03499
681.45748	0.03490
680.17171	0.03480
678.88594	0.03468
677.60017	0.03449
676.31440	0.03425
675.02863	0.03415
673.74287	0.03467
672.45710	0.03645
671.17133	0.03867
669.88556	0.03796
668.59979	0.03344
667.31402	0.03361
666.02825	0.03725
664.74248	0.03688
663.45671	0.03453
662.17095	0.03304
660.88518	0.03262
659.59941	0.03269
658.31364	0.03285
657.02787	0.03293
655.74210	0.03292
654.45633	0.03288
653.17056	0.03281
651.88480	0.03272
650.59903	0.03263
649.31326	0.03254
648.02749	0.03253
646.74172	0.03251
645.45595	0.03240
644.17018	0.03228
642.88441	0.03222
641.59864	0.03226
640.31288	0.03238
639.02711	0.03254
637.74134	0.03275
636.45557	0.03301
635.16980	0.03335
633.88403	0.03377
632.59826	0.03429
631.31249	0.03502
630.02673	0.03607
628.74096	0.03708
627.45519	0.03755
626.16942	0.03974
624.88365	0.04328
623.59788	0.04745
622.31211	0.05212
621.02634	0.05684
619.74057	0.06055
618.45481	0.06261
617.16904	0.06368
615.88327	0.06501
614.59750	0.06722
613.31173	0.07040
612.02596	0.07468
610.74019	0.08024
609.45442	0.08663
608.16866	0.09278
606.88289	0.09788
605.59712	0.10192
604.31135	0.10514
603.02558	0.10756
601.73981	0.10894
600.45404	0.10888
599.16827	0.10722
597.88250	0.10429
596.59674	0.10075
595.31097	0.09718
594.02520	0.09397
592.73943	0.09129
591.45366	0.08926
590.16789	0.08794
588.88212	0.08737
587.59635	0.08751
586.31059	0.08831
585.02482	0.08968
583.73905	0.09156
582.45328	0.09390
581.16751	0.09656
579.88174	0.09936
578.59597	0.10215
577.31020	0.10492
576.02443	0.10775
574.73867	0.11063
573.45290	0.11345
572.16713	0.11613
570.88136	0.11882
569.59559	0.12183
568.30982	0.12539
567.02405	0.12946
565.73828	0.13366
564.45251	0.13749
563.16675	0.14038
561.88098	0.14184
560.59521	0.14158
559.30944	0.13960
558.02367	0.13614
556.73790	0.13152
555.45213	0.12596
554.16636	0.11972
552.88060	0.11321
551.59483	0.10690
550.30906	0.10114
549.02329	0.09600
547.73752	0.09140
546.45175	0.08719
545.16598	0.08323
543.88021	0.07941
542.59444	0.07572
541.30868	0.07222
540.02291	0.06909
538.73714	0.06640
537.45137	0.06406
536.16560	0.06191
534.87983	0.05985
533.59406	0.05786
532.30829	0.05596
531.02253	0.05415
529.73676	0.05248
528.45099	0.05097
527.16522	0.04962
525.87945	0.04835
524.59368	0.04711
523.30791	0.04582
522.02214	0.04452
520.73637	0.04331
519.45061	0.04232
518.16484	0.04156
516.87907	0.04090
515.59330	0.04018
514.30753	0.03938
513.02176	0.03857
511.73599	0.03780
510.45022	0.03708
509.16446	0.03640
507.87869	0.03573
506.59292	0.03510
505.30715	0.03451
504.02138	0.03396
502.73561	0.03340
501.44984	0.03284
500.16407	0.03234
498.87830	0.03194
497.59254	0.03162
496.30677	0.03130
495.02100	0.03094
493.73523	0.03061
492.44946	0.03040
491.16369	0.03027
489.87792	0.03010
488.59215	0.02983
487.30639	0.02953
486.02062	0.02933
484.73485	0.02929
483.44908	0.02937
482.16331	0.02949
480.87754	0.02965
479.59177	0.02984
478.30600	0.03006
477.02023	0.03034
475.73447	0.03068
474.44870	0.03106
473.16293	0.03139
471.87716	0.03157
470.59139	0.03156
469.30562	0.03140
468.01985	0.03115
466.73408	0.03084
465.44832	0.03051
464.16255	0.03018
462.87678	0.02984
461.59101	0.02951
460.30524	0.02927
459.01947	0.02912
457.73370	0.02902
456.44793	0.02885
455.16216	0.02859
453.87640	0.02830
452.59063	0.02803
451.30486	0.02782
450.01909	0.02766
448.73332	0.02751
447.44755	0.02732
446.16178	0.02707
444.87601	0.02681
443.59025	0.02658
442.30448	0.02640
441.01871	0.02629
439.73294	0.02625
438.44717	0.02625
437.16140	0.02627
435.87563	0.02626
434.58986	0.02624
433.30409	0.02621
432.01833	0.02621
430.73256	0.02625
429.44679	0.02631
428.16102	0.02635
426.87525	0.02635
425.58948	0.02632
424.30371	0.02629
423.01794	0.02627
421.73218	0.02625
420.44641	0.02623
419.16064	0.02617
417.87487	0.02607
416.58910	0.02598
415.30333	0.02593
414.01756	0.02590
412.73179	0.02586
411.44602	0.02583
410.16026	0.02584
408.87449	0.02590
407.58872	0.02599
406.30295	0.02612
405.01718	0.02627
403.73141	0.02646
402.44564	0.02667
401.15987	0.02690
399.87411	0.02713
