3997.45528	0.07290
3996.16951	0.07271
3994.88374	0.07255
3993.59798	0.07244
3992.31221	0.07236
3991.02644	0.07227
3989.74067	0.07211
3988.45490	0.07195
3987.16913	0.07204
3985.88336	0.07249
3984.59759	0.07309
3983.31183	0.07339
3982.02606	0.07306
3980.74029	0.07203
3979.45452	0.07059
3978.16875	0.06925
3976.88298	0.06854
3975.59721	0.06859
3974.31144	0.06906
3973.02567	0.06952
3971.73991	0.06979
3970.45414	0.06988
3969.16837	0.06975
3967.88260	0.06938
3966.59683	0.06898
3965.31106	0.06887
3964.02529	0.06916
3962.73952	0.06963
3961.45376	0.06995
3960.16799	0.06993
3958.88222	0.06965
3957.59645	0.06942
3956.31068	0.06955
3955.02491	0.07006
3953.73914	0.07072
3952.45337	0.07119
3951.16760	0.07122
3949.88184	0.07081
3948.59607	0.07017
3947.31030	0.06960
3946.02453	0.06920
3944.73876	0.06885
3943.45299	0.06844
3942.16722	0.06811
3940.88145	0.06802
3939.59569	0.06820
3938.30992	0.06850
3937.02415	0.06864
3935.73838	0.06845
3934.45261	0.06804
3933.16684	0.06778
3931.88107	0.06792
3930.59530	0.06821
3929.30953	0.06819
3928.02377	0.06768
3926.73800	0.06696
3925.45223	0.06645
3924.16646	0.06632
3922.88069	0.06641
3921.59492	0.06658
3920.30915	0.06687
3919.02338	0.06726
3917.73762	0.06763
3916.45185	0.06791
3915.16608	0.06806
3913.88031	0.06790
3912.59454	0.06734
3911.30877	0.06656
3910.02300	0.06594
3908.73723	0.06577
3907.45146	0.06590
3906.16570	0.06603
3904.87993	0.06611
3903.59416	0.06644
3902.30839	0.06704
3901.02262	0.06742
3899.73685	0.06719
3898.45108	0.06649
3897.16531	0.06579
3895.87955	0.06544
3894.59378	0.06539
3893.30801	0.06535
3892.02224	0.06523
3890.73647	0.06525
3889.45070	0.06536
3888.16493	0.06515
3886.87916	0.06468
3885.59339	0.06452
3884.30763	0.06460
3883.02186	0.06422
3881.73609	0.06320
3880.45032	0.06235
3879.16455	0.06223
3877.87878	0.06241
3876.59301	0.06235
3875.30724	0.06227
3874.02148	0.06262
3872.73571	0.06311
3871.44994	0.06317
3870.16417	0.06306
3868.87840	0.06336
3867.59263	0.06371
3866.30686	0.06351
3865.02109	0.06295
3863.73532	0.06250
3862.44956	0.06212
3861.16379	0.06184
3859.87802	0.06206
3858.59225	0.06298
3857.30648	0.06401
3856.02071	0.06422
3854.73494	0.06362
3853.44917	0.06319
3852.16341	0.06333
3850.87764	0.06338
3849.59187	0.06292
3848.30610	0.06241
3847.02033	0.06229
3845.73456	0.06247
3844.44879	0.06258
3843.16302	0.06244
3841.87725	0.06212
3840.59149	0.06168
3839.30572	0.06127
3838.01995	0.06124
3836.73418	0.06169
3835.44841	0.06218
3834.16264	0.06221
3832.87687	0.06179
3831.59110	0.06122
3830.30534	0.06067
3829.01957	0.06026
3827.73380	0.06015
3826.44803	0.06053
3825.16226	0.06122
3823.87649	0.06164
3822.59072	0.06167
3821.30495	0.06189
3820.01918	0.06254
3818.73342	0.06268
3817.44765	0.06155
3816.16188	0.05988
3814.87611	0.05874
3813.59034	0.05819
3812.30457	0.05804
3811.01880	0.05852
3809.73303	0.05949
3808.44726	0.06025
3807.16150	0.06060
3805.87573	0.06076
3804.58996	0.06041
3803.30419	0.05918
3802.01842	0.05769
3800.73265	0.05696
3799.44688	0.05688
3798.16111	0.05675
3796.87535	0.05671
3795.58958	0.05732
3794.30381	0.05827
3793.01804	0.05881
3791.73227	0.05870
3790.44650	0.05827
3789.16073	0.05785
3787.87496	0.05749
3786.58919	0.05716
3785.30343	0.05700
3784.01766	0.05707
3782.73189	0.05713
3781.44612	0.05686
3780.16035	0.05638
3778.87458	0.05606
3777.58881	0.05591
3776.30304	0.05570
3775.01728	0.05549
3773.73151	0.05566
3772.44574	0.05630
3771.15997	0.05713
3769.87420	0.05789
3768.58843	0.05838
3767.30266	0.05840
3766.01689	0.05806
3764.73112	0.05774
3763.44536	0.05752
3762.15959	0.05720
3760.87382	0.05679
3759.58805	0.05659
3758.30228	0.05687
3757.01651	0.05765
3755.73074	0.05855
3754.44497	0.05887
3753.15921	0.05841
3751.87344	0.05782
3750.58767	0.05776
3749.30190	0.05840
3748.01613	0.05921
3746.73036	0.05915
3745.44459	0.05824
3744.15882	0.05782
3742.87305	0.05822
3741.58729	0.05839
3740.30152	0.05809
3739.01575	0.05791
3737.72998	0.05794
3736.44421	0.05793
3735.15844	0.05777
3733.87267	0.05745
3732.58690	0.05730
3731.30114	0.05779
3730.01537	0.05853
3728.72960	0.05862
3727.44383	0.05785
3726.15806	0.05688
3724.87229	0.05626
3723.58652	0.05605
3722.30075	0.05613
3721.01498	0.05629
3719.72922	0.05629
3718.44345	0.05616
3717.15768	0.05624
3715.87191	0.05653
3714.58614	0.05654
3713.30037	0.05606
3712.01460	0.05554
3710.72883	0.05551
3709.44307	0.05602
3708.15730	0.05680
3706.87153	0.05747
3705.58576	0.05762
3704.29999	0.05697
3703.01422	0.05583
3701.72845	0.05484
3700.44268	0.05431
3699.15691	0.05389
3697.87115	0.05336
3696.58538	0.05303
3695.29961	0.05309
3694.01384	0.05348
3692.72807	0.05409
3691.44230	0.05456
3690.15653	0.05446
3688.87076	0.05408
3687.58500	0.05420
3686.29923	0.05468
3685.01346	0.05488
3683.72769	0.05471
3682.44192	0.05458
3681.15615	0.05472
3679.87038	0.05499
3678.58461	0.05487
3677.29884	0.05408
3676.01308	0.05329
3674.72731	0.05334
3673.44154	0.05384
3672.15577	0.05371
3670.87000	0.05299
3669.58423	0.05253
3668.29846	0.05249
3667.01269	0.05257
3665.72693	0.05276
3664.44116	0.05308
3663.15539	0.05328
3661.86962	0.05324
3660.58385	0.05315
3659.29808	0.05311
3658.01231	0.05296
3656.72654	0.05277
3655.44077	0.05301
3654.15501	0.05386
3652.86924	0.05486
3651.58347	0.05552
3650.29770	0.05574
3649.01193	0.05562
3647.72616	0.05531
3646.44039	0.05487
3645.15462	0.05435
3643.86886	0.05380
3642.58309	0.05336
3641.29732	0.05308
3640.01155	0.05290
3638.72578	0.05273
3637.44001	0.05266
3636.15424	0.05271
3634.86847	0.05279
3633.58270	0.05283
3632.29694	0.05265
3631.01117	0.05211
3629.72540	0.05169
3628.43963	0.05220
3627.15386	0.05349
3625.86809	0.05462
3624.58232	0.05514
3623.29655	0.05535
3622.01079	0.05545
3620.72502	0.05528
3619.43925	0.05482
3618.15348	0.05435
3616.86771	0.05414
3615.58194	0.05431
3614.29617	0.05474
3613.01040	0.05507
3611.72463	0.05481
3610.43887	0.05390
3609.15310	0.05298
3607.86733	0.05276
3606.58156	0.05320
3605.29579	0.05373
3604.01002	0.05404
3602.72425	0.05426
3601.43848	0.05469
3600.15272	0.05537
3598.86695	0.05583
3597.58118	0.05565
3596.29541	0.05498
3595.00964	0.05440
3593.72387	0.05417
3592.43810	0.05415
3591.15233	0.05409
3589.86656	0.05395
3588.58080	0.05408
3587.29503	0.05462
3586.00926	0.05520
3584.72349	0.05526
3583.43772	0.05485
3582.15195	0.05450
3580.86618	0.05467
3579.58041	0.05530
3578.29464	0.05586
3577.00888	0.05590
3575.72311	0.05551
3574.43734	0.05523
3573.15157	0.05540
3571.86580	0.05592
3570.58003	0.05630
3569.29426	0.05625
3568.00849	0.05584
3566.72273	0.05537
3565.43696	0.05498
3564.15119	0.05466
3562.86542	0.05437
3561.57965	0.05413
3560.29388	0.05405
3559.00811	0.05429
3557.72234	0.05479
3556.43657	0.05523
3555.15081	0.05526
3553.86504	0.05491
3552.57927	0.05461
3551.29350	0.05468
3550.00773	0.05507
3548.72196	0.05555
3547.43619	0.05608
3546.15042	0.05672
3544.86466	0.05729
3543.57889	0.05742
3542.29312	0.05695
3541.00735	0.05616
3539.72158	0.05554
3538.43581	0.05538
3537.15004	0.05568
3535.86427	0.05627
3534.57850	0.05705
3533.29274	0.05793
3532.00697	0.05880
3530.72120	0.05950
3529.43543	0.05981
3528.14966	0.05955
3526.86389	0.05886
3525.57812	0.05818
3524.29235	0.05799
3523.00659	0.05846
3521.72082	0.05922
3520.43505	0.05972
3519.14928	0.05965
3517.86351	0.05913
3516.57774	0.05859
3515.29197	0.05844
3514.00620	0.05882
3512.72043	0.05950
3511.43467	0.06003
3510.14890	0.06011
3508.86313	0.05986
3507.57736	0.05956
3506.29159	0.05940
3505.00582	0.05934
3503.72005	0.05933
3502.43428	0.05940
3501.14852	0.05954
3499.86275	0.05966
3498.57698	0.05969
3497.29121	0.05966
3496.00544	0.05967
3494.71967	0.05976
3493.43390	0.05992
3492.14813	0.06010
3490.86236	0.06022
3489.57660	0.06016
3488.29083	0.05984
3487.00506	0.05939
3485.71929	0.05906
3484.43352	0.05893
3483.14775	0.05889
3481.86198	0.05892
3480.57621	0.05909
3479.29045	0.05944
3478.00468	0.05980
3476.71891	0.06005
3475.43314	0.06027
3474.14737	0.06067
3472.86160	0.06124
3471.57583	0.06176
3470.29006	0.06199
3469.00429	0.06185
3467.71853	0.06138
3466.43276	0.06072
3465.14699	0.06007
3463.86122	0.05967
3462.57545	0.05964
3461.28968	0.05989
3460.00391	0.06027
3458.71814	0.06068
3457.43238	0.06103
3456.14661	0.06127
3454.86084	0.06145
3453.57507	0.06172
3452.28930	0.06207
3451.00353	0.06236
3449.71776	0.06246
3448.43199	0.06239
3447.14622	0.06227
3445.86046	0.06213
3444.57469	0.06198
3443.28892	0.06190
3442.00315	0.06199
3440.71738	0.06213
3439.43161	0.06205
3438.14584	0.06167
3436.86007	0.06131
3435.57431	0.06141
3434.28854	0.06196
3433.00277	0.06235
3431.71700	0.06204
3430.43123	0.06118
3429.14546	0.06050
3427.85969	0.06055
3426.57392	0.06124
3425.28815	0.06218
3424.00239	0.06304
3422.71662	0.06369
3421.43085	0.06404
3420.14508	0.06402
3418.85931	0.06373
3417.57354	0.06338
3416.28777	0.06306
3415.00200	0.06268
3413.71624	0.06220
3412.43047	0.06170
3411.14470	0.06132
3409.85893	0.06108
3408.57316	0.06101
3407.28739	0.06118
3406.00162	0.06160
3404.71585	0.06218
3403.43008	0.06275
3402.14432	0.06322
3400.85855	0.06352
3399.57278	0.06352
3398.28701	0.06320
3397.00124	0.06277
3395.71547	0.06252
3394.42970	0.06254
3393.14393	0.06263
3391.85817	0.06255
3390.57240	0.06233
3389.28663	0.06216
3388.00086	0.06216
3386.71509	0.06226
3385.42932	0.06238
3384.14355	0.06253
3382.85778	0.06279
3381.57201	0.06323
3380.28625	0.06374
3379.00048	0.06413
3377.71471	0.06417
3376.42894	0.06380
3375.14317	0.06326
3373.85740	0.06292
3372.57163	0.06300
3371.28586	0.06335
3370.00010	0.06368
3368.71433	0.06391
3367.42856	0.06412
3366.14279	0.06438
3364.85702	0.06460
3363.57125	0.06465
3362.28548	0.06452
3360.99971	0.06433
3359.71394	0.06415
3358.42818	0.06401
3357.14241	0.06395
3355.85664	0.06404
3354.57087	0.06435
3353.28510	0.06480
3351.99933	0.06517
3350.71356	0.06531
3349.42779	0.06521
3348.14202	0.06495
3346.85626	0.06467
3345.57049	0.06446
3344.28472	0.06440
3342.99895	0.06446
3341.71318	0.06451
3340.42741	0.06440
3339.14164	0.06413
3337.85587	0.06390
3336.57011	0.06398
3335.28434	0.06446
3333.99857	0.06513
3332.71280	0.06569
3331.42703	0.06591
3330.14126	0.06579
3328.85549	0.06556
3327.56972	0.06551
3326.28395	0.06575
3324.99819	0.06617
3323.71242	0.06653
3322.42665	0.06672
3321.14088	0.06681
3319.85511	0.06688
3318.56934	0.06691
3317.28357	0.06686
3315.99780	0.06675
3314.71204	0.06665
3313.42627	0.06656
3312.14050	0.06646
3310.85473	0.06637
3309.56896	0.06639
3308.28319	0.06662
3306.99742	0.06697
3305.71165	0.06726
3304.42588	0.06733
3303.14012	0.06718
3301.85435	0.06690
3300.56858	0.06656
3299.28281	0.06621
3297.99704	0.06587
3296.71127	0.06563
3295.42550	0.06560
3294.13973	0.06584
3292.85397	0.06616
3291.56820	0.06626
3290.28243	0.06596
3288.99666	0.06538
3287.71089	0.06488
3286.42512	0.06473
3285.13935	0.06495
3283.85358	0.06538
3282.56781	0.06585
3281.28205	0.06624
3279.99628	0.06656
3278.71051	0.06686
3277.42474	0.06710
3276.13897	0.06714
3274.85320	0.06686
3273.56743	0.06633
3272.28166	0.06583
3270.99590	0.06560
3269.71013	0.06564
3268.42436	0.06577
3267.13859	0.06589
3265.85282	0.06602
3264.56705	0.06624
3263.28128	0.06646
3261.99551	0.06650
3260.70974	0.06631
3259.42398	0.06600
3258.13821	0.06574
3256.85244	0.06554
3255.56667	0.06529
3254.28090	0.06494
3252.99513	0.06459
3251.70936	0.06434
3250.42359	0.06425
3249.13783	0.06435
3247.85206	0.06461
3246.56629	0.06495
3245.28052	0.06521
3243.99475	0.06522
3242.70898	0.06493
3241.42321	0.06440
3240.13744	0.06388
3238.85167	0.06362
3237.56591	0.06371
3236.28014	0.06395
3234.99437	0.06404
3233.70860	0.06383
3232.42283	0.06344
3231.13706	0.06309
3229.85129	0.06291
3228.56552	0.06292
3227.27976	0.06306
3225.99399	0.06325
3224.70822	0.06337
3223.42245	0.06334
3222.13668	0.06319
3220.85091	0.06303
3219.56514	0.06295
3218.27937	0.06294
3216.99360	0.06295
3215.70784	0.06298
3214.42207	0.06310
3213.13630	0.06332
3211.85053	0.06356
3210.56476	0.06362
3209.27899	0.06335
3207.99322	0.06272
3206.70745	0.06191
3205.42169	0.06122
3204.13592	0.06086
3202.85015	0.06091
3201.56438	0.06127
3200.27861	0.06173
3198.99284	0.06206
3197.70707	0.06209
3196.42130	0.06184
3195.13553	0.06143
3193.84977	0.06097
3192.56400	0.06059
3191.27823	0.06046
3189.99246	0.06066
3188.70669	0.06105
3187.42092	0.06135
3186.13515	0.06147
3184.84938	0.06154
3183.56362	0.06171
3182.27785	0.06186
3180.99208	0.06175
3179.70631	0.06132
3178.42054	0.06077
3177.13477	0.06031
3175.84900	0.05999
3174.56323	0.05974
3173.27746	0.05957
3171.99170	0.05954
3170.70593	0.05960
3169.42016	0.05958
3168.13439	0.05934
3166.84862	0.05896
3165.56285	0.05862
3164.27708	0.05851
3162.99131	0.05868
3161.70555	0.05903
3160.41978	0.05938
3159.13401	0.05952
3157.84824	0.05935
3156.56247	0.05897
3155.27670	0.05864
3153.99093	0.05853
3152.70516	0.05866
3151.41939	0.05888
3150.13363	0.05906
3148.84786	0.05910
3147.56209	0.05894
3146.27632	0.05852
3144.99055	0.05794
3143.70478	0.05740
3142.41901	0.05710
3141.13324	0.05707
3139.84748	0.05724
3138.56171	0.05743
3137.27594	0.05754
3135.99017	0.05755
3134.70440	0.05751
3133.41863	0.05739
3132.13286	0.05715
3130.84709	0.05680
3129.56132	0.05644
3128.27556	0.05615
3126.98979	0.05597
3125.70402	0.05596
3124.41825	0.05619
3123.13248	0.05661
3121.84671	0.05696
3120.56094	0.05698
3119.27517	0.05661
3117.98940	0.05608
3116.70364	0.05572
3115.41787	0.05562
3114.13210	0.05567
3112.84633	0.05571
3111.56056	0.05576
3110.27479	0.05588
3108.98902	0.05605
3107.70325	0.05612
3106.41749	0.05595
3105.13172	0.05555
3103.84595	0.05507
3102.56018	0.05474
3101.27441	0.05468
3099.98864	0.05480
3098.70287	0.05492
3097.41710	0.05494
3096.13133	0.05490
3094.84557	0.05489
3093.55980	0.05486
3092.27403	0.05478
3090.98826	0.05466
3089.70249	0.05451
3088.41672	0.05437
3087.13095	0.05425
3085.84518	0.05420
3084.55942	0.05421
3083.27365	0.05423
3081.98788	0.05424
3080.70211	0.05423
3079.41634	0.05419
3078.13057	0.05413
3076.84480	0.05409
3075.55903	0.05418
3074.27326	0.05440
3072.98750	0.05466
3071.70173	0.05482
3070.41596	0.05475
3069.13019	0.05442
3067.84442	0.05388
3066.55865	0.05328
3065.27288	0.05285
3063.98711	0.05265
3062.70135	0.05260
3061.41558	0.05256
3060.12981	0.05257
3058.84404	0.05280
3057.55827	0.05323
3056.27250	0.05362
3054.98673	0.05373
3053.70096	0.05355
3052.41519	0.05329
3051.12943	0.05310
3049.84366	0.05293
3048.55789	0.05264
3047.27212	0.05224
3045.98635	0.05192
3044.70058	0.05181
3043.41481	0.05190
3042.12904	0.05208
3040.84328	0.05220
3039.55751	0.05213
3038.27174	0.05178
3036.98597	0.05122
3035.70020	0.05070
3034.41443	0.05042
3033.12866	0.05040
3031.84289	0.05047
3030.55712	0.05051
3029.27136	0.05051
3027.98559	0.05050
3026.69982	0.05042
3025.41405	0.05025
3024.12828	0.05009
3022.84251	0.05005
3021.55674	0.05012
3020.27097	0.05020
3018.98521	0.05020
3017.69944	0.05013
3016.41367	0.05005
3015.12790	0.04998
3013.84213	0.04987
3012.55636	0.04970
3011.27059	0.04950
3009.98482	0.04935
3008.69905	0.04929
3007.41329	0.04933
3006.12752	0.04941
3004.84175	0.04943
3003.55598	0.04931
3002.27021	0.04908
3000.98444	0.04883
2999.69867	0.04866
2998.41290	0.04862
2997.12714	0.04866
2995.84137	0.04875
2994.55560	0.04889
2993.26983	0.04902
2991.98406	0.04907
2990.69829	0.04901
2989.41252	0.04882
2988.12675	0.04861
2986.84098	0.04856
2985.55522	0.04881
2984.26945	0.04918
2982.98368	0.04938
2981.69791	0.04929
2980.41214	0.04906
2979.12637	0.04889
2977.84060	0.04888
2976.55483	0.04902
2975.26907	0.04933
2973.98330	0.04976
2972.69753	0.05018
2971.41176	0.05039
2970.12599	0.05033
2968.84022	0.05013
2967.55445	0.05011
2966.26868	0.05042
2964.98291	0.05090
2963.69715	0.05119
2962.41138	0.05118
2961.12561	0.05107
2959.83984	0.05112
2958.55407	0.05142
2957.26830	0.05185
2955.98253	0.05224
2954.69676	0.05249
2953.41100	0.05255
2952.12523	0.05238
2950.83946	0.05203
2949.55369	0.05158
2948.26792	0.05115
2946.98215	0.05084
2945.69638	0.05067
2944.41061	0.05062
2943.12484	0.05063
2941.83908	0.05067
2940.55331	0.05081
2939.26754	0.05114
2937.98177	0.05167
2936.69600	0.05223
2935.41023	0.05258
2934.12446	0.05254
2932.83869	0.05217
2931.55293	0.05171
2930.26716	0.05145
2928.98139	0.05145
2927.69562	0.05153
2926.40985	0.05149
2925.12408	0.05130
2923.83831	0.05109
2922.55254	0.05097
2921.26677	0.05096
2919.98101	0.05102
2918.69524	0.05112
2917.40947	0.05121
2916.12370	0.05118
2914.83793	0.05096
2913.55216	0.05067
2912.26639	0.05044
2910.98062	0.05028
2909.69486	0.05007
2908.40909	0.04977
2907.12332	0.04943
2905.83755	0.04919
2904.55178	0.04912
2903.26601	0.04920
2901.98024	0.04924
2900.69447	0.04905
2899.40870	0.04856
2898.12294	0.04791
2896.83717	0.04738
2895.55140	0.04716
2894.26563	0.04721
2892.97986	0.04734
2891.69409	0.04735
2890.40832	0.04717
2889.12255	0.04688
2887.83678	0.04661
2886.55102	0.04648
2885.26525	0.04649
2883.97948	0.04652
2882.69371	0.04644
2881.40794	0.04630
2880.12217	0.04623
2878.83640	0.04628
2877.55063	0.04635
2876.26487	0.04633
2874.97910	0.04625
2873.69333	0.04622
2872.40756	0.04627
2871.12179	0.04633
2869.83602	0.04633
2868.55025	0.04622
2867.26448	0.04604
2865.97871	0.04582
2864.69295	0.04559
2863.40718	0.04542
2862.12141	0.04540
2860.83564	0.04554
2859.54987	0.04567
2858.26410	0.04562
2856.97833	0.04538
2855.69256	0.04503
2854.40680	0.04468
2853.12103	0.04440
2851.83526	0.04421
2850.54949	0.04405
2849.26372	0.04384
2847.97795	0.04359
2846.69218	0.04335
2845.40641	0.04313
2844.12064	0.04287
2842.83488	0.04263
2841.54911	0.04248
2840.26334	0.04247
2838.97757	0.04245
2837.69180	0.04231
2836.40603	0.04201
2835.12026	0.04170
2833.83449	0.04147
2832.54873	0.04132
2831.26296	0.04119
2829.97719	0.04110
2828.69142	0.04108
2827.40565	0.04113
2826.11988	0.04113
2824.83411	0.04102
2823.54834	0.04085
2822.26257	0.04071
2820.97681	0.04064
2819.69104	0.04061
2818.40527	0.04057
2817.11950	0.04054
2815.83373	0.04047
2814.54796	0.04030
2813.26219	0.03994
2811.97642	0.03950
2810.69066	0.03915
2809.40489	0.03898
2808.11912	0.03890
2806.83335	0.03882
2805.54758	0.03873
2804.26181	0.03867
2802.97604	0.03863
2801.69027	0.03865
2800.40450	0.03877
2799.11874	0.03894
2797.83297	0.03899
2796.54720	0.03883
2795.26143	0.03862
2793.97566	0.03854
2792.68989	0.03856
2791.40412	0.03855
2790.11835	0.03851
2788.83259	0.03850
2787.54682	0.03849
2786.26105	0.03834
2784.97528	0.03800
2783.68951	0.03759
2782.40374	0.03727
2781.11797	0.03712
2779.83220	0.03710
2778.54643	0.03712
2777.26067	0.03707
2775.97490	0.03698
2774.68913	0.03693
2773.40336	0.03697
2772.11759	0.03707
2770.83182	0.03718
2769.54605	0.03730
2768.26028	0.03740
2766.97452	0.03741
2765.68875	0.03730
2764.40298	0.03710
2763.11721	0.03686
2761.83144	0.03663
2760.54567	0.03649
2759.25990	0.03653
2757.97413	0.03674
2756.68836	0.03698
2755.40260	0.03714
2754.11683	0.03718
2752.83106	0.03713
2751.54529	0.03700
2750.25952	0.03680
2748.97375	0.03661
2747.68798	0.03652
2746.40221	0.03656
2745.11645	0.03660
2743.83068	0.03652
2742.54491	0.03630
2741.25914	0.03601
2739.97337	0.03574
2738.68760	0.03552
2737.40183	0.03540
2736.11606	0.03541
2734.83029	0.03554
2733.54453	0.03569
2732.25876	0.03572
2730.97299	0.03555
2729.68722	0.03523
2728.40145	0.03488
2727.11568	0.03466
2725.82991	0.03466
2724.54414	0.03488
2723.25838	0.03521
2721.97261	0.03545
2720.68684	0.03545
2719.40107	0.03524
2718.11530	0.03500
2716.82953	0.03487
2715.54376	0.03482
2714.25799	0.03477
2712.97222	0.03465
2711.68646	0.03449
2710.40069	0.03431
2709.11492	0.03409
2707.82915	0.03384
2706.54338	0.03362
2705.25761	0.03352
2703.97184	0.03357
2702.68607	0.03368
2701.40031	0.03374
2700.11454	0.03371
2698.82877	0.03365
2697.54300	0.03363
2696.25723	0.03364
2694.97146	0.03362
2693.68569	0.03355
2692.39992	0.03347
2691.11415	0.03346
2689.82839	0.03351
2688.54262	0.03356
2687.25685	0.03356
2685.97108	0.03353
2684.68531	0.03352
2683.39954	0.03351
2682.11377	0.03348
2680.82800	0.03336
2679.54224	0.03314
2678.25647	0.03291
2676.97070	0.03276
2675.68493	0.03274
2674.39916	0.03279
2673.11339	0.03286
2671.82762	0.03291
2670.54185	0.03298
2669.25608	0.03305
2667.97032	0.03312
2666.68455	0.03314
2665.39878	0.03312
2664.11301	0.03310
2662.82724	0.03308
2661.54147	0.03303
2660.25570	0.03295
2658.96993	0.03284
2657.68417	0.03273
2656.39840	0.03260
2655.11263	0.03245
2653.82686	0.03231
2652.54109	0.03223
2651.25532	0.03218
2649.96955	0.03216
2648.68378	0.03219
2647.39801	0.03225
2646.11225	0.03222
2644.82648	0.03205
2643.54071	0.03174
2642.25494	0.03140
2640.96917	0.03107
2639.68340	0.03079
2638.39763	0.03057
2637.11186	0.03040
2635.82609	0.03025
2634.54033	0.03019
2633.25456	0.03032
2631.96879	0.03061
2630.68302	0.03085
2629.39725	0.03082
2628.11148	0.03052
2626.82571	0.03013
2625.53994	0.02983
2624.25418	0.02970
2622.96841	0.02973
2621.68264	0.02983
2620.39687	0.02991
2619.11110	0.02988
2617.82533	0.02976
2616.53956	0.02963
2615.25379	0.02952
2613.96802	0.02939
2612.68226	0.02921
2611.39649	0.02895
2610.11072	0.02865
2608.82495	0.02837
2607.53918	0.02820
2606.25341	0.02815
2604.96764	0.02818
2603.68187	0.02824
2602.39611	0.02835
2601.11034	0.02847
2599.82457	0.02858
2598.53880	0.02862
2597.25303	0.02862
2595.96726	0.02861
2594.68149	0.02864
2593.39572	0.02876
2592.10995	0.02895
2590.82419	0.02907
2589.53842	0.02898
2588.25265	0.02865
2586.96688	0.02823
2585.68111	0.02788
2584.39534	0.02767
2583.10957	0.02763
2581.82380	0.02774
2580.53804	0.02791
2579.25227	0.02796
2577.96650	0.02783
2576.68073	0.02761
2575.39496	0.02734
2574.10919	0.02701
2572.82342	0.02665
2571.53765	0.02641
2570.25188	0.02636
2568.96612	0.02645
2567.68035	0.02664
2566.39458	0.02694
2565.10881	0.02726
2563.82304	0.02748
2562.53727	0.02747
2561.25150	0.02726
2559.96573	0.02697
2558.67997	0.02671
2557.39420	0.02652
2556.10843	0.02643
2554.82266	0.02643
2553.53689	0.02655
2552.25112	0.02681
2550.96535	0.02714
2549.67958	0.02740
2548.39381	0.02746
2547.10805	0.02727
2545.82228	0.02690
2544.53651	0.02653
2543.25074	0.02636
2541.96497	0.02648
2540.67920	0.02678
2539.39343	0.02698
2538.10766	0.02685
2536.82190	0.02639
2535.53613	0.02590
2534.25036	0.02563
2532.96459	0.02562
2531.67882	0.02564
2530.39305	0.02548
2529.10728	0.02513
2527.82151	0.02477
2526.53574	0.02462
2525.24998	0.02476
2523.96421	0.02508
2522.67844	0.02536
2521.39267	0.02546
2520.10690	0.02538
2518.82113	0.02524
2517.53536	0.02519
2516.24959	0.02532
2514.96383	0.02558
2513.67806	0.02581
2512.39229	0.02588
2511.10652	0.02576
2509.82075	0.02547
2508.53498	0.02517
2507.24921	0.02511
2505.96344	0.02542
2504.67767	0.02592
2503.39191	0.02624
2502.10614	0.02616
2500.82037	0.02584
2499.53460	0.02552
2498.24883	0.02534
2496.96306	0.02518
2495.67729	0.02491
2494.39152	0.02453
2493.10576	0.02424
2491.81999	0.02421
2490.53422	0.02437
2489.24845	0.02440
2487.96268	0.02408
2486.67691	0.02356
2485.39114	0.02323
2484.10537	0.02330
2482.81960	0.02367
2481.53384	0.02408
2480.24807	0.02436
2478.96230	0.02445
2477.67653	0.02438
2476.39076	0.02426
2475.10499	0.02426
2473.81922	0.02449
2472.53345	0.02485
2471.24769	0.02515
2469.96192	0.02528
2468.67615	0.02517
2467.39038	0.02489
2466.10461	0.02459
2464.81884	0.02444
2463.53307	0.02448
2462.24730	0.02455
2460.96153	0.02444
2459.67577	0.02413
2458.39000	0.02379
2457.10423	0.02360
2455.81846	0.02359
2454.53269	0.02368
2453.24692	0.02377
2451.96115	0.02382
2450.67538	0.02381
2449.38962	0.02369
2448.10385	0.02350
2446.81808	0.02327
2445.53231	0.02310
2444.24654	0.02298
2442.96077	0.02290
2441.67500	0.02289
2440.38923	0.02299
2439.10346	0.02318
2437.81770	0.02333
2436.53193	0.02329
2435.24616	0.02303
2433.96039	0.02266
2432.67462	0.02239
2431.38885	0.02243
2430.10308	0.02281
2428.81731	0.02318
2427.53155	0.02321
2426.24578	0.02290
2424.96001	0.02258
2423.67424	0.02246
2422.38847	0.02247
2421.10270	0.02252
2419.81693	0.02267
2418.53116	0.02299
2417.24539	0.02331
2415.95963	0.02335
2414.67386	0.02309
2413.38809	0.02284
2412.10232	0.02287
2410.81655	0.02312
2409.53078	0.02331
2408.24501	0.02328
2406.95924	0.02313
2405.67347	0.02310
2404.38771	0.02328
2403.10194	0.02355
2401.81617	0.02365
2400.53040	0.02344
2399.24463	0.02303
2397.95886	0.02267
2396.67309	0.02249
2395.38732	0.02248
2394.10156	0.02253
2392.81579	0.02258
2391.53002	0.02263
2390.24425	0.02272
2388.95848	0.02284
2387.67271	0.02293
2386.38694	0.02296
2385.10117	0.02300
2383.81540	0.02308
2382.52964	0.02319
2381.24387	0.02332
2379.95810	0.02337
2378.67233	0.02346
2377.38656	0.02337
2376.10079	0.02288
2374.81502	0.02232
2373.52925	0.02258
2372.24349	0.02350
2370.95772	0.02422
2369.67195	0.02442
2368.38618	0.02431
2367.10041	0.02433
2365.81464	0.02438
2364.52887	0.02446
2363.24310	0.02453
2361.95733	0.02471
2360.67157	0.02516
2359.38580	0.02548
2358.10003	0.02535
2356.81426	0.02480
2355.52849	0.02397
2354.24272	0.02302
2352.95695	0.02233
2351.67118	0.02255
2350.38542	0.02307
2349.09965	0.02314
2347.81388	0.02313
2346.52811	0.02365
2345.24234	0.02406
2343.95657	0.02347
2342.67080	0.02204
2341.38503	0.02235
2340.09926	0.02390
2338.81350	0.02371
2337.52773	0.02222
2336.24196	0.02282
2334.95619	0.02434
2333.67042	0.02399
2332.38465	0.02247
2331.09888	0.02342
2329.81311	0.02385
2328.52735	0.02298
2327.24158	0.02359
2325.95581	0.02477
2324.67004	0.02495
2323.38427	0.02450
2322.09850	0.02455
2320.81273	0.02392
2319.52696	0.02333
2318.24119	0.02300
2316.95543	0.02263
2315.66966	0.02264
2314.38389	0.02269
2313.09812	0.02268
2311.81235	0.02287
2310.52658	0.02280
2309.24081	0.02255
2307.95504	0.02243
2306.66928	0.02225
2305.38351	0.02208
2304.09774	0.02188
2302.81197	0.02174
2301.52620	0.02188
2300.24043	0.02214
2298.95466	0.02234
2297.66889	0.02227
2296.38312	0.02199
2295.09736	0.02176
2293.81159	0.02171
2292.52582	0.02182
2291.24005	0.02184
2289.95428	0.02169
2288.66851	0.02147
2287.38274	0.02135
2286.09697	0.02143
2284.81121	0.02172
2283.52544	0.02204
2282.23967	0.02209
2280.95390	0.02171
2279.66813	0.02098
2278.38236	0.02025
2277.09659	0.01980
2275.81082	0.01969
2274.52505	0.01972
2273.23929	0.01968
2271.95352	0.01945
2270.66775	0.01911
2269.38198	0.01879
2268.09621	0.01856
2266.81044	0.01843
2265.52467	0.01836
2264.23890	0.01824
2262.95314	0.01811
2261.66737	0.01799
2260.38160	0.01791
2259.09583	0.01789
2257.81006	0.01798
2256.52429	0.01814
2255.23852	0.01822
2253.95275	0.01807
2252.66698	0.01762
2251.38122	0.01699
2250.09545	0.01642
2248.80968	0.01607
2247.52391	0.01601
2246.23814	0.01627
2244.95237	0.01692
2243.66660	0.01787
2242.38083	0.01871
2241.09507	0.01900
2239.80930	0.01870
2238.52353	0.01807
2237.23776	0.01743
2235.95199	0.01699
2234.66622	0.01682
2233.38045	0.01685
2232.09468	0.01681
2230.80891	0.01643
2229.52315	0.01583
2228.23738	0.01546
2226.95161	0.01576
2225.66584	0.01673
2224.38007	0.01787
2223.09430	0.01865
2221.80853	0.01882
2220.52276	0.01844
2219.23700	0.01771
2217.95123	0.01688
2216.66546	0.01625
2215.37969	0.01604
2214.09392	0.01621
2212.80815	0.01650
2211.52238	0.01650
2210.23661	0.01588
2208.95084	0.01479
2207.66508	0.01388
2206.37931	0.01385
2205.09354	0.01476
2203.80777	0.01591
2202.52200	0.01649
2201.23623	0.01629
2199.95046	0.01570
2198.66469	0.01523
2197.37893	0.01486
2196.09316	0.01425
2194.80739	0.01334
2193.52162	0.01249
2192.23585	0.01199
2190.95008	0.01176
2189.66431	0.01166
2188.37854	0.01177
2187.09277	0.01219
2185.80701	0.01277
2184.52124	0.01328
2183.23547	0.01374
2181.94970	0.01420
2180.66393	0.01444
2179.37816	0.01408
2178.09239	0.01302
2176.80662	0.01170
2175.52085	0.01080
2174.23509	0.01061
2172.94932	0.01084
2171.66355	0.01087
2170.37778	0.01036
2169.09201	0.00953
2167.80624	0.00891
2166.52047	0.00874
2165.23470	0.00883
2163.94894	0.00893
2162.66317	0.00896
2161.37740	0.00888
2160.09163	0.00862
2158.80586	0.00837
2157.52009	0.00839
2156.23432	0.00854
2154.94855	0.00843
2153.66278	0.00806
2152.37702	0.00803
2151.09125	0.00882
2149.80548	0.01022
2148.51971	0.01154
2147.23394	0.01231
2145.94817	0.01264
2144.66240	0.01271
2143.37663	0.01237
2142.09087	0.01139
2140.80510	0.01011
2139.51933	0.00934
2138.23356	0.00945
2136.94779	0.00996
2135.66202	0.01016
2134.37625	0.01003
2133.09048	0.01008
2131.80471	0.01051
2130.51895	0.01104
2129.23318	0.01148
2127.94741	0.01194
2126.66164	0.01260
2125.37587	0.01329
2124.09010	0.01371
2122.80433	0.01379
2121.51856	0.01372
2120.23280	0.01369
2118.94703	0.01373
2117.66126	0.01380
2116.37549	0.01383
2115.08972	0.01378
2113.80395	0.01371
2112.51818	0.01375
2111.23241	0.01391
2109.94664	0.01399
2108.66088	0.01378
2107.37511	0.01331
2106.08934	0.01297
2104.80357	0.01309
2103.51780	0.01359
2102.23203	0.01394
2100.94626	0.01376
2099.66049	0.01332
2098.37473	0.01272
2097.08896	0.01208
2095.80319	0.01142
2094.51742	0.01076
2093.23165	0.01033
2091.94588	0.01035
2090.66011	0.01084
2089.37434	0.01158
2088.08857	0.01227
2086.80281	0.01266
2085.51704	0.01277
2084.23127	0.01286
2082.94550	0.01308
2081.65973	0.01321
2080.37396	0.01292
2079.08819	0.01218
2077.80242	0.01142
2076.51666	0.01100
2075.23089	0.01090
2073.94512	0.01085
2072.65935	0.01068
2071.37358	0.01047
2070.08781	0.01036
2068.80204	0.01042
2067.51627	0.01065
2066.23050	0.01099
2064.94474	0.01132
2063.65897	0.01154
2062.37320	0.01166
2061.08743	0.01177
2059.80166	0.01177
2058.51589	0.01141
2057.23012	0.01064
2055.94435	0.00978
2054.65859	0.00926
2053.37282	0.00911
2052.08705	0.00908
2050.80128	0.00906
2049.51551	0.00912
2048.22974	0.00921
2046.94397	0.00901
2045.65820	0.00828
2044.37243	0.00729
2043.08667	0.00662
2041.80090	0.00658
2040.51513	0.00691
2039.22936	0.00707
2037.94359	0.00671
2036.65782	0.00589
2035.37205	0.00499
2034.08628	0.00445
2032.80052	0.00446
2031.51475	0.00481
2030.22898	0.00513
2028.94321	0.00533
2027.65744	0.00578
2026.37167	0.00672
2025.08590	0.00781
2023.80013	0.00833
2022.51436	0.00791
2021.22860	0.00677
2019.94283	0.00551
2018.65706	0.00468
2017.37129	0.00463
2016.08552	0.00538
2014.79975	0.00662
2013.51398	0.00789
2012.22821	0.00882
2010.94245	0.00929
2009.65668	0.00941
2008.37091	0.00929
2007.08514	0.00894
2005.79937	0.00834
2004.51360	0.00766
2003.22783	0.00715
2001.94206	0.00694
2000.65629	0.00696
1999.37053	0.00706
1998.08476	0.00723
1996.79899	0.00760
1995.51322	0.00832
1994.22745	0.00924
1992.94168	0.00998
1991.65591	0.01014
1990.37014	0.00973
1989.08438	0.00906
1987.79861	0.00860
1986.51284	0.00858
1985.22707	0.00895
1983.94130	0.00951
1982.65553	0.01020
1981.36976	0.01107
1980.08399	0.01205
1978.79822	0.01259
1977.51246	0.01206
1976.22669	0.01055
1974.94092	0.00900
1973.65515	0.00837
1972.36938	0.00870
1971.08361	0.00929
1969.79784	0.00969
1968.51207	0.01007
1967.22631	0.01079
1965.94054	0.01176
1964.65477	0.01244
1963.36900	0.01241
1962.08323	0.01170
1960.79746	0.01077
1959.51169	0.01012
1958.22592	0.00989
1956.94015	0.00978
1955.65439	0.00940
1954.36862	0.00872
1953.08285	0.00812
1951.79708	0.00794
1950.51131	0.00811
1949.22554	0.00840
1947.93977	0.00863
1946.65400	0.00885
1945.36823	0.00913
1944.08247	0.00946
1942.79670	0.00979
1941.51093	0.01010
1940.22516	0.01035
1938.93939	0.01059
1937.65362	0.01083
1936.36785	0.01105
1935.08208	0.01117
1933.79632	0.01119
1932.51055	0.01126
1931.22478	0.01151
1929.93901	0.01191
1928.65324	0.01227
1927.36747	0.01242
1926.08170	0.01238
1924.79593	0.01227
1923.51016	0.01213
1922.22440	0.01190
1920.93863	0.01156
1919.65286	0.01125
1918.36709	0.01121
1917.08132	0.01153
1915.79555	0.01201
1914.50978	0.01237
1913.22401	0.01247
1911.93825	0.01231
1910.65248	0.01205
1909.36671	0.01185
1908.08094	0.01181
1906.79517	0.01186
1905.50940	0.01191
1904.22363	0.01191
1902.93786	0.01179
1901.65209	0.01154
1900.36633	0.01120
1899.08056	0.01093
1897.79479	0.01088
1896.50902	0.01109
1895.22325	0.01150
1893.93748	0.01195
1892.65171	0.01230
1891.36594	0.01242
1890.08018	0.01234
1888.79441	0.01223
1887.50864	0.01223
1886.22287	0.01238
1884.93710	0.01260
1883.65133	0.01276
1882.36556	0.01276
1881.07979	0.01262
1879.79402	0.01240
1878.50826	0.01220
1877.22249	0.01204
1875.93672	0.01189
1874.65095	0.01175
1873.36518	0.01170
1872.07941	0.01177
1870.79364	0.01196
1869.50787	0.01224
1868.22211	0.01256
1866.93634	0.01285
1865.65057	0.01301
1864.36480	0.01304
1863.07903	0.01301
1861.79326	0.01303
1860.50749	0.01317
1859.22172	0.01341
1857.93595	0.01360
1856.65019	0.01359
1855.36442	0.01331
1854.07865	0.01285
1852.79288	0.01239
1851.50711	0.01205
1850.22134	0.01194
1848.93557	0.01211
1847.64980	0.01245
1846.36404	0.01267
1845.07827	0.01266
1843.79250	0.01256
1842.50673	0.01251
1841.22096	0.01247
1839.93519	0.01242
1838.64942	0.01248
1837.36365	0.01271
1836.07788	0.01301
1834.79212	0.01321
1833.50635	0.01322
1832.22058	0.01301
1830.93481	0.01269
1829.64904	0.01246
1828.36327	0.01242
1827.07750	0.01242
1825.79173	0.01239
1824.50597	0.01241
1823.22020	0.01254
1821.93443	0.01271
1820.64866	0.01280
1819.36289	0.01273
1818.07712	0.01253
1816.79135	0.01237
1815.50558	0.01246
1814.21981	0.01275
1812.93405	0.01306
1811.64828	0.01323
1810.36251	0.01329
1809.07674	0.01333
1807.79097	0.01336
1806.50520	0.01338
1805.21943	0.01334
1803.93366	0.01324
1802.64790	0.01313
1801.36213	0.01308
1800.07636	0.01314
1798.79059	0.01329
1797.50482	0.01346
1796.21905	0.01358
1794.93328	0.01361
1793.64751	0.01352
1792.36174	0.01342
1791.07598	0.01339
1789.79021	0.01334
1788.50444	0.01317
1787.21867	0.01294
1785.93290	0.01278
1784.64713	0.01278
1783.36136	0.01293
1782.07559	0.01308
1780.78983	0.01314
1779.50406	0.01314
1778.21829	0.01312
1776.93252	0.01309
1775.64675	0.01305
1774.36098	0.01294
1773.07521	0.01289
1771.78944	0.01302
1770.50367	0.01321
1769.21791	0.01324
1767.93214	0.01318
1766.64637	0.01325
1765.36060	0.01338
1764.07483	0.01335
1762.78906	0.01320
1761.50329	0.01311
1760.21752	0.01315
1758.93176	0.01319
1757.64599	0.01322
1756.36022	0.01339
1755.07445	0.01368
1753.78868	0.01382
1752.50291	0.01370
1751.21714	0.01353
1749.93137	0.01351
1748.64560	0.01359
1747.35984	0.01364
1746.07407	0.01366
1744.78830	0.01370
1743.50253	0.01371
1742.21676	0.01363
1740.93099	0.01344
1739.64522	0.01333
1738.35945	0.01347
1737.07369	0.01364
1735.78792	0.01352
1734.50215	0.01329
1733.21638	0.01335
1731.93061	0.01363
1730.64484	0.01376
1729.35907	0.01366
1728.07330	0.01353
1726.78753	0.01344
1725.50177	0.01340
1724.21600	0.01345
1722.93023	0.01366
1721.64446	0.01395
1720.35869	0.01410
1719.07292	0.01405
1717.78715	0.01407
1716.50138	0.01435
1715.21561	0.01472
1713.92985	0.01492
1712.64408	0.01497
1711.35831	0.01504
1710.07254	0.01523
1708.78677	0.01555
1707.50100	0.01594
1706.21523	0.01643
1704.92946	0.01709
1703.64370	0.01777
1702.35793	0.01816
1701.07216	0.01848
1699.78639	0.01929
1698.50062	0.02042
1697.21485	0.02124
1695.92908	0.02179
1694.64331	0.02261
1693.35754	0.02361
1692.07178	0.02439
1690.78601	0.02506
1689.50024	0.02593
1688.21447	0.02695
1686.92870	0.02772
1685.64293	0.02819
1684.35716	0.02882
1683.07139	0.02985
1681.78563	0.03087
1680.49986	0.03160
1679.21409	0.03224
1677.92832	0.03292
1676.64255	0.03360
1675.35678	0.03436
1674.07101	0.03529
1672.78524	0.03617
1671.49947	0.03680
1670.21371	0.03731
1668.92794	0.03796
1667.64217	0.03879
1666.35640	0.03960
1665.07063	0.04023
1663.78486	0.04078
1662.49909	0.04142
1661.21332	0.04214
1659.92756	0.04287
1658.64179	0.04360
1657.35602	0.04439
1656.07025	0.04503
1654.78448	0.04521
1653.49871	0.04527
1652.21294	0.04581
1650.92717	0.04669
1649.64140	0.04720
1648.35564	0.04714
1647.06987	0.04695
1645.78410	0.04704
1644.49833	0.04733
1643.21256	0.04754
1641.92679	0.04757
1640.64102	0.04755
1639.35525	0.04750
1638.06949	0.04724
1636.78372	0.04673
1635.49795	0.04627
1634.21218	0.04602
1632.92641	0.04578
1631.64064	0.04526
1630.35487	0.04450
1629.06910	0.04373
1627.78333	0.04306
1626.49757	0.04246
1625.21180	0.04177
1623.92603	0.04100
1622.64026	0.04033
1621.35449	0.03981
1620.06872	0.03922
1618.78295	0.03835
1617.49718	0.03733
1616.21142	0.03657
1614.92565	0.03609
1613.63988	0.03558
1612.35411	0.03489
1611.06834	0.03420
1609.78257	0.03366
1608.49680	0.03323
1607.21103	0.03285
1605.92526	0.03249
1604.63950	0.03215
1603.35373	0.03184
1602.06796	0.03156
1600.78219	0.03134
1599.49642	0.03116
1598.21065	0.03103
1596.92488	0.03096
1595.63911	0.03095
1594.35335	0.03103
1593.06758	0.03118
1591.78181	0.03133
1590.49604	0.03144
1589.21027	0.03149
1587.92450	0.03157
1586.63873	0.03171
1585.35296	0.03195
1584.06719	0.03226
1582.78143	0.03263
1581.49566	0.03311
1580.20989	0.03368
1578.92412	0.03416
1577.63835	0.03442
1576.35258	0.03469
1575.06681	0.03530
1573.78104	0.03607
1572.49528	0.03659
1571.20951	0.03686
1569.92374	0.03719
1568.63797	0.03777
1567.35220	0.03846
1566.06643	0.03904
1564.78066	0.03958
1563.49489	0.04015
1562.20912	0.04057
1560.92336	0.04072
1559.63759	0.04092
1558.35182	0.04157
1557.06605	0.04245
1555.78028	0.04305
1554.49451	0.04333
1553.20874	0.04364
1551.92297	0.04405
1550.63721	0.04443
1549.35144	0.04480
1548.06567	0.04519
1546.77990	0.04555
1545.49413	0.04591
1544.20836	0.04629
1542.92259	0.04660
1541.63682	0.04664
1540.35105	0.04650
1539.06529	0.04653
1537.77952	0.04684
1536.49375	0.04707
1535.20798	0.04701
1533.92221	0.04690
1532.63644	0.04699
1531.35067	0.04720
1530.06490	0.04733
1528.77914	0.04737
1527.49337	0.04745
1526.20760	0.04765
1524.92183	0.04795
1523.63606	0.04815
1522.35029	0.04823
1521.06452	0.04846
1519.77875	0.04894
1518.49298	0.04938
1517.20722	0.04967
1515.92145	0.04997
1514.63568	0.05036
1513.34991	0.05079
1512.06414	0.05131
1510.77837	0.05196
1509.49260	0.05252
1508.20683	0.05281
1506.92107	0.05298
1505.63530	0.05338
1504.34953	0.05398
1503.06376	0.05448
1501.77799	0.05479
1500.49222	0.05505
1499.20645	0.05534
1497.92068	0.05556
1496.63491	0.05576
1495.34915	0.05605
1494.06338	0.05638
1492.77761	0.05658
1491.49184	0.05668
1490.20607	0.05689
1488.92030	0.05726
1487.63453	0.05771
1486.34876	0.05817
1485.06299	0.05866
1483.77723	0.05919
1482.49146	0.05978
1481.20569	0.06046
1479.91992	0.06123
1478.63415	0.06205
1477.34838	0.06289
1476.06261	0.06370
1474.77684	0.06438
1473.49108	0.06490
1472.20531	0.06540
1470.91954	0.06599
1469.63377	0.06658
1468.34800	0.06704
1467.06223	0.06738
1465.77646	0.06769
1464.49069	0.06807
1463.20492	0.06856
1461.91916	0.06910
1460.63339	0.06963
1459.34762	0.07008
1458.06185	0.07047
1456.77608	0.07103
1455.49031	0.07182
1454.20454	0.07255
1452.91877	0.07304
1451.63301	0.07339
1450.34724	0.07373
1449.06147	0.07400
1447.77570	0.07418
1446.48993	0.07429
1445.20416	0.07430
1443.91839	0.07416
1442.63262	0.07395
1441.34685	0.07374
1440.06109	0.07356
1438.77532	0.07330
1437.48955	0.07301
1436.20378	0.07291
1434.91801	0.07302
1433.63224	0.07318
1432.34647	0.07332
1431.06070	0.07354
1429.77494	0.07397
1428.48917	0.07461
1427.20340	0.07539
1425.91763	0.07627
1424.63186	0.07724
1423.34609	0.07829
1422.06032	0.07928
1420.77455	0.08007
1419.48878	0.08079
1418.20302	0.08157
1416.91725	0.08234
1415.63148	0.08293
1414.34571	0.08335
1413.05994	0.08367
1411.77417	0.08390
1410.48840	0.08402
1409.20263	0.08398
1407.91687	0.08376
1406.63110	0.08333
1405.34533	0.08275
1404.05956	0.08209
1402.77379	0.08133
1401.48802	0.08040
1400.20225	0.07928
1398.91648	0.07806
1397.63071	0.07678
1396.34495	0.07542
1395.05918	0.07398
1393.77341	0.07257
1392.48764	0.07120
1391.20187	0.06976
1389.91610	0.06824
1388.63033	0.06667
1387.34456	0.06515
1386.05880	0.06366
1384.77303	0.06214
1383.48726	0.06056
1382.20149	0.05900
1380.91572	0.05751
1379.62995	0.05607
1378.34418	0.05465
1377.05841	0.05319
1375.77264	0.05165
1374.48688	0.05008
1373.20111	0.04857
1371.91534	0.04716
1370.62957	0.04581
1369.34380	0.04449
1368.05803	0.04320
1366.77226	0.04195
1365.48649	0.04076
1364.20073	0.03961
1362.91496	0.03852
1361.62919	0.03750
1360.34342	0.03652
1359.05765	0.03561
1357.77188	0.03480
1356.48611	0.03412
1355.20034	0.03354
1353.91457	0.03303
1352.62881	0.03256
1351.34304	0.03208
1350.05727	0.03161
1348.77150	0.03114
1347.48573	0.03073
1346.19996	0.03037
1344.91419	0.03007
1343.62842	0.02978
1342.34266	0.02949
1341.05689	0.02919
1339.77112	0.02890
1338.48535	0.02867
1337.19958	0.02852
1335.91381	0.02837
1334.62804	0.02815
1333.34227	0.02783
1332.05650	0.02743
1330.77074	0.02705
1329.48497	0.02674
1328.19920	0.02648
1326.91343	0.02622
1325.62766	0.02594
1324.34189	0.02568
1323.05612	0.02545
1321.77035	0.02526
1320.48459	0.02509
1319.19882	0.02493
1317.91305	0.02479
1316.62728	0.02462
1315.34151	0.02437
1314.05574	0.02405
1312.76997	0.02372
1311.48420	0.02345
1310.19843	0.02327
1308.91267	0.02314
1307.62690	0.02300
1306.34113	0.02282
1305.05536	0.02263
1303.76959	0.02243
1302.48382	0.02225
1301.19805	0.02208
1299.91228	0.02193
1298.62652	0.02179
1297.34075	0.02165
1296.05498	0.02151
1294.76921	0.02134
1293.48344	0.02117
1292.19767	0.02100
1290.91190	0.02084
1289.62613	0.02073
1288.34036	0.02066
1287.05460	0.02063
1285.76883	0.02061
1284.48306	0.02059
1283.19729	0.02055
1281.91152	0.02048
1280.62575	0.02036
1279.33998	0.02022
1278.05421	0.02010
1276.76845	0.02003
1275.48268	0.02001
1274.19691	0.02000
1272.91114	0.01997
1271.62537	0.01992
1270.33960	0.01984
1269.05383	0.01977
1267.76806	0.01972
1266.48229	0.01969
1265.19653	0.01970
1263.91076	0.01973
1262.62499	0.01978
1261.33922	0.01982
1260.05345	0.01982
1258.76768	0.01976
1257.48191	0.01965
1256.19614	0.01952
1254.91037	0.01940
1253.62461	0.01933
1252.33884	0.01932
1251.05307	0.01934
1249.76730	0.01936
1248.48153	0.01936
1247.19576	0.01932
1245.90999	0.01925
1244.62422	0.01919
1243.33846	0.01914
1242.05269	0.01908
1240.76692	0.01901
1239.48115	0.01889
1238.19538	0.01875
1236.90961	0.01863
1235.62384	0.01853
1234.33807	0.01847
1233.05230	0.01839
1231.76654	0.01826
1230.48077	0.01807
1229.19500	0.01783
1227.90923	0.01761
1226.62346	0.01741
1225.33769	0.01720
1224.05192	0.01696
1222.76615	0.01669
1221.48039	0.01643
1220.19462	0.01624
1218.90885	0.01610
1217.62308	0.01598
1216.33731	0.01585
1215.05154	0.01570
1213.76577	0.01557
1212.48000	0.01547
1211.19423	0.01538
1209.90847	0.01531
1208.62270	0.01524
1207.33693	0.01518
1206.05116	0.01514
1204.76539	0.01511
1203.47962	0.01509
1202.19385	0.01509
1200.90808	0.01509
1199.62232	0.01506
1198.33655	0.01504
1197.05078	0.01495
1195.76501	0.01479
1194.47924	0.01461
1193.19347	0.01446
1191.90770	0.01433
1190.62193	0.01423
1189.33616	0.01413
1188.05040	0.01406
1186.76463	0.01402
1185.47886	0.01399
1184.19309	0.01396
1182.90732	0.01393
1181.62155	0.01391
1180.33578	0.01389
1179.05001	0.01384
1177.76425	0.01377
1176.47848	0.01368
1175.19271	0.01362
1173.90694	0.01360
1172.62117	0.01366
1171.33540	0.01377
1170.04963	0.01391
1168.76386	0.01406
1167.47809	0.01420
1166.19233	0.01431
1164.90656	0.01437
1163.62079	0.01441
1162.33502	0.01448
1161.04925	0.01461
1159.76348	0.01477
1158.47771	0.01494
1157.19194	0.01510
1155.90618	0.01525
1154.62041	0.01541
1153.33464	0.01560
1152.04887	0.01584
1150.76310	0.01613
1149.47733	0.01646
1148.19156	0.01686
1146.90579	0.01733
1145.62002	0.01784
1144.33426	0.01833
1143.04849	0.01880
1141.76272	0.01928
1140.47695	0.01981
1139.19118	0.02043
1137.90541	0.02119
1136.61964	0.02207
1135.33387	0.02303
1134.04811	0.02404
1132.76234	0.02515
1131.47657	0.02644
1130.19080	0.02796
1128.90503	0.02966
1127.61926	0.03148
1126.33349	0.03335
1125.04772	0.03527
1123.76195	0.03724
1122.47619	0.03929
1121.19042	0.04145
1119.90465	0.04375
1118.61888	0.04615
1117.33311	0.04859
1116.04734	0.05102
1114.76157	0.05343
1113.47580	0.05587
1112.19004	0.05839
1110.90427	0.06097
1109.61850	0.06358
1108.33273	0.06614
1107.04696	0.06863
1105.76119	0.07104
1104.47542	0.07342
1103.18965	0.07576
1101.90388	0.07803
1100.61812	0.08018
1099.33235	0.08217
1098.04658	0.08403
1096.76081	0.08583
1095.47504	0.08761
1094.18927	0.08940
1092.90350	0.09117
1091.61773	0.09289
1090.33197	0.09452
1089.04620	0.09603
1087.76043	0.09744
1086.47466	0.09883
1085.18889	0.10028
1083.90312	0.10181
1082.61735	0.10338
1081.33158	0.10501
1080.04581	0.10672
1078.76005	0.10853
1077.47428	0.11043
1076.18851	0.11242
1074.90274	0.11454
1073.61697	0.11677
1072.33120	0.11909
1071.04543	0.12144
1069.75966	0.12376
1068.47390	0.12608
1067.18813	0.12846
1065.90236	0.13095
1064.61659	0.13354
1063.33082	0.13616
1062.04505	0.13873
1060.75928	0.14118
1059.47351	0.14354
1058.18774	0.14585
1056.90198	0.14814
1055.61621	0.15045
1054.33044	0.15280
1053.04467	0.15517
1051.75890	0.15750
1050.47313	0.15977
1049.18736	0.16205
1047.90159	0.16443
1046.61583	0.16688
1045.33006	0.16929
1044.04429	0.17162
1042.75852	0.17391
1041.47275	0.17622
1040.18698	0.17854
1038.90121	0.18083
1037.61544	0.18312
1036.32967	0.18546
1035.04391	0.18787
1033.75814	0.19025
1032.47237	0.19241
1031.18660	0.19424
1029.90083	0.19584
1028.61506	0.19733
1027.32929	0.19876
1026.04352	0.20008
1024.75775	0.20118
1023.47199	0.20204
1022.18622	0.20267
1020.90045	0.20304
1019.61468	0.20310
1018.32891	0.20284
1017.04314	0.20230
1015.75737	0.20151
1014.47160	0.20046
1013.18584	0.19911
1011.90007	0.19748
1010.61430	0.19557
1009.32853	0.19336
1008.04276	0.19084
1006.75699	0.18803
1005.47122	0.18503
1004.18545	0.18188
1002.89968	0.17853
1001.61392	0.17489
1000.32815	0.17091
999.04238	0.16666
997.75661	0.16226
996.47084	0.15776
995.18507	0.15319
993.89930	0.14855
992.61353	0.14390
991.32777	0.13932
990.04200	0.13487
988.75623	0.13057
987.47046	0.12636
986.18469	0.12217
984.89892	0.11799
983.61315	0.11389
982.32738	0.10994
981.04161	0.10620
979.75585	0.10269
978.47008	0.09940
977.18431	0.09632
975.89854	0.09349
974.61277	0.09095
973.32700	0.08875
972.04123	0.08695
970.75546	0.08554
969.46970	0.08454
968.18393	0.08395
966.89816	0.08376
965.61239	0.08390
964.32662	0.08427
963.04085	0.08474
961.75508	0.08516
960.46931	0.08534
959.18354	0.08511
957.89778	0.08441
956.61201	0.08333
955.32624	0.08199
954.04047	0.08049
952.75470	0.07888
951.46893	0.07719
950.18316	0.07542
948.89739	0.07359
947.61163	0.07172
946.32586	0.06988
945.04009	0.06816
943.75432	0.06655
942.46855	0.06502
941.18278	0.06351
939.89701	0.06199
938.61124	0.06048
937.32547	0.05900
936.03971	0.05758
934.75394	0.05623
933.46817	0.05502
932.18240	0.05396
930.89663	0.05303
929.61086	0.05218
928.32509	0.05136
927.03932	0.05052
925.75356	0.04969
924.46779	0.04895
923.18202	0.04836
921.89625	0.04786
920.61048	0.04735
919.32471	0.04674
918.03894	0.04603
916.75317	0.04531
915.46740	0.04467
914.18164	0.04411
912.89587	0.04359
911.61010	0.04310
910.32433	0.04266
909.03856	0.04224
907.75279	0.04181
906.46702	0.04135
905.18125	0.04090
903.89549	0.04054
902.60972	0.04026
901.32395	0.04000
900.03818	0.03968
898.75241	0.03933
897.46664	0.03900
896.18087	0.03870
894.89510	0.03841
893.60933	0.03814
892.32357	0.03794
891.03780	0.03785
889.75203	0.03790
888.46626	0.03816
887.18049	0.03874
885.89472	0.03971
884.60895	0.04113
883.32318	0.04299
882.03742	0.04519
880.75165	0.04741
879.46588	0.04925
878.18011	0.05056
876.89434	0.05154
875.60857	0.05252
874.32280	0.05364
873.03703	0.05467
871.75126	0.05524
870.46550	0.05510
869.17973	0.05427
867.89396	0.05299
866.60819	0.05149
865.32242	0.04991
864.03665	0.04834
862.75088	0.04687
861.46511	0.04558
860.17935	0.04446
858.89358	0.04346
857.60781	0.04251
856.32204	0.04160
855.03627	0.04074
853.75050	0.03997
852.46473	0.03931
851.17896	0.03876
849.89319	0.03828
848.60743	0.03785
847.32166	0.03747
846.03589	0.03716
844.75012	0.03688
843.46435	0.03656
842.17858	0.03616
840.89281	0.03573
839.60704	0.03534
838.32128	0.03506
837.03551	0.03488
835.74974	0.03476
834.46397	0.03463
833.17820	0.03444
831.89243	0.03422
830.60666	0.03401
829.32089	0.03387
828.03512	0.03379
826.74936	0.03374
825.46359	0.03364
824.17782	0.03347
822.89205	0.03328
821.60628	0.03313
820.32051	0.03303
819.03474	0.03294
817.74897	0.03284
816.46321	0.03269
815.17744	0.03254
813.89167	0.03242
812.60590	0.03235
811.32013	0.03231
810.03436	0.03228
808.74859	0.03219
807.46282	0.03202
806.17705	0.03182
804.89129	0.03165
803.60552	0.03158
802.31975	0.03159
801.03398	0.03162
799.74821	0.03163
798.46244	0.03163
797.17667	0.03162
795.89090	0.03162
794.60513	0.03160
793.31937	0.03157
792.03360	0.03153
790.74783	0.03146
789.46206	0.03137
788.17629	0.03130
786.89052	0.03130
785.60475	0.03138
784.31898	0.03146
783.03322	0.03144
781.74745	0.03127
780.46168	0.03106
779.17591	0.03094
777.89014	0.03094
776.60437	0.03100
775.31860	0.03105
774.03283	0.03106
772.74706	0.03104
771.46130	0.03103
770.17553	0.03101
768.88976	0.03093
767.60399	0.03078
766.31822	0.03061
765.03245	0.03051
763.74668	0.03051
762.46091	0.03057
761.17515	0.03064
759.88938	0.03069
758.60361	0.03075
757.31784	0.03081
756.03207	0.03086
754.74630	0.03084
753.46053	0.03077
752.17476	0.03072
750.88899	0.03078
749.60323	0.03094
748.31746	0.03108
747.03169	0.03110
745.74592	0.03099
744.46015	0.03082
743.17438	0.03067
741.88861	0.03056
740.60284	0.03049
739.31708	0.03051
738.03131	0.03061
736.74554	0.03073
735.45977	0.03074
734.17400	0.03065
732.88823	0.03060
731.60246	0.03068
730.31669	0.03084
729.03092	0.03093
727.74516	0.03089
726.45939	0.03075
725.17362	0.03063
723.88785	0.03063
722.60208	0.03074
721.31631	0.03091
720.03054	0.03105
718.74477	0.03114
717.45901	0.03118
716.17324	0.03121
714.88747	0.03122
713.60170	0.03121
712.31593	0.03116
711.03016	0.03110
709.74439	0.03107
708.45862	0.03110
707.17285	0.03118
705.88709	0.03123
704.60132	0.03122
703.31555	0.03114
702.02978	0.03107
700.74401	0.03102
699.45824	0.03098
698.17247	0.03091
696.88670	0.03081
695.60094	0.03076
694.31517	0.03079
693.02940	0.03088
691.74363	0.03098
690.45786	0.03101
689.17209	0.03098
687.88632	0.03088
686.60055	0.03076
685.31478	0.03066
684.02902	0.03064
682.74325	0.03071
681.45748	0.03076
680.17171	0.03070
678.88594	0.03052
677.60017	0.03030
676.31440	0.03020
675.02863	0.03021
673.74287	0.03029
672.45710	0.03039
671.17133	0.03046
669.88556	0.03051
668.59979	0.03052
667.31402	0.03038
666.02825	0.03030
664.74248	0.03022
663.45671	0.03014
662.17095	0.03005
660.88518	0.02996
659.59941	0.02986
658.31364	0.02979
657.02787	0.02972
655.74210	0.02963
654.45633	0.02954
653.17056	0.02946
651.88480	0.02938
650.59903	0.02933
649.31326	0.02930
648.02749	0.02929
646.74172	0.02933
645.45595	0.02945
644.17018	0.02962
642.88441	0.02980
641.59864	0.02993
640.31288	0.03003
639.02711	0.03011
637.74134	0.03024
636.45557	0.03041
635.16980	0.03061
633.88403	0.03082
632.59826	0.03106
631.31249	0.03140
630.02673	0.03191
628.74096	0.03254
627.45519	0.03287
626.16942	0.03362
624.88365	0.03489
623.59788	0.03669
622.31211	0.03894
621.02634	0.04120
619.74057	0.04302
618.45481	0.04442
617.16904	0.04582
615.88327	0.04761
614.59750	0.04992
613.31173	0.05267
612.02596	0.05586
610.74019	0.05963
609.45442	0.06387
608.16866	0.06798
606.88289	0.07152
605.59712	0.07471
604.31135	0.07795
603.02558	0.08093
601.73981	0.08279
600.45404	0.08302
599.16827	0.08184
597.88250	0.07988
596.59674	0.07771
595.31097	0.07568
594.02520	0.07392
592.73943	0.07243
591.45366	0.07122
590.16789	0.07035
588.88212	0.06990
587.59635	0.06986
586.31059	0.07017
585.02482	0.07079
583.73905	0.07180
582.45328	0.07330
581.16751	0.07521
579.88174	0.07735
578.59597	0.07960
577.31020	0.08194
576.02443	0.08433
574.73867	0.08666
573.45290	0.08885
572.16713	0.09099
570.88136	0.09325
569.59559	0.09574
568.30982	0.09839
567.02405	0.10109
565.73828	0.10376
564.45251	0.10625
563.16675	0.10826
561.88098	0.10945
560.59521	0.10958
559.30944	0.10854
558.02367	0.10642
556.73790	0.10337
555.45213	0.09957
554.16636	0.09530
552.88060	0.09088
551.59483	0.08663
550.30906	0.08270
549.02329	0.07910
547.73752	0.07574
546.45175	0.07257
545.16598	0.06961
543.88021	0.06689
542.59444	0.06446
541.30868	0.06231
540.02291	0.06033
538.73714	0.05847
537.45137	0.05676
536.16560	0.05526
534.87983	0.05395
533.59406	0.05274
532.30829	0.05153
531.02253	0.05028
529.73676	0.04900
528.45099	0.04773
527.16522	0.04653
525.87945	0.04549
524.59368	0.04461
523.30791	0.04379
522.02214	0.04299
520.73637	0.04223
519.45061	0.04157
518.16484	0.04097
516.87907	0.04035
515.59330	0.03962
514.30753	0.03877
513.02176	0.03784
511.73599	0.03693
510.45022	0.03619
509.16446	0.03569
507.87869	0.03534
506.59292	0.03500
505.30715	0.03454
504.02138	0.03398
502.73561	0.03345
501.44984	0.03301
500.16407	0.03266
498.87830	0.03233
497.59254	0.03197
496.30677	0.03159
495.02100	0.03122
493.73523	0.03090
492.44946	0.03066
491.16369	0.03053
489.87792	0.03050
488.59215	0.03048
487.30639	0.03039
486.02062	0.03016
484.73485	0.02981
483.44908	0.02946
482.16331	0.02923
480.87754	0.02918
479.59177	0.02925
478.30600	0.02933
477.02023	0.02937
475.73447	0.02936
474.44870	0.02933
473.16293	0.02932
471.87716	0.02934
470.59139	0.02935
469.30562	0.02930
468.01985	0.02917
466.73408	0.02897
465.44832	0.02872
464.16255	0.02843
462.87678	0.02814
461.59101	0.02785
460.30524	0.02759
459.01947	0.02738
457.73370	0.02720
456.44793	0.02698
455.16216	0.02665
453.87640	0.02623
452.59063	0.02583
451.30486	0.02553
450.01909	0.02533
448.73332	0.02516
447.44755	0.02499
446.16178	0.02480
444.87601	0.02460
443.59025	0.02441
442.30448	0.02423
441.01871	0.02404
439.73294	0.02383
438.44717	0.02365
437.16140	0.02357
435.87563	0.02358
434.58986	0.02358
433.30409	0.02351
432.01833	0.02339
430.73256	0.02331
429.44679	0.02328
428.16102	0.02322
426.87525	0.02308
425.58948	0.02290
424.30371	0.02275
423.01794	0.02264
421.73218	0.02248
420.44641	0.02227
419.16064	0.02210
417.87487	0.02206
416.58910	0.02208
415.30333	0.02208
414.01756	0.02202
412.73179	0.02193
411.44602	0.02185
410.16026	0.02181
408.87449	0.02180
407.58872	0.02183
406.30295	0.02188
405.01718	0.02193
403.73141	0.02197
402.44564	0.02199
401.15987	0.02201
399.87411	0.02202
