3997.45528	0.03532
3996.16951	0.03532
3994.88374	0.03525
3993.59798	0.03521
3992.31221	0.03513
3991.02644	0.03472
3989.74067	0.03393
3988.45490	0.03321
3987.16913	0.03322
3985.88336	0.03418
3984.59759	0.03572
3983.31183	0.03715
3982.02606	0.03805
3980.74029	0.03822
3979.45452	0.03754
3978.16875	0.03606
3976.88298	0.03420
3975.59721	0.03268
3974.31144	0.03203
3973.02567	0.03230
3971.73991	0.03309
3970.45414	0.03381
3969.16837	0.03419
3967.88260	0.03438
3966.59683	0.03457
3965.31106	0.03471
3964.02529	0.03458
3962.73952	0.03419
3961.45376	0.03379
3960.16799	0.03354
3958.88222	0.03342
3957.59645	0.03340
3956.31068	0.03354
3955.02491	0.03379
3953.73914	0.03404
3952.45337	0.03413
3951.16760	0.03390
3949.88184	0.03336
3948.59607	0.03276
3947.31030	0.03232
3946.02453	0.03200
3944.73876	0.03164
3943.45299	0.03146
3942.16722	0.03188
3940.88145	0.03291
3939.59569	0.03405
3938.30992	0.03483
3937.02415	0.03504
3935.73838	0.03463
3934.45261	0.03381
3933.16684	0.03313
3931.88107	0.03304
3930.59530	0.03337
3929.30953	0.03354
3928.02377	0.03325
3926.73800	0.03267
3925.45223	0.03233
3924.16646	0.03257
3922.88069	0.03320
3921.59492	0.03370
3920.30915	0.03372
3919.02338	0.03330
3917.73762	0.03276
3916.45185	0.03244
3915.16608	0.03237
3913.88031	0.03233
3912.59454	0.03225
3911.30877	0.03213
3910.02300	0.03194
3908.73723	0.03172
3907.45146	0.03160
3906.16570	0.03181
3904.87993	0.03245
3903.59416	0.03334
3902.30839	0.03400
3901.02262	0.03408
3899.73685	0.03380
3898.45108	0.03365
3897.16531	0.03379
3895.87955	0.03393
3894.59378	0.03372
3893.30801	0.03306
3892.02224	0.03231
3890.73647	0.03212
3889.45070	0.03248
3888.16493	0.03268
3886.87916	0.03250
3885.59339	0.03254
3884.30763	0.03299
3883.02186	0.03316
3881.73609	0.03266
3880.45032	0.03207
3879.16455	0.03188
3877.87878	0.03180
3876.59301	0.03144
3875.30724	0.03118
3874.02148	0.03159
3872.73571	0.03231
3871.44994	0.03250
3870.16417	0.03220
3868.87840	0.03199
3867.59263	0.03181
3866.30686	0.03148
3865.02109	0.03143
3863.73532	0.03200
3862.44956	0.03268
3861.16379	0.03291
3859.87802	0.03276
3858.59225	0.03261
3857.30648	0.03239
3856.02071	0.03169
3854.73494	0.03078
3853.44917	0.03071
3852.16341	0.03184
3850.87764	0.03322
3849.59187	0.03393
3848.30610	0.03397
3847.02033	0.03362
3845.73456	0.03314
3844.44879	0.03279
3843.16302	0.03273
3841.87725	0.03279
3840.59149	0.03244
3839.30572	0.03164
3838.01995	0.03114
3836.73418	0.03161
3835.44841	0.03259
3834.16264	0.03318
3832.87687	0.03312
3831.59110	0.03273
3830.30534	0.03227
3829.01957	0.03168
3827.73380	0.03104
3826.44803	0.03080
3825.16226	0.03105
3823.87649	0.03123
3822.59072	0.03103
3821.30495	0.03109
3820.01918	0.03182
3818.73342	0.03234
3817.44765	0.03181
3816.16188	0.03093
3814.87611	0.03072
3813.59034	0.03101
3812.30457	0.03134
3811.01880	0.03180
3809.73303	0.03224
3808.44726	0.03224
3807.16150	0.03216
3805.87573	0.03259
3804.58996	0.03304
3803.30419	0.03267
3802.01842	0.03191
3800.73265	0.03180
3799.44688	0.03209
3798.16111	0.03186
3796.87535	0.03128
3795.58958	0.03114
3794.30381	0.03148
3793.01804	0.03171
3791.73227	0.03161
3790.44650	0.03137
3789.16073	0.03112
3787.87496	0.03078
3786.58919	0.03030
3785.30343	0.02993
3784.01766	0.03004
3782.73189	0.03078
3781.44612	0.03187
3780.16035	0.03289
3778.87458	0.03342
3777.58881	0.03303
3776.30304	0.03170
3775.01728	0.03011
3773.73151	0.02912
3772.44574	0.02896
3771.15997	0.02936
3769.87420	0.03002
3768.58843	0.03050
3767.30266	0.03036
3766.01689	0.02973
3764.73112	0.02929
3763.44536	0.02932
3762.15959	0.02942
3760.87382	0.02931
3759.58805	0.02914
3758.30228	0.02918
3757.01651	0.02957
3755.73074	0.03006
3754.44497	0.03019
3753.15921	0.02997
3751.87344	0.02986
3750.58767	0.03025
3749.30190	0.03129
3748.01613	0.03251
3746.73036	0.03273
3745.44459	0.03178
3744.15882	0.03121
3742.87305	0.03173
3741.58729	0.03228
3740.30152	0.03228
3739.01575	0.03219
3737.72998	0.03228
3736.44421	0.03241
3735.15844	0.03224
3733.87267	0.03159
3732.58690	0.03080
3731.30114	0.03057
3730.01537	0.03082
3728.72960	0.03072
3727.44383	0.03020
3726.15806	0.02998
3724.87229	0.03035
3723.58652	0.03089
3722.30075	0.03105
3721.01498	0.03057
3719.72922	0.02956
3718.44345	0.02845
3717.15768	0.02794
3715.87191	0.02834
3714.58614	0.02927
3713.30037	0.03021
3712.01460	0.03090
3710.72883	0.03134
3709.44307	0.03150
3708.15730	0.03130
3706.87153	0.03085
3705.58576	0.03028
3704.29999	0.02964
3703.01422	0.02905
3701.72845	0.02866
3700.44268	0.02854
3699.15691	0.02861
3697.87115	0.02883
3696.58538	0.02922
3695.29961	0.02964
3694.01384	0.02979
3692.72807	0.02964
3691.44230	0.02938
3690.15653	0.02918
3688.87076	0.02926
3687.58500	0.02989
3686.29923	0.03071
3685.01346	0.03102
3683.72769	0.03082
3682.44192	0.03059
3681.15615	0.03063
3679.87038	0.03083
3678.58461	0.03063
3677.29884	0.02963
3676.01308	0.02856
3674.72731	0.02843
3673.44154	0.02886
3672.15577	0.02885
3670.87000	0.02881
3669.58423	0.02985
3668.29846	0.03172
3667.01269	0.03312
3665.72693	0.03339
3664.44116	0.03278
3663.15539	0.03191
3661.86962	0.03133
3660.58385	0.03126
3659.29808	0.03144
3658.01231	0.03147
3656.72654	0.03150
3655.44077	0.03194
3654.15501	0.03253
3652.86924	0.03258
3651.58347	0.03207
3650.29770	0.03169
3649.01193	0.03184
3647.72616	0.03220
3646.44039	0.03232
3645.15462	0.03209
3643.86886	0.03165
3642.58309	0.03127
3641.29732	0.03111
3640.01155	0.03127
3638.72578	0.03177
3637.44001	0.03256
3636.15424	0.03348
3634.86847	0.03448
3633.58270	0.03556
3632.29694	0.03650
3631.01117	0.03699
3629.72540	0.03721
3628.43963	0.03769
3627.15386	0.03827
3625.86809	0.03837
3624.58232	0.03809
3623.29655	0.03798
3622.01079	0.03794
3620.72502	0.03757
3619.43925	0.03703
3618.15348	0.03686
3616.86771	0.03712
3615.58194	0.03738
3614.29617	0.03735
3613.01040	0.03721
3611.72463	0.03709
3610.43887	0.03693
3609.15310	0.03678
3607.86733	0.03689
3606.58156	0.03736
3605.29579	0.03795
3604.01002	0.03844
3602.72425	0.03877
3601.43848	0.03909
3600.15272	0.03962
3598.86695	0.04039
3597.58118	0.04107
3596.29541	0.04127
3595.00964	0.04112
3593.72387	0.04116
3592.43810	0.04169
3591.15233	0.04258
3589.86656	0.04340
3588.58080	0.04388
3587.29503	0.04417
3586.00926	0.04436
3584.72349	0.04444
3583.43772	0.04442
3582.15195	0.04438
3580.86618	0.04426
3579.58041	0.04399
3578.29464	0.04364
3577.00888	0.04346
3575.72311	0.04365
3574.43734	0.04421
3573.15157	0.04501
3571.86580	0.04589
3570.58003	0.04653
3569.29426	0.04670
3568.00849	0.04663
3566.72273	0.04675
3565.43696	0.04723
3564.15119	0.04782
3562.86542	0.04814
3561.57965	0.04803
3560.29388	0.04755
3559.00811	0.04695
3557.72234	0.04657
3556.43657	0.04666
3555.15081	0.04720
3553.86504	0.04799
3552.57927	0.04889
3551.29350	0.04981
3550.00773	0.05058
3548.72196	0.05101
3547.43619	0.05110
3546.15042	0.05098
3544.86466	0.05072
3543.57889	0.05037
3542.29312	0.05005
3541.00735	0.05001
3539.72158	0.05028
3538.43581	0.05071
3537.15004	0.05108
3535.86427	0.05130
3534.57850	0.05145
3533.29274	0.05166
3532.00697	0.05206
3530.72120	0.05264
3529.43543	0.05321
3528.14966	0.05350
3526.86389	0.05339
3525.57812	0.05302
3524.29235	0.05283
3523.00659	0.05318
3521.72082	0.05394
3520.43505	0.05470
3519.14928	0.05517
3517.86351	0.05541
3516.57774	0.05561
3515.29197	0.05580
3514.00620	0.05603
3512.72043	0.05639
3511.43467	0.05693
3510.14890	0.05753
3508.86313	0.05796
3507.57736	0.05802
3506.29159	0.05778
3505.00582	0.05757
3503.72005	0.05775
3502.43428	0.05831
3501.14852	0.05885
3499.86275	0.05892
3498.57698	0.05845
3497.29121	0.05777
3496.00544	0.05727
3494.71967	0.05715
3493.43390	0.05734
3492.14813	0.05772
3490.86236	0.05825
3489.57660	0.05895
3488.29083	0.05984
3487.00506	0.06080
3485.71929	0.06161
3484.43352	0.06203
3483.14775	0.06194
3481.86198	0.06142
3480.57621	0.06070
3479.29045	0.06012
3478.00468	0.06003
3476.71891	0.06048
3475.43314	0.06115
3474.14737	0.06167
3472.86160	0.06199
3471.57583	0.06227
3470.29006	0.06260
3469.00429	0.06291
3467.71853	0.06309
3466.43276	0.06314
3465.14699	0.06304
3463.86122	0.06280
3462.57545	0.06255
3461.28968	0.06253
3460.00391	0.06288
3458.71814	0.06351
3457.43238	0.06409
3456.14661	0.06435
3454.86084	0.06427
3453.57507	0.06411
3452.28930	0.06416
3451.00353	0.06453
3449.71776	0.06496
3448.43199	0.06518
3447.14622	0.06511
3445.86046	0.06487
3444.57469	0.06458
3443.28892	0.06429
3442.00315	0.06412
3440.71738	0.06421
3439.43161	0.06458
3438.14584	0.06506
3436.86007	0.06554
3435.57431	0.06601
3434.28854	0.06655
3433.00277	0.06712
3431.71700	0.06754
3430.43123	0.06762
3429.14546	0.06729
3427.85969	0.06667
3426.57392	0.06600
3425.28815	0.06564
3424.00239	0.06583
3422.71662	0.06639
3421.43085	0.06690
3420.14508	0.06717
3418.85931	0.06734
3417.57354	0.06758
3416.28777	0.06784
3415.00200	0.06799
3413.71624	0.06803
3412.43047	0.06797
3411.14470	0.06784
3409.85893	0.06775
3408.57316	0.06789
3407.28739	0.06835
3406.00162	0.06890
3404.71585	0.06921
3403.43008	0.06919
3402.14432	0.06904
3400.85855	0.06903
3399.57278	0.06925
3398.28701	0.06957
3397.00124	0.06991
3395.71547	0.07023
3394.42970	0.07041
3393.14393	0.07033
3391.85817	0.07000
3390.57240	0.06959
3389.28663	0.06931
3388.00086	0.06915
3386.71509	0.06905
3385.42932	0.06901
3384.14355	0.06915
3382.85778	0.06949
3381.57201	0.06992
3380.28625	0.07033
3379.00048	0.07066
3377.71471	0.07087
3376.42894	0.07089
3375.14317	0.07075
3373.85740	0.07062
3372.57163	0.07069
3371.28586	0.07096
3370.00010	0.07117
3368.71433	0.07110
3367.42856	0.07071
3366.14279	0.07022
3364.85702	0.06989
3363.57125	0.06984
3362.28548	0.07005
3360.99971	0.07034
3359.71394	0.07056
3358.42818	0.07062
3357.14241	0.07063
3355.85664	0.07072
3354.57087	0.07096
3353.28510	0.07121
3351.99933	0.07127
3350.71356	0.07109
3349.42779	0.07086
3348.14202	0.07082
3346.85626	0.07113
3345.57049	0.07178
3344.28472	0.07252
3342.99895	0.07300
3341.71318	0.07295
3340.42741	0.07241
3339.14164	0.07164
3337.85587	0.07094
3336.57011	0.07050
3335.28434	0.07038
3333.99857	0.07048
3332.71280	0.07061
3331.42703	0.07060
3330.14126	0.07044
3328.85549	0.07022
3327.56972	0.07000
3326.28395	0.06976
3324.99819	0.06954
3323.71242	0.06944
3322.42665	0.06958
3321.14088	0.06994
3319.85511	0.07043
3318.56934	0.07096
3317.28357	0.07142
3315.99780	0.07166
3314.71204	0.07155
3313.42627	0.07114
3312.14050	0.07069
3310.85473	0.07042
3309.56896	0.07039
3308.28319	0.07044
3306.99742	0.07038
3305.71165	0.07013
3304.42588	0.06984
3303.14012	0.06973
3301.85435	0.06991
3300.56858	0.07023
3299.28281	0.07046
3297.99704	0.07047
3296.71127	0.07034
3295.42550	0.07017
3294.13973	0.06996
3292.85397	0.06962
3291.56820	0.06907
3290.28243	0.06841
3288.99666	0.06789
3287.71089	0.06770
3286.42512	0.06774
3285.13935	0.06775
3283.85358	0.06763
3282.56781	0.06760
3281.28205	0.06784
3279.99628	0.06823
3278.71051	0.06855
3277.42474	0.06876
3276.13897	0.06900
3274.85320	0.06924
3273.56743	0.06922
3272.28166	0.06873
3270.99590	0.06794
3269.71013	0.06730
3268.42436	0.06715
3267.13859	0.06744
3265.85282	0.06786
3264.56705	0.06820
3263.28128	0.06849
3261.99551	0.06886
3260.70974	0.06923
3259.42398	0.06932
3258.13821	0.06896
3256.85244	0.06835
3255.56667	0.06793
3254.28090	0.06801
3252.99513	0.06848
3251.70936	0.06893
3250.42359	0.06898
3249.13783	0.06867
3247.85206	0.06831
3246.56629	0.06818
3245.28052	0.06829
3243.99475	0.06846
3242.70898	0.06851
3241.42321	0.06850
3240.13744	0.06856
3238.85167	0.06876
3237.56591	0.06903
3236.28014	0.06927
3234.99437	0.06931
3233.70860	0.06903
3232.42283	0.06842
3231.13706	0.06764
3229.85129	0.06690
3228.56552	0.06629
3227.27976	0.06585
3225.99399	0.06565
3224.70822	0.06573
3223.42245	0.06601
3222.13668	0.06627
3220.85091	0.06638
3219.56514	0.06631
3218.27937	0.06609
3216.99360	0.06579
3215.70784	0.06554
3214.42207	0.06547
3213.13630	0.06561
3211.85053	0.06584
3210.56476	0.06598
3209.27899	0.06591
3207.99322	0.06573
3206.70745	0.06568
3205.42169	0.06594
3204.13592	0.06645
3202.85015	0.06687
3201.56438	0.06688
3200.27861	0.06645
3198.99284	0.06582
3197.70707	0.06529
3196.42130	0.06504
3195.13553	0.06512
3193.84977	0.06545
3192.56400	0.06580
3191.27823	0.06586
3189.99246	0.06554
3188.70669	0.06507
3187.42092	0.06476
3186.13515	0.06475
3184.84938	0.06486
3183.56362	0.06490
3182.27785	0.06473
3180.99208	0.06435
3179.70631	0.06389
3178.42054	0.06354
3177.13477	0.06344
3175.84900	0.06359
3174.56323	0.06381
3173.27746	0.06394
3171.99170	0.06389
3170.70593	0.06365
3169.42016	0.06329
3168.13439	0.06286
3166.84862	0.06239
3165.56285	0.06194
3164.27708	0.06163
3162.99131	0.06161
3161.70555	0.06183
3160.41978	0.06202
3159.13401	0.06186
3157.84824	0.06130
3156.56247	0.06060
3155.27670	0.06008
3153.99093	0.05987
3152.70516	0.05989
3151.41939	0.05989
3150.13363	0.05970
3148.84786	0.05937
3147.56209	0.05919
3146.27632	0.05937
3144.99055	0.05988
3143.70478	0.06046
3142.41901	0.06084
3141.13324	0.06090
3139.84748	0.06069
3138.56171	0.06036
3137.27594	0.06016
3135.99017	0.06021
3134.70440	0.06039
3133.41863	0.06047
3132.13286	0.06031
3130.84709	0.06000
3129.56132	0.05966
3128.27556	0.05938
3126.98979	0.05917
3125.70402	0.05907
3124.41825	0.05912
3123.13248	0.05927
3121.84671	0.05945
3120.56094	0.05965
3119.27517	0.05987
3117.98940	0.06006
3116.70364	0.06004
3115.41787	0.05970
3114.13210	0.05905
3112.84633	0.05823
3111.56056	0.05744
3110.27479	0.05689
3108.98902	0.05670
3107.70325	0.05691
3106.41749	0.05734
3105.13172	0.05771
3103.84595	0.05773
3102.56018	0.05744
3101.27441	0.05714
3099.98864	0.05708
3098.70287	0.05718
3097.41710	0.05719
3096.13133	0.05704
3094.84557	0.05685
3093.55980	0.05675
3092.27403	0.05674
3090.98826	0.05676
3089.70249	0.05680
3088.41672	0.05687
3087.13095	0.05698
3085.84518	0.05701
3084.55942	0.05685
3083.27365	0.05646
3081.98788	0.05597
3080.70211	0.05553
3079.41634	0.05524
3078.13057	0.05511
3076.84480	0.05510
3075.55903	0.05519
3074.27326	0.05528
3072.98750	0.05526
3071.70173	0.05506
3070.41596	0.05476
3069.13019	0.05454
3067.84442	0.05454
3066.55865	0.05470
3065.27288	0.05486
3063.98711	0.05489
3062.70135	0.05487
3061.41558	0.05488
3060.12981	0.05489
3058.84404	0.05476
3057.55827	0.05443
3056.27250	0.05399
3054.98673	0.05360
3053.70096	0.05336
3052.41519	0.05327
3051.12943	0.05336
3049.84366	0.05355
3048.55789	0.05371
3047.27212	0.05370
3045.98635	0.05355
3044.70058	0.05341
3043.41481	0.05335
3042.12904	0.05325
3040.84328	0.05295
3039.55751	0.05242
3038.27174	0.05186
3036.98597	0.05148
3035.70020	0.05137
3034.41443	0.05149
3033.12866	0.05167
3031.84289	0.05175
3030.55712	0.05165
3029.27136	0.05139
3027.98559	0.05115
3026.69982	0.05107
3025.41405	0.05119
3024.12828	0.05138
3022.84251	0.05150
3021.55674	0.05148
3020.27097	0.05135
3018.98521	0.05122
3017.69944	0.05112
3016.41367	0.05101
3015.12790	0.05077
3013.84213	0.05042
3012.55636	0.05004
3011.27059	0.04975
3009.98482	0.04959
3008.69905	0.04952
3007.41329	0.04952
3006.12752	0.04956
3004.84175	0.04957
3003.55598	0.04956
3002.27021	0.04960
3000.98444	0.04974
2999.69867	0.04994
2998.41290	0.05000
2997.12714	0.04981
2995.84137	0.04945
2994.55560	0.04918
2993.26983	0.04914
2991.98406	0.04923
2990.69829	0.04920
2989.41252	0.04894
2988.12675	0.04863
2986.84098	0.04852
2985.55522	0.04872
2984.26945	0.04909
2982.98368	0.04940
2981.69791	0.04952
2980.41214	0.04954
2979.12637	0.04968
2977.84060	0.05000
2976.55483	0.05037
2975.26907	0.05065
2973.98330	0.05092
2972.69753	0.05133
2971.41176	0.05189
2970.12599	0.05249
2968.84022	0.05298
2967.55445	0.05339
2966.26868	0.05380
2964.98291	0.05430
2963.69715	0.05491
2962.41138	0.05559
2961.12561	0.05616
2959.83984	0.05643
2958.55407	0.05635
2957.26830	0.05612
2955.98253	0.05605
2954.69676	0.05628
2953.41100	0.05665
2952.12523	0.05688
2950.83946	0.05677
2949.55369	0.05638
2948.26792	0.05592
2946.98215	0.05559
2945.69638	0.05541
2944.41061	0.05531
2943.12484	0.05527
2941.83908	0.05528
2940.55331	0.05532
2939.26754	0.05531
2937.98177	0.05533
2936.69600	0.05554
2935.41023	0.05602
2934.12446	0.05658
2932.83869	0.05701
2931.55293	0.05722
2930.26716	0.05733
2928.98139	0.05744
2927.69562	0.05756
2926.40985	0.05756
2925.12408	0.05739
2923.83831	0.05707
2922.55254	0.05672
2921.26677	0.05640
2919.98101	0.05608
2918.69524	0.05569
2917.40947	0.05524
2916.12370	0.05482
2914.83793	0.05453
2913.55216	0.05440
2912.26639	0.05439
2910.98062	0.05437
2909.69486	0.05423
2908.40909	0.05393
2907.12332	0.05353
2905.83755	0.05312
2904.55178	0.05274
2903.26601	0.05235
2901.98024	0.05188
2900.69447	0.05138
2899.40870	0.05095
2898.12294	0.05065
2896.83717	0.05041
2895.55140	0.05012
2894.26563	0.04976
2892.97986	0.04937
2891.69409	0.04899
2890.40832	0.04857
2889.12255	0.04808
2887.83678	0.04760
2886.55102	0.04725
2885.26525	0.04707
2883.97948	0.04699
2882.69371	0.04698
2881.40794	0.04705
2880.12217	0.04720
2878.83640	0.04735
2877.55063	0.04753
2876.26487	0.04779
2874.97910	0.04808
2873.69333	0.04829
2872.40756	0.04833
2871.12179	0.04826
2869.83602	0.04822
2868.55025	0.04826
2867.26448	0.04833
2865.97871	0.04834
2864.69295	0.04825
2863.40718	0.04810
2862.12141	0.04792
2860.83564	0.04769
2859.54987	0.04742
2858.26410	0.04717
2856.97833	0.04702
2855.69256	0.04695
2854.40680	0.04689
2853.12103	0.04687
2851.83526	0.04690
2850.54949	0.04684
2849.26372	0.04655
2847.97795	0.04604
2846.69218	0.04552
2845.40641	0.04513
2844.12064	0.04478
2842.83488	0.04431
2841.54911	0.04374
2840.26334	0.04315
2838.97757	0.04260
2837.69180	0.04209
2836.40603	0.04163
2835.12026	0.04120
2833.83449	0.04081
2832.54873	0.04055
2831.26296	0.04045
2829.97719	0.04043
2828.69142	0.04032
2827.40565	0.04006
2826.11988	0.03979
2824.83411	0.03964
2823.54834	0.03963
2822.26257	0.03961
2820.97681	0.03948
2819.69104	0.03923
2818.40527	0.03894
2817.11950	0.03870
2815.83373	0.03852
2814.54796	0.03844
2813.26219	0.03847
2811.97642	0.03861
2810.69066	0.03877
2809.40489	0.03888
2808.11912	0.03893
2806.83335	0.03898
2805.54758	0.03898
2804.26181	0.03886
2802.97604	0.03855
2801.69027	0.03813
2800.40450	0.03777
2799.11874	0.03758
2797.83297	0.03754
2796.54720	0.03753
2795.26143	0.03747
2793.97566	0.03738
2792.68989	0.03729
2791.40412	0.03720
2790.11835	0.03705
2788.83259	0.03683
2787.54682	0.03659
2786.26105	0.03638
2784.97528	0.03624
2783.68951	0.03619
2782.40374	0.03618
2781.11797	0.03615
2779.83220	0.03607
2778.54643	0.03598
2777.26067	0.03593
2775.97490	0.03588
2774.68913	0.03574
2773.40336	0.03553
2772.11759	0.03533
2770.83182	0.03520
2769.54605	0.03516
2768.26028	0.03520
2766.97452	0.03530
2765.68875	0.03546
2764.40298	0.03560
2763.11721	0.03562
2761.83144	0.03552
2760.54567	0.03538
2759.25990	0.03530
2757.97413	0.03528
2756.68836	0.03525
2755.40260	0.03519
2754.11683	0.03510
2752.83106	0.03497
2751.54529	0.03476
2750.25952	0.03447
2748.97375	0.03424
2747.68798	0.03416
2746.40221	0.03423
2745.11645	0.03439
2743.83068	0.03452
2742.54491	0.03454
2741.25914	0.03444
2739.97337	0.03430
2738.68760	0.03420
2737.40183	0.03408
2736.11606	0.03384
2734.83029	0.03351
2733.54453	0.03331
2732.25876	0.03337
2730.97299	0.03359
2729.68722	0.03374
2728.40145	0.03372
2727.11568	0.03359
2725.82991	0.03345
2724.54414	0.03336
2723.25838	0.03332
2721.97261	0.03328
2720.68684	0.03319
2719.40107	0.03309
2718.11530	0.03311
2716.82953	0.03325
2715.54376	0.03339
2714.25799	0.03342
2712.97222	0.03336
2711.68646	0.03328
2710.40069	0.03319
2709.11492	0.03308
2707.82915	0.03292
2706.54338	0.03275
2705.25761	0.03264
2703.97184	0.03260
2702.68607	0.03262
2701.40031	0.03261
2700.11454	0.03253
2698.82877	0.03240
2697.54300	0.03229
2696.25723	0.03225
2694.97146	0.03231
2693.68569	0.03238
2692.39992	0.03234
2691.11415	0.03216
2689.82839	0.03192
2688.54262	0.03173
2687.25685	0.03162
2685.97108	0.03153
2684.68531	0.03140
2683.39954	0.03122
2682.11377	0.03103
2680.82800	0.03086
2679.54224	0.03075
2678.25647	0.03074
2676.97070	0.03079
2675.68493	0.03081
2674.39916	0.03083
2673.11339	0.03093
2671.82762	0.03120
2670.54185	0.03156
2669.25608	0.03180
2667.97032	0.03177
2666.68455	0.03149
2665.39878	0.03114
2664.11301	0.03086
2662.82724	0.03070
2661.54147	0.03062
2660.25570	0.03058
2658.96993	0.03056
2657.68417	0.03053
2656.39840	0.03048
2655.11263	0.03040
2653.82686	0.03028
2652.54109	0.03015
2651.25532	0.03006
2649.96955	0.03005
2648.68378	0.03011
2647.39801	0.03018
2646.11225	0.03016
2644.82648	0.02999
2643.54071	0.02971
2642.25494	0.02945
2640.96917	0.02933
2639.68340	0.02929
2638.39763	0.02923
2637.11186	0.02908
2635.82609	0.02891
2634.54033	0.02878
2633.25456	0.02870
2631.96879	0.02863
2630.68302	0.02849
2629.39725	0.02824
2628.11148	0.02793
2626.82571	0.02765
2625.53994	0.02748
2624.25418	0.02739
2622.96841	0.02736
2621.68264	0.02733
2620.39687	0.02722
2619.11110	0.02706
2617.82533	0.02694
2616.53956	0.02688
2615.25379	0.02674
2613.96802	0.02638
2612.68226	0.02591
2611.39649	0.02561
2610.11072	0.02563
2608.82495	0.02590
2607.53918	0.02619
2606.25341	0.02629
2604.96764	0.02615
2603.68187	0.02578
2602.39611	0.02521
2601.11034	0.02463
2599.82457	0.02432
2598.53880	0.02450
2597.25303	0.02504
2595.96726	0.02558
2594.68149	0.02579
2593.39572	0.02560
2592.10995	0.02522
2590.82419	0.02488
2589.53842	0.02472
2588.25265	0.02466
2586.96688	0.02466
2585.68111	0.02475
2584.39534	0.02500
2583.10957	0.02535
2581.82380	0.02562
2580.53804	0.02571
2579.25227	0.02561
2577.96650	0.02536
2576.68073	0.02502
2575.39496	0.02463
2574.10919	0.02427
2572.82342	0.02400
2571.53765	0.02381
2570.25188	0.02371
2568.96612	0.02376
2567.68035	0.02399
2566.39458	0.02432
2565.10881	0.02453
2563.82304	0.02454
2562.53727	0.02443
2561.25150	0.02429
2559.96573	0.02404
2558.67997	0.02362
2557.39420	0.02313
2556.10843	0.02280
2554.82266	0.02271
2553.53689	0.02281
2552.25112	0.02305
2550.96535	0.02343
2549.67958	0.02380
2548.39381	0.02392
2547.10805	0.02370
2545.82228	0.02335
2544.53651	0.02313
2543.25074	0.02302
2541.96497	0.02287
2540.67920	0.02269
2539.39343	0.02263
2538.10766	0.02267
2536.82190	0.02265
2535.53613	0.02243
2534.25036	0.02215
2532.96459	0.02204
2531.67882	0.02220
2530.39305	0.02252
2529.10728	0.02283
2527.82151	0.02299
2526.53574	0.02298
2525.24998	0.02292
2523.96421	0.02295
2522.67844	0.02306
2521.39267	0.02315
2520.10690	0.02312
2518.82113	0.02297
2517.53536	0.02269
2516.24959	0.02238
2514.96383	0.02224
2513.67806	0.02241
2512.39229	0.02279
2511.10652	0.02311
2509.82075	0.02320
2508.53498	0.02306
2507.24921	0.02277
2505.96344	0.02241
2504.67767	0.02207
2503.39191	0.02186
2502.10614	0.02181
2500.82037	0.02186
2499.53460	0.02190
2498.24883	0.02187
2496.96306	0.02164
2495.67729	0.02112
2494.39152	0.02043
2493.10576	0.01991
2491.81999	0.01981
2490.53422	0.02010
2489.24845	0.02053
2487.96268	0.02096
2486.67691	0.02134
2485.39114	0.02156
2484.10537	0.02151
2482.81960	0.02135
2481.53384	0.02137
2480.24807	0.02169
2478.96230	0.02206
2477.67653	0.02215
2476.39076	0.02195
2475.10499	0.02164
2473.81922	0.02130
2472.53345	0.02089
2471.24769	0.02046
2469.96192	0.02020
2468.67615	0.02032
2467.39038	0.02076
2466.10461	0.02131
2464.81884	0.02174
2463.53307	0.02199
2462.24730	0.02213
2460.96153	0.02222
2459.67577	0.02222
2458.39000	0.02204
2457.10423	0.02174
2455.81846	0.02147
2454.53269	0.02135
2453.24692	0.02142
2451.96115	0.02163
2450.67538	0.02181
2449.38962	0.02168
2448.10385	0.02115
2446.81808	0.02048
2445.53231	0.02003
2444.24654	0.01998
2442.96077	0.02023
2441.67500	0.02054
2440.38923	0.02072
2439.10346	0.02069
2437.81770	0.02048
2436.53193	0.02025
2435.24616	0.02021
2433.96039	0.02048
2432.67462	0.02093
2431.38885	0.02128
2430.10308	0.02130
2428.81731	0.02098
2427.53155	0.02050
2426.24578	0.02011
2424.96001	0.01999
2423.67424	0.02008
2422.38847	0.02016
2421.10270	0.02013
2419.81693	0.02013
2418.53116	0.02025
2417.24539	0.02038
2415.95963	0.02041
2414.67386	0.02042
2413.38809	0.02050
2412.10232	0.02059
2410.81655	0.02055
2409.53078	0.02041
2408.24501	0.02029
2406.95924	0.02027
2405.67347	0.02026
2404.38771	0.02019
2403.10194	0.02006
2401.81617	0.02001
2400.53040	0.02010
2399.24463	0.02010
2397.95886	0.02002
2396.67309	0.01987
2395.38732	0.01973
2394.10156	0.01966
2392.81579	0.01968
2391.53002	0.01978
2390.24425	0.01991
2388.95848	0.02005
2387.67271	0.02013
2386.38694	0.02008
2385.10117	0.01989
2383.81540	0.01962
2382.52964	0.01940
2381.24387	0.01935
2379.95810	0.01954
2378.67233	0.01986
2377.38656	0.02010
2376.10079	0.02029
2374.81502	0.02032
2373.52925	0.01989
2372.24349	0.01889
2370.95772	0.01739
2369.67195	0.01604
2368.38618	0.01513
2367.10041	0.01441
2365.81464	0.01406
2364.52887	0.01450
2363.24310	0.01525
2361.95733	0.01554
2360.67157	0.01548
2359.38580	0.01579
2358.10003	0.01637
2356.81426	0.01694
2355.52849	0.01753
2354.24272	0.01802
2352.95695	0.01845
2351.67118	0.01837
2350.38542	0.01742
2349.09965	0.01680
2347.81388	0.01770
2346.52811	0.01899
2345.24234	0.01911
2343.95657	0.01847
2342.67080	0.01834
2341.38503	0.01881
2340.09926	0.01936
2338.81350	0.01982
2337.52773	0.01984
2336.24196	0.01948
2334.95619	0.01874
2333.67042	0.01793
2332.38465	0.01767
2331.09888	0.01775
2329.81311	0.01786
2328.52735	0.01823
2327.24158	0.01866
2325.95581	0.01909
2324.67004	0.01967
2323.38427	0.01994
2322.09850	0.01975
2320.81273	0.01945
2319.52696	0.01903
2318.24119	0.01848
2316.95543	0.01808
2315.66966	0.01802
2314.38389	0.01828
2313.09812	0.01866
2311.81235	0.01903
2310.52658	0.01930
2309.24081	0.01946
2307.95504	0.01959
2306.66928	0.01968
2305.38351	0.01965
2304.09774	0.01961
2302.81197	0.01970
2301.52620	0.01995
2300.24043	0.02021
2298.95466	0.02035
2297.66889	0.02030
2296.38312	0.02011
2295.09736	0.01994
2293.81159	0.01985
2292.52582	0.01979
2291.24005	0.01966
2289.95428	0.01946
2288.66851	0.01932
2287.38274	0.01933
2286.09697	0.01949
2284.81121	0.01960
2283.52544	0.01947
2282.23967	0.01899
2280.95390	0.01822
2279.66813	0.01736
2278.38236	0.01665
2277.09659	0.01621
2275.81082	0.01606
2274.52505	0.01622
2273.23929	0.01670
2271.95352	0.01733
2270.66775	0.01772
2269.38198	0.01755
2268.09621	0.01693
2266.81044	0.01637
2265.52467	0.01638
2264.23890	0.01704
2262.95314	0.01794
2261.66737	0.01857
2260.38160	0.01868
2259.09583	0.01841
2257.81006	0.01801
2256.52429	0.01753
2255.23852	0.01675
2253.95275	0.01563
2252.66698	0.01458
2251.38122	0.01422
2250.09545	0.01472
2248.80968	0.01566
2247.52391	0.01648
2246.23814	0.01693
2244.95237	0.01708
2243.66660	0.01694
2242.38083	0.01644
2241.09507	0.01575
2239.80930	0.01530
2238.52353	0.01533
2237.23776	0.01557
2235.95199	0.01543
2234.66622	0.01455
2233.38045	0.01311
2232.09468	0.01163
2230.80891	0.01062
2229.52315	0.01025
2228.23738	0.01047
2226.95161	0.01116
2225.66584	0.01223
2224.38007	0.01349
2223.09430	0.01458
2221.80853	0.01501
2220.52276	0.01457
2219.23700	0.01350
2217.95123	0.01241
2216.66546	0.01183
2215.37969	0.01193
2214.09392	0.01232
2212.80815	0.01244
2211.52238	0.01200
2210.23661	0.01112
2208.95084	0.01013
2207.66508	0.00942
2206.37931	0.00930
2205.09354	0.00983
2203.80777	0.01056
2202.52200	0.01099
2201.23623	0.01107
2199.95046	0.01109
2198.66469	0.01122
2197.37893	0.01130
2196.09316	0.01120
2194.80739	0.01099
2193.52162	0.01076
2192.23585	0.01048
2190.95008	0.01016
2189.66431	0.00998
2188.37854	0.01024
2187.09277	0.01098
2185.80701	0.01188
2184.52124	0.01232
2183.23547	0.01189
2181.94970	0.01070
2180.66393	0.00933
2179.37816	0.00842
2178.09239	0.00812
2176.80662	0.00807
2175.52085	0.00807
2174.23509	0.00842
2172.94932	0.00937
2171.66355	0.01049
2170.37778	0.01109
2169.09201	0.01092
2167.80624	0.01030
2166.52047	0.00944
2165.23470	0.00828
2163.94894	0.00672
2162.66317	0.00489
2161.37740	0.00304
2160.09163	0.00163
2158.80586	0.00128
2157.52009	0.00200
2156.23432	0.00296
2154.94855	0.00339
2153.66278	0.00346
2152.37702	0.00390
2151.09125	0.00504
2149.80548	0.00649
2148.51971	0.00747
2147.23394	0.00739
2145.94817	0.00619
2144.66240	0.00454
2143.37663	0.00350
2142.09087	0.00369
2140.80510	0.00477
2139.51933	0.00595
2138.23356	0.00681
2136.94779	0.00746
2135.66202	0.00803
2134.37625	0.00849
2133.09048	0.00886
2131.80471	0.00922
2130.51895	0.00951
2129.23318	0.00959
2127.94741	0.00944
2126.66164	0.00925
2125.37587	0.00917
2124.09010	0.00917
2122.80433	0.00918
2121.51856	0.00920
2120.23280	0.00934
2118.94703	0.00964
2117.66126	0.01008
2116.37549	0.01045
2115.08972	0.01057
2113.80395	0.01046
2112.51818	0.01041
2111.23241	0.01063
2109.94664	0.01085
2108.66088	0.01063
2107.37511	0.00990
2106.08934	0.00915
2104.80357	0.00891
2103.51780	0.00920
2102.23203	0.00971
2100.94626	0.01016
2099.66049	0.01090
2098.37473	0.01093
2097.08896	0.01026
2095.80319	0.00936
2094.51742	0.00869
2093.23165	0.00861
2091.94588	0.00913
2090.66011	0.00987
2089.37434	0.01038
2088.08857	0.01043
2086.80281	0.01010
2085.51704	0.00970
2084.23127	0.00953
2082.94550	0.00976
2081.65973	0.01021
2080.37396	0.01047
2079.08819	0.01018
2077.80242	0.00931
2076.51666	0.00819
2075.23089	0.00732
2073.94512	0.00696
2072.65935	0.00694
2071.37358	0.00682
2070.08781	0.00636
2068.80204	0.00579
2067.51627	0.00552
2066.23050	0.00564
2064.94474	0.00579
2063.65897	0.00573
2062.37320	0.00564
2061.08743	0.00586
2059.80166	0.00640
2058.51589	0.00698
2057.23012	0.00740
2055.94435	0.00773
2054.65859	0.00807
2053.37282	0.00832
2052.08705	0.00825
2050.80128	0.00762
2049.51551	0.00644
2048.22974	0.00510
2046.94397	0.00423
2045.65820	0.00402
2044.37243	0.00409
2043.08667	0.00390
2041.80090	0.00338
2040.51513	0.00293
2039.22936	0.00290
2037.94359	0.00326
2036.65782	0.00361
2035.37205	0.00354
2034.08628	0.00301
2032.80052	0.00239
2031.51475	0.00203
2030.22898	0.00196
2028.94321	0.00199
2027.65744	0.00201
2026.37167	0.00199
2025.08590	0.00173
2023.80013	0.00106
2022.51436	0.00024
2021.22860	0.00007
2019.94283	0.00109
2018.65706	0.00296
2017.37129	0.00465
2016.08552	0.00555
2014.79975	0.00596
2013.51398	0.00648
2012.22821	0.00714
2010.94245	0.00738
2009.65668	0.00686
2008.37091	0.00596
2007.08514	0.00527
2005.79937	0.00500
2004.51360	0.00502
2003.22783	0.00527
2001.94206	0.00577
2000.65629	0.00640
1999.37053	0.00697
1998.08476	0.00742
1996.79899	0.00775
1995.51322	0.00789
1994.22745	0.00780
1992.94168	0.00771
1991.65591	0.00793
1990.37014	0.00840
1989.08438	0.00875
1987.79861	0.00871
1986.51284	0.00833
1985.22707	0.00776
1983.94130	0.00719
1982.65553	0.00688
1981.36976	0.00704
1980.08399	0.00757
1978.79822	0.00815
1977.51246	0.00851
1976.22669	0.00855
1974.94092	0.00830
1973.65515	0.00800
1972.36938	0.00794
1971.08361	0.00820
1969.79784	0.00846
1968.51207	0.00829
1967.22631	0.00771
1965.94054	0.00705
1964.65477	0.00662
1963.36900	0.00638
1962.08323	0.00619
1960.79746	0.00611
1959.51169	0.00637
1958.22592	0.00714
1956.94015	0.00820
1955.65439	0.00914
1954.36862	0.00963
1953.08285	0.00967
1951.79708	0.00947
1950.51131	0.00928
1949.22554	0.00926
1947.93977	0.00943
1946.65400	0.00968
1945.36823	0.00985
1944.08247	0.00981
1942.79670	0.00959
1941.51093	0.00930
1940.22516	0.00914
1938.93939	0.00936
1937.65362	0.01009
1936.36785	0.01117
1935.08208	0.01214
1933.79632	0.01265
1932.51055	0.01269
1931.22478	0.01250
1929.93901	0.01219
1928.65324	0.01176
1927.36747	0.01120
1926.08170	0.01068
1924.79593	0.01035
1923.51016	0.01031
1922.22440	0.01059
1920.93863	0.01107
1919.65286	0.01156
1918.36709	0.01200
1917.08132	0.01236
1915.79555	0.01256
1914.50978	0.01253
1913.22401	0.01228
1911.93825	0.01189
1910.65248	0.01144
1909.36671	0.01108
1908.08094	0.01102
1906.79517	0.01131
1905.50940	0.01179
1904.22363	0.01216
1902.93786	0.01222
1901.65209	0.01196
1900.36633	0.01158
1899.08056	0.01131
1897.79479	0.01124
1896.50902	0.01131
1895.22325	0.01137
1893.93748	0.01125
1892.65171	0.01090
1891.36594	0.01049
1890.08018	0.01035
1888.79441	0.01061
1887.50864	0.01108
1886.22287	0.01148
1884.93710	0.01172
1883.65133	0.01185
1882.36556	0.01193
1881.07979	0.01194
1879.79402	0.01195
1878.50826	0.01203
1877.22249	0.01215
1875.93672	0.01222
1874.65095	0.01216
1873.36518	0.01206
1872.07941	0.01198
1870.79364	0.01195
1869.50787	0.01197
1868.22211	0.01205
1866.93634	0.01210
1865.65057	0.01208
1864.36480	0.01201
1863.07903	0.01196
1861.79326	0.01194
1860.50749	0.01190
1859.22172	0.01184
1857.93595	0.01180
1856.65019	0.01179
1855.36442	0.01182
1854.07865	0.01190
1852.79288	0.01203
1851.50711	0.01220
1850.22134	0.01234
1848.93557	0.01241
1847.64980	0.01235
1846.36404	0.01210
1845.07827	0.01174
1843.79250	0.01153
1842.50673	0.01158
1841.22096	0.01173
1839.93519	0.01180
1838.64942	0.01182
1837.36365	0.01187
1836.07788	0.01198
1834.79212	0.01215
1833.50635	0.01232
1832.22058	0.01236
1830.93481	0.01228
1829.64904	0.01226
1828.36327	0.01238
1827.07750	0.01249
1825.79173	0.01257
1824.50597	0.01269
1823.22020	0.01285
1821.93443	0.01289
1820.64866	0.01277
1819.36289	0.01261
1818.07712	0.01251
1816.79135	0.01252
1815.50558	0.01265
1814.21981	0.01283
1812.93405	0.01294
1811.64828	0.01293
1810.36251	0.01283
1809.07674	0.01268
1807.79097	0.01253
1806.50520	0.01242
1805.21943	0.01238
1803.93366	0.01238
1802.64790	0.01240
1801.36213	0.01241
1800.07636	0.01246
1798.79059	0.01258
1797.50482	0.01280
1796.21905	0.01308
1794.93328	0.01326
1793.64751	0.01322
1792.36174	0.01310
1791.07598	0.01306
1789.79021	0.01312
1788.50444	0.01320
1787.21867	0.01326
1785.93290	0.01329
1784.64713	0.01334
1783.36136	0.01342
1782.07559	0.01353
1780.78983	0.01370
1779.50406	0.01395
1778.21829	0.01420
1776.93252	0.01434
1775.64675	0.01429
1774.36098	0.01405
1773.07521	0.01382
1771.78944	0.01386
1770.50367	0.01401
1769.21791	0.01396
1767.93214	0.01378
1766.64637	0.01372
1765.36060	0.01376
1764.07483	0.01371
1762.78906	0.01361
1761.50329	0.01370
1760.21752	0.01399
1758.93176	0.01419
1757.64599	0.01422
1756.36022	0.01428
1755.07445	0.01448
1753.78868	0.01463
1752.50291	0.01463
1751.21714	0.01468
1749.93137	0.01490
1748.64560	0.01515
1747.35984	0.01526
1746.07407	0.01527
1744.78830	0.01525
1743.50253	0.01524
1742.21676	0.01519
1740.93099	0.01512
1739.64522	0.01526
1738.35945	0.01573
1737.07369	0.01616
1735.78792	0.01618
1734.50215	0.01601
1733.21638	0.01611
1731.93061	0.01640
1730.64484	0.01648
1729.35907	0.01633
1728.07330	0.01623
1726.78753	0.01627
1725.50177	0.01634
1724.21600	0.01647
1722.93023	0.01678
1721.64446	0.01724
1720.35869	0.01760
1719.07292	0.01771
1717.78715	0.01780
1716.50138	0.01810
1715.21561	0.01846
1713.92985	0.01871
1712.64408	0.01887
1711.35831	0.01907
1710.07254	0.01934
1708.78677	0.01963
1707.50100	0.01988
1706.21523	0.02023
1704.92946	0.02088
1703.64370	0.02167
1702.35793	0.02215
1701.07216	0.02241
1699.78639	0.02295
1698.50062	0.02359
1697.21485	0.02373
1695.92908	0.02352
1694.64331	0.02364
1693.35754	0.02401
1692.07178	0.02413
1690.78601	0.02412
1689.50024	0.02444
1688.21447	0.02508
1686.92870	0.02558
1685.64293	0.02576
1684.35716	0.02604
1683.07139	0.02667
1681.78563	0.02724
1680.49986	0.02747
1679.21409	0.02763
1677.92832	0.02785
1676.64255	0.02804
1675.35678	0.02831
1674.07101	0.02880
1672.78524	0.02929
1671.49947	0.02953
1670.21371	0.02960
1668.92794	0.02980
1667.64217	0.03019
1666.35640	0.03060
1665.07063	0.03085
1663.78486	0.03101
1662.49909	0.03128
1661.21332	0.03166
1659.92756	0.03207
1658.64179	0.03253
1657.35602	0.03310
1656.07025	0.03349
1654.78448	0.03339
1653.49871	0.03321
1652.21294	0.03364
1650.92717	0.03445
1649.64140	0.03479
1648.35564	0.03443
1647.06987	0.03399
1645.78410	0.03396
1644.49833	0.03422
1643.21256	0.03443
1641.92679	0.03452
1640.64102	0.03465
1639.35525	0.03489
1638.06949	0.03501
1636.78372	0.03492
1635.49795	0.03492
1634.21218	0.03521
1632.92641	0.03559
1631.64064	0.03575
1630.35487	0.03571
1629.06910	0.03567
1627.78333	0.03573
1626.49757	0.03584
1625.21180	0.03590
1623.92603	0.03596
1622.64026	0.03619
1621.35449	0.03663
1620.06872	0.03700
1618.78295	0.03706
1617.49718	0.03702
1616.21142	0.03729
1614.92565	0.03783
1613.63988	0.03824
1612.35411	0.03837
1611.06834	0.03847
1609.78257	0.03871
1608.49680	0.03905
1607.21103	0.03938
1605.92526	0.03964
1604.63950	0.03982
1603.35373	0.03994
1602.06796	0.04002
1600.78219	0.04008
1599.49642	0.04013
1598.21065	0.04024
1596.92488	0.04044
1595.63911	0.04070
1594.35335	0.04098
1593.06758	0.04123
1591.78181	0.04143
1590.49604	0.04160
1589.21027	0.04179
1587.92450	0.04198
1586.63873	0.04215
1585.35296	0.04225
1584.06719	0.04230
1582.78143	0.04234
1581.49566	0.04247
1580.20989	0.04275
1578.92412	0.04296
1577.63835	0.04294
1576.35258	0.04292
1575.06681	0.04323
1573.78104	0.04365
1572.49528	0.04375
1571.20951	0.04352
1569.92374	0.04334
1568.63797	0.04342
1567.35220	0.04358
1566.06643	0.04365
1564.78066	0.04379
1563.49489	0.04414
1562.20912	0.04442
1560.92336	0.04437
1559.63759	0.04425
1558.35182	0.04452
1557.06605	0.04495
1555.78028	0.04498
1554.49451	0.04462
1553.20874	0.04432
1551.92297	0.04420
1550.63721	0.04414
1549.35144	0.04410
1548.06567	0.04412
1546.77990	0.04413
1545.49413	0.04412
1544.20836	0.04413
1542.92259	0.04402
1541.63682	0.04360
1540.35105	0.04301
1539.06529	0.04266
1537.77952	0.04260
1536.49375	0.04243
1535.20798	0.04194
1533.92221	0.04143
1532.63644	0.04128
1531.35067	0.04137
1530.06490	0.04144
1528.77914	0.04144
1527.49337	0.04153
1526.20760	0.04187
1524.92183	0.04239
1523.63606	0.04284
1522.35029	0.04317
1521.06452	0.04367
1519.77875	0.04444
1518.49298	0.04517
1517.20722	0.04571
1515.92145	0.04627
1514.63568	0.04696
1513.34991	0.04771
1512.06414	0.04864
1510.77837	0.04979
1509.49260	0.05095
1508.20683	0.05186
1506.92107	0.05270
1505.63530	0.05379
1504.34953	0.05498
1503.06376	0.05587
1501.77799	0.05641
1500.49222	0.05690
1499.20645	0.05751
1497.92068	0.05812
1496.63491	0.05870
1495.34915	0.05935
1494.06338	0.06000
1492.77761	0.06050
1491.49184	0.06089
1490.20607	0.06141
1488.92030	0.06211
1487.63453	0.06288
1486.34876	0.06366
1485.06299	0.06449
1483.77723	0.06539
1482.49146	0.06634
1481.20569	0.06738
1479.91992	0.06848
1478.63415	0.06959
1477.34838	0.07067
1476.06261	0.07171
1474.77684	0.07264
1473.49108	0.07348
1472.20531	0.07431
1470.91954	0.07515
1469.63377	0.07580
1468.34800	0.07613
1467.06223	0.07620
1465.77646	0.07622
1464.49069	0.07643
1463.20492	0.07691
1461.91916	0.07757
1460.63339	0.07820
1459.34762	0.07864
1458.06185	0.07891
1456.77608	0.07931
1455.49031	0.07991
1454.20454	0.08036
1452.91877	0.08042
1451.63301	0.08027
1450.34724	0.08011
1449.06147	0.07996
1447.77570	0.07975
1446.48993	0.07948
1445.20416	0.07913
1443.91839	0.07866
1442.63262	0.07815
1441.34685	0.07767
1440.06109	0.07717
1438.77532	0.07659
1437.48955	0.07608
1436.20378	0.07599
1434.91801	0.07636
1433.63224	0.07689
1432.34647	0.07740
1431.06070	0.07804
1429.77494	0.07898
1428.48917	0.08020
1427.20340	0.08156
1425.91763	0.08294
1424.63186	0.08436
1423.34609	0.08586
1422.06032	0.08729
1420.77455	0.08846
1419.48878	0.08950
1418.20302	0.09056
1416.91725	0.09151
1415.63148	0.09209
1414.34571	0.09225
1413.05994	0.09210
1411.77417	0.09177
1410.48840	0.09132
1409.20263	0.09078
1407.91687	0.09003
1406.63110	0.08897
1405.34533	0.08761
1404.05956	0.08605
1402.77379	0.08436
1401.48802	0.08251
1400.20225	0.08053
1398.91648	0.07856
1397.63071	0.07662
1396.34495	0.07462
1395.05918	0.07256
1393.77341	0.07061
1392.48764	0.06883
1391.20187	0.06710
1389.91610	0.06530
1388.63033	0.06344
1387.34456	0.06166
1386.05880	0.06002
1384.77303	0.05844
1383.48726	0.05686
1382.20149	0.05528
1380.91572	0.05374
1379.62995	0.05220
1378.34418	0.05066
1377.05841	0.04909
1375.77264	0.04746
1374.48688	0.04580
1373.20111	0.04419
1371.91534	0.04268
1370.62957	0.04126
1369.34380	0.03995
1368.05803	0.03878
1366.77226	0.03774
1365.48649	0.03671
1364.20073	0.03568
1362.91496	0.03467
1361.62919	0.03376
1360.34342	0.03298
1359.05765	0.03228
1357.77188	0.03163
1356.48611	0.03102
1355.20034	0.03044
1353.91457	0.02988
1352.62881	0.02934
1351.34304	0.02880
1350.05727	0.02829
1348.77150	0.02780
1347.48573	0.02734
1346.19996	0.02690
1344.91419	0.02651
1343.62842	0.02617
1342.34266	0.02586
1341.05689	0.02556
1339.77112	0.02527
1338.48535	0.02499
1337.19958	0.02466
1335.91381	0.02427
1334.62804	0.02383
1333.34227	0.02339
1332.05650	0.02301
1330.77074	0.02271
1329.48497	0.02252
1328.19920	0.02241
1326.91343	0.02235
1325.62766	0.02227
1324.34189	0.02216
1323.05612	0.02201
1321.77035	0.02184
1320.48459	0.02164
1319.19882	0.02143
1317.91305	0.02125
1316.62728	0.02109
1315.34151	0.02093
1314.05574	0.02075
1312.76997	0.02053
1311.48420	0.02029
1310.19843	0.02009
1308.91267	0.01994
1307.62690	0.01985
1306.34113	0.01978
1305.05536	0.01968
1303.76959	0.01951
1302.48382	0.01930
1301.19805	0.01908
1299.91228	0.01891
1298.62652	0.01878
1297.34075	0.01868
1296.05498	0.01860
1294.76921	0.01851
1293.48344	0.01842
1292.19767	0.01834
1290.91190	0.01827
1289.62613	0.01822
1288.34036	0.01818
1287.05460	0.01815
1285.76883	0.01813
1284.48306	0.01808
1283.19729	0.01801
1281.91152	0.01790
1280.62575	0.01778
1279.33998	0.01765
1278.05421	0.01753
1276.76845	0.01742
1275.48268	0.01730
1274.19691	0.01719
1272.91114	0.01710
1271.62537	0.01705
1270.33960	0.01705
1269.05383	0.01709
1267.76806	0.01712
1266.48229	0.01712
1265.19653	0.01707
1263.91076	0.01701
1262.62499	0.01693
1261.33922	0.01682
1260.05345	0.01669
1258.76768	0.01658
1257.48191	0.01648
1256.19614	0.01640
1254.91037	0.01634
1253.62461	0.01626
1252.33884	0.01619
1251.05307	0.01613
1249.76730	0.01609
1248.48153	0.01609
1247.19576	0.01613
1245.90999	0.01617
1244.62422	0.01617
1243.33846	0.01611
1242.05269	0.01601
1240.76692	0.01593
1239.48115	0.01591
1238.19538	0.01593
1236.90961	0.01596
1235.62384	0.01595
1234.33807	0.01590
1233.05230	0.01582
1231.76654	0.01575
1230.48077	0.01568
1229.19500	0.01560
1227.90923	0.01553
1226.62346	0.01548
1225.33769	0.01545
1224.05192	0.01544
1222.76615	0.01545
1221.48039	0.01548
1220.19462	0.01551
1218.90885	0.01552
1217.62308	0.01551
1216.33731	0.01550
1215.05154	0.01551
1213.76577	0.01551
1212.48000	0.01548
1211.19423	0.01543
1209.90847	0.01540
1208.62270	0.01538
1207.33693	0.01539
1206.05116	0.01543
1204.76539	0.01549
1203.47962	0.01556
1202.19385	0.01562
1200.90808	0.01559
1199.62232	0.01547
1198.33655	0.01541
1197.05078	0.01541
1195.76501	0.01550
1194.47924	0.01565
1193.19347	0.01577
1191.90770	0.01579
1190.62193	0.01574
1189.33616	0.01571
1188.05040	0.01577
1186.76463	0.01592
1185.47886	0.01607
1184.19309	0.01616
1182.90732	0.01617
1181.62155	0.01614
1180.33578	0.01612
1179.05001	0.01617
1177.76425	0.01630
1176.47848	0.01647
1175.19271	0.01662
1173.90694	0.01672
1172.62117	0.01682
1171.33540	0.01697
1170.04963	0.01722
1168.76386	0.01752
1167.47809	0.01779
1166.19233	0.01804
1164.90656	0.01829
1163.62079	0.01857
1162.33502	0.01887
1161.04925	0.01921
1159.76348	0.01958
1158.47771	0.01997
1157.19194	0.02036
1155.90618	0.02072
1154.62041	0.02109
1153.33464	0.02151
1152.04887	0.02198
1150.76310	0.02249
1149.47733	0.02308
1148.19156	0.02377
1146.90579	0.02459
1145.62002	0.02555
1144.33426	0.02662
1143.04849	0.02775
1141.76272	0.02885
1140.47695	0.02994
1139.19118	0.03108
1137.90541	0.03236
1136.61964	0.03379
1135.33387	0.03536
1134.04811	0.03706
1132.76234	0.03893
1131.47657	0.04097
1130.19080	0.04325
1128.90503	0.04583
1127.61926	0.04872
1126.33349	0.05192
1125.04772	0.05533
1123.76195	0.05887
1122.47619	0.06247
1121.19042	0.06613
1119.90465	0.06995
1118.61888	0.07396
1117.33311	0.07807
1116.04734	0.08213
1114.76157	0.08608
1113.47580	0.08990
1112.19004	0.09365
1110.90427	0.09734
1109.61850	0.10099
1108.33273	0.10459
1107.04696	0.10812
1105.76119	0.11156
1104.47542	0.11490
1103.18965	0.11815
1101.90388	0.12134
1100.61812	0.12450
1099.33235	0.12761
1098.04658	0.13066
1096.76081	0.13358
1095.47504	0.13630
1094.18927	0.13879
1092.90350	0.14111
1091.61773	0.14332
1090.33197	0.14541
1089.04620	0.14740
1087.76043	0.14932
1086.47466	0.15128
1085.18889	0.15331
1083.90312	0.15545
1082.61735	0.15767
1081.33158	0.16006
1080.04581	0.16270
1078.76005	0.16565
1077.47428	0.16888
1076.18851	0.17232
1074.90274	0.17591
1073.61697	0.17962
1072.33120	0.18342
1071.04543	0.18730
1069.75966	0.19129
1068.47390	0.19542
1067.18813	0.19971
1065.90236	0.20411
1064.61659	0.20855
1063.33082	0.21296
1062.04505	0.21730
1060.75928	0.22157
1059.47351	0.22581
1058.18774	0.23007
1056.90198	0.23440
1055.61621	0.23877
1054.33044	0.24315
1053.04467	0.24753
1051.75890	0.25201
1050.47313	0.25666
1049.18736	0.26152
1047.90159	0.26653
1046.61583	0.27165
1045.33006	0.27689
1044.04429	0.28230
1042.75852	0.28793
1041.47275	0.29378
1040.18698	0.29978
1038.90121	0.30583
1037.61544	0.31186
1036.32967	0.31778
1035.04391	0.32354
1033.75814	0.32905
1032.47237	0.33426
1031.18660	0.33906
1029.90083	0.34337
1028.61506	0.34714
1027.32929	0.35032
1026.04352	0.35288
1024.75775	0.35478
1023.47199	0.35603
1022.18622	0.35661
1020.90045	0.35648
1019.61468	0.35560
1018.32891	0.35389
1017.04314	0.35137
1015.75737	0.34810
1014.47160	0.34415
1013.18584	0.33950
1011.90007	0.33407
1010.61430	0.32779
1009.32853	0.32074
1008.04276	0.31301
1006.75699	0.30470
1005.47122	0.29583
1004.18545	0.28644
1002.89968	0.27664
1001.61392	0.26652
1000.32815	0.25610
999.04238	0.24538
997.75661	0.23439
996.47084	0.22327
995.18507	0.21223
993.89930	0.20146
992.61353	0.19105
991.32777	0.18100
990.04200	0.17136
988.75623	0.16226
987.47046	0.15382
986.18469	0.14604
984.89892	0.13886
983.61315	0.13214
982.32738	0.12585
981.04161	0.11999
979.75585	0.11465
978.47008	0.10989
977.18431	0.10578
975.89854	0.10229
974.61277	0.09939
973.32700	0.09706
972.04123	0.09532
970.75546	0.09424
969.46970	0.09388
968.18393	0.09427
966.89816	0.09532
965.61239	0.09681
964.32662	0.09845
963.04085	0.09984
961.75508	0.10064
960.46931	0.10058
959.18354	0.09954
957.89778	0.09758
956.61201	0.09493
955.32624	0.09186
954.04047	0.08862
952.75470	0.08538
951.46893	0.08222
950.18316	0.07919
948.89739	0.07631
947.61163	0.07356
946.32586	0.07093
945.04009	0.06841
943.75432	0.06604
942.46855	0.06387
941.18278	0.06194
939.89701	0.06020
938.61124	0.05858
937.32547	0.05707
936.03971	0.05567
934.75394	0.05441
933.46817	0.05325
932.18240	0.05214
930.89663	0.05107
929.61086	0.05006
928.32509	0.04917
927.03932	0.04847
925.75356	0.04792
924.46779	0.04742
923.18202	0.04688
921.89625	0.04630
920.61048	0.04573
919.32471	0.04523
918.03894	0.04477
916.75317	0.04432
915.46740	0.04384
914.18164	0.04338
912.89587	0.04299
911.61010	0.04268
910.32433	0.04240
909.03856	0.04208
907.75279	0.04169
906.46702	0.04130
905.18125	0.04100
903.89549	0.04078
902.60972	0.04054
901.32395	0.04025
900.03818	0.03996
898.75241	0.03977
897.46664	0.03968
896.18087	0.03960
894.89510	0.03950
893.60933	0.03943
892.32357	0.03942
891.03780	0.03949
889.75203	0.03968
888.46626	0.04009
887.18049	0.04084
885.89472	0.04206
884.60895	0.04389
883.32318	0.04639
882.03742	0.04932
880.75165	0.05213
879.46588	0.05427
878.18011	0.05564
876.89434	0.05668
875.60857	0.05788
874.32280	0.05924
873.03703	0.06027
871.75126	0.06043
870.46550	0.05958
869.17973	0.05799
867.89396	0.05604
866.60819	0.05397
865.32242	0.05188
864.03665	0.04983
862.75088	0.04791
861.46511	0.04617
860.17935	0.04469
858.89358	0.04351
857.60781	0.04263
856.32204	0.04191
855.03627	0.04122
853.75050	0.04047
852.46473	0.03972
851.17896	0.03908
849.89319	0.03860
848.60743	0.03826
847.32166	0.03800
846.03589	0.03777
844.75012	0.03754
843.46435	0.03730
842.17858	0.03708
840.89281	0.03689
839.60704	0.03675
838.32128	0.03664
837.03551	0.03656
835.74974	0.03649
834.46397	0.03644
833.17820	0.03639
831.89243	0.03628
830.60666	0.03611
829.32089	0.03590
828.03512	0.03575
826.74936	0.03570
825.46359	0.03572
824.17782	0.03572
822.89205	0.03569
821.60628	0.03565
820.32051	0.03565
819.03474	0.03570
817.74897	0.03577
816.46321	0.03582
815.17744	0.03579
813.89167	0.03564
812.60590	0.03542
811.32013	0.03521
810.03436	0.03510
808.74859	0.03510
807.46282	0.03515
806.17705	0.03520
804.89129	0.03523
803.60552	0.03523
802.31975	0.03518
801.03398	0.03514
799.74821	0.03515
798.46244	0.03525
797.17667	0.03541
795.89090	0.03555
794.60513	0.03563
793.31937	0.03566
792.03360	0.03568
790.74783	0.03569
789.46206	0.03566
788.17629	0.03558
786.89052	0.03548
785.60475	0.03540
784.31898	0.03534
783.03322	0.03528
781.74745	0.03520
780.46168	0.03512
779.17591	0.03510
777.89014	0.03518
776.60437	0.03530
775.31860	0.03539
774.03283	0.03540
772.74706	0.03538
771.46130	0.03540
770.17553	0.03548
768.88976	0.03555
767.60399	0.03558
766.31822	0.03554
765.03245	0.03549
763.74668	0.03544
762.46091	0.03542
761.17515	0.03547
759.88938	0.03561
758.60361	0.03583
757.31784	0.03598
756.03207	0.03593
754.74630	0.03574
753.46053	0.03558
752.17476	0.03557
750.88899	0.03564
749.60323	0.03567
748.31746	0.03562
747.03169	0.03554
745.74592	0.03547
744.46015	0.03539
743.17438	0.03525
741.88861	0.03511
740.60284	0.03507
739.31708	0.03515
738.03131	0.03522
736.74554	0.03515
735.45977	0.03497
734.17400	0.03484
732.88823	0.03487
731.60246	0.03504
730.31669	0.03525
729.03092	0.03542
727.74516	0.03552
726.45939	0.03553
725.17362	0.03548
723.88785	0.03540
722.60208	0.03532
721.31631	0.03532
720.03054	0.03531
718.74477	0.03529
717.45901	0.03535
716.17324	0.03547
714.88747	0.03555
713.60170	0.03555
712.31593	0.03551
711.03016	0.03547
709.74439	0.03544
708.45862	0.03542
707.17285	0.03539
705.88709	0.03535
704.60132	0.03530
703.31555	0.03528
702.02978	0.03528
700.74401	0.03528
699.45824	0.03526
698.17247	0.03519
696.88670	0.03508
695.60094	0.03497
694.31517	0.03489
693.02940	0.03486
691.74363	0.03487
690.45786	0.03488
689.17209	0.03486
687.88632	0.03478
686.60055	0.03467
685.31478	0.03454
684.02902	0.03443
682.74325	0.03436
681.45748	0.03431
680.17171	0.03430
678.88594	0.03430
677.60017	0.03437
676.31440	0.03451
675.02863	0.03466
673.74287	0.03465
672.45710	0.03429
671.17133	0.03385
669.88556	0.03425
668.59979	0.03558
667.31402	0.03580
666.02825	0.03510
664.74248	0.03511
663.45671	0.03545
662.17095	0.03552
660.88518	0.03537
659.59941	0.03517
658.31364	0.03502
657.02787	0.03492
655.74210	0.03486
654.45633	0.03485
653.17056	0.03490
651.88480	0.03502
650.59903	0.03524
649.31326	0.03556
648.02749	0.03593
646.74172	0.03628
645.45595	0.03655
644.17018	0.03674
642.88441	0.03694
641.59864	0.03722
640.31288	0.03759
639.02711	0.03801
637.74134	0.03842
636.45557	0.03883
635.16980	0.03929
633.88403	0.03986
632.59826	0.04057
631.31249	0.04153
630.02673	0.04275
628.74096	0.04367
627.45519	0.04357
626.16942	0.04477
624.88365	0.04691
623.59788	0.04934
622.31211	0.05196
621.02634	0.05454
619.74057	0.05681
618.45481	0.05876
617.16904	0.06072
615.88327	0.06328
614.59750	0.06702
613.31173	0.07209
612.02596	0.07815
610.74019	0.08489
609.45442	0.09229
608.16866	0.10012
606.88289	0.10768
605.59712	0.11417
604.31135	0.11901
603.02558	0.12177
601.73981	0.12220
600.45404	0.12045
599.16827	0.11710
597.88250	0.11298
596.59674	0.10880
595.31097	0.10490
594.02520	0.10135
592.73943	0.09827
591.45366	0.09590
590.16789	0.09443
588.88212	0.09392
587.59635	0.09426
586.31059	0.09529
585.02482	0.09685
583.73905	0.09885
582.45328	0.10134
581.16751	0.10441
579.88174	0.10807
578.59597	0.11216
577.31020	0.11632
576.02443	0.12025
574.73867	0.12393
573.45290	0.12756
572.16713	0.13142
570.88136	0.13569
569.59559	0.14049
568.30982	0.14585
567.02405	0.15169
565.73828	0.15765
564.45251	0.16301
563.16675	0.16688
561.88098	0.16859
560.59521	0.16779
559.30944	0.16445
558.02367	0.15874
556.73790	0.15111
555.45213	0.14225
554.16636	0.13297
552.88060	0.12399
551.59483	0.11572
550.30906	0.10828
549.02329	0.10160
547.73752	0.09549
546.45175	0.08979
545.16598	0.08448
543.88021	0.07970
542.59444	0.07563
541.30868	0.07228
540.02291	0.06945
538.73714	0.06686
537.45137	0.06438
536.16560	0.06204
534.87983	0.05997
533.59406	0.05818
532.30829	0.05658
531.02253	0.05504
529.73676	0.05346
528.45099	0.05185
527.16522	0.05027
525.87945	0.04880
524.59368	0.04752
523.30791	0.04644
522.02214	0.04551
520.73637	0.04472
519.45061	0.04399
518.16484	0.04325
516.87907	0.04244
515.59330	0.04158
514.30753	0.04074
513.02176	0.03994
511.73599	0.03918
510.45022	0.03843
509.16446	0.03771
507.87869	0.03710
506.59292	0.03662
505.30715	0.03624
504.02138	0.03586
502.73561	0.03543
501.44984	0.03499
500.16407	0.03457
498.87830	0.03423
497.59254	0.03394
496.30677	0.03367
495.02100	0.03337
493.73523	0.03307
492.44946	0.03284
491.16369	0.03270
489.87792	0.03258
488.59215	0.03240
487.30639	0.03215
486.02062	0.03193
484.73485	0.03180
483.44908	0.03181
482.16331	0.03192
480.87754	0.03210
479.59177	0.03232
478.30600	0.03254
477.02023	0.03273
475.73447	0.03287
474.44870	0.03301
473.16293	0.03321
471.87716	0.03341
470.59139	0.03350
469.30562	0.03342
468.01985	0.03321
466.73408	0.03298
465.44832	0.03273
464.16255	0.03239
462.87678	0.03196
461.59101	0.03154
460.30524	0.03122
459.01947	0.03099
457.73370	0.03077
456.44793	0.03048
455.16216	0.03011
453.87640	0.02972
452.59063	0.02937
451.30486	0.02905
450.01909	0.02875
448.73332	0.02850
447.44755	0.02834
446.16178	0.02826
444.87601	0.02822
443.59025	0.02817
442.30448	0.02813
441.01871	0.02812
439.73294	0.02812
438.44717	0.02808
437.16140	0.02798
435.87563	0.02781
434.58986	0.02763
433.30409	0.02748
432.01833	0.02744
430.73256	0.02754
429.44679	0.02770
428.16102	0.02781
426.87525	0.02782
425.58948	0.02773
424.30371	0.02760
423.01794	0.02748
421.73218	0.02736
420.44641	0.02722
419.16064	0.02712
417.87487	0.02708
416.58910	0.02707
415.30333	0.02702
414.01756	0.02698
412.73179	0.02698
411.44602	0.02702
410.16026	0.02707
408.87449	0.02712
407.58872	0.02718
406.30295	0.02726
405.01718	0.02737
403.73141	0.02754
402.44564	0.02776
401.15987	0.02798
399.87411	0.02814
