3997.45528	0.01169
3996.16951	0.01123
3994.88374	0.01105
3993.59798	0.01127
3992.31221	0.01183
3991.02644	0.01254
3989.74067	0.01321
3988.45490	0.01368
3987.16913	0.01392
3985.88336	0.01387
3984.59759	0.01341
3983.31183	0.01259
3982.02606	0.01169
3980.74029	0.01114
3979.45452	0.01116
3978.16875	0.01165
3976.88298	0.01229
3975.59721	0.01280
3974.31144	0.01305
3973.02567	0.01313
3971.73991	0.01318
3970.45414	0.01324
3969.16837	0.01333
3967.88260	0.01343
3966.59683	0.01350
3965.31106	0.01347
3964.02529	0.01321
3962.73952	0.01271
3961.45376	0.01211
3960.16799	0.01162
3958.88222	0.01137
3957.59645	0.01138
3956.31068	0.01161
3955.02491	0.01196
3953.73914	0.01225
3952.45337	0.01240
3951.16760	0.01241
3949.88184	0.01231
3948.59607	0.01204
3947.31030	0.01152
3946.02453	0.01078
3944.73876	0.01000
3943.45299	0.00935
3942.16722	0.00899
3940.88145	0.00893
3939.59569	0.00911
3938.30992	0.00937
3937.02415	0.00957
3935.73838	0.00971
3934.45261	0.00983
3933.16684	0.00998
3931.88107	0.01013
3930.59530	0.01026
3929.30953	0.01043
3928.02377	0.01070
3926.73800	0.01102
3925.45223	0.01117
3924.16646	0.01105
3922.88069	0.01078
3921.59492	0.01056
3920.30915	0.01044
3919.02338	0.01038
3917.73762	0.01031
3916.45185	0.01027
3915.16608	0.01026
3913.88031	0.01027
3912.59454	0.01031
3911.30877	0.01039
3910.02300	0.01055
3908.73723	0.01081
3907.45146	0.01114
3906.16570	0.01151
3904.87993	0.01179
3903.59416	0.01190
3902.30839	0.01181
3901.02262	0.01161
3899.73685	0.01137
3898.45108	0.01112
3897.16531	0.01087
3895.87955	0.01069
3894.59378	0.01068
3893.30801	0.01077
3892.02224	0.01080
3890.73647	0.01067
3889.45070	0.01039
3888.16493	0.01009
3886.87916	0.00998
3885.59339	0.01023
3884.30763	0.01084
3883.02186	0.01152
3881.73609	0.01185
3880.45032	0.01175
3879.16455	0.01145
3877.87878	0.01120
3876.59301	0.01102
3875.30724	0.01079
3874.02148	0.01057
3872.73571	0.01046
3871.44994	0.01047
3870.16417	0.01047
3868.87840	0.01042
3867.59263	0.01040
3866.30686	0.01058
3865.02109	0.01093
3863.73532	0.01118
3862.44956	0.01106
3861.16379	0.01051
3859.87802	0.00976
3858.59225	0.00907
3857.30648	0.00865
3856.02071	0.00860
3854.73494	0.00897
3853.44917	0.00962
3852.16341	0.01033
3850.87764	0.01087
3849.59187	0.01117
3848.30610	0.01125
3847.02033	0.01117
3845.73456	0.01098
3844.44879	0.01066
3843.16302	0.01019
3841.87725	0.00959
3840.59149	0.00901
3839.30572	0.00866
3838.01995	0.00863
3836.73418	0.00881
3835.44841	0.00909
3834.16264	0.00952
3832.87687	0.01017
3831.59110	0.01092
3830.30534	0.01148
3829.01957	0.01166
3827.73380	0.01152
3826.44803	0.01126
3825.16226	0.01112
3823.87649	0.01127
3822.59072	0.01178
3821.30495	0.01240
3820.01918	0.01277
3818.73342	0.01264
3817.44765	0.01215
3816.16188	0.01156
3814.87611	0.01107
3813.59034	0.01069
3812.30457	0.01045
3811.01880	0.01039
3809.73303	0.01042
3808.44726	0.01036
3807.16150	0.01020
3805.87573	0.01009
3804.58996	0.01021
3803.30419	0.01049
3802.01842	0.01070
3800.73265	0.01067
3799.44688	0.01046
3798.16111	0.01026
3796.87535	0.01028
3795.58958	0.01054
3794.30381	0.01090
3793.01804	0.01114
3791.73227	0.01102
3790.44650	0.01049
3789.16073	0.00985
3787.87496	0.00951
3786.58919	0.00962
3785.30343	0.01001
3784.01766	0.01051
3782.73189	0.01105
3781.44612	0.01162
3780.16035	0.01213
3778.87458	0.01253
3777.58881	0.01282
3776.30304	0.01293
3775.01728	0.01275
3773.73151	0.01227
3772.44574	0.01172
3771.15997	0.01131
3769.87420	0.01107
3768.58843	0.01086
3767.30266	0.01058
3766.01689	0.01026
3764.73112	0.01002
3763.44536	0.00999
3762.15959	0.01024
3760.87382	0.01062
3759.58805	0.01083
3758.30228	0.01072
3757.01651	0.01045
3755.73074	0.01024
3754.44497	0.01012
3753.15921	0.01000
3751.87344	0.00984
3750.58767	0.00985
3749.30190	0.01014
3748.01613	0.01058
3746.73036	0.01088
3745.44459	0.01088
3744.15882	0.01070
3742.87305	0.01058
3741.58729	0.01054
3740.30152	0.01045
3739.01575	0.01028
3737.72998	0.01012
3736.44421	0.01007
3735.15844	0.01025
3733.87267	0.01070
3732.58690	0.01125
3731.30114	0.01144
3730.01537	0.01090
3728.72960	0.00980
3727.44383	0.00871
3726.15806	0.00806
3724.87229	0.00779
3723.58652	0.00762
3722.30075	0.00753
3721.01498	0.00771
3719.72922	0.00828
3718.44345	0.00906
3717.15768	0.00977
3715.87191	0.01019
3714.58614	0.01026
3713.30037	0.00995
3712.01460	0.00940
3710.72883	0.00887
3709.44307	0.00861
3708.15730	0.00863
3706.87153	0.00869
3705.58576	0.00850
3704.29999	0.00810
3703.01422	0.00785
3701.72845	0.00796
3700.44268	0.00820
3699.15691	0.00813
3697.87115	0.00760
3696.58538	0.00693
3695.29961	0.00655
3694.01384	0.00666
3692.72807	0.00724
3691.44230	0.00816
3690.15653	0.00915
3688.87076	0.00984
3687.58500	0.00998
3686.29923	0.00969
3685.01346	0.00936
3683.72769	0.00929
3682.44192	0.00951
3681.15615	0.00978
3679.87038	0.00992
3678.58461	0.01001
3677.29884	0.01024
3676.01308	0.01069
3674.72731	0.01117
3673.44154	0.01142
3672.15577	0.01141
3670.87000	0.01134
3669.58423	0.01131
3668.29846	0.01117
3667.01269	0.01078
3665.72693	0.01027
3664.44116	0.00986
3663.15539	0.00960
3661.86962	0.00940
3660.58385	0.00925
3659.29808	0.00919
3658.01231	0.00919
3656.72654	0.00916
3655.44077	0.00910
3654.15501	0.00905
3652.86924	0.00901
3651.58347	0.00899
3650.29770	0.00908
3649.01193	0.00941
3647.72616	0.01002
3646.44039	0.01076
3645.15462	0.01135
3643.86886	0.01155
3642.58309	0.01131
3641.29732	0.01085
3640.01155	0.01050
3638.72578	0.01047
3637.44001	0.01075
3636.15424	0.01113
3634.86847	0.01130
3633.58270	0.01101
3632.29694	0.01018
3631.01117	0.00908
3629.72540	0.00822
3628.43963	0.00807
3627.15386	0.00866
3625.86809	0.00960
3624.58232	0.01042
3623.29655	0.01088
3622.01079	0.01098
3620.72502	0.01084
3619.43925	0.01057
3618.15348	0.01015
3616.86771	0.00955
3615.58194	0.00899
3614.29617	0.00894
3613.01040	0.00963
3611.72463	0.01069
3610.43887	0.01144
3609.15310	0.01156
3607.86733	0.01127
3606.58156	0.01098
3605.29579	0.01096
3604.01002	0.01129
3602.72425	0.01191
3601.43848	0.01262
3600.15272	0.01307
3598.86695	0.01297
3597.58118	0.01225
3596.29541	0.01120
3595.00964	0.01022
3593.72387	0.00970
3592.43810	0.00980
3591.15233	0.01042
3589.86656	0.01126
3588.58080	0.01185
3587.29503	0.01184
3586.00926	0.01128
3584.72349	0.01060
3583.43772	0.01026
3582.15195	0.01045
3580.86618	0.01105
3579.58041	0.01181
3578.29464	0.01244
3577.00888	0.01263
3575.72311	0.01225
3574.43734	0.01167
3573.15157	0.01148
3571.86580	0.01199
3570.58003	0.01291
3569.29426	0.01366
3568.00849	0.01385
3566.72273	0.01342
3565.43696	0.01257
3564.15119	0.01165
3562.86542	0.01108
3561.57965	0.01116
3560.29388	0.01189
3559.00811	0.01292
3557.72234	0.01378
3556.43657	0.01415
3555.15081	0.01398
3553.86504	0.01344
3552.57927	0.01275
3551.29350	0.01207
3550.00773	0.01151
3548.72196	0.01122
3547.43619	0.01134
3546.15042	0.01179
3544.86466	0.01227
3543.57889	0.01246
3542.29312	0.01236
3541.00735	0.01233
3539.72158	0.01272
3538.43581	0.01356
3537.15004	0.01452
3535.86427	0.01523
3534.57850	0.01552
3533.29274	0.01541
3532.00697	0.01498
3530.72120	0.01431
3529.43543	0.01366
3528.14966	0.01332
3526.86389	0.01329
3525.57812	0.01323
3524.29235	0.01285
3523.00659	0.01235
3521.72082	0.01224
3520.43505	0.01271
3519.14928	0.01336
3517.86351	0.01363
3516.57774	0.01336
3515.29197	0.01289
3514.00620	0.01265
3512.72043	0.01280
3511.43467	0.01316
3510.14890	0.01343
3508.86313	0.01346
3507.57736	0.01337
3506.29159	0.01346
3505.00582	0.01394
3503.72005	0.01457
3502.43428	0.01487
3501.14852	0.01459
3499.86275	0.01393
3498.57698	0.01342
3497.29121	0.01342
3496.00544	0.01389
3494.71967	0.01458
3493.43390	0.01515
3492.14813	0.01539
3490.86236	0.01517
3489.57660	0.01460
3488.29083	0.01388
3487.00506	0.01320
3485.71929	0.01272
3484.43352	0.01264
3483.14775	0.01308
3481.86198	0.01388
3480.57621	0.01461
3479.29045	0.01491
3478.00468	0.01485
3476.71891	0.01480
3475.43314	0.01504
3474.14737	0.01547
3472.86160	0.01577
3471.57583	0.01573
3470.29006	0.01552
3469.00429	0.01547
3467.71853	0.01573
3466.43276	0.01611
3465.14699	0.01620
3463.86122	0.01579
3462.57545	0.01512
3461.28968	0.01466
3460.00391	0.01466
3458.71814	0.01487
3457.43238	0.01493
3456.14661	0.01472
3454.86084	0.01443
3453.57507	0.01436
3452.28930	0.01467
3451.00353	0.01533
3449.71776	0.01605
3448.43199	0.01642
3447.14622	0.01628
3445.86046	0.01584
3444.57469	0.01544
3443.28892	0.01523
3442.00315	0.01514
3440.71738	0.01511
3439.43161	0.01516
3438.14584	0.01526
3436.86007	0.01525
3435.57431	0.01500
3434.28854	0.01457
3433.00277	0.01415
3431.71700	0.01386
3430.43123	0.01371
3429.14546	0.01370
3427.85969	0.01383
3426.57392	0.01400
3425.28815	0.01405
3424.00239	0.01387
3422.71662	0.01352
3421.43085	0.01321
3420.14508	0.01313
3418.85931	0.01337
3417.57354	0.01389
3416.28777	0.01451
3415.00200	0.01503
3413.71624	0.01531
3412.43047	0.01529
3411.14470	0.01497
3409.85893	0.01442
3408.57316	0.01385
3407.28739	0.01354
3406.00162	0.01377
3404.71585	0.01449
3403.43008	0.01535
3402.14432	0.01591
3400.85855	0.01598
3399.57278	0.01570
3398.28701	0.01538
3397.00124	0.01521
3395.71547	0.01517
3394.42970	0.01520
3393.14393	0.01530
3391.85817	0.01547
3390.57240	0.01564
3389.28663	0.01570
3388.00086	0.01568
3386.71509	0.01566
3385.42932	0.01567
3384.14355	0.01566
3382.85778	0.01559
3381.57201	0.01554
3380.28625	0.01559
3379.00048	0.01572
3377.71471	0.01579
3376.42894	0.01571
3375.14317	0.01548
3373.85740	0.01520
3372.57163	0.01505
3371.28586	0.01510
3370.00010	0.01532
3368.71433	0.01560
3367.42856	0.01587
3366.14279	0.01606
3364.85702	0.01610
3363.57125	0.01595
3362.28548	0.01561
3360.99971	0.01515
3359.71394	0.01466
3358.42818	0.01431
3357.14241	0.01431
3355.85664	0.01473
3354.57087	0.01532
3353.28510	0.01572
3351.99933	0.01578
3350.71356	0.01567
3349.42779	0.01566
3348.14202	0.01580
3346.85626	0.01593
3345.57049	0.01587
3344.28472	0.01565
3342.99895	0.01542
3341.71318	0.01528
3340.42741	0.01519
3339.14164	0.01513
3337.85587	0.01517
3336.57011	0.01530
3335.28434	0.01544
3333.99857	0.01542
3332.71280	0.01524
3331.42703	0.01504
3330.14126	0.01492
3328.85549	0.01481
3327.56972	0.01457
3326.28395	0.01421
3324.99819	0.01397
3323.71242	0.01406
3322.42665	0.01446
3321.14088	0.01493
3319.85511	0.01527
3318.56934	0.01542
3317.28357	0.01551
3315.99780	0.01562
3314.71204	0.01573
3313.42627	0.01576
3312.14050	0.01568
3310.85473	0.01556
3309.56896	0.01539
3308.28319	0.01517
3306.99742	0.01493
3305.71165	0.01475
3304.42588	0.01460
3303.14012	0.01441
3301.85435	0.01421
3300.56858	0.01415
3299.28281	0.01427
3297.99704	0.01447
3296.71127	0.01460
3295.42550	0.01464
3294.13973	0.01460
3292.85397	0.01452
3291.56820	0.01441
3290.28243	0.01441
3288.99666	0.01461
3287.71089	0.01493
3286.42512	0.01509
3285.13935	0.01493
3283.85358	0.01457
3282.56781	0.01434
3281.28205	0.01438
3279.99628	0.01456
3278.71051	0.01479
3277.42474	0.01504
3276.13897	0.01534
3274.85320	0.01551
3273.56743	0.01536
3272.28166	0.01490
3270.99590	0.01440
3269.71013	0.01417
3268.42436	0.01434
3267.13859	0.01473
3265.85282	0.01507
3264.56705	0.01514
3263.28128	0.01485
3261.99551	0.01432
3260.70974	0.01382
3259.42398	0.01366
3258.13821	0.01395
3256.85244	0.01446
3255.56667	0.01481
3254.28090	0.01479
3252.99513	0.01447
3251.70936	0.01411
3250.42359	0.01389
3249.13783	0.01376
3247.85206	0.01360
3246.56629	0.01343
3245.28052	0.01340
3243.99475	0.01355
3242.70898	0.01371
3241.42321	0.01370
3240.13744	0.01354
3238.85167	0.01347
3237.56591	0.01367
3236.28014	0.01409
3234.99437	0.01451
3233.70860	0.01473
3232.42283	0.01475
3231.13706	0.01476
3229.85129	0.01483
3228.56552	0.01488
3227.27976	0.01477
3225.99399	0.01448
3224.70822	0.01408
3223.42245	0.01370
3222.13668	0.01341
3220.85091	0.01328
3219.56514	0.01333
3218.27937	0.01356
3216.99360	0.01391
3215.70784	0.01426
3214.42207	0.01446
3213.13630	0.01443
3211.85053	0.01417
3210.56476	0.01383
3209.27899	0.01359
3207.99322	0.01353
3206.70745	0.01365
3205.42169	0.01381
3204.13592	0.01391
3202.85015	0.01388
3201.56438	0.01377
3200.27861	0.01371
3198.99284	0.01381
3197.70707	0.01399
3196.42130	0.01411
3195.13553	0.01404
3193.84977	0.01376
3192.56400	0.01331
3191.27823	0.01277
3189.99246	0.01234
3188.70669	0.01221
3187.42092	0.01242
3186.13515	0.01280
3184.84938	0.01306
3183.56362	0.01308
3182.27785	0.01304
3180.99208	0.01319
3179.70631	0.01355
3178.42054	0.01383
3177.13477	0.01374
3175.84900	0.01326
3174.56323	0.01272
3173.27746	0.01248
3171.99170	0.01268
3170.70593	0.01310
3169.42016	0.01345
3168.13439	0.01356
3166.84862	0.01352
3165.56285	0.01341
3164.27708	0.01325
3162.99131	0.01305
3161.70555	0.01286
3160.41978	0.01274
3159.13401	0.01263
3157.84824	0.01247
3156.56247	0.01229
3155.27670	0.01219
3153.99093	0.01222
3152.70516	0.01237
3151.41939	0.01254
3150.13363	0.01264
3148.84786	0.01261
3147.56209	0.01238
3146.27632	0.01202
3144.99055	0.01171
3143.70478	0.01169
3142.41901	0.01197
3141.13324	0.01228
3139.84748	0.01231
3138.56171	0.01204
3137.27594	0.01169
3135.99017	0.01154
3134.70440	0.01170
3133.41863	0.01208
3132.13286	0.01246
3130.84709	0.01265
3129.56132	0.01260
3128.27556	0.01243
3126.98979	0.01229
3125.70402	0.01220
3124.41825	0.01210
3123.13248	0.01200
3121.84671	0.01198
3120.56094	0.01209
3119.27517	0.01232
3117.98940	0.01258
3116.70364	0.01281
3115.41787	0.01297
3114.13210	0.01301
3112.84633	0.01287
3111.56056	0.01254
3110.27479	0.01207
3108.98902	0.01164
3107.70325	0.01142
3106.41749	0.01155
3105.13172	0.01198
3103.84595	0.01252
3102.56018	0.01285
3101.27441	0.01281
3099.98864	0.01253
3098.70287	0.01231
3097.41710	0.01232
3096.13133	0.01243
3094.84557	0.01240
3093.55980	0.01217
3092.27403	0.01192
3090.98826	0.01187
3089.70249	0.01203
3088.41672	0.01224
3087.13095	0.01227
3085.84518	0.01208
3084.55942	0.01188
3083.27365	0.01194
3081.98788	0.01233
3080.70211	0.01281
3079.41634	0.01306
3078.13057	0.01295
3076.84480	0.01269
3075.55903	0.01253
3074.27326	0.01255
3072.98750	0.01257
3071.70173	0.01239
3070.41596	0.01200
3069.13019	0.01163
3067.84442	0.01150
3066.55865	0.01165
3065.27288	0.01187
3063.98711	0.01193
3062.70135	0.01178
3061.41558	0.01159
3060.12981	0.01151
3058.84404	0.01160
3057.55827	0.01173
3056.27250	0.01177
3054.98673	0.01168
3053.70096	0.01160
3052.41519	0.01167
3051.12943	0.01191
3049.84366	0.01213
3048.55789	0.01217
3047.27212	0.01204
3045.98635	0.01189
3044.70058	0.01184
3043.41481	0.01184
3042.12904	0.01176
3040.84328	0.01161
3039.55751	0.01150
3038.27174	0.01147
3036.98597	0.01142
3035.70020	0.01131
3034.41443	0.01124
3033.12866	0.01139
3031.84289	0.01174
3030.55712	0.01204
3029.27136	0.01206
3027.98559	0.01176
3026.69982	0.01132
3025.41405	0.01089
3024.12828	0.01052
3022.84251	0.01025
3021.55674	0.01019
3020.27097	0.01038
3018.98521	0.01072
3017.69944	0.01100
3016.41367	0.01109
3015.12790	0.01106
3013.84213	0.01103
3012.55636	0.01110
3011.27059	0.01119
3009.98482	0.01127
3008.69905	0.01131
3007.41329	0.01132
3006.12752	0.01129
3004.84175	0.01119
3003.55598	0.01105
3002.27021	0.01092
3000.98444	0.01088
2999.69867	0.01101
2998.41290	0.01124
2997.12714	0.01142
2995.84137	0.01142
2994.55560	0.01131
2993.26983	0.01127
2991.98406	0.01138
2990.69829	0.01156
2989.41252	0.01171
2988.12675	0.01174
2986.84098	0.01157
2985.55522	0.01125
2984.26945	0.01101
2982.98368	0.01102
2981.69791	0.01121
2980.41214	0.01131
2979.12637	0.01112
2977.84060	0.01069
2976.55483	0.01027
2975.26907	0.01016
2973.98330	0.01043
2972.69753	0.01091
2971.41176	0.01133
2970.12599	0.01149
2968.84022	0.01147
2967.55445	0.01147
2966.26868	0.01163
2964.98291	0.01191
2963.69715	0.01212
2962.41138	0.01212
2961.12561	0.01192
2959.83984	0.01164
2958.55407	0.01143
2957.26830	0.01138
2955.98253	0.01151
2954.69676	0.01175
2953.41100	0.01205
2952.12523	0.01238
2950.83946	0.01278
2949.55369	0.01313
2948.26792	0.01331
2946.98215	0.01327
2945.69638	0.01310
2944.41061	0.01287
2943.12484	0.01262
2941.83908	0.01234
2940.55331	0.01205
2939.26754	0.01178
2937.98177	0.01162
2936.69600	0.01163
2935.41023	0.01181
2934.12446	0.01203
2932.83869	0.01216
2931.55293	0.01217
2930.26716	0.01213
2928.98139	0.01210
2927.69562	0.01208
2926.40985	0.01205
2925.12408	0.01204
2923.83831	0.01205
2922.55254	0.01204
2921.26677	0.01200
2919.98101	0.01196
2918.69524	0.01195
2917.40947	0.01191
2916.12370	0.01179
2914.83793	0.01163
2913.55216	0.01150
2912.26639	0.01143
2910.98062	0.01144
2909.69486	0.01149
2908.40909	0.01155
2907.12332	0.01158
2905.83755	0.01160
2904.55178	0.01157
2903.26601	0.01145
2901.98024	0.01122
2900.69447	0.01106
2899.40870	0.01117
2898.12294	0.01148
2896.83717	0.01168
2895.55140	0.01154
2894.26563	0.01116
2892.97986	0.01080
2891.69409	0.01065
2890.40832	0.01074
2889.12255	0.01101
2887.83678	0.01134
2886.55102	0.01161
2885.26525	0.01172
2883.97948	0.01164
2882.69371	0.01145
2881.40794	0.01128
2880.12217	0.01125
2878.83640	0.01138
2877.55063	0.01157
2876.26487	0.01169
2874.97910	0.01169
2873.69333	0.01164
2872.40756	0.01156
2871.12179	0.01145
2869.83602	0.01126
2868.55025	0.01103
2867.26448	0.01090
2865.97871	0.01091
2864.69295	0.01100
2863.40718	0.01105
2862.12141	0.01101
2860.83564	0.01090
2859.54987	0.01070
2858.26410	0.01047
2856.97833	0.01034
2855.69256	0.01042
2854.40680	0.01062
2853.12103	0.01073
2851.83526	0.01058
2850.54949	0.01022
2849.26372	0.00984
2847.97795	0.00960
2846.69218	0.00953
2845.40641	0.00959
2844.12064	0.00971
2842.83488	0.00986
2841.54911	0.00997
2840.26334	0.00999
2838.97757	0.00993
2837.69180	0.00984
2836.40603	0.00977
2835.12026	0.00972
2833.83449	0.00963
2832.54873	0.00948
2831.26296	0.00937
2829.97719	0.00939
2828.69142	0.00950
2827.40565	0.00960
2826.11988	0.00960
2824.83411	0.00953
2823.54834	0.00941
2822.26257	0.00926
2820.97681	0.00910
2819.69104	0.00900
2818.40527	0.00903
2817.11950	0.00910
2815.83373	0.00913
2814.54796	0.00906
2813.26219	0.00892
2811.97642	0.00880
2810.69066	0.00876
2809.40489	0.00884
2808.11912	0.00902
2806.83335	0.00920
2805.54758	0.00926
2804.26181	0.00916
2802.97604	0.00899
2801.69027	0.00889
2800.40450	0.00888
2799.11874	0.00889
2797.83297	0.00885
2796.54720	0.00877
2795.26143	0.00867
2793.97566	0.00853
2792.68989	0.00835
2791.40412	0.00824
2790.11835	0.00827
2788.83259	0.00843
2787.54682	0.00861
2786.26105	0.00873
2784.97528	0.00886
2783.68951	0.00904
2782.40374	0.00919
2781.11797	0.00917
2779.83220	0.00895
2778.54643	0.00866
2777.26067	0.00850
2775.97490	0.00857
2774.68913	0.00877
2773.40336	0.00891
2772.11759	0.00885
2770.83182	0.00861
2769.54605	0.00834
2768.26028	0.00817
2766.97452	0.00814
2765.68875	0.00823
2764.40298	0.00837
2763.11721	0.00849
2761.83144	0.00851
2760.54567	0.00840
2759.25990	0.00828
2757.97413	0.00828
2756.68836	0.00843
2755.40260	0.00862
2754.11683	0.00869
2752.83106	0.00856
2751.54529	0.00836
2750.25952	0.00825
2748.97375	0.00832
2747.68798	0.00848
2746.40221	0.00858
2745.11645	0.00860
2743.83068	0.00856
2742.54491	0.00847
2741.25914	0.00839
2739.97337	0.00841
2738.68760	0.00856
2737.40183	0.00877
2736.11606	0.00892
2734.83029	0.00895
2733.54453	0.00887
2732.25876	0.00875
2730.97299	0.00871
2729.68722	0.00884
2728.40145	0.00906
2727.11568	0.00917
2725.82991	0.00905
2724.54414	0.00876
2723.25838	0.00846
2721.97261	0.00822
2720.68684	0.00802
2719.40107	0.00781
2718.11530	0.00763
2716.82953	0.00761
2715.54376	0.00780
2714.25799	0.00812
2712.97222	0.00839
2711.68646	0.00846
2710.40069	0.00834
2709.11492	0.00813
2707.82915	0.00799
2706.54338	0.00798
2705.25761	0.00807
2703.97184	0.00817
2702.68607	0.00821
2701.40031	0.00818
2700.11454	0.00814
2698.82877	0.00812
2697.54300	0.00810
2696.25723	0.00809
2694.97146	0.00813
2693.68569	0.00820
2692.39992	0.00822
2691.11415	0.00813
2689.82839	0.00797
2688.54262	0.00785
2687.25685	0.00785
2685.97108	0.00796
2684.68531	0.00813
2683.39954	0.00828
2682.11377	0.00834
2680.82800	0.00829
2679.54224	0.00816
2678.25647	0.00799
2676.97070	0.00786
2675.68493	0.00783
2674.39916	0.00793
2673.11339	0.00807
2671.82762	0.00816
2670.54185	0.00811
2669.25608	0.00797
2667.97032	0.00780
2666.68455	0.00770
2665.39878	0.00770
2664.11301	0.00783
2662.82724	0.00804
2661.54147	0.00827
2660.25570	0.00841
2658.96993	0.00838
2657.68417	0.00820
2656.39840	0.00801
2655.11263	0.00798
2653.82686	0.00814
2652.54109	0.00836
2651.25532	0.00846
2649.96955	0.00841
2648.68378	0.00828
2647.39801	0.00819
2646.11225	0.00821
2644.82648	0.00830
2643.54071	0.00838
2642.25494	0.00831
2640.96917	0.00808
2639.68340	0.00776
2638.39763	0.00753
2637.11186	0.00755
2635.82609	0.00781
2634.54033	0.00808
2633.25456	0.00814
2631.96879	0.00794
2630.68302	0.00766
2629.39725	0.00751
2628.11148	0.00751
2626.82571	0.00760
2625.53994	0.00768
2624.25418	0.00775
2622.96841	0.00777
2621.68264	0.00771
2620.39687	0.00750
2619.11110	0.00711
2617.82533	0.00667
2616.53956	0.00647
2615.25379	0.00669
2613.96802	0.00718
2612.68226	0.00747
2611.39649	0.00731
2610.11072	0.00689
2608.82495	0.00669
2607.53918	0.00693
2606.25341	0.00739
2604.96764	0.00774
2603.68187	0.00780
2602.39611	0.00766
2601.11034	0.00751
2599.82457	0.00739
2598.53880	0.00724
2597.25303	0.00699
2595.96726	0.00674
2594.68149	0.00660
2593.39572	0.00655
2592.10995	0.00648
2590.82419	0.00640
2589.53842	0.00637
2588.25265	0.00638
2586.96688	0.00638
2585.68111	0.00642
2584.39534	0.00659
2583.10957	0.00680
2581.82380	0.00688
2580.53804	0.00675
2579.25227	0.00649
2577.96650	0.00630
2576.68073	0.00633
2575.39496	0.00661
2574.10919	0.00693
2572.82342	0.00700
2571.53765	0.00672
2570.25188	0.00627
2568.96612	0.00592
2567.68035	0.00578
2566.39458	0.00582
2565.10881	0.00603
2563.82304	0.00646
2562.53727	0.00702
2561.25150	0.00741
2559.96573	0.00736
2558.67997	0.00690
2557.39420	0.00631
2556.10843	0.00583
2554.82266	0.00552
2553.53689	0.00534
2552.25112	0.00527
2550.96535	0.00534
2549.67958	0.00551
2548.39381	0.00571
2547.10805	0.00591
2545.82228	0.00615
2544.53651	0.00639
2543.25074	0.00653
2541.96497	0.00652
2540.67920	0.00648
2539.39343	0.00654
2538.10766	0.00663
2536.82190	0.00660
2535.53613	0.00644
2534.25036	0.00628
2532.96459	0.00624
2531.67882	0.00629
2530.39305	0.00640
2529.10728	0.00652
2527.82151	0.00659
2526.53574	0.00649
2525.24998	0.00626
2523.96421	0.00606
2522.67844	0.00604
2521.39267	0.00610
2520.10690	0.00605
2518.82113	0.00583
2517.53536	0.00564
2516.24959	0.00560
2514.96383	0.00563
2513.67806	0.00552
2512.39229	0.00523
2511.10652	0.00494
2509.82075	0.00482
2508.53498	0.00491
2507.24921	0.00516
2505.96344	0.00552
2504.67767	0.00593
2503.39191	0.00629
2502.10614	0.00646
2500.82037	0.00640
2499.53460	0.00623
2498.24883	0.00612
2496.96306	0.00611
2495.67729	0.00607
2494.39152	0.00586
2493.10576	0.00549
2491.81999	0.00513
2490.53422	0.00495
2489.24845	0.00497
2487.96268	0.00508
2486.67691	0.00518
2485.39114	0.00521
2484.10537	0.00517
2482.81960	0.00508
2481.53384	0.00497
2480.24807	0.00488
2478.96230	0.00488
2477.67653	0.00505
2476.39076	0.00538
2475.10499	0.00568
2473.81922	0.00577
2472.53345	0.00566
2471.24769	0.00548
2469.96192	0.00534
2468.67615	0.00529
2467.39038	0.00538
2466.10461	0.00559
2464.81884	0.00582
2463.53307	0.00593
2462.24730	0.00587
2460.96153	0.00564
2459.67577	0.00532
2458.39000	0.00500
2457.10423	0.00477
2455.81846	0.00469
2454.53269	0.00475
2453.24692	0.00490
2451.96115	0.00510
2450.67538	0.00532
2449.38962	0.00549
2448.10385	0.00553
2446.81808	0.00541
2445.53231	0.00523
2444.24654	0.00509
2442.96077	0.00501
2441.67500	0.00495
2440.38923	0.00495
2439.10346	0.00510
2437.81770	0.00541
2436.53193	0.00577
2435.24616	0.00602
2433.96039	0.00610
2432.67462	0.00603
2431.38885	0.00584
2430.10308	0.00560
2428.81731	0.00537
2427.53155	0.00519
2426.24578	0.00511
2424.96001	0.00515
2423.67424	0.00524
2422.38847	0.00520
2421.10270	0.00492
2419.81693	0.00453
2418.53116	0.00429
2417.24539	0.00434
2415.95963	0.00466
2414.67386	0.00509
2413.38809	0.00550
2412.10232	0.00575
2410.81655	0.00570
2409.53078	0.00539
2408.24501	0.00504
2406.95924	0.00489
2405.67347	0.00501
2404.38771	0.00526
2403.10194	0.00548
2401.81617	0.00557
2400.53040	0.00553
2399.24463	0.00534
2397.95886	0.00505
2396.67309	0.00475
2395.38732	0.00456
2394.10156	0.00451
2392.81579	0.00458
2391.53002	0.00467
2390.24425	0.00475
2388.95848	0.00484
2387.67271	0.00499
2386.38694	0.00517
2385.10117	0.00529
2383.81540	0.00526
2382.52964	0.00514
2381.24387	0.00505
2379.95810	0.00508
2378.67233	0.00503
2377.38656	0.00490
2376.10079	0.00488
2374.81502	0.00503
2373.52925	0.00500
2372.24349	0.00481
2370.95772	0.00464
2369.67195	0.00445
2368.38618	0.00435
2367.10041	0.00444
2365.81464	0.00469
2364.52887	0.00493
2363.24310	0.00501
2361.95733	0.00499
2360.67157	0.00500
2359.38580	0.00509
2358.10003	0.00510
2356.81426	0.00506
2355.52849	0.00523
2354.24272	0.00572
2352.95695	0.00629
2351.67118	0.00640
2350.38542	0.00623
2349.09965	0.00610
2347.81388	0.00593
2346.52811	0.00572
2345.24234	0.00577
2343.95657	0.00611
2342.67080	0.00670
2341.38503	0.00653
2340.09926	0.00594
2338.81350	0.00582
2337.52773	0.00613
2336.24196	0.00608
2334.95619	0.00601
2333.67042	0.00608
2332.38465	0.00626
2331.09888	0.00572
2329.81311	0.00575
2328.52735	0.00619
2327.24158	0.00649
2325.95581	0.00692
2324.67004	0.00731
2323.38427	0.00770
2322.09850	0.00758
2320.81273	0.00722
2319.52696	0.00684
2318.24119	0.00648
2316.95543	0.00611
2315.66966	0.00584
2314.38389	0.00583
2313.09812	0.00601
2311.81235	0.00629
2310.52658	0.00654
2309.24081	0.00649
2307.95504	0.00609
2306.66928	0.00565
2305.38351	0.00546
2304.09774	0.00556
2302.81197	0.00574
2301.52620	0.00574
2300.24043	0.00558
2298.95466	0.00535
2297.66889	0.00515
2296.38312	0.00504
2295.09736	0.00509
2293.81159	0.00532
2292.52582	0.00564
2291.24005	0.00594
2289.95428	0.00612
2288.66851	0.00610
2287.38274	0.00584
2286.09697	0.00539
2284.81121	0.00493
2283.52544	0.00468
2282.23967	0.00472
2280.95390	0.00504
2279.66813	0.00551
2278.38236	0.00597
2277.09659	0.00624
2275.81082	0.00626
2274.52505	0.00611
2273.23929	0.00600
2271.95352	0.00599
2270.66775	0.00596
2269.38198	0.00579
2268.09621	0.00554
2266.81044	0.00529
2265.52467	0.00499
2264.23890	0.00452
2262.95314	0.00391
2261.66737	0.00332
2260.38160	0.00299
2259.09583	0.00297
2257.81006	0.00311
2256.52429	0.00325
2255.23852	0.00328
2253.95275	0.00326
2252.66698	0.00329
2251.38122	0.00340
2250.09545	0.00352
2248.80968	0.00355
2247.52391	0.00351
2246.23814	0.00355
2244.95237	0.00381
2243.66660	0.00416
2242.38083	0.00423
2241.09507	0.00377
2239.80930	0.00301
2238.52353	0.00262
2237.23776	0.00304
2235.95199	0.00397
2234.66622	0.00474
2233.38045	0.00490
2232.09468	0.00453
2230.80891	0.00385
2229.52315	0.00302
2228.23738	0.00220
2226.95161	0.00171
2225.66584	0.00180
2224.38007	0.00234
2223.09430	0.00293
2221.80853	0.00325
2220.52276	0.00335
2219.23700	0.00345
2217.95123	0.00363
2216.66546	0.00379
2215.37969	0.00371
2214.09392	0.00318
2212.80815	0.00226
2211.52238	0.00144
2210.23661	0.00130
2208.95084	0.00176
2207.66508	0.00203
2206.37931	0.00152
2205.09354	0.00059
2203.80777	0.00015
2202.52200	0.00065
2201.23623	0.00184
2199.95046	0.00314
2198.66469	0.00401
2197.37893	0.00406
2196.09316	0.00315
2194.80739	0.00173
2193.52162	0.00057
2192.23585	0.00010
2190.95008	0.00002
2189.66431	-0.00017
2188.37854	-0.00048
2187.09277	-0.00048
2185.80701	-0.00003
2184.52124	0.00046
2183.23547	0.00069
2181.94970	0.00082
2180.66393	0.00108
2179.37816	0.00140
2178.09239	0.00163
2176.80662	0.00178
2175.52085	0.00192
2174.23509	0.00194
2172.94932	0.00169
2171.66355	0.00124
2170.37778	0.00092
2169.09201	0.00093
2167.80624	0.00108
2166.52047	0.00101
2165.23470	0.00064
2163.94894	0.00042
2162.66317	0.00074
2161.37740	0.00143
2160.09163	0.00188
2158.80586	0.00166
2157.52009	0.00080
2156.23432	-0.00023
2154.94855	-0.00080
2153.66278	-0.00055
2152.37702	0.00023
2151.09125	0.00094
2149.80548	0.00125
2148.51971	0.00140
2147.23394	0.00155
2145.94817	0.00157
2144.66240	0.00130
2143.37663	0.00088
2142.09087	0.00056
2140.80510	0.00031
2139.51933	-0.00006
2138.23356	-0.00060
2136.94779	-0.00107
2135.66202	-0.00128
2134.37625	-0.00123
2133.09048	-0.00100
2131.80471	-0.00056
2130.51895	0.00001
2129.23318	0.00042
2127.94741	0.00048
2126.66164	0.00032
2125.37587	0.00026
2124.09010	0.00042
2122.80433	0.00068
2121.51856	0.00101
2120.23280	0.00147
2118.94703	0.00206
2117.66126	0.00264
2116.37549	0.00306
2115.08972	0.00328
2113.80395	0.00332
2112.51818	0.00333
2111.23241	0.00346
2109.94664	0.00368
2108.66088	0.00366
2107.37511	0.00309
2106.08934	0.00210
2104.80357	0.00129
2103.51780	0.00113
2102.23203	0.00160
2100.94626	0.00218
2099.66049	0.00174
2098.37473	0.00114
2097.08896	0.00054
2095.80319	0.00011
2094.51742	0.00015
2093.23165	0.00066
2091.94588	0.00121
2090.66011	0.00133
2089.37434	0.00086
2088.08857	0.00008
2086.80281	-0.00057
2085.51704	-0.00074
2084.23127	-0.00039
2082.94550	0.00023
2081.65973	0.00072
2080.37396	0.00079
2079.08819	0.00053
2077.80242	0.00030
2076.51666	0.00034
2075.23089	0.00051
2073.94512	0.00054
2072.65935	0.00045
2071.37358	0.00048
2070.08781	0.00078
2068.80204	0.00110
2067.51627	0.00109
2066.23050	0.00068
2064.94474	0.00017
2063.65897	-0.00011
2062.37320	-0.00012
2061.08743	-0.00014
2059.80166	-0.00040
2058.51589	-0.00082
2057.23012	-0.00108
2055.94435	-0.00086
2054.65859	-0.00010
2053.37282	0.00090
2052.08705	0.00156
2050.80128	0.00141
2049.51551	0.00051
2048.22974	-0.00055
2046.94397	-0.00117
2045.65820	-0.00125
2044.37243	-0.00111
2043.08667	-0.00103
2041.80090	-0.00107
2040.51513	-0.00124
2039.22936	-0.00170
2037.94359	-0.00264
2036.65782	-0.00388
2035.37205	-0.00496
2034.08628	-0.00541
2032.80052	-0.00509
2031.51475	-0.00409
2030.22898	-0.00260
2028.94321	-0.00100
2027.65744	0.00020
2026.37167	0.00066
2025.08590	0.00052
2023.80013	0.00016
2022.51436	-0.00016
2021.22860	-0.00039
2019.94283	-0.00057
2018.65706	-0.00073
2017.37129	-0.00092
2016.08552	-0.00112
2014.79975	-0.00120
2013.51398	-0.00109
2012.22821	-0.00088
2010.94245	-0.00079
2009.65668	-0.00098
2008.37091	-0.00139
2007.08514	-0.00171
2005.79937	-0.00170
2004.51360	-0.00131
2003.22783	-0.00065
2001.94206	0.00015
2000.65629	0.00097
1999.37053	0.00150
1998.08476	0.00155
1996.79899	0.00124
1995.51322	0.00102
1994.22745	0.00112
1992.94168	0.00136
1991.65591	0.00134
1990.37014	0.00094
1989.08438	0.00035
1987.79861	-0.00019
1986.51284	-0.00062
1985.22707	-0.00099
1983.94130	-0.00129
1982.65553	-0.00134
1981.36976	-0.00098
1980.08399	-0.00037
1978.79822	0.00010
1977.51246	0.00019
1976.22669	0.00004
1974.94092	-0.00015
1973.65515	-0.00034
1972.36938	-0.00060
1971.08361	-0.00087
1969.79784	-0.00097
1968.51207	-0.00084
1967.22631	-0.00051
1965.94054	-0.00001
1964.65477	0.00066
1963.36900	0.00141
1962.08323	0.00203
1960.79746	0.00235
1959.51169	0.00233
1958.22592	0.00207
1956.94015	0.00164
1955.65439	0.00112
1954.36862	0.00067
1953.08285	0.00055
1951.79708	0.00095
1950.51131	0.00174
1949.22554	0.00256
1947.93977	0.00303
1946.65400	0.00303
1945.36823	0.00275
1944.08247	0.00245
1942.79670	0.00223
1941.51093	0.00202
1940.22516	0.00179
1938.93939	0.00170
1937.65362	0.00189
1936.36785	0.00227
1935.08208	0.00255
1933.79632	0.00250
1932.51055	0.00206
1931.22478	0.00145
1929.93901	0.00092
1928.65324	0.00066
1927.36747	0.00074
1926.08170	0.00106
1924.79593	0.00142
1923.51016	0.00171
1922.22440	0.00194
1920.93863	0.00216
1919.65286	0.00227
1918.36709	0.00214
1917.08132	0.00179
1915.79555	0.00149
1914.50978	0.00141
1913.22401	0.00149
1911.93825	0.00150
1910.65248	0.00134
1909.36671	0.00109
1908.08094	0.00097
1906.79517	0.00113
1905.50940	0.00155
1904.22363	0.00203
1902.93786	0.00232
1901.65209	0.00228
1900.36633	0.00196
1899.08056	0.00158
1897.79479	0.00133
1896.50902	0.00127
1895.22325	0.00131
1893.93748	0.00138
1892.65171	0.00150
1891.36594	0.00174
1890.08018	0.00201
1888.79441	0.00212
1887.50864	0.00199
1886.22287	0.00179
1884.93710	0.00169
1883.65133	0.00172
1882.36556	0.00178
1881.07979	0.00183
1879.79402	0.00191
1878.50826	0.00202
1877.22249	0.00211
1875.93672	0.00212
1874.65095	0.00205
1873.36518	0.00198
1872.07941	0.00194
1870.79364	0.00196
1869.50787	0.00197
1868.22211	0.00191
1866.93634	0.00178
1865.65057	0.00165
1864.36480	0.00158
1863.07903	0.00156
1861.79326	0.00158
1860.50749	0.00164
1859.22172	0.00177
1857.93595	0.00194
1856.65019	0.00207
1855.36442	0.00215
1854.07865	0.00220
1852.79288	0.00228
1851.50711	0.00239
1850.22134	0.00251
1848.93557	0.00256
1847.64980	0.00254
1846.36404	0.00246
1845.07827	0.00240
1843.79250	0.00239
1842.50673	0.00243
1841.22096	0.00248
1839.93519	0.00249
1838.64942	0.00248
1837.36365	0.00247
1836.07788	0.00252
1834.79212	0.00262
1833.50635	0.00277
1832.22058	0.00292
1830.93481	0.00304
1829.64904	0.00309
1828.36327	0.00304
1827.07750	0.00295
1825.79173	0.00289
1824.50597	0.00287
1823.22020	0.00287
1821.93443	0.00279
1820.64866	0.00263
1819.36289	0.00243
1818.07712	0.00229
1816.79135	0.00229
1815.50558	0.00241
1814.21981	0.00263
1812.93405	0.00286
1811.64828	0.00304
1810.36251	0.00318
1809.07674	0.00329
1807.79097	0.00337
1806.50520	0.00338
1805.21943	0.00330
1803.93366	0.00317
1802.64790	0.00305
1801.36213	0.00301
1800.07636	0.00303
1798.79059	0.00311
1797.50482	0.00318
1796.21905	0.00320
1794.93328	0.00315
1793.64751	0.00307
1792.36174	0.00300
1791.07598	0.00299
1789.79021	0.00305
1788.50444	0.00317
1787.21867	0.00331
1785.93290	0.00340
1784.64713	0.00340
1783.36136	0.00329
1782.07559	0.00315
1780.78983	0.00304
1779.50406	0.00302
1778.21829	0.00307
1776.93252	0.00314
1775.64675	0.00318
1774.36098	0.00319
1773.07521	0.00320
1771.78944	0.00324
1770.50367	0.00332
1769.21791	0.00342
1767.93214	0.00350
1766.64637	0.00357
1765.36060	0.00362
1764.07483	0.00365
1762.78906	0.00365
1761.50329	0.00363
1760.21752	0.00365
1758.93176	0.00370
1757.64599	0.00376
1756.36022	0.00383
1755.07445	0.00389
1753.78868	0.00391
1752.50291	0.00385
1751.21714	0.00372
1749.93137	0.00361
1748.64560	0.00357
1747.35984	0.00360
1746.07407	0.00366
1744.78830	0.00372
1743.50253	0.00374
1742.21676	0.00374
1740.93099	0.00374
1739.64522	0.00375
1738.35945	0.00374
1737.07369	0.00369
1735.78792	0.00364
1734.50215	0.00366
1733.21638	0.00379
1731.93061	0.00398
1730.64484	0.00413
1729.35907	0.00420
1728.07330	0.00421
1726.78753	0.00420
1725.50177	0.00416
1724.21600	0.00414
1722.93023	0.00416
1721.64446	0.00424
1720.35869	0.00433
1719.07292	0.00442
1717.78715	0.00450
1716.50138	0.00461
1715.21561	0.00477
1713.92985	0.00494
1712.64408	0.00508
1711.35831	0.00515
1710.07254	0.00518
1708.78677	0.00521
1707.50100	0.00524
1706.21523	0.00528
1704.92946	0.00533
1703.64370	0.00536
1702.35793	0.00539
1701.07216	0.00545
1699.78639	0.00555
1698.50062	0.00569
1697.21485	0.00581
1695.92908	0.00591
1694.64331	0.00600
1693.35754	0.00612
1692.07178	0.00623
1690.78601	0.00628
1689.50024	0.00626
1688.21447	0.00622
1686.92870	0.00620
1685.64293	0.00623
1684.35716	0.00633
1683.07139	0.00649
1681.78563	0.00669
1680.49986	0.00689
1679.21409	0.00706
1677.92832	0.00717
1676.64255	0.00721
1675.35678	0.00724
1674.07101	0.00732
1672.78524	0.00748
1671.49947	0.00764
1670.21371	0.00775
1668.92794	0.00781
1667.64217	0.00788
1666.35640	0.00801
1665.07063	0.00815
1663.78486	0.00821
1662.49909	0.00821
1661.21332	0.00821
1659.92756	0.00829
1658.64179	0.00845
1657.35602	0.00863
1656.07025	0.00874
1654.78448	0.00879
1653.49871	0.00884
1652.21294	0.00893
1650.92717	0.00903
1649.64140	0.00909
1648.35564	0.00910
1647.06987	0.00912
1645.78410	0.00917
1644.49833	0.00924
1643.21256	0.00930
1641.92679	0.00933
1640.64102	0.00936
1639.35525	0.00938
1638.06949	0.00937
1636.78372	0.00931
1635.49795	0.00921
1634.21218	0.00914
1632.92641	0.00912
1631.64064	0.00915
1630.35487	0.00920
1629.06910	0.00928
1627.78333	0.00937
1626.49757	0.00943
1625.21180	0.00944
1623.92603	0.00940
1622.64026	0.00936
1621.35449	0.00937
1620.06872	0.00943
1618.78295	0.00950
1617.49718	0.00953
1616.21142	0.00955
1614.92565	0.00958
1613.63988	0.00968
1612.35411	0.00981
1611.06834	0.00994
1609.78257	0.01005
1608.49680	0.01017
1607.21103	0.01031
1605.92526	0.01043
1604.63950	0.01047
1603.35373	0.01044
1602.06796	0.01042
1600.78219	0.01047
1599.49642	0.01059
1598.21065	0.01073
1596.92488	0.01084
1595.63911	0.01088
1594.35335	0.01086
1593.06758	0.01082
1591.78181	0.01082
1590.49604	0.01089
1589.21027	0.01104
1587.92450	0.01123
1586.63873	0.01140
1585.35296	0.01151
1584.06719	0.01157
1582.78143	0.01160
1581.49566	0.01162
1580.20989	0.01161
1578.92412	0.01156
1577.63835	0.01150
1576.35258	0.01150
1575.06681	0.01156
1573.78104	0.01166
1572.49528	0.01175
1571.20951	0.01184
1569.92374	0.01193
1568.63797	0.01205
1567.35220	0.01218
1566.06643	0.01229
1564.78066	0.01239
1563.49489	0.01247
1562.20912	0.01252
1560.92336	0.01254
1559.63759	0.01257
1558.35182	0.01262
1557.06605	0.01269
1555.78028	0.01277
1554.49451	0.01285
1553.20874	0.01295
1551.92297	0.01305
1550.63721	0.01314
1549.35144	0.01319
1548.06567	0.01317
1546.77990	0.01310
1545.49413	0.01303
1544.20836	0.01300
1542.92259	0.01302
1541.63682	0.01307
1540.35105	0.01312
1539.06529	0.01319
1537.77952	0.01326
1536.49375	0.01334
1535.20798	0.01344
1533.92221	0.01358
1532.63644	0.01379
1531.35067	0.01401
1530.06490	0.01420
1528.77914	0.01436
1527.49337	0.01450
1526.20760	0.01465
1524.92183	0.01479
1523.63606	0.01495
1522.35029	0.01517
1521.06452	0.01548
1519.77875	0.01586
1518.49298	0.01627
1517.20722	0.01668
1515.92145	0.01710
1514.63568	0.01755
1513.34991	0.01806
1512.06414	0.01857
1510.77837	0.01904
1509.49260	0.01943
1508.20683	0.01976
1506.92107	0.02009
1505.63530	0.02049
1504.34953	0.02095
1503.06376	0.02139
1501.77799	0.02176
1500.49222	0.02204
1499.20645	0.02226
1497.92068	0.02249
1496.63491	0.02280
1495.34915	0.02316
1494.06338	0.02355
1492.77761	0.02393
1491.49184	0.02430
1490.20607	0.02467
1488.92030	0.02504
1487.63453	0.02539
1486.34876	0.02571
1485.06299	0.02603
1483.77723	0.02639
1482.49146	0.02678
1481.20569	0.02716
1479.91992	0.02747
1478.63415	0.02775
1477.34838	0.02803
1476.06261	0.02833
1474.77684	0.02861
1473.49108	0.02884
1472.20531	0.02901
1470.91954	0.02915
1469.63377	0.02928
1468.34800	0.02939
1467.06223	0.02946
1465.77646	0.02952
1464.49069	0.02956
1463.20492	0.02960
1461.91916	0.02966
1460.63339	0.02973
1459.34762	0.02985
1458.06185	0.03001
1456.77608	0.03023
1455.49031	0.03047
1454.20454	0.03070
1452.91877	0.03087
1451.63301	0.03100
1450.34724	0.03112
1449.06147	0.03126
1447.77570	0.03137
1446.48993	0.03145
1445.20416	0.03146
1443.91839	0.03141
1442.63262	0.03129
1441.34685	0.03109
1440.06109	0.03085
1438.77532	0.03062
1437.48955	0.03049
1436.20378	0.03047
1434.91801	0.03053
1433.63224	0.03065
1432.34647	0.03083
1431.06070	0.03108
1429.77494	0.03142
1428.48917	0.03180
1427.20340	0.03221
1425.91763	0.03262
1424.63186	0.03302
1423.34609	0.03343
1422.06032	0.03381
1420.77455	0.03412
1419.48878	0.03436
1418.20302	0.03452
1416.91725	0.03467
1415.63148	0.03479
1414.34571	0.03486
1413.05994	0.03484
1411.77417	0.03471
1410.48840	0.03448
1409.20263	0.03416
1407.91687	0.03378
1406.63110	0.03334
1405.34533	0.03285
1404.05956	0.03234
1402.77379	0.03179
1401.48802	0.03118
1400.20225	0.03051
1398.91648	0.02983
1397.63071	0.02918
1396.34495	0.02854
1395.05918	0.02791
1393.77341	0.02728
1392.48764	0.02664
1391.20187	0.02599
1389.91610	0.02532
1388.63033	0.02466
1387.34456	0.02402
1386.05880	0.02342
1384.77303	0.02285
1383.48726	0.02227
1382.20149	0.02168
1380.91572	0.02109
1379.62995	0.02050
1378.34418	0.01990
1377.05841	0.01926
1375.77264	0.01859
1374.48688	0.01792
1373.20111	0.01730
1371.91534	0.01675
1370.62957	0.01628
1369.34380	0.01583
1368.05803	0.01536
1366.77226	0.01487
1365.48649	0.01441
1364.20073	0.01400
1362.91496	0.01364
1361.62919	0.01333
1360.34342	0.01305
1359.05765	0.01279
1357.77188	0.01251
1356.48611	0.01222
1355.20034	0.01193
1353.91457	0.01165
1352.62881	0.01141
1351.34304	0.01118
1350.05727	0.01096
1348.77150	0.01072
1347.48573	0.01049
1346.19996	0.01029
1344.91419	0.01014
1343.62842	0.01003
1342.34266	0.00993
1341.05689	0.00982
1339.77112	0.00968
1338.48535	0.00953
1337.19958	0.00939
1335.91381	0.00926
1334.62804	0.00915
1333.34227	0.00905
1332.05650	0.00896
1330.77074	0.00891
1329.48497	0.00886
1328.19920	0.00877
1326.91343	0.00863
1325.62766	0.00847
1324.34189	0.00836
1323.05612	0.00831
1321.77035	0.00831
1320.48459	0.00829
1319.19882	0.00823
1317.91305	0.00815
1316.62728	0.00808
1315.34151	0.00804
1314.05574	0.00803
1312.76997	0.00801
1311.48420	0.00796
1310.19843	0.00788
1308.91267	0.00776
1307.62690	0.00763
1306.34113	0.00749
1305.05536	0.00739
1303.76959	0.00735
1302.48382	0.00733
1301.19805	0.00731
1299.91228	0.00727
1298.62652	0.00722
1297.34075	0.00718
1296.05498	0.00714
1294.76921	0.00712
1293.48344	0.00713
1292.19767	0.00712
1290.91190	0.00709
1289.62613	0.00702
1288.34036	0.00693
1287.05460	0.00686
1285.76883	0.00686
1284.48306	0.00691
1283.19729	0.00697
1281.91152	0.00696
1280.62575	0.00687
1279.33998	0.00672
1278.05421	0.00656
1276.76845	0.00646
1275.48268	0.00643
1274.19691	0.00644
1272.91114	0.00648
1271.62537	0.00652
1270.33960	0.00653
1269.05383	0.00652
1267.76806	0.00651
1266.48229	0.00652
1265.19653	0.00654
1263.91076	0.00654
1262.62499	0.00651
1261.33922	0.00647
1260.05345	0.00644
1258.76768	0.00644
1257.48191	0.00646
1256.19614	0.00646
1254.91037	0.00643
1253.62461	0.00638
1252.33884	0.00632
1251.05307	0.00627
1249.76730	0.00626
1248.48153	0.00627
1247.19576	0.00625
1245.90999	0.00617
1244.62422	0.00606
1243.33846	0.00596
1242.05269	0.00591
1240.76692	0.00592
1239.48115	0.00595
1238.19538	0.00597
1236.90961	0.00595
1235.62384	0.00594
1234.33807	0.00595
1233.05230	0.00597
1231.76654	0.00594
1230.48077	0.00586
1229.19500	0.00574
1227.90923	0.00565
1226.62346	0.00561
1225.33769	0.00559
1224.05192	0.00557
1222.76615	0.00553
1221.48039	0.00550
1220.19462	0.00550
1218.90885	0.00554
1217.62308	0.00558
1216.33731	0.00558
1215.05154	0.00554
1213.76577	0.00551
1212.48000	0.00550
1211.19423	0.00552
1209.90847	0.00556
1208.62270	0.00555
1207.33693	0.00549
1206.05116	0.00541
1204.76539	0.00536
1203.47962	0.00537
1202.19385	0.00540
1200.90808	0.00546
1199.62232	0.00556
1198.33655	0.00558
1197.05078	0.00560
1195.76501	0.00559
1194.47924	0.00553
1193.19347	0.00545
1191.90770	0.00541
1190.62193	0.00542
1189.33616	0.00545
1188.05040	0.00548
1186.76463	0.00550
1185.47886	0.00552
1184.19309	0.00557
1182.90732	0.00562
1181.62155	0.00559
1180.33578	0.00549
1179.05001	0.00537
1177.76425	0.00531
1176.47848	0.00530
1175.19271	0.00532
1173.90694	0.00534
1172.62117	0.00538
1171.33540	0.00544
1170.04963	0.00550
1168.76386	0.00555
1167.47809	0.00564
1166.19233	0.00579
1164.90656	0.00596
1163.62079	0.00608
1162.33502	0.00611
1161.04925	0.00609
1159.76348	0.00611
1158.47771	0.00618
1157.19194	0.00627
1155.90618	0.00637
1154.62041	0.00648
1153.33464	0.00661
1152.04887	0.00673
1150.76310	0.00683
1149.47733	0.00692
1148.19156	0.00704
1146.90579	0.00722
1145.62002	0.00746
1144.33426	0.00776
1143.04849	0.00811
1141.76272	0.00850
1140.47695	0.00890
1139.19118	0.00932
1137.90541	0.00981
1136.61964	0.01038
1135.33387	0.01102
1134.04811	0.01168
1132.76234	0.01235
1131.47657	0.01307
1130.19080	0.01390
1128.90503	0.01488
1127.61926	0.01601
1126.33349	0.01726
1125.04772	0.01859
1123.76195	0.01999
1122.47619	0.02145
1121.19042	0.02293
1119.90465	0.02440
1118.61888	0.02586
1117.33311	0.02732
1116.04734	0.02878
1114.76157	0.03026
1113.47580	0.03172
1112.19004	0.03311
1110.90427	0.03440
1109.61850	0.03561
1108.33273	0.03679
1107.04696	0.03795
1105.76119	0.03907
1104.47542	0.04014
1103.18965	0.04115
1101.90388	0.04215
1100.61812	0.04314
1099.33235	0.04413
1098.04658	0.04509
1096.76081	0.04598
1095.47504	0.04677
1094.18927	0.04749
1092.90350	0.04821
1091.61773	0.04897
1090.33197	0.04975
1089.04620	0.05052
1087.76043	0.05126
1086.47466	0.05200
1085.18889	0.05280
1083.90312	0.05368
1082.61735	0.05461
1081.33158	0.05554
1080.04581	0.05647
1078.76005	0.05741
1077.47428	0.05839
1076.18851	0.05943
1074.90274	0.06055
1073.61697	0.06174
1072.33120	0.06297
1071.04543	0.06421
1069.75966	0.06543
1068.47390	0.06665
1067.18813	0.06788
1065.90236	0.06918
1064.61659	0.07057
1063.33082	0.07200
1062.04505	0.07340
1060.75928	0.07471
1059.47351	0.07594
1058.18774	0.07711
1056.90198	0.07825
1055.61621	0.07936
1054.33044	0.08048
1053.04467	0.08162
1051.75890	0.08278
1050.47313	0.08392
1049.18736	0.08503
1047.90159	0.08615
1046.61583	0.08730
1045.33006	0.08848
1044.04429	0.08966
1042.75852	0.09081
1041.47275	0.09193
1040.18698	0.09300
1038.90121	0.09401
1037.61544	0.09500
1036.32967	0.09599
1035.04391	0.09694
1033.75814	0.09774
1032.47237	0.09830
1031.18660	0.09859
1029.90083	0.09864
1028.61506	0.09853
1027.32929	0.09832
1026.04352	0.09800
1024.75775	0.09754
1023.47199	0.09689
1022.18622	0.09597
1020.90045	0.09479
1019.61468	0.09337
1018.32891	0.09175
1017.04314	0.08996
1015.75737	0.08799
1014.47160	0.08587
1013.18584	0.08362
1011.90007	0.08124
1010.61430	0.07873
1009.32853	0.07610
1008.04276	0.07335
1006.75699	0.07048
1005.47122	0.06749
1004.18545	0.06442
1002.89968	0.06134
1001.61392	0.05831
1000.32815	0.05535
999.04238	0.05249
997.75661	0.04970
996.47084	0.04699
995.18507	0.04438
993.89930	0.04192
992.61353	0.03961
991.32777	0.03744
990.04200	0.03541
988.75623	0.03355
987.47046	0.03188
986.18469	0.03037
984.89892	0.02897
983.61315	0.02764
982.32738	0.02638
981.04161	0.02527
979.75585	0.02436
978.47008	0.02363
977.18431	0.02297
975.89854	0.02231
974.61277	0.02172
973.32700	0.02128
972.04123	0.02105
970.75546	0.02101
969.46970	0.02115
968.18393	0.02146
966.89816	0.02192
965.61239	0.02243
964.32662	0.02291
963.04085	0.02327
961.75508	0.02348
960.46931	0.02351
959.18354	0.02337
957.89778	0.02304
956.61201	0.02249
955.32624	0.02173
954.04047	0.02088
952.75470	0.02006
951.46893	0.01933
950.18316	0.01866
948.89739	0.01804
947.61163	0.01749
946.32586	0.01699
945.04009	0.01650
943.75432	0.01600
942.46855	0.01554
941.18278	0.01516
939.89701	0.01483
938.61124	0.01452
937.32547	0.01417
936.03971	0.01380
934.75394	0.01344
933.46817	0.01316
932.18240	0.01296
930.89663	0.01283
929.61086	0.01271
928.32509	0.01259
927.03932	0.01244
925.75356	0.01223
924.46779	0.01196
923.18202	0.01170
921.89625	0.01152
920.61048	0.01144
919.32471	0.01141
918.03894	0.01133
916.75317	0.01118
915.46740	0.01103
914.18164	0.01094
912.89587	0.01092
911.61010	0.01097
910.32433	0.01104
909.03856	0.01109
907.75279	0.01105
906.46702	0.01090
905.18125	0.01072
903.89549	0.01058
902.60972	0.01046
901.32395	0.01032
900.03818	0.01015
898.75241	0.01004
897.46664	0.00999
896.18087	0.00997
894.89510	0.00996
893.60933	0.01002
892.32357	0.01022
891.03780	0.01053
889.75203	0.01090
888.46626	0.01125
887.18049	0.01165
885.89472	0.01224
884.60895	0.01314
883.32318	0.01436
882.03742	0.01573
880.75165	0.01697
879.46588	0.01784
878.18011	0.01827
876.89434	0.01847
875.60857	0.01875
874.32280	0.01925
873.03703	0.01978
871.75126	0.02006
870.46550	0.01988
869.17973	0.01923
867.89396	0.01826
866.60819	0.01718
865.32242	0.01617
864.03665	0.01532
862.75088	0.01456
861.46511	0.01379
860.17935	0.01307
858.89358	0.01246
857.60781	0.01202
856.32204	0.01171
855.03627	0.01148
853.75050	0.01126
852.46473	0.01104
851.17896	0.01083
849.89319	0.01065
848.60743	0.01052
847.32166	0.01042
846.03589	0.01033
844.75012	0.01024
843.46435	0.01018
842.17858	0.01017
840.89281	0.01017
839.60704	0.01016
838.32128	0.01012
837.03551	0.01003
835.74974	0.00993
834.46397	0.00985
833.17820	0.00980
831.89243	0.00979
830.60666	0.00976
829.32089	0.00968
828.03512	0.00956
826.74936	0.00947
825.46359	0.00947
824.17782	0.00958
822.89205	0.00975
821.60628	0.00987
820.32051	0.00989
819.03474	0.00980
817.74897	0.00965
816.46321	0.00949
815.17744	0.00939
813.89167	0.00939
812.60590	0.00953
811.32013	0.00974
810.03436	0.00991
808.74859	0.00994
807.46282	0.00986
806.17705	0.00972
804.89129	0.00964
803.60552	0.00964
802.31975	0.00970
801.03398	0.00972
799.74821	0.00964
798.46244	0.00948
797.17667	0.00932
795.89090	0.00927
794.60513	0.00929
793.31937	0.00933
792.03360	0.00933
790.74783	0.00928
789.46206	0.00919
788.17629	0.00910
786.89052	0.00908
785.60475	0.00913
784.31898	0.00919
783.03322	0.00924
781.74745	0.00929
780.46168	0.00936
779.17591	0.00941
777.89014	0.00941
776.60437	0.00939
775.31860	0.00936
774.03283	0.00934
772.74706	0.00934
771.46130	0.00935
770.17553	0.00937
768.88976	0.00938
767.60399	0.00935
766.31822	0.00934
765.03245	0.00943
763.74668	0.00964
762.46091	0.00988
761.17515	0.01003
759.88938	0.01006
758.60361	0.01001
757.31784	0.00992
756.03207	0.00977
754.74630	0.00961
753.46053	0.00953
752.17476	0.00956
750.88899	0.00963
749.60323	0.00962
748.31746	0.00950
747.03169	0.00938
745.74592	0.00937
744.46015	0.00949
743.17438	0.00964
741.88861	0.00973
740.60284	0.00977
739.31708	0.00980
738.03131	0.00980
736.74554	0.00971
735.45977	0.00952
734.17400	0.00935
732.88823	0.00930
731.60246	0.00940
730.31669	0.00954
729.03092	0.00961
727.74516	0.00958
726.45939	0.00950
725.17362	0.00945
723.88785	0.00947
722.60208	0.00958
721.31631	0.00975
720.03054	0.00993
718.74477	0.01008
717.45901	0.01015
716.17324	0.01014
714.88747	0.01008
713.60170	0.01003
712.31593	0.01002
711.03016	0.01007
709.74439	0.01013
708.45862	0.01015
707.17285	0.01011
705.88709	0.01005
704.60132	0.01001
703.31555	0.00999
702.02978	0.01000
700.74401	0.01004
699.45824	0.01013
698.17247	0.01025
696.88670	0.01033
695.60094	0.01031
694.31517	0.01021
693.02940	0.01013
691.74363	0.01014
690.45786	0.01025
689.17209	0.01037
687.88632	0.01042
686.60055	0.01040
685.31478	0.01035
684.02902	0.01030
682.74325	0.01025
681.45748	0.01020
680.17171	0.01017
678.88594	0.01018
677.60017	0.01024
676.31440	0.01034
675.02863	0.01046
673.74287	0.01057
672.45710	0.01066
671.17133	0.01074
669.88556	0.01083
668.59979	0.01093
667.31402	0.01100
666.02825	0.01101
664.74248	0.01095
663.45671	0.01084
662.17095	0.01071
660.88518	0.01059
659.59941	0.01052
658.31364	0.01050
657.02787	0.01049
655.74210	0.01049
654.45633	0.01050
653.17056	0.01053
651.88480	0.01058
650.59903	0.01067
649.31326	0.01077
648.02749	0.01086
646.74172	0.01090
645.45595	0.01089
644.17018	0.01087
642.88441	0.01089
641.59864	0.01096
640.31288	0.01106
639.02711	0.01119
637.74134	0.01133
636.45557	0.01153
635.16980	0.01178
633.88403	0.01208
632.59826	0.01238
631.31249	0.01256
630.02673	0.01225
628.74096	0.01166
627.45519	0.01233
626.16942	0.01184
624.88365	0.01069
623.59788	0.01005
622.31211	0.01056
621.02634	0.01240
619.74057	0.01502
618.45481	0.01750
617.16904	0.01933
615.88327	0.02057
614.59750	0.02151
613.31173	0.02231
612.02596	0.02317
610.74019	0.02435
609.45442	0.02601
608.16866	0.02799
606.88289	0.02998
605.59712	0.03180
604.31135	0.03332
603.02558	0.03434
601.73981	0.03461
600.45404	0.03410
599.16827	0.03308
597.88250	0.03188
596.59674	0.03077
595.31097	0.02992
594.02520	0.02938
592.73943	0.02907
591.45366	0.02890
590.16789	0.02888
588.88212	0.02912
587.59635	0.02968
586.31059	0.03049
585.02482	0.03140
583.73905	0.03231
582.45328	0.03322
581.16751	0.03413
579.88174	0.03500
578.59597	0.03587
577.31020	0.03680
576.02443	0.03783
574.73867	0.03889
573.45290	0.03987
572.16713	0.04074
570.88136	0.04164
569.59559	0.04276
568.30982	0.04413
567.02405	0.04562
565.73828	0.04694
564.45251	0.04784
563.16675	0.04817
561.88098	0.04782
560.59521	0.04672
559.30944	0.04479
558.02367	0.04215
556.73790	0.03910
555.45213	0.03597
554.16636	0.03302
552.88060	0.03030
551.59483	0.02778
550.30906	0.02546
549.02329	0.02341
547.73752	0.02172
546.45175	0.02043
545.16598	0.01949
543.88021	0.01877
542.59444	0.01813
541.30868	0.01748
540.02291	0.01681
538.73714	0.01620
537.45137	0.01572
536.16560	0.01535
534.87983	0.01500
533.59406	0.01458
532.30829	0.01408
531.02253	0.01356
529.73676	0.01307
528.45099	0.01267
527.16522	0.01237
525.87945	0.01217
524.59368	0.01204
523.30791	0.01196
522.02214	0.01187
520.73637	0.01176
519.45061	0.01166
518.16484	0.01159
516.87907	0.01156
515.59330	0.01155
514.30753	0.01149
513.02176	0.01137
511.73599	0.01117
510.45022	0.01090
509.16446	0.01061
507.87869	0.01034
506.59292	0.01013
505.30715	0.00994
504.02138	0.00976
502.73561	0.00958
501.44984	0.00947
500.16407	0.00950
498.87830	0.00968
497.59254	0.00991
496.30677	0.01001
495.02100	0.00992
493.73523	0.00971
492.44946	0.00955
491.16369	0.00952
489.87792	0.00956
488.59215	0.00958
487.30639	0.00956
486.02062	0.00955
484.73485	0.00960
483.44908	0.00969
482.16331	0.00979
480.87754	0.00985
479.59177	0.00987
478.30600	0.00991
477.02023	0.01003
475.73447	0.01024
474.44870	0.01047
473.16293	0.01060
471.87716	0.01059
470.59139	0.01043
469.30562	0.01020
468.01985	0.00998
466.73408	0.00981
465.44832	0.00970
464.16255	0.00965
462.87678	0.00966
461.59101	0.00966
460.30524	0.00961
459.01947	0.00949
457.73370	0.00936
456.44793	0.00927
455.16216	0.00923
453.87640	0.00917
452.59063	0.00904
451.30486	0.00884
450.01909	0.00864
448.73332	0.00852
447.44755	0.00851
446.16178	0.00860
444.87601	0.00874
443.59025	0.00887
442.30448	0.00894
441.01871	0.00892
439.73294	0.00884
438.44717	0.00875
437.16140	0.00869
435.87563	0.00870
434.58986	0.00878
433.30409	0.00888
432.01833	0.00897
430.73256	0.00901
429.44679	0.00899
428.16102	0.00896
426.87525	0.00894
425.58948	0.00894
424.30371	0.00893
423.01794	0.00888
421.73218	0.00882
420.44641	0.00875
419.16064	0.00870
417.87487	0.00870
416.58910	0.00876
415.30333	0.00889
414.01756	0.00909
412.73179	0.00930
411.44602	0.00948
410.16026	0.00960
408.87449	0.00965
407.58872	0.00965
406.30295	0.00964
405.01718	0.00964
403.73141	0.00967
402.44564	0.00973
401.15987	0.00983
399.87411	0.00994
