3997.45528	0.06350
3996.16951	0.06359
3994.88374	0.06368
3993.59798	0.06369
3992.31221	0.06348
3991.02644	0.06308
3989.74067	0.06268
3988.45490	0.06252
3987.16913	0.06270
3985.88336	0.06301
3984.59759	0.06318
3983.31183	0.06297
3982.02606	0.06225
3980.74029	0.06102
3979.45452	0.05950
3978.16875	0.05815
3976.88298	0.05737
3975.59721	0.05730
3974.31144	0.05780
3973.02567	0.05858
3971.73991	0.05937
3970.45414	0.06005
3969.16837	0.06075
3967.88260	0.06160
3966.59683	0.06251
3965.31106	0.06310
3964.02529	0.06305
3962.73952	0.06242
3961.45376	0.06163
3960.16799	0.06112
3958.88222	0.06096
3957.59645	0.06092
3956.31068	0.06074
3955.02491	0.06055
3953.73914	0.06064
3952.45337	0.06104
3951.16760	0.06133
3949.88184	0.06112
3948.59607	0.06052
3947.31030	0.06003
3946.02453	0.06001
3944.73876	0.06037
3943.45299	0.06081
3942.16722	0.06109
3940.88145	0.06118
3939.59569	0.06114
3938.30992	0.06103
3937.02415	0.06086
3935.73838	0.06068
3934.45261	0.06069
3933.16684	0.06098
3931.88107	0.06137
3930.59530	0.06141
3929.30953	0.06085
3928.02377	0.05988
3926.73800	0.05893
3925.45223	0.05830
3924.16646	0.05801
3922.88069	0.05806
3921.59492	0.05848
3920.30915	0.05914
3919.02338	0.05966
3917.73762	0.05968
3916.45185	0.05921
3915.16608	0.05869
3913.88031	0.05858
3912.59454	0.05889
3911.30877	0.05927
3910.02300	0.05937
3908.73723	0.05916
3907.45146	0.05885
3906.16570	0.05860
3904.87993	0.05838
3903.59416	0.05807
3902.30839	0.05762
3901.02262	0.05720
3899.73685	0.05705
3898.45108	0.05724
3897.16531	0.05757
3895.87955	0.05775
3894.59378	0.05769
3893.30801	0.05762
3892.02224	0.05778
3890.73647	0.05813
3889.45070	0.05830
3888.16493	0.05800
3886.87916	0.05730
3885.59339	0.05651
3884.30763	0.05596
3883.02186	0.05579
3881.73609	0.05602
3880.45032	0.05662
3879.16455	0.05744
3877.87878	0.05816
3876.59301	0.05836
3875.30724	0.05784
3874.02148	0.05686
3872.73571	0.05608
3871.44994	0.05596
3870.16417	0.05646
3868.87840	0.05716
3867.59263	0.05763
3866.30686	0.05776
3865.02109	0.05767
3863.73532	0.05758
3862.44956	0.05756
3861.16379	0.05751
3859.87802	0.05729
3858.59225	0.05690
3857.30648	0.05650
3856.02071	0.05627
3854.73494	0.05635
3853.44917	0.05670
3852.16341	0.05716
3850.87764	0.05747
3849.59187	0.05750
3848.30610	0.05724
3847.02033	0.05678
3845.73456	0.05624
3844.44879	0.05576
3843.16302	0.05540
3841.87725	0.05522
3840.59149	0.05516
3839.30572	0.05515
3838.01995	0.05513
3836.73418	0.05506
3835.44841	0.05490
3834.16264	0.05448
3832.87687	0.05374
3831.59110	0.05305
3830.30534	0.05299
3829.01957	0.05374
3827.73380	0.05480
3826.44803	0.05541
3825.16226	0.05532
3823.87649	0.05480
3822.59072	0.05431
3821.30495	0.05406
3820.01918	0.05404
3818.73342	0.05411
3817.44765	0.05424
3816.16188	0.05457
3814.87611	0.05525
3813.59034	0.05607
3812.30457	0.05651
3811.01880	0.05622
3809.73303	0.05540
3808.44726	0.05458
3807.16150	0.05416
3805.87573	0.05415
3804.58996	0.05429
3803.30419	0.05438
3802.01842	0.05434
3800.73265	0.05415
3799.44688	0.05376
3798.16111	0.05320
3796.87535	0.05260
3795.58958	0.05217
3794.30381	0.05211
3793.01804	0.05241
3791.73227	0.05281
3790.44650	0.05293
3789.16073	0.05254
3787.87496	0.05180
3786.58919	0.05110
3785.30343	0.05070
3784.01766	0.05056
3782.73189	0.05050
3781.44612	0.05043
3780.16035	0.05046
3778.87458	0.05077
3777.58881	0.05136
3776.30304	0.05204
3775.01728	0.05259
3773.73151	0.05287
3772.44574	0.05297
3771.15997	0.05303
3769.87420	0.05305
3768.58843	0.05293
3767.30266	0.05264
3766.01689	0.05234
3764.73112	0.05230
3763.44536	0.05267
3762.15959	0.05329
3760.87382	0.05379
3759.58805	0.05376
3758.30228	0.05307
3757.01651	0.05203
3755.73074	0.05120
3754.44497	0.05095
3753.15921	0.05127
3751.87344	0.05188
3750.58767	0.05259
3749.30190	0.05330
3748.01613	0.05386
3746.73036	0.05428
3745.44459	0.05473
3744.15882	0.05480
3742.87305	0.05419
3741.58729	0.05349
3740.30152	0.05338
3739.01575	0.05393
3737.72998	0.05475
3736.44421	0.05512
3735.15844	0.05506
3733.87267	0.05434
3732.58690	0.05376
3731.30114	0.05378
3730.01537	0.05388
3728.72960	0.05404
3727.44383	0.05379
3726.15806	0.05339
3724.87229	0.05317
3723.58652	0.05284
3722.30075	0.05298
3721.01498	0.05368
3719.72922	0.05398
3718.44345	0.05382
3717.15768	0.05358
3715.87191	0.05361
3714.58614	0.05364
3713.30037	0.05306
3712.01460	0.05272
3710.72883	0.05269
3709.44307	0.05206
3708.15730	0.05161
3706.87153	0.05129
3705.58576	0.05127
3704.29999	0.05166
3703.01422	0.05222
3701.72845	0.05265
3700.44268	0.05294
3699.15691	0.05293
3697.87115	0.05283
3696.58538	0.05299
3695.29961	0.05327
3694.01384	0.05279
3692.72807	0.05244
3691.44230	0.05210
3690.15653	0.05100
3688.87076	0.04975
3687.58500	0.04888
3686.29923	0.04823
3685.01346	0.04880
3683.72769	0.05032
3682.44192	0.05170
3681.15615	0.05265
3679.87038	0.05260
3678.58461	0.05132
3677.29884	0.05000
3676.01308	0.04929
3674.72731	0.04937
3673.44154	0.04995
3672.15577	0.05034
3670.87000	0.05040
3669.58423	0.05017
3668.29846	0.04983
3667.01269	0.04958
3665.72693	0.04932
3664.44116	0.04911
3663.15539	0.04883
3661.86962	0.04873
3660.58385	0.04897
3659.29808	0.04939
3658.01231	0.04977
3656.72654	0.05005
3655.44077	0.05037
3654.15501	0.05072
3652.86924	0.05087
3651.58347	0.05067
3650.29770	0.05034
3649.01193	0.05033
3647.72616	0.05082
3646.44039	0.05158
3645.15462	0.05219
3643.86886	0.05266
3642.58309	0.05285
3641.29732	0.05261
3640.01155	0.05203
3638.72578	0.05145
3637.44001	0.05128
3636.15424	0.05168
3634.86847	0.05226
3633.58270	0.05285
3632.29694	0.05328
3631.01117	0.05349
3629.72540	0.05411
3628.43963	0.05472
3627.15386	0.05481
3625.86809	0.05406
3624.58232	0.05352
3623.29655	0.05317
3622.01079	0.05333
3620.72502	0.05368
3619.43925	0.05464
3618.15348	0.05574
3616.86771	0.05637
3615.58194	0.05663
3614.29617	0.05678
3613.01040	0.05661
3611.72463	0.05576
3610.43887	0.05503
3609.15310	0.05508
3607.86733	0.05570
3606.58156	0.05604
3605.29579	0.05619
3604.01002	0.05670
3602.72425	0.05739
3601.43848	0.05832
3600.15272	0.05936
3598.86695	0.06002
3597.58118	0.05954
3596.29541	0.05881
3595.00964	0.05804
3593.72387	0.05762
3592.43810	0.05854
3591.15233	0.05988
3589.86656	0.06035
3588.58080	0.06018
3587.29503	0.05952
3586.00926	0.05900
3584.72349	0.05894
3583.43772	0.05925
3582.15195	0.05946
3580.86618	0.05935
3579.58041	0.05913
3578.29464	0.05913
3577.00888	0.05933
3575.72311	0.05974
3574.43734	0.05991
3573.15157	0.05964
3571.86580	0.05929
3570.58003	0.05925
3569.29426	0.05981
3568.00849	0.06073
3566.72273	0.06143
3565.43696	0.06166
3564.15119	0.06124
3562.86542	0.06056
3561.57965	0.06007
3560.29388	0.05993
3559.00811	0.06012
3557.72234	0.06053
3556.43657	0.06104
3555.15081	0.06152
3553.86504	0.06189
3552.57927	0.06215
3551.29350	0.06231
3550.00773	0.06235
3548.72196	0.06232
3547.43619	0.06245
3546.15042	0.06289
3544.86466	0.06345
3543.57889	0.06374
3542.29312	0.06359
3541.00735	0.06324
3539.72158	0.06304
3538.43581	0.06304
3537.15004	0.06309
3535.86427	0.06313
3534.57850	0.06328
3533.29274	0.06358
3532.00697	0.06383
3530.72120	0.06383
3529.43543	0.06374
3528.14966	0.06387
3526.86389	0.06436
3525.57812	0.06505
3524.29235	0.06570
3523.00659	0.06612
3521.72082	0.06618
3520.43505	0.06587
3519.14928	0.06537
3517.86351	0.06498
3516.57774	0.06491
3515.29197	0.06516
3514.00620	0.06555
3512.72043	0.06581
3511.43467	0.06579
3510.14890	0.06548
3508.86313	0.06505
3507.57736	0.06468
3506.29159	0.06454
3505.00582	0.06468
3503.72005	0.06497
3502.43428	0.06519
3501.14852	0.06528
3499.86275	0.06545
3498.57698	0.06593
3497.29121	0.06661
3496.00544	0.06716
3494.71967	0.06730
3493.43390	0.06711
3492.14813	0.06690
3490.86236	0.06696
3489.57660	0.06739
3488.29083	0.06801
3487.00506	0.06851
3485.71929	0.06864
3484.43352	0.06840
3483.14775	0.06806
3481.86198	0.06793
3480.57621	0.06815
3479.29045	0.06868
3478.00468	0.06935
3476.71891	0.06988
3475.43314	0.07004
3474.14737	0.06979
3472.86160	0.06934
3471.57583	0.06898
3470.29006	0.06890
3469.00429	0.06903
3467.71853	0.06925
3466.43276	0.06943
3465.14699	0.06952
3463.86122	0.06952
3462.57545	0.06950
3461.28968	0.06955
3460.00391	0.06976
3458.71814	0.07003
3457.43238	0.07012
3456.14661	0.06985
3454.86084	0.06934
3453.57507	0.06892
3452.28930	0.06889
3451.00353	0.06926
3449.71776	0.06983
3448.43199	0.07040
3447.14622	0.07086
3445.86046	0.07123
3444.57469	0.07155
3443.28892	0.07183
3442.00315	0.07203
3440.71738	0.07212
3439.43161	0.07208
3438.14584	0.07185
3436.86007	0.07135
3435.57431	0.07066
3434.28854	0.07003
3433.00277	0.06982
3431.71700	0.07009
3430.43123	0.07058
3429.14546	0.07103
3427.85969	0.07149
3426.57392	0.07216
3425.28815	0.07296
3424.00239	0.07357
3422.71662	0.07372
3421.43085	0.07350
3420.14508	0.07325
3418.85931	0.07316
3417.57354	0.07314
3416.28777	0.07300
3415.00200	0.07270
3413.71624	0.07247
3412.43047	0.07250
3411.14470	0.07271
3409.85893	0.07281
3408.57316	0.07267
3407.28739	0.07247
3406.00162	0.07250
3404.71585	0.07285
3403.43008	0.07337
3402.14432	0.07385
3400.85855	0.07410
3399.57278	0.07404
3398.28701	0.07377
3397.00124	0.07354
3395.71547	0.07350
3394.42970	0.07349
3393.14393	0.07321
3391.85817	0.07270
3390.57240	0.07242
3389.28663	0.07281
3388.00086	0.07373
3386.71509	0.07463
3385.42932	0.07512
3384.14355	0.07526
3382.85778	0.07525
3381.57201	0.07515
3380.28625	0.07484
3379.00048	0.07428
3377.71471	0.07364
3376.42894	0.07319
3375.14317	0.07308
3373.85740	0.07331
3372.57163	0.07378
3371.28586	0.07435
3370.00010	0.07480
3368.71433	0.07491
3367.42856	0.07464
3366.14279	0.07423
3364.85702	0.07395
3363.57125	0.07385
3362.28548	0.07378
3360.99971	0.07372
3359.71394	0.07377
3358.42818	0.07403
3357.14241	0.07434
3355.85664	0.07450
3354.57087	0.07446
3353.28510	0.07437
3351.99933	0.07440
3350.71356	0.07460
3349.42779	0.07493
3348.14202	0.07538
3346.85626	0.07587
3345.57049	0.07624
3344.28472	0.07635
3342.99895	0.07620
3341.71318	0.07592
3340.42741	0.07563
3339.14164	0.07542
3337.85587	0.07533
3336.57011	0.07538
3335.28434	0.07552
3333.99857	0.07563
3332.71280	0.07557
3331.42703	0.07528
3330.14126	0.07484
3328.85549	0.07443
3327.56972	0.07418
3326.28395	0.07412
3324.99819	0.07419
3323.71242	0.07422
3322.42665	0.07415
3321.14088	0.07409
3319.85511	0.07427
3318.56934	0.07471
3317.28357	0.07522
3315.99780	0.07551
3314.71204	0.07547
3313.42627	0.07511
3312.14050	0.07457
3310.85473	0.07408
3309.56896	0.07383
3308.28319	0.07387
3306.99742	0.07404
3305.71165	0.07415
3304.42588	0.07415
3303.14012	0.07419
3301.85435	0.07442
3300.56858	0.07479
3299.28281	0.07505
3297.99704	0.07498
3296.71127	0.07459
3295.42550	0.07404
3294.13973	0.07352
3292.85397	0.07315
3291.56820	0.07299
3290.28243	0.07305
3288.99666	0.07329
3287.71089	0.07354
3286.42512	0.07360
3285.13935	0.07343
3283.85358	0.07313
3282.56781	0.07290
3281.28205	0.07280
3279.99628	0.07283
3278.71051	0.07294
3277.42474	0.07308
3276.13897	0.07317
3274.85320	0.07321
3273.56743	0.07323
3272.28166	0.07327
3270.99590	0.07332
3269.71013	0.07334
3268.42436	0.07326
3267.13859	0.07312
3265.85282	0.07305
3264.56705	0.07324
3263.28128	0.07369
3261.99551	0.07417
3260.70974	0.07443
3259.42398	0.07435
3258.13821	0.07401
3256.85244	0.07361
3255.56667	0.07334
3254.28090	0.07331
3252.99513	0.07351
3251.70936	0.07382
3250.42359	0.07408
3249.13783	0.07421
3247.85206	0.07421
3246.56629	0.07411
3245.28052	0.07388
3243.99475	0.07359
3242.70898	0.07335
3241.42321	0.07318
3240.13744	0.07294
3238.85167	0.07248
3237.56591	0.07192
3236.28014	0.07155
3234.99437	0.07152
3233.70860	0.07169
3232.42283	0.07178
3231.13706	0.07162
3229.85129	0.07128
3228.56552	0.07106
3227.27976	0.07123
3225.99399	0.07171
3224.70822	0.07210
3223.42245	0.07198
3222.13668	0.07132
3220.85091	0.07050
3219.56514	0.07001
3218.27937	0.07007
3216.99360	0.07045
3215.70784	0.07069
3214.42207	0.07054
3213.13630	0.07014
3211.85053	0.06978
3210.56476	0.06959
3209.27899	0.06953
3207.99322	0.06960
3206.70745	0.06983
3205.42169	0.07017
3204.13592	0.07048
3202.85015	0.07065
3201.56438	0.07066
3200.27861	0.07052
3198.99284	0.07028
3197.70707	0.07002
3196.42130	0.06989
3195.13553	0.06994
3193.84977	0.07019
3192.56400	0.07060
3191.27823	0.07100
3189.99246	0.07120
3188.70669	0.07114
3187.42092	0.07100
3186.13515	0.07096
3184.84938	0.07096
3183.56362	0.07078
3182.27785	0.07026
3180.99208	0.06955
3179.70631	0.06895
3178.42054	0.06865
3177.13477	0.06870
3175.84900	0.06894
3174.56323	0.06916
3173.27746	0.06921
3171.99170	0.06913
3170.70593	0.06899
3169.42016	0.06877
3168.13439	0.06842
3166.84862	0.06805
3165.56285	0.06781
3164.27708	0.06779
3162.99131	0.06790
3161.70555	0.06804
3160.41978	0.06811
3159.13401	0.06813
3157.84824	0.06816
3156.56247	0.06828
3155.27670	0.06844
3153.99093	0.06848
3152.70516	0.06831
3151.41939	0.06797
3150.13363	0.06763
3148.84786	0.06742
3147.56209	0.06736
3146.27632	0.06734
3144.99055	0.06728
3143.70478	0.06718
3142.41901	0.06713
3141.13324	0.06714
3139.84748	0.06712
3138.56171	0.06699
3137.27594	0.06682
3135.99017	0.06671
3134.70440	0.06666
3133.41863	0.06659
3132.13286	0.06638
3130.84709	0.06607
3129.56132	0.06583
3128.27556	0.06584
3126.98979	0.06609
3125.70402	0.06636
3124.41825	0.06643
3123.13248	0.06630
3121.84671	0.06615
3120.56094	0.06610
3119.27517	0.06614
3117.98940	0.06613
3116.70364	0.06601
3115.41787	0.06575
3114.13210	0.06541
3112.84633	0.06508
3111.56056	0.06489
3110.27479	0.06493
3108.98902	0.06514
3107.70325	0.06541
3106.41749	0.06564
3105.13172	0.06580
3103.84595	0.06589
3102.56018	0.06593
3101.27441	0.06592
3099.98864	0.06585
3098.70287	0.06566
3097.41710	0.06530
3096.13133	0.06474
3094.84557	0.06410
3093.55980	0.06353
3092.27403	0.06317
3090.98826	0.06302
3089.70249	0.06298
3088.41672	0.06298
3087.13095	0.06301
3085.84518	0.06311
3084.55942	0.06327
3083.27365	0.06341
3081.98788	0.06342
3080.70211	0.06330
3079.41634	0.06315
3078.13057	0.06304
3076.84480	0.06293
3075.55903	0.06273
3074.27326	0.06243
3072.98750	0.06209
3071.70173	0.06179
3070.41596	0.06164
3069.13019	0.06168
3067.84442	0.06188
3066.55865	0.06213
3065.27288	0.06235
3063.98711	0.06253
3062.70135	0.06263
3061.41558	0.06263
3060.12981	0.06256
3058.84404	0.06246
3057.55827	0.06233
3056.27250	0.06204
3054.98673	0.06156
3053.70096	0.06100
3052.41519	0.06060
3051.12943	0.06049
3049.84366	0.06059
3048.55789	0.06064
3047.27212	0.06047
3045.98635	0.06014
3044.70058	0.05987
3043.41481	0.05976
3042.12904	0.05975
3040.84328	0.05966
3039.55751	0.05954
3038.27174	0.05955
3036.98597	0.05980
3035.70020	0.06019
3034.41443	0.06052
3033.12866	0.06065
3031.84289	0.06051
3030.55712	0.06005
3029.27136	0.05936
3027.98559	0.05873
3026.69982	0.05843
3025.41405	0.05845
3024.12828	0.05852
3022.84251	0.05846
3021.55674	0.05832
3020.27097	0.05820
3018.98521	0.05813
3017.69944	0.05800
3016.41367	0.05781
3015.12790	0.05759
3013.84213	0.05743
3012.55636	0.05734
3011.27059	0.05735
3009.98482	0.05747
3008.69905	0.05764
3007.41329	0.05770
3006.12752	0.05757
3004.84175	0.05729
3003.55598	0.05694
3002.27021	0.05664
3000.98444	0.05646
2999.69867	0.05638
2998.41290	0.05633
2997.12714	0.05624
2995.84137	0.05615
2994.55560	0.05623
2993.26983	0.05652
2991.98406	0.05693
2990.69829	0.05730
2989.41252	0.05753
2988.12675	0.05757
2986.84098	0.05746
2985.55522	0.05731
2984.26945	0.05728
2982.98368	0.05749
2981.69791	0.05787
2980.41214	0.05824
2979.12637	0.05855
2977.84060	0.05894
2976.55483	0.05960
2975.26907	0.06065
2973.98330	0.06195
2972.69753	0.06324
2971.41176	0.06432
2970.12599	0.06521
2968.84022	0.06614
2967.55445	0.06731
2966.26868	0.06873
2964.98291	0.07028
2963.69715	0.07178
2962.41138	0.07312
2961.12561	0.07428
2959.83984	0.07541
2958.55407	0.07675
2957.26830	0.07842
2955.98253	0.08019
2954.69676	0.08164
2953.41100	0.08253
2952.12523	0.08293
2950.83946	0.08308
2949.55369	0.08305
2948.26792	0.08280
2946.98215	0.08235
2945.69638	0.08183
2944.41061	0.08138
2943.12484	0.08114
2941.83908	0.08119
2940.55331	0.08152
2939.26754	0.08211
2937.98177	0.08297
2936.69600	0.08408
2935.41023	0.08536
2934.12446	0.08671
2932.83869	0.08808
2931.55293	0.08943
2930.26716	0.09066
2928.98139	0.09168
2927.69562	0.09252
2926.40985	0.09336
2925.12408	0.09429
2923.83831	0.09525
2922.55254	0.09599
2921.26677	0.09626
2919.98101	0.09599
2918.69524	0.09528
2917.40947	0.09441
2916.12370	0.09358
2914.83793	0.09280
2913.55216	0.09190
2912.26639	0.09081
2910.98062	0.08963
2909.69486	0.08849
2908.40909	0.08744
2907.12332	0.08649
2905.83755	0.08567
2904.55178	0.08507
2903.26601	0.08466
2901.98024	0.08430
2900.69447	0.08381
2899.40870	0.08310
2898.12294	0.08223
2896.83717	0.08130
2895.55140	0.08039
2894.26563	0.07954
2892.97986	0.07879
2891.69409	0.07815
2890.40832	0.07755
2889.12255	0.07682
2887.83678	0.07599
2886.55102	0.07522
2885.26525	0.07467
2883.97948	0.07433
2882.69371	0.07410
2881.40794	0.07390
2880.12217	0.07374
2878.83640	0.07370
2877.55063	0.07384
2876.26487	0.07423
2874.97910	0.07481
2873.69333	0.07543
2872.40756	0.07590
2871.12179	0.07619
2869.83602	0.07640
2868.55025	0.07666
2867.26448	0.07704
2865.97871	0.07747
2864.69295	0.07780
2863.40718	0.07798
2862.12141	0.07804
2860.83564	0.07806
2859.54987	0.07812
2858.26410	0.07821
2856.97833	0.07826
2855.69256	0.07824
2854.40680	0.07817
2853.12103	0.07813
2851.83526	0.07812
2850.54949	0.07800
2849.26372	0.07757
2847.97795	0.07673
2846.69218	0.07558
2845.40641	0.07427
2844.12064	0.07296
2842.83488	0.07172
2841.54911	0.07058
2840.26334	0.06950
2838.97757	0.06845
2837.69180	0.06738
2836.40603	0.06632
2835.12026	0.06534
2833.83449	0.06447
2832.54873	0.06367
2831.26296	0.06289
2829.97719	0.06213
2828.69142	0.06144
2827.40565	0.06083
2826.11988	0.06023
2824.83411	0.05955
2823.54834	0.05880
2822.26257	0.05808
2820.97681	0.05749
2819.69104	0.05701
2818.40527	0.05661
2817.11950	0.05628
2815.83373	0.05609
2814.54796	0.05606
2813.26219	0.05611
2811.97642	0.05615
2810.69066	0.05613
2809.40489	0.05602
2808.11912	0.05584
2806.83335	0.05562
2805.54758	0.05536
2804.26181	0.05501
2802.97604	0.05459
2801.69027	0.05425
2800.40450	0.05409
2799.11874	0.05404
2797.83297	0.05394
2796.54720	0.05376
2795.26143	0.05359
2793.97566	0.05347
2792.68989	0.05335
2791.40412	0.05316
2790.11835	0.05285
2788.83259	0.05247
2787.54682	0.05220
2786.26105	0.05211
2784.97528	0.05207
2783.68951	0.05192
2782.40374	0.05165
2781.11797	0.05138
2779.83220	0.05123
2778.54643	0.05124
2777.26067	0.05134
2775.97490	0.05142
2774.68913	0.05142
2773.40336	0.05134
2772.11759	0.05123
2770.83182	0.05109
2769.54605	0.05092
2768.26028	0.05073
2766.97452	0.05059
2765.68875	0.05054
2764.40298	0.05061
2763.11721	0.05071
2761.83144	0.05071
2760.54567	0.05050
2759.25990	0.05015
2757.97413	0.04984
2756.68836	0.04967
2755.40260	0.04957
2754.11683	0.04941
2752.83106	0.04918
2751.54529	0.04897
2750.25952	0.04887
2748.97375	0.04887
2747.68798	0.04893
2746.40221	0.04907
2745.11645	0.04924
2743.83068	0.04935
2742.54491	0.04941
2741.25914	0.04945
2739.97337	0.04948
2738.68760	0.04943
2737.40183	0.04927
2736.11606	0.04904
2734.83029	0.04882
2733.54453	0.04870
2732.25876	0.04869
2730.97299	0.04869
2729.68722	0.04862
2728.40145	0.04851
2727.11568	0.04846
2725.82991	0.04849
2724.54414	0.04852
2723.25838	0.04848
2721.97261	0.04838
2720.68684	0.04823
2719.40107	0.04804
2718.11530	0.04785
2716.82953	0.04771
2715.54376	0.04761
2714.25799	0.04753
2712.97222	0.04745
2711.68646	0.04736
2710.40069	0.04726
2709.11492	0.04713
2707.82915	0.04697
2706.54338	0.04675
2705.25761	0.04647
2703.97184	0.04624
2702.68607	0.04617
2701.40031	0.04626
2700.11454	0.04638
2698.82877	0.04644
2697.54300	0.04647
2696.25723	0.04651
2694.97146	0.04652
2693.68569	0.04646
2692.39992	0.04632
2691.11415	0.04614
2689.82839	0.04601
2688.54262	0.04600
2687.25685	0.04608
2685.97108	0.04608
2684.68531	0.04589
2683.39954	0.04558
2682.11377	0.04533
2680.82800	0.04526
2679.54224	0.04535
2678.25647	0.04547
2676.97070	0.04550
2675.68493	0.04539
2674.39916	0.04519
2673.11339	0.04503
2671.82762	0.04498
2670.54185	0.04502
2669.25608	0.04506
2667.97032	0.04501
2666.68455	0.04487
2665.39878	0.04472
2664.11301	0.04466
2662.82724	0.04475
2661.54147	0.04493
2660.25570	0.04512
2658.96993	0.04518
2657.68417	0.04506
2656.39840	0.04478
2655.11263	0.04450
2653.82686	0.04435
2652.54109	0.04443
2651.25532	0.04463
2649.96955	0.04480
2648.68378	0.04480
2647.39801	0.04459
2646.11225	0.04425
2644.82648	0.04386
2643.54071	0.04348
2642.25494	0.04314
2640.96917	0.04289
2639.68340	0.04278
2638.39763	0.04277
2637.11186	0.04273
2635.82609	0.04249
2634.54033	0.04206
2633.25456	0.04161
2631.96879	0.04133
2630.68302	0.04121
2629.39725	0.04119
2628.11148	0.04117
2626.82571	0.04110
2625.53994	0.04092
2624.25418	0.04058
2622.96841	0.04014
2621.68264	0.03976
2620.39687	0.03960
2619.11110	0.03963
2617.82533	0.03962
2616.53956	0.03942
2615.25379	0.03915
2613.96802	0.03902
2612.68226	0.03904
2611.39649	0.03902
2610.11072	0.03884
2608.82495	0.03867
2607.53918	0.03874
2606.25341	0.03910
2604.96764	0.03954
2603.68187	0.03976
2602.39611	0.03965
2601.11034	0.03928
2599.82457	0.03890
2598.53880	0.03868
2597.25303	0.03863
2595.96726	0.03858
2594.68149	0.03840
2593.39572	0.03811
2592.10995	0.03780
2590.82419	0.03757
2589.53842	0.03743
2588.25265	0.03738
2586.96688	0.03741
2585.68111	0.03749
2584.39534	0.03763
2583.10957	0.03784
2581.82380	0.03806
2580.53804	0.03808
2579.25227	0.03762
2577.96650	0.03668
2576.68073	0.03564
2575.39496	0.03501
2574.10919	0.03494
2572.82342	0.03516
2571.53765	0.03531
2570.25188	0.03527
2568.96612	0.03517
2567.68035	0.03516
2566.39458	0.03530
2565.10881	0.03552
2563.82304	0.03572
2562.53727	0.03583
2561.25150	0.03580
2559.96573	0.03562
2558.67997	0.03538
2557.39420	0.03524
2556.10843	0.03533
2554.82266	0.03562
2553.53689	0.03602
2552.25112	0.03635
2550.96535	0.03638
2549.67958	0.03602
2548.39381	0.03548
2547.10805	0.03507
2545.82228	0.03494
2544.53651	0.03504
2543.25074	0.03529
2541.96497	0.03554
2540.67920	0.03558
2539.39343	0.03527
2538.10766	0.03472
2536.82190	0.03422
2535.53613	0.03390
2534.25036	0.03368
2532.96459	0.03348
2531.67882	0.03333
2530.39305	0.03339
2529.10728	0.03368
2527.82151	0.03404
2526.53574	0.03429
2525.24998	0.03431
2523.96421	0.03414
2522.67844	0.03386
2521.39267	0.03360
2520.10690	0.03348
2518.82113	0.03354
2517.53536	0.03365
2516.24959	0.03368
2514.96383	0.03356
2513.67806	0.03334
2512.39229	0.03307
2511.10652	0.03280
2509.82075	0.03263
2508.53498	0.03268
2507.24921	0.03295
2505.96344	0.03332
2504.67767	0.03378
2503.39191	0.03431
2502.10614	0.03476
2500.82037	0.03481
2499.53460	0.03429
2498.24883	0.03350
2496.96306	0.03289
2495.67729	0.03270
2494.39152	0.03281
2493.10576	0.03294
2491.81999	0.03293
2490.53422	0.03279
2489.24845	0.03256
2487.96268	0.03237
2486.67691	0.03237
2485.39114	0.03262
2484.10537	0.03294
2482.81960	0.03309
2481.53384	0.03307
2480.24807	0.03300
2478.96230	0.03290
2477.67653	0.03271
2476.39076	0.03252
2475.10499	0.03253
2473.81922	0.03283
2472.53345	0.03322
2471.24769	0.03339
2469.96192	0.03320
2468.67615	0.03277
2467.39038	0.03239
2466.10461	0.03219
2464.81884	0.03210
2463.53307	0.03204
2462.24730	0.03202
2460.96153	0.03210
2459.67577	0.03222
2458.39000	0.03234
2457.10423	0.03255
2455.81846	0.03287
2454.53269	0.03318
2453.24692	0.03326
2451.96115	0.03306
2450.67538	0.03272
2449.38962	0.03250
2448.10385	0.03254
2446.81808	0.03271
2445.53231	0.03279
2444.24654	0.03266
2442.96077	0.03238
2441.67500	0.03214
2440.38923	0.03208
2439.10346	0.03227
2437.81770	0.03256
2436.53193	0.03272
2435.24616	0.03262
2433.96039	0.03236
2432.67462	0.03212
2431.38885	0.03199
2430.10308	0.03194
2428.81731	0.03193
2427.53155	0.03195
2426.24578	0.03198
2424.96001	0.03195
2423.67424	0.03179
2422.38847	0.03152
2421.10270	0.03120
2419.81693	0.03092
2418.53116	0.03076
2417.24539	0.03077
2415.95963	0.03096
2414.67386	0.03118
2413.38809	0.03126
2412.10232	0.03114
2410.81655	0.03100
2409.53078	0.03103
2408.24501	0.03127
2406.95924	0.03158
2405.67347	0.03182
2404.38771	0.03193
2403.10194	0.03187
2401.81617	0.03168
2400.53040	0.03129
2399.24463	0.02736
2397.95886	0.02494
2396.67309	0.02526
2395.38732	0.02692
2394.10156	0.02894
2392.81579	0.03097
2391.53002	0.03298
2390.24425	0.03495
2388.95848	0.03694
2387.67271	0.03904
2386.38694	0.04119
2385.10117	0.04305
2383.81540	0.04418
2382.52964	0.04432
2381.24387	0.04373
2379.95810	0.04249
2378.67233	0.04126
2377.38656	0.04088
2376.10079	0.04047
2374.81502	0.04013
2373.52925	0.04120
2372.24349	0.04271
2370.95772	0.04507
2369.67195	0.04555
2368.38618	0.04504
2367.10041	0.04662
2365.81464	0.04956
2364.52887	0.04972
2363.24310	0.04952
2361.95733	0.05225
2360.67157	0.05666
2359.38580	0.05782
2358.10003	0.05727
2356.81426	0.05718
2355.52849	0.05701
2354.24272	0.05736
2352.95695	0.05839
2351.67118	0.06271
2350.38542	0.07277
2349.09965	0.07954
2347.81388	0.07190
2346.52811	0.05832
2345.24234	0.05190
2343.95657	0.05380
2342.67080	0.05593
2341.38503	0.05658
2340.09926	0.05791
2338.81350	0.05901
2337.52773	0.05970
2336.24196	0.05865
2334.95619	0.05794
2333.67042	0.05848
2332.38465	0.05717
2331.09888	0.05649
2329.81311	0.05828
2328.52735	0.05869
2327.24158	0.05971
2325.95581	0.06042
2324.67004	0.05661
2323.38427	0.05116
2322.09850	0.04686
2320.81273	0.04152
2319.52696	0.03997
2318.24119	0.04209
2316.95543	0.04295
2315.66966	0.04299
2314.38389	0.04180
2313.09812	0.03959
2311.81235	0.03869
2310.52658	0.03761
2309.24081	0.03735
2307.95504	0.03829
2306.66928	0.03815
2305.38351	0.03882
2304.09774	0.03916
2302.81197	0.03848
2301.52620	0.03791
2300.24043	0.03747
2298.95466	0.03788
2297.66889	0.03808
2296.38312	0.03779
2295.09736	0.03714
2293.81159	0.03626
2292.52582	0.03571
2291.24005	0.03515
2289.95428	0.03464
2288.66851	0.03383
2287.38274	0.03257
2286.09697	0.03091
2284.81121	0.02927
2283.52544	0.02797
2282.23967	0.02702
2280.95390	0.02645
2279.66813	0.02604
2278.38236	0.02586
2277.09659	0.02581
2275.81082	0.02602
2274.52505	0.02639
2273.23929	0.02669
2271.95352	0.02685
2270.66775	0.02694
2269.38198	0.02699
2268.09621	0.02690
2266.81044	0.02678
2265.52467	0.02677
2264.23890	0.02686
2262.95314	0.02697
2261.66737	0.02698
2260.38160	0.02691
2259.09583	0.02699
2257.81006	0.02705
2256.52429	0.02689
2255.23852	0.02642
2253.95275	0.02624
2252.66698	0.02653
2251.38122	0.02679
2250.09545	0.02600
2248.80968	0.02373
2247.52391	0.02319
2246.23814	0.02355
2244.95237	0.02458
2243.66660	0.02571
2242.38083	0.02641
2241.09507	0.02651
2239.80930	0.02619
2238.52353	0.02573
2237.23776	0.02532
2235.95199	0.02483
2234.66622	0.02402
2233.38045	0.02285
2232.09468	0.02172
2230.80891	0.02109
2229.52315	0.02114
2228.23738	0.02164
2226.95161	0.02214
2225.66584	0.02229
2224.38007	0.02192
2223.09430	0.02099
2221.80853	0.01970
2220.52276	0.01859
2219.23700	0.01824
2217.95123	0.01878
2216.66546	0.01971
2215.37969	0.02044
2214.09392	0.02079
2212.80815	0.02100
2211.52238	0.02122
2210.23661	0.02131
2208.95084	0.02116
2207.66508	0.02099
2206.37931	0.02108
2205.09354	0.02131
2203.80777	0.02131
2202.52200	0.02096
2201.23623	0.02039
2199.95046	0.01954
2198.66469	0.01824
2197.37893	0.01675
2196.09316	0.01585
2194.80739	0.01611
2193.52162	0.01726
2192.23585	0.01830
2190.95008	0.01839
2189.66431	0.01762
2188.37854	0.01692
2187.09277	0.01706
2185.80701	0.01787
2184.52124	0.01849
2183.23547	0.01834
2181.94970	0.01764
2180.66393	0.01699
2179.37816	0.01673
2178.09239	0.01675
2176.80662	0.01671
2175.52085	0.01637
2174.23509	0.01578
2172.94932	0.01518
2171.66355	0.01486
2170.37778	0.01495
2169.09201	0.01543
2167.80624	0.01602
2166.52047	0.01628
2165.23470	0.01602
2163.94894	0.01555
2162.66317	0.01524
2161.37740	0.01483
2160.09163	0.01364
2158.80586	0.01159
2157.52009	0.00967
2156.23432	0.00881
2154.94855	0.00903
2153.66278	0.00986
2152.37702	0.01100
2151.09125	0.01233
2149.80548	0.01361
2148.51971	0.01457
2147.23394	0.01521
2145.94817	0.01568
2144.66240	0.01604
2143.37663	0.01624
2142.09087	0.01626
2140.80510	0.01613
2139.51933	0.01588
2138.23356	0.01559
2136.94779	0.01543
2135.66202	0.01559
2134.37625	0.01609
2133.09048	0.01668
2131.80471	0.01719
2130.51895	0.01771
2129.23318	0.01838
2127.94741	0.01901
2126.66164	0.01922
2125.37587	0.01890
2124.09010	0.01842
2122.80433	0.01820
2121.51856	0.01830
2120.23280	0.01853
2118.94703	0.01870
2117.66126	0.01876
2116.37549	0.01881
2115.08972	0.01892
2113.80395	0.01916
2112.51818	0.01949
2111.23241	0.01985
2109.94664	0.02003
2108.66088	0.01983
2107.37511	0.01931
2106.08934	0.01880
2104.80357	0.01860
2103.51780	0.01864
2102.23203	0.01865
2100.94626	0.01857
2099.66049	0.01833
2098.37473	0.01818
2097.08896	0.01800
2095.80319	0.01770
2094.51742	0.01741
2093.23165	0.01731
2091.94588	0.01737
2090.66011	0.01744
2089.37434	0.01745
2088.08857	0.01746
2086.80281	0.01760
2085.51704	0.01787
2084.23127	0.01813
2082.94550	0.01817
2081.65973	0.01788
2080.37396	0.01736
2079.08819	0.01691
2077.80242	0.01673
2076.51666	0.01678
2075.23089	0.01671
2073.94512	0.01624
2072.65935	0.01541
2071.37358	0.01455
2070.08781	0.01402
2068.80204	0.01393
2067.51627	0.01411
2066.23050	0.01433
2064.94474	0.01446
2063.65897	0.01452
2062.37320	0.01459
2061.08743	0.01476
2059.80166	0.01500
2058.51589	0.01512
2057.23012	0.01484
2055.94435	0.01414
2054.65859	0.01330
2053.37282	0.01272
2052.08705	0.01254
2050.80128	0.01262
2049.51551	0.01265
2048.22974	0.01238
2046.94397	0.01178
2045.65820	0.01104
2044.37243	0.01035
2043.08667	0.00982
2041.80090	0.00956
2040.51513	0.00982
2039.22936	0.01066
2037.94359	0.01159
2036.65782	0.01180
2035.37205	0.01093
2034.08628	0.00946
2032.80052	0.00829
2031.51475	0.00790
2030.22898	0.00811
2028.94321	0.00848
2027.65744	0.00867
2026.37167	0.00855
2025.08590	0.00820
2023.80013	0.00788
2022.51436	0.00782
2021.22860	0.00801
2019.94283	0.00818
2018.65706	0.00810
2017.37129	0.00793
2016.08552	0.00803
2014.79975	0.00861
2013.51398	0.00947
2012.22821	0.01021
2010.94245	0.01048
2009.65668	0.01016
2008.37091	0.00947
2007.08514	0.00884
2005.79937	0.00865
2004.51360	0.00890
2003.22783	0.00940
2001.94206	0.01005
2000.65629	0.01095
1999.37053	0.01206
1998.08476	0.01306
1996.79899	0.01356
1995.51322	0.01342
1994.22745	0.01291
1992.94168	0.01243
1991.65591	0.01231
1990.37014	0.01269
1989.08438	0.01344
1987.79861	0.01417
1986.51284	0.01441
1985.22707	0.01404
1983.94130	0.01340
1982.65553	0.01293
1981.36976	0.01262
1980.08399	0.01210
1978.79822	0.01118
1977.51246	0.01017
1976.22669	0.00958
1974.94092	0.00966
1973.65515	0.01022
1972.36938	0.01092
1971.08361	0.01145
1969.79784	0.01159
1968.51207	0.01130
1967.22631	0.01084
1965.94054	0.01061
1964.65477	0.01088
1963.36900	0.01152
1962.08323	0.01219
1960.79746	0.01268
1959.51169	0.01308
1958.22592	0.01362
1956.94015	0.01430
1955.65439	0.01484
1954.36862	0.01497
1953.08285	0.01471
1951.79708	0.01437
1950.51131	0.01419
1949.22554	0.01428
1947.93977	0.01459
1946.65400	0.01505
1945.36823	0.01558
1944.08247	0.01611
1942.79670	0.01659
1941.51093	0.01692
1940.22516	0.01697
1938.93939	0.01662
1937.65362	0.01591
1936.36785	0.01516
1935.08208	0.01480
1933.79632	0.01503
1932.51055	0.01572
1931.22478	0.01654
1929.93901	0.01720
1928.65324	0.01757
1927.36747	0.01762
1926.08170	0.01744
1924.79593	0.01720
1923.51016	0.01708
1922.22440	0.01708
1920.93863	0.01704
1919.65286	0.01688
1918.36709	0.01669
1917.08132	0.01665
1915.79555	0.01685
1914.50978	0.01718
1913.22401	0.01750
1911.93825	0.01764
1910.65248	0.01755
1909.36671	0.01731
1908.08094	0.01708
1906.79517	0.01697
1905.50940	0.01693
1904.22363	0.01687
1902.93786	0.01679
1901.65209	0.01681
1900.36633	0.01702
1899.08056	0.01743
1897.79479	0.01788
1896.50902	0.01820
1895.22325	0.01831
1893.93748	0.01822
1892.65171	0.01803
1891.36594	0.01783
1890.08018	0.01769
1888.79441	0.01765
1887.50864	0.01773
1886.22287	0.01785
1884.93710	0.01792
1883.65133	0.01786
1882.36556	0.01768
1881.07979	0.01748
1879.79402	0.01738
1878.50826	0.01742
1877.22249	0.01759
1875.93672	0.01783
1874.65095	0.01809
1873.36518	0.01825
1872.07941	0.01824
1870.79364	0.01807
1869.50787	0.01785
1868.22211	0.01775
1866.93634	0.01791
1865.65057	0.01831
1864.36480	0.01881
1863.07903	0.01921
1861.79326	0.01940
1860.50749	0.01936
1859.22172	0.01913
1857.93595	0.01880
1856.65019	0.01850
1855.36442	0.01834
1854.07865	0.01834
1852.79288	0.01841
1851.50711	0.01840
1850.22134	0.01827
1848.93557	0.01813
1847.64980	0.01811
1846.36404	0.01821
1845.07827	0.01834
1843.79250	0.01845
1842.50673	0.01855
1841.22096	0.01864
1839.93519	0.01866
1838.64942	0.01863
1837.36365	0.01862
1836.07788	0.01865
1834.79212	0.01868
1833.50635	0.01865
1832.22058	0.01858
1830.93481	0.01856
1829.64904	0.01859
1828.36327	0.01861
1827.07750	0.01857
1825.79173	0.01855
1824.50597	0.01866
1823.22020	0.01889
1821.93443	0.01906
1820.64866	0.01900
1819.36289	0.01874
1818.07712	0.01849
1816.79135	0.01841
1815.50558	0.01855
1814.21981	0.01880
1812.93405	0.01906
1811.64828	0.01928
1810.36251	0.01943
1809.07674	0.01949
1807.79097	0.01944
1806.50520	0.01935
1805.21943	0.01925
1803.93366	0.01920
1802.64790	0.01921
1801.36213	0.01930
1800.07636	0.01945
1798.79059	0.01956
1797.50482	0.01958
1796.21905	0.01951
1794.93328	0.01943
1793.64751	0.01938
1792.36174	0.01939
1791.07598	0.01946
1789.79021	0.01954
1788.50444	0.01958
1787.21867	0.01953
1785.93290	0.01941
1784.64713	0.01932
1783.36136	0.01935
1782.07559	0.01950
1780.78983	0.01969
1779.50406	0.01978
1778.21829	0.01977
1776.93252	0.01972
1775.64675	0.01974
1774.36098	0.01989
1773.07521	0.02012
1771.78944	0.02033
1770.50367	0.02042
1769.21791	0.02040
1767.93214	0.02037
1766.64637	0.02042
1765.36060	0.02055
1764.07483	0.02069
1762.78906	0.02077
1761.50329	0.02079
1760.21752	0.02076
1758.93176	0.02075
1757.64599	0.02078
1756.36022	0.02082
1755.07445	0.02080
1753.78868	0.02070
1752.50291	0.02060
1751.21714	0.02063
1749.93137	0.02081
1748.64560	0.02106
1747.35984	0.02125
1746.07407	0.02131
1744.78830	0.02127
1743.50253	0.02119
1742.21676	0.02111
1740.93099	0.02108
1739.64522	0.02108
1738.35945	0.02108
1737.07369	0.02108
1735.78792	0.02110
1734.50215	0.02117
1733.21638	0.02133
1731.93061	0.02153
1730.64484	0.02175
1729.35907	0.02196
1728.07330	0.02216
1726.78753	0.02236
1725.50177	0.02254
1724.21600	0.02267
1722.93023	0.02274
1721.64446	0.02272
1720.35869	0.02267
1719.07292	0.02269
1717.78715	0.02288
1716.50138	0.02324
1715.21561	0.02370
1713.92985	0.02416
1712.64408	0.02458
1711.35831	0.02496
1710.07254	0.02531
1708.78677	0.02560
1707.50100	0.02583
1706.21523	0.02601
1704.92946	0.02614
1703.64370	0.02625
1702.35793	0.02637
1701.07216	0.02655
1699.78639	0.02680
1698.50062	0.02711
1697.21485	0.02746
1695.92908	0.02782
1694.64331	0.02817
1693.35754	0.02845
1692.07178	0.02864
1690.78601	0.02877
1689.50024	0.02885
1688.21447	0.02885
1686.92870	0.02873
1685.64293	0.02859
1684.35716	0.02857
1683.07139	0.02875
1681.78563	0.02909
1680.49986	0.02942
1679.21409	0.02966
1677.92832	0.02981
1676.64255	0.02994
1675.35678	0.03009
1674.07101	0.03027
1672.78524	0.03044
1671.49947	0.03058
1670.21371	0.03072
1668.92794	0.03093
1667.64217	0.03121
1666.35640	0.03153
1665.07063	0.03180
1663.78486	0.03200
1662.49909	0.03218
1661.21332	0.03238
1659.92756	0.03260
1658.64179	0.03278
1657.35602	0.03281
1656.07025	0.03271
1654.78448	0.03257
1653.49871	0.03257
1652.21294	0.03275
1650.92717	0.03303
1649.64140	0.03328
1648.35564	0.03344
1647.06987	0.03356
1645.78410	0.03370
1644.49833	0.03384
1643.21256	0.03396
1641.92679	0.03406
1640.64102	0.03412
1639.35525	0.03412
1638.06949	0.03409
1636.78372	0.03406
1635.49795	0.03410
1634.21218	0.03427
1632.92641	0.03453
1631.64064	0.03481
1630.35487	0.03501
1629.06910	0.03511
1627.78333	0.03513
1626.49757	0.03515
1625.21180	0.03522
1623.92603	0.03533
1622.64026	0.03544
1621.35449	0.03548
1620.06872	0.03545
1618.78295	0.03539
1617.49718	0.03539
1616.21142	0.03549
1614.92565	0.03569
1613.63988	0.03595
1612.35411	0.03620
1611.06834	0.03641
1609.78257	0.03658
1608.49680	0.03675
1607.21103	0.03694
1605.92526	0.03714
1604.63950	0.03731
1603.35373	0.03743
1602.06796	0.03752
1600.78219	0.03759
1599.49642	0.03768
1598.21065	0.03779
1596.92488	0.03792
1595.63911	0.03803
1594.35335	0.03809
1593.06758	0.03812
1591.78181	0.03817
1590.49604	0.03827
1589.21027	0.03839
1587.92450	0.03852
1586.63873	0.03863
1585.35296	0.03873
1584.06719	0.03882
1582.78143	0.03886
1581.49566	0.03886
1580.20989	0.03881
1578.92412	0.03879
1577.63835	0.03886
1576.35258	0.03907
1575.06681	0.03935
1573.78104	0.03958
1572.49528	0.03969
1571.20951	0.03971
1569.92374	0.03972
1568.63797	0.03980
1567.35220	0.03994
1566.06643	0.04009
1564.78066	0.04021
1563.49489	0.04027
1562.20912	0.04024
1560.92336	0.04012
1559.63759	0.04001
1558.35182	0.04000
1557.06605	0.04011
1555.78028	0.04028
1554.49451	0.04046
1553.20874	0.04062
1551.92297	0.04078
1550.63721	0.04093
1549.35144	0.04104
1548.06567	0.04110
1546.77990	0.04113
1545.49413	0.04109
1544.20836	0.04097
1542.92259	0.04081
1541.63682	0.04066
1540.35105	0.04062
1539.06529	0.04070
1537.77952	0.04083
1536.49375	0.04092
1535.20798	0.04092
1533.92221	0.04090
1532.63644	0.04093
1531.35067	0.04103
1530.06490	0.04119
1528.77914	0.04140
1527.49337	0.04167
1526.20760	0.04197
1524.92183	0.04229
1523.63606	0.04267
1522.35029	0.04313
1521.06452	0.04371
1519.77875	0.04435
1518.49298	0.04501
1517.20722	0.04568
1515.92145	0.04640
1514.63568	0.04721
1513.34991	0.04810
1512.06414	0.04904
1510.77837	0.04996
1509.49260	0.05082
1508.20683	0.05166
1506.92107	0.05254
1505.63530	0.05348
1504.34953	0.05443
1503.06376	0.05530
1501.77799	0.05606
1500.49222	0.05672
1499.20645	0.05732
1497.92068	0.05790
1496.63491	0.05847
1495.34915	0.05902
1494.06338	0.05953
1492.77761	0.06001
1491.49184	0.06047
1490.20607	0.06093
1488.92030	0.06147
1487.63453	0.06214
1486.34876	0.06292
1485.06299	0.06379
1483.77723	0.06468
1482.49146	0.06554
1481.20569	0.06639
1479.91992	0.06725
1478.63415	0.06815
1477.34838	0.06909
1476.06261	0.07005
1474.77684	0.07098
1473.49108	0.07188
1472.20531	0.07273
1470.91954	0.07356
1469.63377	0.07436
1468.34800	0.07511
1467.06223	0.07580
1465.77646	0.07644
1464.49069	0.07702
1463.20492	0.07752
1461.91916	0.07793
1460.63339	0.07826
1459.34762	0.07856
1458.06185	0.07895
1456.77608	0.07948
1455.49031	0.08009
1454.20454	0.08064
1452.91877	0.08106
1451.63301	0.08132
1450.34724	0.08147
1449.06147	0.08155
1447.77570	0.08155
1446.48993	0.08149
1445.20416	0.08135
1443.91839	0.08114
1442.63262	0.08087
1441.34685	0.08053
1440.06109	0.08015
1438.77532	0.07980
1437.48955	0.07956
1436.20378	0.07948
1434.91801	0.07957
1433.63224	0.07980
1432.34647	0.08017
1431.06070	0.08071
1429.77494	0.08143
1428.48917	0.08235
1427.20340	0.08342
1425.91763	0.08457
1424.63186	0.08571
1423.34609	0.08677
1422.06032	0.08771
1420.77455	0.08860
1419.48878	0.08947
1418.20302	0.09034
1416.91725	0.09115
1415.63148	0.09185
1414.34571	0.09240
1413.05994	0.09279
1411.77417	0.09301
1410.48840	0.09306
1409.20263	0.09293
1407.91687	0.09264
1406.63110	0.09217
1405.34533	0.09153
1404.05956	0.09071
1402.77379	0.08973
1401.48802	0.08862
1400.20225	0.08741
1398.91648	0.08613
1397.63071	0.08482
1396.34495	0.08349
1395.05918	0.08214
1393.77341	0.08074
1392.48764	0.07930
1391.20187	0.07786
1389.91610	0.07647
1388.63033	0.07520
1387.34456	0.07410
1386.05880	0.07316
1384.77303	0.07230
1383.48726	0.07141
1382.20149	0.07044
1380.91572	0.06941
1379.62995	0.06836
1378.34418	0.06730
1377.05841	0.06617
1375.77264	0.06489
1374.48688	0.06339
1373.20111	0.06170
1371.91534	0.05991
1370.62957	0.05815
1369.34380	0.05654
1368.05803	0.05508
1366.77226	0.05373
1365.48649	0.05241
1364.20073	0.05107
1362.91496	0.04969
1361.62919	0.04832
1360.34342	0.04704
1359.05765	0.04588
1357.77188	0.04485
1356.48611	0.04392
1355.20034	0.04305
1353.91457	0.04225
1352.62881	0.04152
1351.34304	0.04089
1350.05727	0.04031
1348.77150	0.03976
1347.48573	0.03921
1346.19996	0.03864
1344.91419	0.03809
1343.62842	0.03757
1342.34266	0.03710
1341.05689	0.03666
1339.77112	0.03623
1338.48535	0.03577
1337.19958	0.03529
1335.91381	0.03481
1334.62804	0.03435
1333.34227	0.03394
1332.05650	0.03360
1330.77074	0.03335
1329.48497	0.03316
1328.19920	0.03299
1326.91343	0.03280
1325.62766	0.03258
1324.34189	0.03234
1323.05612	0.03208
1321.77035	0.03179
1320.48459	0.03147
1319.19882	0.03117
1317.91305	0.03091
1316.62728	0.03070
1315.34151	0.03051
1314.05574	0.03035
1312.76997	0.03022
1311.48420	0.03014
1310.19843	0.03005
1308.91267	0.02989
1307.62690	0.02961
1306.34113	0.02927
1305.05536	0.02895
1303.76959	0.02874
1302.48382	0.02863
1301.19805	0.02856
1299.91228	0.02845
1298.62652	0.02827
1297.34075	0.02807
1296.05498	0.02791
1294.76921	0.02778
1293.48344	0.02766
1292.19767	0.02751
1290.91190	0.02734
1289.62613	0.02716
1288.34036	0.02699
1287.05460	0.02683
1285.76883	0.02669
1284.48306	0.02655
1283.19729	0.02640
1281.91152	0.02622
1280.62575	0.02603
1279.33998	0.02585
1278.05421	0.02569
1276.76845	0.02558
1275.48268	0.02547
1274.19691	0.02533
1272.91114	0.02517
1271.62537	0.02499
1270.33960	0.02482
1269.05383	0.02467
1267.76806	0.02453
1266.48229	0.02439
1265.19653	0.02425
1263.91076	0.02413
1262.62499	0.02401
1261.33922	0.02389
1260.05345	0.02376
1258.76768	0.02364
1257.48191	0.02353
1256.19614	0.02341
1254.91037	0.02329
1253.62461	0.02317
1252.33884	0.02305
1251.05307	0.02294
1249.76730	0.02284
1248.48153	0.02276
1247.19576	0.02271
1245.90999	0.02264
1244.62422	0.02253
1243.33846	0.02237
1242.05269	0.02219
1240.76692	0.02204
1239.48115	0.02191
1238.19538	0.02183
1236.90961	0.02177
1235.62384	0.02168
1234.33807	0.02156
1233.05230	0.02145
1231.76654	0.02138
1230.48077	0.02134
1229.19500	0.02129
1227.90923	0.02121
1226.62346	0.02112
1225.33769	0.02102
1224.05192	0.02091
1222.76615	0.02079
1221.48039	0.02066
1220.19462	0.02054
1218.90885	0.02044
1217.62308	0.02038
1216.33731	0.02032
1215.05154	0.02025
1213.76577	0.02019
1212.48000	0.02015
1211.19423	0.02014
1209.90847	0.02014
1208.62270	0.02011
1207.33693	0.02004
1206.05116	0.01993
1204.76539	0.01979
1203.47962	0.01963
1202.19385	0.01946
1200.90808	0.01934
1199.62232	0.01927
1198.33655	0.01920
1197.05078	0.01917
1195.76501	0.01918
1194.47924	0.01919
1193.19347	0.01914
1191.90770	0.01901
1190.62193	0.01886
1189.33616	0.01876
1188.05040	0.01873
1186.76463	0.01871
1185.47886	0.01869
1184.19309	0.01869
1182.90732	0.01873
1181.62155	0.01877
1180.33578	0.01878
1179.05001	0.01878
1177.76425	0.01877
1176.47848	0.01878
1175.19271	0.01881
1173.90694	0.01885
1172.62117	0.01890
1171.33540	0.01894
1170.04963	0.01898
1168.76386	0.01899
1167.47809	0.01894
1166.19233	0.01886
1164.90656	0.01881
1163.62079	0.01886
1162.33502	0.01898
1161.04925	0.01911
1159.76348	0.01923
1158.47771	0.01934
1157.19194	0.01942
1155.90618	0.01947
1154.62041	0.01955
1153.33464	0.01973
1152.04887	0.02001
1150.76310	0.02034
1149.47733	0.02065
1148.19156	0.02095
1146.90579	0.02126
1145.62002	0.02159
1144.33426	0.02196
1143.04849	0.02243
1141.76272	0.02302
1140.47695	0.02370
1139.19118	0.02444
1137.90541	0.02524
1136.61964	0.02613
1135.33387	0.02713
1134.04811	0.02826
1132.76234	0.02957
1131.47657	0.03109
1130.19080	0.03284
1128.90503	0.03477
1127.61926	0.03684
1126.33349	0.03908
1125.04772	0.04150
1123.76195	0.04407
1122.47619	0.04668
1121.19042	0.04930
1119.90465	0.05194
1118.61888	0.05460
1117.33311	0.05730
1116.04734	0.06000
1114.76157	0.06268
1113.47580	0.06529
1112.19004	0.06784
1110.90427	0.07036
1109.61850	0.07282
1108.33273	0.07516
1107.04696	0.07737
1105.76119	0.07949
1104.47542	0.08155
1103.18965	0.08355
1101.90388	0.08546
1100.61812	0.08726
1099.33235	0.08895
1098.04658	0.09049
1096.76081	0.09188
1095.47504	0.09314
1094.18927	0.09433
1092.90350	0.09548
1091.61773	0.09663
1090.33197	0.09780
1089.04620	0.09899
1087.76043	0.10016
1086.47466	0.10130
1085.18889	0.10242
1083.90312	0.10360
1082.61735	0.10487
1081.33158	0.10621
1080.04581	0.10763
1078.76005	0.10916
1077.47428	0.11080
1076.18851	0.11249
1074.90274	0.11415
1073.61697	0.11580
1072.33120	0.11748
1071.04543	0.11923
1069.75966	0.12108
1068.47390	0.12308
1067.18813	0.12523
1065.90236	0.12749
1064.61659	0.12973
1063.33082	0.13190
1062.04505	0.13405
1060.75928	0.13622
1059.47351	0.13843
1058.18774	0.14064
1056.90198	0.14280
1055.61621	0.14488
1054.33044	0.14690
1053.04467	0.14892
1051.75890	0.15097
1050.47313	0.15307
1049.18736	0.15524
1047.90159	0.15748
1046.61583	0.15985
1045.33006	0.16234
1044.04429	0.16490
1042.75852	0.16748
1041.47275	0.17006
1040.18698	0.17263
1038.90121	0.17518
1037.61544	0.17769
1036.32967	0.18020
1035.04391	0.18271
1033.75814	0.18519
1032.47237	0.18760
1031.18660	0.18987
1029.90083	0.19195
1028.61506	0.19381
1027.32929	0.19546
1026.04352	0.19692
1024.75775	0.19821
1023.47199	0.19929
1022.18622	0.20012
1020.90045	0.20070
1019.61468	0.20105
1018.32891	0.20115
1017.04314	0.20096
1015.75737	0.20045
1014.47160	0.19967
1013.18584	0.19867
1011.90007	0.19748
1010.61430	0.19607
1009.32853	0.19437
1008.04276	0.19231
1006.75699	0.18992
1005.47122	0.18725
1004.18545	0.18432
1002.89968	0.18113
1001.61392	0.17767
1000.32815	0.17399
999.04238	0.17020
997.75661	0.16633
996.47084	0.16235
995.18507	0.15824
993.89930	0.15399
992.61353	0.14968
991.32777	0.14538
990.04200	0.14109
988.75623	0.13687
987.47046	0.13278
986.18469	0.12891
984.89892	0.12525
983.61315	0.12175
982.32738	0.11840
981.04161	0.11520
979.75585	0.11213
978.47008	0.10916
977.18431	0.10632
975.89854	0.10370
974.61277	0.10138
973.32700	0.09939
972.04123	0.09768
970.75546	0.09624
969.46970	0.09518
968.18393	0.09459
966.89816	0.09446
965.61239	0.09472
964.32662	0.09519
963.04085	0.09571
961.75508	0.09607
960.46931	0.09609
959.18354	0.09573
957.89778	0.09498
956.61201	0.09389
955.32624	0.09247
954.04047	0.09079
952.75470	0.08896
951.46893	0.08710
950.18316	0.08530
948.89739	0.08355
947.61163	0.08183
946.32586	0.08014
945.04009	0.07848
943.75432	0.07684
942.46855	0.07522
941.18278	0.07365
939.89701	0.07216
938.61124	0.07077
937.32547	0.06951
936.03971	0.06838
934.75394	0.06737
933.46817	0.06639
932.18240	0.06535
930.89663	0.06424
929.61086	0.06316
928.32509	0.06220
927.03932	0.06139
925.75356	0.06070
924.46779	0.06006
923.18202	0.05942
921.89625	0.05876
920.61048	0.05808
919.32471	0.05742
918.03894	0.05678
916.75317	0.05618
915.46740	0.05561
914.18164	0.05507
912.89587	0.05452
911.61010	0.05394
910.32433	0.05336
909.03856	0.05284
907.75279	0.05238
906.46702	0.05196
905.18125	0.05155
903.89549	0.05112
902.60972	0.05065
901.32395	0.05012
900.03818	0.04959
898.75241	0.04915
897.46664	0.04884
896.18087	0.04863
894.89510	0.04846
893.60933	0.04828
892.32357	0.04809
891.03780	0.04790
889.75203	0.04774
888.46626	0.04772
887.18049	0.04795
885.89472	0.04851
884.60895	0.04946
883.32318	0.05089
882.03742	0.05282
880.75165	0.05500
879.46588	0.05699
878.18011	0.05852
876.89434	0.05972
875.60857	0.06094
874.32280	0.06232
873.03703	0.06360
871.75126	0.06438
870.46550	0.06441
869.17973	0.06372
867.89396	0.06252
866.60819	0.06102
865.32242	0.05939
864.03665	0.05775
862.75088	0.05616
861.46511	0.05463
860.17935	0.05315
858.89358	0.05175
857.60781	0.05056
856.32204	0.04963
855.03627	0.04895
853.75050	0.04837
852.46473	0.04779
851.17896	0.04719
849.89319	0.04662
848.60743	0.04611
847.32166	0.04564
846.03589	0.04521
844.75012	0.04486
843.46435	0.04459
842.17858	0.04440
840.89281	0.04421
839.60704	0.04394
838.32128	0.04361
837.03551	0.04328
835.74974	0.04305
834.46397	0.04294
833.17820	0.04286
831.89243	0.04272
830.60666	0.04250
829.32089	0.04222
828.03512	0.04194
826.74936	0.04172
825.46359	0.04155
824.17782	0.04141
822.89205	0.04131
821.60628	0.04129
820.32051	0.04133
819.03474	0.04137
817.74897	0.04137
816.46321	0.04130
815.17744	0.04121
813.89167	0.04113
812.60590	0.04108
811.32013	0.04104
810.03436	0.04099
808.74859	0.04086
807.46282	0.04066
806.17705	0.04045
804.89129	0.04031
803.60552	0.04026
802.31975	0.04025
801.03398	0.04025
799.74821	0.04023
798.46244	0.04018
797.17667	0.04005
795.89090	0.03980
794.60513	0.03946
793.31937	0.03917
792.03360	0.03899
790.74783	0.03892
789.46206	0.03892
788.17629	0.03896
786.89052	0.03904
785.60475	0.03911
784.31898	0.03910
783.03322	0.03897
781.74745	0.03879
780.46168	0.03862
779.17591	0.03849
777.89014	0.03844
776.60437	0.03848
775.31860	0.03857
774.03283	0.03862
772.74706	0.03859
771.46130	0.03846
770.17553	0.03826
768.88976	0.03809
767.60399	0.03804
766.31822	0.03814
765.03245	0.03829
763.74668	0.03836
762.46091	0.03827
761.17515	0.03808
759.88938	0.03789
758.60361	0.03777
757.31784	0.03780
756.03207	0.03795
754.74630	0.03814
753.46053	0.03828
752.17476	0.03827
750.88899	0.03813
749.60323	0.03792
748.31746	0.03777
747.03169	0.03775
745.74592	0.03782
744.46015	0.03787
743.17438	0.03780
741.88861	0.03762
740.60284	0.03738
739.31708	0.03716
738.03131	0.03698
736.74554	0.03683
735.45977	0.03672
734.17400	0.03665
732.88823	0.03666
731.60246	0.03669
730.31669	0.03666
729.03092	0.03652
727.74516	0.03632
726.45939	0.03616
725.17362	0.03619
723.88785	0.03714
722.60208	0.03706
721.31631	0.03569
720.03054	0.03446
718.74477	0.03420
717.45901	0.03390
716.17324	0.03367
714.88747	0.03377
713.60170	0.03414
712.31593	0.03458
711.03016	0.03495
709.74439	0.03522
708.45862	0.03540
707.17285	0.03557
705.88709	0.03574
704.60132	0.03592
703.31555	0.03607
702.02978	0.03615
700.74401	0.03614
699.45824	0.03603
698.17247	0.03585
696.88670	0.03557
695.60094	0.03529
694.31517	0.03514
693.02940	0.03516
691.74363	0.03530
690.45786	0.03549
689.17209	0.03567
687.88632	0.03582
686.60055	0.03597
685.31478	0.03616
684.02902	0.03634
682.74325	0.03651
681.45748	0.03666
680.17171	0.03679
678.88594	0.03690
677.60017	0.03692
676.31440	0.03682
675.02863	0.03668
673.74287	0.03674
672.45710	0.03724
671.17133	0.03697
669.88556	0.03249
668.59979	0.02499
667.31402	0.02825
666.02825	0.03639
664.74248	0.03762
663.45671	0.03588
662.17095	0.03470
660.88518	0.03419
659.59941	0.03396
658.31364	0.03384
657.02787	0.03371
655.74210	0.03354
654.45633	0.03341
653.17056	0.03322
651.88480	0.03302
650.59903	0.03275
649.31326	0.03243
648.02749	0.03236
646.74172	0.03230
645.45595	0.03206
644.17018	0.03173
642.88441	0.03141
641.59864	0.03119
640.31288	0.03111
639.02711	0.03114
637.74134	0.03125
636.45557	0.03138
635.16980	0.03150
633.88403	0.03165
632.59826	0.03185
631.31249	0.03205
630.02673	0.03218
628.74096	0.03237
627.45519	0.03282
626.16942	0.03288
624.88365	0.03280
623.59788	0.03303
622.31211	0.03381
621.02634	0.03530
619.74057	0.03761
618.45481	0.04050
617.16904	0.04318
615.88327	0.04505
614.59750	0.04629
613.31173	0.04779
612.02596	0.05044
610.74019	0.05464
609.45442	0.06011
608.16866	0.06607
606.88289	0.07157
605.59712	0.07577
604.31135	0.07812
603.02558	0.07865
601.73981	0.07811
600.45404	0.07727
599.16827	0.07646
597.88250	0.07554
596.59674	0.07432
595.31097	0.07282
594.02520	0.07123
592.73943	0.06980
591.45366	0.06870
590.16789	0.06802
588.88212	0.06775
587.59635	0.06783
586.31059	0.06818
585.02482	0.06878
583.73905	0.06972
582.45328	0.07106
581.16751	0.07277
579.88174	0.07473
578.59597	0.07676
577.31020	0.07871
576.02443	0.08047
574.73867	0.08204
573.45290	0.08351
572.16713	0.08497
570.88136	0.08655
569.59559	0.08839
568.30982	0.09063
567.02405	0.09333
565.73828	0.09633
564.45251	0.09925
563.16675	0.10163
561.88098	0.10309
560.59521	0.10343
559.30944	0.10260
558.02367	0.10067
556.73790	0.09786
555.45213	0.09444
554.16636	0.09075
552.88060	0.08702
551.59483	0.08334
550.30906	0.07971
549.02329	0.07621
547.73752	0.07302
546.45175	0.07027
545.16598	0.06790
543.88021	0.06572
542.59444	0.06358
541.30868	0.06148
540.02291	0.05957
538.73714	0.05792
537.45137	0.05650
536.16560	0.05518
534.87983	0.05386
533.59406	0.05251
532.30829	0.05119
531.02253	0.04997
529.73676	0.04890
528.45099	0.04796
527.16522	0.04706
525.87945	0.04614
524.59368	0.04519
523.30791	0.04427
522.02214	0.04349
520.73637	0.04285
519.45061	0.04231
518.16484	0.04178
516.87907	0.04120
515.59330	0.04054
514.30753	0.03984
513.02176	0.03918
511.73599	0.03860
510.45022	0.03814
509.16446	0.03776
507.87869	0.03745
506.59292	0.03718
505.30715	0.03690
504.02138	0.03655
502.73561	0.03611
501.44984	0.03560
500.16407	0.03503
498.87830	0.03443
497.59254	0.03387
496.30677	0.03339
495.02100	0.03299
493.73523	0.03267
492.44946	0.03241
491.16369	0.03222
489.87792	0.03211
488.59215	0.03207
487.30639	0.03209
486.02062	0.03216
484.73485	0.03224
483.44908	0.03227
482.16331	0.03225
480.87754	0.03219
479.59177	0.03212
478.30600	0.03211
477.02023	0.03222
475.73447	0.03247
474.44870	0.03279
473.16293	0.03303
471.87716	0.03313
470.59139	0.03314
469.30562	0.03310
468.01985	0.03305
466.73408	0.03293
465.44832	0.03273
464.16255	0.03245
462.87678	0.03216
461.59101	0.03191
460.30524	0.03166
459.01947	0.03140
457.73370	0.03111
456.44793	0.03077
455.16216	0.03041
453.87640	0.03003
452.59063	0.02968
451.30486	0.02940
450.01909	0.02921
448.73332	0.02907
447.44755	0.02895
446.16178	0.02880
444.87601	0.02861
443.59025	0.02842
442.30448	0.02823
441.01871	0.02805
439.73294	0.02789
438.44717	0.02777
437.16140	0.02767
435.87563	0.02757
434.58986	0.02746
433.30409	0.02738
432.01833	0.02733
430.73256	0.02729
429.44679	0.02720
428.16102	0.02704
426.87525	0.02685
425.58948	0.02662
424.30371	0.02635
423.01794	0.02608
421.73218	0.02585
420.44641	0.02572
419.16064	0.02565
417.87487	0.02559
416.58910	0.02548
415.30333	0.02532
414.01756	0.02513
412.73179	0.02493
411.44602	0.02471
410.16026	0.02450
408.87449	0.02436
407.58872	0.02431
406.30295	0.02435
405.01718	0.02442
403.73141	0.02447
402.44564	0.02448
401.15987	0.02444
399.87411	0.02437
