3997.45528	-0.00500
3996.16951	-0.00494
3994.88374	-0.00528
3993.59798	-0.00585
3992.31221	-0.00604
3991.02644	-0.00548
3989.74067	-0.00443
3988.45490	-0.00342
3987.16913	-0.00282
3985.88336	-0.00257
3984.59759	-0.00232
3983.31183	-0.00182
3982.02606	-0.00122
3980.74029	-0.00095
3979.45452	-0.00123
3978.16875	-0.00180
3976.88298	-0.00215
3975.59721	-0.00205
3974.31144	-0.00159
3973.02567	-0.00096
3971.73991	-0.00026
3970.45414	0.00043
3969.16837	0.00101
3967.88260	0.00140
3966.59683	0.00159
3965.31106	0.00156
3964.02529	0.00132
3962.73952	0.00098
3961.45376	0.00076
3960.16799	0.00087
3958.88222	0.00134
3957.59645	0.00194
3956.31068	0.00243
3955.02491	0.00273
3953.73914	0.00302
3952.45337	0.00343
3951.16760	0.00393
3949.88184	0.00438
3948.59607	0.00464
3947.31030	0.00462
3946.02453	0.00428
3944.73876	0.00372
3943.45299	0.00321
3942.16722	0.00295
3940.88145	0.00303
3939.59569	0.00342
3938.30992	0.00398
3937.02415	0.00446
3935.73838	0.00459
3934.45261	0.00431
3933.16684	0.00383
3931.88107	0.00346
3930.59530	0.00338
3929.30953	0.00359
3928.02377	0.00399
3926.73800	0.00449
3925.45223	0.00504
3924.16646	0.00557
3922.88069	0.00590
3921.59492	0.00578
3920.30915	0.00515
3919.02338	0.00433
3917.73762	0.00384
3916.45185	0.00397
3915.16608	0.00459
3913.88031	0.00527
3912.59454	0.00574
3911.30877	0.00600
3910.02300	0.00619
3908.73723	0.00633
3907.45146	0.00631
3906.16570	0.00600
3904.87993	0.00539
3903.59416	0.00464
3902.30839	0.00396
3901.02262	0.00355
3899.73685	0.00350
3898.45108	0.00380
3897.16531	0.00435
3895.87955	0.00504
3894.59378	0.00580
3893.30801	0.00662
3892.02224	0.00757
3890.73647	0.00851
3889.45070	0.00916
3888.16493	0.00927
3886.87916	0.00883
3885.59339	0.00820
3884.30763	0.00784
3883.02186	0.00788
3881.73609	0.00810
3880.45032	0.00810
3879.16455	0.00774
3877.87878	0.00722
3876.59301	0.00691
3875.30724	0.00702
3874.02148	0.00742
3872.73571	0.00783
3871.44994	0.00801
3870.16417	0.00794
3868.87840	0.00770
3867.59263	0.00742
3866.30686	0.00725
3865.02109	0.00719
3863.73532	0.00707
3862.44956	0.00679
3861.16379	0.00656
3859.87802	0.00665
3858.59225	0.00704
3857.30648	0.00751
3856.02071	0.00795
3854.73494	0.00849
3853.44917	0.00919
3852.16341	0.00983
3850.87764	0.01016
3849.59187	0.01019
3848.30610	0.01010
3847.02033	0.01001
3845.73456	0.00988
3844.44879	0.00972
3843.16302	0.00959
3841.87725	0.00955
3840.59149	0.00953
3839.30572	0.00941
3838.01995	0.00923
3836.73418	0.00919
3835.44841	0.00957
3834.16264	0.01040
3832.87687	0.01134
3831.59110	0.01185
3830.30534	0.01167
3829.01957	0.01103
3827.73380	0.01044
3826.44803	0.01018
3825.16226	0.01021
3823.87649	0.01039
3822.59072	0.01069
3821.30495	0.01108
3820.01918	0.01136
3818.73342	0.01127
3817.44765	0.01080
3816.16188	0.01028
3814.87611	0.00993
3813.59034	0.00962
3812.30457	0.00907
3811.01880	0.00830
3809.73303	0.00765
3808.44726	0.00745
3807.16150	0.00776
3805.87573	0.00836
3804.58996	0.00899
3803.30419	0.00950
3802.01842	0.00989
3800.73265	0.01032
3799.44688	0.01088
3798.16111	0.01150
3796.87535	0.01196
3795.58958	0.01205
3794.30381	0.01173
3793.01804	0.01115
3791.73227	0.01050
3790.44650	0.01005
3789.16073	0.01002
3787.87496	0.01043
3786.58919	0.01106
3785.30343	0.01159
3784.01766	0.01187
3782.73189	0.01192
3781.44612	0.01182
3780.16035	0.01158
3778.87458	0.01121
3777.58881	0.01076
3776.30304	0.01037
3775.01728	0.01013
3773.73151	0.01002
3772.44574	0.00994
3771.15997	0.00987
3769.87420	0.00992
3768.58843	0.01022
3767.30266	0.01076
3766.01689	0.01135
3764.73112	0.01172
3763.44536	0.01167
3762.15959	0.01129
3760.87382	0.01087
3759.58805	0.01061
3758.30228	0.01041
3757.01651	0.01006
3755.73074	0.00953
3754.44497	0.00910
3753.15921	0.00917
3751.87344	0.00986
3750.58767	0.01079
3749.30190	0.01126
3748.01613	0.01095
3746.73036	0.01022
3745.44459	0.00980
3744.15882	0.01009
3742.87305	0.01071
3741.58729	0.01085
3740.30152	0.01011
3739.01575	0.00877
3737.72998	0.00735
3736.44421	0.00638
3735.15844	0.00608
3733.87267	0.00654
3732.58690	0.00725
3731.30114	0.00754
3730.01537	0.00711
3728.72960	0.00608
3727.44383	0.00518
3726.15806	0.00496
3724.87229	0.00553
3723.58652	0.00657
3722.30075	0.00723
3721.01498	0.00707
3719.72922	0.00658
3718.44345	0.00642
3717.15768	0.00685
3715.87191	0.00747
3714.58614	0.00780
3713.30037	0.00771
3712.01460	0.00705
3710.72883	0.00616
3709.44307	0.00565
3708.15730	0.00543
3706.87153	0.00532
3705.58576	0.00514
3704.29999	0.00488
3703.01422	0.00482
3701.72845	0.00513
3700.44268	0.00569
3699.15691	0.00633
3697.87115	0.00697
3696.58538	0.00753
3695.29961	0.00786
3694.01384	0.00809
3692.72807	0.00818
3691.44230	0.00834
3690.15653	0.00872
3688.87076	0.00919
3687.58500	0.00964
3686.29923	0.01001
3685.01346	0.00995
3683.72769	0.00961
3682.44192	0.00942
3681.15615	0.00948
3679.87038	0.00961
3678.58461	0.00973
3677.29884	0.01008
3676.01308	0.01102
3674.72731	0.01220
3673.44154	0.01265
3672.15577	0.01197
3670.87000	0.01073
3669.58423	0.00997
3668.29846	0.01013
3667.01269	0.01084
3665.72693	0.01157
3664.44116	0.01207
3663.15539	0.01243
3661.86962	0.01265
3660.58385	0.01271
3659.29808	0.01276
3658.01231	0.01314
3656.72654	0.01397
3655.44077	0.01496
3654.15501	0.01556
3652.86924	0.01563
3651.58347	0.01552
3650.29770	0.01563
3649.01193	0.01600
3647.72616	0.01642
3646.44039	0.01674
3645.15462	0.01698
3643.86886	0.01706
3642.58309	0.01697
3641.29732	0.01685
3640.01155	0.01695
3638.72578	0.01730
3637.44001	0.01760
3636.15424	0.01757
3634.86847	0.01746
3633.58270	0.01763
3632.29694	0.01814
3631.01117	0.01867
3629.72540	0.01890
3628.43963	0.01911
3627.15386	0.01953
3625.86809	0.02002
3624.58232	0.02013
3623.29655	0.02015
3622.01079	0.02054
3620.72502	0.02153
3619.43925	0.02260
3618.15348	0.02325
3616.86771	0.02341
3615.58194	0.02332
3614.29617	0.02339
3613.01040	0.02387
3611.72463	0.02463
3610.43887	0.02499
3609.15310	0.02458
3607.86733	0.02373
3606.58156	0.02320
3605.29579	0.02328
3604.01002	0.02368
3602.72425	0.02426
3601.43848	0.02495
3600.15272	0.02576
3598.86695	0.02644
3597.58118	0.02678
3596.29541	0.02659
3595.00964	0.02637
3593.72387	0.02654
3592.43810	0.02689
3591.15233	0.02733
3589.86656	0.02784
3588.58080	0.02842
3587.29503	0.02936
3586.00926	0.03045
3584.72349	0.03119
3583.43772	0.03145
3582.15195	0.03158
3580.86618	0.03187
3579.58041	0.03233
3578.29464	0.03281
3577.00888	0.03324
3575.72311	0.03363
3574.43734	0.03404
3573.15157	0.03446
3571.86580	0.03489
3570.58003	0.03529
3569.29426	0.03565
3568.00849	0.03598
3566.72273	0.03634
3565.43696	0.03680
3564.15119	0.03751
3562.86542	0.03851
3561.57965	0.03963
3560.29388	0.04051
3559.00811	0.04084
3557.72234	0.04064
3556.43657	0.04027
3555.15081	0.04008
3553.86504	0.04013
3552.57927	0.04024
3551.29350	0.04028
3550.00773	0.04038
3548.72196	0.04070
3547.43619	0.04126
3546.15042	0.04189
3544.86466	0.04236
3543.57889	0.04255
3542.29312	0.04252
3541.00735	0.04246
3539.72158	0.04262
3538.43581	0.04319
3537.15004	0.04420
3535.86427	0.04541
3534.57850	0.04639
3533.29274	0.04678
3532.00697	0.04657
3530.72120	0.04622
3529.43543	0.04625
3528.14966	0.04687
3526.86389	0.04777
3525.57812	0.04847
3524.29235	0.04880
3523.00659	0.04893
3521.72082	0.04902
3520.43505	0.04897
3519.14928	0.04866
3517.86351	0.04822
3516.57774	0.04807
3515.29197	0.04847
3514.00620	0.04931
3512.72043	0.05025
3511.43467	0.05104
3510.14890	0.05155
3508.86313	0.05174
3507.57736	0.05173
3506.29159	0.05183
3505.00582	0.05228
3503.72005	0.05302
3502.43428	0.05371
3501.14852	0.05417
3499.86275	0.05450
3498.57698	0.05486
3497.29121	0.05530
3496.00544	0.05576
3494.71967	0.05625
3493.43390	0.05671
3492.14813	0.05690
3490.86236	0.05657
3489.57660	0.05582
3488.29083	0.05511
3487.00506	0.05496
3485.71929	0.05555
3484.43352	0.05661
3483.14775	0.05769
3481.86198	0.05840
3480.57621	0.05863
3479.29045	0.05848
3478.00468	0.05821
3476.71891	0.05802
3475.43314	0.05805
3474.14737	0.05835
3472.86160	0.05896
3471.57583	0.05984
3470.29006	0.06078
3469.00429	0.06142
3467.71853	0.06150
3466.43276	0.06108
3465.14699	0.06055
3463.86122	0.06041
3462.57545	0.06090
3461.28968	0.06175
3460.00391	0.06244
3458.71814	0.06261
3457.43238	0.06243
3456.14661	0.06239
3454.86084	0.06279
3453.57507	0.06350
3452.28930	0.06416
3451.00353	0.06458
3449.71776	0.06479
3448.43199	0.06484
3447.14622	0.06475
3445.86046	0.06449
3444.57469	0.06415
3443.28892	0.06398
3442.00315	0.06418
3440.71738	0.06469
3439.43161	0.06529
3438.14584	0.06571
3436.86007	0.06584
3435.57431	0.06572
3434.28854	0.06553
3433.00277	0.06546
3431.71700	0.06560
3430.43123	0.06584
3429.14546	0.06611
3427.85969	0.06650
3426.57392	0.06715
3425.28815	0.06797
3424.00239	0.06863
3422.71662	0.06884
3421.43085	0.06867
3420.14508	0.06852
3418.85931	0.06872
3417.57354	0.06922
3416.28777	0.06977
3415.00200	0.07014
3413.71624	0.07034
3412.43047	0.07048
3411.14470	0.07065
3409.85893	0.07080
3408.57316	0.07090
3407.28739	0.07104
3406.00162	0.07137
3404.71585	0.07187
3403.43008	0.07225
3402.14432	0.07220
3400.85855	0.07167
3399.57278	0.07090
3398.28701	0.07018
3397.00124	0.06967
3395.71547	0.06940
3394.42970	0.06946
3393.14393	0.06992
3391.85817	0.07067
3390.57240	0.07147
3389.28663	0.07205
3388.00086	0.07244
3386.71509	0.07280
3385.42932	0.07326
3384.14355	0.07371
3382.85778	0.07394
3381.57201	0.07378
3380.28625	0.07329
3379.00048	0.07275
3377.71471	0.07245
3376.42894	0.07251
3375.14317	0.07285
3373.85740	0.07333
3372.57163	0.07388
3371.28586	0.07441
3370.00010	0.07485
3368.71433	0.07508
3367.42856	0.07500
3366.14279	0.07464
3364.85702	0.07413
3363.57125	0.07368
3362.28548	0.07348
3360.99971	0.07351
3359.71394	0.07359
3358.42818	0.07358
3357.14241	0.07360
3355.85664	0.07397
3354.57087	0.07480
3353.28510	0.07584
3351.99933	0.07660
3350.71356	0.07677
3349.42779	0.07640
3348.14202	0.07580
3346.85626	0.07524
3345.57049	0.07473
3344.28472	0.07414
3342.99895	0.07353
3341.71318	0.07320
3340.42741	0.07342
3339.14164	0.07409
3337.85587	0.07479
3336.57011	0.07516
3335.28434	0.07515
3333.99857	0.07501
3332.71280	0.07497
3331.42703	0.07506
3330.14126	0.07514
3328.85549	0.07504
3327.56972	0.07483
3326.28395	0.07475
3324.99819	0.07502
3323.71242	0.07568
3322.42665	0.07651
3321.14088	0.07717
3319.85511	0.07741
3318.56934	0.07717
3317.28357	0.07656
3315.99780	0.07588
3314.71204	0.07542
3313.42627	0.07536
3312.14050	0.07566
3310.85473	0.07612
3309.56896	0.07645
3308.28319	0.07648
3306.99742	0.07622
3305.71165	0.07592
3304.42588	0.07572
3303.14012	0.07557
3301.85435	0.07535
3300.56858	0.07506
3299.28281	0.07480
3297.99704	0.07462
3296.71127	0.07455
3295.42550	0.07463
3294.13973	0.07486
3292.85397	0.07514
3291.56820	0.07535
3290.28243	0.07548
3288.99666	0.07553
3287.71089	0.07545
3286.42512	0.07520
3285.13935	0.07489
3283.85358	0.07472
3282.56781	0.07471
3281.28205	0.07468
3279.99628	0.07456
3278.71051	0.07445
3277.42474	0.07448
3276.13897	0.07457
3274.85320	0.07456
3273.56743	0.07442
3272.28166	0.07432
3270.99590	0.07440
3269.71013	0.07459
3268.42436	0.07475
3267.13859	0.07483
3265.85282	0.07491
3264.56705	0.07497
3263.28128	0.07494
3261.99551	0.07474
3260.70974	0.07449
3259.42398	0.07436
3258.13821	0.07451
3256.85244	0.07487
3255.56667	0.07524
3254.28090	0.07535
3252.99513	0.07509
3251.70936	0.07452
3250.42359	0.07379
3249.13783	0.07307
3247.85206	0.07252
3246.56629	0.07224
3245.28052	0.07227
3243.99475	0.07257
3242.70898	0.07297
3241.42321	0.07332
3240.13744	0.07352
3238.85167	0.07357
3237.56591	0.07361
3236.28014	0.07376
3234.99437	0.07406
3233.70860	0.07442
3232.42283	0.07471
3231.13706	0.07477
3229.85129	0.07461
3228.56552	0.07433
3227.27976	0.07404
3225.99399	0.07374
3224.70822	0.07347
3223.42245	0.07328
3222.13668	0.07319
3220.85091	0.07309
3219.56514	0.07285
3218.27937	0.07254
3216.99360	0.07234
3215.70784	0.07237
3214.42207	0.07266
3213.13630	0.07309
3211.85053	0.07348
3210.56476	0.07362
3209.27899	0.07343
3207.99322	0.07300
3206.70745	0.07255
3205.42169	0.07232
3204.13592	0.07233
3202.85015	0.07244
3201.56438	0.07248
3200.27861	0.07244
3198.99284	0.07248
3197.70707	0.07271
3196.42130	0.07308
3195.13553	0.07338
3193.84977	0.07346
3192.56400	0.07328
3191.27823	0.07290
3189.99246	0.07245
3188.70669	0.07209
3187.42092	0.07191
3186.13515	0.07187
3184.84938	0.07181
3183.56362	0.07167
3182.27785	0.07152
3180.99208	0.07150
3179.70631	0.07155
3178.42054	0.07149
3177.13477	0.07129
3175.84900	0.07112
3174.56323	0.07116
3173.27746	0.07136
3171.99170	0.07149
3170.70593	0.07144
3169.42016	0.07131
3168.13439	0.07128
3166.84862	0.07142
3165.56285	0.07162
3164.27708	0.07171
3162.99131	0.07158
3161.70555	0.07125
3160.41978	0.07087
3159.13401	0.07061
3157.84824	0.07054
3156.56247	0.07055
3155.27670	0.07046
3153.99093	0.07018
3152.70516	0.06974
3151.41939	0.06924
3150.13363	0.06879
3148.84786	0.06855
3147.56209	0.06861
3146.27632	0.06894
3144.99055	0.06937
3143.70478	0.06977
3142.41901	0.06997
3141.13324	0.06985
3139.84748	0.06941
3138.56171	0.06881
3137.27594	0.06826
3135.99017	0.06794
3134.70440	0.06789
3133.41863	0.06803
3132.13286	0.06820
3130.84709	0.06825
3129.56132	0.06819
3128.27556	0.06815
3126.98979	0.06821
3125.70402	0.06832
3124.41825	0.06841
3123.13248	0.06850
3121.84671	0.06864
3120.56094	0.06869
3119.27517	0.06847
3117.98940	0.06797
3116.70364	0.06738
3115.41787	0.06694
3114.13210	0.06675
3112.84633	0.06675
3111.56056	0.06687
3110.27479	0.06708
3108.98902	0.06734
3107.70325	0.06756
3106.41749	0.06763
3105.13172	0.06753
3103.84595	0.06734
3102.56018	0.06721
3101.27441	0.06721
3099.98864	0.06732
3098.70287	0.06738
3097.41710	0.06726
3096.13133	0.06695
3094.84557	0.06667
3093.55980	0.06660
3092.27403	0.06670
3090.98826	0.06677
3089.70249	0.06670
3088.41672	0.06656
3087.13095	0.06646
3085.84518	0.06642
3084.55942	0.06644
3083.27365	0.06646
3081.98788	0.06644
3080.70211	0.06633
3079.41634	0.06620
3078.13057	0.06618
3076.84480	0.06622
3075.55903	0.06617
3074.27326	0.06590
3072.98750	0.06544
3071.70173	0.06492
3070.41596	0.06440
3069.13019	0.06400
3067.84442	0.06384
3066.55865	0.06395
3065.27288	0.06414
3063.98711	0.06418
3062.70135	0.06407
3061.41558	0.06398
3060.12981	0.06403
3058.84404	0.06415
3057.55827	0.06421
3056.27250	0.06412
3054.98673	0.06387
3053.70096	0.06352
3052.41519	0.06321
3051.12943	0.06303
3049.84366	0.06300
3048.55789	0.06304
3047.27212	0.06308
3045.98635	0.06311
3044.70058	0.06313
3043.41481	0.06310
3042.12904	0.06302
3040.84328	0.06297
3039.55751	0.06301
3038.27174	0.06308
3036.98597	0.06300
3035.70020	0.06273
3034.41443	0.06238
3033.12866	0.06215
3031.84289	0.06216
3030.55712	0.06238
3029.27136	0.06268
3027.98559	0.06284
3026.69982	0.06275
3025.41405	0.06252
3024.12828	0.06237
3022.84251	0.06248
3021.55674	0.06282
3020.27097	0.06319
3018.98521	0.06336
3017.69944	0.06323
3016.41367	0.06286
3015.12790	0.06243
3013.84213	0.06208
3012.55636	0.06184
3011.27059	0.06169
3009.98482	0.06162
3008.69905	0.06170
3007.41329	0.06189
3006.12752	0.06206
3004.84175	0.06205
3003.55598	0.06182
3002.27021	0.06143
3000.98444	0.06100
2999.69867	0.06065
2998.41290	0.06047
2997.12714	0.06049
2995.84137	0.06068
2994.55560	0.06094
2993.26983	0.06109
2991.98406	0.06107
2990.69829	0.06098
2989.41252	0.06096
2988.12675	0.06104
2986.84098	0.06115
2985.55522	0.06127
2984.26945	0.06145
2982.98368	0.06174
2981.69791	0.06216
2980.41214	0.06271
2979.12637	0.06336
2977.84060	0.06411
2976.55483	0.06503
2975.26907	0.06607
2973.98330	0.06708
2972.69753	0.06791
2971.41176	0.06864
2970.12599	0.06945
2968.84022	0.07050
2967.55445	0.07181
2966.26868	0.07331
2964.98291	0.07482
2963.69715	0.07623
2962.41138	0.07755
2961.12561	0.07886
2959.83984	0.08013
2958.55407	0.08128
2957.26830	0.08223
2955.98253	0.08300
2954.69676	0.08359
2953.41100	0.08394
2952.12523	0.08408
2950.83946	0.08411
2949.55369	0.08424
2948.26792	0.08460
2946.98215	0.08507
2945.69638	0.08536
2944.41061	0.08525
2943.12484	0.08483
2941.83908	0.08446
2940.55331	0.08452
2939.26754	0.08513
2937.98177	0.08618
2936.69600	0.08736
2935.41023	0.08845
2934.12446	0.08940
2932.83869	0.09035
2931.55293	0.09144
2930.26716	0.09263
2928.98139	0.09381
2927.69562	0.09490
2926.40985	0.09591
2925.12408	0.09680
2923.83831	0.09743
2922.55254	0.09768
2921.26677	0.09756
2919.98101	0.09713
2918.69524	0.09640
2917.40947	0.09540
2916.12370	0.09420
2914.83793	0.09292
2913.55216	0.09172
2912.26639	0.09071
2910.98062	0.08988
2909.69486	0.08914
2908.40909	0.08840
2907.12332	0.08767
2905.83755	0.08697
2904.55178	0.08626
2903.26601	0.08547
2901.98024	0.08463
2900.69447	0.08387
2899.40870	0.08320
2898.12294	0.08257
2896.83717	0.08195
2895.55140	0.08138
2894.26563	0.08078
2892.97986	0.07998
2891.69409	0.07890
2890.40832	0.07771
2889.12255	0.07671
2887.83678	0.07607
2886.55102	0.07567
2885.26525	0.07530
2883.97948	0.07482
2882.69371	0.07430
2881.40794	0.07391
2880.12217	0.07381
2878.83640	0.07406
2877.55063	0.07459
2876.26487	0.07525
2874.97910	0.07593
2873.69333	0.07655
2872.40756	0.07712
2871.12179	0.07763
2869.83602	0.07800
2868.55025	0.07816
2867.26448	0.07813
2865.97871	0.07808
2864.69295	0.07813
2863.40718	0.07832
2862.12141	0.07858
2860.83564	0.07882
2859.54987	0.07905
2858.26410	0.07927
2856.97833	0.07940
2855.69256	0.07932
2854.40680	0.07900
2853.12103	0.07858
2851.83526	0.07816
2850.54949	0.07770
2849.26372	0.07706
2847.97795	0.07622
2846.69218	0.07528
2845.40641	0.07431
2844.12064	0.07324
2842.83488	0.07202
2841.54911	0.07080
2840.26334	0.06977
2838.97757	0.06896
2837.69180	0.06819
2836.40603	0.06730
2835.12026	0.06630
2833.83449	0.06532
2832.54873	0.06442
2831.26296	0.06359
2829.97719	0.06279
2828.69142	0.06207
2827.40565	0.06146
2826.11988	0.06096
2824.83411	0.06056
2823.54834	0.06025
2822.26257	0.06003
2820.97681	0.05982
2819.69104	0.05954
2818.40527	0.05908
2817.11950	0.05848
2815.83373	0.05791
2814.54796	0.05750
2813.26219	0.05727
2811.97642	0.05714
2810.69066	0.05705
2809.40489	0.05699
2808.11912	0.05695
2806.83335	0.05688
2805.54758	0.05671
2804.26181	0.05644
2802.97604	0.05614
2801.69027	0.05589
2800.40450	0.05574
2799.11874	0.05567
2797.83297	0.05568
2796.54720	0.05567
2795.26143	0.05551
2793.97566	0.05517
2792.68989	0.05478
2791.40412	0.05453
2790.11835	0.05451
2788.83259	0.05466
2787.54682	0.05476
2786.26105	0.05464
2784.97528	0.05428
2783.68951	0.05385
2782.40374	0.05356
2781.11797	0.05344
2779.83220	0.05339
2778.54643	0.05328
2777.26067	0.05308
2775.97490	0.05291
2774.68913	0.05292
2773.40336	0.05311
2772.11759	0.05332
2770.83182	0.05333
2769.54605	0.05308
2768.26028	0.05270
2766.97452	0.05243
2765.68875	0.05239
2764.40298	0.05247
2763.11721	0.05248
2761.83144	0.05230
2760.54567	0.05205
2759.25990	0.05190
2757.97413	0.05194
2756.68836	0.05208
2755.40260	0.05214
2754.11683	0.05202
2752.83106	0.05175
2751.54529	0.05147
2750.25952	0.05129
2748.97375	0.05126
2747.68798	0.05133
2746.40221	0.05135
2745.11645	0.05124
2743.83068	0.05107
2742.54491	0.05096
2741.25914	0.05090
2739.97337	0.05080
2738.68760	0.05064
2737.40183	0.05046
2736.11606	0.05032
2734.83029	0.05024
2733.54453	0.05023
2732.25876	0.05028
2730.97299	0.05035
2729.68722	0.05043
2728.40145	0.05056
2727.11568	0.05076
2725.82991	0.05093
2724.54414	0.05088
2723.25838	0.05054
2721.97261	0.05008
2720.68684	0.04976
2719.40107	0.04968
2718.11530	0.04973
2716.82953	0.04974
2715.54376	0.04972
2714.25799	0.04974
2712.97222	0.04975
2711.68646	0.04968
2710.40069	0.04952
2709.11492	0.04932
2707.82915	0.04911
2706.54338	0.04889
2705.25761	0.04877
2703.97184	0.04880
2702.68607	0.04892
2701.40031	0.04897
2700.11454	0.04889
2698.82877	0.04876
2697.54300	0.04868
2696.25723	0.04859
2694.97146	0.04840
2693.68569	0.04814
2692.39992	0.04796
2691.11415	0.04794
2689.82839	0.04803
2688.54262	0.04810
2687.25685	0.04806
2685.97108	0.04788
2684.68531	0.04761
2683.39954	0.04736
2682.11377	0.04721
2680.82800	0.04716
2679.54224	0.04714
2678.25647	0.04708
2676.97070	0.04699
2675.68493	0.04694
2674.39916	0.04699
2673.11339	0.04712
2671.82762	0.04725
2670.54185	0.04735
2669.25608	0.04738
2667.97032	0.04736
2666.68455	0.04728
2665.39878	0.04717
2664.11301	0.04707
2662.82724	0.04698
2661.54147	0.04693
2660.25570	0.04693
2658.96993	0.04692
2657.68417	0.04685
2656.39840	0.04667
2655.11263	0.04645
2653.82686	0.04624
2652.54109	0.04608
2651.25532	0.04598
2649.96955	0.04591
2648.68378	0.04585
2647.39801	0.04579
2646.11225	0.04568
2644.82648	0.04545
2643.54071	0.04499
2642.25494	0.04442
2640.96917	0.04400
2639.68340	0.04396
2638.39763	0.04415
2637.11186	0.04423
2635.82609	0.04397
2634.54033	0.04345
2633.25456	0.04291
2631.96879	0.04253
2630.68302	0.04233
2629.39725	0.04222
2628.11148	0.04210
2626.82571	0.04192
2625.53994	0.04170
2624.25418	0.04146
2622.96841	0.04119
2621.68264	0.04086
2620.39687	0.04056
2619.11110	0.04041
2617.82533	0.04044
2616.53956	0.04053
2615.25379	0.04062
2613.96802	0.04064
2612.68226	0.04056
2611.39649	0.04036
2610.11072	0.04013
2608.82495	0.04004
2607.53918	0.04002
2606.25341	0.03986
2604.96764	0.03940
2603.68187	0.03879
2602.39611	0.03836
2601.11034	0.03830
2599.82457	0.03852
2598.53880	0.03878
2597.25303	0.03888
2595.96726	0.03879
2594.68149	0.03858
2593.39572	0.03832
2592.10995	0.03810
2590.82419	0.03798
2589.53842	0.03801
2588.25265	0.03811
2586.96688	0.03817
2585.68111	0.03811
2584.39534	0.03795
2583.10957	0.03783
2581.82380	0.03784
2580.53804	0.03793
2579.25227	0.03789
2577.96650	0.03756
2576.68073	0.03701
2575.39496	0.03653
2574.10919	0.03640
2572.82342	0.03654
2571.53765	0.03660
2570.25188	0.03628
2568.96612	0.03565
2567.68035	0.03515
2566.39458	0.03511
2565.10881	0.03539
2563.82304	0.03560
2562.53727	0.03557
2561.25150	0.03543
2559.96573	0.03540
2558.67997	0.03552
2557.39420	0.03574
2556.10843	0.03595
2554.82266	0.03602
2553.53689	0.03593
2552.25112	0.03580
2550.96535	0.03575
2549.67958	0.03575
2548.39381	0.03561
2547.10805	0.03523
2545.82228	0.03471
2544.53651	0.03423
2543.25074	0.03388
2541.96497	0.03366
2540.67920	0.03355
2539.39343	0.03358
2538.10766	0.03372
2536.82190	0.03383
2535.53613	0.03378
2534.25036	0.03364
2532.96459	0.03362
2531.67882	0.03380
2530.39305	0.03405
2529.10728	0.03414
2527.82151	0.03410
2526.53574	0.03413
2525.24998	0.03436
2523.96421	0.03468
2522.67844	0.03487
2521.39267	0.03478
2520.10690	0.03446
2518.82113	0.03412
2517.53536	0.03397
2516.24959	0.03404
2514.96383	0.03422
2513.67806	0.03435
2512.39229	0.03435
2511.10652	0.03430
2509.82075	0.03423
2508.53498	0.03407
2507.24921	0.03379
2505.96344	0.03349
2504.67767	0.03340
2503.39191	0.03359
2502.10614	0.03382
2500.82037	0.03375
2499.53460	0.03333
2498.24883	0.03289
2496.96306	0.03277
2495.67729	0.03299
2494.39152	0.03343
2493.10576	0.03391
2491.81999	0.03429
2490.53422	0.03438
2489.24845	0.03419
2487.96268	0.03393
2486.67691	0.03381
2485.39114	0.03375
2484.10537	0.03356
2482.81960	0.03318
2481.53384	0.03281
2480.24807	0.03269
2478.96230	0.03283
2477.67653	0.03303
2476.39076	0.03306
2475.10499	0.03286
2473.81922	0.03258
2472.53345	0.03234
2471.24769	0.03223
2469.96192	0.03224
2468.67615	0.03234
2467.39038	0.03251
2466.10461	0.03272
2464.81884	0.03294
2463.53307	0.03309
2462.24730	0.03310
2460.96153	0.03294
2459.67577	0.03273
2458.39000	0.03266
2457.10423	0.03282
2455.81846	0.03304
2454.53269	0.03306
2453.24692	0.03281
2451.96115	0.03246
2450.67538	0.03223
2449.38962	0.03222
2448.10385	0.03228
2446.81808	0.03223
2445.53231	0.03205
2444.24654	0.03186
2442.96077	0.03180
2441.67500	0.03186
2440.38923	0.03196
2439.10346	0.03205
2437.81770	0.03210
2436.53193	0.03200
2435.24616	0.03175
2433.96039	0.03147
2432.67462	0.03136
2431.38885	0.03140
2430.10308	0.03143
2428.81731	0.03132
2427.53155	0.03117
2426.24578	0.03118
2424.96001	0.03142
2423.67424	0.03177
2422.38847	0.03205
2421.10270	0.03215
2419.81693	0.03213
2418.53116	0.03205
2417.24539	0.03197
2415.95963	0.03187
2414.67386	0.03175
2413.38809	0.03166
2412.10232	0.03168
2410.81655	0.03179
2409.53078	0.03185
2408.24501	0.03180
2406.95924	0.03176
2405.67347	0.03186
2404.38771	0.03210
2403.10194	0.03226
2401.81617	0.03221
2400.53040	0.03205
2399.24463	0.03292
2397.95886	0.03353
2396.67309	0.03352
2395.38732	0.03318
2394.10156	0.03270
2392.81579	0.03214
2391.53002	0.03148
2390.24425	0.03076
2388.95848	0.03007
2387.67271	0.02953
2386.38694	0.02922
2385.10117	0.02913
2383.81540	0.02917
2382.52964	0.02922
2381.24387	0.02913
2379.95810	0.02893
2378.67233	0.02858
2377.38656	0.02802
2376.10079	0.02760
2374.81502	0.02722
2373.52925	0.02640
2372.24349	0.02530
2370.95772	0.02387
2369.67195	0.02303
2368.38618	0.02267
2367.10041	0.02191
2365.81464	0.02096
2364.52887	0.02078
2363.24310	0.02041
2361.95733	0.01893
2360.67157	0.01729
2359.38580	0.01755
2358.10003	0.01926
2356.81426	0.02110
2355.52849	0.02245
2354.24272	0.02285
2352.95695	0.02263
2351.67118	0.02151
2350.38542	0.01896
2349.09965	0.01741
2347.81388	0.01970
2346.52811	0.02330
2345.24234	0.02449
2343.95657	0.02341
2342.67080	0.02288
2341.38503	0.02348
2340.09926	0.02415
2338.81350	0.02442
2337.52773	0.02404
2336.24196	0.02385
2334.95619	0.02369
2333.67042	0.02332
2332.38465	0.02373
2331.09888	0.02442
2329.81311	0.02464
2328.52735	0.02516
2327.24158	0.02555
2325.95581	0.02579
2324.67004	0.02669
2323.38427	0.02781
2322.09850	0.02862
2320.81273	0.02950
2319.52696	0.02945
2318.24119	0.02849
2316.95543	0.02773
2315.66966	0.02741
2314.38389	0.02757
2313.09812	0.02798
2311.81235	0.02831
2310.52658	0.02882
2309.24081	0.02919
2307.95504	0.02932
2306.66928	0.02951
2305.38351	0.02933
2304.09774	0.02899
2302.81197	0.02866
2301.52620	0.02821
2300.24043	0.02769
2298.95466	0.02714
2297.66889	0.02680
2296.38312	0.02665
2295.09736	0.02661
2293.81159	0.02668
2292.52582	0.02686
2291.24005	0.02723
2289.95428	0.02764
2288.66851	0.02794
2287.38274	0.02802
2286.09697	0.02790
2284.81121	0.02763
2283.52544	0.02736
2282.23967	0.02714
2280.95390	0.02692
2279.66813	0.02669
2278.38236	0.02651
2277.09659	0.02650
2275.81082	0.02661
2274.52505	0.02665
2273.23929	0.02641
2271.95352	0.02583
2270.66775	0.02507
2269.38198	0.02441
2268.09621	0.02403
2266.81044	0.02388
2265.52467	0.02378
2264.23890	0.02366
2262.95314	0.02361
2261.66737	0.02380
2260.38160	0.02415
2259.09583	0.02433
2257.81006	0.02413
2256.52429	0.02364
2255.23852	0.02320
2253.95275	0.02304
2252.66698	0.02321
2251.38122	0.02351
2250.09545	0.02383
2248.80968	0.02410
2247.52391	0.02355
2246.23814	0.02272
2244.95237	0.02179
2243.66660	0.02104
2242.38083	0.02075
2241.09507	0.02090
2239.80930	0.02113
2238.52353	0.02113
2237.23776	0.02100
2235.95199	0.02091
2234.66622	0.02085
2233.38045	0.02073
2232.09468	0.02072
2230.80891	0.02100
2229.52315	0.02134
2228.23738	0.02125
2226.95161	0.02061
2225.66584	0.01979
2224.38007	0.01914
2223.09430	0.01852
2221.80853	0.01760
2220.52276	0.01647
2219.23700	0.01581
2217.95123	0.01634
2216.66546	0.01797
2215.37969	0.01968
2214.09392	0.02021
2212.80815	0.01915
2211.52238	0.01730
2210.23661	0.01601
2208.95084	0.01594
2207.66508	0.01668
2206.37931	0.01738
2205.09354	0.01755
2203.80777	0.01725
2202.52200	0.01676
2201.23623	0.01630
2199.95046	0.01595
2198.66469	0.01564
2197.37893	0.01526
2196.09316	0.01481
2194.80739	0.01450
2193.52162	0.01444
2192.23585	0.01439
2190.95008	0.01385
2189.66431	0.01254
2188.37854	0.01095
2187.09277	0.00999
2185.80701	0.01015
2184.52124	0.01107
2183.23547	0.01202
2181.94970	0.01256
2180.66393	0.01270
2179.37816	0.01265
2178.09239	0.01276
2176.80662	0.01316
2175.52085	0.01355
2174.23509	0.01343
2172.94932	0.01259
2171.66355	0.01137
2170.37778	0.01022
2169.09201	0.00942
2167.80624	0.00895
2166.52047	0.00854
2165.23470	0.00786
2163.94894	0.00673
2162.66317	0.00545
2161.37740	0.00465
2160.09163	0.00472
2158.80586	0.00536
2157.52009	0.00597
2156.23432	0.00629
2154.94855	0.00660
2153.66278	0.00724
2152.37702	0.00813
2151.09125	0.00897
2149.80548	0.00961
2148.51971	0.01014
2147.23394	0.01062
2145.94817	0.01100
2144.66240	0.01120
2143.37663	0.01146
2142.09087	0.01217
2140.80510	0.01341
2139.51933	0.01469
2138.23356	0.01530
2136.94779	0.01497
2135.66202	0.01410
2134.37625	0.01339
2133.09048	0.01331
2131.80471	0.01384
2130.51895	0.01477
2129.23318	0.01584
2127.94741	0.01677
2126.66164	0.01737
2125.37587	0.01760
2124.09010	0.01754
2122.80433	0.01732
2121.51856	0.01713
2120.23280	0.01721
2118.94703	0.01762
2117.66126	0.01807
2116.37549	0.01824
2115.08972	0.01820
2113.80395	0.01824
2112.51818	0.01842
2111.23241	0.01854
2109.94664	0.01840
2108.66088	0.01807
2107.37511	0.01776
2106.08934	0.01765
2104.80357	0.01783
2103.51780	0.01821
2102.23203	0.01851
2100.94626	0.01838
2099.66049	0.01774
2098.37473	0.01671
2097.08896	0.01573
2095.80319	0.01526
2094.51742	0.01548
2093.23165	0.01619
2091.94588	0.01694
2090.66011	0.01732
2089.37434	0.01729
2088.08857	0.01720
2086.80281	0.01734
2085.51704	0.01762
2084.23127	0.01766
2082.94550	0.01727
2081.65973	0.01669
2080.37396	0.01629
2079.08819	0.01617
2077.80242	0.01605
2076.51666	0.01556
2075.23089	0.01471
2073.94512	0.01386
2072.65935	0.01332
2071.37358	0.01307
2070.08781	0.01289
2068.80204	0.01276
2067.51627	0.01280
2066.23050	0.01305
2064.94474	0.01334
2063.65897	0.01352
2062.37320	0.01366
2061.08743	0.01387
2059.80166	0.01410
2058.51589	0.01424
2057.23012	0.01419
2055.94435	0.01388
2054.65859	0.01334
2053.37282	0.01272
2052.08705	0.01225
2050.80128	0.01202
2049.51551	0.01176
2048.22974	0.01110
2046.94397	0.00997
2045.65820	0.00877
2044.37243	0.00802
2043.08667	0.00799
2041.80090	0.00857
2040.51513	0.00941
2039.22936	0.01010
2037.94359	0.01037
2036.65782	0.01020
2035.37205	0.00980
2034.08628	0.00941
2032.80052	0.00898
2031.51475	0.00833
2030.22898	0.00732
2028.94321	0.00615
2027.65744	0.00528
2026.37167	0.00520
2025.08590	0.00605
2023.80013	0.00742
2022.51436	0.00860
2021.22860	0.00922
2019.94283	0.00947
2018.65706	0.00971
2017.37129	0.01002
2016.08552	0.01006
2014.79975	0.00961
2013.51398	0.00889
2012.22821	0.00829
2010.94245	0.00790
2009.65668	0.00742
2008.37091	0.00671
2007.08514	0.00621
2005.79937	0.00640
2004.51360	0.00724
2003.22783	0.00818
2001.94206	0.00881
2000.65629	0.00926
1999.37053	0.00989
1998.08476	0.01090
1996.79899	0.01210
1995.51322	0.01303
1994.22745	0.01336
1992.94168	0.01311
1991.65591	0.01252
1990.37014	0.01189
1989.08438	0.01142
1987.79861	0.01124
1986.51284	0.01140
1985.22707	0.01183
1983.94130	0.01242
1982.65553	0.01293
1981.36976	0.01313
1980.08399	0.01281
1978.79822	0.01201
1977.51246	0.01095
1976.22669	0.00999
1974.94092	0.00952
1973.65515	0.00979
1972.36938	0.01067
1971.08361	0.01173
1969.79784	0.01251
1968.51207	0.01280
1967.22631	0.01271
1965.94054	0.01248
1964.65477	0.01225
1963.36900	0.01204
1962.08323	0.01190
1960.79746	0.01205
1959.51169	0.01260
1958.22592	0.01329
1956.94015	0.01379
1955.65439	0.01401
1954.36862	0.01417
1953.08285	0.01438
1951.79708	0.01453
1950.51131	0.01461
1949.22554	0.01475
1947.93977	0.01496
1946.65400	0.01507
1945.36823	0.01494
1944.08247	0.01478
1942.79670	0.01498
1941.51093	0.01562
1940.22516	0.01643
1938.93939	0.01702
1937.65362	0.01729
1936.36785	0.01742
1935.08208	0.01758
1933.79632	0.01777
1932.51055	0.01783
1931.22478	0.01765
1929.93901	0.01722
1928.65324	0.01673
1927.36747	0.01641
1926.08170	0.01637
1924.79593	0.01652
1923.51016	0.01667
1922.22440	0.01681
1920.93863	0.01709
1919.65286	0.01756
1918.36709	0.01795
1917.08132	0.01789
1915.79555	0.01733
1914.50978	0.01668
1913.22401	0.01649
1911.93825	0.01687
1910.65248	0.01747
1909.36671	0.01783
1908.08094	0.01786
1906.79517	0.01775
1905.50940	0.01778
1904.22363	0.01802
1902.93786	0.01843
1901.65209	0.01889
1900.36633	0.01921
1899.08056	0.01923
1897.79479	0.01895
1896.50902	0.01851
1895.22325	0.01811
1893.93748	0.01792
1892.65171	0.01799
1891.36594	0.01829
1890.08018	0.01870
1888.79441	0.01911
1887.50864	0.01945
1886.22287	0.01966
1884.93710	0.01968
1883.65133	0.01944
1882.36556	0.01901
1881.07979	0.01856
1879.79402	0.01828
1878.50826	0.01826
1877.22249	0.01849
1875.93672	0.01890
1874.65095	0.01933
1873.36518	0.01965
1872.07941	0.01982
1870.79364	0.01985
1869.50787	0.01976
1868.22211	0.01959
1866.93634	0.01943
1865.65057	0.01936
1864.36480	0.01937
1863.07903	0.01938
1861.79326	0.01934
1860.50749	0.01925
1859.22172	0.01916
1857.93595	0.01910
1856.65019	0.01909
1855.36442	0.01910
1854.07865	0.01910
1852.79288	0.01906
1851.50711	0.01903
1850.22134	0.01909
1848.93557	0.01930
1847.64980	0.01963
1846.36404	0.01995
1845.07827	0.02010
1843.79250	0.02004
1842.50673	0.01985
1841.22096	0.01965
1839.93519	0.01956
1838.64942	0.01957
1837.36365	0.01960
1836.07788	0.01954
1834.79212	0.01940
1833.50635	0.01932
1832.22058	0.01942
1830.93481	0.01970
1829.64904	0.02000
1828.36327	0.02016
1827.07750	0.02011
1825.79173	0.01993
1824.50597	0.01977
1823.22020	0.01972
1821.93443	0.01974
1820.64866	0.01972
1819.36289	0.01957
1818.07712	0.01936
1816.79135	0.01925
1815.50558	0.01939
1814.21981	0.01974
1812.93405	0.02013
1811.64828	0.02041
1810.36251	0.02054
1809.07674	0.02057
1807.79097	0.02054
1806.50520	0.02046
1805.21943	0.02035
1803.93366	0.02026
1802.64790	0.02021
1801.36213	0.02020
1800.07636	0.02019
1798.79059	0.02018
1797.50482	0.02022
1796.21905	0.02036
1794.93328	0.02061
1793.64751	0.02088
1792.36174	0.02105
1791.07598	0.02107
1789.79021	0.02096
1788.50444	0.02083
1787.21867	0.02074
1785.93290	0.02069
1784.64713	0.02065
1783.36136	0.02061
1782.07559	0.02061
1780.78983	0.02069
1779.50406	0.02080
1778.21829	0.02092
1776.93252	0.02106
1775.64675	0.02125
1774.36098	0.02142
1773.07521	0.02148
1771.78944	0.02143
1770.50367	0.02137
1769.21791	0.02140
1767.93214	0.02147
1766.64637	0.02154
1765.36060	0.02162
1764.07483	0.02175
1762.78906	0.02191
1761.50329	0.02202
1760.21752	0.02204
1758.93176	0.02198
1757.64599	0.02191
1756.36022	0.02186
1755.07445	0.02187
1753.78868	0.02193
1752.50291	0.02201
1751.21714	0.02203
1749.93137	0.02194
1748.64560	0.02181
1747.35984	0.02172
1746.07407	0.02174
1744.78830	0.02187
1743.50253	0.02204
1742.21676	0.02221
1740.93099	0.02232
1739.64522	0.02237
1738.35945	0.02241
1737.07369	0.02254
1735.78792	0.02283
1734.50215	0.02317
1733.21638	0.02339
1731.93061	0.02344
1730.64484	0.02338
1729.35907	0.02332
1728.07330	0.02331
1726.78753	0.02333
1725.50177	0.02336
1724.21600	0.02338
1722.93023	0.02342
1721.64446	0.02356
1720.35869	0.02386
1719.07292	0.02429
1717.78715	0.02474
1716.50138	0.02507
1715.21561	0.02528
1713.92985	0.02544
1712.64408	0.02564
1711.35831	0.02593
1710.07254	0.02629
1708.78677	0.02667
1707.50100	0.02697
1706.21523	0.02722
1704.92946	0.02748
1703.64370	0.02785
1702.35793	0.02832
1701.07216	0.02883
1699.78639	0.02926
1698.50062	0.02961
1697.21485	0.02985
1695.92908	0.02996
1694.64331	0.02994
1693.35754	0.02991
1692.07178	0.02996
1690.78601	0.03012
1689.50024	0.03035
1688.21447	0.03060
1686.92870	0.03088
1685.64293	0.03116
1684.35716	0.03137
1683.07139	0.03146
1681.78563	0.03147
1680.49986	0.03150
1679.21409	0.03164
1677.92832	0.03193
1676.64255	0.03232
1675.35678	0.03275
1674.07101	0.03314
1672.78524	0.03349
1671.49947	0.03381
1670.21371	0.03409
1668.92794	0.03432
1667.64217	0.03449
1666.35640	0.03466
1665.07063	0.03489
1663.78486	0.03517
1662.49909	0.03544
1661.21332	0.03567
1659.92756	0.03587
1658.64179	0.03610
1657.35602	0.03643
1656.07025	0.03689
1654.78448	0.03742
1653.49871	0.03784
1652.21294	0.03803
1650.92717	0.03800
1649.64140	0.03794
1648.35564	0.03799
1647.06987	0.03814
1645.78410	0.03826
1644.49833	0.03825
1643.21256	0.03816
1641.92679	0.03808
1640.64102	0.03808
1639.35525	0.03819
1638.06949	0.03836
1636.78372	0.03854
1635.49795	0.03863
1634.21218	0.03864
1632.92641	0.03863
1631.64064	0.03868
1630.35487	0.03883
1629.06910	0.03903
1627.78333	0.03924
1626.49757	0.03947
1625.21180	0.03970
1623.92603	0.03988
1622.64026	0.03997
1621.35449	0.03998
1620.06872	0.04004
1618.78295	0.04020
1617.49718	0.04041
1616.21142	0.04056
1614.92565	0.04062
1613.63988	0.04066
1612.35411	0.04079
1611.06834	0.04102
1609.78257	0.04128
1608.49680	0.04150
1607.21103	0.04167
1605.92526	0.04179
1604.63950	0.04190
1603.35373	0.04204
1602.06796	0.04222
1600.78219	0.04246
1599.49642	0.04276
1598.21065	0.04307
1596.92488	0.04333
1595.63911	0.04352
1594.35335	0.04363
1593.06758	0.04372
1591.78181	0.04381
1590.49604	0.04392
1589.21027	0.04408
1587.92450	0.04431
1586.63873	0.04464
1585.35296	0.04502
1584.06719	0.04540
1582.78143	0.04573
1581.49566	0.04603
1580.20989	0.04636
1578.92412	0.04676
1577.63835	0.04719
1576.35258	0.04757
1575.06681	0.04785
1573.78104	0.04808
1572.49528	0.04839
1571.20951	0.04882
1569.92374	0.04928
1568.63797	0.04965
1567.35220	0.04988
1566.06643	0.05004
1564.78066	0.05022
1563.49489	0.05053
1562.20912	0.05100
1560.92336	0.05157
1559.63759	0.05209
1558.35182	0.05243
1557.06605	0.05257
1555.78028	0.05263
1554.49451	0.05269
1553.20874	0.05278
1551.92297	0.05287
1550.63721	0.05294
1549.35144	0.05300
1548.06567	0.05309
1546.77990	0.05321
1545.49413	0.05337
1544.20836	0.05349
1542.92259	0.05356
1541.63682	0.05355
1540.35105	0.05341
1539.06529	0.05312
1537.77952	0.05274
1536.49375	0.05239
1535.20798	0.05216
1533.92221	0.05204
1532.63644	0.05195
1531.35067	0.05186
1530.06490	0.05185
1528.77914	0.05197
1527.49337	0.05224
1526.20760	0.05259
1524.92183	0.05297
1523.63606	0.05340
1522.35029	0.05389
1521.06452	0.05442
1519.77875	0.05499
1518.49298	0.05561
1517.20722	0.05631
1515.92145	0.05710
1514.63568	0.05796
1513.34991	0.05890
1512.06414	0.05990
1510.77837	0.06099
1509.49260	0.06218
1508.20683	0.06344
1506.92107	0.06467
1505.63530	0.06571
1504.34953	0.06653
1503.06376	0.06722
1501.77799	0.06794
1500.49222	0.06870
1499.20645	0.06950
1497.92068	0.07027
1496.63491	0.07100
1495.34915	0.07167
1494.06338	0.07227
1492.77761	0.07286
1491.49184	0.07348
1490.20607	0.07416
1488.92030	0.07487
1487.63453	0.07557
1486.34876	0.07632
1485.06299	0.07717
1483.77723	0.07813
1482.49146	0.07920
1481.20569	0.08030
1479.91992	0.08139
1478.63415	0.08247
1477.34838	0.08355
1476.06261	0.08464
1474.77684	0.08574
1473.49108	0.08681
1472.20531	0.08781
1470.91954	0.08871
1469.63377	0.08953
1468.34800	0.09029
1467.06223	0.09101
1465.77646	0.09166
1464.49069	0.09223
1463.20492	0.09275
1461.91916	0.09329
1460.63339	0.09391
1459.34762	0.09464
1458.06185	0.09543
1456.77608	0.09613
1455.49031	0.09663
1454.20454	0.09693
1452.91877	0.09710
1451.63301	0.09720
1450.34724	0.09727
1449.06147	0.09729
1447.77570	0.09727
1446.48993	0.09715
1445.20416	0.09694
1443.91839	0.09665
1442.63262	0.09635
1441.34685	0.09606
1440.06109	0.09583
1438.77532	0.09573
1437.48955	0.09578
1436.20378	0.09599
1434.91801	0.09635
1433.63224	0.09686
1432.34647	0.09756
1431.06070	0.09846
1429.77494	0.09957
1428.48917	0.10087
1427.20340	0.10230
1425.91763	0.10379
1424.63186	0.10530
1423.34609	0.10675
1422.06032	0.10812
1420.77455	0.10943
1419.48878	0.11064
1418.20302	0.11169
1416.91725	0.11255
1415.63148	0.11318
1414.34571	0.11362
1413.05994	0.11390
1411.77417	0.11400
1410.48840	0.11391
1409.20263	0.11359
1407.91687	0.11302
1406.63110	0.11221
1405.34533	0.11120
1404.05956	0.11002
1402.77379	0.10867
1401.48802	0.10715
1400.20225	0.10547
1398.91648	0.10368
1397.63071	0.10182
1396.34495	0.09991
1395.05918	0.09791
1393.77341	0.09579
1392.48764	0.09360
1391.20187	0.09145
1389.91610	0.08941
1388.63033	0.08747
1387.34456	0.08558
1386.05880	0.08374
1384.77303	0.08196
1383.48726	0.08028
1382.20149	0.07869
1380.91572	0.07716
1379.62995	0.07564
1378.34418	0.07408
1377.05841	0.07243
1375.77264	0.07065
1374.48688	0.06869
1373.20111	0.06659
1371.91534	0.06440
1370.62957	0.06226
1369.34380	0.06027
1368.05803	0.05850
1366.77226	0.05692
1365.48649	0.05544
1364.20073	0.05397
1362.91496	0.05247
1361.62919	0.05099
1360.34342	0.04960
1359.05765	0.04837
1357.77188	0.04727
1356.48611	0.04625
1355.20034	0.04526
1353.91457	0.04428
1352.62881	0.04334
1351.34304	0.04246
1350.05727	0.04167
1348.77150	0.04095
1347.48573	0.04030
1346.19996	0.03973
1344.91419	0.03922
1343.62842	0.03874
1342.34266	0.03825
1341.05689	0.03776
1339.77112	0.03729
1338.48535	0.03686
1337.19958	0.03647
1335.91381	0.03610
1334.62804	0.03574
1333.34227	0.03536
1332.05650	0.03497
1330.77074	0.03458
1329.48497	0.03424
1328.19920	0.03396
1326.91343	0.03372
1325.62766	0.03348
1324.34189	0.03322
1323.05612	0.03293
1321.77035	0.03263
1320.48459	0.03235
1319.19882	0.03209
1317.91305	0.03183
1316.62728	0.03158
1315.34151	0.03133
1314.05574	0.03112
1312.76997	0.03095
1311.48420	0.03083
1310.19843	0.03072
1308.91267	0.03060
1307.62690	0.03045
1306.34113	0.03029
1305.05536	0.03011
1303.76959	0.02993
1302.48382	0.02972
1301.19805	0.02950
1299.91228	0.02926
1298.62652	0.02903
1297.34075	0.02884
1296.05498	0.02867
1294.76921	0.02853
1293.48344	0.02839
1292.19767	0.02825
1290.91190	0.02808
1289.62613	0.02786
1288.34036	0.02766
1287.05460	0.02751
1285.76883	0.02741
1284.48306	0.02732
1283.19729	0.02721
1281.91152	0.02706
1280.62575	0.02691
1279.33998	0.02675
1278.05421	0.02659
1276.76845	0.02642
1275.48268	0.02626
1274.19691	0.02611
1272.91114	0.02597
1271.62537	0.02586
1270.33960	0.02574
1269.05383	0.02560
1267.76806	0.02543
1266.48229	0.02523
1265.19653	0.02502
1263.91076	0.02483
1262.62499	0.02465
1261.33922	0.02450
1260.05345	0.02436
1258.76768	0.02422
1257.48191	0.02406
1256.19614	0.02391
1254.91037	0.02380
1253.62461	0.02375
1252.33884	0.02374
1251.05307	0.02369
1249.76730	0.02359
1248.48153	0.02343
1247.19576	0.02323
1245.90999	0.02304
1244.62422	0.02288
1243.33846	0.02276
1242.05269	0.02269
1240.76692	0.02265
1239.48115	0.02261
1238.19538	0.02254
1236.90961	0.02245
1235.62384	0.02235
1234.33807	0.02224
1233.05230	0.02213
1231.76654	0.02202
1230.48077	0.02189
1229.19500	0.02176
1227.90923	0.02165
1226.62346	0.02155
1225.33769	0.02147
1224.05192	0.02140
1222.76615	0.02132
1221.48039	0.02122
1220.19462	0.02107
1218.90885	0.02089
1217.62308	0.02069
1216.33731	0.02052
1215.05154	0.02041
1213.76577	0.02037
1212.48000	0.02038
1211.19423	0.02042
1209.90847	0.02043
1208.62270	0.02041
1207.33693	0.02035
1206.05116	0.02029
1204.76539	0.02024
1203.47962	0.02018
1202.19385	0.02012
1200.90808	0.02006
1199.62232	0.01998
1198.33655	0.01989
1197.05078	0.01976
1195.76501	0.01962
1194.47924	0.01950
1193.19347	0.01946
1191.90770	0.01949
1190.62193	0.01954
1189.33616	0.01958
1188.05040	0.01958
1186.76463	0.01957
1185.47886	0.01953
1184.19309	0.01946
1182.90732	0.01939
1181.62155	0.01936
1180.33578	0.01937
1179.05001	0.01938
1177.76425	0.01937
1176.47848	0.01935
1175.19271	0.01934
1173.90694	0.01938
1172.62117	0.01945
1171.33540	0.01953
1170.04963	0.01958
1168.76386	0.01966
1167.47809	0.01979
1166.19233	0.01998
1164.90656	0.02020
1163.62079	0.02038
1162.33502	0.02052
1161.04925	0.02064
1159.76348	0.02081
1158.47771	0.02108
1157.19194	0.02143
1155.90618	0.02179
1154.62041	0.02211
1153.33464	0.02238
1152.04887	0.02267
1150.76310	0.02301
1149.47733	0.02338
1148.19156	0.02379
1146.90579	0.02429
1145.62002	0.02490
1144.33426	0.02563
1143.04849	0.02639
1141.76272	0.02714
1140.47695	0.02791
1139.19118	0.02881
1137.90541	0.02992
1136.61964	0.03125
1135.33387	0.03270
1134.04811	0.03421
1132.76234	0.03584
1131.47657	0.03771
1130.19080	0.03992
1128.90503	0.04243
1127.61926	0.04517
1126.33349	0.04813
1125.04772	0.05132
1123.76195	0.05473
1122.47619	0.05827
1121.19042	0.06186
1119.90465	0.06546
1118.61888	0.06903
1117.33311	0.07255
1116.04734	0.07604
1114.76157	0.07951
1113.47580	0.08293
1112.19004	0.08624
1110.90427	0.08941
1109.61850	0.09242
1108.33273	0.09529
1107.04696	0.09808
1105.76119	0.10079
1104.47542	0.10340
1103.18965	0.10586
1101.90388	0.10813
1100.61812	0.11026
1099.33235	0.11233
1098.04658	0.11440
1096.76081	0.11641
1095.47504	0.11829
1094.18927	0.12004
1092.90350	0.12169
1091.61773	0.12325
1090.33197	0.12472
1089.04620	0.12611
1087.76043	0.12748
1086.47466	0.12894
1085.18889	0.13057
1083.90312	0.13235
1082.61735	0.13416
1081.33158	0.13596
1080.04581	0.13780
1078.76005	0.13975
1077.47428	0.14188
1076.18851	0.14417
1074.90274	0.14660
1073.61697	0.14917
1072.33120	0.15188
1071.04543	0.15469
1069.75966	0.15754
1068.47390	0.16036
1067.18813	0.16314
1065.90236	0.16595
1064.61659	0.16881
1063.33082	0.17175
1062.04505	0.17475
1060.75928	0.17778
1059.47351	0.18083
1058.18774	0.18388
1056.90198	0.18690
1055.61621	0.18988
1054.33044	0.19285
1053.04467	0.19585
1051.75890	0.19890
1050.47313	0.20201
1049.18736	0.20521
1047.90159	0.20851
1046.61583	0.21199
1045.33006	0.21566
1044.04429	0.21946
1042.75852	0.22331
1041.47275	0.22715
1040.18698	0.23106
1038.90121	0.23509
1037.61544	0.23925
1036.32967	0.24340
1035.04391	0.24742
1033.75814	0.25118
1032.47237	0.25457
1031.18660	0.25760
1029.90083	0.26031
1028.61506	0.26278
1027.32929	0.26501
1026.04352	0.26694
1024.75775	0.26847
1023.47199	0.26958
1022.18622	0.27028
1020.90045	0.27058
1019.61468	0.27045
1018.32891	0.26985
1017.04314	0.26878
1015.75737	0.26727
1014.47160	0.26532
1013.18584	0.26294
1011.90007	0.26009
1010.61430	0.25676
1009.32853	0.25295
1008.04276	0.24867
1006.75699	0.24395
1005.47122	0.23884
1004.18545	0.23336
1002.89968	0.22756
1001.61392	0.22151
1000.32815	0.21529
999.04238	0.20894
997.75661	0.20245
996.47084	0.19579
995.18507	0.18897
993.89930	0.18208
992.61353	0.17524
991.32777	0.16854
990.04200	0.16205
988.75623	0.15582
987.47046	0.14985
986.18469	0.14414
984.89892	0.13872
983.61315	0.13361
982.32738	0.12881
981.04161	0.12430
979.75585	0.12008
978.47008	0.11619
977.18431	0.11271
975.89854	0.10964
974.61277	0.10699
973.32700	0.10478
972.04123	0.10302
970.75546	0.10176
969.46970	0.10100
968.18393	0.10073
966.89816	0.10092
965.61239	0.10148
964.32662	0.10226
963.04085	0.10300
961.75508	0.10342
960.46931	0.10333
959.18354	0.10264
957.89778	0.10135
956.61201	0.09957
955.32624	0.09747
954.04047	0.09522
952.75470	0.09290
951.46893	0.09057
950.18316	0.08824
948.89739	0.08590
947.61163	0.08357
946.32586	0.08129
945.04009	0.07910
943.75432	0.07700
942.46855	0.07500
941.18278	0.07312
939.89701	0.07139
938.61124	0.06981
937.32547	0.06833
936.03971	0.06691
934.75394	0.06558
933.46817	0.06439
932.18240	0.06333
930.89663	0.06233
929.61086	0.06132
928.32509	0.06032
927.03932	0.05938
925.75356	0.05855
924.46779	0.05781
923.18202	0.05710
921.89625	0.05639
920.61048	0.05568
919.32471	0.05501
918.03894	0.05440
916.75317	0.05384
915.46740	0.05330
914.18164	0.05275
912.89587	0.05219
911.61010	0.05164
910.32433	0.05115
909.03856	0.05068
907.75279	0.05020
906.46702	0.04970
905.18125	0.04919
903.89549	0.04870
902.60972	0.04826
901.32395	0.04792
900.03818	0.04773
898.75241	0.04768
897.46664	0.04769
896.18087	0.04763
894.89510	0.04742
893.60933	0.04710
892.32357	0.04682
891.03780	0.04670
889.75203	0.04686
888.46626	0.04732
887.18049	0.04807
885.89472	0.04916
884.60895	0.05069
883.32318	0.05276
882.03742	0.05525
880.75165	0.05782
879.46588	0.06009
878.18011	0.06192
876.89434	0.06350
875.60857	0.06507
874.32280	0.06664
873.03703	0.06789
871.75126	0.06852
870.46550	0.06837
869.17973	0.06751
867.89396	0.06608
866.60819	0.06416
865.32242	0.06188
864.03665	0.05951
862.75088	0.05733
861.46511	0.05551
860.17935	0.05398
858.89358	0.05259
857.60781	0.05127
856.32204	0.05008
855.03627	0.04909
853.75050	0.04830
852.46473	0.04768
851.17896	0.04716
849.89319	0.04670
848.60743	0.04625
847.32166	0.04578
846.03589	0.04532
844.75012	0.04489
843.46435	0.04452
842.17858	0.04419
840.89281	0.04384
839.60704	0.04346
838.32128	0.04309
837.03551	0.04278
835.74974	0.04253
834.46397	0.04232
833.17820	0.04212
831.89243	0.04197
830.60666	0.04191
829.32089	0.04194
828.03512	0.04198
826.74936	0.04196
825.46359	0.04185
824.17782	0.04169
822.89205	0.04152
821.60628	0.04137
820.32051	0.04131
819.03474	0.04134
817.74897	0.04143
816.46321	0.04144
815.17744	0.04134
813.89167	0.04120
812.60590	0.04110
811.32013	0.04105
810.03436	0.04096
808.74859	0.04081
807.46282	0.04067
806.17705	0.04061
804.89129	0.04063
803.60552	0.04061
802.31975	0.04049
801.03398	0.04030
799.74821	0.04014
798.46244	0.04003
797.17667	0.03994
795.89090	0.03984
794.60513	0.03973
793.31937	0.03965
792.03360	0.03958
790.74783	0.03950
789.46206	0.03944
788.17629	0.03945
786.89052	0.03954
785.60475	0.03964
784.31898	0.03965
783.03322	0.03956
781.74745	0.03938
780.46168	0.03917
779.17591	0.03898
777.89014	0.03881
776.60437	0.03868
775.31860	0.03861
774.03283	0.03862
772.74706	0.03870
771.46130	0.03879
770.17553	0.03885
768.88976	0.03890
767.60399	0.03893
766.31822	0.03893
765.03245	0.03887
763.74668	0.03881
762.46091	0.03880
761.17515	0.03888
759.88938	0.03905
758.60361	0.03921
757.31784	0.03931
756.03207	0.03934
754.74630	0.03933
753.46053	0.03933
752.17476	0.03936
750.88899	0.03941
749.60323	0.03951
748.31746	0.03960
747.03169	0.03963
745.74592	0.03951
744.46015	0.03926
743.17438	0.03896
741.88861	0.03872
740.60284	0.03860
739.31708	0.03861
738.03131	0.03865
736.74554	0.03860
735.45977	0.03844
734.17400	0.03827
732.88823	0.03820
731.60246	0.03827
730.31669	0.03843
729.03092	0.03861
727.74516	0.03876
726.45939	0.03884
725.17362	0.03878
723.88785	0.03839
722.60208	0.03824
721.31631	0.03843
720.03054	0.03863
718.74477	0.03861
717.45901	0.03861
716.17324	0.03860
714.88747	0.03849
713.60170	0.03830
712.31593	0.03806
711.03016	0.03781
709.74439	0.03759
708.45862	0.03740
707.17285	0.03725
705.88709	0.03711
704.60132	0.03698
703.31555	0.03683
702.02978	0.03666
700.74401	0.03649
699.45824	0.03636
698.17247	0.03629
696.88670	0.03630
695.60094	0.03633
694.31517	0.03631
693.02940	0.03622
691.74363	0.03605
690.45786	0.03584
689.17209	0.03560
687.88632	0.03535
686.60055	0.03506
685.31478	0.03475
684.02902	0.03446
682.74325	0.03425
681.45748	0.03414
680.17171	0.03410
678.88594	0.03411
677.60017	0.03414
676.31440	0.03421
675.02863	0.03428
673.74287	0.03427
672.45710	0.03411
671.17133	0.03414
669.88556	0.03542
668.59979	0.03766
667.31402	0.03685
666.02825	0.03439
664.74248	0.03372
663.45671	0.03386
662.17095	0.03380
660.88518	0.03353
659.59941	0.03323
658.31364	0.03296
657.02787	0.03280
655.74210	0.03273
654.45633	0.03270
653.17056	0.03270
651.88480	0.03270
650.59903	0.03273
649.31326	0.03280
648.02749	0.03281
646.74172	0.03280
645.45595	0.03279
644.17018	0.03279
642.88441	0.03284
641.59864	0.03297
640.31288	0.03316
639.02711	0.03336
637.74134	0.03354
636.45557	0.03374
635.16980	0.03398
633.88403	0.03428
632.59826	0.03465
631.31249	0.03514
630.02673	0.03581
628.74096	0.03662
627.45519	0.03743
626.16942	0.03844
624.88365	0.03954
623.59788	0.04094
622.31211	0.04325
621.02634	0.04665
619.74057	0.05046
618.45481	0.05407
617.16904	0.05765
615.88327	0.06144
614.59750	0.06514
613.31173	0.06823
612.02596	0.07083
610.74019	0.07375
609.45442	0.07774
608.16866	0.08281
606.88289	0.08827
605.59712	0.09326
604.31135	0.09707
603.02558	0.09952
601.73981	0.10084
600.45404	0.10108
599.16827	0.10001
597.88250	0.09765
596.59674	0.09452
595.31097	0.09128
594.02520	0.08833
592.73943	0.08582
591.45366	0.08381
590.16789	0.08247
588.88212	0.08193
587.59635	0.08220
586.31059	0.08316
585.02482	0.08469
583.73905	0.08664
582.45328	0.08889
581.16751	0.09125
579.88174	0.09360
578.59597	0.09587
577.31020	0.09802
576.02443	0.10006
574.73867	0.10205
573.45290	0.10411
572.16713	0.10639
570.88136	0.10904
569.59559	0.11217
568.30982	0.11583
567.02405	0.11995
565.73828	0.12434
564.45251	0.12855
563.16675	0.13194
561.88098	0.13386
560.59521	0.13387
559.30944	0.13189
558.02367	0.12820
556.73790	0.12327
555.45213	0.11752
554.16636	0.11132
552.88060	0.10500
551.59483	0.09891
550.30906	0.09331
549.02329	0.08833
547.73752	0.08393
546.45175	0.08004
545.16598	0.07657
543.88021	0.07346
542.59444	0.07065
541.30868	0.06809
540.02291	0.06575
538.73714	0.06358
537.45137	0.06156
536.16560	0.05965
534.87983	0.05784
533.59406	0.05612
532.30829	0.05450
531.02253	0.05302
529.73676	0.05174
528.45099	0.05066
527.16522	0.04971
525.87945	0.04877
524.59368	0.04778
523.30791	0.04669
522.02214	0.04555
520.73637	0.04448
519.45061	0.04362
518.16484	0.04297
516.87907	0.04240
515.59330	0.04178
514.30753	0.04109
513.02176	0.04041
511.73599	0.03976
510.45022	0.03912
509.16446	0.03848
507.87869	0.03789
506.59292	0.03741
505.30715	0.03702
504.02138	0.03665
502.73561	0.03624
501.44984	0.03580
500.16407	0.03537
498.87830	0.03497
497.59254	0.03455
496.30677	0.03409
495.02100	0.03360
493.73523	0.03320
492.44946	0.03295
491.16369	0.03283
489.87792	0.03274
488.59215	0.03256
487.30639	0.03231
486.02062	0.03202
484.73485	0.03175
483.44908	0.03156
482.16331	0.03153
480.87754	0.03168
479.59177	0.03195
478.30600	0.03224
477.02023	0.03251
475.73447	0.03278
474.44870	0.03306
473.16293	0.03330
471.87716	0.03339
470.59139	0.03329
469.30562	0.03306
468.01985	0.03283
466.73408	0.03265
465.44832	0.03251
464.16255	0.03232
462.87678	0.03206
461.59101	0.03176
460.30524	0.03146
459.01947	0.03123
457.73370	0.03104
456.44793	0.03088
455.16216	0.03068
453.87640	0.03040
452.59063	0.03008
451.30486	0.02976
450.01909	0.02947
448.73332	0.02920
447.44755	0.02894
446.16178	0.02869
444.87601	0.02849
443.59025	0.02835
442.30448	0.02827
441.01871	0.02821
439.73294	0.02812
438.44717	0.02800
437.16140	0.02788
435.87563	0.02779
434.58986	0.02771
433.30409	0.02765
432.01833	0.02760
430.73256	0.02757
429.44679	0.02753
428.16102	0.02743
426.87525	0.02727
425.58948	0.02710
424.30371	0.02698
423.01794	0.02693
421.73218	0.02689
420.44641	0.02684
419.16064	0.02675
417.87487	0.02664
416.58910	0.02653
415.30333	0.02642
414.01756	0.02629
412.73179	0.02615
411.44602	0.02602
410.16026	0.02594
408.87449	0.02594
407.58872	0.02602
406.30295	0.02615
405.01718	0.02627
403.73141	0.02636
402.44564	0.02641
401.15987	0.02646
399.87411	0.02652
