3997.45528	0.03215
3996.16951	0.03158
3994.88374	0.03074
3993.59798	0.02985
3992.31221	0.02937
3991.02644	0.02944
3989.74067	0.02976
3988.45490	0.02991
3987.16913	0.02987
3985.88336	0.02989
3984.59759	0.03004
3983.31183	0.03000
3982.02606	0.02945
3980.74029	0.02854
3979.45452	0.02776
3978.16875	0.02744
3976.88298	0.02747
3975.59721	0.02753
3974.31144	0.02748
3973.02567	0.02746
3971.73991	0.02762
3970.45414	0.02796
3969.16837	0.02831
3967.88260	0.02858
3966.59683	0.02881
3965.31106	0.02898
3964.02529	0.02905
3962.73952	0.02902
3961.45376	0.02897
3960.16799	0.02891
3958.88222	0.02870
3957.59645	0.02826
3956.31068	0.02772
3955.02491	0.02723
3953.73914	0.02682
3952.45337	0.02648
3951.16760	0.02633
3949.88184	0.02650
3948.59607	0.02701
3947.31030	0.02770
3946.02453	0.02831
3944.73876	0.02857
3943.45299	0.02831
3942.16722	0.02756
3940.88145	0.02661
3939.59569	0.02580
3938.30992	0.02539
3937.02415	0.02531
3935.73838	0.02534
3934.45261	0.02539
3933.16684	0.02568
3931.88107	0.02643
3930.59530	0.02755
3929.30953	0.02863
3928.02377	0.02928
3926.73800	0.02931
3925.45223	0.02876
3924.16646	0.02796
3922.88069	0.02730
3921.59492	0.02703
3920.30915	0.02702
3919.02338	0.02700
3917.73762	0.02680
3916.45185	0.02660
3915.16608	0.02656
3913.88031	0.02657
3912.59454	0.02631
3911.30877	0.02569
3910.02300	0.02511
3908.73723	0.02512
3907.45146	0.02586
3906.16570	0.02681
3904.87993	0.02732
3903.59416	0.02721
3902.30839	0.02682
3901.02262	0.02652
3899.73685	0.02641
3898.45108	0.02630
3897.16531	0.02596
3895.87955	0.02542
3894.59378	0.02492
3893.30801	0.02471
3892.02224	0.02482
3890.73647	0.02515
3889.45070	0.02561
3888.16493	0.02607
3886.87916	0.02642
3885.59339	0.02654
3884.30763	0.02647
3883.02186	0.02634
3881.73609	0.02627
3880.45032	0.02619
3879.16455	0.02595
3877.87878	0.02556
3876.59301	0.02531
3875.30724	0.02538
3874.02148	0.02552
3872.73571	0.02518
3871.44994	0.02434
3870.16417	0.02377
3868.87840	0.02423
3867.59263	0.02543
3866.30686	0.02639
3865.02109	0.02649
3863.73532	0.02582
3862.44956	0.02489
3861.16379	0.02417
3859.87802	0.02386
3858.59225	0.02382
3857.30648	0.02377
3856.02071	0.02358
3854.73494	0.02352
3853.44917	0.02389
3852.16341	0.02454
3850.87764	0.02493
3849.59187	0.02485
3848.30610	0.02456
3847.02033	0.02439
3845.73456	0.02441
3844.44879	0.02450
3843.16302	0.02464
3841.87725	0.02479
3840.59149	0.02484
3839.30572	0.02483
3838.01995	0.02508
3836.73418	0.02577
3835.44841	0.02650
3834.16264	0.02668
3832.87687	0.02614
3831.59110	0.02526
3830.30534	0.02446
3829.01957	0.02398
3827.73380	0.02386
3826.44803	0.02418
3825.16226	0.02481
3823.87649	0.02532
3822.59072	0.02532
3821.30495	0.02483
3820.01918	0.02421
3818.73342	0.02363
3817.44765	0.02306
3816.16188	0.02267
3814.87611	0.02264
3813.59034	0.02288
3812.30457	0.02323
3811.01880	0.02365
3809.73303	0.02403
3808.44726	0.02422
3807.16150	0.02428
3805.87573	0.02437
3804.58996	0.02423
3803.30419	0.02353
3802.01842	0.02247
3800.73265	0.02178
3799.44688	0.02188
3798.16111	0.02254
3796.87535	0.02329
3795.58958	0.02378
3794.30381	0.02389
3793.01804	0.02383
3791.73227	0.02391
3790.44650	0.02416
3789.16073	0.02426
3787.87496	0.02391
3786.58919	0.02313
3785.30343	0.02232
3784.01766	0.02184
3782.73189	0.02177
3781.44612	0.02192
3780.16035	0.02208
3778.87458	0.02215
3777.58881	0.02209
3776.30304	0.02197
3775.01728	0.02207
3773.73151	0.02257
3772.44574	0.02329
3771.15997	0.02373
3769.87420	0.02356
3768.58843	0.02292
3767.30266	0.02221
3766.01689	0.02187
3764.73112	0.02203
3763.44536	0.02244
3762.15959	0.02269
3760.87382	0.02266
3759.58805	0.02255
3758.30228	0.02254
3757.01651	0.02256
3755.73074	0.02239
3754.44497	0.02182
3753.15921	0.02108
3751.87344	0.02075
3750.58767	0.02122
3749.30190	0.02237
3748.01613	0.02370
3746.73036	0.02460
3745.44459	0.02483
3744.15882	0.02462
3742.87305	0.02413
3741.58729	0.02338
3740.30152	0.02258
3739.01575	0.02195
3737.72998	0.02152
3736.44421	0.02131
3735.15844	0.02139
3733.87267	0.02164
3732.58690	0.02185
3731.30114	0.02199
3730.01537	0.02207
3728.72960	0.02205
3727.44383	0.02195
3726.15806	0.02182
3724.87229	0.02163
3723.58652	0.02136
3722.30075	0.02115
3721.01498	0.02121
3719.72922	0.02155
3718.44345	0.02199
3717.15768	0.02237
3715.87191	0.02264
3714.58614	0.02264
3713.30037	0.02220
3712.01460	0.02135
3710.72883	0.02043
3709.44307	0.01991
3708.15730	0.01998
3706.87153	0.02047
3705.58576	0.02095
3704.29999	0.02109
3703.01422	0.02094
3701.72845	0.02086
3700.44268	0.02113
3699.15691	0.02168
3697.87115	0.02225
3696.58538	0.02269
3695.29961	0.02292
3694.01384	0.02299
3692.72807	0.02302
3691.44230	0.02285
3690.15653	0.02215
3688.87076	0.02102
3687.58500	0.01997
3686.29923	0.01934
3685.01346	0.01900
3683.72769	0.01876
3682.44192	0.01863
3681.15615	0.01883
3679.87038	0.01939
3678.58461	0.01996
3677.29884	0.02023
3676.01308	0.02037
3674.72731	0.02093
3673.44154	0.02196
3672.15577	0.02288
3670.87000	0.02311
3669.58423	0.02259
3668.29846	0.02155
3667.01269	0.02037
3665.72693	0.01942
3664.44116	0.01898
3663.15539	0.01926
3661.86962	0.02022
3660.58385	0.02146
3659.29808	0.02236
3658.01231	0.02250
3656.72654	0.02193
3655.44077	0.02110
3654.15501	0.02040
3652.86924	0.02001
3651.58347	0.01994
3650.29770	0.02011
3649.01193	0.02038
3647.72616	0.02065
3646.44039	0.02095
3645.15462	0.02129
3643.86886	0.02159
3642.58309	0.02169
3641.29732	0.02153
3640.01155	0.02133
3638.72578	0.02141
3637.44001	0.02175
3636.15424	0.02200
3634.86847	0.02188
3633.58270	0.02145
3632.29694	0.02099
3631.01117	0.02070
3629.72540	0.02084
3628.43963	0.02151
3627.15386	0.02236
3625.86809	0.02268
3624.58232	0.02224
3623.29655	0.02151
3622.01079	0.02115
3620.72502	0.02139
3619.43925	0.02189
3618.15348	0.02224
3616.86771	0.02226
3615.58194	0.02198
3614.29617	0.02142
3613.01040	0.02065
3611.72463	0.01991
3610.43887	0.01956
3609.15310	0.01989
3607.86733	0.02078
3606.58156	0.02162
3605.29579	0.02173
3604.01002	0.02102
3602.72425	0.02010
3601.43848	0.01974
3600.15272	0.02011
3598.86695	0.02075
3597.58118	0.02119
3596.29541	0.02147
3595.00964	0.02184
3593.72387	0.02232
3592.43810	0.02263
3591.15233	0.02260
3589.86656	0.02235
3588.58080	0.02212
3587.29503	0.02198
3586.00926	0.02179
3584.72349	0.02143
3583.43772	0.02097
3582.15195	0.02052
3580.86618	0.02010
3579.58041	0.01975
3578.29464	0.01956
3577.00888	0.01966
3575.72311	0.02011
3574.43734	0.02080
3573.15157	0.02149
3571.86580	0.02203
3570.58003	0.02237
3569.29426	0.02247
3568.00849	0.02224
3566.72273	0.02172
3565.43696	0.02117
3564.15119	0.02095
3562.86542	0.02114
3561.57965	0.02142
3560.29388	0.02140
3559.00811	0.02091
3557.72234	0.02012
3556.43657	0.01931
3555.15081	0.01882
3553.86504	0.01889
3552.57927	0.01950
3551.29350	0.02023
3550.00773	0.02063
3548.72196	0.02061
3547.43619	0.02051
3546.15042	0.02055
3544.86466	0.02058
3543.57889	0.02046
3542.29312	0.02036
3541.00735	0.02058
3539.72158	0.02114
3538.43581	0.02172
3537.15004	0.02192
3535.86427	0.02154
3534.57850	0.02062
3533.29274	0.01949
3532.00697	0.01862
3530.72120	0.01837
3529.43543	0.01873
3528.14966	0.01937
3526.86389	0.01991
3525.57812	0.02017
3524.29235	0.02017
3523.00659	0.02008
3521.72082	0.01998
3520.43505	0.01979
3519.14928	0.01947
3517.86351	0.01922
3516.57774	0.01930
3515.29197	0.01968
3514.00620	0.02001
3512.72043	0.01996
3511.43467	0.01958
3510.14890	0.01911
3508.86313	0.01882
3507.57736	0.01889
3506.29159	0.01934
3505.00582	0.01998
3503.72005	0.02055
3502.43428	0.02087
3501.14852	0.02094
3499.86275	0.02086
3498.57698	0.02068
3497.29121	0.02044
3496.00544	0.02020
3494.71967	0.01998
3493.43390	0.01982
3492.14813	0.01975
3490.86236	0.01986
3489.57660	0.02025
3488.29083	0.02083
3487.00506	0.02135
3485.71929	0.02144
3484.43352	0.02089
3483.14775	0.01989
3481.86198	0.01897
3480.57621	0.01867
3479.29045	0.01914
3478.00468	0.01995
3476.71891	0.02045
3475.43314	0.02031
3474.14737	0.01973
3472.86160	0.01932
3471.57583	0.01951
3470.29006	0.02025
3469.00429	0.02107
3467.71853	0.02160
3466.43276	0.02184
3465.14699	0.02198
3463.86122	0.02208
3462.57545	0.02203
3461.28968	0.02183
3460.00391	0.02163
3458.71814	0.02152
3457.43238	0.02150
3456.14661	0.02151
3454.86084	0.02145
3453.57507	0.02116
3452.28930	0.02054
3451.00353	0.01984
3449.71776	0.01949
3448.43199	0.01973
3447.14622	0.02034
3445.86046	0.02094
3444.57469	0.02132
3443.28892	0.02149
3442.00315	0.02151
3440.71738	0.02146
3439.43161	0.02133
3438.14584	0.02107
3436.86007	0.02062
3435.57431	0.02009
3434.28854	0.01975
3433.00277	0.01981
3431.71700	0.02023
3430.43123	0.02071
3429.14546	0.02102
3427.85969	0.02108
3426.57392	0.02102
3425.28815	0.02097
3424.00239	0.02099
3422.71662	0.02097
3421.43085	0.02085
3420.14508	0.02070
3418.85931	0.02068
3417.57354	0.02081
3416.28777	0.02101
3415.00200	0.02114
3413.71624	0.02117
3412.43047	0.02110
3411.14470	0.02099
3409.85893	0.02094
3408.57316	0.02102
3407.28739	0.02123
3406.00162	0.02149
3404.71585	0.02166
3403.43008	0.02161
3402.14432	0.02132
3400.85855	0.02085
3399.57278	0.02041
3398.28701	0.02016
3397.00124	0.02019
3395.71547	0.02047
3394.42970	0.02096
3393.14393	0.02162
3391.85817	0.02227
3390.57240	0.02259
3389.28663	0.02234
3388.00086	0.02162
3386.71509	0.02078
3385.42932	0.02011
3384.14355	0.01967
3382.85778	0.01945
3381.57201	0.01938
3380.28625	0.01941
3379.00048	0.01945
3377.71471	0.01952
3376.42894	0.01972
3375.14317	0.02007
3373.85740	0.02044
3372.57163	0.02069
3371.28586	0.02077
3370.00010	0.02080
3368.71433	0.02090
3367.42856	0.02119
3366.14279	0.02161
3364.85702	0.02190
3363.57125	0.02182
3362.28548	0.02132
3360.99971	0.02072
3359.71394	0.02041
3358.42818	0.02057
3357.14241	0.02104
3355.85664	0.02146
3354.57087	0.02150
3353.28510	0.02108
3351.99933	0.02043
3350.71356	0.01994
3349.42779	0.01973
3348.14202	0.01961
3346.85626	0.01930
3345.57049	0.01880
3344.28472	0.01842
3342.99895	0.01848
3341.71318	0.01902
3340.42741	0.01981
3339.14164	0.02056
3337.85587	0.02107
3336.57011	0.02121
3335.28434	0.02095
3333.99857	0.02045
3332.71280	0.02003
3331.42703	0.02000
3330.14126	0.02039
3328.85549	0.02091
3327.56972	0.02122
3326.28395	0.02119
3324.99819	0.02094
3323.71242	0.02063
3322.42665	0.02031
3321.14088	0.02000
3319.85511	0.01983
3318.56934	0.01995
3317.28357	0.02043
3315.99780	0.02104
3314.71204	0.02145
3313.42627	0.02138
3312.14050	0.02086
3310.85473	0.02026
3309.56896	0.01996
3308.28319	0.02008
3306.99742	0.02035
3305.71165	0.02044
3304.42588	0.02023
3303.14012	0.01989
3301.85435	0.01966
3300.56858	0.01969
3299.28281	0.01988
3297.99704	0.02006
3296.71127	0.02017
3295.42550	0.02026
3294.13973	0.02039
3292.85397	0.02048
3291.56820	0.02042
3290.28243	0.02014
3288.99666	0.01967
3287.71089	0.01916
3286.42512	0.01878
3285.13935	0.01864
3283.85358	0.01874
3282.56781	0.01901
3281.28205	0.01937
3279.99628	0.01977
3278.71051	0.02008
3277.42474	0.02019
3276.13897	0.02009
3274.85320	0.01988
3273.56743	0.01967
3272.28166	0.01953
3270.99590	0.01945
3269.71013	0.01938
3268.42436	0.01929
3267.13859	0.01922
3265.85282	0.01928
3264.56705	0.01951
3263.28128	0.01987
3261.99551	0.02024
3260.70974	0.02051
3259.42398	0.02060
3258.13821	0.02039
3256.85244	0.01980
3255.56667	0.01889
3254.28090	0.01797
3252.99513	0.01746
3251.70936	0.01759
3250.42359	0.01822
3249.13783	0.01896
3247.85206	0.01952
3246.56629	0.01987
3245.28052	0.02010
3243.99475	0.02029
3242.70898	0.02045
3241.42321	0.02049
3240.13744	0.02027
3238.85167	0.01978
3237.56591	0.01919
3236.28014	0.01875
3234.99437	0.01851
3233.70860	0.01833
3232.42283	0.01811
3231.13706	0.01797
3229.85129	0.01805
3228.56552	0.01828
3227.27976	0.01846
3225.99399	0.01849
3224.70822	0.01844
3223.42245	0.01842
3222.13668	0.01844
3220.85091	0.01846
3219.56514	0.01847
3218.27937	0.01847
3216.99360	0.01846
3215.70784	0.01845
3214.42207	0.01838
3213.13630	0.01820
3211.85053	0.01787
3210.56476	0.01740
3209.27899	0.01682
3207.99322	0.01618
3206.70745	0.01565
3205.42169	0.01560
3204.13592	0.01631
3202.85015	0.01760
3201.56438	0.01887
3200.27861	0.01948
3198.99284	0.01930
3197.70707	0.01873
3196.42130	0.01827
3195.13553	0.01813
3193.84977	0.01816
3192.56400	0.01804
3191.27823	0.01766
3189.99246	0.01719
3188.70669	0.01696
3187.42092	0.01707
3186.13515	0.01727
3184.84938	0.01718
3183.56362	0.01676
3182.27785	0.01643
3180.99208	0.01665
3179.70631	0.01740
3178.42054	0.01825
3177.13477	0.01868
3175.84900	0.01849
3174.56323	0.01779
3173.27746	0.01691
3171.99170	0.01619
3170.70593	0.01581
3169.42016	0.01577
3168.13439	0.01589
3166.84862	0.01606
3165.56285	0.01630
3164.27708	0.01664
3162.99131	0.01701
3161.70555	0.01722
3160.41978	0.01714
3159.13401	0.01680
3157.84824	0.01646
3156.56247	0.01639
3155.27670	0.01667
3153.99093	0.01719
3152.70516	0.01770
3151.41939	0.01808
3150.13363	0.01826
3148.84786	0.01819
3147.56209	0.01779
3146.27632	0.01707
3144.99055	0.01626
3143.70478	0.01564
3142.41901	0.01533
3141.13324	0.01530
3139.84748	0.01544
3138.56171	0.01564
3137.27594	0.01586
3135.99017	0.01616
3134.70440	0.01659
3133.41863	0.01708
3132.13286	0.01745
3130.84709	0.01759
3129.56132	0.01754
3128.27556	0.01739
3126.98979	0.01717
3125.70402	0.01689
3124.41825	0.01661
3123.13248	0.01643
3121.84671	0.01637
3120.56094	0.01641
3119.27517	0.01647
3117.98940	0.01645
3116.70364	0.01632
3115.41787	0.01609
3114.13210	0.01580
3112.84633	0.01552
3111.56056	0.01536
3110.27479	0.01541
3108.98902	0.01561
3107.70325	0.01580
3106.41749	0.01583
3105.13172	0.01571
3103.84595	0.01557
3102.56018	0.01550
3101.27441	0.01558
3099.98864	0.01577
3098.70287	0.01599
3097.41710	0.01608
3096.13133	0.01593
3094.84557	0.01554
3093.55980	0.01501
3092.27403	0.01454
3090.98826	0.01431
3089.70249	0.01437
3088.41672	0.01461
3087.13095	0.01487
3085.84518	0.01507
3084.55942	0.01522
3083.27365	0.01532
3081.98788	0.01533
3080.70211	0.01527
3079.41634	0.01522
3078.13057	0.01526
3076.84480	0.01539
3075.55903	0.01553
3074.27326	0.01564
3072.98750	0.01575
3071.70173	0.01590
3070.41596	0.01596
3069.13019	0.01580
3067.84442	0.01539
3066.55865	0.01490
3065.27288	0.01451
3063.98711	0.01431
3062.70135	0.01437
3061.41558	0.01466
3060.12981	0.01500
3058.84404	0.01512
3057.55827	0.01489
3056.27250	0.01442
3054.98673	0.01397
3053.70096	0.01378
3052.41519	0.01390
3051.12943	0.01419
3049.84366	0.01452
3048.55789	0.01481
3047.27212	0.01503
3045.98635	0.01511
3044.70058	0.01501
3043.41481	0.01477
3042.12904	0.01456
3040.84328	0.01452
3039.55751	0.01461
3038.27174	0.01468
3036.98597	0.01459
3035.70020	0.01437
3034.41443	0.01416
3033.12866	0.01408
3031.84289	0.01414
3030.55712	0.01430
3029.27136	0.01448
3027.98559	0.01463
3026.69982	0.01469
3025.41405	0.01469
3024.12828	0.01473
3022.84251	0.01483
3021.55674	0.01488
3020.27097	0.01476
3018.98521	0.01447
3017.69944	0.01410
3016.41367	0.01378
3015.12790	0.01359
3013.84213	0.01358
3012.55636	0.01370
3011.27059	0.01387
3009.98482	0.01399
3008.69905	0.01398
3007.41329	0.01380
3006.12752	0.01345
3004.84175	0.01303
3003.55598	0.01270
3002.27021	0.01253
3000.98444	0.01256
2999.69867	0.01278
2998.41290	0.01315
2997.12714	0.01353
2995.84137	0.01379
2994.55560	0.01388
2993.26983	0.01384
2991.98406	0.01369
2990.69829	0.01342
2989.41252	0.01312
2988.12675	0.01305
2986.84098	0.01329
2985.55522	0.01366
2984.26945	0.01389
2982.98368	0.01392
2981.69791	0.01391
2980.41214	0.01400
2979.12637	0.01419
2977.84060	0.01437
2976.55483	0.01447
2975.26907	0.01447
2973.98330	0.01435
2972.69753	0.01413
2971.41176	0.01395
2970.12599	0.01394
2968.84022	0.01403
2967.55445	0.01407
2966.26868	0.01392
2964.98291	0.01366
2963.69715	0.01339
2962.41138	0.01315
2961.12561	0.01296
2959.83984	0.01287
2958.55407	0.01287
2957.26830	0.01293
2955.98253	0.01304
2954.69676	0.01321
2953.41100	0.01341
2952.12523	0.01358
2950.83946	0.01367
2949.55369	0.01372
2948.26792	0.01380
2946.98215	0.01396
2945.69638	0.01411
2944.41061	0.01417
2943.12484	0.01414
2941.83908	0.01407
2940.55331	0.01401
2939.26754	0.01394
2937.98177	0.01384
2936.69600	0.01371
2935.41023	0.01357
2934.12446	0.01343
2932.83869	0.01331
2931.55293	0.01324
2930.26716	0.01327
2928.98139	0.01340
2927.69562	0.01352
2926.40985	0.01354
2925.12408	0.01347
2923.83831	0.01341
2922.55254	0.01339
2921.26677	0.01340
2919.98101	0.01345
2918.69524	0.01356
2917.40947	0.01370
2916.12370	0.01375
2914.83793	0.01363
2913.55216	0.01339
2912.26639	0.01317
2910.98062	0.01309
2909.69486	0.01318
2908.40909	0.01335
2907.12332	0.01351
2905.83755	0.01363
2904.55178	0.01371
2903.26601	0.01374
2901.98024	0.01370
2900.69447	0.01362
2899.40870	0.01355
2898.12294	0.01352
2896.83717	0.01349
2895.55140	0.01340
2894.26563	0.01321
2892.97986	0.01300
2891.69409	0.01294
2890.40832	0.01312
2889.12255	0.01346
2887.83678	0.01370
2886.55102	0.01372
2885.26525	0.01356
2883.97948	0.01331
2882.69371	0.01296
2881.40794	0.01254
2880.12217	0.01218
2878.83640	0.01204
2877.55063	0.01211
2876.26487	0.01228
2874.97910	0.01241
2873.69333	0.01246
2872.40756	0.01246
2871.12179	0.01247
2869.83602	0.01247
2868.55025	0.01244
2867.26448	0.01235
2865.97871	0.01232
2864.69295	0.01245
2863.40718	0.01270
2862.12141	0.01289
2860.83564	0.01289
2859.54987	0.01274
2858.26410	0.01257
2856.97833	0.01243
2855.69256	0.01228
2854.40680	0.01206
2853.12103	0.01183
2851.83526	0.01170
2850.54949	0.01168
2849.26372	0.01174
2847.97795	0.01181
2846.69218	0.01182
2845.40641	0.01172
2844.12064	0.01158
2842.83488	0.01149
2841.54911	0.01147
2840.26334	0.01143
2838.97757	0.01134
2837.69180	0.01130
2836.40603	0.01145
2835.12026	0.01174
2833.83449	0.01197
2832.54873	0.01196
2831.26296	0.01175
2829.97719	0.01153
2828.69142	0.01145
2827.40565	0.01145
2826.11988	0.01142
2824.83411	0.01135
2823.54834	0.01130
2822.26257	0.01130
2820.97681	0.01133
2819.69104	0.01133
2818.40527	0.01133
2817.11950	0.01136
2815.83373	0.01142
2814.54796	0.01149
2813.26219	0.01153
2811.97642	0.01156
2810.69066	0.01158
2809.40489	0.01154
2808.11912	0.01138
2806.83335	0.01110
2805.54758	0.01078
2804.26181	0.01062
2802.97604	0.01071
2801.69027	0.01097
2800.40450	0.01123
2799.11874	0.01127
2797.83297	0.01109
2796.54720	0.01081
2795.26143	0.01061
2793.97566	0.01055
2792.68989	0.01060
2791.40412	0.01072
2790.11835	0.01088
2788.83259	0.01103
2787.54682	0.01109
2786.26105	0.01103
2784.97528	0.01089
2783.68951	0.01071
2782.40374	0.01053
2781.11797	0.01044
2779.83220	0.01050
2778.54643	0.01069
2777.26067	0.01090
2775.97490	0.01105
2774.68913	0.01109
2773.40336	0.01100
2772.11759	0.01087
2770.83182	0.01074
2769.54605	0.01063
2768.26028	0.01052
2766.97452	0.01042
2765.68875	0.01035
2764.40298	0.01034
2763.11721	0.01037
2761.83144	0.01043
2760.54567	0.01049
2759.25990	0.01049
2757.97413	0.01040
2756.68836	0.01022
2755.40260	0.01003
2754.11683	0.00996
2752.83106	0.01006
2751.54529	0.01030
2750.25952	0.01061
2748.97375	0.01087
2747.68798	0.01097
2746.40221	0.01088
2745.11645	0.01066
2743.83068	0.01048
2742.54491	0.01039
2741.25914	0.01034
2739.97337	0.01027
2738.68760	0.01020
2737.40183	0.01014
2736.11606	0.01012
2734.83029	0.01013
2733.54453	0.01015
2732.25876	0.01012
2730.97299	0.01004
2729.68722	0.01002
2728.40145	0.01015
2727.11568	0.01041
2725.82991	0.01065
2724.54414	0.01072
2723.25838	0.01056
2721.97261	0.01023
2720.68684	0.00984
2719.40107	0.00948
2718.11530	0.00927
2716.82953	0.00924
2715.54376	0.00938
2714.25799	0.00963
2712.97222	0.00987
2711.68646	0.01000
2710.40069	0.01006
2709.11492	0.01013
2707.82915	0.01029
2706.54338	0.01045
2705.25761	0.01050
2703.97184	0.01039
2702.68607	0.01023
2701.40031	0.01009
2700.11454	0.00995
2698.82877	0.00979
2697.54300	0.00967
2696.25723	0.00965
2694.97146	0.00977
2693.68569	0.01002
2692.39992	0.01034
2691.11415	0.01059
2689.82839	0.01065
2688.54262	0.01048
2687.25685	0.01021
2685.97108	0.00998
2684.68531	0.00985
2683.39954	0.00977
2682.11377	0.00967
2680.82800	0.00956
2679.54224	0.00948
2678.25647	0.00946
2676.97070	0.00953
2675.68493	0.00966
2674.39916	0.00978
2673.11339	0.00982
2671.82762	0.00983
2670.54185	0.00987
2669.25608	0.00996
2667.97032	0.01003
2666.68455	0.01005
2665.39878	0.01001
2664.11301	0.00992
2662.82724	0.00981
2661.54147	0.00973
2660.25570	0.00974
2658.96993	0.00985
2657.68417	0.01001
2656.39840	0.01010
2655.11263	0.01005
2653.82686	0.00993
2652.54109	0.00990
2651.25532	0.01001
2649.96955	0.01013
2648.68378	0.01008
2647.39801	0.00987
2646.11225	0.00963
2644.82648	0.00947
2643.54071	0.00942
2642.25494	0.00942
2640.96917	0.00940
2639.68340	0.00933
2638.39763	0.00925
2637.11186	0.00928
2635.82609	0.00948
2634.54033	0.00976
2633.25456	0.00994
2631.96879	0.00990
2630.68302	0.00974
2629.39725	0.00962
2628.11148	0.00958
2626.82571	0.00955
2625.53994	0.00945
2624.25418	0.00928
2622.96841	0.00913
2621.68264	0.00904
2620.39687	0.00894
2619.11110	0.00879
2617.82533	0.00865
2616.53956	0.00860
2615.25379	0.00863
2613.96802	0.00862
2612.68226	0.00850
2611.39649	0.00833
2610.11072	0.00829
2608.82495	0.00848
2607.53918	0.00882
2606.25341	0.00915
2604.96764	0.00932
2603.68187	0.00927
2602.39611	0.00903
2601.11034	0.00871
2599.82457	0.00851
2598.53880	0.00860
2597.25303	0.00894
2595.96726	0.00929
2594.68149	0.00941
2593.39572	0.00928
2592.10995	0.00902
2590.82419	0.00879
2589.53842	0.00868
2588.25265	0.00867
2586.96688	0.00870
2585.68111	0.00876
2584.39534	0.00883
2583.10957	0.00893
2581.82380	0.00913
2580.53804	0.00944
2579.25227	0.00972
2577.96650	0.00974
2576.68073	0.00940
2575.39496	0.00891
2574.10919	0.00857
2572.82342	0.00848
2571.53765	0.00843
2570.25188	0.00828
2568.96612	0.00813
2567.68035	0.00817
2566.39458	0.00839
2565.10881	0.00853
2563.82304	0.00843
2562.53727	0.00825
2561.25150	0.00817
2559.96573	0.00817
2558.67997	0.00806
2557.39420	0.00776
2556.10843	0.00755
2554.82266	0.00775
2553.53689	0.00835
2552.25112	0.00896
2550.96535	0.00919
2549.67958	0.00897
2548.39381	0.00859
2547.10805	0.00832
2545.82228	0.00823
2544.53651	0.00820
2543.25074	0.00817
2541.96497	0.00819
2540.67920	0.00832
2539.39343	0.00850
2538.10766	0.00859
2536.82190	0.00856
2535.53613	0.00845
2534.25036	0.00825
2532.96459	0.00800
2531.67882	0.00776
2530.39305	0.00764
2529.10728	0.00765
2527.82151	0.00776
2526.53574	0.00786
2525.24998	0.00779
2523.96421	0.00749
2522.67844	0.00715
2521.39267	0.00701
2520.10690	0.00720
2518.82113	0.00762
2517.53536	0.00801
2516.24959	0.00818
2514.96383	0.00814
2513.67806	0.00813
2512.39229	0.00830
2511.10652	0.00855
2509.82075	0.00864
2508.53498	0.00844
2507.24921	0.00799
2505.96344	0.00743
2504.67767	0.00696
2503.39191	0.00676
2502.10614	0.00687
2500.82037	0.00716
2499.53460	0.00749
2498.24883	0.00773
2496.96306	0.00783
2495.67729	0.00770
2494.39152	0.00740
2493.10576	0.00711
2491.81999	0.00702
2490.53422	0.00709
2489.24845	0.00712
2487.96268	0.00709
2486.67691	0.00715
2485.39114	0.00745
2484.10537	0.00779
2482.81960	0.00794
2481.53384	0.00786
2480.24807	0.00773
2478.96230	0.00768
2477.67653	0.00770
2476.39076	0.00777
2475.10499	0.00789
2473.81922	0.00802
2472.53345	0.00803
2471.24769	0.00783
2469.96192	0.00748
2468.67615	0.00706
2467.39038	0.00670
2466.10461	0.00659
2464.81884	0.00684
2463.53307	0.00727
2462.24730	0.00754
2460.96153	0.00751
2459.67577	0.00737
2458.39000	0.00743
2457.10423	0.00772
2455.81846	0.00804
2454.53269	0.00815
2453.24692	0.00793
2451.96115	0.00745
2450.67538	0.00680
2449.38962	0.00618
2448.10385	0.00580
2446.81808	0.00578
2445.53231	0.00609
2444.24654	0.00658
2442.96077	0.00705
2441.67500	0.00735
2440.38923	0.00740
2439.10346	0.00729
2437.81770	0.00712
2436.53193	0.00698
2435.24616	0.00687
2433.96039	0.00682
2432.67462	0.00686
2431.38885	0.00701
2430.10308	0.00726
2428.81731	0.00761
2427.53155	0.00793
2426.24578	0.00801
2424.96001	0.00772
2423.67424	0.00715
2422.38847	0.00655
2421.10270	0.00617
2419.81693	0.00618
2418.53116	0.00652
2417.24539	0.00697
2415.95963	0.00718
2414.67386	0.00699
2413.38809	0.00655
2412.10232	0.00619
2410.81655	0.00615
2409.53078	0.00638
2408.24501	0.00663
2406.95924	0.00670
2405.67347	0.00666
2404.38771	0.00667
2403.10194	0.00672
2401.81617	0.00667
2400.53040	0.00646
2399.24463	0.00625
2397.95886	0.00623
2396.67309	0.00637
2395.38732	0.00652
2394.10156	0.00653
2392.81579	0.00640
2391.53002	0.00623
2390.24425	0.00612
2388.95848	0.00608
2387.67271	0.00607
2386.38694	0.00614
2385.10117	0.00629
2383.81540	0.00645
2382.52964	0.00647
2381.24387	0.00632
2379.95810	0.00610
2378.67233	0.00596
2377.38656	0.00597
2376.10079	0.00615
2374.81502	0.00635
2373.52925	0.00650
2372.24349	0.00655
2370.95772	0.00655
2369.67195	0.00650
2368.38618	0.00654
2367.10041	0.00674
2365.81464	0.00709
2364.52887	0.00728
2363.24310	0.00726
2361.95733	0.00724
2360.67157	0.00750
2359.38580	0.00782
2358.10003	0.00798
2356.81426	0.00791
2355.52849	0.00759
2354.24272	0.00713
2352.95695	0.00673
2351.67118	0.00665
2350.38542	0.00679
2349.09965	0.00677
2347.81388	0.00659
2346.52811	0.00674
2345.24234	0.00705
2343.95657	0.00688
2342.67080	0.00632
2341.38503	0.00645
2340.09926	0.00734
2338.81350	0.00750
2337.52773	0.00682
2336.24196	0.00712
2334.95619	0.00809
2333.67042	0.00776
2332.38465	0.00665
2331.09888	0.00688
2329.81311	0.00735
2328.52735	0.00681
2327.24158	0.00736
2325.95581	0.00846
2324.67004	0.00832
2323.38427	0.00822
2322.09850	0.00850
2320.81273	0.00786
2319.52696	0.00750
2318.24119	0.00753
2316.95543	0.00717
2315.66966	0.00732
2314.38389	0.00778
2313.09812	0.00793
2311.81235	0.00814
2310.52658	0.00805
2309.24081	0.00776
2307.95504	0.00752
2306.66928	0.00717
2305.38351	0.00708
2304.09774	0.00726
2302.81197	0.00750
2301.52620	0.00762
2300.24043	0.00741
2298.95466	0.00705
2297.66889	0.00677
2296.38312	0.00671
2295.09736	0.00691
2293.81159	0.00732
2292.52582	0.00786
2291.24005	0.00829
2289.95428	0.00843
2288.66851	0.00827
2287.38274	0.00793
2286.09697	0.00758
2284.81121	0.00732
2283.52544	0.00725
2282.23967	0.00744
2280.95390	0.00780
2279.66813	0.00807
2278.38236	0.00808
2277.09659	0.00786
2275.81082	0.00745
2274.52505	0.00678
2273.23929	0.00589
2271.95352	0.00504
2270.66775	0.00459
2269.38198	0.00460
2268.09621	0.00492
2266.81044	0.00540
2265.52467	0.00586
2264.23890	0.00604
2262.95314	0.00579
2261.66737	0.00538
2260.38160	0.00522
2259.09583	0.00549
2257.81006	0.00600
2256.52429	0.00640
2255.23852	0.00648
2253.95275	0.00621
2252.66698	0.00566
2251.38122	0.00504
2250.09545	0.00481
2248.80968	0.00536
2247.52391	0.00653
2246.23814	0.00746
2244.95237	0.00746
2243.66660	0.00662
2242.38083	0.00560
2241.09507	0.00494
2239.80930	0.00473
2238.52353	0.00469
2237.23776	0.00450
2235.95199	0.00418
2234.66622	0.00405
2233.38045	0.00444
2232.09468	0.00519
2230.80891	0.00578
2229.52315	0.00585
2228.23738	0.00560
2226.95161	0.00554
2225.66584	0.00578
2224.38007	0.00595
2223.09430	0.00574
2221.80853	0.00531
2220.52276	0.00501
2219.23700	0.00492
2217.95123	0.00495
2216.66546	0.00513
2215.37969	0.00554
2214.09392	0.00611
2212.80815	0.00667
2211.52238	0.00698
2210.23661	0.00688
2208.95084	0.00646
2207.66508	0.00611
2206.37931	0.00607
2205.09354	0.00622
2203.80777	0.00620
2202.52200	0.00586
2201.23623	0.00534
2199.95046	0.00497
2198.66469	0.00504
2197.37893	0.00552
2196.09316	0.00602
2194.80739	0.00613
2193.52162	0.00572
2192.23585	0.00504
2190.95008	0.00444
2189.66431	0.00427
2188.37854	0.00459
2187.09277	0.00509
2185.80701	0.00537
2184.52124	0.00527
2183.23547	0.00477
2181.94970	0.00380
2180.66393	0.00245
2179.37816	0.00110
2178.09239	0.00018
2176.80662	-0.00006
2175.52085	0.00037
2174.23509	0.00119
2172.94932	0.00188
2171.66355	0.00216
2170.37778	0.00231
2169.09201	0.00283
2167.80624	0.00382
2166.52047	0.00502
2165.23470	0.00628
2163.94894	0.00766
2162.66317	0.00888
2161.37740	0.00906
2160.09163	0.00741
2158.80586	0.00431
2157.52009	0.00123
2156.23432	-0.00049
2154.94855	-0.00064
2153.66278	0.00017
2152.37702	0.00118
2151.09125	0.00175
2149.80548	0.00160
2148.51971	0.00094
2147.23394	0.00027
2145.94817	-0.00007
2144.66240	-0.00005
2143.37663	0.00022
2142.09087	0.00068
2140.80510	0.00128
2139.51933	0.00184
2138.23356	0.00217
2136.94779	0.00219
2135.66202	0.00214
2134.37625	0.00222
2133.09048	0.00236
2131.80471	0.00228
2130.51895	0.00199
2129.23318	0.00178
2127.94741	0.00190
2126.66164	0.00225
2125.37587	0.00259
2124.09010	0.00272
2122.80433	0.00261
2121.51856	0.00236
2120.23280	0.00227
2118.94703	0.00262
2117.66126	0.00335
2116.37549	0.00404
2115.08972	0.00438
2113.80395	0.00438
2112.51818	0.00425
2111.23241	0.00416
2109.94664	0.00415
2108.66088	0.00423
2107.37511	0.00436
2106.08934	0.00441
2104.80357	0.00420
2103.51780	0.00366
2102.23203	0.00295
2100.94626	0.00236
2099.66049	0.00149
2098.37473	0.00122
2097.08896	0.00135
2095.80319	0.00158
2094.51742	0.00195
2093.23165	0.00251
2091.94588	0.00303
2090.66011	0.00320
2089.37434	0.00297
2088.08857	0.00258
2086.80281	0.00237
2085.51704	0.00242
2084.23127	0.00259
2082.94550	0.00267
2081.65973	0.00252
2080.37396	0.00217
2079.08819	0.00172
2077.80242	0.00134
2076.51666	0.00114
2075.23089	0.00103
2073.94512	0.00095
2072.65935	0.00102
2071.37358	0.00143
2070.08781	0.00208
2068.80204	0.00257
2067.51627	0.00261
2066.23050	0.00232
2064.94474	0.00210
2063.65897	0.00223
2062.37320	0.00269
2061.08743	0.00332
2059.80166	0.00387
2058.51589	0.00420
2057.23012	0.00430
2055.94435	0.00429
2054.65859	0.00429
2053.37282	0.00424
2052.08705	0.00390
2050.80128	0.00308
2049.51551	0.00190
2048.22974	0.00068
2046.94397	-0.00020
2045.65820	-0.00058
2044.37243	-0.00053
2043.08667	-0.00025
2041.80090	0.00005
2040.51513	0.00028
2039.22936	0.00041
2037.94359	0.00044
2036.65782	0.00051
2035.37205	0.00096
2034.08628	0.00194
2032.80052	0.00299
2031.51475	0.00330
2030.22898	0.00254
2028.94321	0.00137
2027.65744	0.00078
2026.37167	0.00115
2025.08590	0.00210
2023.80013	0.00294
2022.51436	0.00310
2021.22860	0.00228
2019.94283	0.00060
2018.65706	-0.00141
2017.37129	-0.00307
2016.08552	-0.00403
2014.79975	-0.00425
2013.51398	-0.00381
2012.22821	-0.00282
2010.94245	-0.00147
2009.65668	-0.00001
2008.37091	0.00141
2007.08514	0.00273
2005.79937	0.00367
2004.51360	0.00389
2003.22783	0.00337
2001.94206	0.00258
2000.65629	0.00209
1999.37053	0.00220
1998.08476	0.00278
1996.79899	0.00346
1995.51322	0.00393
1994.22745	0.00402
1992.94168	0.00365
1991.65591	0.00284
1990.37014	0.00181
1989.08438	0.00103
1987.79861	0.00092
1986.51284	0.00139
1985.22707	0.00191
1983.94130	0.00204
1982.65553	0.00185
1981.36976	0.00158
1980.08399	0.00128
1978.79822	0.00078
1977.51246	0.00006
1976.22669	-0.00065
1974.94092	-0.00103
1973.65515	-0.00100
1972.36938	-0.00078
1971.08361	-0.00072
1969.79784	-0.00108
1968.51207	-0.00175
1967.22631	-0.00227
1965.94054	-0.00215
1964.65477	-0.00122
1963.36900	0.00023
1962.08323	0.00163
1960.79746	0.00255
1959.51169	0.00286
1958.22592	0.00274
1956.94015	0.00244
1955.65439	0.00209
1954.36862	0.00172
1953.08285	0.00141
1951.79708	0.00137
1950.51131	0.00170
1949.22554	0.00216
1947.93977	0.00233
1946.65400	0.00200
1945.36823	0.00143
1944.08247	0.00108
1942.79670	0.00121
1941.51093	0.00173
1940.22516	0.00230
1938.93939	0.00269
1937.65362	0.00288
1936.36785	0.00299
1935.08208	0.00298
1933.79632	0.00286
1932.51055	0.00275
1931.22478	0.00284
1929.93901	0.00315
1928.65324	0.00343
1927.36747	0.00346
1926.08170	0.00327
1924.79593	0.00313
1923.51016	0.00320
1922.22440	0.00342
1920.93863	0.00362
1919.65286	0.00377
1918.36709	0.00395
1917.08132	0.00413
1915.79555	0.00410
1914.50978	0.00378
1913.22401	0.00330
1911.93825	0.00291
1910.65248	0.00272
1909.36671	0.00262
1908.08094	0.00251
1906.79517	0.00241
1905.50940	0.00240
1904.22363	0.00253
1902.93786	0.00272
1901.65209	0.00283
1900.36633	0.00281
1899.08056	0.00273
1897.79479	0.00266
1896.50902	0.00262
1895.22325	0.00256
1893.93748	0.00242
1892.65171	0.00225
1891.36594	0.00211
1890.08018	0.00208
1888.79441	0.00216
1887.50864	0.00233
1886.22287	0.00259
1884.93710	0.00289
1883.65133	0.00313
1882.36556	0.00324
1881.07979	0.00323
1879.79402	0.00319
1878.50826	0.00315
1877.22249	0.00306
1875.93672	0.00287
1874.65095	0.00263
1873.36518	0.00252
1872.07941	0.00263
1870.79364	0.00290
1869.50787	0.00312
1868.22211	0.00317
1866.93634	0.00303
1865.65057	0.00283
1864.36480	0.00266
1863.07903	0.00258
1861.79326	0.00263
1860.50749	0.00281
1859.22172	0.00302
1857.93595	0.00313
1856.65019	0.00310
1855.36442	0.00299
1854.07865	0.00287
1852.79288	0.00280
1851.50711	0.00277
1850.22134	0.00278
1848.93557	0.00278
1847.64980	0.00276
1846.36404	0.00270
1845.07827	0.00266
1843.79250	0.00276
1842.50673	0.00297
1841.22096	0.00312
1839.93519	0.00315
1838.64942	0.00314
1837.36365	0.00322
1836.07788	0.00333
1834.79212	0.00337
1833.50635	0.00329
1832.22058	0.00316
1830.93481	0.00305
1829.64904	0.00300
1828.36327	0.00301
1827.07750	0.00299
1825.79173	0.00290
1824.50597	0.00280
1823.22020	0.00277
1821.93443	0.00282
1820.64866	0.00289
1819.36289	0.00294
1818.07712	0.00295
1816.79135	0.00296
1815.50558	0.00300
1814.21981	0.00309
1812.93405	0.00320
1811.64828	0.00333
1810.36251	0.00343
1809.07674	0.00344
1807.79097	0.00337
1806.50520	0.00326
1805.21943	0.00317
1803.93366	0.00311
1802.64790	0.00306
1801.36213	0.00303
1800.07636	0.00305
1798.79059	0.00315
1797.50482	0.00327
1796.21905	0.00332
1794.93328	0.00327
1793.64751	0.00315
1792.36174	0.00313
1791.07598	0.00328
1789.79021	0.00350
1788.50444	0.00366
1787.21867	0.00370
1785.93290	0.00368
1784.64713	0.00370
1783.36136	0.00376
1782.07559	0.00377
1780.78983	0.00369
1779.50406	0.00353
1778.21829	0.00336
1776.93252	0.00327
1775.64675	0.00331
1774.36098	0.00339
1773.07521	0.00347
1771.78944	0.00353
1770.50367	0.00360
1769.21791	0.00369
1767.93214	0.00386
1766.64637	0.00408
1765.36060	0.00422
1764.07483	0.00418
1762.78906	0.00402
1761.50329	0.00390
1760.21752	0.00386
1758.93176	0.00383
1757.64599	0.00377
1756.36022	0.00370
1755.07445	0.00369
1753.78868	0.00370
1752.50291	0.00367
1751.21714	0.00364
1749.93137	0.00369
1748.64560	0.00380
1747.35984	0.00393
1746.07407	0.00400
1744.78830	0.00398
1743.50253	0.00390
1742.21676	0.00384
1740.93099	0.00384
1739.64522	0.00391
1738.35945	0.00400
1737.07369	0.00399
1735.78792	0.00387
1734.50215	0.00378
1733.21638	0.00389
1731.93061	0.00413
1730.64484	0.00429
1729.35907	0.00432
1728.07330	0.00430
1726.78753	0.00431
1725.50177	0.00436
1724.21600	0.00446
1722.93023	0.00458
1721.64446	0.00466
1720.35869	0.00461
1719.07292	0.00444
1717.78715	0.00432
1716.50138	0.00437
1715.21561	0.00455
1713.92985	0.00475
1712.64408	0.00488
1711.35831	0.00495
1710.07254	0.00499
1708.78677	0.00506
1707.50100	0.00515
1706.21523	0.00526
1704.92946	0.00540
1703.64370	0.00554
1702.35793	0.00563
1701.07216	0.00575
1699.78639	0.00603
1698.50062	0.00635
1697.21485	0.00651
1695.92908	0.00655
1694.64331	0.00666
1693.35754	0.00684
1692.07178	0.00695
1690.78601	0.00701
1689.50024	0.00711
1688.21447	0.00724
1686.92870	0.00731
1685.64293	0.00734
1684.35716	0.00752
1683.07139	0.00792
1681.78563	0.00836
1680.49986	0.00866
1679.21409	0.00881
1677.92832	0.00887
1676.64255	0.00894
1675.35678	0.00909
1674.07101	0.00936
1672.78524	0.00963
1671.49947	0.00978
1670.21371	0.00983
1668.92794	0.00989
1667.64217	0.00999
1666.35640	0.01010
1665.07063	0.01019
1663.78486	0.01027
1662.49909	0.01041
1661.21332	0.01062
1659.92756	0.01085
1658.64179	0.01105
1657.35602	0.01117
1656.07025	0.01113
1654.78448	0.01090
1653.49871	0.01070
1652.21294	0.01075
1650.92717	0.01102
1649.64140	0.01126
1648.35564	0.01136
1647.06987	0.01143
1645.78410	0.01157
1644.49833	0.01172
1643.21256	0.01178
1641.92679	0.01170
1640.64102	0.01159
1639.35525	0.01150
1638.06949	0.01137
1636.78372	0.01118
1635.49795	0.01102
1634.21218	0.01098
1632.92641	0.01107
1631.64064	0.01117
1630.35487	0.01121
1629.06910	0.01118
1627.78333	0.01113
1626.49757	0.01107
1625.21180	0.01098
1623.92603	0.01086
1622.64026	0.01076
1621.35449	0.01070
1620.06872	0.01065
1618.78295	0.01053
1617.49718	0.01040
1616.21142	0.01032
1614.92565	0.01031
1613.63988	0.01028
1612.35411	0.01019
1611.06834	0.01007
1609.78257	0.00999
1608.49680	0.00995
1607.21103	0.00995
1605.92526	0.00995
1604.63950	0.00990
1603.35373	0.00983
1602.06796	0.00981
1600.78219	0.00987
1599.49642	0.00999
1598.21065	0.01008
1596.92488	0.01011
1595.63911	0.01009
1594.35335	0.01007
1593.06758	0.01006
1591.78181	0.01008
1590.49604	0.01011
1589.21027	0.01018
1587.92450	0.01028
1586.63873	0.01037
1585.35296	0.01042
1584.06719	0.01043
1582.78143	0.01042
1581.49566	0.01044
1580.20989	0.01047
1578.92412	0.01049
1577.63835	0.01046
1576.35258	0.01047
1575.06681	0.01060
1573.78104	0.01078
1572.49528	0.01088
1571.20951	0.01088
1569.92374	0.01089
1568.63797	0.01096
1567.35220	0.01107
1566.06643	0.01116
1564.78066	0.01122
1563.49489	0.01126
1562.20912	0.01123
1560.92336	0.01110
1559.63759	0.01099
1558.35182	0.01106
1557.06605	0.01125
1555.78028	0.01140
1554.49451	0.01146
1553.20874	0.01151
1551.92297	0.01160
1550.63721	0.01167
1549.35144	0.01171
1548.06567	0.01170
1546.77990	0.01166
1545.49413	0.01164
1544.20836	0.01167
1542.92259	0.01170
1541.63682	0.01164
1540.35105	0.01155
1539.06529	0.01155
1537.77952	0.01167
1536.49375	0.01175
1535.20798	0.01173
1533.92221	0.01169
1532.63644	0.01176
1531.35067	0.01194
1530.06490	0.01214
1528.77914	0.01231
1527.49337	0.01246
1526.20760	0.01264
1524.92183	0.01282
1523.63606	0.01297
1522.35029	0.01306
1521.06452	0.01319
1519.77875	0.01341
1518.49298	0.01365
1517.20722	0.01386
1515.92145	0.01404
1514.63568	0.01422
1513.34991	0.01439
1512.06414	0.01458
1510.77837	0.01482
1509.49260	0.01507
1508.20683	0.01527
1506.92107	0.01546
1505.63530	0.01573
1504.34953	0.01605
1503.06376	0.01629
1501.77799	0.01642
1500.49222	0.01651
1499.20645	0.01659
1497.92068	0.01669
1496.63491	0.01680
1495.34915	0.01697
1494.06338	0.01716
1492.77761	0.01732
1491.49184	0.01745
1490.20607	0.01763
1488.92030	0.01788
1487.63453	0.01816
1486.34876	0.01845
1485.06299	0.01873
1483.77723	0.01900
1482.49146	0.01927
1481.20569	0.01956
1479.91992	0.01984
1478.63415	0.02010
1477.34838	0.02035
1476.06261	0.02057
1474.77684	0.02075
1473.49108	0.02086
1472.20531	0.02097
1470.91954	0.02111
1469.63377	0.02124
1468.34800	0.02132
1467.06223	0.02135
1465.77646	0.02137
1464.49069	0.02143
1463.20492	0.02153
1461.91916	0.02163
1460.63339	0.02170
1459.34762	0.02168
1458.06185	0.02161
1456.77608	0.02162
1455.49031	0.02179
1454.20454	0.02205
1452.91877	0.02228
1451.63301	0.02246
1450.34724	0.02260
1449.06147	0.02269
1447.77570	0.02274
1446.48993	0.02273
1445.20416	0.02264
1443.91839	0.02251
1442.63262	0.02239
1441.34685	0.02231
1440.06109	0.02224
1438.77532	0.02212
1437.48955	0.02195
1436.20378	0.02186
1434.91801	0.02190
1433.63224	0.02204
1432.34647	0.02223
1431.06070	0.02246
1429.77494	0.02271
1428.48917	0.02297
1427.20340	0.02324
1425.91763	0.02353
1424.63186	0.02386
1423.34609	0.02422
1422.06032	0.02455
1420.77455	0.02481
1419.48878	0.02503
1418.20302	0.02525
1416.91725	0.02545
1415.63148	0.02559
1414.34571	0.02565
1413.05994	0.02567
1411.77417	0.02565
1410.48840	0.02559
1409.20263	0.02550
1407.91687	0.02539
1406.63110	0.02526
1405.34533	0.02510
1404.05956	0.02488
1402.77379	0.02457
1401.48802	0.02418
1400.20225	0.02375
1398.91648	0.02337
1397.63071	0.02304
1396.34495	0.02270
1395.05918	0.02235
1393.77341	0.02200
1392.48764	0.02166
1391.20187	0.02128
1389.91610	0.02083
1388.63033	0.02033
1387.34456	0.01983
1386.05880	0.01938
1384.77303	0.01894
1383.48726	0.01852
1382.20149	0.01810
1380.91572	0.01769
1379.62995	0.01726
1378.34418	0.01679
1377.05841	0.01630
1375.77264	0.01579
1374.48688	0.01531
1373.20111	0.01489
1371.91534	0.01454
1370.62957	0.01423
1369.34380	0.01392
1368.05803	0.01359
1366.77226	0.01328
1365.48649	0.01297
1364.20073	0.01266
1362.91496	0.01235
1361.62919	0.01204
1360.34342	0.01176
1359.05765	0.01148
1357.77188	0.01122
1356.48611	0.01100
1355.20034	0.01081
1353.91457	0.01065
1352.62881	0.01048
1351.34304	0.01027
1350.05727	0.01006
1348.77150	0.00987
1347.48573	0.00969
1346.19996	0.00949
1344.91419	0.00929
1343.62842	0.00912
1342.34266	0.00899
1341.05689	0.00888
1339.77112	0.00878
1338.48535	0.00871
1337.19958	0.00867
1335.91381	0.00867
1334.62804	0.00868
1333.34227	0.00868
1332.05650	0.00865
1330.77074	0.00859
1329.48497	0.00848
1328.19920	0.00832
1326.91343	0.00813
1325.62766	0.00798
1324.34189	0.00788
1323.05612	0.00781
1321.77035	0.00775
1320.48459	0.00767
1319.19882	0.00761
1317.91305	0.00757
1316.62728	0.00752
1315.34151	0.00745
1314.05574	0.00736
1312.76997	0.00729
1311.48420	0.00727
1310.19843	0.00726
1308.91267	0.00723
1307.62690	0.00717
1306.34113	0.00711
1305.05536	0.00707
1303.76959	0.00704
1302.48382	0.00701
1301.19805	0.00697
1299.91228	0.00692
1298.62652	0.00688
1297.34075	0.00684
1296.05498	0.00679
1294.76921	0.00673
1293.48344	0.00669
1292.19767	0.00667
1290.91190	0.00668
1289.62613	0.00670
1288.34036	0.00669
1287.05460	0.00666
1285.76883	0.00661
1284.48306	0.00656
1283.19729	0.00652
1281.91152	0.00651
1280.62575	0.00652
1279.33998	0.00650
1278.05421	0.00645
1276.76845	0.00640
1275.48268	0.00636
1274.19691	0.00635
1272.91114	0.00634
1271.62537	0.00630
1270.33960	0.00625
1269.05383	0.00619
1267.76806	0.00615
1266.48229	0.00616
1265.19653	0.00621
1263.91076	0.00628
1262.62499	0.00634
1261.33922	0.00637
1260.05345	0.00637
1258.76768	0.00636
1257.48191	0.00635
1256.19614	0.00634
1254.91037	0.00631
1253.62461	0.00623
1252.33884	0.00611
1251.05307	0.00600
1249.76730	0.00592
1248.48153	0.00591
1247.19576	0.00593
1245.90999	0.00598
1244.62422	0.00601
1243.33846	0.00601
1242.05269	0.00597
1240.76692	0.00591
1239.48115	0.00582
1238.19538	0.00572
1236.90961	0.00563
1235.62384	0.00559
1234.33807	0.00562
1233.05230	0.00566
1231.76654	0.00567
1230.48077	0.00561
1229.19500	0.00554
1227.90923	0.00550
1226.62346	0.00550
1225.33769	0.00550
1224.05192	0.00549
1222.76615	0.00546
1221.48039	0.00541
1220.19462	0.00534
1218.90885	0.00525
1217.62308	0.00514
1216.33731	0.00503
1215.05154	0.00497
1213.76577	0.00496
1212.48000	0.00498
1211.19423	0.00500
1209.90847	0.00501
1208.62270	0.00502
1207.33693	0.00502
1206.05116	0.00502
1204.76539	0.00503
1203.47962	0.00505
1202.19385	0.00505
1200.90808	0.00503
1199.62232	0.00500
1198.33655	0.00484
1197.05078	0.00472
1195.76501	0.00467
1194.47924	0.00471
1193.19347	0.00479
1191.90770	0.00487
1190.62193	0.00491
1189.33616	0.00491
1188.05040	0.00487
1186.76463	0.00483
1185.47886	0.00481
1184.19309	0.00480
1182.90732	0.00479
1181.62155	0.00475
1180.33578	0.00469
1179.05001	0.00466
1177.76425	0.00467
1176.47848	0.00469
1175.19271	0.00471
1173.90694	0.00474
1172.62117	0.00478
1171.33540	0.00482
1170.04963	0.00483
1168.76386	0.00482
1167.47809	0.00484
1166.19233	0.00491
1164.90656	0.00504
1163.62079	0.00518
1162.33502	0.00525
1161.04925	0.00522
1159.76348	0.00514
1158.47771	0.00511
1157.19194	0.00519
1155.90618	0.00535
1154.62041	0.00551
1153.33464	0.00561
1152.04887	0.00569
1150.76310	0.00577
1149.47733	0.00590
1148.19156	0.00604
1146.90579	0.00618
1145.62002	0.00631
1144.33426	0.00644
1143.04849	0.00659
1141.76272	0.00678
1140.47695	0.00702
1139.19118	0.00729
1137.90541	0.00756
1136.61964	0.00783
1135.33387	0.00816
1134.04811	0.00858
1132.76234	0.00908
1131.47657	0.00965
1130.19080	0.01026
1128.90503	0.01090
1127.61926	0.01156
1126.33349	0.01223
1125.04772	0.01294
1123.76195	0.01377
1122.47619	0.01475
1121.19042	0.01579
1119.90465	0.01680
1118.61888	0.01774
1117.33311	0.01866
1116.04734	0.01963
1114.76157	0.02068
1113.47580	0.02180
1112.19004	0.02292
1110.90427	0.02398
1109.61850	0.02490
1108.33273	0.02566
1107.04696	0.02632
1105.76119	0.02695
1104.47542	0.02763
1103.18965	0.02837
1101.90388	0.02919
1100.61812	0.03005
1099.33235	0.03088
1098.04658	0.03162
1096.76081	0.03229
1095.47504	0.03291
1094.18927	0.03349
1092.90350	0.03402
1091.61773	0.03452
1090.33197	0.03504
1089.04620	0.03557
1087.76043	0.03608
1086.47466	0.03653
1085.18889	0.03694
1083.90312	0.03741
1082.61735	0.03800
1081.33158	0.03867
1080.04581	0.03934
1078.76005	0.03999
1077.47428	0.04065
1076.18851	0.04133
1074.90274	0.04199
1073.61697	0.04264
1072.33120	0.04335
1071.04543	0.04418
1069.75966	0.04511
1068.47390	0.04606
1067.18813	0.04700
1065.90236	0.04793
1064.61659	0.04886
1063.33082	0.04978
1062.04505	0.05064
1060.75928	0.05148
1059.47351	0.05231
1058.18774	0.05313
1056.90198	0.05393
1055.61621	0.05468
1054.33044	0.05536
1053.04467	0.05600
1051.75890	0.05663
1050.47313	0.05729
1049.18736	0.05801
1047.90159	0.05878
1046.61583	0.05957
1045.33006	0.06032
1044.04429	0.06103
1042.75852	0.06169
1041.47275	0.06233
1040.18698	0.06300
1038.90121	0.06370
1037.61544	0.06439
1036.32967	0.06501
1035.04391	0.06558
1033.75814	0.06608
1032.47237	0.06651
1031.18660	0.06683
1029.90083	0.06702
1028.61506	0.06710
1027.32929	0.06708
1026.04352	0.06698
1024.75775	0.06684
1023.47199	0.06667
1022.18622	0.06645
1020.90045	0.06612
1019.61468	0.06561
1018.32891	0.06495
1017.04314	0.06420
1015.75737	0.06334
1014.47160	0.06235
1013.18584	0.06118
1011.90007	0.05990
1010.61430	0.05858
1009.32853	0.05726
1008.04276	0.05595
1006.75699	0.05457
1005.47122	0.05306
1004.18545	0.05141
1002.89968	0.04968
1001.61392	0.04795
1000.32815	0.04624
999.04238	0.04458
997.75661	0.04298
996.47084	0.04145
995.18507	0.03992
993.89930	0.03836
992.61353	0.03677
991.32777	0.03521
990.04200	0.03376
988.75623	0.03243
987.47046	0.03119
986.18469	0.03000
984.89892	0.02890
983.61315	0.02792
982.32738	0.02708
981.04161	0.02637
979.75585	0.02571
978.47008	0.02504
977.18431	0.02434
975.89854	0.02365
974.61277	0.02303
973.32700	0.02253
972.04123	0.02217
970.75546	0.02196
969.46970	0.02194
968.18393	0.02211
966.89816	0.02238
965.61239	0.02266
964.32662	0.02291
963.04085	0.02312
961.75508	0.02325
960.46931	0.02321
959.18354	0.02296
957.89778	0.02253
956.61201	0.02203
955.32624	0.02154
954.04047	0.02107
952.75470	0.02061
951.46893	0.02015
950.18316	0.01972
948.89739	0.01934
947.61163	0.01901
946.32586	0.01868
945.04009	0.01828
943.75432	0.01780
942.46855	0.01727
941.18278	0.01678
939.89701	0.01638
938.61124	0.01607
937.32547	0.01579
936.03971	0.01552
934.75394	0.01525
933.46817	0.01500
932.18240	0.01474
930.89663	0.01445
929.61086	0.01415
928.32509	0.01389
927.03932	0.01371
925.75356	0.01357
924.46779	0.01349
923.18202	0.01344
921.89625	0.01341
920.61048	0.01335
919.32471	0.01323
918.03894	0.01301
916.75317	0.01272
915.46740	0.01248
914.18164	0.01238
912.89587	0.01242
911.61010	0.01248
910.32433	0.01249
909.03856	0.01247
907.75279	0.01241
906.46702	0.01232
905.18125	0.01219
903.89549	0.01207
902.60972	0.01196
901.32395	0.01182
900.03818	0.01165
898.75241	0.01151
897.46664	0.01146
896.18087	0.01146
894.89510	0.01143
893.60933	0.01138
892.32357	0.01134
891.03780	0.01137
889.75203	0.01142
888.46626	0.01148
887.18049	0.01158
885.89472	0.01182
884.60895	0.01225
883.32318	0.01282
882.03742	0.01348
880.75165	0.01418
879.46588	0.01483
878.18011	0.01535
876.89434	0.01573
875.60857	0.01604
874.32280	0.01640
873.03703	0.01681
871.75126	0.01713
870.46550	0.01719
869.17973	0.01696
867.89396	0.01652
866.60819	0.01597
865.32242	0.01539
864.03665	0.01481
862.75088	0.01422
861.46511	0.01361
860.17935	0.01297
858.89358	0.01236
857.60781	0.01187
856.32204	0.01155
855.03627	0.01140
853.75050	0.01134
852.46473	0.01131
851.17896	0.01128
849.89319	0.01124
848.60743	0.01119
847.32166	0.01109
846.03589	0.01097
844.75012	0.01089
843.46435	0.01088
842.17858	0.01090
840.89281	0.01090
839.60704	0.01083
838.32128	0.01070
837.03551	0.01052
835.74974	0.01031
834.46397	0.01012
833.17820	0.00996
831.89243	0.00987
830.60666	0.00984
829.32089	0.00988
828.03512	0.00995
826.74936	0.01001
825.46359	0.01003
824.17782	0.00997
822.89205	0.00986
821.60628	0.00979
820.32051	0.00982
819.03474	0.00989
817.74897	0.00988
816.46321	0.00976
815.17744	0.00961
813.89167	0.00952
812.60590	0.00953
811.32013	0.00963
810.03436	0.00974
808.74859	0.00978
807.46282	0.00971
806.17705	0.00955
804.89129	0.00945
803.60552	0.00947
802.31975	0.00955
801.03398	0.00956
799.74821	0.00948
798.46244	0.00936
797.17667	0.00925
795.89090	0.00920
794.60513	0.00919
793.31937	0.00919
792.03360	0.00919
790.74783	0.00923
789.46206	0.00936
788.17629	0.00954
786.89052	0.00968
785.60475	0.00973
784.31898	0.00969
783.03322	0.00961
781.74745	0.00953
780.46168	0.00950
779.17591	0.00951
777.89014	0.00959
776.60437	0.00974
775.31860	0.00988
774.03283	0.00993
772.74706	0.00982
771.46130	0.00960
770.17553	0.00944
768.88976	0.00941
767.60399	0.00950
766.31822	0.00955
765.03245	0.00946
763.74668	0.00925
762.46091	0.00903
761.17515	0.00891
759.88938	0.00898
758.60361	0.00922
757.31784	0.00950
756.03207	0.00966
754.74630	0.00964
753.46053	0.00953
752.17476	0.00947
750.88899	0.00950
749.60323	0.00953
748.31746	0.00947
747.03169	0.00934
745.74592	0.00916
744.46015	0.00901
743.17438	0.00892
741.88861	0.00889
740.60284	0.00889
739.31708	0.00893
738.03131	0.00903
736.74554	0.00922
735.45977	0.00943
734.17400	0.00959
732.88823	0.00960
731.60246	0.00945
730.31669	0.00924
729.03092	0.00913
727.74516	0.00921
726.45939	0.00938
725.17362	0.00950
723.88785	0.00946
722.60208	0.00937
721.31631	0.00931
720.03054	0.00930
718.74477	0.00933
717.45901	0.00937
716.17324	0.00942
714.88747	0.00950
713.60170	0.00959
712.31593	0.00964
711.03016	0.00962
709.74439	0.00957
708.45862	0.00952
707.17285	0.00951
705.88709	0.00955
704.60132	0.00959
703.31555	0.00962
702.02978	0.00961
700.74401	0.00957
699.45824	0.00952
698.17247	0.00949
696.88670	0.00949
695.60094	0.00950
694.31517	0.00954
693.02940	0.00959
691.74363	0.00965
690.45786	0.00970
689.17209	0.00975
687.88632	0.00980
686.60055	0.00984
685.31478	0.00986
684.02902	0.00984
682.74325	0.00982
681.45748	0.00981
680.17171	0.00978
678.88594	0.00973
677.60017	0.00967
676.31440	0.00964
675.02863	0.00964
673.74287	0.00967
672.45710	0.00969
671.17133	0.00973
669.88556	0.00979
668.59979	0.00978
667.31402	0.00969
666.02825	0.00967
664.74248	0.00957
663.45671	0.00952
662.17095	0.00956
660.88518	0.00962
659.59941	0.00966
658.31364	0.00967
657.02787	0.00965
655.74210	0.00962
654.45633	0.00955
653.17056	0.00945
651.88480	0.00934
650.59903	0.00930
649.31326	0.00933
648.02749	0.00939
646.74172	0.00943
645.45595	0.00943
644.17018	0.00941
642.88441	0.00939
641.59864	0.00941
640.31288	0.00949
639.02711	0.00963
637.74134	0.00982
636.45557	0.01001
635.16980	0.01019
633.88403	0.01036
632.59826	0.01054
631.31249	0.01067
630.02673	0.01041
628.74096	0.00994
627.45519	0.01065
626.16942	0.00976
624.88365	0.00744
623.59788	0.00475
622.31211	0.00274
621.02634	0.00246
619.74057	0.00411
618.45481	0.00693
617.16904	0.01000
615.88327	0.01291
614.59750	0.01562
613.31173	0.01823
612.02596	0.02066
610.74019	0.02249
609.45442	0.02323
608.16866	0.02295
606.88289	0.02237
605.59712	0.02220
604.31135	0.02268
603.02558	0.02369
601.73981	0.02485
600.45404	0.02577
599.16827	0.02618
597.88250	0.02605
596.59674	0.02547
595.31097	0.02459
594.02520	0.02359
592.73943	0.02268
591.45366	0.02207
590.16789	0.02189
588.88212	0.02207
587.59635	0.02247
586.31059	0.02296
585.02482	0.02350
583.73905	0.02415
582.45328	0.02497
581.16751	0.02598
579.88174	0.02710
578.59597	0.02818
577.31020	0.02904
576.02443	0.02969
574.73867	0.03027
573.45290	0.03091
572.16713	0.03163
570.88136	0.03228
569.59559	0.03278
568.30982	0.03323
567.02405	0.03382
565.73828	0.03465
564.45251	0.03556
563.16675	0.03620
561.88098	0.03636
560.59521	0.03600
559.30944	0.03520
558.02367	0.03400
556.73790	0.03240
555.45213	0.03045
554.16636	0.02837
552.88060	0.02644
551.59483	0.02480
550.30906	0.02340
549.02329	0.02212
547.73752	0.02087
546.45175	0.01971
545.16598	0.01874
543.88021	0.01802
542.59444	0.01749
541.30868	0.01707
540.02291	0.01670
538.73714	0.01633
537.45137	0.01598
536.16560	0.01562
534.87983	0.01523
533.59406	0.01477
532.30829	0.01429
531.02253	0.01388
529.73676	0.01360
528.45099	0.01345
527.16522	0.01337
525.87945	0.01328
524.59368	0.01317
523.30791	0.01306
522.02214	0.01290
520.73637	0.01269
519.45061	0.01240
518.16484	0.01208
516.87907	0.01177
515.59330	0.01150
514.30753	0.01132
513.02176	0.01123
511.73599	0.01122
510.45022	0.01127
509.16446	0.01130
507.87869	0.01126
506.59292	0.01112
505.30715	0.01091
504.02138	0.01072
502.73561	0.01061
501.44984	0.01053
500.16407	0.01037
498.87830	0.01011
497.59254	0.00985
496.30677	0.00969
495.02100	0.00966
493.73523	0.00966
492.44946	0.00962
491.16369	0.00957
489.87792	0.00954
488.59215	0.00955
487.30639	0.00954
486.02062	0.00951
484.73485	0.00946
483.44908	0.00941
482.16331	0.00939
480.87754	0.00941
479.59177	0.00952
478.30600	0.00971
477.02023	0.00990
475.73447	0.01003
474.44870	0.01010
473.16293	0.01013
471.87716	0.01018
470.59139	0.01023
469.30562	0.01023
468.01985	0.01012
466.73408	0.00991
465.44832	0.00966
464.16255	0.00947
462.87678	0.00938
461.59101	0.00933
460.30524	0.00927
459.01947	0.00918
457.73370	0.00908
456.44793	0.00901
455.16216	0.00901
453.87640	0.00904
452.59063	0.00908
451.30486	0.00906
450.01909	0.00895
448.73332	0.00881
447.44755	0.00871
446.16178	0.00870
444.87601	0.00873
443.59025	0.00872
442.30448	0.00863
441.01871	0.00850
439.73294	0.00835
438.44717	0.00821
437.16140	0.00811
435.87563	0.00808
434.58986	0.00811
433.30409	0.00816
432.01833	0.00817
430.73256	0.00816
429.44679	0.00815
428.16102	0.00815
426.87525	0.00815
425.58948	0.00813
424.30371	0.00812
423.01794	0.00808
421.73218	0.00799
420.44641	0.00783
419.16064	0.00768
417.87487	0.00760
416.58910	0.00756
415.30333	0.00751
414.01756	0.00744
412.73179	0.00739
411.44602	0.00737
410.16026	0.00737
408.87449	0.00738
407.58872	0.00740
406.30295	0.00747
405.01718	0.00758
403.73141	0.00769
402.44564	0.00779
401.15987	0.00786
399.87411	0.00791
