3997.45528	0.02929
3996.16951	0.02872
3994.88374	0.02816
3993.59798	0.02785
3992.31221	0.02794
3991.02644	0.02842
3989.74067	0.02914
3988.45490	0.02985
3987.16913	0.03027
3985.88336	0.03024
3984.59759	0.02987
3983.31183	0.02947
3982.02606	0.02926
3980.74029	0.02924
3979.45452	0.02938
3978.16875	0.02971
3976.88298	0.03021
3975.59721	0.03060
3974.31144	0.03061
3973.02567	0.03031
3971.73991	0.03003
3970.45414	0.02994
3969.16837	0.02981
3967.88260	0.02932
3966.59683	0.02845
3965.31106	0.02756
3964.02529	0.02715
3962.73952	0.02750
3961.45376	0.02848
3960.16799	0.02956
3958.88222	0.03009
3957.59645	0.02976
3956.31068	0.02890
3955.02491	0.02820
3953.73914	0.02809
3952.45337	0.02847
3951.16760	0.02891
3949.88184	0.02919
3948.59607	0.02940
3947.31030	0.02971
3946.02453	0.03002
3944.73876	0.03010
3943.45299	0.02987
3942.16722	0.02946
3940.88145	0.02901
3939.59569	0.02863
3938.30992	0.02850
3937.02415	0.02876
3935.73838	0.02923
3934.45261	0.02944
3933.16684	0.02911
3931.88107	0.02841
3930.59530	0.02778
3929.30953	0.02751
3928.02377	0.02762
3926.73800	0.02801
3925.45223	0.02859
3924.16646	0.02925
3922.88069	0.02976
3921.59492	0.02989
3920.30915	0.02963
3919.02338	0.02921
3917.73762	0.02893
3916.45185	0.02899
3915.16608	0.02940
3913.88031	0.02998
3912.59454	0.03059
3911.30877	0.03109
3910.02300	0.03139
3908.73723	0.03143
3907.45146	0.03116
3906.16570	0.03068
3904.87993	0.03024
3903.59416	0.03011
3902.30839	0.03027
3901.02262	0.03040
3899.73685	0.03032
3898.45108	0.03012
3897.16531	0.03002
3895.87955	0.03014
3894.59378	0.03037
3893.30801	0.03047
3892.02224	0.03039
3890.73647	0.03051
3889.45070	0.03099
3888.16493	0.03135
3886.87916	0.03106
3885.59339	0.03029
3884.30763	0.02970
3883.02186	0.02962
3881.73609	0.02980
3880.45032	0.02984
3879.16455	0.02961
3877.87878	0.02923
3876.59301	0.02903
3875.30724	0.02936
3874.02148	0.03024
3872.73571	0.03121
3871.44994	0.03170
3870.16417	0.03175
3868.87840	0.03175
3867.59263	0.03175
3866.30686	0.03157
3865.02109	0.03121
3863.73532	0.03085
3862.44956	0.03060
3861.16379	0.03054
3859.87802	0.03072
3858.59225	0.03101
3857.30648	0.03105
3856.02071	0.03055
3854.73494	0.02986
3853.44917	0.02970
3852.16341	0.03017
3850.87764	0.03053
3849.59187	0.03014
3848.30610	0.02911
3847.02033	0.02798
3845.73456	0.02718
3844.44879	0.02691
3843.16302	0.02717
3841.87725	0.02767
3840.59149	0.02790
3839.30572	0.02766
3838.01995	0.02724
3836.73418	0.02707
3835.44841	0.02715
3834.16264	0.02724
3832.87687	0.02733
3831.59110	0.02762
3830.30534	0.02820
3829.01957	0.02892
3827.73380	0.02958
3826.44803	0.03006
3825.16226	0.03011
3823.87649	0.02954
3822.59072	0.02863
3821.30495	0.02807
3820.01918	0.02812
3818.73342	0.02821
3817.44765	0.02780
3816.16188	0.02723
3814.87611	0.02711
3813.59034	0.02745
3812.30457	0.02796
3811.01880	0.02841
3809.73303	0.02861
3808.44726	0.02844
3807.16150	0.02815
3805.87573	0.02797
3804.58996	0.02758
3803.30419	0.02673
3802.01842	0.02597
3800.73265	0.02623
3799.44688	0.02748
3798.16111	0.02884
3796.87535	0.02966
3795.58958	0.02990
3794.30381	0.02985
3793.01804	0.02971
3791.73227	0.02956
3790.44650	0.02929
3789.16073	0.02879
3787.87496	0.02823
3786.58919	0.02788
3785.30343	0.02777
3784.01766	0.02771
3782.73189	0.02748
3781.44612	0.02714
3780.16035	0.02696
3778.87458	0.02713
3777.58881	0.02748
3776.30304	0.02755
3775.01728	0.02707
3773.73151	0.02618
3772.44574	0.02530
3771.15997	0.02482
3769.87420	0.02475
3768.58843	0.02480
3767.30266	0.02473
3766.01689	0.02473
3764.73112	0.02512
3763.44536	0.02589
3762.15959	0.02672
3760.87382	0.02733
3759.58805	0.02765
3758.30228	0.02771
3757.01651	0.02762
3755.73074	0.02746
3754.44497	0.02710
3753.15921	0.02634
3751.87344	0.02527
3750.58767	0.02438
3749.30190	0.02428
3748.01613	0.02495
3746.73036	0.02562
3745.44459	0.02588
3744.15882	0.02623
3742.87305	0.02703
3741.58729	0.02779
3740.30152	0.02797
3739.01575	0.02753
3737.72998	0.02676
3736.44421	0.02604
3735.15844	0.02562
3733.87267	0.02543
3732.58690	0.02536
3731.30114	0.02554
3730.01537	0.02597
3728.72960	0.02646
3727.44383	0.02693
3726.15806	0.02746
3724.87229	0.02785
3723.58652	0.02773
3722.30075	0.02711
3721.01498	0.02643
3719.72922	0.02612
3718.44345	0.02626
3717.15768	0.02669
3715.87191	0.02720
3714.58614	0.02765
3713.30037	0.02784
3712.01460	0.02755
3710.72883	0.02672
3709.44307	0.02563
3708.15730	0.02486
3706.87153	0.02480
3705.58576	0.02531
3704.29999	0.02588
3703.01422	0.02622
3701.72845	0.02641
3700.44268	0.02660
3699.15691	0.02674
3697.87115	0.02659
3696.58538	0.02617
3695.29961	0.02581
3694.01384	0.02578
3692.72807	0.02598
3691.44230	0.02610
3690.15653	0.02598
3688.87076	0.02589
3687.58500	0.02607
3686.29923	0.02622
3685.01346	0.02578
3683.72769	0.02470
3682.44192	0.02362
3681.15615	0.02337
3679.87038	0.02435
3678.58461	0.02612
3677.29884	0.02768
3676.01308	0.02840
3674.72731	0.02825
3673.44154	0.02750
3672.15577	0.02658
3670.87000	0.02607
3669.58423	0.02619
3668.29846	0.02648
3667.01269	0.02659
3665.72693	0.02682
3664.44116	0.02747
3663.15539	0.02826
3661.86962	0.02861
3660.58385	0.02842
3659.29808	0.02803
3658.01231	0.02783
3656.72654	0.02795
3655.44077	0.02832
3654.15501	0.02870
3652.86924	0.02896
3651.58347	0.02915
3650.29770	0.02940
3649.01193	0.02963
3647.72616	0.02965
3646.44039	0.02940
3645.15462	0.02898
3643.86886	0.02863
3642.58309	0.02856
3641.29732	0.02877
3640.01155	0.02898
3638.72578	0.02898
3637.44001	0.02887
3636.15424	0.02900
3634.86847	0.02963
3633.58270	0.03063
3632.29694	0.03147
3631.01117	0.03173
3629.72540	0.03156
3628.43963	0.03151
3627.15386	0.03176
3625.86809	0.03197
3624.58232	0.03188
3623.29655	0.03159
3622.01079	0.03137
3620.72502	0.03146
3619.43925	0.03197
3618.15348	0.03264
3616.86771	0.03302
3615.58194	0.03298
3614.29617	0.03285
3613.01040	0.03303
3611.72463	0.03354
3610.43887	0.03403
3609.15310	0.03431
3607.86733	0.03449
3606.58156	0.03473
3605.29579	0.03495
3604.01002	0.03498
3602.72425	0.03479
3601.43848	0.03460
3600.15272	0.03473
3598.86695	0.03529
3597.58118	0.03597
3596.29541	0.03641
3595.00964	0.03649
3593.72387	0.03639
3592.43810	0.03633
3591.15233	0.03643
3589.86656	0.03672
3588.58080	0.03719
3587.29503	0.03782
3586.00926	0.03845
3584.72349	0.03882
3583.43772	0.03870
3582.15195	0.03809
3580.86618	0.03732
3579.58041	0.03693
3578.29464	0.03722
3577.00888	0.03809
3575.72311	0.03914
3574.43734	0.03994
3573.15157	0.04029
3571.86580	0.04021
3570.58003	0.03993
3569.29426	0.03970
3568.00849	0.03963
3566.72273	0.03962
3565.43696	0.03953
3564.15119	0.03934
3562.86542	0.03914
3561.57965	0.03913
3560.29388	0.03953
3559.00811	0.04032
3557.72234	0.04119
3556.43657	0.04170
3555.15081	0.04173
3553.86504	0.04157
3552.57927	0.04149
3551.29350	0.04147
3550.00773	0.04136
3548.72196	0.04124
3547.43619	0.04140
3546.15042	0.04204
3544.86466	0.04300
3543.57889	0.04393
3542.29312	0.04457
3541.00735	0.04483
3539.72158	0.04475
3538.43581	0.04445
3537.15004	0.04415
3535.86427	0.04398
3534.57850	0.04395
3533.29274	0.04404
3532.00697	0.04433
3530.72120	0.04481
3529.43543	0.04530
3528.14966	0.04559
3526.86389	0.04572
3525.57812	0.04594
3524.29235	0.04638
3523.00659	0.04683
3521.72082	0.04704
3520.43505	0.04705
3519.14928	0.04724
3517.86351	0.04778
3516.57774	0.04845
3515.29197	0.04888
3514.00620	0.04901
3512.72043	0.04908
3511.43467	0.04935
3510.14890	0.04977
3508.86313	0.05004
3507.57736	0.04983
3506.29159	0.04911
3505.00582	0.04820
3503.72005	0.04756
3502.43428	0.04748
3501.14852	0.04801
3499.86275	0.04901
3498.57698	0.05014
3497.29121	0.05100
3496.00544	0.05136
3494.71967	0.05137
3493.43390	0.05133
3492.14813	0.05139
3490.86236	0.05146
3489.57660	0.05140
3488.29083	0.05120
3487.00506	0.05100
3485.71929	0.05092
3484.43352	0.05096
3483.14775	0.05108
3481.86198	0.05126
3480.57621	0.05152
3479.29045	0.05183
3478.00468	0.05208
3476.71891	0.05222
3475.43314	0.05229
3474.14737	0.05238
3472.86160	0.05244
3471.57583	0.05235
3470.29006	0.05211
3469.00429	0.05193
3467.71853	0.05203
3466.43276	0.05237
3465.14699	0.05273
3463.86122	0.05294
3462.57545	0.05303
3461.28968	0.05310
3460.00391	0.05324
3458.71814	0.05358
3457.43238	0.05418
3456.14661	0.05485
3454.86084	0.05516
3453.57507	0.05487
3452.28930	0.05427
3451.00353	0.05397
3449.71776	0.05437
3448.43199	0.05536
3447.14622	0.05642
3445.86046	0.05696
3444.57469	0.05672
3443.28892	0.05602
3442.00315	0.05543
3440.71738	0.05531
3439.43161	0.05554
3438.14584	0.05576
3436.86007	0.05578
3435.57431	0.05572
3434.28854	0.05585
3433.00277	0.05633
3431.71700	0.05705
3430.43123	0.05770
3429.14546	0.05802
3427.85969	0.05796
3426.57392	0.05768
3425.28815	0.05739
3424.00239	0.05726
3422.71662	0.05733
3421.43085	0.05753
3420.14508	0.05772
3418.85931	0.05780
3417.57354	0.05765
3416.28777	0.05732
3415.00200	0.05700
3413.71624	0.05696
3412.43047	0.05727
3411.14470	0.05782
3409.85893	0.05843
3408.57316	0.05896
3407.28739	0.05928
3406.00162	0.05925
3404.71585	0.05890
3403.43008	0.05852
3402.14432	0.05848
3400.85855	0.05890
3399.57278	0.05961
3398.28701	0.06020
3397.00124	0.06032
3395.71547	0.05999
3394.42970	0.05960
3393.14393	0.05951
3391.85817	0.05973
3390.57240	0.05994
3389.28663	0.05989
3388.00086	0.05959
3386.71509	0.05925
3385.42932	0.05912
3384.14355	0.05938
3382.85778	0.05999
3381.57201	0.06066
3380.28625	0.06105
3379.00048	0.06103
3377.71471	0.06083
3376.42894	0.06077
3375.14317	0.06095
3373.85740	0.06121
3372.57163	0.06138
3371.28586	0.06149
3370.00010	0.06166
3368.71433	0.06190
3367.42856	0.06201
3366.14279	0.06189
3364.85702	0.06164
3363.57125	0.06150
3362.28548	0.06149
3360.99971	0.06142
3359.71394	0.06117
3358.42818	0.06083
3357.14241	0.06061
3355.85664	0.06060
3354.57087	0.06076
3353.28510	0.06105
3351.99933	0.06149
3350.71356	0.06205
3349.42779	0.06256
3348.14202	0.06271
3346.85626	0.06232
3345.57049	0.06156
3344.28472	0.06088
3342.99895	0.06067
3341.71318	0.06099
3340.42741	0.06162
3339.14164	0.06226
3337.85587	0.06257
3336.57011	0.06232
3335.28434	0.06161
3333.99857	0.06091
3332.71280	0.06076
3331.42703	0.06125
3330.14126	0.06202
3328.85549	0.06257
3327.56972	0.06266
3326.28395	0.06239
3324.99819	0.06198
3323.71242	0.06156
3322.42665	0.06118
3321.14088	0.06094
3319.85511	0.06098
3318.56934	0.06135
3317.28357	0.06189
3315.99780	0.06238
3314.71204	0.06274
3313.42627	0.06305
3312.14050	0.06340
3310.85473	0.06371
3309.56896	0.06376
3308.28319	0.06342
3306.99742	0.06279
3305.71165	0.06216
3304.42588	0.06181
3303.14012	0.06175
3301.85435	0.06175
3300.56858	0.06156
3299.28281	0.06122
3297.99704	0.06099
3296.71127	0.06106
3295.42550	0.06132
3294.13973	0.06153
3292.85397	0.06156
3291.56820	0.06146
3290.28243	0.06138
3288.99666	0.06137
3287.71089	0.06132
3286.42512	0.06114
3285.13935	0.06087
3283.85358	0.06056
3282.56781	0.06028
3281.28205	0.06007
3279.99628	0.05999
3278.71051	0.06006
3277.42474	0.06024
3276.13897	0.06038
3274.85320	0.06035
3273.56743	0.06014
3272.28166	0.05987
3270.99590	0.05973
3269.71013	0.05983
3268.42436	0.06005
3267.13859	0.06018
3265.85282	0.06010
3264.56705	0.05994
3263.28128	0.05989
3261.99551	0.06001
3260.70974	0.06021
3259.42398	0.06037
3258.13821	0.06043
3256.85244	0.06035
3255.56667	0.06011
3254.28090	0.05983
3252.99513	0.05970
3251.70936	0.05984
3250.42359	0.06014
3249.13783	0.06036
3247.85206	0.06027
3246.56629	0.05991
3245.28052	0.05955
3243.99475	0.05946
3242.70898	0.05965
3241.42321	0.05990
3240.13744	0.05996
3238.85167	0.05975
3237.56591	0.05936
3236.28014	0.05899
3234.99437	0.05877
3233.70860	0.05874
3232.42283	0.05880
3231.13706	0.05887
3229.85129	0.05895
3228.56552	0.05901
3227.27976	0.05903
3225.99399	0.05895
3224.70822	0.05876
3223.42245	0.05858
3222.13668	0.05855
3220.85091	0.05868
3219.56514	0.05877
3218.27937	0.05863
3216.99360	0.05829
3215.70784	0.05793
3214.42207	0.05766
3213.13630	0.05742
3211.85053	0.05714
3210.56476	0.05685
3209.27899	0.05669
3207.99322	0.05674
3206.70745	0.05703
3205.42169	0.05740
3204.13592	0.05768
3202.85015	0.05771
3201.56438	0.05747
3200.27861	0.05699
3198.99284	0.05639
3197.70707	0.05586
3196.42130	0.05558
3195.13553	0.05556
3193.84977	0.05567
3192.56400	0.05580
3191.27823	0.05592
3189.99246	0.05610
3188.70669	0.05635
3187.42092	0.05658
3186.13515	0.05667
3184.84938	0.05654
3183.56362	0.05630
3182.27785	0.05612
3180.99208	0.05611
3179.70631	0.05612
3178.42054	0.05591
3177.13477	0.05543
3175.84900	0.05482
3174.56323	0.05432
3173.27746	0.05410
3171.99170	0.05422
3170.70593	0.05456
3169.42016	0.05496
3168.13439	0.05517
3166.84862	0.05508
3165.56285	0.05468
3164.27708	0.05417
3162.99131	0.05378
3161.70555	0.05371
3160.41978	0.05394
3159.13401	0.05432
3157.84824	0.05469
3156.56247	0.05494
3155.27670	0.05506
3153.99093	0.05500
3152.70516	0.05479
3151.41939	0.05453
3150.13363	0.05426
3148.84786	0.05396
3147.56209	0.05357
3146.27632	0.05316
3144.99055	0.05284
3143.70478	0.05263
3142.41901	0.05247
3141.13324	0.05234
3139.84748	0.05231
3138.56171	0.05242
3137.27594	0.05262
3135.99017	0.05276
3134.70440	0.05278
3133.41863	0.05269
3132.13286	0.05253
3130.84709	0.05236
3129.56132	0.05224
3128.27556	0.05216
3126.98979	0.05206
3125.70402	0.05191
3124.41825	0.05178
3123.13248	0.05179
3121.84671	0.05195
3120.56094	0.05212
3119.27517	0.05220
3117.98940	0.05224
3116.70364	0.05231
3115.41787	0.05234
3114.13210	0.05214
3112.84633	0.05160
3111.56056	0.05085
3110.27479	0.05016
3108.98902	0.04970
3107.70325	0.04957
3106.41749	0.04979
3105.13172	0.05033
3103.84595	0.05095
3102.56018	0.05137
3101.27441	0.05143
3099.98864	0.05117
3098.70287	0.05072
3097.41710	0.05026
3096.13133	0.04995
3094.84557	0.04988
3093.55980	0.05001
3092.27403	0.05019
3090.98826	0.05029
3089.70249	0.05025
3088.41672	0.05005
3087.13095	0.04967
3085.84518	0.04912
3084.55942	0.04855
3083.27365	0.04817
3081.98788	0.04810
3080.70211	0.04826
3079.41634	0.04846
3078.13057	0.04863
3076.84480	0.04882
3075.55903	0.04907
3074.27326	0.04932
3072.98750	0.04946
3071.70173	0.04937
3070.41596	0.04911
3069.13019	0.04884
3067.84442	0.04873
3066.55865	0.04876
3065.27288	0.04879
3063.98711	0.04876
3062.70135	0.04870
3061.41558	0.04867
3060.12981	0.04859
3058.84404	0.04841
3057.55827	0.04812
3056.27250	0.04784
3054.98673	0.04764
3053.70096	0.04758
3052.41519	0.04767
3051.12943	0.04788
3049.84366	0.04804
3048.55789	0.04802
3047.27212	0.04781
3045.98635	0.04758
3044.70058	0.04747
3043.41481	0.04740
3042.12904	0.04719
3040.84328	0.04681
3039.55751	0.04646
3038.27174	0.04639
3036.98597	0.04658
3035.70020	0.04678
3034.41443	0.04672
3033.12866	0.04642
3031.84289	0.04601
3030.55712	0.04564
3029.27136	0.04536
3027.98559	0.04525
3026.69982	0.04528
3025.41405	0.04533
3024.12828	0.04528
3022.84251	0.04514
3021.55674	0.04505
3020.27097	0.04508
3018.98521	0.04515
3017.69944	0.04514
3016.41367	0.04508
3015.12790	0.04510
3013.84213	0.04522
3012.55636	0.04533
3011.27059	0.04525
3009.98482	0.04501
3008.69905	0.04479
3007.41329	0.04480
3006.12752	0.04505
3004.84175	0.04538
3003.55598	0.04555
3002.27021	0.04548
3000.98444	0.04525
2999.69867	0.04497
2998.41290	0.04473
2997.12714	0.04445
2995.84137	0.04407
2994.55560	0.04361
2993.26983	0.04325
2991.98406	0.04315
2990.69829	0.04335
2989.41252	0.04373
2988.12675	0.04409
2986.84098	0.04428
2985.55522	0.04424
2984.26945	0.04407
2982.98368	0.04396
2981.69791	0.04406
2980.41214	0.04434
2979.12637	0.04465
2977.84060	0.04487
2976.55483	0.04503
2975.26907	0.04522
2973.98330	0.04543
2972.69753	0.04556
2971.41176	0.04552
2970.12599	0.04534
2968.84022	0.04517
2967.55445	0.04513
2966.26868	0.04525
2964.98291	0.04551
2963.69715	0.04590
2962.41138	0.04640
2961.12561	0.04691
2959.83984	0.04727
2958.55407	0.04743
2957.26830	0.04758
2955.98253	0.04791
2954.69676	0.04841
2953.41100	0.04891
2952.12523	0.04924
2950.83946	0.04933
2949.55369	0.04925
2948.26792	0.04911
2946.98215	0.04898
2945.69638	0.04880
2944.41061	0.04845
2943.12484	0.04788
2941.83908	0.04728
2940.55331	0.04694
2939.26754	0.04701
2937.98177	0.04740
2936.69600	0.04789
2935.41023	0.04836
2934.12446	0.04877
2932.83869	0.04912
2931.55293	0.04941
2930.26716	0.04961
2928.98139	0.04972
2927.69562	0.04969
2926.40985	0.04954
2925.12408	0.04928
2923.83831	0.04894
2922.55254	0.04855
2921.26677	0.04815
2919.98101	0.04787
2918.69524	0.04777
2917.40947	0.04777
2916.12370	0.04765
2914.83793	0.04727
2913.55216	0.04676
2912.26639	0.04638
2910.98062	0.04627
2909.69486	0.04632
2908.40909	0.04636
2907.12332	0.04635
2905.83755	0.04631
2904.55178	0.04627
2903.26601	0.04618
2901.98024	0.04604
2900.69447	0.04580
2899.40870	0.04541
2898.12294	0.04491
2896.83717	0.04444
2895.55140	0.04418
2894.26563	0.04415
2892.97986	0.04415
2891.69409	0.04401
2890.40832	0.04376
2889.12255	0.04360
2887.83678	0.04368
2886.55102	0.04388
2885.26525	0.04398
2883.97948	0.04382
2882.69371	0.04344
2881.40794	0.04303
2880.12217	0.04279
2878.83640	0.04286
2877.55063	0.04316
2876.26487	0.04346
2874.97910	0.04355
2873.69333	0.04346
2872.40756	0.04341
2871.12179	0.04358
2869.83602	0.04396
2868.55025	0.04433
2867.26448	0.04446
2865.97871	0.04427
2864.69295	0.04390
2863.40718	0.04351
2862.12141	0.04315
2860.83564	0.04276
2859.54987	0.04237
2858.26410	0.04208
2856.97833	0.04187
2855.69256	0.04160
2854.40680	0.04121
2853.12103	0.04074
2851.83526	0.04032
2850.54949	0.04001
2849.26372	0.03982
2847.97795	0.03973
2846.69218	0.03968
2845.40641	0.03964
2844.12064	0.03963
2842.83488	0.03971
2841.54911	0.03981
2840.26334	0.03983
2838.97757	0.03972
2837.69180	0.03944
2836.40603	0.03903
2835.12026	0.03855
2833.83449	0.03808
2832.54873	0.03771
2831.26296	0.03748
2829.97719	0.03744
2828.69142	0.03753
2827.40565	0.03763
2826.11988	0.03765
2824.83411	0.03754
2823.54834	0.03733
2822.26257	0.03698
2820.97681	0.03650
2819.69104	0.03599
2818.40527	0.03559
2817.11950	0.03537
2815.83373	0.03527
2814.54796	0.03517
2813.26219	0.03507
2811.97642	0.03503
2810.69066	0.03514
2809.40489	0.03535
2808.11912	0.03551
2806.83335	0.03550
2805.54758	0.03537
2804.26181	0.03521
2802.97604	0.03511
2801.69027	0.03507
2800.40450	0.03501
2799.11874	0.03490
2797.83297	0.03476
2796.54720	0.03464
2795.26143	0.03466
2793.97566	0.03483
2792.68989	0.03501
2791.40412	0.03501
2790.11835	0.03482
2788.83259	0.03462
2787.54682	0.03457
2786.26105	0.03461
2784.97528	0.03454
2783.68951	0.03426
2782.40374	0.03389
2781.11797	0.03360
2779.83220	0.03341
2778.54643	0.03324
2777.26067	0.03309
2775.97490	0.03302
2774.68913	0.03309
2773.40336	0.03328
2772.11759	0.03347
2770.83182	0.03353
2769.54605	0.03337
2768.26028	0.03300
2766.97452	0.03263
2765.68875	0.03252
2764.40298	0.03275
2763.11721	0.03315
2761.83144	0.03348
2760.54567	0.03361
2759.25990	0.03357
2757.97413	0.03342
2756.68836	0.03320
2755.40260	0.03293
2754.11683	0.03263
2752.83106	0.03234
2751.54529	0.03208
2750.25952	0.03190
2748.97375	0.03191
2747.68798	0.03216
2746.40221	0.03252
2745.11645	0.03279
2743.83068	0.03283
2742.54491	0.03266
2741.25914	0.03240
2739.97337	0.03219
2738.68760	0.03214
2737.40183	0.03228
2736.11606	0.03252
2734.83029	0.03270
2733.54453	0.03270
2732.25876	0.03250
2730.97299	0.03224
2729.68722	0.03211
2728.40145	0.03213
2727.11568	0.03218
2725.82991	0.03205
2724.54414	0.03172
2723.25838	0.03132
2721.97261	0.03100
2720.68684	0.03083
2719.40107	0.03074
2718.11530	0.03067
2716.82953	0.03064
2715.54376	0.03067
2714.25799	0.03072
2712.97222	0.03079
2711.68646	0.03086
2710.40069	0.03096
2709.11492	0.03104
2707.82915	0.03105
2706.54338	0.03093
2705.25761	0.03075
2703.97184	0.03059
2702.68607	0.03055
2701.40031	0.03065
2700.11454	0.03084
2698.82877	0.03105
2697.54300	0.03122
2696.25723	0.03131
2694.97146	0.03126
2693.68569	0.03100
2692.39992	0.03055
2691.11415	0.03007
2689.82839	0.02972
2688.54262	0.02955
2687.25685	0.02952
2685.97108	0.02960
2684.68531	0.02972
2683.39954	0.02982
2682.11377	0.02985
2680.82800	0.02980
2679.54224	0.02971
2678.25647	0.02961
2676.97070	0.02951
2675.68493	0.02940
2674.39916	0.02934
2673.11339	0.02938
2671.82762	0.02950
2670.54185	0.02960
2669.25608	0.02963
2667.97032	0.02964
2666.68455	0.02970
2665.39878	0.02983
2664.11301	0.02995
2662.82724	0.02998
2661.54147	0.02992
2660.25570	0.02976
2658.96993	0.02958
2657.68417	0.02947
2656.39840	0.02949
2655.11263	0.02954
2653.82686	0.02948
2652.54109	0.02928
2651.25532	0.02906
2649.96955	0.02892
2648.68378	0.02891
2647.39801	0.02900
2646.11225	0.02910
2644.82648	0.02908
2643.54071	0.02884
2642.25494	0.02847
2640.96917	0.02820
2639.68340	0.02817
2638.39763	0.02828
2637.11186	0.02830
2635.82609	0.02813
2634.54033	0.02782
2633.25456	0.02751
2631.96879	0.02728
2630.68302	0.02710
2629.39725	0.02691
2628.11148	0.02669
2626.82571	0.02654
2625.53994	0.02656
2624.25418	0.02670
2622.96841	0.02680
2621.68264	0.02679
2620.39687	0.02677
2619.11110	0.02680
2617.82533	0.02681
2616.53956	0.02665
2615.25379	0.02631
2613.96802	0.02596
2612.68226	0.02576
2611.39649	0.02576
2610.11072	0.02587
2608.82495	0.02592
2607.53918	0.02575
2606.25341	0.02543
2604.96764	0.02515
2603.68187	0.02501
2602.39611	0.02498
2601.11034	0.02498
2599.82457	0.02504
2598.53880	0.02520
2597.25303	0.02543
2595.96726	0.02564
2594.68149	0.02572
2593.39572	0.02560
2592.10995	0.02537
2590.82419	0.02517
2589.53842	0.02503
2588.25265	0.02484
2586.96688	0.02446
2585.68111	0.02397
2584.39534	0.02345
2583.10957	0.02296
2581.82380	0.02251
2580.53804	0.02223
2579.25227	0.02225
2577.96650	0.02258
2576.68073	0.02310
2575.39496	0.02360
2574.10919	0.02385
2572.82342	0.02374
2571.53765	0.02334
2570.25188	0.02287
2568.96612	0.02247
2567.68035	0.02211
2566.39458	0.02174
2565.10881	0.02143
2563.82304	0.02133
2562.53727	0.02151
2561.25150	0.02185
2559.96573	0.02209
2558.67997	0.02212
2557.39420	0.02210
2556.10843	0.02227
2554.82266	0.02266
2553.53689	0.02304
2552.25112	0.02307
2550.96535	0.02268
2549.67958	0.02219
2548.39381	0.02196
2547.10805	0.02210
2545.82228	0.02240
2544.53651	0.02258
2543.25074	0.02257
2541.96497	0.02247
2540.67920	0.02246
2539.39343	0.02257
2538.10766	0.02265
2536.82190	0.02252
2535.53613	0.02215
2534.25036	0.02171
2532.96459	0.02145
2531.67882	0.02143
2530.39305	0.02149
2529.10728	0.02142
2527.82151	0.02118
2526.53574	0.02097
2525.24998	0.02102
2523.96421	0.02135
2522.67844	0.02170
2521.39267	0.02181
2520.10690	0.02157
2518.82113	0.02119
2517.53536	0.02098
2516.24959	0.02111
2514.96383	0.02147
2513.67806	0.02185
2512.39229	0.02211
2511.10652	0.02216
2509.82075	0.02199
2508.53498	0.02171
2507.24921	0.02157
2505.96344	0.02165
2504.67767	0.02187
2503.39191	0.02209
2502.10614	0.02223
2500.82037	0.02221
2499.53460	0.02188
2498.24883	0.02129
2496.96306	0.02065
2495.67729	0.02023
2494.39152	0.02018
2493.10576	0.02047
2491.81999	0.02091
2490.53422	0.02126
2489.24845	0.02139
2487.96268	0.02135
2486.67691	0.02130
2485.39114	0.02131
2484.10537	0.02134
2482.81960	0.02131
2481.53384	0.02109
2480.24807	0.02073
2478.96230	0.02038
2477.67653	0.02022
2476.39076	0.02026
2475.10499	0.02038
2473.81922	0.02042
2472.53345	0.02034
2471.24769	0.02020
2469.96192	0.02009
2468.67615	0.02011
2467.39038	0.02031
2466.10461	0.02060
2464.81884	0.02080
2463.53307	0.02082
2462.24730	0.02076
2460.96153	0.02082
2459.67577	0.02106
2458.39000	0.02127
2457.10423	0.02127
2455.81846	0.02111
2454.53269	0.02096
2453.24692	0.02085
2451.96115	0.02065
2450.67538	0.02043
2449.38962	0.02042
2448.10385	0.02074
2446.81808	0.02109
2445.53231	0.02110
2444.24654	0.02076
2442.96077	0.02039
2441.67500	0.02027
2440.38923	0.02033
2439.10346	0.02031
2437.81770	0.02009
2436.53193	0.01979
2435.24616	0.01967
2433.96039	0.01979
2432.67462	0.02010
2431.38885	0.02042
2430.10308	0.02059
2428.81731	0.02047
2427.53155	0.02016
2426.24578	0.01990
2424.96001	0.01984
2423.67424	0.01991
2422.38847	0.01992
2421.10270	0.01980
2419.81693	0.01957
2418.53116	0.01933
2417.24539	0.01916
2415.95963	0.01915
2414.67386	0.01925
2413.38809	0.01937
2412.10232	0.01943
2410.81655	0.01948
2409.53078	0.01956
2408.24501	0.01967
2406.95924	0.01978
2405.67347	0.01986
2404.38771	0.01988
2403.10194	0.01983
2401.81617	0.01977
2400.53040	0.01978
2399.24463	0.01986
2397.95886	0.01999
2396.67309	0.02003
2395.38732	0.01991
2394.10156	0.01968
2392.81579	0.01945
2391.53002	0.01933
2390.24425	0.01933
2388.95848	0.01936
2387.67271	0.01935
2386.38694	0.01927
2385.10117	0.01912
2383.81540	0.01897
2382.52964	0.01891
2381.24387	0.01895
2379.95810	0.01906
2378.67233	0.01913
2377.38656	0.01915
2376.10079	0.01919
2374.81502	0.01930
2373.52925	0.01927
2372.24349	0.01925
2370.95772	0.01915
2369.67195	0.01886
2368.38618	0.01847
2367.10041	0.01814
2365.81464	0.01795
2364.52887	0.01787
2363.24310	0.01787
2361.95733	0.01794
2360.67157	0.01810
2359.38580	0.01828
2358.10003	0.01852
2356.81426	0.01883
2355.52849	0.01910
2354.24272	0.01933
2352.95695	0.01953
2351.67118	0.01947
2350.38542	0.01935
2349.09965	0.01931
2347.81388	0.01934
2346.52811	0.01948
2345.24234	0.01976
2343.95657	0.02013
2342.67080	0.02038
2341.38503	0.02016
2340.09926	0.01980
2338.81350	0.01936
2337.52773	0.01886
2336.24196	0.01854
2334.95619	0.01855
2333.67042	0.01873
2332.38465	0.01904
2331.09888	0.01915
2329.81311	0.01938
2328.52735	0.01965
2327.24158	0.02007
2325.95581	0.02064
2324.67004	0.02093
2323.38427	0.02086
2322.09850	0.02052
2320.81273	0.02008
2319.52696	0.01982
2318.24119	0.01975
2316.95543	0.01970
2315.66966	0.01973
2314.38389	0.01977
2313.09812	0.01975
2311.81235	0.01971
2310.52658	0.01959
2309.24081	0.01934
2307.95504	0.01902
2306.66928	0.01874
2305.38351	0.01858
2304.09774	0.01852
2302.81197	0.01850
2301.52620	0.01849
2300.24043	0.01849
2298.95466	0.01845
2297.66889	0.01833
2296.38312	0.01820
2295.09736	0.01831
2293.81159	0.01874
2292.52582	0.01933
2291.24005	0.01977
2289.95428	0.01988
2288.66851	0.01967
2287.38274	0.01925
2286.09697	0.01876
2284.81121	0.01835
2283.52544	0.01812
2282.23967	0.01802
2280.95390	0.01790
2279.66813	0.01762
2278.38236	0.01719
2277.09659	0.01679
2275.81082	0.01664
2274.52505	0.01686
2273.23929	0.01734
2271.95352	0.01770
2270.66775	0.01761
2269.38198	0.01705
2268.09621	0.01626
2266.81044	0.01551
2265.52467	0.01491
2264.23890	0.01449
2262.95314	0.01436
2261.66737	0.01468
2260.38160	0.01541
2259.09583	0.01623
2257.81006	0.01663
2256.52429	0.01632
2255.23852	0.01547
2253.95275	0.01454
2252.66698	0.01387
2251.38122	0.01350
2250.09545	0.01339
2248.80968	0.01358
2247.52391	0.01395
2246.23814	0.01472
2244.95237	0.01573
2243.66660	0.01659
2242.38083	0.01687
2241.09507	0.01651
2239.80930	0.01588
2238.52353	0.01543
2237.23776	0.01531
2235.95199	0.01528
2234.66622	0.01508
2233.38045	0.01467
2232.09468	0.01421
2230.80891	0.01385
2229.52315	0.01353
2228.23738	0.01309
2226.95161	0.01246
2225.66584	0.01177
2224.38007	0.01125
2223.09430	0.01111
2221.80853	0.01135
2220.52276	0.01187
2219.23700	0.01251
2217.95123	0.01315
2216.66546	0.01371
2215.37969	0.01407
2214.09392	0.01414
2212.80815	0.01389
2211.52238	0.01324
2210.23661	0.01222
2208.95084	0.01126
2207.66508	0.01095
2206.37931	0.01142
2205.09354	0.01203
2203.80777	0.01195
2202.52200	0.01088
2201.23623	0.00931
2199.95046	0.00806
2198.66469	0.00779
2197.37893	0.00846
2196.09316	0.00945
2194.80739	0.01016
2193.52162	0.01062
2192.23585	0.01121
2190.95008	0.01194
2189.66431	0.01238
2188.37854	0.01221
2187.09277	0.01171
2185.80701	0.01139
2184.52124	0.01156
2183.23547	0.01216
2181.94970	0.01286
2180.66393	0.01321
2179.37816	0.01279
2178.09239	0.01167
2176.80662	0.01049
2175.52085	0.00990
2174.23509	0.00990
2172.94932	0.00989
2171.66355	0.00946
2170.37778	0.00872
2169.09201	0.00801
2167.80624	0.00753
2166.52047	0.00736
2165.23470	0.00754
2163.94894	0.00780
2162.66317	0.00747
2161.37740	0.00585
2160.09163	0.00312
2158.80586	0.00052
2157.52009	-0.00063
2156.23432	-0.00011
2154.94855	0.00130
2153.66278	0.00280
2152.37702	0.00407
2151.09125	0.00508
2149.80548	0.00579
2148.51971	0.00612
2147.23394	0.00610
2145.94817	0.00587
2144.66240	0.00569
2143.37663	0.00592
2142.09087	0.00674
2140.80510	0.00778
2139.51933	0.00827
2138.23356	0.00784
2136.94779	0.00686
2135.66202	0.00600
2134.37625	0.00564
2133.09048	0.00572
2131.80471	0.00597
2130.51895	0.00617
2129.23318	0.00636
2127.94741	0.00679
2126.66164	0.00766
2125.37587	0.00868
2124.09010	0.00929
2122.80433	0.00917
2121.51856	0.00860
2120.23280	0.00822
2118.94703	0.00840
2117.66126	0.00902
2116.37549	0.00964
2115.08972	0.00988
2113.80395	0.00967
2112.51818	0.00929
2111.23241	0.00919
2109.94664	0.00964
2108.66088	0.01039
2107.37511	0.01088
2106.08934	0.01083
2104.80357	0.01039
2103.51780	0.00991
2102.23203	0.00954
2100.94626	0.00937
2099.66049	0.01052
2098.37473	0.01106
2097.08896	0.01094
2095.80319	0.01061
2094.51742	0.01021
2093.23165	0.00980
2091.94588	0.00940
2090.66011	0.00900
2089.37434	0.00865
2088.08857	0.00836
2086.80281	0.00818
2085.51704	0.00815
2084.23127	0.00832
2082.94550	0.00871
2081.65973	0.00926
2080.37396	0.00980
2079.08819	0.01010
2077.80242	0.01004
2076.51666	0.00969
2075.23089	0.00928
2073.94512	0.00902
2072.65935	0.00900
2071.37358	0.00922
2070.08781	0.00954
2068.80204	0.00973
2067.51627	0.00958
2066.23050	0.00897
2064.94474	0.00793
2063.65897	0.00668
2062.37320	0.00557
2061.08743	0.00496
2059.80166	0.00492
2058.51589	0.00523
2057.23012	0.00551
2055.94435	0.00554
2054.65859	0.00543
2053.37282	0.00546
2052.08705	0.00583
2050.80128	0.00652
2049.51551	0.00730
2048.22974	0.00788
2046.94397	0.00803
2045.65820	0.00771
2044.37243	0.00707
2043.08667	0.00636
2041.80090	0.00570
2040.51513	0.00506
2039.22936	0.00442
2037.94359	0.00398
2036.65782	0.00397
2035.37205	0.00438
2034.08628	0.00489
2032.80052	0.00514
2031.51475	0.00500
2030.22898	0.00454
2028.94321	0.00394
2027.65744	0.00347
2026.37167	0.00340
2025.08590	0.00371
2023.80013	0.00403
2022.51436	0.00402
2021.22860	0.00367
2019.94283	0.00329
2018.65706	0.00320
2017.37129	0.00350
2016.08552	0.00417
2014.79975	0.00513
2013.51398	0.00618
2012.22821	0.00698
2010.94245	0.00723
2009.65668	0.00693
2008.37091	0.00640
2007.08514	0.00595
2005.79937	0.00570
2004.51360	0.00563
2003.22783	0.00575
2001.94206	0.00599
2000.65629	0.00619
1999.37053	0.00623
1998.08476	0.00620
1996.79899	0.00627
1995.51322	0.00639
1994.22745	0.00635
1992.94168	0.00612
1991.65591	0.00592
1990.37014	0.00585
1989.08438	0.00571
1987.79861	0.00527
1986.51284	0.00468
1985.22707	0.00447
1983.94130	0.00508
1982.65553	0.00647
1981.36976	0.00823
1980.08399	0.00992
1978.79822	0.01125
1977.51246	0.01195
1976.22669	0.01178
1974.94092	0.01082
1973.65515	0.00969
1972.36938	0.00905
1971.08361	0.00890
1969.79784	0.00868
1968.51207	0.00809
1967.22631	0.00750
1965.94054	0.00740
1964.65477	0.00778
1963.36900	0.00819
1962.08323	0.00834
1960.79746	0.00829
1959.51169	0.00824
1958.22592	0.00815
1956.94015	0.00786
1955.65439	0.00747
1954.36862	0.00740
1953.08285	0.00786
1951.79708	0.00856
1950.51131	0.00901
1949.22554	0.00907
1947.93977	0.00901
1946.65400	0.00907
1945.36823	0.00923
1944.08247	0.00934
1942.79670	0.00929
1941.51093	0.00918
1940.22516	0.00906
1938.93939	0.00893
1937.65362	0.00879
1936.36785	0.00880
1935.08208	0.00917
1933.79632	0.00993
1932.51055	0.01078
1931.22478	0.01132
1929.93901	0.01131
1928.65324	0.01087
1927.36747	0.01034
1926.08170	0.01000
1924.79593	0.00993
1923.51016	0.01007
1922.22440	0.01033
1920.93863	0.01057
1919.65286	0.01069
1918.36709	0.01066
1917.08132	0.01054
1915.79555	0.01037
1914.50978	0.01026
1913.22401	0.01034
1911.93825	0.01068
1910.65248	0.01114
1909.36671	0.01148
1908.08094	0.01154
1906.79517	0.01132
1905.50940	0.01093
1904.22363	0.01051
1902.93786	0.01021
1901.65209	0.01016
1900.36633	0.01035
1899.08056	0.01069
1897.79479	0.01102
1896.50902	0.01123
1895.22325	0.01134
1893.93748	0.01139
1892.65171	0.01133
1891.36594	0.01112
1890.08018	0.01086
1888.79441	0.01070
1887.50864	0.01066
1886.22287	0.01066
1884.93710	0.01068
1883.65133	0.01079
1882.36556	0.01103
1881.07979	0.01132
1879.79402	0.01150
1878.50826	0.01152
1877.22249	0.01141
1875.93672	0.01126
1874.65095	0.01110
1873.36518	0.01097
1872.07941	0.01089
1870.79364	0.01086
1869.50787	0.01088
1868.22211	0.01090
1866.93634	0.01089
1865.65057	0.01089
1864.36480	0.01092
1863.07903	0.01095
1861.79326	0.01089
1860.50749	0.01077
1859.22172	0.01071
1857.93595	0.01083
1856.65019	0.01108
1855.36442	0.01132
1854.07865	0.01146
1852.79288	0.01148
1851.50711	0.01146
1850.22134	0.01148
1848.93557	0.01160
1847.64980	0.01179
1846.36404	0.01190
1845.07827	0.01189
1843.79250	0.01184
1842.50673	0.01182
1841.22096	0.01179
1839.93519	0.01170
1838.64942	0.01160
1837.36365	0.01151
1836.07788	0.01142
1834.79212	0.01133
1833.50635	0.01127
1832.22058	0.01126
1830.93481	0.01128
1829.64904	0.01136
1828.36327	0.01149
1827.07750	0.01163
1825.79173	0.01177
1824.50597	0.01192
1823.22020	0.01202
1821.93443	0.01198
1820.64866	0.01180
1819.36289	0.01156
1818.07712	0.01137
1816.79135	0.01127
1815.50558	0.01125
1814.21981	0.01126
1812.93405	0.01124
1811.64828	0.01122
1810.36251	0.01126
1809.07674	0.01134
1807.79097	0.01140
1806.50520	0.01139
1805.21943	0.01132
1803.93366	0.01126
1802.64790	0.01124
1801.36213	0.01129
1800.07636	0.01142
1798.79059	0.01164
1797.50482	0.01192
1796.21905	0.01218
1794.93328	0.01235
1793.64751	0.01240
1792.36174	0.01242
1791.07598	0.01248
1789.79021	0.01254
1788.50444	0.01252
1787.21867	0.01244
1785.93290	0.01239
1784.64713	0.01242
1783.36136	0.01254
1782.07559	0.01267
1780.78983	0.01276
1779.50406	0.01279
1778.21829	0.01276
1776.93252	0.01267
1775.64675	0.01254
1774.36098	0.01239
1773.07521	0.01229
1771.78944	0.01233
1770.50367	0.01241
1769.21791	0.01242
1767.93214	0.01245
1766.64637	0.01262
1765.36060	0.01286
1764.07483	0.01301
1762.78906	0.01301
1761.50329	0.01299
1760.21752	0.01300
1758.93176	0.01301
1757.64599	0.01297
1756.36022	0.01293
1755.07445	0.01292
1753.78868	0.01288
1752.50291	0.01282
1751.21714	0.01282
1749.93137	0.01293
1748.64560	0.01306
1747.35984	0.01317
1746.07407	0.01325
1744.78830	0.01337
1743.50253	0.01352
1742.21676	0.01364
1740.93099	0.01369
1739.64522	0.01375
1738.35945	0.01389
1737.07369	0.01402
1735.78792	0.01403
1734.50215	0.01403
1733.21638	0.01420
1731.93061	0.01445
1730.64484	0.01457
1729.35907	0.01455
1728.07330	0.01455
1726.78753	0.01464
1725.50177	0.01479
1724.21600	0.01498
1722.93023	0.01524
1721.64446	0.01551
1720.35869	0.01572
1719.07292	0.01581
1717.78715	0.01590
1716.50138	0.01609
1715.21561	0.01634
1713.92985	0.01658
1712.64408	0.01684
1711.35831	0.01713
1710.07254	0.01742
1708.78677	0.01769
1707.50100	0.01794
1706.21523	0.01826
1704.92946	0.01877
1703.64370	0.01936
1702.35793	0.01983
1701.07216	0.02019
1699.78639	0.02064
1698.50062	0.02114
1697.21485	0.02149
1695.92908	0.02176
1694.64331	0.02221
1693.35754	0.02279
1692.07178	0.02327
1690.78601	0.02364
1689.50024	0.02405
1688.21447	0.02450
1686.92870	0.02486
1685.64293	0.02513
1684.35716	0.02552
1683.07139	0.02612
1681.78563	0.02677
1680.49986	0.02732
1679.21409	0.02779
1677.92832	0.02820
1676.64255	0.02853
1675.35678	0.02892
1674.07101	0.02947
1672.78524	0.03012
1671.49947	0.03070
1670.21371	0.03117
1668.92794	0.03162
1667.64217	0.03210
1666.35640	0.03255
1665.07063	0.03293
1663.78486	0.03325
1662.49909	0.03361
1661.21332	0.03407
1659.92756	0.03458
1658.64179	0.03506
1657.35602	0.03546
1656.07025	0.03568
1654.78448	0.03572
1653.49871	0.03581
1652.21294	0.03620
1650.92717	0.03673
1649.64140	0.03704
1648.35564	0.03701
1647.06987	0.03691
1645.78410	0.03698
1644.49833	0.03718
1643.21256	0.03734
1641.92679	0.03739
1640.64102	0.03738
1639.35525	0.03734
1638.06949	0.03724
1636.78372	0.03707
1635.49795	0.03696
1634.21218	0.03701
1632.92641	0.03710
1631.64064	0.03712
1630.35487	0.03707
1629.06910	0.03706
1627.78333	0.03710
1626.49757	0.03715
1625.21180	0.03712
1623.92603	0.03700
1622.64026	0.03689
1621.35449	0.03687
1620.06872	0.03685
1618.78295	0.03673
1617.49718	0.03659
1616.21142	0.03660
1614.92565	0.03677
1613.63988	0.03693
1612.35411	0.03700
1611.06834	0.03702
1609.78257	0.03708
1608.49680	0.03717
1607.21103	0.03727
1605.92526	0.03735
1604.63950	0.03744
1603.35373	0.03758
1602.06796	0.03775
1600.78219	0.03792
1599.49642	0.03807
1598.21065	0.03822
1596.92488	0.03838
1595.63911	0.03857
1594.35335	0.03873
1593.06758	0.03887
1591.78181	0.03900
1590.49604	0.03914
1589.21027	0.03931
1587.92450	0.03947
1586.63873	0.03963
1585.35296	0.03978
1584.06719	0.03994
1582.78143	0.04013
1581.49566	0.04035
1580.20989	0.04059
1578.92412	0.04074
1577.63835	0.04078
1576.35258	0.04083
1575.06681	0.04106
1573.78104	0.04137
1572.49528	0.04156
1571.20951	0.04164
1569.92374	0.04174
1568.63797	0.04195
1567.35220	0.04219
1566.06643	0.04235
1564.78066	0.04250
1563.49489	0.04270
1562.20912	0.04285
1560.92336	0.04288
1559.63759	0.04292
1558.35182	0.04313
1557.06605	0.04342
1555.78028	0.04353
1554.49451	0.04347
1553.20874	0.04339
1551.92297	0.04337
1550.63721	0.04339
1549.35144	0.04343
1548.06567	0.04347
1546.77990	0.04345
1545.49413	0.04337
1544.20836	0.04325
1542.92259	0.04306
1541.63682	0.04275
1540.35105	0.04241
1539.06529	0.04223
1537.77952	0.04223
1536.49375	0.04223
1535.20798	0.04208
1533.92221	0.04191
1532.63644	0.04190
1531.35067	0.04202
1530.06490	0.04218
1528.77914	0.04233
1527.49337	0.04249
1526.20760	0.04272
1524.92183	0.04302
1523.63606	0.04334
1522.35029	0.04370
1521.06452	0.04420
1519.77875	0.04484
1518.49298	0.04552
1517.20722	0.04617
1515.92145	0.04688
1514.63568	0.04766
1513.34991	0.04843
1512.06414	0.04920
1510.77837	0.05001
1509.49260	0.05082
1508.20683	0.05158
1506.92107	0.05238
1505.63530	0.05335
1504.34953	0.05438
1503.06376	0.05527
1501.77799	0.05597
1500.49222	0.05658
1499.20645	0.05716
1497.92068	0.05772
1496.63491	0.05827
1495.34915	0.05886
1494.06338	0.05944
1492.77761	0.05995
1491.49184	0.06043
1490.20607	0.06097
1488.92030	0.06162
1487.63453	0.06235
1486.34876	0.06315
1485.06299	0.06401
1483.77723	0.06490
1482.49146	0.06579
1481.20569	0.06671
1479.91992	0.06762
1478.63415	0.06851
1477.34838	0.06934
1476.06261	0.07012
1474.77684	0.07084
1473.49108	0.07151
1472.20531	0.07219
1470.91954	0.07287
1469.63377	0.07346
1468.34800	0.07390
1467.06223	0.07421
1465.77646	0.07445
1464.49069	0.07469
1463.20492	0.07499
1461.91916	0.07534
1460.63339	0.07572
1459.34762	0.07609
1458.06185	0.07651
1456.77608	0.07709
1455.49031	0.07779
1454.20454	0.07839
1452.91877	0.07875
1451.63301	0.07892
1450.34724	0.07901
1449.06147	0.07909
1447.77570	0.07915
1446.48993	0.07919
1445.20416	0.07916
1443.91839	0.07902
1442.63262	0.07880
1441.34685	0.07854
1440.06109	0.07826
1438.77532	0.07797
1437.48955	0.07777
1436.20378	0.07777
1434.91801	0.07798
1433.63224	0.07830
1432.34647	0.07872
1431.06070	0.07934
1429.77494	0.08020
1428.48917	0.08126
1427.20340	0.08243
1425.91763	0.08365
1424.63186	0.08490
1423.34609	0.08615
1422.06032	0.08731
1420.77455	0.08829
1419.48878	0.08916
1418.20302	0.09001
1416.91725	0.09079
1415.63148	0.09139
1414.34571	0.09176
1413.05994	0.09195
1411.77417	0.09199
1410.48840	0.09186
1409.20263	0.09151
1407.91687	0.09095
1406.63110	0.09021
1405.34533	0.08937
1404.05956	0.08847
1402.77379	0.08743
1401.48802	0.08620
1400.20225	0.08476
1398.91648	0.08319
1397.63071	0.08153
1396.34495	0.07979
1395.05918	0.07800
1393.77341	0.07623
1392.48764	0.07453
1391.20187	0.07283
1389.91610	0.07109
1388.63033	0.06934
1387.34456	0.06763
1386.05880	0.06598
1384.77303	0.06435
1383.48726	0.06267
1382.20149	0.06097
1380.91572	0.05930
1379.62995	0.05767
1378.34418	0.05604
1377.05841	0.05437
1375.77264	0.05266
1374.48688	0.05098
1373.20111	0.04939
1371.91534	0.04788
1370.62957	0.04642
1369.34380	0.04500
1368.05803	0.04364
1366.77226	0.04236
1365.48649	0.04113
1364.20073	0.03994
1362.91496	0.03882
1361.62919	0.03780
1360.34342	0.03688
1359.05765	0.03600
1357.77188	0.03517
1356.48611	0.03438
1355.20034	0.03364
1353.91457	0.03293
1352.62881	0.03228
1351.34304	0.03169
1350.05727	0.03117
1348.77150	0.03067
1347.48573	0.03014
1346.19996	0.02957
1344.91419	0.02901
1343.62842	0.02851
1342.34266	0.02809
1341.05689	0.02775
1339.77112	0.02746
1338.48535	0.02717
1337.19958	0.02688
1335.91381	0.02657
1334.62804	0.02626
1333.34227	0.02598
1332.05650	0.02571
1330.77074	0.02544
1329.48497	0.02514
1328.19920	0.02482
1326.91343	0.02450
1325.62766	0.02424
1324.34189	0.02405
1323.05612	0.02393
1321.77035	0.02380
1320.48459	0.02363
1319.19882	0.02342
1317.91305	0.02320
1316.62728	0.02299
1315.34151	0.02278
1314.05574	0.02253
1312.76997	0.02225
1311.48420	0.02199
1310.19843	0.02177
1308.91267	0.02161
1307.62690	0.02149
1306.34113	0.02141
1305.05536	0.02136
1303.76959	0.02130
1302.48382	0.02117
1301.19805	0.02096
1299.91228	0.02068
1298.62652	0.02040
1297.34075	0.02017
1296.05498	0.02000
1294.76921	0.01986
1293.48344	0.01976
1292.19767	0.01968
1290.91190	0.01963
1289.62613	0.01957
1288.34036	0.01950
1287.05460	0.01941
1285.76883	0.01931
1284.48306	0.01920
1283.19729	0.01912
1281.91152	0.01907
1280.62575	0.01904
1279.33998	0.01899
1278.05421	0.01890
1276.76845	0.01878
1275.48268	0.01865
1274.19691	0.01853
1272.91114	0.01841
1271.62537	0.01829
1270.33960	0.01820
1269.05383	0.01815
1267.76806	0.01814
1266.48229	0.01814
1265.19653	0.01812
1263.91076	0.01805
1262.62499	0.01794
1261.33922	0.01782
1260.05345	0.01771
1258.76768	0.01760
1257.48191	0.01751
1256.19614	0.01744
1254.91037	0.01740
1253.62461	0.01738
1252.33884	0.01735
1251.05307	0.01730
1249.76730	0.01725
1248.48153	0.01721
1247.19576	0.01717
1245.90999	0.01713
1244.62422	0.01707
1243.33846	0.01700
1242.05269	0.01693
1240.76692	0.01687
1239.48115	0.01683
1238.19538	0.01681
1236.90961	0.01680
1235.62384	0.01677
1234.33807	0.01672
1233.05230	0.01667
1231.76654	0.01659
1230.48077	0.01646
1229.19500	0.01627
1227.90923	0.01608
1226.62346	0.01594
1225.33769	0.01585
1224.05192	0.01579
1222.76615	0.01573
1221.48039	0.01565
1220.19462	0.01556
1218.90885	0.01543
1217.62308	0.01528
1216.33731	0.01513
1215.05154	0.01504
1213.76577	0.01501
1212.48000	0.01503
1211.19423	0.01503
1209.90847	0.01502
1208.62270	0.01500
1207.33693	0.01500
1206.05116	0.01505
1204.76539	0.01514
1203.47962	0.01528
1202.19385	0.01542
1200.90808	0.01544
1199.62232	0.01525
1198.33655	0.01514
1197.05078	0.01500
1195.76501	0.01490
1194.47924	0.01487
1193.19347	0.01489
1191.90770	0.01492
1190.62193	0.01494
1189.33616	0.01497
1188.05040	0.01498
1186.76463	0.01499
1185.47886	0.01499
1184.19309	0.01501
1182.90732	0.01505
1181.62155	0.01507
1180.33578	0.01508
1179.05001	0.01508
1177.76425	0.01511
1176.47848	0.01516
1175.19271	0.01522
1173.90694	0.01530
1172.62117	0.01540
1171.33540	0.01551
1170.04963	0.01563
1168.76386	0.01577
1167.47809	0.01593
1166.19233	0.01613
1164.90656	0.01634
1163.62079	0.01653
1162.33502	0.01671
1161.04925	0.01693
1159.76348	0.01719
1158.47771	0.01749
1157.19194	0.01777
1155.90618	0.01802
1154.62041	0.01825
1153.33464	0.01852
1152.04887	0.01885
1150.76310	0.01923
1149.47733	0.01964
1148.19156	0.02006
1146.90579	0.02052
1145.62002	0.02106
1144.33426	0.02165
1143.04849	0.02230
1141.76272	0.02301
1140.47695	0.02381
1139.19118	0.02471
1137.90541	0.02569
1136.61964	0.02674
1135.33387	0.02794
1134.04811	0.02935
1132.76234	0.03094
1131.47657	0.03267
1130.19080	0.03453
1128.90503	0.03651
1127.61926	0.03860
1126.33349	0.04080
1125.04772	0.04312
1123.76195	0.04560
1122.47619	0.04821
1121.19042	0.05093
1119.90465	0.05375
1118.61888	0.05665
1117.33311	0.05957
1116.04734	0.06246
1114.76157	0.06529
1113.47580	0.06806
1112.19004	0.07081
1110.90427	0.07355
1109.61850	0.07629
1108.33273	0.07896
1107.04696	0.08153
1105.76119	0.08403
1104.47542	0.08652
1103.18965	0.08901
1101.90388	0.09143
1100.61812	0.09371
1099.33235	0.09588
1098.04658	0.09797
1096.76081	0.10002
1095.47504	0.10203
1094.18927	0.10399
1092.90350	0.10586
1091.61773	0.10766
1090.33197	0.10938
1089.04620	0.11104
1087.76043	0.11269
1086.47466	0.11435
1085.18889	0.11603
1083.90312	0.11769
1082.61735	0.11934
1081.33158	0.12103
1080.04581	0.12287
1078.76005	0.12488
1077.47428	0.12704
1076.18851	0.12932
1074.90274	0.13173
1073.61697	0.13421
1072.33120	0.13674
1071.04543	0.13929
1069.75966	0.14187
1068.47390	0.14455
1067.18813	0.14735
1065.90236	0.15027
1064.61659	0.15328
1063.33082	0.15632
1062.04505	0.15930
1060.75928	0.16216
1059.47351	0.16489
1058.18774	0.16757
1056.90198	0.17026
1055.61621	0.17300
1054.33044	0.17574
1053.04467	0.17843
1051.75890	0.18107
1050.47313	0.18375
1049.18736	0.18652
1047.90159	0.18939
1046.61583	0.19232
1045.33006	0.19527
1044.04429	0.19821
1042.75852	0.20110
1041.47275	0.20396
1040.18698	0.20682
1038.90121	0.20975
1037.61544	0.21278
1036.32967	0.21586
1035.04391	0.21890
1033.75814	0.22180
1032.47237	0.22447
1031.18660	0.22683
1029.90083	0.22889
1028.61506	0.23069
1027.32929	0.23228
1026.04352	0.23370
1024.75775	0.23488
1023.47199	0.23576
1022.18622	0.23628
1020.90045	0.23646
1019.61468	0.23631
1018.32891	0.23580
1017.04314	0.23488
1015.75737	0.23350
1014.47160	0.23166
1013.18584	0.22938
1011.90007	0.22674
1010.61430	0.22378
1009.32853	0.22050
1008.04276	0.21686
1006.75699	0.21282
1005.47122	0.20841
1004.18545	0.20369
1002.89968	0.19870
1001.61392	0.19343
1000.32815	0.18792
999.04238	0.18228
997.75661	0.17660
996.47084	0.17089
995.18507	0.16513
993.89930	0.15931
992.61353	0.15353
991.32777	0.14789
990.04200	0.14243
988.75623	0.13715
987.47046	0.13201
986.18469	0.12700
984.89892	0.12214
983.61315	0.11747
982.32738	0.11302
981.04161	0.10879
979.75585	0.10483
978.47008	0.10119
977.18431	0.09792
975.89854	0.09502
974.61277	0.09249
973.32700	0.09037
972.04123	0.08872
970.75546	0.08759
969.46970	0.08695
968.18393	0.08672
966.89816	0.08690
965.61239	0.08744
964.32662	0.08823
963.04085	0.08903
961.75508	0.08959
960.46931	0.08971
959.18354	0.08926
957.89778	0.08821
956.61201	0.08661
955.32624	0.08458
954.04047	0.08229
952.75470	0.07992
951.46893	0.07762
950.18316	0.07546
948.89739	0.07340
947.61163	0.07138
946.32586	0.06939
945.04009	0.06746
943.75432	0.06561
942.46855	0.06383
941.18278	0.06209
939.89701	0.06041
938.61124	0.05880
937.32547	0.05726
936.03971	0.05582
934.75394	0.05449
933.46817	0.05330
932.18240	0.05223
930.89663	0.05120
929.61086	0.05018
928.32509	0.04923
927.03932	0.04844
925.75356	0.04782
924.46779	0.04725
923.18202	0.04663
921.89625	0.04594
920.61048	0.04521
919.32471	0.04450
918.03894	0.04382
916.75317	0.04317
915.46740	0.04256
914.18164	0.04206
912.89587	0.04171
911.61010	0.04145
910.32433	0.04117
909.03856	0.04078
907.75279	0.04030
906.46702	0.03980
905.18125	0.03930
903.89549	0.03885
902.60972	0.03848
901.32395	0.03822
900.03818	0.03801
898.75241	0.03779
897.46664	0.03753
896.18087	0.03724
894.89510	0.03703
893.60933	0.03694
892.32357	0.03697
891.03780	0.03704
889.75203	0.03712
888.46626	0.03727
887.18049	0.03759
885.89472	0.03829
884.60895	0.03961
883.32318	0.04172
882.03742	0.04447
880.75165	0.04731
879.46588	0.04964
878.18011	0.05125
876.89434	0.05243
875.60857	0.05359
874.32280	0.05485
873.03703	0.05591
871.75126	0.05644
870.46550	0.05626
869.17973	0.05540
867.89396	0.05402
866.60819	0.05228
865.32242	0.05032
864.03665	0.04827
862.75088	0.04626
861.46511	0.04441
860.17935	0.04279
858.89358	0.04142
857.60781	0.04027
856.32204	0.03931
855.03627	0.03848
853.75050	0.03775
852.46473	0.03709
851.17896	0.03652
849.89319	0.03605
848.60743	0.03563
847.32166	0.03522
846.03589	0.03479
844.75012	0.03440
843.46435	0.03410
842.17858	0.03390
840.89281	0.03373
839.60704	0.03355
838.32128	0.03332
837.03551	0.03304
835.74974	0.03273
834.46397	0.03248
833.17820	0.03235
831.89243	0.03228
830.60666	0.03217
829.32089	0.03197
828.03512	0.03177
826.74936	0.03163
825.46359	0.03154
824.17782	0.03145
822.89205	0.03137
821.60628	0.03136
820.32051	0.03140
819.03474	0.03134
817.74897	0.03116
816.46321	0.03098
815.17744	0.03098
813.89167	0.03116
812.60590	0.03134
811.32013	0.03138
810.03436	0.03130
808.74859	0.03118
807.46282	0.03108
806.17705	0.03101
804.89129	0.03096
803.60552	0.03094
802.31975	0.03094
801.03398	0.03093
799.74821	0.03086
798.46244	0.03073
797.17667	0.03056
795.89090	0.03041
794.60513	0.03035
793.31937	0.03038
792.03360	0.03047
790.74783	0.03058
789.46206	0.03070
788.17629	0.03077
786.89052	0.03073
785.60475	0.03058
784.31898	0.03038
783.03322	0.03023
781.74745	0.03015
780.46168	0.03010
779.17591	0.03008
777.89014	0.03011
776.60437	0.03021
775.31860	0.03035
774.03283	0.03047
772.74706	0.03047
771.46130	0.03034
770.17553	0.03015
768.88976	0.03003
767.60399	0.03004
766.31822	0.03017
765.03245	0.03037
763.74668	0.03055
762.46091	0.03065
761.17515	0.03065
759.88938	0.03064
758.60361	0.03065
757.31784	0.03069
756.03207	0.03072
754.74630	0.03071
753.46053	0.03070
752.17476	0.03069
750.88899	0.03066
749.60323	0.03058
748.31746	0.03044
747.03169	0.03030
745.74592	0.03022
744.46015	0.03021
743.17438	0.03020
741.88861	0.03011
740.60284	0.02994
739.31708	0.02982
738.03131	0.02987
736.74554	0.03005
735.45977	0.03021
734.17400	0.03017
732.88823	0.02990
731.60246	0.02953
730.31669	0.02924
729.03092	0.02917
727.74516	0.02934
726.45939	0.02961
725.17362	0.02983
723.88785	0.02990
722.60208	0.02998
721.31631	0.03005
720.03054	0.03011
718.74477	0.03012
717.45901	0.03009
716.17324	0.03003
714.88747	0.02999
713.60170	0.02999
712.31593	0.03004
711.03016	0.03007
709.74439	0.03003
708.45862	0.02992
707.17285	0.02977
705.88709	0.02965
704.60132	0.02959
703.31555	0.02961
702.02978	0.02971
700.74401	0.02984
699.45824	0.02995
698.17247	0.03002
696.88670	0.03005
695.60094	0.03005
694.31517	0.03004
693.02940	0.03001
691.74363	0.02999
690.45786	0.03000
689.17209	0.03001
687.88632	0.02997
686.60055	0.02984
685.31478	0.02962
684.02902	0.02935
682.74325	0.02913
681.45748	0.02902
680.17171	0.02903
678.88594	0.02909
677.60017	0.02912
676.31440	0.02912
675.02863	0.02914
673.74287	0.02923
672.45710	0.02937
671.17133	0.02951
669.88556	0.02959
668.59979	0.02958
667.31402	0.02950
666.02825	0.02938
664.74248	0.02921
663.45671	0.02903
662.17095	0.02888
660.88518	0.02880
659.59941	0.02877
658.31364	0.02872
657.02787	0.02865
655.74210	0.02855
654.45633	0.02846
653.17056	0.02837
651.88480	0.02831
650.59903	0.02827
649.31326	0.02829
648.02749	0.02836
646.74172	0.02846
645.45595	0.02856
644.17018	0.02865
642.88441	0.02874
641.59864	0.02882
640.31288	0.02892
639.02711	0.02905
637.74134	0.02922
636.45557	0.02941
635.16980	0.02961
633.88403	0.02979
632.59826	0.02995
631.31249	0.03031
630.02673	0.03171
628.74096	0.03390
627.45519	0.03405
626.16942	0.03682
624.88365	0.04117
623.59788	0.04522
622.31211	0.04854
621.02634	0.05107
619.74057	0.05260
618.45481	0.05312
617.16904	0.05311
615.88327	0.05316
614.59750	0.05376
613.31173	0.05549
612.02596	0.05916
610.74019	0.06522
609.45442	0.07289
608.16866	0.08017
606.88289	0.08541
605.59712	0.08850
604.31135	0.09040
603.02558	0.09179
601.73981	0.09250
600.45404	0.09202
599.16827	0.09021
597.88250	0.08741
596.59674	0.08418
595.31097	0.08103
594.02520	0.07833
592.73943	0.07632
591.45366	0.07506
590.16789	0.07447
588.88212	0.07441
587.59635	0.07476
586.31059	0.07552
585.02482	0.07669
583.73905	0.07823
582.45328	0.08006
581.16751	0.08216
579.88174	0.08455
578.59597	0.08715
577.31020	0.08980
576.02443	0.09239
574.73867	0.09489
573.45290	0.09733
572.16713	0.09975
570.88136	0.10217
569.59559	0.10464
568.30982	0.10721
567.02405	0.10991
565.73828	0.11266
564.45251	0.11519
563.16675	0.11711
561.88098	0.11800
560.59521	0.11755
559.30944	0.11558
558.02367	0.11220
556.73790	0.10778
555.45213	0.10281
554.16636	0.09774
552.88060	0.09274
551.59483	0.08787
550.30906	0.08318
549.02329	0.07881
547.73752	0.07490
546.45175	0.07144
545.16598	0.06833
543.88021	0.06547
542.59444	0.06286
541.30868	0.06055
540.02291	0.05857
538.73714	0.05683
537.45137	0.05519
536.16560	0.05354
534.87983	0.05192
533.59406	0.05044
532.30829	0.04914
531.02253	0.04796
529.73676	0.04680
528.45099	0.04563
527.16522	0.04450
525.87945	0.04349
524.59368	0.04258
523.30791	0.04168
522.02214	0.04075
520.73637	0.03981
519.45061	0.03897
518.16484	0.03824
516.87907	0.03755
515.59330	0.03683
514.30753	0.03606
513.02176	0.03531
511.73599	0.03467
510.45022	0.03417
509.16446	0.03380
507.87869	0.03346
506.59292	0.03305
505.30715	0.03253
504.02138	0.03194
502.73561	0.03138
501.44984	0.03090
500.16407	0.03048
498.87830	0.03010
497.59254	0.02976
496.30677	0.02952
495.02100	0.02936
493.73523	0.02924
492.44946	0.02911
491.16369	0.02897
489.87792	0.02886
488.59215	0.02881
487.30639	0.02881
486.02062	0.02877
484.73485	0.02867
483.44908	0.02854
482.16331	0.02846
480.87754	0.02849
479.59177	0.02859
478.30600	0.02872
477.02023	0.02887
475.73447	0.02908
474.44870	0.02936
473.16293	0.02968
471.87716	0.02993
470.59139	0.03005
469.30562	0.03005
468.01985	0.02995
466.73408	0.02980
465.44832	0.02958
464.16255	0.02928
462.87678	0.02888
461.59101	0.02842
460.30524	0.02799
459.01947	0.02765
457.73370	0.02741
456.44793	0.02718
455.16216	0.02690
453.87640	0.02658
452.59063	0.02627
451.30486	0.02600
450.01909	0.02575
448.73332	0.02553
447.44755	0.02535
446.16178	0.02523
444.87601	0.02513
443.59025	0.02501
442.30448	0.02483
441.01871	0.02460
439.73294	0.02437
438.44717	0.02418
437.16140	0.02409
435.87563	0.02409
434.58986	0.02412
433.30409	0.02411
432.01833	0.02407
430.73256	0.02406
429.44679	0.02411
428.16102	0.02414
426.87525	0.02408
425.58948	0.02389
424.30371	0.02365
423.01794	0.02343
421.73218	0.02322
420.44641	0.02301
419.16064	0.02281
417.87487	0.02267
416.58910	0.02260
415.30333	0.02256
414.01756	0.02248
412.73179	0.02237
411.44602	0.02224
410.16026	0.02215
408.87449	0.02213
407.58872	0.02218
406.30295	0.02228
405.01718	0.02237
403.73141	0.02242
402.44564	0.02246
401.15987	0.02251
399.87411	0.02257
