3997.45528	0.02125
3996.16951	0.02220
3994.88374	0.02296
3993.59798	0.02355
3992.31221	0.02401
3991.02644	0.02414
3989.74067	0.02372
3988.45490	0.02287
3987.16913	0.02216
3985.88336	0.02208
3984.59759	0.02269
3983.31183	0.02360
3982.02606	0.02429
3980.74029	0.02442
3979.45452	0.02398
3978.16875	0.02322
3976.88298	0.02248
3975.59721	0.02201
3974.31144	0.02201
3973.02567	0.02252
3971.73991	0.02328
3970.45414	0.02387
3969.16837	0.02402
3967.88260	0.02390
3966.59683	0.02378
3965.31106	0.02367
3964.02529	0.02341
3962.73952	0.02294
3961.45376	0.02251
3960.16799	0.02237
3958.88222	0.02254
3957.59645	0.02285
3956.31068	0.02315
3955.02491	0.02345
3953.73914	0.02380
3952.45337	0.02417
3951.16760	0.02445
3949.88184	0.02456
3948.59607	0.02446
3947.31030	0.02408
3946.02453	0.02330
3944.73876	0.02230
3943.45299	0.02157
3942.16722	0.02153
3940.88145	0.02215
3939.59569	0.02304
3938.30992	0.02383
3937.02415	0.02437
3935.73838	0.02457
3934.45261	0.02438
3933.16684	0.02393
3931.88107	0.02347
3930.59530	0.02326
3929.30953	0.02331
3928.02377	0.02350
3926.73800	0.02373
3925.45223	0.02398
3924.16646	0.02424
3922.88069	0.02432
3921.59492	0.02398
3920.30915	0.02322
3919.02338	0.02236
3917.73762	0.02174
3916.45185	0.02148
3915.16608	0.02147
3913.88031	0.02163
3912.59454	0.02192
3911.30877	0.02221
3910.02300	0.02225
3908.73723	0.02186
3907.45146	0.02121
3906.16570	0.02071
3904.87993	0.02074
3903.59416	0.02134
3902.30839	0.02219
3901.02262	0.02285
3899.73685	0.02297
3898.45108	0.02247
3897.16531	0.02159
3895.87955	0.02075
3894.59378	0.02036
3893.30801	0.02058
3892.02224	0.02118
3890.73647	0.02176
3889.45070	0.02201
3888.16493	0.02200
3886.87916	0.02202
3885.59339	0.02219
3884.30763	0.02233
3883.02186	0.02219
3881.73609	0.02165
3880.45032	0.02089
3879.16455	0.02023
3877.87878	0.01984
3876.59301	0.01977
3875.30724	0.01999
3874.02148	0.02059
3872.73571	0.02155
3871.44994	0.02259
3870.16417	0.02319
3868.87840	0.02304
3867.59263	0.02238
3866.30686	0.02183
3865.02109	0.02186
3863.73532	0.02239
3862.44956	0.02290
3861.16379	0.02290
3859.87802	0.02244
3858.59225	0.02203
3857.30648	0.02225
3856.02071	0.02316
3854.73494	0.02422
3853.44917	0.02477
3852.16341	0.02464
3850.87764	0.02424
3849.59187	0.02407
3848.30610	0.02427
3847.02033	0.02456
3845.73456	0.02459
3844.44879	0.02414
3843.16302	0.02331
3841.87725	0.02249
3840.59149	0.02215
3839.30572	0.02235
3838.01995	0.02270
3836.73418	0.02264
3835.44841	0.02199
3834.16264	0.02105
3832.87687	0.02027
3831.59110	0.02002
3830.30534	0.02041
3829.01957	0.02119
3827.73380	0.02185
3826.44803	0.02206
3825.16226	0.02200
3823.87649	0.02201
3822.59072	0.02213
3821.30495	0.02212
3820.01918	0.02195
3818.73342	0.02191
3817.44765	0.02213
3816.16188	0.02231
3814.87611	0.02201
3813.59034	0.02128
3812.30457	0.02065
3811.01880	0.02062
3809.73303	0.02123
3808.44726	0.02206
3807.16150	0.02272
3805.87573	0.02312
3804.58996	0.02342
3803.30419	0.02359
3802.01842	0.02345
3800.73265	0.02297
3799.44688	0.02249
3798.16111	0.02247
3796.87535	0.02286
3795.58958	0.02314
3794.30381	0.02291
3793.01804	0.02230
3791.73227	0.02184
3790.44650	0.02183
3789.16073	0.02208
3787.87496	0.02219
3786.58919	0.02194
3785.30343	0.02142
3784.01766	0.02093
3782.73189	0.02073
3781.44612	0.02092
3780.16035	0.02137
3778.87458	0.02176
3777.58881	0.02174
3776.30304	0.02116
3775.01728	0.02025
3773.73151	0.01948
3772.44574	0.01934
3771.15997	0.01994
3769.87420	0.02097
3768.58843	0.02189
3767.30266	0.02222
3766.01689	0.02182
3764.73112	0.02098
3763.44536	0.02022
3762.15959	0.01994
3760.87382	0.02011
3759.58805	0.02043
3758.30228	0.02060
3757.01651	0.02061
3755.73074	0.02063
3754.44497	0.02083
3753.15921	0.02120
3751.87344	0.02159
3750.58767	0.02178
3749.30190	0.02164
3748.01613	0.02133
3746.73036	0.02110
3745.44459	0.02098
3744.15882	0.02081
3742.87305	0.02042
3741.58729	0.02000
3740.30152	0.02001
3739.01575	0.02077
3737.72998	0.02212
3736.44421	0.02337
3735.15844	0.02387
3733.87267	0.02356
3732.58690	0.02282
3731.30114	0.02210
3730.01537	0.02161
3728.72960	0.02127
3727.44383	0.02105
3726.15806	0.02095
3724.87229	0.02108
3723.58652	0.02155
3722.30075	0.02206
3721.01498	0.02219
3719.72922	0.02177
3718.44345	0.02091
3717.15768	0.02009
3715.87191	0.01980
3714.58614	0.02029
3713.30037	0.02134
3712.01460	0.02211
3710.72883	0.02211
3709.44307	0.02147
3708.15730	0.02049
3706.87153	0.01966
3705.58576	0.01934
3704.29999	0.01955
3703.01422	0.01998
3701.72845	0.02023
3700.44268	0.02026
3699.15691	0.02034
3697.87115	0.02061
3696.58538	0.02095
3695.29961	0.02115
3694.01384	0.02119
3692.72807	0.02108
3691.44230	0.02098
3690.15653	0.02105
3688.87076	0.02110
3687.58500	0.02089
3686.29923	0.02039
3685.01346	0.01979
3683.72769	0.01948
3682.44192	0.01966
3681.15615	0.02020
3679.87038	0.02076
3678.58461	0.02112
3677.29884	0.02121
3676.01308	0.02103
3674.72731	0.02062
3673.44154	0.01999
3672.15577	0.01931
3670.87000	0.01897
3669.58423	0.01931
3668.29846	0.02025
3667.01269	0.02132
3665.72693	0.02197
3664.44116	0.02191
3663.15539	0.02131
3661.86962	0.02050
3660.58385	0.01986
3659.29808	0.01964
3658.01231	0.01993
3656.72654	0.02063
3655.44077	0.02148
3654.15501	0.02215
3652.86924	0.02252
3651.58347	0.02273
3650.29770	0.02289
3649.01193	0.02288
3647.72616	0.02247
3646.44039	0.02167
3645.15462	0.02083
3643.86886	0.02028
3642.58309	0.02020
3641.29732	0.02063
3640.01155	0.02143
3638.72578	0.02230
3637.44001	0.02299
3636.15424	0.02342
3634.86847	0.02360
3633.58270	0.02346
3632.29694	0.02317
3631.01117	0.02311
3629.72540	0.02345
3628.43963	0.02403
3627.15386	0.02455
3625.86809	0.02495
3624.58232	0.02527
3623.29655	0.02550
3622.01079	0.02535
3620.72502	0.02480
3619.43925	0.02406
3618.15348	0.02359
3616.86771	0.02356
3615.58194	0.02369
3614.29617	0.02370
3613.01040	0.02366
3611.72463	0.02389
3610.43887	0.02442
3609.15310	0.02499
3607.86733	0.02529
3606.58156	0.02527
3605.29579	0.02505
3604.01002	0.02477
3602.72425	0.02453
3601.43848	0.02428
3600.15272	0.02407
3598.86695	0.02412
3597.58118	0.02455
3596.29541	0.02506
3595.00964	0.02554
3593.72387	0.02595
3592.43810	0.02621
3591.15233	0.02659
3589.86656	0.02724
3588.58080	0.02788
3587.29503	0.02823
3586.00926	0.02807
3584.72349	0.02754
3583.43772	0.02709
3582.15195	0.02697
3580.86618	0.02703
3579.58041	0.02697
3578.29464	0.02661
3577.00888	0.02619
3575.72311	0.02610
3574.43734	0.02642
3573.15157	0.02686
3571.86580	0.02714
3570.58003	0.02724
3569.29426	0.02727
3568.00849	0.02728
3566.72273	0.02725
3565.43696	0.02721
3564.15119	0.02723
3562.86542	0.02720
3561.57965	0.02701
3560.29388	0.02669
3559.00811	0.02649
3557.72234	0.02668
3556.43657	0.02718
3555.15081	0.02764
3553.86504	0.02778
3552.57927	0.02770
3551.29350	0.02774
3550.00773	0.02814
3548.72196	0.02884
3547.43619	0.02958
3546.15042	0.03002
3544.86466	0.02995
3543.57889	0.02944
3542.29312	0.02888
3541.00735	0.02867
3539.72158	0.02896
3538.43581	0.02947
3537.15004	0.02980
3535.86427	0.02986
3534.57850	0.02996
3533.29274	0.03048
3532.00697	0.03142
3530.72120	0.03231
3529.43543	0.03265
3528.14966	0.03232
3526.86389	0.03169
3525.57812	0.03128
3524.29235	0.03139
3523.00659	0.03200
3521.72082	0.03279
3520.43505	0.03336
3519.14928	0.03353
3517.86351	0.03344
3516.57774	0.03333
3515.29197	0.03336
3514.00620	0.03346
3512.72043	0.03354
3511.43467	0.03359
3510.14890	0.03368
3508.86313	0.03377
3507.57736	0.03379
3506.29159	0.03372
3505.00582	0.03366
3503.72005	0.03378
3502.43428	0.03412
3501.14852	0.03451
3499.86275	0.03467
3498.57698	0.03448
3497.29121	0.03403
3496.00544	0.03353
3494.71967	0.03318
3493.43390	0.03305
3492.14813	0.03319
3490.86236	0.03361
3489.57660	0.03431
3488.29083	0.03523
3487.00506	0.03618
3485.71929	0.03690
3484.43352	0.03720
3483.14775	0.03707
3481.86198	0.03664
3480.57621	0.03604
3479.29045	0.03547
3478.00468	0.03517
3476.71891	0.03519
3475.43314	0.03533
3474.14737	0.03530
3472.86160	0.03505
3471.57583	0.03477
3470.29006	0.03467
3469.00429	0.03481
3467.71853	0.03518
3466.43276	0.03566
3465.14699	0.03606
3463.86122	0.03619
3462.57545	0.03605
3461.28968	0.03589
3460.00391	0.03598
3458.71814	0.03635
3457.43238	0.03679
3456.14661	0.03703
3454.86084	0.03695
3453.57507	0.03665
3452.28930	0.03643
3451.00353	0.03650
3449.71776	0.03677
3448.43199	0.03688
3447.14622	0.03670
3445.86046	0.03651
3444.57469	0.03666
3443.28892	0.03707
3442.00315	0.03736
3440.71738	0.03730
3439.43161	0.03709
3438.14584	0.03705
3436.86007	0.03727
3435.57431	0.03765
3434.28854	0.03807
3433.00277	0.03847
3431.71700	0.03879
3430.43123	0.03898
3429.14546	0.03898
3427.85969	0.03867
3426.57392	0.03806
3425.28815	0.03745
3424.00239	0.03725
3422.71662	0.03762
3421.43085	0.03828
3420.14508	0.03888
3418.85931	0.03926
3417.57354	0.03934
3416.28777	0.03913
3415.00200	0.03875
3413.71624	0.03839
3412.43047	0.03816
3411.14470	0.03804
3409.85893	0.03805
3408.57316	0.03826
3407.28739	0.03866
3406.00162	0.03904
3404.71585	0.03916
3403.43008	0.03900
3402.14432	0.03880
3400.85855	0.03880
3399.57278	0.03913
3398.28701	0.03969
3397.00124	0.04027
3395.71547	0.04057
3394.42970	0.04042
3393.14393	0.03988
3391.85817	0.03915
3390.57240	0.03853
3389.28663	0.03825
3388.00086	0.03840
3386.71509	0.03890
3385.42932	0.03952
3384.14355	0.04002
3382.85778	0.04034
3381.57201	0.04054
3380.28625	0.04066
3379.00048	0.04063
3377.71471	0.04033
3376.42894	0.03978
3375.14317	0.03927
3373.85740	0.03910
3372.57163	0.03935
3371.28586	0.03984
3370.00010	0.04035
3368.71433	0.04080
3367.42856	0.04117
3366.14279	0.04140
3364.85702	0.04146
3363.57125	0.04138
3362.28548	0.04127
3360.99971	0.04117
3359.71394	0.04099
3358.42818	0.04069
3357.14241	0.04044
3355.85664	0.04050
3354.57087	0.04096
3353.28510	0.04161
3351.99933	0.04211
3350.71356	0.04224
3349.42779	0.04203
3348.14202	0.04168
3346.85626	0.04145
3345.57049	0.04147
3344.28472	0.04163
3342.99895	0.04171
3341.71318	0.04159
3340.42741	0.04130
3339.14164	0.04101
3337.85587	0.04080
3336.57011	0.04069
3335.28434	0.04072
3333.99857	0.04095
3332.71280	0.04137
3331.42703	0.04184
3330.14126	0.04216
3328.85549	0.04225
3327.56972	0.04209
3326.28395	0.04179
3324.99819	0.04146
3323.71242	0.04126
3322.42665	0.04130
3321.14088	0.04163
3319.85511	0.04218
3318.56934	0.04282
3317.28357	0.04337
3315.99780	0.04367
3314.71204	0.04365
3313.42627	0.04336
3312.14050	0.04290
3310.85473	0.04245
3309.56896	0.04218
3308.28319	0.04212
3306.99742	0.04217
3305.71165	0.04214
3304.42588	0.04201
3303.14012	0.04186
3301.85435	0.04174
3300.56858	0.04156
3299.28281	0.04124
3297.99704	0.04088
3296.71127	0.04070
3295.42550	0.04078
3294.13973	0.04103
3292.85397	0.04120
3291.56820	0.04115
3290.28243	0.04089
3288.99666	0.04055
3287.71089	0.04026
3286.42512	0.04011
3285.13935	0.04008
3283.85358	0.04011
3282.56781	0.04024
3281.28205	0.04055
3279.99628	0.04101
3278.71051	0.04139
3277.42474	0.04151
3276.13897	0.04136
3274.85320	0.04108
3273.56743	0.04072
3272.28166	0.04029
3270.99590	0.03989
3269.71013	0.03969
3268.42436	0.03973
3267.13859	0.03992
3265.85282	0.04012
3264.56705	0.04031
3263.28128	0.04053
3261.99551	0.04081
3260.70974	0.04112
3259.42398	0.04136
3258.13821	0.04140
3256.85244	0.04113
3255.56667	0.04064
3254.28090	0.04017
3252.99513	0.03994
3251.70936	0.04002
3250.42359	0.04029
3249.13783	0.04057
3247.85206	0.04069
3246.56629	0.04059
3245.28052	0.04035
3243.99475	0.04018
3242.70898	0.04028
3241.42321	0.04069
3240.13744	0.04125
3238.85167	0.04169
3237.56591	0.04192
3236.28014	0.04195
3234.99437	0.04185
3233.70860	0.04159
3232.42283	0.04116
3231.13706	0.04064
3229.85129	0.04011
3228.56552	0.03956
3227.27976	0.03904
3225.99399	0.03873
3224.70822	0.03887
3223.42245	0.03947
3222.13668	0.04023
3220.85091	0.04077
3219.56514	0.04085
3218.27937	0.04052
3216.99360	0.04000
3215.70784	0.03946
3214.42207	0.03894
3213.13630	0.03844
3211.85053	0.03799
3210.56476	0.03769
3209.27899	0.03765
3207.99322	0.03788
3206.70745	0.03833
3205.42169	0.03891
3204.13592	0.03952
3202.85015	0.03995
3201.56438	0.04000
3200.27861	0.03962
3198.99284	0.03899
3197.70707	0.03838
3196.42130	0.03799
3195.13553	0.03789
3193.84977	0.03804
3192.56400	0.03833
3191.27823	0.03860
3189.99246	0.03876
3188.70669	0.03885
3187.42092	0.03899
3186.13515	0.03926
3184.84938	0.03953
3183.56362	0.03961
3182.27785	0.03941
3180.99208	0.03898
3179.70631	0.03845
3178.42054	0.03796
3177.13477	0.03766
3175.84900	0.03767
3174.56323	0.03800
3173.27746	0.03847
3171.99170	0.03874
3170.70593	0.03864
3169.42016	0.03829
3168.13439	0.03794
3166.84862	0.03772
3165.56285	0.03752
3164.27708	0.03727
3162.99131	0.03713
3161.70555	0.03721
3160.41978	0.03738
3159.13401	0.03728
3157.84824	0.03678
3156.56247	0.03609
3155.27670	0.03560
3153.99093	0.03548
3152.70516	0.03566
3151.41939	0.03601
3150.13363	0.03646
3148.84786	0.03693
3147.56209	0.03728
3146.27632	0.03741
3144.99055	0.03735
3143.70478	0.03719
3142.41901	0.03697
3141.13324	0.03671
3139.84748	0.03645
3138.56171	0.03621
3137.27594	0.03597
3135.99017	0.03571
3134.70440	0.03551
3133.41863	0.03545
3132.13286	0.03550
3130.84709	0.03550
3129.56132	0.03529
3128.27556	0.03481
3126.98979	0.03422
3125.70402	0.03388
3124.41825	0.03407
3123.13248	0.03473
3121.84671	0.03548
3120.56094	0.03595
3119.27517	0.03609
3117.98940	0.03601
3116.70364	0.03586
3115.41787	0.03570
3114.13210	0.03554
3112.84633	0.03540
3111.56056	0.03529
3110.27479	0.03519
3108.98902	0.03505
3107.70325	0.03494
3106.41749	0.03497
3105.13172	0.03518
3103.84595	0.03546
3102.56018	0.03564
3101.27441	0.03558
3099.98864	0.03519
3098.70287	0.03459
3097.41710	0.03407
3096.13133	0.03391
3094.84557	0.03411
3093.55980	0.03445
3092.27403	0.03469
3090.98826	0.03479
3089.70249	0.03486
3088.41672	0.03495
3087.13095	0.03497
3085.84518	0.03479
3084.55942	0.03446
3083.27365	0.03418
3081.98788	0.03406
3080.70211	0.03408
3079.41634	0.03417
3078.13057	0.03429
3076.84480	0.03440
3075.55903	0.03441
3074.27326	0.03425
3072.98750	0.03400
3071.70173	0.03382
3070.41596	0.03375
3069.13019	0.03377
3067.84442	0.03379
3066.55865	0.03381
3065.27288	0.03385
3063.98711	0.03392
3062.70135	0.03397
3061.41558	0.03388
3060.12981	0.03359
3058.84404	0.03313
3057.55827	0.03265
3056.27250	0.03234
3054.98673	0.03228
3053.70096	0.03238
3052.41519	0.03251
3051.12943	0.03260
3049.84366	0.03269
3048.55789	0.03280
3047.27212	0.03288
3045.98635	0.03286
3044.70058	0.03275
3043.41481	0.03265
3042.12904	0.03260
3040.84328	0.03260
3039.55751	0.03256
3038.27174	0.03247
3036.98597	0.03237
3035.70020	0.03231
3034.41443	0.03235
3033.12866	0.03251
3031.84289	0.03274
3030.55712	0.03290
3029.27136	0.03286
3027.98559	0.03265
3026.69982	0.03242
3025.41405	0.03230
3024.12828	0.03227
3022.84251	0.03222
3021.55674	0.03205
3020.27097	0.03180
3018.98521	0.03155
3017.69944	0.03136
3016.41367	0.03125
3015.12790	0.03119
3013.84213	0.03115
3012.55636	0.03105
3011.27059	0.03088
3009.98482	0.03067
3008.69905	0.03054
3007.41329	0.03053
3006.12752	0.03059
3004.84175	0.03071
3003.55598	0.03096
3002.27021	0.03134
3000.98444	0.03169
2999.69867	0.03180
2998.41290	0.03165
2997.12714	0.03145
2995.84137	0.03132
2994.55560	0.03119
2993.26983	0.03099
2991.98406	0.03078
2990.69829	0.03063
2989.41252	0.03048
2988.12675	0.03029
2986.84098	0.03018
2985.55522	0.03034
2984.26945	0.03075
2982.98368	0.03116
2981.69791	0.03137
2980.41214	0.03142
2979.12637	0.03143
2977.84060	0.03145
2976.55483	0.03143
2975.26907	0.03132
2973.98330	0.03122
2972.69753	0.03127
2971.41176	0.03157
2970.12599	0.03210
2968.84022	0.03265
2967.55445	0.03311
2966.26868	0.03347
2964.98291	0.03378
2963.69715	0.03401
2962.41138	0.03412
2961.12561	0.03413
2959.83984	0.03412
2958.55407	0.03411
2957.26830	0.03411
2955.98253	0.03422
2954.69676	0.03450
2953.41100	0.03488
2952.12523	0.03516
2950.83946	0.03525
2949.55369	0.03526
2948.26792	0.03537
2946.98215	0.03558
2945.69638	0.03567
2944.41061	0.03550
2943.12484	0.03521
2941.83908	0.03503
2940.55331	0.03505
2939.26754	0.03518
2937.98177	0.03533
2936.69600	0.03554
2935.41023	0.03585
2934.12446	0.03618
2932.83869	0.03641
2931.55293	0.03651
2930.26716	0.03658
2928.98139	0.03678
2927.69562	0.03720
2926.40985	0.03768
2925.12408	0.03795
2923.83831	0.03783
2922.55254	0.03742
2921.26677	0.03696
2919.98101	0.03657
2918.69524	0.03627
2917.40947	0.03605
2916.12370	0.03597
2914.83793	0.03607
2913.55216	0.03627
2912.26639	0.03648
2910.98062	0.03660
2909.69486	0.03646
2908.40909	0.03599
2907.12332	0.03529
2905.83755	0.03467
2904.55178	0.03433
2903.26601	0.03425
2901.98024	0.03428
2900.69447	0.03431
2899.40870	0.03430
2898.12294	0.03420
2896.83717	0.03397
2895.55140	0.03367
2894.26563	0.03340
2892.97986	0.03317
2891.69409	0.03289
2890.40832	0.03251
2889.12255	0.03216
2887.83678	0.03197
2886.55102	0.03194
2885.26525	0.03183
2883.97948	0.03154
2882.69371	0.03121
2881.40794	0.03108
2880.12217	0.03117
2878.83640	0.03132
2877.55063	0.03145
2876.26487	0.03161
2874.97910	0.03179
2873.69333	0.03189
2872.40756	0.03189
2871.12179	0.03187
2869.83602	0.03190
2868.55025	0.03193
2867.26448	0.03192
2865.97871	0.03192
2864.69295	0.03201
2863.40718	0.03215
2862.12141	0.03227
2860.83564	0.03229
2859.54987	0.03224
2858.26410	0.03225
2856.97833	0.03237
2855.69256	0.03254
2854.40680	0.03264
2853.12103	0.03266
2851.83526	0.03266
2850.54949	0.03260
2849.26372	0.03238
2847.97795	0.03201
2846.69218	0.03166
2845.40641	0.03142
2844.12064	0.03120
2842.83488	0.03088
2841.54911	0.03044
2840.26334	0.03000
2838.97757	0.02964
2837.69180	0.02934
2836.40603	0.02907
2835.12026	0.02878
2833.83449	0.02850
2832.54873	0.02830
2831.26296	0.02826
2829.97719	0.02830
2828.69142	0.02826
2827.40565	0.02803
2826.11988	0.02769
2824.83411	0.02737
2823.54834	0.02714
2822.26257	0.02696
2820.97681	0.02677
2819.69104	0.02664
2818.40527	0.02665
2817.11950	0.02678
2815.83373	0.02692
2814.54796	0.02697
2813.26219	0.02696
2811.97642	0.02698
2810.69066	0.02707
2809.40489	0.02717
2808.11912	0.02725
2806.83335	0.02730
2805.54758	0.02730
2804.26181	0.02720
2802.97604	0.02698
2801.69027	0.02668
2800.40450	0.02639
2799.11874	0.02621
2797.83297	0.02614
2796.54720	0.02611
2795.26143	0.02604
2793.97566	0.02592
2792.68989	0.02582
2791.40412	0.02577
2790.11835	0.02574
2788.83259	0.02567
2787.54682	0.02548
2786.26105	0.02521
2784.97528	0.02497
2783.68951	0.02487
2782.40374	0.02491
2781.11797	0.02499
2779.83220	0.02502
2778.54643	0.02497
2777.26067	0.02487
2775.97490	0.02475
2774.68913	0.02463
2773.40336	0.02460
2772.11759	0.02465
2770.83182	0.02471
2769.54605	0.02471
2768.26028	0.02471
2766.97452	0.02476
2765.68875	0.02489
2764.40298	0.02500
2763.11721	0.02503
2761.83144	0.02497
2760.54567	0.02486
2759.25990	0.02471
2757.97413	0.02451
2756.68836	0.02432
2755.40260	0.02426
2754.11683	0.02437
2752.83106	0.02455
2751.54529	0.02467
2750.25952	0.02469
2748.97375	0.02464
2747.68798	0.02455
2746.40221	0.02440
2745.11645	0.02423
2743.83068	0.02411
2742.54491	0.02406
2741.25914	0.02403
2739.97337	0.02396
2738.68760	0.02388
2737.40183	0.02381
2736.11606	0.02373
2734.83029	0.02363
2733.54453	0.02358
2732.25876	0.02359
2730.97299	0.02361
2729.68722	0.02359
2728.40145	0.02353
2727.11568	0.02344
2725.82991	0.02333
2724.54414	0.02323
2723.25838	0.02321
2721.97261	0.02329
2720.68684	0.02339
2719.40107	0.02344
2718.11530	0.02349
2716.82953	0.02358
2715.54376	0.02368
2714.25799	0.02369
2712.97222	0.02362
2711.68646	0.02352
2710.40069	0.02342
2709.11492	0.02328
2707.82915	0.02316
2706.54338	0.02317
2705.25761	0.02336
2703.97184	0.02363
2702.68607	0.02381
2701.40031	0.02379
2700.11454	0.02363
2698.82877	0.02344
2697.54300	0.02330
2696.25723	0.02323
2694.97146	0.02324
2693.68569	0.02329
2692.39992	0.02329
2691.11415	0.02313
2689.82839	0.02285
2688.54262	0.02262
2687.25685	0.02257
2685.97108	0.02266
2684.68531	0.02272
2683.39954	0.02268
2682.11377	0.02261
2680.82800	0.02260
2679.54224	0.02263
2678.25647	0.02260
2676.97070	0.02243
2675.68493	0.02218
2674.39916	0.02197
2673.11339	0.02195
2671.82762	0.02215
2670.54185	0.02241
2669.25608	0.02260
2667.97032	0.02268
2666.68455	0.02271
2665.39878	0.02266
2664.11301	0.02250
2662.82724	0.02227
2661.54147	0.02210
2660.25570	0.02206
2658.96993	0.02210
2657.68417	0.02214
2656.39840	0.02219
2655.11263	0.02233
2653.82686	0.02254
2652.54109	0.02266
2651.25532	0.02260
2649.96955	0.02242
2648.68378	0.02228
2647.39801	0.02225
2646.11225	0.02224
2644.82648	0.02218
2643.54071	0.02202
2642.25494	0.02185
2640.96917	0.02171
2639.68340	0.02159
2638.39763	0.02143
2637.11186	0.02126
2635.82609	0.02109
2634.54033	0.02094
2633.25456	0.02080
2631.96879	0.02070
2630.68302	0.02063
2629.39725	0.02055
2628.11148	0.02039
2626.82571	0.02011
2625.53994	0.01982
2624.25418	0.01970
2622.96841	0.01986
2621.68264	0.02013
2620.39687	0.02019
2619.11110	0.01996
2617.82533	0.01970
2616.53956	0.01972
2615.25379	0.01995
2613.96802	0.02012
2612.68226	0.02011
2611.39649	0.02002
2610.11072	0.01999
2608.82495	0.02003
2607.53918	0.02009
2606.25341	0.02010
2604.96764	0.02003
2603.68187	0.01988
2602.39611	0.01964
2601.11034	0.01930
2599.82457	0.01893
2598.53880	0.01868
2597.25303	0.01876
2595.96726	0.01914
2594.68149	0.01959
2593.39572	0.01983
2592.10995	0.01980
2590.82419	0.01959
2589.53842	0.01925
2588.25265	0.01877
2586.96688	0.01829
2585.68111	0.01811
2584.39534	0.01844
2583.10957	0.01913
2581.82380	0.01976
2580.53804	0.02003
2579.25227	0.01998
2577.96650	0.01968
2576.68073	0.01912
2575.39496	0.01831
2574.10919	0.01753
2572.82342	0.01713
2571.53765	0.01719
2570.25188	0.01752
2568.96612	0.01792
2567.68035	0.01826
2566.39458	0.01838
2565.10881	0.01820
2563.82304	0.01792
2562.53727	0.01779
2561.25150	0.01781
2559.96573	0.01772
2558.67997	0.01740
2557.39420	0.01706
2556.10843	0.01700
2554.82266	0.01728
2553.53689	0.01771
2552.25112	0.01818
2550.96535	0.01871
2549.67958	0.01919
2548.39381	0.01930
2547.10805	0.01890
2545.82228	0.01825
2544.53651	0.01778
2543.25074	0.01768
2541.96497	0.01779
2540.67920	0.01788
2539.39343	0.01793
2538.10766	0.01795
2536.82190	0.01790
2535.53613	0.01772
2534.25036	0.01743
2532.96459	0.01720
2531.67882	0.01711
2530.39305	0.01710
2529.10728	0.01706
2527.82151	0.01695
2526.53574	0.01682
2525.24998	0.01677
2523.96421	0.01688
2522.67844	0.01709
2521.39267	0.01727
2520.10690	0.01739
2518.82113	0.01749
2517.53536	0.01761
2516.24959	0.01767
2514.96383	0.01758
2513.67806	0.01735
2512.39229	0.01699
2511.10652	0.01659
2509.82075	0.01638
2508.53498	0.01657
2507.24921	0.01699
2505.96344	0.01713
2504.67767	0.01676
2503.39191	0.01618
2502.10614	0.01585
2500.82037	0.01590
2499.53460	0.01616
2498.24883	0.01641
2496.96306	0.01651
2495.67729	0.01643
2494.39152	0.01624
2493.10576	0.01614
2491.81999	0.01629
2490.53422	0.01660
2489.24845	0.01696
2487.96268	0.01732
2486.67691	0.01771
2485.39114	0.01804
2484.10537	0.01816
2482.81960	0.01806
2481.53384	0.01786
2480.24807	0.01768
2478.96230	0.01751
2477.67653	0.01736
2476.39076	0.01723
2475.10499	0.01709
2473.81922	0.01685
2472.53345	0.01646
2471.24769	0.01602
2469.96192	0.01572
2468.67615	0.01570
2467.39038	0.01595
2466.10461	0.01637
2464.81884	0.01677
2463.53307	0.01699
2462.24730	0.01702
2460.96153	0.01704
2459.67577	0.01717
2458.39000	0.01730
2457.10423	0.01722
2455.81846	0.01689
2454.53269	0.01652
2453.24692	0.01632
2451.96115	0.01634
2450.67538	0.01642
2449.38962	0.01644
2448.10385	0.01636
2446.81808	0.01625
2445.53231	0.01611
2444.24654	0.01596
2442.96077	0.01585
2441.67500	0.01587
2440.38923	0.01601
2439.10346	0.01620
2437.81770	0.01633
2436.53193	0.01643
2435.24616	0.01655
2433.96039	0.01671
2432.67462	0.01680
2431.38885	0.01671
2430.10308	0.01641
2428.81731	0.01601
2427.53155	0.01568
2426.24578	0.01556
2424.96001	0.01565
2423.67424	0.01582
2422.38847	0.01590
2421.10270	0.01584
2419.81693	0.01570
2418.53116	0.01556
2417.24539	0.01542
2415.95963	0.01538
2414.67386	0.01550
2413.38809	0.01577
2412.10232	0.01596
2410.81655	0.01593
2409.53078	0.01569
2408.24501	0.01542
2406.95924	0.01527
2405.67347	0.01528
2404.38771	0.01540
2403.10194	0.01561
2401.81617	0.01594
2400.53040	0.01633
2399.24463	0.01665
2397.95886	0.01671
2396.67309	0.01657
2395.38732	0.01636
2394.10156	0.01615
2392.81579	0.01588
2391.53002	0.01547
2390.24425	0.01500
2388.95848	0.01463
2387.67271	0.01449
2386.38694	0.01455
2385.10117	0.01471
2383.81540	0.01486
2382.52964	0.01497
2381.24387	0.01511
2379.95810	0.01547
2378.67233	0.01612
2377.38656	0.01695
2376.10079	0.01810
2374.81502	0.01921
2373.52925	0.01958
2372.24349	0.01901
2370.95772	0.01766
2369.67195	0.01657
2368.38618	0.01600
2367.10041	0.01538
2365.81464	0.01530
2364.52887	0.01681
2363.24310	0.01898
2361.95733	0.02004
2360.67157	0.02000
2359.38580	0.02017
2358.10003	0.02052
2356.81426	0.02073
2355.52849	0.02095
2354.24272	0.02086
2352.95695	0.02020
2351.67118	0.01807
2350.38542	0.01425
2349.09965	0.01180
2347.81388	0.01336
2346.52811	0.01649
2345.24234	0.01752
2343.95657	0.01673
2342.67080	0.01641
2341.38503	0.01672
2340.09926	0.01683
2338.81350	0.01681
2337.52773	0.01660
2336.24196	0.01656
2334.95619	0.01646
2333.67042	0.01630
2332.38465	0.01676
2331.09888	0.01723
2329.81311	0.01716
2328.52735	0.01702
2327.24158	0.01649
2325.95581	0.01577
2324.67004	0.01563
2323.38427	0.01578
2322.09850	0.01609
2320.81273	0.01679
2319.52696	0.01719
2318.24119	0.01688
2316.95543	0.01635
2315.66966	0.01596
2314.38389	0.01570
2313.09812	0.01542
2311.81235	0.01532
2310.52658	0.01550
2309.24081	0.01583
2307.95504	0.01621
2306.66928	0.01647
2305.38351	0.01642
2304.09774	0.01617
2302.81197	0.01600
2301.52620	0.01598
2300.24043	0.01598
2298.95466	0.01593
2297.66889	0.01582
2296.38312	0.01571
2295.09736	0.01570
2293.81159	0.01580
2292.52582	0.01594
2291.24005	0.01599
2289.95428	0.01584
2288.66851	0.01550
2287.38274	0.01510
2286.09697	0.01481
2284.81121	0.01467
2283.52544	0.01469
2282.23967	0.01479
2280.95390	0.01486
2279.66813	0.01485
2278.38236	0.01472
2277.09659	0.01447
2275.81082	0.01410
2274.52505	0.01371
2273.23929	0.01343
2271.95352	0.01325
2270.66775	0.01294
2269.38198	0.01232
2268.09621	0.01153
2266.81044	0.01098
2265.52467	0.01102
2264.23890	0.01166
2262.95314	0.01265
2261.66737	0.01368
2260.38160	0.01454
2259.09583	0.01510
2257.81006	0.01534
2256.52429	0.01517
2255.23852	0.01454
2253.95275	0.01352
2252.66698	0.01253
2251.38122	0.01202
2250.09545	0.01201
2248.80968	0.01212
2247.52391	0.01194
2246.23814	0.01182
2244.95237	0.01215
2243.66660	0.01267
2242.38083	0.01285
2241.09507	0.01258
2239.80930	0.01227
2238.52353	0.01222
2237.23776	0.01228
2235.95199	0.01213
2234.66622	0.01167
2233.38045	0.01102
2232.09468	0.01047
2230.80891	0.01029
2229.52315	0.01052
2228.23738	0.01091
2226.95161	0.01123
2225.66584	0.01154
2224.38007	0.01206
2223.09430	0.01271
2221.80853	0.01309
2220.52276	0.01293
2219.23700	0.01235
2217.95123	0.01172
2216.66546	0.01135
2215.37969	0.01125
2214.09392	0.01113
2212.80815	0.01069
2211.52238	0.00988
2210.23661	0.00898
2208.95084	0.00834
2207.66508	0.00818
2206.37931	0.00848
2205.09354	0.00902
2203.80777	0.00942
2202.52200	0.00938
2201.23623	0.00893
2199.95046	0.00836
2198.66469	0.00794
2197.37893	0.00767
2196.09316	0.00741
2194.80739	0.00709
2193.52162	0.00687
2192.23585	0.00698
2190.95008	0.00745
2189.66431	0.00799
2188.37854	0.00825
2187.09277	0.00820
2185.80701	0.00815
2184.52124	0.00840
2183.23547	0.00887
2181.94970	0.00923
2180.66393	0.00924
2179.37816	0.00892
2178.09239	0.00850
2176.80662	0.00816
2175.52085	0.00805
2174.23509	0.00820
2172.94932	0.00844
2171.66355	0.00849
2170.37778	0.00822
2169.09201	0.00789
2167.80624	0.00777
2166.52047	0.00772
2165.23470	0.00727
2163.94894	0.00626
2162.66317	0.00491
2161.37740	0.00340
2160.09163	0.00176
2158.80586	0.00044
2157.52009	0.00013
2156.23432	0.00101
2154.94855	0.00241
2153.66278	0.00361
2152.37702	0.00447
2151.09125	0.00517
2149.80548	0.00579
2148.51971	0.00617
2147.23394	0.00613
2145.94817	0.00562
2144.66240	0.00484
2143.37663	0.00428
2142.09087	0.00436
2140.80510	0.00508
2139.51933	0.00597
2138.23356	0.00654
2136.94779	0.00665
2135.66202	0.00654
2134.37625	0.00667
2133.09048	0.00743
2131.80471	0.00876
2130.51895	0.01009
2129.23318	0.01076
2127.94741	0.01056
2126.66164	0.00976
2125.37587	0.00878
2124.09010	0.00790
2122.80433	0.00738
2121.51856	0.00742
2120.23280	0.00801
2118.94703	0.00883
2117.66126	0.00949
2116.37549	0.00977
2115.08972	0.00969
2113.80395	0.00949
2112.51818	0.00943
2111.23241	0.00953
2109.94664	0.00954
2108.66088	0.00924
2107.37511	0.00877
2106.08934	0.00855
2104.80357	0.00878
2103.51780	0.00929
2102.23203	0.00966
2100.94626	0.00967
2099.66049	0.00997
2098.37473	0.00984
2097.08896	0.00951
2095.80319	0.00927
2094.51742	0.00913
2093.23165	0.00908
2091.94588	0.00915
2090.66011	0.00931
2089.37434	0.00936
2088.08857	0.00908
2086.80281	0.00857
2085.51704	0.00826
2084.23127	0.00849
2082.94550	0.00919
2081.65973	0.00985
2080.37396	0.01001
2079.08819	0.00962
2077.80242	0.00902
2076.51666	0.00865
2075.23089	0.00868
2073.94512	0.00901
2072.65935	0.00929
2071.37358	0.00914
2070.08781	0.00852
2068.80204	0.00778
2067.51627	0.00733
2066.23050	0.00723
2064.94474	0.00716
2063.65897	0.00693
2062.37320	0.00676
2061.08743	0.00706
2059.80166	0.00787
2058.51589	0.00874
2057.23012	0.00909
2055.94435	0.00880
2054.65859	0.00818
2053.37282	0.00759
2052.08705	0.00715
2050.80128	0.00681
2049.51551	0.00660
2048.22974	0.00653
2046.94397	0.00643
2045.65820	0.00604
2044.37243	0.00530
2043.08667	0.00442
2041.80090	0.00368
2040.51513	0.00315
2039.22936	0.00284
2037.94359	0.00273
2036.65782	0.00280
2035.37205	0.00295
2034.08628	0.00314
2032.80052	0.00341
2031.51475	0.00373
2030.22898	0.00389
2028.94321	0.00367
2027.65744	0.00312
2026.37167	0.00244
2025.08590	0.00177
2023.80013	0.00120
2022.51436	0.00103
2021.22860	0.00160
2019.94283	0.00289
2018.65706	0.00439
2017.37129	0.00552
2016.08552	0.00613
2014.79975	0.00645
2013.51398	0.00670
2012.22821	0.00673
2010.94245	0.00638
2009.65668	0.00579
2008.37091	0.00535
2007.08514	0.00522
2005.79937	0.00515
2004.51360	0.00493
2003.22783	0.00472
2001.94206	0.00489
2000.65629	0.00553
1999.37053	0.00638
1998.08476	0.00707
1996.79899	0.00742
1995.51322	0.00743
1994.22745	0.00714
1992.94168	0.00667
1991.65591	0.00620
1990.37014	0.00589
1989.08438	0.00587
1987.79861	0.00615
1986.51284	0.00662
1985.22707	0.00706
1983.94130	0.00728
1982.65553	0.00726
1981.36976	0.00713
1980.08399	0.00701
1978.79822	0.00687
1977.51246	0.00661
1976.22669	0.00615
1974.94092	0.00566
1973.65515	0.00551
1972.36938	0.00593
1971.08361	0.00670
1969.79784	0.00729
1968.51207	0.00743
1967.22631	0.00725
1965.94054	0.00706
1964.65477	0.00698
1963.36900	0.00695
1962.08323	0.00684
1960.79746	0.00659
1959.51169	0.00627
1958.22592	0.00611
1956.94015	0.00635
1955.65439	0.00697
1954.36862	0.00765
1953.08285	0.00800
1951.79708	0.00787
1950.51131	0.00749
1949.22554	0.00719
1947.93977	0.00717
1946.65400	0.00735
1945.36823	0.00751
1944.08247	0.00756
1942.79670	0.00753
1941.51093	0.00750
1940.22516	0.00750
1938.93939	0.00761
1937.65362	0.00796
1936.36785	0.00853
1935.08208	0.00914
1933.79632	0.00955
1932.51055	0.00974
1931.22478	0.00981
1929.93901	0.00978
1928.65324	0.00958
1927.36747	0.00925
1926.08170	0.00897
1924.79593	0.00890
1923.51016	0.00910
1922.22440	0.00945
1920.93863	0.00979
1919.65286	0.00999
1918.36709	0.01000
1917.08132	0.00984
1915.79555	0.00956
1914.50978	0.00924
1913.22401	0.00895
1911.93825	0.00875
1910.65248	0.00871
1909.36671	0.00887
1908.08094	0.00921
1906.79517	0.00966
1905.50940	0.01009
1904.22363	0.01033
1902.93786	0.01030
1901.65209	0.01007
1900.36633	0.00987
1899.08056	0.00989
1897.79479	0.01015
1896.50902	0.01047
1895.22325	0.01065
1893.93748	0.01054
1892.65171	0.01020
1891.36594	0.00979
1890.08018	0.00948
1888.79441	0.00932
1887.50864	0.00929
1886.22287	0.00940
1884.93710	0.00963
1883.65133	0.00985
1882.36556	0.00994
1881.07979	0.00986
1879.79402	0.00970
1878.50826	0.00958
1877.22249	0.00954
1875.93672	0.00954
1874.65095	0.00955
1873.36518	0.00957
1872.07941	0.00963
1870.79364	0.00972
1869.50787	0.00980
1868.22211	0.00978
1866.93634	0.00960
1865.65057	0.00933
1864.36480	0.00914
1863.07903	0.00913
1861.79326	0.00927
1860.50749	0.00946
1859.22172	0.00961
1857.93595	0.00974
1856.65019	0.00985
1855.36442	0.00994
1854.07865	0.01004
1852.79288	0.01017
1851.50711	0.01030
1850.22134	0.01030
1848.93557	0.01008
1847.64980	0.00972
1846.36404	0.00943
1845.07827	0.00938
1843.79250	0.00956
1842.50673	0.00984
1841.22096	0.01004
1839.93519	0.01010
1838.64942	0.01002
1837.36365	0.00988
1836.07788	0.00978
1834.79212	0.00978
1833.50635	0.00988
1832.22058	0.01005
1830.93481	0.01026
1829.64904	0.01043
1828.36327	0.01051
1827.07750	0.01047
1825.79173	0.01036
1824.50597	0.01022
1823.22020	0.01010
1821.93443	0.01003
1820.64866	0.01001
1819.36289	0.01004
1818.07712	0.01007
1816.79135	0.01005
1815.50558	0.00999
1814.21981	0.00996
1812.93405	0.01003
1811.64828	0.01017
1810.36251	0.01032
1809.07674	0.01040
1807.79097	0.01035
1806.50520	0.01018
1805.21943	0.00998
1803.93366	0.00987
1802.64790	0.00989
1801.36213	0.01001
1800.07636	0.01014
1798.79059	0.01028
1797.50482	0.01041
1796.21905	0.01056
1794.93328	0.01068
1793.64751	0.01073
1792.36174	0.01066
1791.07598	0.01050
1789.79021	0.01031
1788.50444	0.01019
1787.21867	0.01017
1785.93290	0.01020
1784.64713	0.01025
1783.36136	0.01030
1782.07559	0.01041
1780.78983	0.01057
1779.50406	0.01069
1778.21829	0.01073
1776.93252	0.01070
1775.64675	0.01069
1774.36098	0.01077
1773.07521	0.01087
1771.78944	0.01090
1770.50367	0.01085
1769.21791	0.01074
1767.93214	0.01062
1766.64637	0.01052
1765.36060	0.01046
1764.07483	0.01048
1762.78906	0.01060
1761.50329	0.01079
1760.21752	0.01096
1758.93176	0.01104
1757.64599	0.01102
1756.36022	0.01094
1755.07445	0.01091
1753.78868	0.01099
1752.50291	0.01115
1751.21714	0.01129
1749.93137	0.01132
1748.64560	0.01127
1747.35984	0.01122
1746.07407	0.01119
1744.78830	0.01118
1743.50253	0.01115
1742.21676	0.01112
1740.93099	0.01110
1739.64522	0.01111
1738.35945	0.01117
1737.07369	0.01134
1735.78792	0.01161
1734.50215	0.01185
1733.21638	0.01187
1731.93061	0.01167
1730.64484	0.01141
1729.35907	0.01127
1728.07330	0.01128
1726.78753	0.01138
1725.50177	0.01150
1724.21600	0.01162
1722.93023	0.01178
1721.64446	0.01198
1720.35869	0.01225
1719.07292	0.01255
1717.78715	0.01282
1716.50138	0.01298
1715.21561	0.01300
1713.92985	0.01295
1712.64408	0.01292
1711.35831	0.01296
1710.07254	0.01306
1708.78677	0.01324
1707.50100	0.01351
1706.21523	0.01390
1704.92946	0.01438
1703.64370	0.01491
1702.35793	0.01548
1701.07216	0.01599
1699.78639	0.01639
1698.50062	0.01664
1697.21485	0.01677
1695.92908	0.01684
1694.64331	0.01687
1693.35754	0.01692
1692.07178	0.01707
1690.78601	0.01735
1689.50024	0.01778
1688.21447	0.01832
1686.92870	0.01892
1685.64293	0.01947
1684.35716	0.01983
1683.07139	0.01997
1681.78563	0.02002
1680.49986	0.02016
1679.21409	0.02051
1677.92832	0.02099
1676.64255	0.02147
1675.35678	0.02186
1674.07101	0.02218
1672.78524	0.02250
1671.49947	0.02286
1670.21371	0.02320
1668.92794	0.02346
1667.64217	0.02366
1666.35640	0.02390
1665.07063	0.02424
1663.78486	0.02464
1662.49909	0.02504
1661.21332	0.02541
1659.92756	0.02571
1658.64179	0.02597
1657.35602	0.02627
1656.07025	0.02668
1654.78448	0.02718
1653.49871	0.02762
1652.21294	0.02779
1650.92717	0.02772
1649.64140	0.02759
1648.35564	0.02757
1647.06987	0.02759
1645.78410	0.02754
1644.49833	0.02740
1643.21256	0.02726
1641.92679	0.02722
1640.64102	0.02731
1639.35525	0.02747
1638.06949	0.02764
1636.78372	0.02771
1635.49795	0.02764
1634.21218	0.02744
1632.92641	0.02721
1631.64064	0.02705
1630.35487	0.02693
1629.06910	0.02684
1627.78333	0.02673
1626.49757	0.02662
1625.21180	0.02652
1623.92603	0.02641
1622.64026	0.02626
1621.35449	0.02607
1620.06872	0.02594
1618.78295	0.02590
1617.49718	0.02587
1616.21142	0.02575
1614.92565	0.02551
1613.63988	0.02523
1612.35411	0.02501
1611.06834	0.02486
1609.78257	0.02478
1608.49680	0.02473
1607.21103	0.02473
1605.92526	0.02475
1604.63950	0.02474
1603.35373	0.02468
1602.06796	0.02460
1600.78219	0.02454
1599.49642	0.02453
1598.21065	0.02455
1596.92488	0.02462
1595.63911	0.02471
1594.35335	0.02480
1593.06758	0.02487
1591.78181	0.02491
1590.49604	0.02497
1589.21027	0.02505
1587.92450	0.02516
1586.63873	0.02530
1585.35296	0.02546
1584.06719	0.02559
1582.78143	0.02567
1581.49566	0.02572
1580.20989	0.02585
1578.92412	0.02611
1577.63835	0.02643
1576.35258	0.02669
1575.06681	0.02679
1573.78104	0.02681
1572.49528	0.02686
1571.20951	0.02697
1569.92374	0.02710
1568.63797	0.02721
1567.35220	0.02730
1566.06643	0.02737
1564.78066	0.02745
1563.49489	0.02760
1562.20912	0.02792
1560.92336	0.02841
1559.63759	0.02889
1558.35182	0.02914
1557.06605	0.02910
1555.78028	0.02889
1554.49451	0.02867
1553.20874	0.02853
1551.92297	0.02848
1550.63721	0.02850
1549.35144	0.02856
1548.06567	0.02868
1546.77990	0.02884
1545.49413	0.02906
1544.20836	0.02932
1542.92259	0.02958
1541.63682	0.02976
1540.35105	0.02977
1539.06529	0.02960
1537.77952	0.02933
1536.49375	0.02909
1535.20798	0.02898
1533.92221	0.02897
1532.63644	0.02898
1531.35067	0.02898
1530.06490	0.02899
1528.77914	0.02906
1527.49337	0.02922
1526.20760	0.02946
1524.92183	0.02979
1523.63606	0.03017
1522.35029	0.03057
1521.06452	0.03092
1519.77875	0.03122
1518.49298	0.03149
1517.20722	0.03179
1515.92145	0.03211
1514.63568	0.03242
1513.34991	0.03273
1512.06414	0.03309
1510.77837	0.03358
1509.49260	0.03423
1508.20683	0.03498
1506.92107	0.03564
1505.63530	0.03604
1504.34953	0.03621
1503.06376	0.03632
1501.77799	0.03657
1500.49222	0.03701
1499.20645	0.03753
1497.92068	0.03802
1496.63491	0.03835
1495.34915	0.03855
1494.06338	0.03871
1492.77761	0.03892
1491.49184	0.03926
1490.20607	0.03971
1488.92030	0.04016
1487.63453	0.04057
1486.34876	0.04091
1485.06299	0.04123
1483.77723	0.04159
1482.49146	0.04204
1481.20569	0.04256
1479.91992	0.04312
1478.63415	0.04368
1477.34838	0.04424
1476.06261	0.04479
1474.77684	0.04535
1473.49108	0.04590
1472.20531	0.04638
1470.91954	0.04674
1469.63377	0.04698
1468.34800	0.04720
1467.06223	0.04744
1465.77646	0.04771
1464.49069	0.04798
1463.20492	0.04826
1461.91916	0.04857
1460.63339	0.04897
1459.34762	0.04942
1458.06185	0.04983
1456.77608	0.05007
1455.49031	0.05009
1454.20454	0.05001
1452.91877	0.04998
1451.63301	0.05007
1450.34724	0.05024
1449.06147	0.05039
1447.77570	0.05047
1446.48993	0.05043
1445.20416	0.05033
1443.91839	0.05020
1442.63262	0.05010
1441.34685	0.05008
1440.06109	0.05015
1438.77532	0.05031
1437.48955	0.05052
1436.20378	0.05068
1434.91801	0.05079
1433.63224	0.05089
1432.34647	0.05108
1431.06070	0.05141
1429.77494	0.05188
1428.48917	0.05242
1427.20340	0.05298
1425.91763	0.05352
1424.63186	0.05406
1423.34609	0.05460
1422.06032	0.05515
1420.77455	0.05565
1419.48878	0.05605
1418.20302	0.05634
1416.91725	0.05656
1415.63148	0.05678
1414.34571	0.05699
1413.05994	0.05716
1411.77417	0.05725
1410.48840	0.05728
1409.20263	0.05723
1407.91687	0.05710
1406.63110	0.05683
1405.34533	0.05643
1404.05956	0.05594
1402.77379	0.05540
1401.48802	0.05486
1400.20225	0.05429
1398.91648	0.05364
1397.63071	0.05290
1396.34495	0.05211
1395.05918	0.05128
1393.77341	0.05043
1392.48764	0.04958
1391.20187	0.04876
1389.91610	0.04800
1388.63033	0.04728
1387.34456	0.04655
1386.05880	0.04577
1384.77303	0.04496
1383.48726	0.04415
1382.20149	0.04334
1380.91572	0.04251
1379.62995	0.04166
1378.34418	0.04081
1377.05841	0.04003
1375.77264	0.03928
1374.48688	0.03852
1373.20111	0.03769
1371.91534	0.03680
1370.62957	0.03590
1369.34380	0.03507
1368.05803	0.03434
1366.77226	0.03367
1365.48649	0.03304
1364.20073	0.03240
1362.91496	0.03176
1361.62919	0.03110
1360.34342	0.03046
1359.05765	0.02987
1357.77188	0.02932
1356.48611	0.02883
1355.20034	0.02837
1353.91457	0.02793
1352.62881	0.02751
1351.34304	0.02711
1350.05727	0.02674
1348.77150	0.02640
1347.48573	0.02604
1346.19996	0.02566
1344.91419	0.02527
1343.62842	0.02492
1342.34266	0.02464
1341.05689	0.02441
1339.77112	0.02422
1338.48535	0.02406
1337.19958	0.02387
1335.91381	0.02363
1334.62804	0.02332
1333.34227	0.02298
1332.05650	0.02265
1330.77074	0.02240
1329.48497	0.02223
1328.19920	0.02209
1326.91343	0.02192
1325.62766	0.02171
1324.34189	0.02147
1323.05612	0.02125
1321.77035	0.02105
1320.48459	0.02089
1319.19882	0.02075
1317.91305	0.02063
1316.62728	0.02053
1315.34151	0.02044
1314.05574	0.02030
1312.76997	0.02011
1311.48420	0.01990
1310.19843	0.01974
1308.91267	0.01965
1307.62690	0.01957
1306.34113	0.01944
1305.05536	0.01925
1303.76959	0.01904
1302.48382	0.01884
1301.19805	0.01867
1299.91228	0.01852
1298.62652	0.01840
1297.34075	0.01831
1296.05498	0.01826
1294.76921	0.01821
1293.48344	0.01815
1292.19767	0.01805
1290.91190	0.01793
1289.62613	0.01782
1288.34036	0.01775
1287.05460	0.01771
1285.76883	0.01767
1284.48306	0.01764
1283.19729	0.01763
1281.91152	0.01764
1280.62575	0.01763
1279.33998	0.01758
1278.05421	0.01745
1276.76845	0.01729
1275.48268	0.01713
1274.19691	0.01702
1272.91114	0.01694
1271.62537	0.01689
1270.33960	0.01684
1269.05383	0.01680
1267.76806	0.01675
1266.48229	0.01669
1265.19653	0.01665
1263.91076	0.01662
1262.62499	0.01659
1261.33922	0.01654
1260.05345	0.01646
1258.76768	0.01638
1257.48191	0.01633
1256.19614	0.01631
1254.91037	0.01631
1253.62461	0.01627
1252.33884	0.01619
1251.05307	0.01607
1249.76730	0.01596
1248.48153	0.01592
1247.19576	0.01595
1245.90999	0.01602
1244.62422	0.01608
1243.33846	0.01608
1242.05269	0.01599
1240.76692	0.01585
1239.48115	0.01573
1238.19538	0.01566
1236.90961	0.01565
1235.62384	0.01568
1234.33807	0.01571
1233.05230	0.01571
1231.76654	0.01567
1230.48077	0.01560
1229.19500	0.01547
1227.90923	0.01531
1226.62346	0.01514
1225.33769	0.01500
1224.05192	0.01491
1222.76615	0.01484
1221.48039	0.01476
1220.19462	0.01470
1218.90885	0.01468
1217.62308	0.01470
1216.33731	0.01475
1215.05154	0.01479
1213.76577	0.01479
1212.48000	0.01472
1211.19423	0.01461
1209.90847	0.01453
1208.62270	0.01450
1207.33693	0.01454
1206.05116	0.01463
1204.76539	0.01475
1203.47962	0.01487
1202.19385	0.01494
1200.90808	0.01492
1199.62232	0.01479
1198.33655	0.01473
1197.05078	0.01469
1195.76501	0.01471
1194.47924	0.01475
1193.19347	0.01478
1191.90770	0.01478
1190.62193	0.01475
1189.33616	0.01471
1188.05040	0.01466
1186.76463	0.01462
1185.47886	0.01461
1184.19309	0.01462
1182.90732	0.01466
1181.62155	0.01467
1180.33578	0.01464
1179.05001	0.01461
1177.76425	0.01465
1176.47848	0.01478
1175.19271	0.01493
1173.90694	0.01505
1172.62117	0.01515
1171.33540	0.01523
1170.04963	0.01533
1168.76386	0.01543
1167.47809	0.01553
1166.19233	0.01566
1164.90656	0.01582
1163.62079	0.01601
1162.33502	0.01619
1161.04925	0.01633
1159.76348	0.01639
1158.47771	0.01640
1157.19194	0.01639
1155.90618	0.01642
1154.62041	0.01651
1153.33464	0.01665
1152.04887	0.01680
1150.76310	0.01695
1149.47733	0.01712
1148.19156	0.01735
1146.90579	0.01768
1145.62002	0.01809
1144.33426	0.01851
1143.04849	0.01891
1141.76272	0.01926
1140.47695	0.01959
1139.19118	0.01997
1137.90541	0.02044
1136.61964	0.02102
1135.33387	0.02169
1134.04811	0.02243
1132.76234	0.02323
1131.47657	0.02408
1130.19080	0.02498
1128.90503	0.02598
1127.61926	0.02714
1126.33349	0.02848
1125.04772	0.02996
1123.76195	0.03147
1122.47619	0.03296
1121.19042	0.03448
1119.90465	0.03610
1118.61888	0.03779
1117.33311	0.03945
1116.04734	0.04099
1114.76157	0.04245
1113.47580	0.04393
1112.19004	0.04546
1110.90427	0.04704
1109.61850	0.04861
1108.33273	0.05018
1107.04696	0.05175
1105.76119	0.05330
1104.47542	0.05479
1103.18965	0.05621
1101.90388	0.05758
1100.61812	0.05890
1099.33235	0.06016
1098.04658	0.06137
1096.76081	0.06251
1095.47504	0.06354
1094.18927	0.06444
1092.90350	0.06527
1091.61773	0.06610
1090.33197	0.06697
1089.04620	0.06787
1087.76043	0.06875
1086.47466	0.06957
1085.18889	0.07033
1083.90312	0.07109
1082.61735	0.07191
1081.33158	0.07285
1080.04581	0.07394
1078.76005	0.07518
1077.47428	0.07650
1076.18851	0.07784
1074.90274	0.07912
1073.61697	0.08037
1072.33120	0.08162
1071.04543	0.08293
1069.75966	0.08431
1068.47390	0.08572
1067.18813	0.08710
1065.90236	0.08845
1064.61659	0.08980
1063.33082	0.09118
1062.04505	0.09260
1060.75928	0.09405
1059.47351	0.09549
1058.18774	0.09687
1056.90198	0.09818
1055.61621	0.09940
1054.33044	0.10058
1053.04467	0.10177
1051.75890	0.10303
1050.47313	0.10438
1049.18736	0.10580
1047.90159	0.10725
1046.61583	0.10869
1045.33006	0.11010
1044.04429	0.11148
1042.75852	0.11289
1041.47275	0.11435
1040.18698	0.11584
1038.90121	0.11727
1037.61544	0.11863
1036.32967	0.11996
1035.04391	0.12124
1033.75814	0.12241
1032.47237	0.12343
1031.18660	0.12436
1029.90083	0.12521
1028.61506	0.12598
1027.32929	0.12661
1026.04352	0.12713
1024.75775	0.12752
1023.47199	0.12777
1022.18622	0.12787
1020.90045	0.12781
1019.61468	0.12760
1018.32891	0.12723
1017.04314	0.12669
1015.75737	0.12601
1014.47160	0.12519
1013.18584	0.12424
1011.90007	0.12313
1010.61430	0.12188
1009.32853	0.12048
1008.04276	0.11891
1006.75699	0.11716
1005.47122	0.11525
1004.18545	0.11318
1002.89968	0.11099
1001.61392	0.10872
1000.32815	0.10638
999.04238	0.10395
997.75661	0.10141
996.47084	0.09875
995.18507	0.09600
993.89930	0.09322
992.61353	0.09048
991.32777	0.08780
990.04200	0.08518
988.75623	0.08266
987.47046	0.08024
986.18469	0.07797
984.89892	0.07579
983.61315	0.07365
982.32738	0.07155
981.04161	0.06949
979.75585	0.06752
978.47008	0.06569
977.18431	0.06403
975.89854	0.06255
974.61277	0.06122
973.32700	0.06001
972.04123	0.05899
970.75546	0.05822
969.46970	0.05774
968.18393	0.05748
966.89816	0.05738
965.61239	0.05736
964.32662	0.05742
963.04085	0.05754
961.75508	0.05763
960.46931	0.05755
959.18354	0.05720
957.89778	0.05659
956.61201	0.05577
955.32624	0.05478
954.04047	0.05367
952.75470	0.05255
951.46893	0.05149
950.18316	0.05050
948.89739	0.04952
947.61163	0.04847
946.32586	0.04738
945.04009	0.04632
943.75432	0.04534
942.46855	0.04450
941.18278	0.04375
939.89701	0.04306
938.61124	0.04236
937.32547	0.04165
936.03971	0.04096
934.75394	0.04029
933.46817	0.03962
932.18240	0.03895
930.89663	0.03831
929.61086	0.03778
928.32509	0.03738
927.03932	0.03706
925.75356	0.03671
924.46779	0.03627
923.18202	0.03579
921.89625	0.03536
920.61048	0.03502
919.32471	0.03477
918.03894	0.03454
916.75317	0.03428
915.46740	0.03396
914.18164	0.03362
912.89587	0.03330
911.61010	0.03298
910.32433	0.03262
909.03856	0.03223
907.75279	0.03181
906.46702	0.03139
905.18125	0.03100
903.89549	0.03066
902.60972	0.03039
901.32395	0.03014
900.03818	0.02989
898.75241	0.02961
897.46664	0.02932
896.18087	0.02905
894.89510	0.02882
893.60933	0.02866
892.32357	0.02859
891.03780	0.02865
889.75203	0.02884
888.46626	0.02921
887.18049	0.02980
885.89472	0.03066
884.60895	0.03181
883.32318	0.03317
882.03742	0.03460
880.75165	0.03592
879.46588	0.03699
878.18011	0.03780
876.89434	0.03848
875.60857	0.03919
874.32280	0.03994
873.03703	0.04052
871.75126	0.04074
870.46550	0.04049
869.17973	0.03985
867.89396	0.03896
866.60819	0.03797
865.32242	0.03694
864.03665	0.03586
862.75088	0.03476
861.46511	0.03371
860.17935	0.03280
858.89358	0.03206
857.60781	0.03145
856.32204	0.03089
855.03627	0.03032
853.75050	0.02976
852.46473	0.02925
851.17896	0.02886
849.89319	0.02860
848.60743	0.02840
847.32166	0.02819
846.03589	0.02794
844.75012	0.02767
843.46435	0.02741
842.17858	0.02720
840.89281	0.02705
839.60704	0.02697
838.32128	0.02689
837.03551	0.02677
835.74974	0.02659
834.46397	0.02644
833.17820	0.02637
831.89243	0.02633
830.60666	0.02625
829.32089	0.02611
828.03512	0.02594
826.74936	0.02578
825.46359	0.02562
824.17782	0.02548
822.89205	0.02543
821.60628	0.02545
820.32051	0.02550
819.03474	0.02553
817.74897	0.02555
816.46321	0.02559
815.17744	0.02561
813.89167	0.02554
812.60590	0.02541
811.32013	0.02532
810.03436	0.02535
808.74859	0.02549
807.46282	0.02568
806.17705	0.02590
804.89129	0.02616
803.60552	0.02645
802.31975	0.02670
801.03398	0.02686
799.74821	0.02694
798.46244	0.02701
797.17667	0.02708
795.89090	0.02714
794.60513	0.02718
793.31937	0.02719
792.03360	0.02718
790.74783	0.02716
789.46206	0.02712
788.17629	0.02707
786.89052	0.02699
785.60475	0.02691
784.31898	0.02691
783.03322	0.02700
781.74745	0.02715
780.46168	0.02726
779.17591	0.02730
777.89014	0.02727
776.60437	0.02720
775.31860	0.02711
774.03283	0.02703
772.74706	0.02699
771.46130	0.02698
770.17553	0.02697
768.88976	0.02698
767.60399	0.02702
766.31822	0.02706
765.03245	0.02704
763.74668	0.02690
762.46091	0.02669
761.17515	0.02646
759.88938	0.02630
758.60361	0.02626
757.31784	0.02628
756.03207	0.02626
754.74630	0.02618
753.46053	0.02610
752.17476	0.02610
750.88899	0.02616
749.60323	0.02620
748.31746	0.02616
747.03169	0.02609
745.74592	0.02604
744.46015	0.02601
743.17438	0.02594
741.88861	0.02581
740.60284	0.02569
739.31708	0.02564
738.03131	0.02564
736.74554	0.02564
735.45977	0.02565
734.17400	0.02570
732.88823	0.02586
731.60246	0.02608
730.31669	0.02627
729.03092	0.02639
727.74516	0.02638
726.45939	0.02625
725.17362	0.02606
723.88785	0.02585
722.60208	0.02576
721.31631	0.02585
720.03054	0.02589
718.74477	0.02577
717.45901	0.02573
716.17324	0.02574
714.88747	0.02572
713.60170	0.02561
712.31593	0.02547
711.03016	0.02535
709.74439	0.02525
708.45862	0.02520
707.17285	0.02517
705.88709	0.02517
704.60132	0.02520
703.31555	0.02524
702.02978	0.02528
700.74401	0.02532
699.45824	0.02536
698.17247	0.02538
696.88670	0.02539
695.60094	0.02536
694.31517	0.02527
693.02940	0.02514
691.74363	0.02495
690.45786	0.02473
689.17209	0.02450
687.88632	0.02428
686.60055	0.02411
685.31478	0.02398
684.02902	0.02388
682.74325	0.02379
681.45748	0.02370
680.17171	0.02361
678.88594	0.02353
677.60017	0.02349
676.31440	0.02347
675.02863	0.02341
673.74287	0.02309
672.45710	0.02235
671.17133	0.02168
669.88556	0.02259
668.59979	0.02482
667.31402	0.02441
666.02825	0.02222
664.74248	0.02177
663.45671	0.02241
662.17095	0.02280
660.88518	0.02277
659.59941	0.02258
658.31364	0.02240
657.02787	0.02230
655.74210	0.02227
654.45633	0.02224
653.17056	0.02221
651.88480	0.02214
650.59903	0.02209
649.31326	0.02207
648.02749	0.02205
646.74172	0.02206
645.45595	0.02217
644.17018	0.02235
642.88441	0.02255
641.59864	0.02274
640.31288	0.02286
639.02711	0.02293
637.74134	0.02295
636.45557	0.02297
635.16980	0.02301
633.88403	0.02310
632.59826	0.02327
631.31249	0.02365
630.02673	0.02435
628.74096	0.02478
627.45519	0.02416
626.16942	0.02507
624.88365	0.02694
623.59788	0.02887
622.31211	0.03068
621.02634	0.03232
619.74057	0.03362
618.45481	0.03439
617.16904	0.03473
615.88327	0.03518
614.59750	0.03643
613.31173	0.03877
612.02596	0.04177
610.74019	0.04463
609.45442	0.04688
608.16866	0.04879
606.88289	0.05105
605.59712	0.05397
604.31135	0.05696
603.02558	0.05882
601.73981	0.05886
600.45404	0.05742
599.16827	0.05546
597.88250	0.05378
596.59674	0.05253
595.31097	0.05146
594.02520	0.05033
592.73943	0.04922
591.45366	0.04842
590.16789	0.04807
588.88212	0.04813
587.59635	0.04847
586.31059	0.04904
585.02482	0.04983
583.73905	0.05082
582.45328	0.05195
581.16751	0.05312
579.88174	0.05428
578.59597	0.05541
577.31020	0.05652
576.02443	0.05762
574.73867	0.05874
573.45290	0.05988
572.16713	0.06102
570.88136	0.06217
569.59559	0.06336
568.30982	0.06466
567.02405	0.06611
565.73828	0.06760
564.45251	0.06895
563.16675	0.06997
561.88098	0.07049
560.59521	0.07040
559.30944	0.06956
558.02367	0.06791
556.73790	0.06557
555.45213	0.06287
554.16636	0.06018
552.88060	0.05771
551.59483	0.05550
550.30906	0.05349
549.02329	0.05161
547.73752	0.04981
546.45175	0.04805
545.16598	0.04632
543.88021	0.04468
542.59444	0.04325
541.30868	0.04212
540.02291	0.04127
538.73714	0.04052
537.45137	0.03969
536.16560	0.03878
534.87983	0.03795
533.59406	0.03737
532.30829	0.03698
531.02253	0.03659
529.73676	0.03605
528.45099	0.03537
527.16522	0.03465
525.87945	0.03403
524.59368	0.03359
523.30791	0.03330
522.02214	0.03306
520.73637	0.03274
519.45061	0.03227
518.16484	0.03169
516.87907	0.03111
515.59330	0.03061
514.30753	0.03021
513.02176	0.02988
511.73599	0.02956
510.45022	0.02917
509.16446	0.02870
507.87869	0.02821
506.59292	0.02780
505.30715	0.02756
504.02138	0.02745
502.73561	0.02740
501.44984	0.02730
500.16407	0.02711
498.87830	0.02684
497.59254	0.02654
496.30677	0.02630
495.02100	0.02618
493.73523	0.02616
492.44946	0.02619
491.16369	0.02621
489.87792	0.02619
488.59215	0.02612
487.30639	0.02602
486.02062	0.02590
484.73485	0.02578
483.44908	0.02573
482.16331	0.02573
480.87754	0.02579
479.59177	0.02588
478.30600	0.02598
477.02023	0.02608
475.73447	0.02621
474.44870	0.02642
473.16293	0.02673
471.87716	0.02709
470.59139	0.02736
469.30562	0.02747
468.01985	0.02742
466.73408	0.02726
465.44832	0.02707
464.16255	0.02687
462.87678	0.02672
461.59101	0.02665
460.30524	0.02663
459.01947	0.02657
457.73370	0.02638
456.44793	0.02610
455.16216	0.02584
453.87640	0.02566
452.59063	0.02551
451.30486	0.02530
450.01909	0.02501
448.73332	0.02473
447.44755	0.02456
446.16178	0.02451
444.87601	0.02454
443.59025	0.02459
442.30448	0.02460
441.01871	0.02451
439.73294	0.02433
438.44717	0.02414
437.16140	0.02399
435.87563	0.02393
434.58986	0.02391
433.30409	0.02390
432.01833	0.02393
430.73256	0.02401
429.44679	0.02411
428.16102	0.02417
426.87525	0.02415
425.58948	0.02406
424.30371	0.02395
423.01794	0.02383
421.73218	0.02373
420.44641	0.02363
419.16064	0.02352
417.87487	0.02337
416.58910	0.02318
415.30333	0.02297
414.01756	0.02282
412.73179	0.02274
411.44602	0.02272
410.16026	0.02271
408.87449	0.02269
407.58872	0.02266
406.30295	0.02261
405.01718	0.02256
403.73141	0.02256
402.44564	0.02267
401.15987	0.02290
399.87411	0.02318
