3997.45528	0.03176
3996.16951	0.03190
3994.88374	0.03193
3993.59798	0.03181
3992.31221	0.03150
3991.02644	0.03106
3989.74067	0.03074
3988.45490	0.03082
3987.16913	0.03139
3985.88336	0.03225
3984.59759	0.03304
3983.31183	0.03348
3982.02606	0.03347
3980.74029	0.03316
3979.45452	0.03274
3978.16875	0.03237
3976.88298	0.03213
3975.59721	0.03202
3974.31144	0.03203
3973.02567	0.03214
3971.73991	0.03225
3970.45414	0.03231
3969.16837	0.03228
3967.88260	0.03223
3966.59683	0.03226
3965.31106	0.03254
3964.02529	0.03311
3962.73952	0.03378
3961.45376	0.03422
3960.16799	0.03421
3958.88222	0.03371
3957.59645	0.03296
3956.31068	0.03226
3955.02491	0.03179
3953.73914	0.03143
3952.45337	0.03108
3951.16760	0.03092
3949.88184	0.03119
3948.59607	0.03182
3947.31030	0.03245
3946.02453	0.03275
3944.73876	0.03269
3943.45299	0.03248
3942.16722	0.03228
3940.88145	0.03207
3939.59569	0.03171
3938.30992	0.03118
3937.02415	0.03071
3935.73838	0.03059
3934.45261	0.03095
3933.16684	0.03165
3931.88107	0.03233
3930.59530	0.03258
3929.30953	0.03230
3928.02377	0.03173
3926.73800	0.03119
3925.45223	0.03085
3924.16646	0.03069
3922.88069	0.03069
3921.59492	0.03087
3920.30915	0.03118
3919.02338	0.03146
3917.73762	0.03148
3916.45185	0.03116
3915.16608	0.03066
3913.88031	0.03025
3912.59454	0.03013
3911.30877	0.03024
3910.02300	0.03038
3908.73723	0.03039
3907.45146	0.03025
3906.16570	0.03003
3904.87993	0.02989
3903.59416	0.02996
3902.30839	0.03023
3901.02262	0.03065
3899.73685	0.03112
3898.45108	0.03156
3897.16531	0.03188
3895.87955	0.03196
3894.59378	0.03175
3893.30801	0.03119
3892.02224	0.03041
3890.73647	0.02984
3889.45070	0.02986
3888.16493	0.03033
3886.87916	0.03078
3885.59339	0.03088
3884.30763	0.03072
3883.02186	0.03055
3881.73609	0.03051
3880.45032	0.03051
3879.16455	0.03038
3877.87878	0.03009
3876.59301	0.02977
3875.30724	0.02963
3874.02148	0.02973
3872.73571	0.02997
3871.44994	0.03029
3870.16417	0.03074
3868.87840	0.03131
3867.59263	0.03172
3866.30686	0.03181
3865.02109	0.03182
3863.73532	0.03205
3862.44956	0.03244
3861.16379	0.03264
3859.87802	0.03231
3858.59225	0.03140
3857.30648	0.03027
3856.02071	0.02952
3854.73494	0.02954
3853.44917	0.03018
3852.16341	0.03075
3850.87764	0.03074
3849.59187	0.03024
3848.30610	0.02961
3847.02033	0.02904
3845.73456	0.02858
3844.44879	0.02846
3843.16302	0.02892
3841.87725	0.02977
3840.59149	0.03036
3839.30572	0.03027
3838.01995	0.02972
3836.73418	0.02924
3835.44841	0.02902
3834.16264	0.02889
3832.87687	0.02879
3831.59110	0.02884
3830.30534	0.02904
3829.01957	0.02924
3827.73380	0.02941
3826.44803	0.02970
3825.16226	0.03013
3823.87649	0.03039
3822.59072	0.03028
3821.30495	0.02998
3820.01918	0.02974
3818.73342	0.02956
3817.44765	0.02938
3816.16188	0.02930
3814.87611	0.02938
3813.59034	0.02936
3812.30457	0.02908
3811.01880	0.02865
3809.73303	0.02825
3808.44726	0.02792
3807.16150	0.02769
3805.87573	0.02758
3804.58996	0.02770
3803.30419	0.02831
3802.01842	0.02952
3800.73265	0.03092
3799.44688	0.03166
3798.16111	0.03135
3796.87535	0.03043
3795.58958	0.02963
3794.30381	0.02936
3793.01804	0.02969
3791.73227	0.03034
3790.44650	0.03079
3789.16073	0.03061
3787.87496	0.02986
3786.58919	0.02902
3785.30343	0.02846
3784.01766	0.02817
3782.73189	0.02797
3781.44612	0.02782
3780.16035	0.02779
3778.87458	0.02791
3777.58881	0.02809
3776.30304	0.02832
3775.01728	0.02868
3773.73151	0.02912
3772.44574	0.02940
3771.15997	0.02933
3769.87420	0.02897
3768.58843	0.02847
3767.30266	0.02801
3766.01689	0.02772
3764.73112	0.02763
3763.44536	0.02764
3762.15959	0.02775
3760.87382	0.02812
3759.58805	0.02879
3758.30228	0.02940
3757.01651	0.02947
3755.73074	0.02896
3754.44497	0.02842
3753.15921	0.02853
3751.87344	0.02942
3750.58767	0.03045
3749.30190	0.03091
3748.01613	0.03062
3746.73036	0.02994
3745.44459	0.02942
3744.15882	0.02931
3742.87305	0.02914
3741.58729	0.02834
3740.30152	0.02718
3739.01575	0.02662
3737.72998	0.02721
3736.44421	0.02856
3735.15844	0.02978
3733.87267	0.03009
3732.58690	0.02947
3731.30114	0.02853
3730.01537	0.02781
3728.72960	0.02739
3727.44383	0.02707
3726.15806	0.02675
3724.87229	0.02645
3723.58652	0.02627
3722.30075	0.02637
3721.01498	0.02684
3719.72922	0.02757
3718.44345	0.02829
3717.15768	0.02870
3715.87191	0.02868
3714.58614	0.02833
3713.30037	0.02795
3712.01460	0.02776
3710.72883	0.02773
3709.44307	0.02763
3708.15730	0.02736
3706.87153	0.02704
3705.58576	0.02688
3704.29999	0.02699
3703.01422	0.02725
3701.72845	0.02745
3700.44268	0.02742
3699.15691	0.02715
3697.87115	0.02676
3696.58538	0.02642
3695.29961	0.02613
3694.01384	0.02577
3692.72807	0.02534
3691.44230	0.02499
3690.15653	0.02487
3688.87076	0.02509
3687.58500	0.02568
3686.29923	0.02652
3685.01346	0.02737
3683.72769	0.02785
3682.44192	0.02772
3681.15615	0.02711
3679.87038	0.02650
3678.58461	0.02621
3677.29884	0.02618
3676.01308	0.02632
3674.72731	0.02670
3673.44154	0.02726
3672.15577	0.02772
3670.87000	0.02793
3669.58423	0.02799
3668.29846	0.02798
3667.01269	0.02794
3665.72693	0.02798
3664.44116	0.02808
3663.15539	0.02811
3661.86962	0.02793
3660.58385	0.02753
3659.29808	0.02698
3658.01231	0.02639
3656.72654	0.02598
3655.44077	0.02593
3654.15501	0.02625
3652.86924	0.02683
3651.58347	0.02756
3650.29770	0.02837
3649.01193	0.02913
3647.72616	0.02966
3646.44039	0.02991
3645.15462	0.02998
3643.86886	0.03003
3642.58309	0.03018
3641.29732	0.03046
3640.01155	0.03074
3638.72578	0.03083
3637.44001	0.03055
3636.15424	0.02994
3634.86847	0.02929
3633.58270	0.02901
3632.29694	0.02927
3631.01117	0.02998
3629.72540	0.03085
3628.43963	0.03150
3627.15386	0.03168
3625.86809	0.03149
3624.58232	0.03133
3623.29655	0.03139
3622.01079	0.03142
3620.72502	0.03122
3619.43925	0.03094
3618.15348	0.03080
3616.86771	0.03080
3615.58194	0.03088
3614.29617	0.03110
3613.01040	0.03147
3611.72463	0.03191
3610.43887	0.03225
3609.15310	0.03243
3607.86733	0.03245
3606.58156	0.03222
3605.29579	0.03171
3604.01002	0.03103
3602.72425	0.03052
3601.43848	0.03049
3600.15272	0.03100
3598.86695	0.03174
3597.58118	0.03232
3596.29541	0.03261
3595.00964	0.03276
3593.72387	0.03299
3592.43810	0.03340
3591.15233	0.03395
3589.86656	0.03453
3588.58080	0.03504
3587.29503	0.03527
3586.00926	0.03496
3584.72349	0.03420
3583.43772	0.03361
3582.15195	0.03386
3580.86618	0.03506
3579.58041	0.03656
3578.29464	0.03758
3577.00888	0.03787
3575.72311	0.03782
3574.43734	0.03791
3573.15157	0.03821
3571.86580	0.03836
3570.58003	0.03814
3569.29426	0.03779
3568.00849	0.03774
3566.72273	0.03816
3565.43696	0.03879
3564.15119	0.03926
3562.86542	0.03932
3561.57965	0.03897
3560.29388	0.03837
3559.00811	0.03780
3557.72234	0.03748
3556.43657	0.03742
3555.15081	0.03747
3553.86504	0.03758
3552.57927	0.03780
3551.29350	0.03815
3550.00773	0.03852
3548.72196	0.03876
3547.43619	0.03879
3546.15042	0.03865
3544.86466	0.03852
3543.57889	0.03862
3542.29312	0.03914
3541.00735	0.04006
3539.72158	0.04102
3538.43581	0.04167
3537.15004	0.04189
3535.86427	0.04182
3534.57850	0.04155
3533.29274	0.04106
3532.00697	0.04045
3530.72120	0.04010
3529.43543	0.04037
3528.14966	0.04116
3526.86389	0.04197
3525.57812	0.04239
3524.29235	0.04240
3523.00659	0.04221
3521.72082	0.04200
3520.43505	0.04195
3519.14928	0.04218
3517.86351	0.04254
3516.57774	0.04275
3515.29197	0.04268
3514.00620	0.04258
3512.72043	0.04281
3511.43467	0.04331
3510.14890	0.04374
3508.86313	0.04382
3507.57736	0.04369
3506.29159	0.04366
3505.00582	0.04391
3503.72005	0.04432
3502.43428	0.04465
3501.14852	0.04471
3499.86275	0.04452
3498.57698	0.04429
3497.29121	0.04423
3496.00544	0.04428
3494.71967	0.04424
3493.43390	0.04409
3492.14813	0.04401
3490.86236	0.04411
3489.57660	0.04425
3488.29083	0.04433
3487.00506	0.04444
3485.71929	0.04472
3484.43352	0.04516
3483.14775	0.04556
3481.86198	0.04577
3480.57621	0.04581
3479.29045	0.04577
3478.00468	0.04569
3476.71891	0.04557
3475.43314	0.04544
3474.14737	0.04538
3472.86160	0.04542
3471.57583	0.04557
3470.29006	0.04583
3469.00429	0.04618
3467.71853	0.04650
3466.43276	0.04665
3465.14699	0.04660
3463.86122	0.04649
3462.57545	0.04643
3461.28968	0.04644
3460.00391	0.04646
3458.71814	0.04656
3457.43238	0.04682
3456.14661	0.04727
3454.86084	0.04773
3453.57507	0.04791
3452.28930	0.04766
3451.00353	0.04715
3449.71776	0.04681
3448.43199	0.04687
3447.14622	0.04722
3445.86046	0.04748
3444.57469	0.04744
3443.28892	0.04718
3442.00315	0.04692
3440.71738	0.04677
3439.43161	0.04673
3438.14584	0.04683
3436.86007	0.04713
3435.57431	0.04755
3434.28854	0.04789
3433.00277	0.04804
3431.71700	0.04813
3430.43123	0.04841
3429.14546	0.04895
3427.85969	0.04954
3426.57392	0.04985
3425.28815	0.04983
3424.00239	0.04969
3422.71662	0.04969
3421.43085	0.04985
3420.14508	0.05002
3418.85931	0.05013
3417.57354	0.05009
3416.28777	0.04979
3415.00200	0.04922
3413.71624	0.04863
3412.43047	0.04840
3411.14470	0.04864
3409.85893	0.04915
3408.57316	0.04966
3407.28739	0.05011
3406.00162	0.05049
3404.71585	0.05068
3403.43008	0.05059
3402.14432	0.05026
3400.85855	0.04994
3399.57278	0.04994
3398.28701	0.05033
3397.00124	0.05091
3395.71547	0.05149
3394.42970	0.05187
3393.14393	0.05198
3391.85817	0.05193
3390.57240	0.05189
3389.28663	0.05199
3388.00086	0.05223
3386.71509	0.05258
3385.42932	0.05297
3384.14355	0.05331
3382.85778	0.05349
3381.57201	0.05340
3380.28625	0.05301
3379.00048	0.05247
3377.71471	0.05196
3376.42894	0.05162
3375.14317	0.05156
3373.85740	0.05181
3372.57163	0.05220
3371.28586	0.05249
3370.00010	0.05250
3368.71433	0.05225
3367.42856	0.05193
3366.14279	0.05174
3364.85702	0.05179
3363.57125	0.05200
3362.28548	0.05219
3360.99971	0.05226
3359.71394	0.05225
3358.42818	0.05226
3357.14241	0.05230
3355.85664	0.05232
3354.57087	0.05230
3353.28510	0.05227
3351.99933	0.05227
3350.71356	0.05229
3349.42779	0.05237
3348.14202	0.05252
3346.85626	0.05271
3345.57049	0.05285
3344.28472	0.05287
3342.99895	0.05287
3341.71318	0.05292
3340.42741	0.05298
3339.14164	0.05294
3337.85587	0.05280
3336.57011	0.05269
3335.28434	0.05273
3333.99857	0.05290
3332.71280	0.05311
3331.42703	0.05328
3330.14126	0.05334
3328.85549	0.05321
3327.56972	0.05283
3326.28395	0.05240
3324.99819	0.05220
3323.71242	0.05242
3322.42665	0.05290
3321.14088	0.05328
3319.85511	0.05328
3318.56934	0.05292
3317.28357	0.05244
3315.99780	0.05215
3314.71204	0.05221
3313.42627	0.05259
3312.14050	0.05307
3310.85473	0.05342
3309.56896	0.05358
3308.28319	0.05370
3306.99742	0.05396
3305.71165	0.05436
3304.42588	0.05459
3303.14012	0.05440
3301.85435	0.05383
3300.56858	0.05319
3299.28281	0.05278
3297.99704	0.05266
3296.71127	0.05274
3295.42550	0.05299
3294.13973	0.05348
3292.85397	0.05415
3291.56820	0.05476
3290.28243	0.05500
3288.99666	0.05475
3287.71089	0.05422
3286.42512	0.05374
3285.13935	0.05343
3283.85358	0.05319
3282.56781	0.05294
3281.28205	0.05278
3279.99628	0.05293
3278.71051	0.05340
3277.42474	0.05393
3276.13897	0.05423
3274.85320	0.05425
3273.56743	0.05409
3272.28166	0.05388
3270.99590	0.05366
3269.71013	0.05343
3268.42436	0.05318
3267.13859	0.05284
3265.85282	0.05238
3264.56705	0.05188
3263.28128	0.05154
3261.99551	0.05147
3260.70974	0.05160
3259.42398	0.05184
3258.13821	0.05205
3256.85244	0.05211
3255.56667	0.05193
3254.28090	0.05161
3252.99513	0.05142
3251.70936	0.05149
3250.42359	0.05163
3249.13783	0.05157
3247.85206	0.05129
3246.56629	0.05100
3245.28052	0.05094
3243.99475	0.05112
3242.70898	0.05142
3241.42321	0.05172
3240.13744	0.05186
3238.85167	0.05174
3237.56591	0.05144
3236.28014	0.05117
3234.99437	0.05103
3233.70860	0.05086
3232.42283	0.05045
3231.13706	0.04982
3229.85129	0.04924
3228.56552	0.04897
3227.27976	0.04911
3225.99399	0.04958
3224.70822	0.05019
3223.42245	0.05067
3222.13668	0.05081
3220.85091	0.05058
3219.56514	0.05026
3218.27937	0.05012
3216.99360	0.05026
3215.70784	0.05047
3214.42207	0.05050
3213.13630	0.05029
3211.85053	0.04997
3210.56476	0.04974
3209.27899	0.04967
3207.99322	0.04969
3206.70745	0.04974
3205.42169	0.04978
3204.13592	0.04980
3202.85015	0.04973
3201.56438	0.04955
3200.27861	0.04933
3198.99284	0.04924
3197.70707	0.04930
3196.42130	0.04937
3195.13553	0.04928
3193.84977	0.04910
3192.56400	0.04904
3191.27823	0.04920
3189.99246	0.04938
3188.70669	0.04930
3187.42092	0.04894
3186.13515	0.04848
3184.84938	0.04808
3183.56362	0.04782
3182.27785	0.04771
3180.99208	0.04772
3179.70631	0.04773
3178.42054	0.04766
3177.13477	0.04759
3175.84900	0.04764
3174.56323	0.04775
3173.27746	0.04776
3171.99170	0.04762
3170.70593	0.04752
3169.42016	0.04772
3168.13439	0.04827
3166.84862	0.04891
3165.56285	0.04925
3164.27708	0.04904
3162.99131	0.04834
3161.70555	0.04753
3160.41978	0.04702
3159.13401	0.04699
3157.84824	0.04725
3156.56247	0.04741
3155.27670	0.04732
3153.99093	0.04706
3152.70516	0.04681
3151.41939	0.04658
3150.13363	0.04638
3148.84786	0.04628
3147.56209	0.04633
3146.27632	0.04643
3144.99055	0.04641
3143.70478	0.04630
3142.41901	0.04626
3141.13324	0.04636
3139.84748	0.04651
3138.56171	0.04661
3137.27594	0.04664
3135.99017	0.04669
3134.70440	0.04681
3133.41863	0.04690
3132.13286	0.04686
3130.84709	0.04659
3129.56132	0.04614
3128.27556	0.04561
3126.98979	0.04510
3125.70402	0.04474
3124.41825	0.04461
3123.13248	0.04465
3121.84671	0.04470
3120.56094	0.04462
3119.27517	0.04445
3117.98940	0.04435
3116.70364	0.04436
3115.41787	0.04444
3114.13210	0.04454
3112.84633	0.04467
3111.56056	0.04485
3110.27479	0.04502
3108.98902	0.04501
3107.70325	0.04473
3106.41749	0.04423
3105.13172	0.04377
3103.84595	0.04363
3102.56018	0.04392
3101.27441	0.04447
3099.98864	0.04495
3098.70287	0.04505
3097.41710	0.04478
3096.13133	0.04436
3094.84557	0.04411
3093.55980	0.04414
3092.27403	0.04440
3090.98826	0.04473
3089.70249	0.04497
3088.41672	0.04511
3087.13095	0.04523
3085.84518	0.04539
3084.55942	0.04547
3083.27365	0.04524
3081.98788	0.04465
3080.70211	0.04394
3079.41634	0.04346
3078.13057	0.04337
3076.84480	0.04352
3075.55903	0.04363
3074.27326	0.04356
3072.98750	0.04339
3071.70173	0.04332
3070.41596	0.04348
3069.13019	0.04384
3067.84442	0.04424
3066.55865	0.04442
3065.27288	0.04421
3063.98711	0.04368
3062.70135	0.04314
3061.41558	0.04287
3060.12981	0.04287
3058.84404	0.04296
3057.55827	0.04299
3056.27250	0.04289
3054.98673	0.04271
3053.70096	0.04254
3052.41519	0.04247
3051.12943	0.04246
3049.84366	0.04239
3048.55789	0.04212
3047.27212	0.04175
3045.98635	0.04152
3044.70058	0.04160
3043.41481	0.04187
3042.12904	0.04209
3040.84328	0.04213
3039.55751	0.04208
3038.27174	0.04208
3036.98597	0.04219
3035.70020	0.04233
3034.41443	0.04243
3033.12866	0.04242
3031.84289	0.04232
3030.55712	0.04216
3029.27136	0.04194
3027.98559	0.04168
3026.69982	0.04142
3025.41405	0.04121
3024.12828	0.04108
3022.84251	0.04103
3021.55674	0.04105
3020.27097	0.04111
3018.98521	0.04120
3017.69944	0.04130
3016.41367	0.04135
3015.12790	0.04127
3013.84213	0.04103
3012.55636	0.04066
3011.27059	0.04031
3009.98482	0.04015
3008.69905	0.04018
3007.41329	0.04026
3006.12752	0.04029
3004.84175	0.04030
3003.55598	0.04041
3002.27021	0.04063
3000.98444	0.04085
2999.69867	0.04098
2998.41290	0.04078
2997.12714	0.04044
2995.84137	0.04017
2994.55560	0.04013
2993.26983	0.04030
2991.98406	0.04050
2990.69829	0.04060
2989.41252	0.04055
2988.12675	0.04044
2986.84098	0.04035
2985.55522	0.04032
2984.26945	0.04023
2982.98368	0.03998
2981.69791	0.03967
2980.41214	0.03962
2979.12637	0.03999
2977.84060	0.04058
2976.55483	0.04109
2975.26907	0.04137
2973.98330	0.04146
2972.69753	0.04150
2971.41176	0.04159
2970.12599	0.04175
2968.84022	0.04191
2967.55445	0.04199
2966.26868	0.04204
2964.98291	0.04212
2963.69715	0.04217
2962.41138	0.04207
2961.12561	0.04190
2959.83984	0.04196
2958.55407	0.04241
2957.26830	0.04306
2955.98253	0.04353
2954.69676	0.04367
2953.41100	0.04360
2952.12523	0.04355
2950.83946	0.04359
2949.55369	0.04367
2948.26792	0.04374
2946.98215	0.04381
2945.69638	0.04389
2944.41061	0.04390
2943.12484	0.04378
2941.83908	0.04355
2940.55331	0.04328
2939.26754	0.04302
2937.98177	0.04286
2936.69600	0.04286
2935.41023	0.04302
2934.12446	0.04319
2932.83869	0.04323
2931.55293	0.04315
2930.26716	0.04306
2928.98139	0.04303
2927.69562	0.04301
2926.40985	0.04292
2925.12408	0.04273
2923.83831	0.04257
2922.55254	0.04260
2921.26677	0.04286
2919.98101	0.04313
2918.69524	0.04317
2917.40947	0.04293
2916.12370	0.04257
2914.83793	0.04228
2913.55216	0.04215
2912.26639	0.04216
2910.98062	0.04216
2909.69486	0.04204
2908.40909	0.04175
2907.12332	0.04139
2905.83755	0.04111
2904.55178	0.04102
2903.26601	0.04108
2901.98024	0.04118
2900.69447	0.04121
2899.40870	0.04112
2898.12294	0.04094
2896.83717	0.04073
2895.55140	0.04051
2894.26563	0.04032
2892.97986	0.04016
2891.69409	0.03999
2890.40832	0.03979
2889.12255	0.03954
2887.83678	0.03924
2886.55102	0.03889
2885.26525	0.03857
2883.97948	0.03833
2882.69371	0.03817
2881.40794	0.03806
2880.12217	0.03799
2878.83640	0.03807
2877.55063	0.03833
2876.26487	0.03867
2874.97910	0.03893
2873.69333	0.03903
2872.40756	0.03904
2871.12179	0.03911
2869.83602	0.03923
2868.55025	0.03921
2867.26448	0.03889
2865.97871	0.03838
2864.69295	0.03797
2863.40718	0.03785
2862.12141	0.03791
2860.83564	0.03795
2859.54987	0.03784
2858.26410	0.03766
2856.97833	0.03749
2855.69256	0.03741
2854.40680	0.03748
2853.12103	0.03771
2851.83526	0.03799
2850.54949	0.03815
2849.26372	0.03811
2847.97795	0.03793
2846.69218	0.03774
2845.40641	0.03762
2844.12064	0.03752
2842.83488	0.03734
2841.54911	0.03700
2840.26334	0.03653
2838.97757	0.03607
2837.69180	0.03581
2836.40603	0.03578
2835.12026	0.03587
2833.83449	0.03585
2832.54873	0.03557
2831.26296	0.03507
2829.97719	0.03454
2828.69142	0.03420
2827.40565	0.03415
2826.11988	0.03432
2824.83411	0.03452
2823.54834	0.03457
2822.26257	0.03444
2820.97681	0.03420
2819.69104	0.03396
2818.40527	0.03377
2817.11950	0.03367
2815.83373	0.03365
2814.54796	0.03361
2813.26219	0.03353
2811.97642	0.03343
2810.69066	0.03334
2809.40489	0.03331
2808.11912	0.03330
2806.83335	0.03331
2805.54758	0.03331
2804.26181	0.03328
2802.97604	0.03321
2801.69027	0.03309
2800.40450	0.03295
2799.11874	0.03282
2797.83297	0.03271
2796.54720	0.03262
2795.26143	0.03256
2793.97566	0.03252
2792.68989	0.03252
2791.40412	0.03255
2790.11835	0.03255
2788.83259	0.03245
2787.54682	0.03224
2786.26105	0.03206
2784.97528	0.03202
2783.68951	0.03209
2782.40374	0.03213
2781.11797	0.03204
2779.83220	0.03185
2778.54643	0.03168
2777.26067	0.03164
2775.97490	0.03169
2774.68913	0.03175
2773.40336	0.03176
2772.11759	0.03178
2770.83182	0.03181
2769.54605	0.03183
2768.26028	0.03180
2766.97452	0.03173
2765.68875	0.03167
2764.40298	0.03170
2763.11721	0.03181
2761.83144	0.03194
2760.54567	0.03194
2759.25990	0.03172
2757.97413	0.03134
2756.68836	0.03091
2755.40260	0.03058
2754.11683	0.03044
2752.83106	0.03051
2751.54529	0.03068
2750.25952	0.03081
2748.97375	0.03084
2747.68798	0.03079
2746.40221	0.03070
2745.11645	0.03064
2743.83068	0.03068
2742.54491	0.03083
2741.25914	0.03106
2739.97337	0.03130
2738.68760	0.03145
2737.40183	0.03143
2736.11606	0.03119
2734.83029	0.03081
2733.54453	0.03049
2732.25876	0.03037
2730.97299	0.03048
2729.68722	0.03068
2728.40145	0.03081
2727.11568	0.03073
2725.82991	0.03039
2724.54414	0.02995
2723.25838	0.02964
2721.97261	0.02959
2720.68684	0.02971
2719.40107	0.02983
2718.11530	0.02991
2716.82953	0.02997
2715.54376	0.02998
2714.25799	0.02990
2712.97222	0.02972
2711.68646	0.02953
2710.40069	0.02940
2709.11492	0.02935
2707.82915	0.02931
2706.54338	0.02924
2705.25761	0.02916
2703.97184	0.02912
2702.68607	0.02916
2701.40031	0.02929
2700.11454	0.02958
2698.82877	0.02999
2697.54300	0.03035
2696.25723	0.03041
2694.97146	0.03011
2693.68569	0.02967
2692.39992	0.02938
2691.11415	0.02929
2689.82839	0.02927
2688.54262	0.02912
2687.25685	0.02889
2685.97108	0.02876
2684.68531	0.02885
2683.39954	0.02907
2682.11377	0.02922
2680.82800	0.02922
2679.54224	0.02910
2678.25647	0.02897
2676.97070	0.02886
2675.68493	0.02874
2674.39916	0.02854
2673.11339	0.02831
2671.82762	0.02813
2670.54185	0.02806
2669.25608	0.02808
2667.97032	0.02814
2666.68455	0.02818
2665.39878	0.02816
2664.11301	0.02805
2662.82724	0.02783
2661.54147	0.02756
2660.25570	0.02729
2658.96993	0.02710
2657.68417	0.02705
2656.39840	0.02714
2655.11263	0.02731
2653.82686	0.02745
2652.54109	0.02749
2651.25532	0.02745
2649.96955	0.02739
2648.68378	0.02734
2647.39801	0.02733
2646.11225	0.02734
2644.82648	0.02733
2643.54071	0.02719
2642.25494	0.02692
2640.96917	0.02663
2639.68340	0.02644
2638.39763	0.02637
2637.11186	0.02629
2635.82609	0.02613
2634.54033	0.02587
2633.25456	0.02558
2631.96879	0.02533
2630.68302	0.02513
2629.39725	0.02498
2628.11148	0.02497
2626.82571	0.02519
2625.53994	0.02556
2624.25418	0.02585
2622.96841	0.02587
2621.68264	0.02561
2620.39687	0.02524
2619.11110	0.02492
2617.82533	0.02473
2616.53956	0.02469
2615.25379	0.02472
2613.96802	0.02472
2612.68226	0.02462
2611.39649	0.02445
2610.11072	0.02428
2608.82495	0.02414
2607.53918	0.02406
2606.25341	0.02407
2604.96764	0.02417
2603.68187	0.02429
2602.39611	0.02427
2601.11034	0.02403
2599.82457	0.02363
2598.53880	0.02329
2597.25303	0.02321
2595.96726	0.02341
2594.68149	0.02373
2593.39572	0.02393
2592.10995	0.02382
2590.82419	0.02340
2589.53842	0.02287
2588.25265	0.02255
2586.96688	0.02263
2585.68111	0.02309
2584.39534	0.02374
2583.10957	0.02435
2581.82380	0.02470
2580.53804	0.02467
2579.25227	0.02440
2577.96650	0.02413
2576.68073	0.02402
2575.39496	0.02402
2574.10919	0.02394
2572.82342	0.02369
2571.53765	0.02325
2570.25188	0.02269
2568.96612	0.02216
2567.68035	0.02186
2566.39458	0.02189
2565.10881	0.02218
2563.82304	0.02257
2562.53727	0.02287
2561.25150	0.02297
2559.96573	0.02296
2558.67997	0.02300
2557.39420	0.02323
2556.10843	0.02352
2554.82266	0.02361
2553.53689	0.02336
2552.25112	0.02295
2550.96535	0.02266
2549.67958	0.02264
2548.39381	0.02279
2547.10805	0.02295
2545.82228	0.02302
2544.53651	0.02294
2543.25074	0.02277
2541.96497	0.02266
2540.67920	0.02273
2539.39343	0.02284
2538.10766	0.02275
2536.82190	0.02249
2535.53613	0.02227
2534.25036	0.02218
2532.96459	0.02212
2531.67882	0.02200
2530.39305	0.02183
2529.10728	0.02164
2527.82151	0.02147
2526.53574	0.02135
2525.24998	0.02135
2523.96421	0.02147
2522.67844	0.02169
2521.39267	0.02187
2520.10690	0.02191
2518.82113	0.02175
2517.53536	0.02142
2516.24959	0.02100
2514.96383	0.02060
2513.67806	0.02042
2512.39229	0.02049
2511.10652	0.02067
2509.82075	0.02073
2508.53498	0.02067
2507.24921	0.02063
2505.96344	0.02078
2504.67767	0.02111
2503.39191	0.02149
2502.10614	0.02178
2500.82037	0.02190
2499.53460	0.02185
2498.24883	0.02170
2496.96306	0.02149
2495.67729	0.02120
2494.39152	0.02085
2493.10576	0.02055
2491.81999	0.02036
2490.53422	0.02033
2489.24845	0.02044
2487.96268	0.02063
2486.67691	0.02084
2485.39114	0.02101
2484.10537	0.02113
2482.81960	0.02124
2481.53384	0.02133
2480.24807	0.02132
2478.96230	0.02112
2477.67653	0.02079
2476.39076	0.02053
2475.10499	0.02048
2473.81922	0.02064
2472.53345	0.02085
2471.24769	0.02087
2469.96192	0.02063
2468.67615	0.02028
2467.39038	0.02003
2466.10461	0.01994
2464.81884	0.01999
2463.53307	0.02019
2462.24730	0.02058
2460.96153	0.02107
2459.67577	0.02146
2458.39000	0.02155
2457.10423	0.02130
2455.81846	0.02093
2454.53269	0.02068
2453.24692	0.02061
2451.96115	0.02061
2450.67538	0.02059
2449.38962	0.02059
2448.10385	0.02061
2446.81808	0.02055
2445.53231	0.02043
2444.24654	0.02033
2442.96077	0.02028
2441.67500	0.02020
2440.38923	0.02007
2439.10346	0.01998
2437.81770	0.02001
2436.53193	0.02021
2435.24616	0.02055
2433.96039	0.02096
2432.67462	0.02125
2431.38885	0.02126
2430.10308	0.02099
2428.81731	0.02064
2427.53155	0.02038
2426.24578	0.02025
2424.96001	0.02017
2423.67424	0.01998
2422.38847	0.01962
2421.10270	0.01919
2419.81693	0.01900
2418.53116	0.01929
2417.24539	0.01995
2415.95963	0.02058
2414.67386	0.02080
2413.38809	0.02062
2412.10232	0.02029
2410.81655	0.02006
2409.53078	0.01997
2408.24501	0.01989
2406.95924	0.01974
2405.67347	0.01958
2404.38771	0.01952
2403.10194	0.01953
2401.81617	0.01945
2400.53040	0.01918
2399.24463	0.01870
2397.95886	0.01867
2396.67309	0.01885
2395.38732	0.01910
2394.10156	0.01934
2392.81579	0.01948
2391.53002	0.01951
2390.24425	0.01949
2388.95848	0.01952
2387.67271	0.01965
2386.38694	0.01983
2385.10117	0.01999
2383.81540	0.02010
2382.52964	0.02017
2381.24387	0.02019
2379.95810	0.02013
2378.67233	0.02001
2377.38656	0.01986
2376.10079	0.01973
2374.81502	0.01966
2373.52925	0.01968
2372.24349	0.01977
2370.95772	0.01987
2369.67195	0.01995
2368.38618	0.02003
2367.10041	0.02015
2365.81464	0.02031
2364.52887	0.02044
2363.24310	0.02052
2361.95733	0.02060
2360.67157	0.02068
2359.38580	0.02070
2358.10003	0.02067
2356.81426	0.02060
2355.52849	0.02050
2354.24272	0.02035
2352.95695	0.02014
2351.67118	0.01993
2350.38542	0.01979
2349.09965	0.01970
2347.81388	0.01965
2346.52811	0.01972
2345.24234	0.01985
2343.95657	0.01994
2342.67080	0.01993
2341.38503	0.01997
2340.09926	0.02010
2338.81350	0.02015
2337.52773	0.02012
2336.24196	0.02022
2334.95619	0.02036
2333.67042	0.02025
2332.38465	0.01997
2331.09888	0.01981
2329.81311	0.01957
2328.52735	0.01909
2327.24158	0.01889
2325.95581	0.01895
2324.67004	0.01889
2323.38427	0.01884
2322.09850	0.01881
2320.81273	0.01860
2319.52696	0.01856
2318.24119	0.01872
2316.95543	0.01887
2315.66966	0.01909
2314.38389	0.01926
2313.09812	0.01928
2311.81235	0.01933
2310.52658	0.01936
2309.24081	0.01936
2307.95504	0.01925
2306.66928	0.01886
2305.38351	0.01826
2304.09774	0.01766
2302.81197	0.01731
2301.52620	0.01734
2300.24043	0.01767
2298.95466	0.01812
2297.66889	0.01848
2296.38312	0.01856
2295.09736	0.01829
2293.81159	0.01776
2292.52582	0.01721
2291.24005	0.01688
2289.95428	0.01689
2288.66851	0.01720
2287.38274	0.01765
2286.09697	0.01800
2284.81121	0.01799
2283.52544	0.01750
2282.23967	0.01667
2280.95390	0.01582
2279.66813	0.01528
2278.38236	0.01514
2277.09659	0.01529
2275.81082	0.01549
2274.52505	0.01555
2273.23929	0.01540
2271.95352	0.01511
2270.66775	0.01486
2269.38198	0.01483
2268.09621	0.01509
2266.81044	0.01560
2265.52467	0.01622
2264.23890	0.01672
2262.95314	0.01688
2261.66737	0.01657
2260.38160	0.01587
2259.09583	0.01510
2257.81006	0.01460
2256.52429	0.01445
2255.23852	0.01444
2253.95275	0.01433
2252.66698	0.01414
2251.38122	0.01414
2250.09545	0.01438
2248.80968	0.01449
2247.52391	0.01474
2246.23814	0.01495
2244.95237	0.01517
2243.66660	0.01518
2242.38083	0.01468
2241.09507	0.01367
2239.80930	0.01278
2238.52353	0.01273
2237.23776	0.01371
2235.95199	0.01509
2234.66622	0.01599
2233.38045	0.01587
2232.09468	0.01479
2230.80891	0.01331
2229.52315	0.01220
2228.23738	0.01193
2226.95161	0.01237
2225.66584	0.01293
2224.38007	0.01314
2223.09430	0.01298
2221.80853	0.01273
2220.52276	0.01269
2219.23700	0.01292
2217.95123	0.01324
2216.66546	0.01345
2215.37969	0.01349
2214.09392	0.01339
2212.80815	0.01325
2211.52238	0.01316
2210.23661	0.01299
2208.95084	0.01246
2207.66508	0.01160
2206.37931	0.01079
2205.09354	0.01037
2203.80777	0.01024
2202.52200	0.01017
2201.23623	0.01030
2199.95046	0.01085
2198.66469	0.01160
2197.37893	0.01199
2196.09316	0.01188
2194.80739	0.01159
2193.52162	0.01131
2192.23585	0.01092
2190.95008	0.01032
2189.66431	0.00980
2188.37854	0.00968
2187.09277	0.00986
2185.80701	0.00998
2184.52124	0.00978
2183.23547	0.00919
2181.94970	0.00836
2180.66393	0.00764
2179.37816	0.00741
2178.09239	0.00762
2176.80662	0.00774
2175.52085	0.00735
2174.23509	0.00655
2172.94932	0.00575
2171.66355	0.00515
2170.37778	0.00481
2169.09201	0.00486
2167.80624	0.00550
2166.52047	0.00658
2165.23470	0.00756
2163.94894	0.00782
2162.66317	0.00706
2161.37740	0.00550
2160.09163	0.00385
2158.80586	0.00299
2157.52009	0.00335
2156.23432	0.00474
2154.94855	0.00659
2153.66278	0.00823
2152.37702	0.00899
2151.09125	0.00856
2149.80548	0.00737
2148.51971	0.00630
2147.23394	0.00596
2145.94817	0.00622
2144.66240	0.00662
2143.37663	0.00698
2142.09087	0.00741
2140.80510	0.00796
2139.51933	0.00854
2138.23356	0.00918
2136.94779	0.00995
2135.66202	0.01069
2134.37625	0.01095
2133.09048	0.01052
2131.80471	0.00968
2130.51895	0.00908
2129.23318	0.00909
2127.94741	0.00966
2126.66164	0.01045
2125.37587	0.01117
2124.09010	0.01163
2122.80433	0.01172
2121.51856	0.01150
2120.23280	0.01116
2118.94703	0.01102
2117.66126	0.01124
2116.37549	0.01161
2115.08972	0.01176
2113.80395	0.01145
2112.51818	0.01091
2111.23241	0.01052
2109.94664	0.01038
2108.66088	0.01022
2107.37511	0.00992
2106.08934	0.00977
2104.80357	0.01010
2103.51780	0.01081
2102.23203	0.01139
2100.94626	0.01154
2099.66049	0.01132
2098.37473	0.01109
2097.08896	0.01109
2095.80319	0.01119
2094.51742	0.01116
2093.23165	0.01097
2091.94588	0.01077
2090.66011	0.01071
2089.37434	0.01078
2088.08857	0.01078
2086.80281	0.01056
2085.51704	0.01014
2084.23127	0.00970
2082.94550	0.00939
2081.65973	0.00920
2080.37396	0.00906
2079.08819	0.00900
2077.80242	0.00909
2076.51666	0.00930
2075.23089	0.00943
2073.94512	0.00927
2072.65935	0.00879
2071.37358	0.00800
2070.08781	0.00700
2068.80204	0.00597
2067.51627	0.00521
2066.23050	0.00493
2064.94474	0.00511
2063.65897	0.00555
2062.37320	0.00606
2061.08743	0.00658
2059.80166	0.00710
2058.51589	0.00754
2057.23012	0.00772
2055.94435	0.00763
2054.65859	0.00737
2053.37282	0.00699
2052.08705	0.00641
2050.80128	0.00566
2049.51551	0.00498
2048.22974	0.00459
2046.94397	0.00431
2045.65820	0.00375
2044.37243	0.00281
2043.08667	0.00192
2041.80090	0.00152
2040.51513	0.00154
2039.22936	0.00158
2037.94359	0.00143
2036.65782	0.00124
2035.37205	0.00116
2034.08628	0.00116
2032.80052	0.00104
2031.51475	0.00083
2030.22898	0.00078
2028.94321	0.00129
2027.65744	0.00242
2026.37167	0.00370
2025.08590	0.00448
2023.80013	0.00467
2022.51436	0.00476
2021.22860	0.00508
2019.94283	0.00540
2018.65706	0.00536
2017.37129	0.00504
2016.08552	0.00471
2014.79975	0.00443
2013.51398	0.00391
2012.22821	0.00299
2010.94245	0.00175
2009.65668	0.00057
2008.37091	0.00006
2007.08514	0.00074
2005.79937	0.00262
2004.51360	0.00494
2003.22783	0.00677
2001.94206	0.00765
2000.65629	0.00781
1999.37053	0.00783
1998.08476	0.00809
1996.79899	0.00854
1995.51322	0.00877
1994.22745	0.00850
1992.94168	0.00792
1991.65591	0.00751
1990.37014	0.00748
1989.08438	0.00755
1987.79861	0.00723
1986.51284	0.00645
1985.22707	0.00567
1983.94130	0.00553
1982.65553	0.00614
1981.36976	0.00700
1980.08399	0.00760
1978.79822	0.00785
1977.51246	0.00798
1976.22669	0.00800
1974.94092	0.00768
1973.65515	0.00687
1972.36938	0.00581
1971.08361	0.00511
1969.79784	0.00532
1968.51207	0.00640
1967.22631	0.00755
1965.94054	0.00792
1964.65477	0.00735
1963.36900	0.00651
1962.08323	0.00616
1960.79746	0.00653
1959.51169	0.00728
1958.22592	0.00794
1956.94015	0.00822
1955.65439	0.00810
1954.36862	0.00778
1953.08285	0.00756
1951.79708	0.00767
1950.51131	0.00807
1949.22554	0.00857
1947.93977	0.00901
1946.65400	0.00936
1945.36823	0.00962
1944.08247	0.00981
1942.79670	0.01002
1941.51093	0.01027
1940.22516	0.01053
1938.93939	0.01066
1937.65362	0.01065
1936.36785	0.01058
1935.08208	0.01048
1933.79632	0.01029
1932.51055	0.01001
1931.22478	0.00976
1929.93901	0.00972
1928.65324	0.00987
1927.36747	0.01014
1926.08170	0.01048
1924.79593	0.01091
1923.51016	0.01130
1922.22440	0.01144
1920.93863	0.01127
1919.65286	0.01098
1918.36709	0.01081
1917.08132	0.01079
1915.79555	0.01077
1914.50978	0.01070
1913.22401	0.01066
1911.93825	0.01079
1910.65248	0.01107
1909.36671	0.01134
1908.08094	0.01142
1906.79517	0.01126
1905.50940	0.01102
1904.22363	0.01089
1902.93786	0.01089
1901.65209	0.01095
1900.36633	0.01095
1899.08056	0.01085
1897.79479	0.01065
1896.50902	0.01044
1895.22325	0.01034
1893.93748	0.01043
1892.65171	0.01071
1891.36594	0.01107
1890.08018	0.01134
1888.79441	0.01143
1887.50864	0.01132
1886.22287	0.01106
1884.93710	0.01067
1883.65133	0.01016
1882.36556	0.00965
1881.07979	0.00936
1879.79402	0.00944
1878.50826	0.00984
1877.22249	0.01032
1875.93672	0.01074
1874.65095	0.01106
1873.36518	0.01128
1872.07941	0.01138
1870.79364	0.01133
1869.50787	0.01118
1868.22211	0.01104
1866.93634	0.01095
1865.65057	0.01095
1864.36480	0.01098
1863.07903	0.01100
1861.79326	0.01101
1860.50749	0.01103
1859.22172	0.01113
1857.93595	0.01134
1856.65019	0.01160
1855.36442	0.01172
1854.07865	0.01159
1852.79288	0.01124
1851.50711	0.01086
1850.22134	0.01062
1848.93557	0.01058
1847.64980	0.01068
1846.36404	0.01083
1845.07827	0.01100
1843.79250	0.01117
1842.50673	0.01131
1841.22096	0.01132
1839.93519	0.01120
1838.64942	0.01100
1837.36365	0.01084
1836.07788	0.01083
1834.79212	0.01100
1833.50635	0.01132
1832.22058	0.01162
1830.93481	0.01178
1829.64904	0.01180
1828.36327	0.01177
1827.07750	0.01178
1825.79173	0.01183
1824.50597	0.01184
1823.22020	0.01177
1821.93443	0.01159
1820.64866	0.01142
1819.36289	0.01134
1818.07712	0.01141
1816.79135	0.01161
1815.50558	0.01186
1814.21981	0.01201
1812.93405	0.01197
1811.64828	0.01177
1810.36251	0.01157
1809.07674	0.01147
1807.79097	0.01152
1806.50520	0.01162
1805.21943	0.01168
1803.93366	0.01167
1802.64790	0.01162
1801.36213	0.01163
1800.07636	0.01170
1798.79059	0.01174
1797.50482	0.01171
1796.21905	0.01161
1794.93328	0.01150
1793.64751	0.01145
1792.36174	0.01151
1791.07598	0.01170
1789.79021	0.01191
1788.50444	0.01198
1787.21867	0.01189
1785.93290	0.01171
1784.64713	0.01158
1783.36136	0.01154
1782.07559	0.01156
1780.78983	0.01162
1779.50406	0.01174
1778.21829	0.01189
1776.93252	0.01204
1775.64675	0.01208
1774.36098	0.01199
1773.07521	0.01183
1771.78944	0.01172
1770.50367	0.01167
1769.21791	0.01168
1767.93214	0.01174
1766.64637	0.01185
1765.36060	0.01196
1764.07483	0.01202
1762.78906	0.01207
1761.50329	0.01217
1760.21752	0.01230
1758.93176	0.01237
1757.64599	0.01239
1756.36022	0.01242
1755.07445	0.01246
1753.78868	0.01245
1752.50291	0.01236
1751.21714	0.01225
1749.93137	0.01216
1748.64560	0.01210
1747.35984	0.01204
1746.07407	0.01204
1744.78830	0.01211
1743.50253	0.01218
1742.21676	0.01221
1740.93099	0.01223
1739.64522	0.01229
1738.35945	0.01237
1737.07369	0.01238
1735.78792	0.01230
1734.50215	0.01227
1733.21638	0.01240
1731.93061	0.01259
1730.64484	0.01268
1729.35907	0.01270
1728.07330	0.01274
1726.78753	0.01283
1725.50177	0.01290
1724.21600	0.01293
1722.93023	0.01295
1721.64446	0.01300
1720.35869	0.01304
1719.07292	0.01308
1717.78715	0.01319
1716.50138	0.01343
1715.21561	0.01376
1713.92985	0.01409
1712.64408	0.01439
1711.35831	0.01470
1710.07254	0.01506
1708.78677	0.01547
1707.50100	0.01592
1706.21523	0.01638
1704.92946	0.01679
1703.64370	0.01709
1702.35793	0.01733
1701.07216	0.01766
1699.78639	0.01826
1698.50062	0.01902
1697.21485	0.01973
1695.92908	0.02038
1694.64331	0.02108
1693.35754	0.02175
1692.07178	0.02228
1690.78601	0.02271
1689.50024	0.02319
1688.21447	0.02373
1686.92870	0.02429
1685.64293	0.02490
1684.35716	0.02565
1683.07139	0.02651
1681.78563	0.02726
1680.49986	0.02782
1679.21409	0.02832
1677.92832	0.02889
1676.64255	0.02954
1675.35678	0.03026
1674.07101	0.03099
1672.78524	0.03163
1671.49947	0.03217
1670.21371	0.03268
1668.92794	0.03326
1667.64217	0.03389
1666.35640	0.03452
1665.07063	0.03512
1663.78486	0.03570
1662.49909	0.03628
1661.21332	0.03681
1659.92756	0.03725
1658.64179	0.03762
1657.35602	0.03794
1656.07025	0.03823
1654.78448	0.03847
1653.49871	0.03878
1652.21294	0.03922
1650.92717	0.03966
1649.64140	0.03989
1648.35564	0.03995
1647.06987	0.04003
1645.78410	0.04023
1644.49833	0.04042
1643.21256	0.04042
1641.92679	0.04025
1640.64102	0.04000
1639.35525	0.03979
1638.06949	0.03958
1636.78372	0.03937
1635.49795	0.03915
1634.21218	0.03893
1632.92641	0.03866
1631.64064	0.03830
1630.35487	0.03788
1629.06910	0.03747
1627.78333	0.03708
1626.49757	0.03668
1625.21180	0.03624
1623.92603	0.03576
1622.64026	0.03526
1621.35449	0.03476
1620.06872	0.03422
1618.78295	0.03366
1617.49718	0.03317
1616.21142	0.03281
1614.92565	0.03249
1613.63988	0.03208
1612.35411	0.03159
1611.06834	0.03114
1609.78257	0.03078
1608.49680	0.03049
1607.21103	0.03025
1605.92526	0.03007
1604.63950	0.02993
1603.35373	0.02981
1602.06796	0.02970
1600.78219	0.02960
1599.49642	0.02951
1598.21065	0.02945
1596.92488	0.02943
1595.63911	0.02946
1594.35335	0.02956
1593.06758	0.02969
1591.78181	0.02982
1590.49604	0.02995
1589.21027	0.03007
1587.92450	0.03018
1586.63873	0.03026
1585.35296	0.03030
1584.06719	0.03034
1582.78143	0.03041
1581.49566	0.03058
1580.20989	0.03085
1578.92412	0.03115
1577.63835	0.03141
1576.35258	0.03170
1575.06681	0.03206
1573.78104	0.03242
1572.49528	0.03266
1571.20951	0.03284
1569.92374	0.03305
1568.63797	0.03336
1567.35220	0.03367
1566.06643	0.03392
1564.78066	0.03413
1563.49489	0.03433
1562.20912	0.03454
1560.92336	0.03478
1559.63759	0.03511
1558.35182	0.03555
1557.06605	0.03596
1555.78028	0.03621
1554.49451	0.03634
1553.20874	0.03652
1551.92297	0.03674
1550.63721	0.03693
1549.35144	0.03707
1548.06567	0.03718
1546.77990	0.03726
1545.49413	0.03732
1544.20836	0.03738
1542.92259	0.03744
1541.63682	0.03749
1540.35105	0.03758
1539.06529	0.03774
1537.77952	0.03792
1536.49375	0.03803
1535.20798	0.03809
1533.92221	0.03820
1532.63644	0.03843
1531.35067	0.03870
1530.06490	0.03892
1528.77914	0.03913
1527.49337	0.03939
1526.20760	0.03976
1524.92183	0.04019
1523.63606	0.04063
1522.35029	0.04105
1521.06452	0.04147
1519.77875	0.04189
1518.49298	0.04227
1517.20722	0.04264
1515.92145	0.04308
1514.63568	0.04362
1513.34991	0.04419
1512.06414	0.04479
1510.77837	0.04540
1509.49260	0.04600
1508.20683	0.04658
1506.92107	0.04720
1505.63530	0.04793
1504.34953	0.04868
1503.06376	0.04929
1501.77799	0.04973
1500.49222	0.05008
1499.20645	0.05040
1497.92068	0.05073
1496.63491	0.05110
1495.34915	0.05153
1494.06338	0.05198
1492.77761	0.05237
1491.49184	0.05269
1490.20607	0.05300
1488.92030	0.05338
1487.63453	0.05383
1486.34876	0.05436
1485.06299	0.05497
1483.77723	0.05560
1482.49146	0.05626
1481.20569	0.05693
1479.91992	0.05763
1478.63415	0.05835
1477.34838	0.05902
1476.06261	0.05961
1474.77684	0.06010
1473.49108	0.06052
1472.20531	0.06096
1470.91954	0.06141
1469.63377	0.06180
1468.34800	0.06206
1467.06223	0.06220
1465.77646	0.06229
1464.49069	0.06237
1463.20492	0.06246
1461.91916	0.06257
1460.63339	0.06272
1459.34762	0.06292
1458.06185	0.06323
1456.77608	0.06369
1455.49031	0.06429
1454.20454	0.06487
1452.91877	0.06532
1451.63301	0.06563
1450.34724	0.06587
1449.06147	0.06612
1447.77570	0.06638
1446.48993	0.06660
1445.20416	0.06671
1443.91839	0.06664
1442.63262	0.06645
1441.34685	0.06624
1440.06109	0.06605
1438.77532	0.06585
1437.48955	0.06565
1436.20378	0.06553
1434.91801	0.06556
1433.63224	0.06574
1432.34647	0.06606
1431.06070	0.06652
1429.77494	0.06710
1428.48917	0.06778
1427.20340	0.06848
1425.91763	0.06920
1424.63186	0.06996
1423.34609	0.07076
1422.06032	0.07159
1420.77455	0.07240
1419.48878	0.07321
1418.20302	0.07402
1416.91725	0.07471
1415.63148	0.07518
1414.34571	0.07546
1413.05994	0.07563
1411.77417	0.07578
1410.48840	0.07586
1409.20263	0.07580
1407.91687	0.07553
1406.63110	0.07506
1405.34533	0.07447
1404.05956	0.07381
1402.77379	0.07308
1401.48802	0.07226
1400.20225	0.07133
1398.91648	0.07032
1397.63071	0.06924
1396.34495	0.06809
1395.05918	0.06689
1393.77341	0.06566
1392.48764	0.06441
1391.20187	0.06312
1389.91610	0.06182
1388.63033	0.06055
1387.34456	0.05934
1386.05880	0.05819
1384.77303	0.05704
1383.48726	0.05584
1382.20149	0.05458
1380.91572	0.05326
1379.62995	0.05190
1378.34418	0.05051
1377.05841	0.04913
1375.77264	0.04782
1374.48688	0.04655
1373.20111	0.04530
1371.91534	0.04401
1370.62957	0.04266
1369.34380	0.04131
1368.05803	0.04006
1366.77226	0.03893
1365.48649	0.03792
1364.20073	0.03699
1362.91496	0.03610
1361.62919	0.03525
1360.34342	0.03444
1359.05765	0.03371
1357.77188	0.03306
1356.48611	0.03246
1355.20034	0.03188
1353.91457	0.03132
1352.62881	0.03079
1351.34304	0.03027
1350.05727	0.02975
1348.77150	0.02923
1347.48573	0.02873
1346.19996	0.02828
1344.91419	0.02787
1343.62842	0.02752
1342.34266	0.02720
1341.05689	0.02694
1339.77112	0.02670
1338.48535	0.02646
1337.19958	0.02618
1335.91381	0.02583
1334.62804	0.02545
1333.34227	0.02509
1332.05650	0.02477
1330.77074	0.02450
1329.48497	0.02428
1328.19920	0.02410
1326.91343	0.02395
1325.62766	0.02382
1324.34189	0.02368
1323.05612	0.02349
1321.77035	0.02328
1320.48459	0.02304
1319.19882	0.02279
1317.91305	0.02251
1316.62728	0.02223
1315.34151	0.02196
1314.05574	0.02174
1312.76997	0.02156
1311.48420	0.02140
1310.19843	0.02123
1308.91267	0.02105
1307.62690	0.02087
1306.34113	0.02071
1305.05536	0.02056
1303.76959	0.02039
1302.48382	0.02021
1301.19805	0.02001
1299.91228	0.01983
1298.62652	0.01968
1297.34075	0.01957
1296.05498	0.01947
1294.76921	0.01939
1293.48344	0.01931
1292.19767	0.01924
1290.91190	0.01922
1289.62613	0.01921
1288.34036	0.01918
1287.05460	0.01908
1285.76883	0.01891
1284.48306	0.01873
1283.19729	0.01860
1281.91152	0.01853
1280.62575	0.01851
1279.33998	0.01850
1278.05421	0.01849
1276.76845	0.01847
1275.48268	0.01843
1274.19691	0.01837
1272.91114	0.01830
1271.62537	0.01823
1270.33960	0.01818
1269.05383	0.01813
1267.76806	0.01807
1266.48229	0.01801
1265.19653	0.01795
1263.91076	0.01790
1262.62499	0.01785
1261.33922	0.01781
1260.05345	0.01779
1258.76768	0.01779
1257.48191	0.01778
1256.19614	0.01775
1254.91037	0.01772
1253.62461	0.01773
1252.33884	0.01774
1251.05307	0.01774
1249.76730	0.01768
1248.48153	0.01761
1247.19576	0.01754
1245.90999	0.01750
1244.62422	0.01748
1243.33846	0.01746
1242.05269	0.01742
1240.76692	0.01736
1239.48115	0.01730
1238.19538	0.01725
1236.90961	0.01719
1235.62384	0.01713
1234.33807	0.01706
1233.05230	0.01699
1231.76654	0.01692
1230.48077	0.01684
1229.19500	0.01671
1227.90923	0.01653
1226.62346	0.01634
1225.33769	0.01617
1224.05192	0.01604
1222.76615	0.01593
1221.48039	0.01581
1220.19462	0.01570
1218.90885	0.01559
1217.62308	0.01549
1216.33731	0.01542
1215.05154	0.01535
1213.76577	0.01530
1212.48000	0.01525
1211.19423	0.01520
1209.90847	0.01516
1208.62270	0.01514
1207.33693	0.01512
1206.05116	0.01510
1204.76539	0.01509
1203.47962	0.01512
1202.19385	0.01520
1200.90808	0.01530
1199.62232	0.01531
1198.33655	0.01529
1197.05078	0.01524
1195.76501	0.01517
1194.47924	0.01506
1193.19347	0.01494
1191.90770	0.01485
1190.62193	0.01481
1189.33616	0.01476
1188.05040	0.01467
1186.76463	0.01455
1185.47886	0.01449
1184.19309	0.01451
1182.90732	0.01458
1181.62155	0.01465
1180.33578	0.01464
1179.05001	0.01461
1177.76425	0.01459
1176.47848	0.01464
1175.19271	0.01473
1173.90694	0.01483
1172.62117	0.01491
1171.33540	0.01497
1170.04963	0.01502
1168.76386	0.01511
1167.47809	0.01522
1166.19233	0.01535
1164.90656	0.01546
1163.62079	0.01558
1162.33502	0.01573
1161.04925	0.01588
1159.76348	0.01601
1158.47771	0.01614
1157.19194	0.01630
1155.90618	0.01650
1154.62041	0.01669
1153.33464	0.01682
1152.04887	0.01690
1150.76310	0.01697
1149.47733	0.01710
1148.19156	0.01736
1146.90579	0.01775
1145.62002	0.01825
1144.33426	0.01878
1143.04849	0.01930
1141.76272	0.01980
1140.47695	0.02030
1139.19118	0.02085
1137.90541	0.02149
1136.61964	0.02224
1135.33387	0.02311
1134.04811	0.02411
1132.76234	0.02525
1131.47657	0.02654
1130.19080	0.02796
1128.90503	0.02949
1127.61926	0.03110
1126.33349	0.03278
1125.04772	0.03455
1123.76195	0.03648
1122.47619	0.03854
1121.19042	0.04067
1119.90465	0.04282
1118.61888	0.04501
1117.33311	0.04727
1116.04734	0.04959
1114.76157	0.05192
1113.47580	0.05419
1112.19004	0.05640
1110.90427	0.05857
1109.61850	0.06077
1108.33273	0.06301
1107.04696	0.06525
1105.76119	0.06742
1104.47542	0.06950
1103.18965	0.07154
1101.90388	0.07358
1100.61812	0.07559
1099.33235	0.07751
1098.04658	0.07932
1096.76081	0.08100
1095.47504	0.08258
1094.18927	0.08411
1092.90350	0.08559
1091.61773	0.08702
1090.33197	0.08839
1089.04620	0.08976
1087.76043	0.09115
1086.47466	0.09254
1085.18889	0.09388
1083.90312	0.09517
1082.61735	0.09649
1081.33158	0.09790
1080.04581	0.09945
1078.76005	0.10114
1077.47428	0.10294
1076.18851	0.10479
1074.90274	0.10670
1073.61697	0.10870
1072.33120	0.11082
1071.04543	0.11299
1069.75966	0.11512
1068.47390	0.11717
1067.18813	0.11923
1065.90236	0.12140
1064.61659	0.12371
1063.33082	0.12604
1062.04505	0.12832
1060.75928	0.13054
1059.47351	0.13272
1058.18774	0.13488
1056.90198	0.13697
1055.61621	0.13894
1054.33044	0.14083
1053.04467	0.14272
1051.75890	0.14465
1050.47313	0.14663
1049.18736	0.14862
1047.90159	0.15062
1046.61583	0.15265
1045.33006	0.15474
1044.04429	0.15687
1042.75852	0.15904
1041.47275	0.16123
1040.18698	0.16343
1038.90121	0.16563
1037.61544	0.16783
1036.32967	0.17007
1035.04391	0.17230
1033.75814	0.17443
1032.47237	0.17633
1031.18660	0.17792
1029.90083	0.17924
1028.61506	0.18036
1027.32929	0.18138
1026.04352	0.18232
1024.75775	0.18315
1023.47199	0.18377
1022.18622	0.18414
1020.90045	0.18426
1019.61468	0.18415
1018.32891	0.18378
1017.04314	0.18309
1015.75737	0.18205
1014.47160	0.18071
1013.18584	0.17914
1011.90007	0.17738
1010.61430	0.17537
1009.32853	0.17301
1008.04276	0.17025
1006.75699	0.16709
1005.47122	0.16360
1004.18545	0.15987
1002.89968	0.15599
1001.61392	0.15201
1000.32815	0.14793
999.04238	0.14376
997.75661	0.13951
996.47084	0.13521
995.18507	0.13088
993.89930	0.12656
992.61353	0.12227
991.32777	0.11804
990.04200	0.11391
988.75623	0.10991
987.47046	0.10603
986.18469	0.10230
984.89892	0.09873
983.61315	0.09538
982.32738	0.09222
981.04161	0.08919
979.75585	0.08626
978.47008	0.08342
977.18431	0.08078
975.89854	0.07843
974.61277	0.07643
973.32700	0.07474
972.04123	0.07332
970.75546	0.07215
969.46970	0.07127
968.18393	0.07072
966.89816	0.07059
965.61239	0.07086
964.32662	0.07139
963.04085	0.07196
961.75508	0.07238
960.46931	0.07254
959.18354	0.07236
957.89778	0.07174
956.61201	0.07069
955.32624	0.06932
954.04047	0.06782
952.75470	0.06627
951.46893	0.06469
950.18316	0.06311
948.89739	0.06158
947.61163	0.06019
946.32586	0.05891
945.04009	0.05760
943.75432	0.05618
942.46855	0.05467
941.18278	0.05318
939.89701	0.05181
938.61124	0.05058
937.32547	0.04949
936.03971	0.04849
934.75394	0.04756
933.46817	0.04666
932.18240	0.04582
930.89663	0.04501
929.61086	0.04422
928.32509	0.04343
927.03932	0.04266
925.75356	0.04199
924.46779	0.04143
923.18202	0.04091
921.89625	0.04037
920.61048	0.03981
919.32471	0.03928
918.03894	0.03878
916.75317	0.03829
915.46740	0.03782
914.18164	0.03739
912.89587	0.03701
911.61010	0.03666
910.32433	0.03631
909.03856	0.03596
907.75279	0.03562
906.46702	0.03531
905.18125	0.03501
903.89549	0.03470
902.60972	0.03437
901.32395	0.03403
900.03818	0.03374
898.75241	0.03352
897.46664	0.03337
896.18087	0.03325
894.89510	0.03313
893.60933	0.03300
892.32357	0.03286
891.03780	0.03273
889.75203	0.03266
888.46626	0.03272
887.18049	0.03305
885.89472	0.03378
884.60895	0.03505
883.32318	0.03684
882.03742	0.03894
880.75165	0.04098
879.46588	0.04264
878.18011	0.04387
876.89434	0.04487
875.60857	0.04594
874.32280	0.04714
873.03703	0.04825
871.75126	0.04891
870.46550	0.04894
869.17973	0.04838
867.89396	0.04733
866.60819	0.04593
865.32242	0.04429
864.03665	0.04260
862.75088	0.04098
861.46511	0.03949
860.17935	0.03815
858.89358	0.03696
857.60781	0.03595
856.32204	0.03510
855.03627	0.03436
853.75050	0.03370
852.46473	0.03313
851.17896	0.03268
849.89319	0.03234
848.60743	0.03206
847.32166	0.03182
846.03589	0.03160
844.75012	0.03141
843.46435	0.03121
842.17858	0.03096
840.89281	0.03062
839.60704	0.03024
838.32128	0.02986
837.03551	0.02954
835.74974	0.02929
834.46397	0.02909
833.17820	0.02893
831.89243	0.02880
830.60666	0.02868
829.32089	0.02854
828.03512	0.02837
826.74936	0.02816
825.46359	0.02798
824.17782	0.02788
822.89205	0.02785
821.60628	0.02784
820.32051	0.02779
819.03474	0.02774
817.74897	0.02773
816.46321	0.02775
815.17744	0.02773
813.89167	0.02764
812.60590	0.02753
811.32013	0.02744
810.03436	0.02738
808.74859	0.02732
807.46282	0.02724
806.17705	0.02715
804.89129	0.02706
803.60552	0.02697
802.31975	0.02687
801.03398	0.02675
799.74821	0.02666
798.46244	0.02660
797.17667	0.02659
795.89090	0.02659
794.60513	0.02657
793.31937	0.02655
792.03360	0.02660
790.74783	0.02673
789.46206	0.02684
788.17629	0.02685
786.89052	0.02674
785.60475	0.02659
784.31898	0.02647
783.03322	0.02643
781.74745	0.02644
780.46168	0.02647
779.17591	0.02646
777.89014	0.02641
776.60437	0.02636
775.31860	0.02635
774.03283	0.02632
772.74706	0.02624
771.46130	0.02611
770.17553	0.02599
768.88976	0.02590
767.60399	0.02583
766.31822	0.02579
765.03245	0.02578
763.74668	0.02581
762.46091	0.02588
761.17515	0.02595
759.88938	0.02601
758.60361	0.02604
757.31784	0.02605
756.03207	0.02604
754.74630	0.02600
753.46053	0.02600
752.17476	0.02606
750.88899	0.02613
749.60323	0.02608
748.31746	0.02590
747.03169	0.02571
745.74592	0.02564
744.46015	0.02573
743.17438	0.02590
741.88861	0.02603
740.60284	0.02608
739.31708	0.02604
738.03131	0.02595
736.74554	0.02582
735.45977	0.02564
734.17400	0.02544
732.88823	0.02535
731.60246	0.02547
730.31669	0.02578
729.03092	0.02615
727.74516	0.02644
726.45939	0.02660
725.17362	0.02665
723.88785	0.02655
722.60208	0.02652
721.31631	0.02651
720.03054	0.02654
718.74477	0.02659
717.45901	0.02662
716.17324	0.02660
714.88747	0.02654
713.60170	0.02646
712.31593	0.02638
711.03016	0.02632
709.74439	0.02630
708.45862	0.02633
707.17285	0.02637
705.88709	0.02637
704.60132	0.02630
703.31555	0.02618
702.02978	0.02607
700.74401	0.02602
699.45824	0.02605
698.17247	0.02613
696.88670	0.02622
695.60094	0.02631
694.31517	0.02638
693.02940	0.02641
691.74363	0.02639
690.45786	0.02634
689.17209	0.02629
687.88632	0.02626
686.60055	0.02624
685.31478	0.02624
684.02902	0.02622
682.74325	0.02620
681.45748	0.02614
680.17171	0.02607
678.88594	0.02601
677.60017	0.02599
676.31440	0.02600
675.02863	0.02602
673.74287	0.02601
672.45710	0.02601
671.17133	0.02605
669.88556	0.02618
668.59979	0.02632
667.31402	0.02643
666.02825	0.02647
664.74248	0.02636
663.45671	0.02618
662.17095	0.02598
660.88518	0.02580
659.59941	0.02567
658.31364	0.02562
657.02787	0.02562
655.74210	0.02563
654.45633	0.02563
653.17056	0.02566
651.88480	0.02575
650.59903	0.02588
649.31326	0.02598
648.02749	0.02597
646.74172	0.02585
645.45595	0.02568
644.17018	0.02556
642.88441	0.02553
641.59864	0.02562
640.31288	0.02579
639.02711	0.02602
637.74134	0.02630
636.45557	0.02658
635.16980	0.02685
633.88403	0.02706
632.59826	0.02717
631.31249	0.02729
630.02673	0.02746
628.74096	0.02723
627.45519	0.02686
626.16942	0.02669
624.88365	0.02697
623.59788	0.02794
622.31211	0.02954
621.02634	0.03141
619.74057	0.03319
618.45481	0.03495
617.16904	0.03704
615.88327	0.03954
614.59750	0.04207
613.31173	0.04432
612.02596	0.04669
610.74019	0.05007
609.45442	0.05480
608.16866	0.06016
606.88289	0.06505
605.59712	0.06889
604.31135	0.07170
603.02558	0.07355
601.73981	0.07434
600.45404	0.07397
599.16827	0.07264
597.88250	0.07077
596.59674	0.06876
595.31097	0.06687
594.02520	0.06519
592.73943	0.06379
591.45366	0.06279
590.16789	0.06223
588.88212	0.06212
587.59635	0.06241
586.31059	0.06304
585.02482	0.06399
583.73905	0.06525
582.45328	0.06681
581.16751	0.06856
579.88174	0.07040
578.59597	0.07225
577.31020	0.07409
576.02443	0.07594
574.73867	0.07780
573.45290	0.07962
572.16713	0.08139
570.88136	0.08315
569.59559	0.08503
568.30982	0.08719
567.02405	0.08968
565.73828	0.09231
564.45251	0.09466
563.16675	0.09631
561.88098	0.09702
560.59521	0.09670
559.30944	0.09533
558.02367	0.09297
556.73790	0.08980
555.45213	0.08604
554.16636	0.08197
552.88060	0.07786
551.59483	0.07392
550.30906	0.07024
549.02329	0.06680
547.73752	0.06361
546.45175	0.06070
545.16598	0.05808
543.88021	0.05575
542.59444	0.05367
541.30868	0.05180
540.02291	0.05011
538.73714	0.04859
537.45137	0.04719
536.16560	0.04589
534.87983	0.04470
533.59406	0.04366
532.30829	0.04279
531.02253	0.04200
529.73676	0.04115
528.45099	0.04022
527.16522	0.03933
525.87945	0.03861
524.59368	0.03805
523.30791	0.03752
522.02214	0.03688
520.73637	0.03614
519.45061	0.03539
518.16484	0.03473
516.87907	0.03420
515.59330	0.03370
514.30753	0.03316
513.02176	0.03254
511.73599	0.03192
510.45022	0.03141
509.16446	0.03100
507.87869	0.03062
506.59292	0.03022
505.30715	0.02983
504.02138	0.02949
502.73561	0.02921
501.44984	0.02892
500.16407	0.02861
498.87830	0.02829
497.59254	0.02794
496.30677	0.02757
495.02100	0.02719
493.73523	0.02685
492.44946	0.02659
491.16369	0.02639
489.87792	0.02620
488.59215	0.02603
487.30639	0.02589
486.02062	0.02584
484.73485	0.02585
483.44908	0.02585
482.16331	0.02579
480.87754	0.02574
479.59177	0.02576
478.30600	0.02587
477.02023	0.02599
475.73447	0.02603
474.44870	0.02602
473.16293	0.02603
471.87716	0.02610
470.59139	0.02617
469.30562	0.02614
468.01985	0.02596
466.73408	0.02569
465.44832	0.02541
464.16255	0.02515
462.87678	0.02489
461.59101	0.02460
460.30524	0.02431
459.01947	0.02406
457.73370	0.02384
456.44793	0.02361
455.16216	0.02334
453.87640	0.02305
452.59063	0.02283
451.30486	0.02268
450.01909	0.02256
448.73332	0.02242
447.44755	0.02223
446.16178	0.02202
444.87601	0.02180
443.59025	0.02158
442.30448	0.02138
441.01871	0.02121
439.73294	0.02108
438.44717	0.02098
437.16140	0.02092
435.87563	0.02087
434.58986	0.02081
433.30409	0.02073
432.01833	0.02064
430.73256	0.02056
429.44679	0.02051
428.16102	0.02049
426.87525	0.02045
425.58948	0.02037
424.30371	0.02024
423.01794	0.02008
421.73218	0.01989
420.44641	0.01966
419.16064	0.01942
417.87487	0.01922
416.58910	0.01910
415.30333	0.01905
414.01756	0.01901
412.73179	0.01898
411.44602	0.01895
410.16026	0.01891
408.87449	0.01885
407.58872	0.01875
406.30295	0.01865
405.01718	0.01857
403.73141	0.01854
402.44564	0.01858
401.15987	0.01867
399.87411	0.01876
